### header ###
fiducial parameters:
Omega_m = 0.31
Omega_nu = 0
Omega_de = 0.69
Omega_k = 0
H_0 = 100
w_de = -1
zeff = 0
beta = 0
fgrowth = 0
b_1 = 2
gamma = 0.55
Lx = 3500 Ly = 3500 Lz = 3500
nx = 700 ny = 700 nz = 700
xoffset = 860.662 yoffset = 18.9864 zoffset = 261.444
bins = 400 dk = 0.001
kx_ny = 0.628319 ky_ny = 0.628319 kz_ny = 0.628319
############################
A(data) = 3.17318 (not used)
A(ran) = 3.17323 (used)
Ngal = 174823
weighted Ngal = 0
Nran = 8615817
weighted Nran = 0
SN(data) = 3299.82
SN(ran) = 63.4676
SN(data+ran) = 3363.29
############################
13 columns: k_central k_mean P_0(k) sigma^{lin}_{P_0(k)} P^img_1(k) sigma^{lin}_{P_1(k)} P_2(k) sigma^{lin}_{P_2(k)} P^img_3(k) sigma^{lin}_{P_3(k)} P_4(k) sigma^{lin}_{P_4(k)} N_modes
### header ###
0.00050000 0 0 0 0 0 0 0 0 0 0 0 0
0.00150000 0.00179520 22742.08455894 0 -50637.33303900 0 -63007.66916845 0 40577.40026079 0 99371.96112876 0 3
0.00250000 0.00253879 44395.17487506 0 -61899.34100638 0 -55037.37336114 0 -43785.59438592 0 -60438.95566341 0 6
0.00350000 0.00331552 87422.47496267 0 -71249.87631695 0 -98867.81794348 0 -4995.83977348 0 -37317.61154880 0 7
0.00450000 0.00420575 129289.96470786 0 -66586.46754819 0 -103214.35276814 0 -45810.82242813 0 -20406.61455656 0 24
0.00550000 0.00557378 151280.04973290 0 -5717.44458781 0 -113171.99562469 0 -91748.32698999 0 11645.76378334 0 45
0.00650000 0.00659388 145573.17135677 0 16862.43738108 0 -77538.12114888 0 -87593.67007331 0 -23734.18439246 0 40
0.00750000 0.00754703 111540.63998410 0 22071.46733633 0 -94904.36449573 0 -61598.09156679 0 32649.36930022 0 57
0.00850000 0.00846663 92679.16527702 0 14672.53380567 0 -68170.38764269 0 -52451.34925397 0 -29713.19892278 0 75
0.00950000 0.00948925 86973.63577899 0 5414.77882623 0 -64652.17637040 0 -41403.81290253 0 -16740.02669462 0 112
0.01050000 0.01054430 75387.22263151 0 2645.50963084 0 -40168.35298069 0 -46720.97791781 0 -36830.66655914 0 105
0.01150000 0.01145670 77183.59102483 0 2138.12913814 0 -31766.41618530 0 -42265.74600059 0 -22376.53859717 0 144
0.01250000 0.01249090 77825.99421410 0 -3551.69717082 0 -19375.28485199 0 -17083.76579397 0 -26592.68187335 0 169
0.01350000 0.01339930 80327.03900175 0 -7255.91873141 0 -146.48478813 0 -18387.68127877 0 -21248.31448330 0 180
0.01450000 0.01448870 89449.16428947 0 -3842.80754345 0 -5600.89028038 0 2908.03502866 0 -8543.16433117 0 267
0.01550000 0.01550050 81383.09813793 0 4515.51552710 0 14130.73444044 0 5608.55640418 0 -22997.92176958 0 238
0.01650000 0.01653350 88625.56181041 0 4116.89957088 0 -1344.44927133 0 219.13423787 0 17463.02534964 0 315
0.01750000 0.01747870 82187.14188471 0 1056.67737197 0 33181.05207980 0 13915.47597894 0 9083.71598417 0 297
0.01850000 0.01844180 83956.42030977 0 933.96993233 0 9929.58619233 0 5061.75494937 0 20112.67153995 0 388
0.01950000 0.01947590 85075.31468354 0 1477.89827681 0 28500.22030240 0 3209.83526014 0 12223.87045043 0 399
0.02050000 0.02045430 83004.44959937 0 8112.07413499 0 37336.83306155 0 -4129.69143141 0 24588.69866103 0 462
0.02150000 0.02154770 75403.97120110 0 10430.53703281 0 44954.62206195 0 3053.30919871 0 32860.24390794 0 571
0.02250000 0.02255340 66250.82171736 0 9967.52338855 0 56901.74769138 0 4426.33220420 0 32305.40538785 0 510
0.02350000 0.02348930 62008.60013148 0 6369.60466192 0 52158.19308290 0 14072.05824362 0 38273.62889347 0 555
0.02450000 0.02439640 57129.70808820 0 2045.95580215 0 58332.45771642 0 15979.25945315 0 15070.22802853 0 592
0.02550000 0.02547300 60461.54937138 0 -3200.67412979 0 54136.32279854 0 5185.60443913 0 22209.05290128 0 837
0.02650000 0.02652900 62661.11990642 0 -4525.35109649 0 53833.05004182 0 -8874.67360253 0 7471.14347096 0 723
0.02750000 0.02749970 69125.50573530 0 -5731.87758335 0 50057.42786779 0 -3657.21315923 0 7565.00290456 0 826
0.02850000 0.02848090 73874.45585613 0 -4004.98765220 0 50774.13175839 0 -11581.24244814 0 -11044.79363265 0 831
0.02950000 0.02946900 78371.72780709 0 1456.21506155 0 52403.12686233 0 -4200.02418303 0 -13080.97006867 0 996
0.03050000 0.03053250 75486.14035794 0 5685.66726819 0 46638.80876097 0 -1079.45655067 0 -24820.81809862 0 1041
0.03150000 0.03150510 69888.63351343 0 7485.87996406 0 45177.18694642 0 8987.05762854 0 -27793.97021697 0 1036
0.03250000 0.03246190 63079.72173964 0 7422.83115411 0 37494.31457829 0 2511.41990827 0 -18842.36560084 0 1059
0.03350000 0.03345080 60766.95785174 0 4308.78871950 0 38807.11017717 0 12201.61396198 0 -24941.76750049 0 1302
0.03450000 0.03451200 53401.97108629 0 2462.86029711 0 30641.33945364 0 10235.41057677 0 -16746.77108506 0 1339
0.03550000 0.03553350 52381.09518690 0 2069.33635567 0 25077.21734180 0 6763.61195134 0 -15758.04344676 0 1365
0.03650000 0.03647120 51749.14580280 0 885.59354378 0 23000.61952575 0 9551.83288387 0 -6422.93030899 0 1308
0.03750000 0.03744890 48424.83575562 0 1029.88752908 0 20739.67503772 0 6097.74952399 0 -7165.74623125 0 1579
0.03850000 0.03847530 48829.16196241 0 1265.32633084 0 19311.21314283 0 6364.71497885 0 -2507.31707075 0 1662
0.03950000 0.03950240 45104.68474920 0 29.19725305 0 18120.37860439 0 3025.43238490 0 -1842.02791659 0 1683
0.04050000 0.04050350 47023.23901597 0 720.14577786 0 15835.71634331 0 3198.17870533 0 1739.56938518 0 1822
0.04150000 0.04152450 45483.38227233 0 317.26399469 0 14373.98212225 0 1929.10923780 0 780.14162707 0 1887
0.04250000 0.04250150 45717.97465309 0 620.73009060 0 14917.13036558 0 2465.47936873 0 1443.74917989 0 1920
0.04350000 0.04349210 44454.07588489 0 -306.61122999 0 11650.26004363 0 3530.84576371 0 1217.77837824 0 2005
0.04450000 0.04448520 44549.05938357 0 552.64434506 0 9114.95375255 0 3107.32052547 0 916.80883086 0 2151
0.04550000 0.04548030 42848.91096051 0 375.57936661 0 8004.99569612 0 5236.02999830 0 2475.58471374 0 2274
0.04650000 0.04648670 43065.18108057 0 519.61256882 0 4971.77354027 0 628.41082725 0 2367.94424234 0 2311
0.04750000 0.04749250 42850.93427764 0 -999.79855520 0 3978.58336363 0 2126.67491505 0 434.23645432 0 2568
0.04850000 0.04851840 43089.01126012 0 901.83740815 0 2619.81350327 0 -1792.54657207 0 1293.58532677 0 2493
0.04950000 0.04949480 42523.04449582 0 914.19762769 0 2315.27055301 0 -2594.76933344 0 -124.78471189 0 2644
0.05050000 0.05050630 41605.69498966 0 1518.34213814 0 5510.33559809 0 -2212.62093054 0 -1039.05090756 0 2829
0.05150000 0.05149060 40553.45767473 0 2027.70098536 0 6514.84511002 0 -4860.04147200 0 -72.25658900 0 2784
0.05250000 0.05249300 38254.85700675 0 1862.26108790 0 8879.18110347 0 -458.26671746 0 -2994.91401816 0 3055
0.05350000 0.05348950 37398.54423407 0 1116.48325418 0 8264.90202233 0 1116.55631841 0 -1284.27806797 0 3009
0.05450000 0.05448610 35868.24204355 0 907.94670182 0 6942.87784920 0 3763.20125497 0 475.87407276 0 3336
0.05550000 0.05550870 35845.19870955 0 44.54939660 0 5255.34143626 0 4868.78669827 0 1952.15257180 0 3349
0.05650000 0.05647670 35145.69301456 0 -123.54149592 0 2595.52245704 0 4521.78781021 0 2947.01760540 0 3324
0.05750000 0.05747970 34759.12703592 0 138.80967181 0 1835.39593266 0 2442.21122172 0 2924.21032506 0 3639
0.05850000 0.05849280 35065.09754882 0 492.04262477 0 1597.95966727 0 -687.33319431 0 2725.75663641 0 3846
0.05950000 0.05951020 34317.59427521 0 833.03900535 0 4915.39043620 0 -3066.75301698 0 7512.45286239 0 3787
0.06050000 0.06049470 34252.51090748 0 940.89417318 0 5373.77293236 0 -4848.72213672 0 3752.14045466 0 3930
0.06150000 0.06148310 32808.87413409 0 1088.97400965 0 11126.68177323 0 -3633.37173903 0 6699.78753649 0 4083
0.06250000 0.06249100 33931.81514212 0 706.63226755 0 14449.40688866 0 -2178.47183362 0 7166.85905567 0 4303
0.06350000 0.06350600 32436.47137538 0 753.11573052 0 14855.30678656 0 231.66419124 0 6866.50886814 0 4470
0.06450000 0.06451750 33164.64072973 0 745.62945713 0 16668.64856248 0 702.59912207 0 7832.45170740 0 4479
0.06550000 0.06550280 31562.84800056 0 991.61198928 0 15226.47307369 0 1745.65057722 0 5946.22555214 0 4636
0.06650000 0.06648880 31482.47734784 0 1123.85712106 0 17198.87005746 0 2001.71260087 0 8274.09687462 0 4653
0.06750000 0.06749660 29776.48378640 0 978.80663996 0 13974.03976925 0 915.50379131 0 6300.60954774 0 5220
0.06850000 0.06852730 29726.12567112 0 485.08241384 0 15141.71856718 0 1120.91881496 0 6872.98348296 0 5029
0.06950000 0.06949320 28316.66047596 0 248.79831515 0 12403.15882959 0 386.43783522 0 2833.62192082 0 5040
0.07050000 0.07048030 29387.66967761 0 291.08002287 0 14064.41460112 0 -362.77738950 0 3134.11823681 0 5475
0.07150000 0.07148790 28597.11471170 0 175.58795694 0 12239.71976796 0 -877.02254759 0 -104.88819807 0 5509
0.07250000 0.07249820 28493.02628593 0 231.70915384 0 13054.55453945 0 -518.23446504 0 -0.96763905 0 5916
0.07350000 0.07351270 28316.43566295 0 405.81671708 0 12611.78530716 0 111.62483246 0 -3034.27877702 0 5721
0.07450000 0.07449140 28034.96976864 0 822.65264407 0 12517.13902800 0 508.54277598 0 -2712.90857262 0 6028
0.07550000 0.07549160 27338.61145586 0 1121.35382814 0 12275.80225681 0 609.40625906 0 -1107.83469751 0 6183
0.07650000 0.07648840 26124.05914437 0 1048.69538588 0 12294.57414353 0 1204.45820713 0 -1351.20490242 0 6330
0.07750000 0.07749960 26307.95619033 0 339.64075810 0 13248.56817107 0 1508.11314597 0 1535.43916790 0 6583
0.07850000 0.07848650 25021.46371417 0 331.39574079 0 10123.36377028 0 2721.23789481 0 -342.23510029 0 6549
0.07950000 0.07947320 25244.14100515 0 135.29472033 0 10630.46324671 0 1957.15466138 0 1600.46633238 0 6828
0.08050000 0.08048110 24519.23143951 0 357.12109405 0 8849.31469448 0 1469.69260178 0 -1499.92995224 0 7147
0.08150000 0.08149960 23729.01369312 0 791.02370105 0 7799.78637638 0 548.32006672 0 -823.70476898 0 7386
0.08250000 0.08250610 23021.52713611 0 712.46616528 0 6771.85134833 0 638.67016917 0 -3045.42950255 0 7227
0.08350000 0.08350160 21825.52189834 0 841.65946039 0 6219.81175028 0 126.60906951 0 -2788.50194879 0 7798
0.08450000 0.08449610 21576.09185862 0 785.75520805 0 6015.69277366 0 -104.30705643 0 -1758.44243775 0 7371
0.08550000 0.08548940 21079.25509631 0 268.55375881 0 5820.26282005 0 416.80894943 0 -4121.65436614 0 8256
0.08650000 0.08650700 20989.44229697 0 247.38536535 0 6242.72019647 0 -531.93232202 0 -1635.33483095 0 8037
0.08750000 0.08749060 20958.53050745 0 3.93576772 0 5839.11339132 0 682.15912278 0 -2402.93638807 0 8155
0.08850000 0.08849210 21376.23308862 0 -53.98648492 0 6471.71473316 0 1023.27128206 0 550.95937151 0 8718
0.08950000 0.08949900 21190.08791251 0 163.72007790 0 6011.29767922 0 968.03472437 0 -570.40232508 0 8571
0.09050000 0.09049190 20637.38511607 0 87.81140148 0 6044.10913870 0 685.84942842 0 1345.66326161 0 8932
0.09150000 0.09150830 20732.81824078 0 400.90904897 0 6057.57543828 0 599.78875829 0 895.08852145 0 9285
0.09250000 0.09250820 20061.30176611 0 507.84248344 0 6676.78916510 0 233.13446836 0 1414.99559532 0 9204
0.09350000 0.09350330 19667.76658402 0 672.92717634 0 5280.59917845 0 238.45354428 0 2027.34128454 0 9349
0.09450000 0.09448040 19124.50593419 0 487.16755455 0 6594.81109932 0 876.36946579 0 2024.20514299 0 9564
0.09550000 0.09549270 18437.14014199 0 624.34845607 0 5552.89270176 0 396.28014900 0 2464.69252318 0 10155
0.09650000 0.09649430 18231.43623361 0 613.78898878 0 6277.29643812 0 1086.27175721 0 2065.23351815 0 9913
0.09750000 0.09749140 17367.92944445 0 346.01420706 0 5284.56712816 0 120.27271469 0 2468.59302899 0 10476
0.09850000 0.09850240 17308.46640209 0 87.30647145 0 4989.05042044 0 346.32557309 0 1544.22935677 0 10575
0.09950000 0.09950330 17503.82891179 0 -177.62925911 0 5369.36659728 0 -38.14728398 0 1891.48677981 0 10882
0.10050000 0.10051200 17612.86322388 0 -209.64600459 0 4305.75374381 0 90.80917062 0 889.41086876 0 10875
0.10150000 0.10150300 17689.52446187 0 -46.61599024 0 4495.22615253 0 270.46017317 0 212.24596710 0 11118
0.10250000 0.10250800 17900.39906958 0 244.39535226 0 4370.17391315 0 -824.90751861 0 1354.58833829 0 11575
0.10350000 0.10349800 17582.06384088 0 339.06636084 0 3474.94600763 0 6.15481831 0 -218.49352078 0 11364
0.10450000 0.10450100 17517.54250568 0 375.94356370 0 4965.25396285 0 -297.22416256 0 1025.80829693 0 12093
0.10550000 0.10551000 16783.75282596 0 553.38173175 0 4276.86527143 0 -281.70082390 0 -194.16987666 0 12067
0.10650000 0.10649700 16593.89823512 0 415.11161117 0 5947.20348875 0 491.06356409 0 1224.08438330 0 12054
0.10750000 0.10749900 15987.01550215 0 584.06308792 0 5014.89267647 0 22.97375437 0 -422.03023170 0 12807
0.10850000 0.10850100 15875.39584039 0 498.59704821 0 5417.36417590 0 36.35934607 0 68.13722772 0 12736
0.10950000 0.10950300 15285.82370955 0 583.50330351 0 6089.54384896 0 -3.61555531 0 -475.71333146 0 12933
0.11050000 0.11050200 14847.10111152 0 428.98707043 0 5057.13504192 0 -213.20479461 0 -80.12290878 0 13428
0.11150000 0.11150900 14591.60112041 0 337.46906438 0 5800.78277233 0 153.96094493 0 16.59513471 0 13453
0.11250000 0.11250000 14375.44340685 0 67.20616462 0 5090.63218110 0 216.35892121 0 -457.37420979 0 13668
0.11350000 0.11349100 14406.35519636 0 -129.90707643 0 5378.53896827 0 749.50860570 0 -44.81265264 0 13791
0.11450000 0.11448600 14539.33209451 0 -88.81676528 0 4959.85845049 0 658.43235722 0 -176.48271274 0 14205
0.11550000 0.11549300 14250.89699675 0 51.60009477 0 4287.31907661 0 1030.02916128 0 -15.31268886 0 14776
0.11650000 0.11649800 14418.15787963 0 63.74887768 0 3221.14335477 0 915.92081945 0 21.65646251 0 14553
0.11750000 0.11747300 14210.09343460 0 104.26883821 0 3165.55833691 0 940.24221543 0 450.64555626 0 14568
0.11850000 0.11849100 14023.49863246 0 169.44943757 0 2897.34516982 0 533.33627930 0 533.66900256 0 16015
0.11950000 0.11950300 13902.54923060 0 222.66717440 0 3041.82125366 0 33.33740953 0 964.29833206 0 15270
0.12050000 0.12050700 13802.61984560 0 185.54942162 0 3177.69823970 0 -228.61797489 0 1527.79552540 0 15999
0.12150000 0.12150000 13774.29340576 0 228.85402856 0 3599.20016081 0 -468.25291157 0 1522.77095453 0 15670
0.12250000 0.12250700 13680.88359818 0 145.70693510 0 4460.93092715 0 -375.65467897 0 2053.43083489 0 16887
0.12350000 0.12352200 13460.00481132 0 309.79458228 0 4419.09322513 0 -275.09581753 0 1940.34988853 0 16407
0.12450000 0.12449800 13367.60666231 0 202.75773382 0 4875.10394398 0 218.60929948 0 2231.13428229 0 16306
0.12550000 0.12549900 13155.27077000 0 139.98544388 0 4886.25466951 0 216.38814690 0 1943.74456505 0 17523
0.12650000 0.12650100 13214.05937332 0 92.53449810 0 4050.30995595 0 494.46048875 0 1534.51743454 0 17154
0.12750000 0.12750600 12922.58929987 0 -135.32619415 0 4036.02308887 0 537.89773537 0 1600.87099581 0 18007
0.12850000 0.12850300 12956.76087809 0 -15.23051971 0 3572.44741207 0 158.28971953 0 1121.97206393 0 17496
0.12950000 0.12949900 13190.56641330 0 -121.54178416 0 3659.43880808 0 424.10975208 0 1301.62239205 0 18405
0.13050000 0.13049000 13091.42387385 0 73.62176603 0 3362.94416375 0 -180.27643236 0 735.35550237 0 18100
0.13150000 0.13148800 13202.48150307 0 158.14246700 0 3706.35728423 0 -160.73231293 0 1730.90284346 0 19059
0.13250000 0.13249300 13056.01582405 0 271.36616962 0 3879.91293151 0 -125.16014963 0 1445.37907424 0 18957
0.13350000 0.13349100 12906.17794980 0 258.59004600 0 4287.26287336 0 -71.59080525 0 1696.78746849 0 19468
0.13450000 0.13450700 12809.84557304 0 291.71062338 0 4355.65099240 0 323.18332136 0 1584.30227663 0 19953
0.13550000 0.13551000 12345.83151086 0 346.21091845 0 4281.75495450 0 78.78403488 0 1442.56891156 0 19956
0.13650000 0.13649900 12211.05610860 0 350.89377354 0 3918.13114400 0 287.15703577 0 1185.42778544 0 19723
0.13750000 0.13749600 11704.10276063 0 265.93356312 0 3652.16610705 0 190.02095248 0 712.14018641 0 20946
0.13850000 0.13851100 11461.19229833 0 318.21495374 0 3158.06082287 0 202.86227187 0 708.86353672 0 20955
0.13950000 0.13949800 11078.54930680 0 212.20774889 0 2946.75907043 0 208.29712650 0 -101.97203605 0 20506
0.14050000 0.14048300 10950.81055189 0 169.19877106 0 2993.53141812 0 283.12951061 0 568.86797626 0 21447
0.14150000 0.14148400 10904.97117821 0 36.28279724 0 2676.05047888 0 71.67511013 0 49.04116064 0 21771
0.14250000 0.14249400 10803.97393139 0 9.75441189 0 2436.28739878 0 250.65976691 0 157.37360649 0 22470
0.14350000 0.14350900 11002.40513875 0 50.76008094 0 2612.64196810 0 132.14846219 0 563.43874196 0 22519
0.14450000 0.14449900 10908.33213278 0 96.09812160 0 2649.79231877 0 207.62156339 0 442.98954905 0 22218
0.14550000 0.14550500 10782.53801045 0 213.84888390 0 2982.93148448 0 184.22414890 0 1175.60345670 0 23559
0.14650000 0.14650700 10617.32292601 0 239.58772594 0 2868.73771371 0 -26.36460907 0 646.31718386 0 23044
0.14750000 0.14750500 10552.84655341 0 257.26702141 0 3161.45549939 0 -215.67436558 0 1305.68026696 0 23649
0.14850000 0.14849900 10212.04126390 0 199.24053421 0 2972.08425653 0 15.33494535 0 468.12589221 0 23640
0.14950000 0.14949500 10147.00285877 0 135.21715984 0 3073.49740742 0 -162.61961819 0 914.11107468 0 24457
0.15050000 0.15050000 10052.36782027 0 58.02187854 0 3124.08033571 0 -77.89489940 0 209.32452198 0 24591
0.15150000 0.15149900 10031.92107659 0 1.96268506 0 2744.09013775 0 -23.92392658 0 -42.69041779 0 25020
0.15250000 0.15250500 10011.60922072 0 -19.37753298 0 2414.05339164 0 340.38264105 0 -447.15645827 0 25297
0.15350000 0.15350100 10194.80934633 0 -35.38444444 0 2486.18464738 0 110.76155048 0 -203.79974214 0 25452
0.15450000 0.15450400 9981.59668326 0 101.99946324 0 2056.94915857 0 263.19983687 0 -505.54489443 0 26061
0.15550000 0.15549900 10140.94414803 0 115.34818561 0 2551.47034682 0 145.99019950 0 -387.82268339 0 26128
0.15650000 0.15649500 9703.18824596 0 194.89602270 0 1768.80631773 0 163.25583902 0 -465.17859359 0 26331
0.15750000 0.15749700 9748.63419686 0 224.93328958 0 2168.68122683 0 41.37739737 0 -259.17905610 0 27345
0.15850000 0.15849900 9388.70856046 0 183.06861000 0 1847.94049887 0 -9.74929740 0 -191.60251204 0 26980
0.15950000 0.15949700 9299.10933348 0 219.99077546 0 2149.49343603 0 -87.30006428 0 -219.80867691 0 27777
0.16050000 0.16050000 9058.21094766 0 236.68651399 0 2111.69112763 0 -84.99550606 0 -252.57067753 0 28224
0.16150000 0.16150500 9005.97564372 0 229.22047377 0 2302.97328111 0 56.77708887 0 -11.32383155 0 28075
0.16250000 0.16249700 8684.61667997 0 117.10734745 0 2370.66447982 0 -98.58444114 0 -49.68716083 0 28590
0.16350000 0.16349900 8925.52630644 0 48.34716286 0 2701.66792189 0 227.99299471 0 687.38602537 0 29163
0.16450000 0.16449100 8650.08540092 0 13.76788623 0 2700.77991048 0 219.96042570 0 270.79739270 0 28996
0.16550000 0.16550500 8780.10600793 0 54.72117386 0 2538.67848629 0 244.81575260 0 596.62788730 0 30777
0.16650000 0.16650700 8662.80981755 0 38.19595600 0 2408.75904514 0 113.44739157 0 286.87714357 0 29211
0.16750000 0.16749900 8587.56490156 0 160.26357780 0 2144.10916433 0 257.17035181 0 632.73622965 0 30922
0.16850000 0.16850800 8464.18751913 0 136.62224118 0 1990.50567209 0 46.54955799 0 20.37660202 0 30867
0.16950000 0.16949900 8260.93407262 0 211.89750693 0 1787.27470688 0 14.04744122 0 -242.06966162 0 30852
0.17050000 0.17049200 8110.08453981 0 238.13093761 0 1693.86489930 0 -69.00421911 0 -377.90505725 0 31257
0.17150000 0.17149500 7872.10872318 0 210.60820429 0 1786.70143369 0 -63.89613020 0 -171.49523601 0 32608
0.17250000 0.17250900 7861.23901392 0 45.49192517 0 1858.82144878 0 67.22246357 0 187.76382981 0 32361
0.17350000 0.17350400 7820.17691680 0 -71.27977645 0 1840.64531655 0 345.62415648 0 224.98274845 0 32508
0.17450000 0.17449800 8049.66604213 0 -74.73661377 0 1995.19302345 0 394.88743237 0 992.07285596 0 32791
0.17550000 0.17549800 8052.95955279 0 -33.55019505 0 1840.42050353 0 342.64425997 0 861.12601933 0 33633
0.17650000 0.17650100 8083.93878621 0 66.40459382 0 1911.92228283 0 415.34766484 0 1636.88604075 0 33984
0.17750000 0.17750300 7885.81107642 0 172.27084091 0 1728.65471332 0 241.03889395 0 1736.55689078 0 34069
0.17850000 0.17849800 7754.35166612 0 161.31120645 0 1707.33119888 0 408.87867034 0 1868.47716776 0 34536
