### header ###
fiducial parameters:
Omega_m = 0.31
Omega_nu = 0
Omega_de = 0.69
Omega_k = 0
H_0 = 100
w_de = -1
zeff = 0
beta = 0
fgrowth = 0
b_1 = 2
gamma = 0.55
Lx = 3500 Ly = 3500 Lz = 3500
nx = 700 ny = 700 nz = 700
xoffset = -983.599254 yoffset = -42.9823471 zoffset = 800.977702
bins = 400 dk = 0.001
kx_ny = 0.628318531 ky_ny = 0.628318531 kz_ny = 0.628318531
############################
A(data) = 8.99159531 (not used)
A(ran) = 8.96634073 (used)
Ngal = 498181
weighted Ngal = 0
Nran = 25229228
weighted Nran = 0
SN(data) = 6812.90886
SN(ran) = 133.099151
SN(data+ran) = 6946.00801
############################
13 columns: k_central k_mean P_0(k) sigma^{lin}_{P_0(k)} P^img_1(k) sigma^{lin}_{P_1(k)} P_2(k) sigma^{lin}_{P_2(k)} P^img_3(k) sigma^{lin}_{P_3(k)} P_4(k) sigma^{lin}_{P_4(k)} N_modes
### header ###
0.00050000 0 0 0 0 0 0 0 0 0 0 0 0
0.00150000 0.00179520 54513.13834943 0 56041.42193267 0 19866.25858771 0 111921.81003131 0 14143.95534719 0 3
0.00250000 0.00253879 49558.10750371 0 22725.76252209 0 68774.40893179 0 21724.40888557 0 -22471.14012965 0 6
0.00350000 0.00331552 25016.37544248 0 2847.55271941 0 39565.88120937 0 67568.41270808 0 -52528.77531261 0 7
0.00450000 0.00420575 54060.46411335 0 -21565.02273742 0 27536.67577554 0 61985.17415644 0 -29227.31134153 0 24
0.00550000 0.00557378 85875.63090933 0 -4987.53419599 0 25752.78118833 0 -7985.98198894 0 16176.65050337 0 45
0.00650000 0.00659388 79426.91788400 0 9456.01438379 0 49819.43048542 0 -20205.90157193 0 75762.46447086 0 40
0.00750000 0.00754703 62939.84335948 0 17152.62977722 0 17137.69075851 0 30877.85321761 0 13762.24144999 0 57
0.00850000 0.00846663 92160.56395747 0 -7224.11400385 0 88769.51655588 0 4162.71362543 0 2786.36865013 0 75
0.00950000 0.00948925 69808.38674887 0 11499.19980678 0 39852.46870802 0 16787.83212179 0 17076.83622641 0 112
0.01050000 0.01054430 73120.12553642 0 -5126.53297743 0 51554.99295328 0 18912.02876757 0 27310.06404319 0 105
0.01150000 0.01145670 67967.37238424 0 -3215.87642263 0 49554.70228621 0 8728.33038856 0 7195.78479116 0 144
0.01250000 0.01249090 75779.82009554 0 8405.20820151 0 48800.83106996 0 8265.70412973 0 9473.75446851 0 169
0.01350000 0.01339930 68413.23618532 0 -2447.08815681 0 45347.50114183 0 6291.85332887 0 29417.34444719 0 180
0.01450000 0.01448870 75845.06845667 0 -2421.48311812 0 33141.55393517 0 12874.35844824 0 -4087.43634953 0 267
0.01550000 0.01550050 79745.36064313 0 -739.03105870 0 49336.65852047 0 8724.49677273 0 12953.33752510 0 238
0.01650000 0.01653350 74251.42666657 0 2923.04968676 0 32558.38297683 0 2024.65444905 0 16697.53893517 0 315
0.01750000 0.01747870 75669.42514110 0 -1603.51692085 0 35513.56253839 0 13016.38897171 0 25170.15945862 0 297
0.01850000 0.01844180 82009.94012650 0 -1710.92407155 0 40120.71197045 0 3286.30950202 0 4991.41175011 0 388
0.01950000 0.01947590 78623.17670822 0 9362.71142428 0 44338.67799596 0 5246.97881579 0 20642.31864059 0 399
0.02050000 0.02045430 75307.59332027 0 -2878.69398267 0 43269.32985517 0 -6476.19642593 0 16207.07776942 0 462
0.02150000 0.02154770 73667.15725097 0 824.06702888 0 40539.44387725 0 12074.13233569 0 19606.58329189 0 571
0.02250000 0.02255340 78593.73805370 0 1951.78279454 0 43022.61635499 0 6950.72996144 0 14255.33891316 0 510
0.02350000 0.02348930 72131.62384983 0 5640.40226736 0 40447.06362184 0 2680.01601840 0 9130.57445192 0 555
0.02450000 0.02439640 71131.25882484 0 2444.40792110 0 44456.43261403 0 -1471.76795731 0 17373.41968610 0 592
0.02550000 0.02547300 64666.83786072 0 2397.42690417 0 45043.77770996 0 2382.50985460 0 13499.60031957 0 837
0.02650000 0.02652900 64103.65882448 0 -59.86581072 0 34741.78646882 0 6829.18566583 0 7796.81666452 0 723
0.02750000 0.02749970 64248.76502828 0 1577.27477696 0 39945.72772923 0 7079.91951957 0 -845.58031428 0 826
0.02850000 0.02848090 61256.01822849 0 1169.83501077 0 30999.67212753 0 1970.53345994 0 2238.33733947 0 831
0.02950000 0.02946900 59898.98413179 0 -1279.55990628 0 27234.60002955 0 8349.19786592 0 5736.94567578 0 996
0.03050000 0.03053250 58351.47754653 0 1071.59338743 0 18737.48390926 0 8654.21747736 0 2808.41468730 0 1041
0.03150000 0.03150510 56420.49953246 0 2322.33636600 0 23321.01651027 0 -3789.75443257 0 8842.62486627 0 1036
0.03250000 0.03246190 57162.28771887 0 4936.37904147 0 24298.31393283 0 -418.81209418 0 445.64301117 0 1059
0.03350000 0.03345080 50168.73989351 0 2318.32699701 0 23787.20177062 0 -2344.68997121 0 6017.09621489 0 1302
0.03450000 0.03451200 47036.26933049 0 -779.74977080 0 25198.17011870 0 2268.18242318 0 2716.73744454 0 1339
0.03550000 0.03553350 46265.92125536 0 2286.81225827 0 27656.40761668 0 -311.58838584 0 725.14985433 0 1365
0.03650000 0.03647120 43449.36699978 0 1636.49260774 0 22335.26096682 0 4668.37743964 0 3744.89343815 0 1308
0.03750000 0.03744890 47119.31269920 0 -348.77006557 0 26210.06894489 0 5870.07869546 0 4763.65762221 0 1579
0.03850000 0.03847530 43836.02395464 0 -1193.71547156 0 17053.32924108 0 2706.22520858 0 2884.84534332 0 1662
0.03950000 0.03950240 46494.83974795 0 1105.76199890 0 20904.41054238 0 2848.95874470 0 8001.38235970 0 1683
0.04050000 0.04050350 45165.48677416 0 53.09568910 0 14374.52152567 0 1047.95788261 0 5201.65646931 0 1822
0.04150000 0.04152450 44170.39434402 0 1420.71166395 0 19265.07293034 0 -3184.03214672 0 2951.35693030 0 1887
0.04250000 0.04250150 40048.43348287 0 2062.03494954 0 18106.20052301 0 534.27093658 0 9814.51787912 0 1920
0.04350000 0.04349210 41045.83267325 0 -131.01189872 0 19128.97407605 0 5267.16846019 0 5620.80578987 0 2005
0.04450000 0.04448520 40733.54127477 0 -1130.57614836 0 15933.67175787 0 2869.03854338 0 6552.96760370 0 2151
0.04550000 0.04548030 42205.36415494 0 1134.09121159 0 14913.53450224 0 2605.39781685 0 7052.66679500 0 2274
0.04650000 0.04648670 39035.10666224 0 484.86782140 0 13033.30521349 0 -908.10450141 0 10991.49286207 0 2311
0.04750000 0.04749250 40593.26828290 0 947.97410606 0 15694.97699567 0 730.22252995 0 7190.17167457 0 2568
0.04850000 0.04851840 38197.20346573 0 128.90176233 0 16369.75928935 0 96.22090137 0 8319.98988742 0 2493
0.04950000 0.04949480 37883.81360999 0 1714.58193422 0 16531.45219774 0 -350.89118654 0 8143.21516087 0 2644
0.05050000 0.05050630 37451.35098746 0 513.36509805 0 15899.07035424 0 -55.62576571 0 5729.93751847 0 2829
0.05150000 0.05149060 35425.24657483 0 251.38414044 0 17144.50119351 0 1875.12146250 0 6293.63282963 0 2784
0.05250000 0.05249300 36559.40369386 0 411.18111161 0 18207.58812793 0 2075.24939036 0 7287.70369452 0 3055
0.05350000 0.05348950 35827.28193131 0 268.77271883 0 15119.93462104 0 2271.69748640 0 8126.49664140 0 3009
0.05450000 0.05448610 35921.74925551 0 440.41545308 0 15374.66685920 0 -1381.33197125 0 5034.58112035 0 3336
0.05550000 0.05550870 34744.09322906 0 571.63935405 0 15637.08829817 0 -1204.11786179 0 3744.48700896 0 3349
0.05650000 0.05647670 33058.51056646 0 514.30537746 0 19303.95831728 0 -2542.33538566 0 2380.24703265 0 3324
0.05750000 0.05747970 32670.31577143 0 1226.83395789 0 18114.87833534 0 107.80973529 0 107.34014481 0 3639
0.05850000 0.05849280 33097.17626194 0 -94.38999281 0 17751.61852008 0 1350.44335315 0 -63.35363221 0 3846
0.05950000 0.05951020 33034.23466105 0 448.42100957 0 17226.77564214 0 1593.32323750 0 -2199.61672112 0 3787
0.06050000 0.06049470 33221.41177784 0 -1050.56891551 0 13299.13186996 0 3564.36198777 0 3439.00604548 0 3930
0.06150000 0.06148310 32503.35026819 0 -762.98841150 0 13850.77710499 0 3832.16586731 0 149.11996662 0 4083
0.06250000 0.06249100 33653.32517174 0 1146.20719515 0 11644.08631913 0 274.29905730 0 4083.48190340 0 4303
0.06350000 0.06350600 31820.43939081 0 801.51130754 0 10844.56321922 0 -1290.11608053 0 2370.04236472 0 4470
0.06450000 0.06451750 30916.95829600 0 218.18436827 0 12595.89953330 0 -13.74829104 0 3404.82205560 0 4479
0.06550000 0.06550280 30448.68596685 0 1192.54012229 0 13336.47941673 0 -765.44566039 0 883.31451801 0 4636
0.06650000 0.06648880 29451.39662219 0 933.61397432 0 13201.36917398 0 -1127.64326748 0 892.05494242 0 4653
0.06750000 0.06749660 29036.50931580 0 40.58513970 0 13113.93197624 0 1442.68080912 0 347.75728798 0 5220
0.06850000 0.06852730 28610.30789964 0 -690.76594524 0 11473.49590694 0 2329.53126104 0 -209.82181316 0 5029
0.06950000 0.06949320 28836.15071191 0 -415.24760038 0 10638.83315935 0 1395.24942471 0 -410.93066335 0 5040
0.07050000 0.07048030 29154.15408814 0 749.77506914 0 8924.43796286 0 -117.53822199 0 -312.07060858 0 5475
0.07150000 0.07148790 28506.94307165 0 772.73831812 0 9137.93411555 0 570.66612092 0 983.11704912 0 5509
0.07250000 0.07249820 28497.38649350 0 316.50068670 0 10180.31513066 0 -1093.68446135 0 -2334.70499473 0 5916
0.07350000 0.07351270 27547.44065667 0 399.40345289 0 8709.89827577 0 65.36172192 0 -820.54207954 0 5721
0.07450000 0.07449140 26553.33683806 0 -132.76943033 0 10878.05518102 0 -101.50063618 0 -2208.42634833 0 6028
0.07550000 0.07549160 25607.67498453 0 284.87610224 0 9556.57814577 0 342.29136466 0 103.36021447 0 6183
0.07650000 0.07648840 26678.56096549 0 500.04410688 0 10000.36586263 0 1075.75763889 0 -1615.43518210 0 6330
0.07750000 0.07749960 25824.07106438 0 567.37184760 0 9779.83958348 0 1023.31069865 0 253.56897192 0 6583
0.07850000 0.07848650 26298.60459990 0 -363.33670727 0 8652.44896117 0 456.39580927 0 616.65962477 0 6549
0.07950000 0.07947320 25914.03471382 0 351.24818515 0 9079.56209685 0 494.34970445 0 -147.46239462 0 6828
0.08050000 0.08048110 24767.79456496 0 435.48337999 0 7999.31726006 0 54.76501460 0 1638.42589252 0 7147
0.08150000 0.08149960 24467.03696768 0 486.00033083 0 10025.05918179 0 -145.47308852 0 1027.65949093 0 7386
0.08250000 0.08250610 23641.54633820 0 1042.00863810 0 8773.01562982 0 402.21989730 0 76.52138859 0 7227
0.08350000 0.08350160 23462.38795939 0 145.02601642 0 9111.09880473 0 473.47791809 0 854.75023547 0 7798
0.08450000 0.08449610 22115.13013229 0 281.74879443 0 9108.11100099 0 148.72012818 0 1017.20437475 0 7371
0.08550000 0.08548940 22365.24884997 0 457.44922978 0 8953.47018819 0 -583.13800463 0 1302.47372469 0 8256
0.08650000 0.08650700 21673.77000597 0 -23.07364394 0 7972.09748920 0 409.64876373 0 -773.90927356 0 8037
0.08750000 0.08749060 20605.84985962 0 646.77383050 0 8254.91727945 0 -112.31066390 0 -873.54703607 0 8155
0.08850000 0.08849210 20816.53396173 0 560.47243756 0 8538.62682008 0 743.81154469 0 -502.93964021 0 8718
0.08950000 0.08949900 20568.17277566 0 49.29590576 0 7352.00738241 0 839.55198085 0 -969.37974265 0 8571
0.09050000 0.09049190 19797.49516335 0 294.36896986 0 7025.77656132 0 662.73880829 0 -967.87156083 0 8932
0.09150000 0.09150830 19707.53151391 0 171.51751011 0 6892.02840557 0 99.17355448 0 79.03773448 0 9285
0.09250000 0.09250820 18870.94646612 0 167.77726315 0 6351.75220315 0 118.63667925 0 436.37532728 0 9204
0.09350000 0.09350330 19276.71657727 0 26.48600141 0 5657.59312345 0 552.72611698 0 -470.70321505 0 9349
0.09450000 0.09448040 18893.35499418 0 62.28878774 0 6080.79575129 0 477.73334151 0 -362.20419784 0 9564
0.09550000 0.09549270 18683.11027498 0 568.14186614 0 6096.83322726 0 -237.19866341 0 352.67068730 0 10155
0.09650000 0.09649430 18219.23177487 0 145.32919062 0 6906.47311851 0 -435.22304562 0 936.49632617 0 9913
0.09750000 0.09749140 17883.10385388 0 -27.21230135 0 6559.34964037 0 1087.80441964 0 1211.76312431 0 10476
0.09850000 0.09850240 17995.80556856 0 5.43383738 0 5496.54830483 0 1365.60206331 0 1328.93556004 0 10575
0.09950000 0.09950330 18085.11014365 0 168.23092600 0 5430.26739388 0 259.11178725 0 1772.85509177 0 10882
0.10050000 0.10051200 18052.92534599 0 520.52264554 0 5623.46405644 0 -79.03235204 0 2277.25568013 0 10875
0.10150000 0.10150300 17355.62467852 0 147.99404793 0 6069.23998093 0 -166.17241710 0 3117.57548260 0 11118
0.10250000 0.10250800 16960.39975705 0 60.14888316 0 5064.65688008 0 392.45571073 0 1241.94872976 0 11575
0.10350000 0.10349800 16619.54846985 0 362.30745282 0 5746.04090187 0 291.30756949 0 2804.44925660 0 11364
0.10450000 0.10450100 16358.99440822 0 -79.16383737 0 4821.01906023 0 732.69515724 0 2100.90935191 0 12093
0.10550000 0.10551000 16076.69089288 0 404.93308672 0 5433.92525655 0 245.61064909 0 1663.95403919 0 12067
0.10650000 0.10649700 15563.38181615 0 685.70095882 0 4905.86389884 0 -692.02807262 0 1184.67516833 0 12054
0.10750000 0.10749900 14726.79676836 0 490.08769029 0 4802.57596286 0 -730.07094285 0 1630.26435509 0 12807
0.10850000 0.10850100 14607.06492722 0 -9.74563362 0 5752.76346029 0 -6.58018737 0 797.57223982 0 12736
0.10950000 0.10950300 14522.04433544 0 89.11871612 0 5123.25957480 0 848.37039572 0 160.42858409 0 12933
0.11050000 0.11050200 14514.02559745 0 5.55176775 0 5206.18211322 0 24.12003432 0 365.97630006 0 13428
0.11150000 0.11150900 14282.36096171 0 33.57456579 0 4991.06024378 0 -565.87355190 0 -371.83656954 0 13453
0.11250000 0.11250000 14081.67282065 0 377.08609677 0 5174.86509679 0 25.51210920 0 -297.14037753 0 13668
0.11350000 0.11349100 13868.79180403 0 132.33883509 0 5159.04731227 0 -129.11376458 0 255.49896133 0 13791
0.11450000 0.11448600 13868.68195830 0 -237.77864884 0 5456.99285897 0 614.90319162 0 -158.57768361 0 14205
0.11550000 0.11549300 14107.37672049 0 22.49277974 0 5001.73724833 0 701.86036354 0 -290.83742978 0 14776
0.11650000 0.11649800 14082.77127791 0 100.10746284 0 4791.45957541 0 133.71959586 0 574.88859062 0 14553
0.11750000 0.11747300 14060.58244130 0 -29.28421143 0 4621.40740728 0 213.51043264 0 56.82000844 0 14568
0.11850000 0.11849100 14047.40095420 0 89.58050755 0 4223.69997240 0 88.91022893 0 854.23505902 0 16015
0.11950000 0.11950300 13924.48358701 0 -57.19491190 0 4588.43172039 0 190.85145631 0 851.26592905 0 15270
0.12050000 0.12050700 14088.04387275 0 216.60918056 0 4202.98306851 0 -39.86477143 0 701.13318484 0 15999
0.12150000 0.12150000 13951.61548129 0 -181.76501788 0 4261.05850375 0 354.62484276 0 918.57719291 0 15670
0.12250000 0.12250700 13867.91303822 0 212.29553891 0 4293.35314714 0 81.35185438 0 712.08260679 0 16887
0.12350000 0.12352200 13794.64593910 0 221.90264609 0 4625.01034708 0 -300.97948564 0 1540.79501141 0 16407
0.12450000 0.12449800 13583.19291691 0 140.51245555 0 4619.59495280 0 116.09594761 0 742.37256568 0 16306
0.12550000 0.12549900 13271.45074705 0 13.46488907 0 4625.61449858 0 -420.29391302 0 863.71035133 0 17523
0.12650000 0.12650100 13522.22853909 0 331.57591411 0 4679.84533341 0 427.64918282 0 440.65821213 0 17154
0.12750000 0.12750600 13121.73102277 0 72.86352592 0 5198.54783527 0 -211.07075907 0 957.09679359 0 18007
0.12850000 0.12850300 13111.95475317 0 159.45095713 0 4938.75170915 0 -56.82319396 0 58.86676385 0 17496
0.12950000 0.12949900 12905.77432582 0 84.72950061 0 5161.74951713 0 -164.62469082 0 327.79063040 0 18405
0.13050000 0.13049000 12713.21476847 0 190.70536150 0 4703.85760907 0 197.93650563 0 96.57789998 0 18100
0.13150000 0.13148800 12718.81690049 0 -68.80417712 0 5196.28501332 0 264.33714843 0 240.24578384 0 19059
0.13250000 0.13249300 12315.13385812 0 -12.59348293 0 4064.54450027 0 706.60020661 0 406.28858298 0 18957
0.13350000 0.13349100 12610.39916911 0 120.88741817 0 4090.96239732 0 1093.24397999 0 1010.62791115 0 19468
0.13450000 0.13450700 12435.74446506 0 81.20938448 0 3453.76931103 0 40.98344030 0 1037.29186263 0 19953
0.13550000 0.13551000 12220.11730529 0 430.01086593 0 3731.18469157 0 -226.13060807 0 1211.71918602 0 19956
0.13650000 0.13649900 11822.91516075 0 166.49316662 0 3461.24980495 0 -45.41263966 0 1378.55287439 0 19723
0.13750000 0.13749600 11382.21410879 0 60.58024732 0 3556.70574069 0 151.89027583 0 1071.01889428 0 20946
0.13850000 0.13851100 11383.42241177 0 215.67988572 0 3888.04438803 0 -338.34241082 0 880.20698243 0 20955
0.13950000 0.13949800 10950.75108237 0 262.08201568 0 3801.50792523 0 -104.53501451 0 906.91267529 0 20506
0.14050000 0.14048300 11142.75042651 0 -140.48499411 0 3728.35067184 0 563.18013470 0 764.30106792 0 21447
0.14150000 0.14148400 11041.14313014 0 -178.69812521 0 3160.98651344 0 483.05207155 0 458.20716529 0 21771
0.14250000 0.14249400 11460.20457412 0 107.46833477 0 3139.48970490 0 -25.77442080 0 96.93358044 0 22470
0.14350000 0.14350900 11094.63799861 0 285.21662399 0 3198.10338420 0 -451.35718582 0 500.34069034 0 22519
0.14450000 0.14449900 10858.39279610 0 162.81992554 0 3312.00241729 0 -142.36665140 0 287.21691466 0 22218
0.14550000 0.14550500 10680.79422661 0 37.08172012 0 3150.52920035 0 298.90669680 0 -59.91952528 0 23559
0.14650000 0.14650700 10540.23563586 0 124.97587609 0 3400.66988717 0 88.92703533 0 438.76776719 0 23044
0.14750000 0.14750500 10430.70846265 0 195.20024860 0 3385.35739299 0 -16.10272433 0 424.39555242 0 23649
0.14850000 0.14849900 10177.01975888 0 173.38708437 0 3434.19480269 0 236.57693660 0 701.18481233 0 23640
0.14950000 0.14949500 9939.81889856 0 167.31481264 0 3408.40302626 0 -25.24046072 0 394.27146058 0 24457
0.15050000 0.15050000 10028.98067420 0 165.42656462 0 3607.63021917 0 -219.36081599 0 312.04644252 0 24591
0.15150000 0.15149900 9501.69922115 0 106.94656757 0 3334.20223848 0 387.67522474 0 696.73715889 0 25020
0.15250000 0.15250500 9554.58993813 0 47.53474923 0 3384.69831863 0 227.98700084 0 712.86580681 0 25297
0.15350000 0.15350100 9346.81674776 0 42.96989041 0 2681.61976599 0 466.32146905 0 790.80354619 0 25452
0.15450000 0.15450400 9453.61974696 0 44.01946632 0 2754.34862105 0 369.45181883 0 583.68393788 0 26061
0.15550000 0.15549900 9312.19337498 0 41.99413082 0 2410.24590037 0 -5.22732742 0 706.73861223 0 26128
0.15650000 0.15649500 9125.25791879 0 113.07079632 0 2054.55445561 0 -273.26760594 0 350.09370657 0 26331
0.15750000 0.15749700 9023.22222408 0 101.28314164 0 2364.40727899 0 -144.04179872 0 151.67937203 0 27345
0.15850000 0.15849900 8944.96812901 0 155.70411943 0 2355.59765178 0 -103.84836888 0 49.81503666 0 26980
0.15950000 0.15949700 8902.06238851 0 -65.79099902 0 2302.00392215 0 -131.35461738 0 -359.08457923 0 27777
0.16050000 0.16050000 9024.77104882 0 136.02196227 0 2754.54634336 0 -150.30630046 0 -698.41340467 0 28224
0.16150000 0.16150500 8756.93421556 0 115.98170806 0 2509.35969877 0 -217.00023134 0 -719.49829174 0 28075
0.16250000 0.16249700 8742.77510151 0 90.06855211 0 3010.58574566 0 -53.32372883 0 -569.44683336 0 28590
0.16350000 0.16349900 8716.60984962 0 -40.80636899 0 3014.21065461 0 100.20533538 0 -816.76558349 0 29163
0.16450000 0.16449100 8820.12846163 0 70.42077667 0 2777.83363723 0 135.93408569 0 -516.54623027 0 28996
0.16550000 0.16550500 8811.49458758 0 -65.45355295 0 2665.21979913 0 382.73106862 0 -205.34999366 0 30777
0.16650000 0.16650700 8620.59370068 0 21.99199307 0 2406.97249774 0 207.11191911 0 -8.06556522 0 29211
0.16750000 0.16749900 8741.91830485 0 78.76927152 0 2322.10568998 0 355.49921474 0 -260.44421590 0 30922
0.16850000 0.16850800 8747.80603575 0 162.30255218 0 2094.07694776 0 250.90740999 0 101.48009503 0 30867
0.16950000 0.16949900 8383.90911527 0 102.46101736 0 1899.41933705 0 -43.63127152 0 254.98708025 0 30852
0.17050000 0.17049200 8255.09303261 0 135.52875497 0 2251.26618140 0 -91.93054701 0 427.47342966 0 31257
0.17150000 0.17149500 7962.04660529 0 126.88060097 0 1809.84014765 0 210.56766564 0 449.02076724 0 32608
0.17250000 0.17250900 7989.10160756 0 14.42032719 0 2170.24397404 0 198.66368433 0 136.80845767 0 32361
0.17350000 0.17350400 7739.43325735 0 20.20623111 0 1634.54833839 0 148.79262636 0 655.51425491 0 32508
0.17450000 0.17449800 8015.47556632 0 108.86853824 0 1651.93691679 0 181.21139542 0 383.00787985 0 32791
0.17550000 0.17549800 7785.33778617 0 82.13066058 0 1836.38985958 0 -116.66275156 0 809.15876697 0 33633
0.17650000 0.17650100 7691.06818428 0 144.93704138 0 2037.46246068 0 -323.63736351 0 597.96278378 0 33984
0.17750000 0.17750300 7545.73130446 0 143.28825704 0 2124.22959950 0 -28.93786785 0 737.01648809 0 34069
0.17850000 0.17849800 7663.61773740 0 -90.91853834 0 2250.95861337 0 -13.89735169 0 562.14428951 0 34536
