### header ###
fiducial parameters:
Omega_m = 0.31
Omega_nu = 0
Omega_de = 0.69
Omega_k = 0
H_0 = 100
w_de = -1
zeff = 0
beta = 0
fgrowth = 0
b_1 = 2
gamma = 0.55
Lx = 3500 Ly = 3500 Lz = 3500
nx = 700 ny = 700 nz = 700
xoffset = -983.599254 yoffset = -42.9823471 zoffset = 800.977702
bins = 400 dk = 0.001
kx_ny = 0.628318531 ky_ny = 0.628318531 kz_ny = 0.628318531
############################
A(data) = 9.06137484 (not used)
A(ran) = 9.06306901 (used)
Ngal = 503154
weighted Ngal = 0
Nran = 25229228
weighted Nran = 0
SN(data) = 6727.19614
SN(ran) = 134.535016
SN(data+ran) = 6861.73116
############################
13 columns: k_central k_mean P_0(k) sigma^{lin}_{P_0(k)} P^img_1(k) sigma^{lin}_{P_1(k)} P_2(k) sigma^{lin}_{P_2(k)} P^img_3(k) sigma^{lin}_{P_3(k)} P_4(k) sigma^{lin}_{P_4(k)} N_modes
### header ###
0.00050000 0 0 0 0 0 0 0 0 0 0 0 0
0.00150000 0.00179520 24074.99757226 0 -27641.13906079 0 -16726.09882389 0 -6494.28801697 0 38947.66946449 0 3
0.00250000 0.00253879 59905.90441252 0 -44775.64429325 0 -56379.74676818 0 -17068.81748842 0 -58247.56348991 0 6
0.00350000 0.00331552 85294.32732832 0 -45723.94244420 0 -76538.63436946 0 -51652.09657490 0 8787.38345076 0 7
0.00450000 0.00420575 97498.51700337 0 -16880.21237720 0 -77629.40242679 0 -53455.87323848 0 -46738.25787636 0 24
0.00550000 0.00557378 104639.14825560 0 17293.78153489 0 -54911.76848841 0 -89643.55899618 0 -24176.38517718 0 45
0.00650000 0.00659388 86819.97461415 0 12972.67037284 0 -14015.21615654 0 -61948.26599257 0 -8069.40981770 0 40
0.00750000 0.00754703 50195.21271343 0 14221.94581252 0 6002.62953280 0 -35351.86962999 0 -26085.17435464 0 57
0.00850000 0.00846663 63890.77780785 0 5793.25259483 0 31274.61597925 0 -11278.62958935 0 -19699.29308448 0 75
0.00950000 0.00948925 63723.04338453 0 -17414.28229611 0 1698.39067424 0 28949.29180950 0 -40006.14287843 0 112
0.01050000 0.01054430 82054.86702836 0 -15463.86158856 0 16141.06048820 0 29621.76734293 0 -19279.02333752 0 105
0.01150000 0.01145670 92188.46477183 0 3592.82301533 0 13377.34202674 0 -48678.57277713 0 -25441.14886420 0 144
0.01250000 0.01249090 96838.01465406 0 15124.87767870 0 30868.51633091 0 -9841.01266819 0 -8961.19234271 0 169
0.01350000 0.01339930 94421.95791479 0 -11011.15524699 0 43548.11830728 0 -13806.83881467 0 -18748.90786474 0 180
0.01450000 0.01448870 85453.93316793 0 9395.87384890 0 76483.49181510 0 -48.24215571 0 -3056.34747503 0 267
0.01550000 0.01550050 82787.86755671 0 9717.91954784 0 65420.59923125 0 -4674.01252537 0 6733.43314664 0 238
0.01650000 0.01653350 81879.88278714 0 -594.77396236 0 79441.30767408 0 36051.69674915 0 9707.01186727 0 315
0.01750000 0.01747870 85226.55251550 0 980.76195675 0 62708.17872374 0 36076.41203745 0 29827.61823311 0 297
0.01850000 0.01844180 89913.99917313 0 -427.45695280 0 52783.06816787 0 15746.27494963 0 27245.14521923 0 388
0.01950000 0.01947590 81864.39453980 0 2275.20156506 0 50871.42300154 0 1762.10119521 0 29567.28386293 0 399
0.02050000 0.02045430 75494.00151698 0 1941.21563572 0 46304.58695085 0 2472.94584067 0 19706.21336520 0 462
0.02150000 0.02154770 66957.45078111 0 4343.73938157 0 40200.13043022 0 2675.22674475 0 21040.83893384 0 571
0.02250000 0.02255340 72453.91120936 0 4723.14651853 0 42671.43956957 0 3814.32692144 0 3257.55189101 0 510
0.02350000 0.02348930 68228.69536595 0 -1747.61254397 0 37957.19055483 0 -1122.05212004 0 -3128.39528659 0 555
0.02450000 0.02439640 66450.40291076 0 1817.89183935 0 32162.49898100 0 13507.72890328 0 12801.09134912 0 592
0.02550000 0.02547300 64585.11264072 0 -2973.11736858 0 23107.03703639 0 7026.55646597 0 10343.62277122 0 837
0.02650000 0.02652900 70417.59114423 0 1855.53596959 0 32615.28306280 0 7385.02700759 0 4819.68992694 0 723
0.02750000 0.02749970 67987.58399779 0 2561.14097392 0 15408.49934275 0 -982.94129595 0 -2284.48352889 0 826
0.02850000 0.02848090 66601.66047520 0 2238.33733947 0 34856.79494375 0 -7926.87400388 0 7230.66080910 0 831
0.02950000 0.02946900 54484.35876927 0 6575.42007005 0 31887.44528356 0 -4787.86762018 0 4633.91883545 0 996
0.03050000 0.03053250 58780.53495156 0 203.00808279 0 41720.50512120 0 2828.01116478 0 2084.75104564 0 1041
0.03150000 0.03150510 53888.00632383 0 85.25280564 0 34421.36648662 0 4544.79001352 0 -941.76672409 0 1036
0.03250000 0.03246190 56192.45980567 0 2531.09816791 0 36518.54108385 0 7489.18272481 0 805.68544512 0 1059
0.03350000 0.03345080 51843.00844636 0 348.33287958 0 31853.94233719 0 3793.79675528 0 12571.29409072 0 1302
0.03450000 0.03451200 53790.90270221 0 -1186.93799028 0 30815.90022825 0 5941.26971036 0 -355.38607364 0 1339
0.03550000 0.03553350 51172.94951890 0 635.02802704 0 25050.64730893 0 67.26490897 0 5336.56898976 0 1365
0.03650000 0.03647120 51153.17728825 0 1199.75698648 0 22600.31870321 0 5385.50526061 0 5524.40518090 0 1308
0.03750000 0.03744890 51583.99222489 0 594.63885212 0 22557.14933297 0 -1625.56295802 0 -3134.32695579 0 1579
0.03850000 0.03847530 48538.40963099 0 2534.07498708 0 18997.26905080 0 29.22972795 0 2588.08613046 0 1662
0.03950000 0.03950240 48053.44075152 0 -1403.67459188 0 20003.67559071 0 3872.34743381 0 -2545.36712769 0 1683
0.04050000 0.04050350 47768.17140158 0 -855.80475444 0 18126.52198228 0 6454.66666367 0 725.72764285 0 1822
0.04150000 0.04152450 49380.70665653 0 934.73000689 0 12202.43214344 0 4270.95560364 0 1814.81615903 0 1887
0.04250000 0.04250150 47883.72910514 0 437.69237753 0 13410.84497311 0 -4014.99309335 0 -1825.87762362 0 1920
0.04350000 0.04349210 45588.17312709 0 3140.43437814 0 13362.07347085 0 -2236.04156380 0 -2785.06148599 0 2005
0.04450000 0.04448520 44623.83750017 0 1995.84191517 0 19620.42385334 0 -4847.51384929 0 -1656.89095902 0 2151
0.04550000 0.04548030 38493.12785108 0 1090.63514400 0 18315.78616786 0 33.18274608 0 -1805.02890486 0 2274
0.04650000 0.04648670 39081.35171281 0 1486.05888624 0 21182.21038296 0 2813.59940556 0 -3628.42401507 0 2311
0.04750000 0.04749250 38154.91286130 0 537.24995267 0 18512.08047989 0 982.79739805 0 -2688.62792330 0 2568
0.04850000 0.04851840 37954.77394886 0 706.01143352 0 18161.01354019 0 1841.36587096 0 -4631.29352260 0 2493
0.04950000 0.04949480 36060.26471576 0 -230.56727694 0 15810.75439068 0 3011.51943433 0 -56.34909981 0 2644
0.05050000 0.05050630 36498.76885321 0 -358.96814276 0 15242.30275960 0 196.91274346 0 -134.47203908 0 2829
0.05150000 0.05149060 36046.97338294 0 412.16642777 0 12557.34368354 0 2665.75804319 0 -1634.05403263 0 2784
0.05250000 0.05249300 35379.00152426 0 969.35008430 0 12389.82895167 0 -947.35896999 0 -2584.63697467 0 3055
0.05350000 0.05348950 34421.47633235 0 1140.98952317 0 13681.28515006 0 -1001.94680343 0 -1092.62664701 0 3009
0.05450000 0.05448610 34012.08131224 0 296.76580360 0 12984.31401978 0 704.05508114 0 -5360.06499051 0 3336
0.05550000 0.05550870 32587.60193989 0 877.53114055 0 14575.09982101 0 -657.69908639 0 -1841.37685553 0 3349
0.05650000 0.05647670 32420.85612811 0 858.40809814 0 13832.21317733 0 1019.94722252 0 -3578.03778064 0 3324
0.05750000 0.05747970 31243.74933029 0 -141.82181660 0 13487.29759828 0 918.32894157 0 -2223.71687337 0 3639
0.05850000 0.05849280 31669.62120927 0 -158.23496495 0 13683.81160176 0 2385.66242693 0 -1922.83844579 0 3846
0.05950000 0.05951020 30596.75800525 0 687.85283659 0 11805.22999890 0 249.91550308 0 1357.51741789 0 3787
0.06050000 0.06049470 30552.81971493 0 521.76719761 0 13566.71605804 0 1891.56536765 0 1783.07074427 0 3930
0.06150000 0.06148310 30804.03688986 0 -598.32088085 0 10485.22489637 0 784.94547363 0 2876.56297559 0 4083
0.06250000 0.06249100 31109.07847044 0 576.24518533 0 11626.29131155 0 284.42463631 0 391.06506384 0 4303
0.06350000 0.06350600 29757.64650576 0 424.44937683 0 11367.16524435 0 322.21705827 0 1827.77795467 0 4470
0.06450000 0.06451750 30796.67722623 0 -123.55337394 0 10474.05358605 0 630.63419801 0 3104.31710350 0 4479
0.06550000 0.06550280 30814.58207954 0 -1128.40120299 0 10038.28460718 0 1822.58225184 0 1977.80524699 0 4636
0.06650000 0.06648880 30800.19228946 0 138.57038311 0 9991.84183430 0 1313.19466753 0 1518.32057591 0 4653
0.06750000 0.06749660 30219.32809136 0 1315.74308837 0 9755.50875522 0 -2935.25354690 0 1727.35699213 0 5220
0.06850000 0.06852730 28841.20361530 0 1719.90945192 0 12090.05996593 0 -1143.17545311 0 1079.02115541 0 5029
0.06950000 0.06949320 28335.25420220 0 -45.19064145 0 12610.06963193 0 842.05756186 0 1791.68264917 0 5040
0.07050000 0.07048030 28315.37212583 0 -435.99306416 0 12738.47928541 0 1175.88751026 0 629.18752980 0 5475
0.07150000 0.07148790 28396.32842576 0 388.07066935 0 10951.71772475 0 1780.39050856 0 2020.01895942 0 5509
0.07250000 0.07249820 28827.36305385 0 -153.05573898 0 11344.31733338 0 588.02174560 0 1711.87972937 0 5916
0.07350000 0.07351270 28389.18845358 0 -691.38437667 0 9927.91162188 0 1679.70591628 0 2796.43051861 0 5721
0.07450000 0.07449140 28523.85931343 0 -71.46497014 0 8167.85355717 0 1924.26644023 0 3127.32978305 0 6028
0.07550000 0.07549160 28052.62114969 0 1307.14216803 0 8021.30837436 0 -1229.65699305 0 2646.13959656 0 6183
0.07650000 0.07648840 27333.46118279 0 904.73443455 0 9402.60739190 0 -757.34234119 0 3078.55828079 0 6330
0.07750000 0.07749960 26187.11118820 0 385.33770770 0 10012.00950956 0 378.01209624 0 2082.31247053 0 6583
0.07850000 0.07848650 25104.58156031 0 378.02308081 0 9603.82279244 0 -682.03211158 0 1989.69055452 0 6549
0.07950000 0.07947320 25037.57566756 0 982.15260364 0 9353.35256844 0 596.34475624 0 -220.16488671 0 6828
0.08050000 0.08048110 23602.33141408 0 501.69289122 0 9824.90928479 0 82.80818902 0 2859.66870296 0 7147
0.08150000 0.08149960 23481.61096141 0 150.46777368 0 9650.51821048 0 1137.67218225 0 860.63796638 0 7386
0.08250000 0.08250610 22720.70961870 0 69.86616560 0 8563.64967642 0 881.19229859 0 1727.36797671 0 7227
0.08350000 0.08350160 22191.47291173 0 243.25445827 0 7439.30178071 0 550.80711215 0 1628.74848407 0 7798
0.08450000 0.08449610 21858.09113389 0 112.71599463 0 6745.02187071 0 758.41663239 0 2329.83882908 0 7371
0.08550000 0.08548940 22051.85899422 0 201.96344994 0 6654.50899264 0 599.70823236 0 1891.37862992 0 8256
0.08650000 0.08650700 21787.78986937 0 360.67514534 0 5656.11020615 0 541.98320499 0 1723.07300883 0 8037
0.08750000 0.08749060 21828.76232510 0 259.67529582 0 6881.06580213 0 810.73065931 0 1689.46021673 0 8155
0.08850000 0.08849210 21063.68684481 0 393.64533994 0 5879.33869015 0 -1695.69945395 0 -155.13511857 0 8718
0.08950000 0.08949900 20009.93679708 0 592.46830058 0 7035.49790805 0 -1059.70917835 0 362.81933390 0 8571
0.09050000 0.09049190 19461.03770519 0 411.68640195 0 7629.13716407 0 5.11841538 0 -31.65171636 0 8932
0.09150000 0.09150830 18980.13311758 0 377.38048332 0 7553.06899894 0 589.85397230 0 28.66819660 0 9285
0.09250000 0.09250820 18866.88217426 0 505.48037185 0 7828.22155753 0 37.36193657 0 -658.51963397 0 9204
0.09350000 0.09350330 18339.18330746 0 143.16193445 0 7267.59094212 0 -126.12266546 0 -671.90653257 0 9349
0.09450000 0.09448040 18138.05578349 0 110.45866496 0 7773.39755578 0 223.14939508 0 -328.66829775 0 9564
0.09550000 0.09549270 17885.74015130 0 -16.71632255 0 6761.44380672 0 401.35321452 0 -821.29671968 0 10155
0.09650000 0.09649430 17888.04691154 0 -31.42774092 0 6648.67618460 0 626.23377823 0 -789.89072821 0 9913
0.09750000 0.09749140 18172.32764995 0 208.65635001 0 5847.39555308 0 443.40874910 0 -1761.82658089 0 10476
0.09850000 0.09850240 17565.97924346 0 94.93570637 0 6381.63024057 0 -423.25315688 0 -874.90033542 0 10575
0.09950000 0.09950330 17416.58905635 0 536.31736246 0 6188.01616426 0 498.89402213 0 -667.73129653 0 10882
0.10050000 0.10051200 16936.12385164 0 157.74834838 0 6048.14960158 0 -240.07222759 0 -859.04959718 0 10875
0.10150000 0.10150300 16696.87986082 0 130.12544371 0 5769.41607233 0 986.13560966 0 -737.08788781 0 11118
0.10250000 0.10250800 16320.10902128 0 346.25459845 0 6035.74801913 0 200.36629308 0 -81.22245612 0 11575
0.10350000 0.10349800 16254.20158579 0 4.10042011 0 5269.28848270 0 119.26060297 0 70.43934060 0 11364
0.10450000 0.10450100 16150.72691207 0 18.98156111 0 6413.10104102 0 724.91917830 0 1078.49719130 0 12093
0.10550000 0.10551000 15677.73121672 0 312.10466075 0 5105.23389120 0 -311.50929692 0 277.06607113 0 12067
0.10650000 0.10649700 16011.22284029 0 21.33313841 0 5957.68066180 0 47.73796383 0 625.06172434 0 12054
0.10750000 0.10749900 15543.17020260 0 258.52850645 0 5303.54936458 0 202.82793580 0 100.31924540 0 12807
0.10850000 0.10850100 15378.07207670 0 92.24371717 0 6091.28601810 0 129.25436711 0 820.93203187 0 12736
0.10950000 0.10950300 15159.25939088 0 213.79712998 0 5402.55331725 0 149.11996662 0 436.95641117 0 12933
0.11050000 0.11050200 15599.30136849 0 -60.15756097 0 5502.02960655 0 461.07963102 0 319.60822228 0 13428
0.11150000 0.11150900 15114.88171765 0 -133.96345337 0 4628.41556458 0 535.00031220 0 355.66727870 0 13453
0.11250000 0.11250000 14875.30818965 0 113.43218876 0 4687.27090448 0 167.40049231 0 1177.98556362 0 13668
0.11350000 0.11349100 14523.25263842 0 585.52934608 0 4731.07737993 0 -345.34507584 0 410.33090569 0 13791
0.11450000 0.11448600 14329.15524091 0 612.58764372 0 5523.13097048 0 -689.71911547 0 768.15994827 0 14205
0.11550000 0.11549300 13579.23847078 0 296.72625914 0 5913.33594229 0 -335.37218240 0 21.93443391 0 14776
0.11650000 0.11649800 13402.93608085 0 155.97433991 0 5944.01585351 0 100.63252541 0 124.84076584 0 14553
0.11750000 0.11747300 13505.31229731 0 -154.32665402 0 5778.42342184 0 881.74811796 0 211.00814700 0 14568
0.11850000 0.11849100 13804.97143733 0 -255.13976580 0 5524.99834782 0 674.34291077 0 538.34511455 0 16015
0.11950000 0.11950300 13318.79425488 0 85.81466653 0 4560.94831979 0 7.65334716 0 743.49958283 0 15270
0.12050000 0.12050700 13444.67745666 0 172.41165432 0 5186.65154317 0 52.78834076 0 837.59562847 0 15999
0.12150000 0.12150000 13336.80895391 0 51.30718100 0 4807.42015937 0 253.07576462 0 1723.95177463 0 15670
0.12250000 0.12250700 13313.41181431 0 -35.49763491 0 4789.84484324 0 457.77657004 0 1011.22217652 0 16887
0.12350000 0.12352200 13388.76598222 0 5.95139749 0 4213.11084443 0 523.23803188 0 1285.61240578 0 16407
0.12450000 0.12449800 13674.14517789 0 255.67910832 0 4464.37195765 0 69.95821632 0 727.14025888 0 16306
0.12550000 0.12549900 13116.56827366 0 176.90214759 0 4347.49610539 0 -295.05001336 0 1886.19391166 0 17523
0.12650000 0.12650100 12984.53371123 0 162.44864699 0 4482.22188810 0 92.56259931 0 1173.71256489 0 17154
0.12750000 0.12750600 12869.41539058 0 -56.07778087 0 4560.88241235 0 -16.28331070 0 1055.57568369 0 18007
0.12850000 0.12850300 12856.45359493 0 86.15925257 0 4427.23311776 0 -108.65554737 0 407.34090503 0 17496
0.12950000 0.12949900 12618.96713572 0 -149.56813718 0 3713.08211595 0 770.18660191 0 1116.64771033 0 18405
0.13050000 0.13049000 12989.69646034 0 52.92004579 0 3842.19478207 0 -84.82330886 0 504.51482792 0 18100
0.13150000 0.13148800 12806.03440678 0 336.63760516 0 3899.56720467 0 -542.15456432 0 -11.51205176 0 19059
0.13250000 0.13249300 12601.17212814 0 344.81122561 0 4340.48794808 0 49.78263217 0 -69.66547746 0 18957
0.13350000 0.13349100 12183.64852432 0 -52.17803791 0 4394.21349258 0 -331.86590683 0 -55.54612755 0 19468
0.13450000 0.13450700 11946.82113947 0 117.70408904 0 4144.49021951 0 392.84566306 0 -479.06247479 0 19953
0.13550000 0.13551000 11846.31230035 0 229.70608645 0 4601.10791715 0 -323.64615116 0 -211.95062333 0 19956
0.13650000 0.13649900 11721.63740155 0 348.94911411 0 4628.64624061 0 34.97619725 0 -448.21779498 0 19723
0.13750000 0.13749600 11567.08446533 0 82.88079704 0 4720.03788449 0 -62.50364598 0 -32.22500120 0 20946
0.13850000 0.13851100 11455.37136218 0 -85.17613333 0 4783.83628204 0 247.98880905 0 -354.61935047 0 20955
0.13950000 0.13949800 11239.74420241 0 220.60097424 0 4516.82329173 0 -61.73351760 0 -306.06424429 0 20506
0.14050000 0.14048300 11131.10677958 0 213.05237596 0 4674.40796998 0 98.44725454 0 -476.69969323 0 21447
0.14150000 0.14148400 11019.06413925 0 114.75473130 0 4635.08320014 0 67.64387672 0 -150.91155041 0 21771
0.14250000 0.14249400 10893.09306089 0 -101.90981151 0 4216.77969167 0 572.94761664 0 -192.54747432 0 22470
0.14350000 0.14350900 11105.40287974 0 -221.72908984 0 3540.88795617 0 525.89849536 0 -339.52325237 0 22519
0.14450000 0.14449900 10917.51176573 0 259.88510116 0 3617.85685625 0 77.39652949 0 -905.46820400 0 22218
0.14550000 0.14550500 10814.47647492 0 392.54578422 0 3680.61171940 0 -397.40535913 0 -256.78415632 0 23559
0.14650000 0.14650700 10295.52132789 0 195.21782392 0 3831.55073124 0 -125.43942505 0 -102.79758466 0 23044
0.14750000 0.14750500 10124.79910083 0 45.01400952 0 3550.25779658 0 393.02910542 0 -645.53037689 0 23649
0.14850000 0.14849900 10015.59048023 0 24.84853117 0 3656.28089114 0 322.55098928 0 -4.15146542 0 23640
0.14950000 0.14949500 9802.23712698 0 138.63079826 0 3404.56941043 0 126.44451344 0 70.64189612 0 24457
0.15050000 0.15050000 9824.84337735 0 211.51233888 0 3408.02955080 0 299.70307831 0 121.35096714 0 24591
0.15150000 0.15149900 9421.77547105 0 161.48090615 0 3304.87342969 0 50.54287444 0 833.95534112 0 25020
0.15250000 0.15250500 9471.83216830 0 -56.98411795 0 3071.20960174 0 245.53595400 0 626.66217656 0 25297
0.15350000 0.15350100 9436.91221207 0 36.35662848 0 3028.18303093 0 389.27238159 0 363.78707475 0 25452
0.15450000 0.15450400 9521.38357522 0 29.82322440 0 2890.76602794 0 -111.30228014 0 251.84109866 0 26061
0.15550000 0.15549900 9481.66336076 0 -24.78130559 0 2665.42850601 0 -7.96149738 0 443.26704812 0 26128
0.15650000 0.15649500 9232.18174830 0 32.58057181 0 2607.78146910 0 80.08006057 0 469.27741753 0 26331
0.15750000 0.15749700 9359.11946905 0 131.36560196 0 2388.63924610 0 -43.11686399 0 -53.73257462 0 27345
0.15850000 0.15849900 9188.63890258 0 71.46079600 0 2641.19653889 0 210.64565611 0 130.85591779 0 26980
0.15950000 0.15949700 9204.68736313 0 181.14438952 0 2341.52641430 0 99.77199399 0 -197.25656059 0 27777
0.16050000 0.16050000 9082.24233256 0 -25.07547244 0 2567.33627286 0 -105.08457267 0 -178.38836026 0 28224
0.16150000 0.16150500 8917.41882098 0 226.71498734 0 2414.62874483 0 -35.92372648 0 -323.71864934 0 28075
0.16250000 0.16249700 8537.56131654 0 -22.11589905 0 2244.27999324 0 196.42612690 0 404.19272653 0 28590
0.16350000 0.16349900 8869.95448285 0 27.98704325 0 2318.93114850 0 243.20612615 0 9.96229333 0 29163
0.16450000 0.16449100 8619.51721257 0 169.13385786 0 2132.21538376 0 302.80512161 0 264.36131449 0 28996
0.16550000 0.16550500 8479.54080417 0 113.24105720 0 2263.52496440 0 -28.83263565 0 640.00293996 0 30777
0.16650000 0.16650700 8398.12315219 0 43.55042507 0 2010.61616529 0 103.54892943 0 434.55408515 0 29211
0.16750000 0.16749900 8397.71672301 0 55.95618165 0 2330.91531719 0 -80.46254339 0 518.51796104 0 30922
0.16850000 0.16850800 8264.29810444 0 117.08565760 0 2138.13606839 0 -309.38378213 0 534.41922831 0 30867
0.16950000 0.16949900 8168.00734119 0 -19.76761713 0 2131.97372317 0 303.93982795 0 503.71515103 0 30852
0.17050000 0.17049200 8234.80452706 0 29.62616117 0 2287.59216293 0 180.74125571 0 146.42764788 0 31257
0.17150000 0.17149500 8253.32451643 0 87.19784391 0 1956.92357451 0 -49.54250941 0 207.54471127 0 32608
0.17250000 0.17250900 8160.98819931 0 -27.15155666 0 1923.25585955 0 64.36025844 0 -13.56418961 0 32361
0.17350000 0.17350400 8071.03553444 0 183.01945606 0 2033.82656715 0 24.53448224 0 98.72483469 0 32508
0.17450000 0.17449800 8124.27775774 0 76.21865377 0 1745.81107407 0 -19.32735546 0 -105.33117633 0 32791
0.17550000 0.17549800 7853.94742652 0 18.81009193 0 1908.60243973 0 -23.57728659 0 -145.63016791 0 33633
0.17650000 0.17650100 7690.52994022 0 194.17319106 0 1934.07566354 0 -164.94653880 0 -256.88521439 0 33984
0.17750000 0.17750300 7579.48689600 0 111.29129557 0 2133.65436277 0 -53.47542578 0 -2.93585770 0 34069
0.17850000 0.17849800 7563.76797263 0 -1.23280957 0 2022.78707171 0 324.65892876 0 83.10663985 0 34536
