### header ###
fiducial parameters:
Omega_m = 0.31
Omega_nu = 0
Omega_de = 0.69
Omega_k = 0
H_0 = 100
w_de = -1
zeff = 0
beta = 0
fgrowth = 0
b_1 = 2
gamma = 0.55
Lx = 3500 Ly = 3500 Lz = 3500
nx = 700 ny = 700 nz = 700
xoffset = -983.599254 yoffset = -42.9823471 zoffset = 800.977702
bins = 400 dk = 0.001
kx_ny = 0.628318531 ky_ny = 0.628318531 kz_ny = 0.628318531
############################
A(data) = 9.00364936 (not used)
A(ran) = 8.9983078 (used)
Ngal = 500682
weighted Ngal = 0
Nran = 25229228
weighted Nran = 0
SN(data) = 6759.13955
SN(ran) = 133.57368
SN(data+ran) = 6892.71323
############################
13 columns: k_central k_mean P_0(k) sigma^{lin}_{P_0(k)} P^img_1(k) sigma^{lin}_{P_1(k)} P_2(k) sigma^{lin}_{P_2(k)} P^img_3(k) sigma^{lin}_{P_3(k)} P_4(k) sigma^{lin}_{P_4(k)} N_modes
### header ###
0.00050000 0 0 0 0 0 0 0 0 0 0 0 0
0.00150000 0.00179520 50931.28892211 0 -41981.71825718 0 2673.44724399 0 -15592.27124204 0 -34103.80249330 0 3
0.00250000 0.00253879 68199.14686570 0 -23778.52395829 0 4009.86329796 0 -13293.31004649 0 67624.32418252 0 6
0.00350000 0.00331552 55116.08153842 0 22252.54713529 0 31657.42833371 0 -93591.19469046 0 -37487.60007698 0 7
0.00450000 0.00420575 58030.94771861 0 24317.75662630 0 68.83350593 0 2572.82855915 0 31968.95081211 0 24
0.00550000 0.00557378 73355.85446402 0 -7381.52292894 0 35783.56333244 0 22049.22269680 0 -20067.71564886 0 45
0.00650000 0.00659388 64701.98849298 0 814.35337135 0 17469.20515901 0 20905.72869109 0 61060.16329936 0 40
0.00750000 0.00754703 52217.69221711 0 -4882.20312950 0 23324.97095640 0 -9573.29666524 0 -3296.86567627 0 57
0.00850000 0.00846663 60272.02021665 0 7283.16706604 0 29156.02146548 0 22801.88561008 0 29154.48362532 0 75
0.00950000 0.00948925 68949.06363583 0 -2505.30639149 0 15170.24396346 0 13336.25972528 0 -9833.70792742 0 112
0.01050000 0.01054430 69376.14381780 0 -7028.41285874 0 15462.76313131 0 4173.58835228 0 23190.40994228 0 105
0.01150000 0.01145670 73544.34972951 0 1765.35262869 0 24953.43384159 0 11893.65580818 0 -4602.92037162 0 144
0.01250000 0.01249090 71386.75998308 0 3515.43670150 0 18109.05651188 0 -7406.76547673 0 28314.82289720 0 169
0.01350000 0.01339930 69321.66033779 0 2429.55677897 0 20982.07147053 0 3434.21677183 0 -4402.45192201 0 180
0.01450000 0.01448870 72607.36568832 0 -4370.71749183 0 17268.18748077 0 20330.46662500 0 2292.07386854 0 267
0.01550000 0.01550050 68440.80746249 0 -1060.73074360 0 12877.32428283 0 5300.17710080 0 18820.63712370 0 238
0.01650000 0.01653350 74222.20770351 0 8041.39915762 0 13563.53053199 0 -10254.76856361 0 14301.47411801 0 315
0.01750000 0.01747870 73548.74355854 0 787.87835451 0 17400.88111756 0 -7990.02431165 0 15548.33295171 0 297
0.01850000 0.01844180 73153.84817425 0 -8018.92472211 0 14770.84490441 0 1377.78395431 0 -22835.60824790 0 388
0.01950000 0.01947590 67831.16368423 0 1257.23925480 0 16149.62845482 0 4418.29167568 0 -1748.00798859 0 399
0.02050000 0.02045430 70477.45706480 0 1214.54222117 0 11129.89847659 0 -4537.50724190 0 4147.44506954 0 462
0.02150000 0.02154770 75584.07501214 0 3477.56189524 0 17795.55681041 0 -1168.05551001 0 -19632.28719173 0 571
0.02250000 0.02255340 68954.11653922 0 8073.46312498 0 21647.62672323 0 999.67958765 0 -2971.27196039 0 510
0.02350000 0.02348930 60969.32088412 0 -2592.11746860 0 18015.24826203 0 4933.56699089 0 -4670.05807924 0 555
0.02450000 0.02439640 69135.69152399 0 -3680.12839821 0 20179.42875201 0 10080.87179508 0 3344.70348987 0 592
0.02550000 0.02547300 63708.98313163 0 895.05702610 0 15221.10253452 0 -2398.06400938 0 -5024.27759127 0 837
0.02650000 0.02652900 62670.61148551 0 4569.63711670 0 13263.76154625 0 -8903.19379949 0 -1162.12384082 0 723
0.02750000 0.02749970 62114.79211290 0 1766.49502424 0 22995.32393324 0 3158.66876863 0 -909.93123584 0 826
0.02850000 0.02848090 59030.21428633 0 314.35100585 0 17877.17218468 0 2195.37667611 0 -177.46785308 0 831
0.02950000 0.02946900 59375.89878547 0 476.00986207 0 19962.15390635 0 6427.58969226 0 987.71299428 0 996
0.03050000 0.03053250 58799.86779930 0 353.21552210 0 18207.58812793 0 -1534.39100560 0 -5131.82754141 0 1041
0.03150000 0.03150510 56633.92977771 0 2900.04799177 0 18692.44716167 0 -2972.65601654 0 4014.85029391 0 1036
0.03250000 0.03246190 56131.82496502 0 2314.33959716 0 23187.33426196 0 -5908.70045266 0 -4634.61086352 0 1059
0.03350000 0.03345080 50448.40711143 0 1886.67723285 0 23782.36855869 0 -525.33718370 0 -4976.87916058 0 1302
0.03450000 0.03451200 50345.04228344 0 1317.07222165 0 27058.07794817 0 521.76170533 0 -8576.86411724 0 1339
0.03550000 0.03553350 48488.10028857 0 1661.12001947 0 25569.00928904 0 -1490.85914446 0 -8475.82801864 0 1365
0.03650000 0.03647120 49558.10750371 0 1693.05217196 0 28308.67153656 0 7070.71444775 0 -5036.12994509 0 1308
0.03750000 0.03744890 46916.42764363 0 -2665.51638259 0 21827.99340502 0 2836.07384106 0 -3875.11554610 0 1579
0.03850000 0.03847530 46132.56854422 0 216.69595868 0 21054.56964956 0 4185.64941298 0 -3244.34843476 0 1662
0.03950000 0.03950240 45775.89947251 0 2322.07273626 0 17846.19569001 0 2280.92452737 0 1470.81229950 0 1683
0.04050000 0.04050350 45324.76307659 0 778.05814662 0 18099.93931663 0 2990.28625553 0 3630.52206843 0 1822
0.04150000 0.04152450 44563.42235098 0 1869.59622249 0 21072.69419432 0 -3748.13388706 0 144.28126240 0 1887
0.04250000 0.04250150 41238.72176778 0 2576.85989728 0 20710.75252777 0 179.56700490 0 -706.08612861 0 1920
0.04350000 0.04349210 38525.42249446 0 876.56010433 0 21386.30374152 0 755.65291393 0 3559.39696097 0 2005
0.04450000 0.04448520 38652.18446205 0 -912.79820928 0 20677.13973567 0 5481.15891865 0 4364.10477913 0 2151
0.04550000 0.04548030 38090.65311169 0 -579.64930437 0 17838.17695202 0 2992.92255295 0 2812.97328492 0 2274
0.04650000 0.04648670 38638.12420915 0 1218.85915820 0 13216.30819269 0 2807.70069008 0 2300.59789686 0 2311
0.04750000 0.04749250 38906.91670021 0 618.98615724 0 14589.37976536 0 -27.28721613 0 3818.30333671 0 2568
0.04850000 0.04851840 38042.76037524 0 -579.85581434 0 11943.96515060 0 -973.24631219 0 1583.40416846 0 2493
0.04950000 0.04949480 37963.89114411 0 -262.40386365 0 10995.66699965 0 2629.48698452 0 174.53936603 0 2644
0.05050000 0.05050630 36436.70601812 0 -401.03685883 0 10271.52003680 0 -154.59138222 0 1023.86981339 0 2829
0.05150000 0.05149060 36662.98821330 0 521.75401613 0 9349.11252342 0 2813.87401987 0 -939.98832179 0 2784
0.05250000 0.05249300 36822.37436145 0 1908.13010311 0 11514.68805412 0 -1943.63224169 0 507.09290710 0 3055
0.05350000 0.05348950 35271.68225014 0 978.20145289 0 10050.38960616 0 1709.62789199 0 2763.92716835 0 3009
0.05450000 0.05448610 35028.92319610 0 -652.14748341 0 11622.66640259 0 -366.21136992 0 1280.08716577 0 3336
0.05550000 0.05550870 34313.16844670 0 328.37830503 0 11526.55139251 0 -256.23382923 0 1275.29789212 0 3349
0.05650000 0.05647670 34028.11878821 0 1348.15856205 0 13127.66269196 0 -1220.95721156 0 2133.74223935 0 3324
0.05750000 0.05747970 33316.53817639 0 131.29749761 0 11848.39936914 0 -637.57974325 0 -283.55795353 0 3639
0.05850000 0.05849280 32854.19751644 0 710.24378934 0 14011.04201895 0 1542.54155845 0 502.60021692 0 3846
0.05950000 0.05951020 33170.88274396 0 181.31465040 0 12182.11068416 0 1090.67578692 0 3464.42434643 0 3787
0.06050000 0.06049470 32759.07111789 0 -894.61324937 0 11255.23244975 0 3560.70412511 0 2881.13255779 0 3930
0.06150000 0.06148310 33312.36403881 0 92.14694309 0 11358.92681492 0 116.52654286 0 157.47483253 0 4083
0.06250000 0.06249100 32521.91419586 0 1622.88272231 0 10320.48926137 0 -434.05648401 0 1406.05824413 0 4303
0.06350000 0.06350600 31561.31332362 0 -44.30748181 0 9928.65857282 0 -594.55097554 0 1540.77304227 0 4470
0.06450000 0.06451750 31479.80779507 0 -570.95391672 0 10666.49231311 0 398.02379057 0 -445.59248213 0 4479
0.06550000 0.06550280 30435.72417121 0 856.57587144 0 9135.10009582 0 426.97363161 0 -1213.99299254 0 4636
0.06650000 0.06648880 30350.37404225 0 1050.93250486 0 9514.69397052 0 -21.30699513 0 -701.86805274 0 4653
0.06750000 0.06749660 29313.54023630 0 -234.35036374 0 9134.44102147 0 1633.49381943 0 1323.82773379 0 5220
0.06850000 0.06852730 30818.75621712 0 -160.62301103 0 7797.16817084 0 2546.05915577 0 -1755.19189906 0 5029
0.06950000 0.06949320 30201.97246668 0 -947.48748949 0 5322.39889113 0 889.76685595 0 789.57986481 0 5040
0.07050000 0.07048030 30976.05529648 0 282.29253077 0 5783.25663378 0 -5.16205709 0 -940.34532040 0 5475
0.07150000 0.07148790 28719.16501392 0 1093.97665098 0 5149.55664156 0 -1193.42987267 0 976.73171707 0 5509
0.07250000 0.07249820 28522.76085617 0 763.07518962 0 6613.89902781 0 -956.94520648 0 -2378.26980959 0 5916
0.07350000 0.07351270 27114.86818842 0 1315.53438149 0 8473.82882643 0 -1256.37147356 0 -329.95678811 0 5721
0.07450000 0.07449140 26403.83680523 0 830.52815447 0 8316.89223796 0 -561.76202638 0 -1928.07808691 0 6028
0.07550000 0.07549160 25313.17859362 0 531.11177351 0 9977.74862768 0 -320.63418136 0 -2044.85507803 0 6183
0.07650000 0.07648840 25315.26566242 0 156.23137891 0 9216.44085579 0 1301.51806687 0 -541.31644144 0 6330
0.07750000 0.07749960 24204.50568299 0 3.13438188 0 9319.99242151 0 954.04637778 0 -1397.41338551 0 6583
0.07850000 0.07848650 24434.74232429 0 206.65056706 0 8790.40420822 0 106.78762081 0 366.67052505 0 6549
0.07950000 0.07947320 23840.80648482 0 391.54289275 0 8163.05329895 0 1307.77927324 0 183.25452592 0 6828
0.08050000 0.08048110 24333.13502792 0 173.64741874 0 8262.97995573 0 892.08460076 0 1307.25201376 0 7147
0.08150000 0.08149960 23706.35531643 0 151.44430218 0 7320.87710372 0 -564.76081470 0 6.55773491 0 7386
0.08250000 0.08250610 23589.69915561 0 532.65290904 0 8075.02293429 0 -125.52180934 0 439.06325219 0 7227
0.08350000 0.08350160 22673.14641942 0 309.17617370 0 7925.30321000 0 -1042.57544204 0 -21.41991653 0 7798
0.08450000 0.08449610 21826.56541058 0 331.04975308 0 8772.69707722 0 -235.90687767 0 -1569.58557615 0 7371
0.08550000 0.08548940 21394.98155386 0 905.83508872 0 8557.49831578 0 -155.81066978 0 -647.15609363 0 8256
0.08650000 0.08650700 21012.05935367 0 295.75632138 0 9102.17933180 0 851.17585555 0 -274.89551959 0 8037
0.08750000 0.08749060 21044.79337997 0 -288.37468861 0 8286.91533938 0 1344.41282280 0 -1455.28011387 0 8155
0.08850000 0.08849210 20956.91679932 0 28.49321236 0 7772.74946599 0 -58.70342325 0 -1814.20102296 0 8718
0.08950000 0.08949900 20626.39101034 0 195.73190191 0 7276.02709387 0 1747.62352855 0 823.11796181 0 8571
0.09050000 0.09049190 20850.36644528 0 -81.18214274 0 6484.27008677 0 37.96158438 0 143.49037317 0 8932
0.09150000 0.09150830 20319.15251524 0 156.59277135 0 5796.30630601 0 277.73613006 0 133.16267803 0 9285
0.09250000 0.09250820 19805.07451844 0 838.99616148 0 6493.62894261 0 -392.62816852 0 -225.79338170 0 9204
0.09350000 0.09350330 18118.06386139 0 1131.10340785 0 7372.81216288 0 -1119.39385347 0 878.40111870 0 9349
0.09450000 0.09448040 18295.35486286 0 150.56333946 0 7061.11393131 0 550.10519796 0 -23.55927189 0 9564
0.09550000 0.09549270 17577.73273612 0 -163.40320635 0 6967.66817236 0 1259.85358307 0 -418.32218224 0 10155
0.09650000 0.09649430 17676.26435217 0 142.90489545 0 6208.21679323 0 251.16774436 0 464.98135120 0 9913
0.09750000 0.09749140 17954.28388421 0 -35.30902980 0 6070.99751255 0 833.74553578 0 417.68178166 0 10476
0.09850000 0.09850240 17148.67533109 0 163.99307790 0 5585.06199069 0 -656.76539772 0 -401.29719320 0 10575
0.09950000 0.09950330 17264.45272610 0 443.71741559 0 5839.37681510 0 -762.69292650 0 -473.67673885 0 10882
0.10050000 0.10051200 16967.42988350 0 406.50168369 0 6459.12640014 0 226.71608579 0 -582.21310361 0 10875
0.10150000 0.10150300 16919.53714704 0 -279.15423838 0 6084.57444426 0 215.41186215 0 -964.96943675 0 11118
0.10250000 0.10250800 16467.30229387 0 377.92421966 0 6361.49551903 0 -26.08737127 0 -751.67100637 0 11575
0.10350000 0.10349800 16142.04909974 0 440.17598939 0 6426.78781846 0 -72.48862246 0 -614.82629961 0 11364
0.10450000 0.10450100 15695.41637858 0 88.18063362 0 6294.08319710 0 462.52300385 0 474.62251055 0 12093
0.10550000 0.10551000 15977.17066529 0 77.74737674 0 6315.00880787 0 1157.14782944 0 387.37754282 0 12067
0.10650000 0.10649700 15726.17318181 0 -172.92243695 0 5318.54330615 0 978.24648963 0 912.31928191 0 12054
0.10750000 0.10749900 15991.23091819 0 328.96488121 0 5567.19009110 0 -496.02924560 0 1033.39014245 0 12807
0.10850000 0.10850100 15408.16980558 0 371.96069521 0 5590.78495301 0 -267.74236593 0 747.44524130 0 12736
0.10950000 0.10950300 14833.78650530 0 -113.90562384 0 5803.63301592 0 117.10982366 0 1474.39327016 0 12933
0.11050000 0.11050200 15235.93170750 0 95.79107504 0 5656.15414444 0 335.54683710 0 175.12923758 0 13428
0.11150000 0.11150900 15130.80934790 0 59.77101386 0 5770.16302326 0 -65.38094492 0 247.43298968 0 13453
0.11250000 0.11250000 14974.05949716 0 139.32282634 0 5575.87888802 0 243.70592420 0 924.86256535 0 13668
0.11350000 0.11349100 14834.44557965 0 54.48073386 0 5291.76291820 0 -35.70787963 0 78.97446334 0 13791
0.11450000 0.11448600 14833.12743094 0 -85.14230084 0 5341.54500114 0 651.08307833 0 552.21533435 0 14205
0.11550000 0.11549300 14905.73545571 0 235.31261229 0 4830.29003948 0 159.74424522 0 -153.70822259 0 14776
0.11650000 0.11649800 14563.89555697 0 188.88192245 0 4447.00534840 0 143.35306602 0 267.76982736 0 14553
0.11750000 0.11747300 14503.91979068 0 -55.28337658 0 4876.95250381 0 3.61160663 0 3.25551975 0 14568
0.11850000 0.11849100 14194.48438106 0 168.00793917 0 4250.76595924 0 197.76404784 0 327.12166993 0 16015
0.11950000 0.11950300 14108.36533203 0 121.40808691 0 4212.69343067 0 -153.09088961 0 -425.11174656 0 15270
0.12050000 0.12050700 13816.94462144 0 254.62898318 0 4269.18708746 0 -235.97717894 0 -812.44974492 0 15999
0.12150000 0.12150000 13566.82590377 0 336.77381386 0 4744.67628079 0 -188.32720154 0 -620.87110990 0 15670
0.12250000 0.12250700 13369.10359730 0 -17.58728931 0 4282.34660541 0 173.70673543 0 -864.33427505 0 16887
0.12350000 0.12352200 13393.70903988 0 1.83238049 0 3796.14745381 0 953.18628575 0 -864.79123327 0 16407
0.12450000 0.12449800 13406.89052698 0 208.17852110 0 4246.36114563 0 -164.45333149 0 -541.11762067 0 16306
0.12550000 0.12549900 13057.36142744 0 113.29488160 0 3724.62690174 0 499.77608331 0 -44.09844539 0 17523
0.12650000 0.12650100 12865.24125299 0 -39.93584161 0 3617.73602595 0 405.18133806 0 77.67114380 0 17154
0.12750000 0.12750600 12687.84040581 0 276.11261023 0 3405.52506825 0 217.25287651 0 385.90011781 0 18007
0.12850000 0.12850300 12803.39810936 0 187.81971428 0 3607.07000597 0 260.26626583 0 1043.61897644 0 17496
0.12950000 0.12949900 12379.28376200 0 77.05446990 0 3634.48749913 0 -315.37366955 0 1007.65438735 0 18405
0.13050000 0.13049000 12315.02401240 0 211.59472318 0 3595.15174472 0 94.85233347 0 895.73367577 0 18100
0.13150000 0.13148800 12112.46849400 0 80.71485902 0 3791.38014931 0 0.13246845 0 539.53913759 0 19059
0.13250000 0.13249300 11986.80498366 0 46.78087802 0 3711.65412152 0 -103.77180640 0 1017.78216327 0 18957
0.13350000 0.13349100 12197.04970287 0 96.91501651 0 3527.44283933 0 77.64346268 0 376.22051245 0 19468
0.13450000 0.13450700 11868.39129124 0 173.46177946 0 3574.41287169 0 193.92274281 0 155.91392476 0 19953
0.13550000 0.13551000 11767.99229784 0 -39.85708223 0 3891.50452839 0 -356.37907900 0 398.92232861 0 19956
0.13650000 0.13649900 11630.57529485 0 95.95254826 0 3869.98575071 0 -162.62220324 0 -467.32326207 0 19723
0.13750000 0.13749600 11800.39678696 0 171.64383270 0 3792.06119281 0 -352.86840960 0 -475.35957537 0 20946
0.13850000 0.13851100 11541.38056549 0 -34.92402053 0 3971.08775674 0 120.73692953 0 -981.11785691 0 20955
0.13950000 0.13949800 11572.35706017 0 145.67740157 0 3909.72793430 0 200.47504035 0 -823.46397585 0 20506
0.14050000 0.14048300 11384.41102330 0 154.74296933 0 4077.69303365 0 -127.49134321 0 -974.51283341 0 21447
0.14150000 0.14148400 11339.81365862 0 41.78081042 0 3651.50260206 0 499.66404067 0 -704.68669407 0 21771
0.14250000 0.14249400 11305.65163790 0 -167.51473187 0 3253.00427796 0 338.90262402 0 -785.49360380 0 22470
0.14350000 0.14350900 11231.61561870 0 232.37863296 0 3185.06469654 0 -113.28170012 0 -981.64731330 0 22519
0.14450000 0.14449900 11000.61005731 0 474.78178685 0 3580.91573865 0 -342.22106340 0 -768.33899680 0 22218
0.14550000 0.14550500 10584.27278733 0 182.68222969 0 3601.89627229 0 -202.61153972 0 -392.97528101 0 23559
0.14650000 0.14650700 10294.19219461 0 -10.12701798 0 3410.76470937 0 869.87599192 0 -597.26965725 0 23044
0.14750000 0.14750500 10344.27086100 0 -15.16804705 0 3240.54777265 0 536.88087103 0 3.70797429 0 23649
0.14850000 0.14849900 10255.99883574 0 -12.10093469 0 2620.05123667 0 529.93532579 0 409.01715081 0 23640
0.14950000 0.14949500 10311.91031018 0 11.83236189 0 2606.13378321 0 170.21144443 0 96.78353117 0 24457
0.15050000 0.15050000 9994.14859455 0 250.32303073 0 2194.33314171 0 58.93882264 0 1016.52333125 0 24591
0.15150000 0.15149900 9908.99618790 0 242.24058222 0 2751.10817214 0 -199.36889389 0 375.11875982 0 25020
0.15250000 0.15250500 9869.19908143 0 246.43339358 0 2697.65724196 0 -328.99563801 0 151.59918465 0 25297
0.15350000 0.15350100 9346.94856263 0 140.17522917 0 3120.62919378 0 125.74699308 0 746.07876047 0 25452
0.15450000 0.15450400 9127.29006472 0 -220.87449009 0 2921.17132485 0 451.10014683 0 1303.23166020 0 26061
0.15550000 0.15549900 9656.70252485 0 -60.87100896 0 2358.77219325 0 463.47097247 0 369.12447857 0 26128
0.15650000 0.15649500 9523.42670572 0 136.99739232 0 2428.38142970 0 -91.10868129 0 500.62958460 0 26331
0.15750000 0.15749700 9242.52921567 0 292.88385565 0 2285.93349247 0 -313.90393374 0 1364.67935922 0 27345
0.15850000 0.15849900 9174.00745191 0 101.56445654 0 2573.01529688 0 -28.61503127 0 650.33283202 0 26980
0.15950000 0.15949700 8953.68987964 0 62.53616032 0 2811.91876595 0 -23.25170386 0 537.65967722 0 27777
0.16050000 0.16050000 8868.69125701 0 134.46215297 0 2448.41729009 0 75.95546341 0 414.73791621 0 28224
0.16150000 0.16150500 8917.80328102 0 -55.17144378 0 2715.21058895 0 73.41956498 0 194.60708168 0 28075
0.16250000 0.16249700 8699.58376212 0 164.38852251 0 2571.94979334 0 54.08737632 0 145.69058306 0 28590
0.16350000 0.16349900 8720.48740374 0 42.43867648 0 2415.95787811 0 -207.68091997 0 277.03311742 0 29163
0.16450000 0.16449100 8586.05820449 0 39.33828087 0 2584.08774604 0 38.59989790 0 165.38152787 0 28996
0.16550000 0.16550500 8556.24607450 0 71.86557750 0 2524.15591804 0 338.05791039 0 51.75304480 0 30777
0.16650000 0.16650700 8501.81751736 0 114.07808163 0 2442.60645120 0 -109.54211223 0 325.49485473 0 29211
0.16750000 0.16749900 8441.57812133 0 96.55571114 0 2429.67760927 0 130.57581119 0 391.98886639 0 30922
0.16850000 0.16850800 8288.42022583 0 122.07485047 0 2564.05188565 0 -123.09092343 0 149.59999244 0 30867
0.16950000 0.16949900 8245.61334648 0 95.42902353 0 2514.92887707 0 9.87628413 0 322.96181229 0 30852
0.17050000 0.17049200 8096.05839078 0 16.98709227 0 2549.81587959 0 303.36313789 0 441.33156643 0 31257
0.17150000 0.17149500 8074.51764395 0 69.73435073 0 2431.54498661 0 90.74794792 0 179.63071542 0 32608
0.17250000 0.17250900 8023.60415003 0 40.20584241 0 2080.96136810 0 10.62653044 0 382.85299738 0 32361
0.17350000 0.17350400 7850.34448671 0 55.58907723 0 2332.74974081 0 64.39980290 0 180.37656790 0 32508
0.17450000 0.17449800 7851.75051200 0 19.03923012 0 2075.21643664 0 143.75619983 0 559.03236010 0 32791
0.17550000 0.17549800 7796.93749482 0 152.66468819 0 2036.66058688 0 41.19467363 0 21.68387581 0 33633
0.17650000 0.17650100 7699.68008918 0 120.15035335 0 2151.17475604 0 -390.10391374 0 -98.68375238 0 33984
0.17750000 0.17750300 7588.87870555 0 60.67888879 0 2288.40502130 0 -38.92042772 0 72.76620261 0 34069
0.17850000 0.17849800 7505.33004650 0 -24.38234591 0 2279.54047123 0 230.52553556 0 -166.62058766 0 34536
