### header ###
fiducial parameters:
Omega_m = 0.31
Omega_nu = 0
Omega_de = 0.69
Omega_k = 0
H_0 = 100
w_de = -1
zeff = 0
beta = 0
fgrowth = 0
b_1 = 2
gamma = 0.55
Lx = 3500 Ly = 3500 Lz = 3500
nx = 700 ny = 700 nz = 700
xoffset = -983.599254 yoffset = -42.9823471 zoffset = 800.977702
bins = 400 dk = 0.001
kx_ny = 0.628318531 ky_ny = 0.628318531 kz_ny = 0.628318531
############################
A(data) = 9.08355405 (not used)
A(ran) = 9.08884271 (used)
Ngal = 504696
weighted Ngal = 0
Nran = 25229228
weighted Nran = 0
SN(data) = 6728.77733
SN(ran) = 134.917608
SN(data+ran) = 6863.69494
############################
13 columns: k_central k_mean P_0(k) sigma^{lin}_{P_0(k)} P^img_1(k) sigma^{lin}_{P_1(k)} P_2(k) sigma^{lin}_{P_2(k)} P^img_3(k) sigma^{lin}_{P_3(k)} P_4(k) sigma^{lin}_{P_4(k)} N_modes
### header ###
0.00050000 0 0 0 0 0 0 0 0 0 0 0 0
0.00150000 0.00179520 55180.45113375 0 -11134.29230563 0 36057.18903544 0 -90279.23621146 0 -110888.16175140 0 3
0.00250000 0.00253879 84868.01606644 0 7979.89653573 0 -7374.65757107 0 -15775.49391270 0 32674.27021756 0 6
0.00350000 0.00331552 76756.01906085 0 732.04926437 0 1369.16106483 0 -28046.14025186 0 75383.05733390 0 7
0.00450000 0.00420575 55417.60805578 0 -1675.74048557 0 -4938.89450860 0 5269.28848270 0 34974.43971609 0 24
0.00550000 0.00557378 63363.29863249 0 788.76041569 0 20150.53932612 0 -2640.53746454 0 -29090.11402999 0 45
0.00650000 0.00659388 55679.37042039 0 -5587.26988978 0 -57340.45748614 0 5020.13640741 0 42110.67713929 0 40
0.00750000 0.00754703 101846.21083107 0 -22346.02584795 0 9525.67854310 0 9514.40837163 0 -57046.73001532 0 57
0.00850000 0.00846663 85295.75532276 0 781.95657143 0 -26125.26804456 0 -19442.03439462 0 29778.40734794 0 75
0.00950000 0.00948925 87565.38770952 0 14556.09651044 0 31988.50335131 0 -29649.00908293 0 -10135.91548828 0 112
0.01050000 0.01054430 79907.38308871 0 3259.23253061 0 21440.89706725 0 5402.15787264 0 17183.16688900 0 105
0.01150000 0.01145670 78565.39785644 0 2489.29088467 0 44107.45274313 0 13439.84424473 0 8446.54314813 0 144
0.01250000 0.01249090 79408.24411061 0 -3467.92842508 0 39988.89709948 0 -1852.50422755 0 -7539.32729864 0 169
0.01350000 0.01339930 86323.58177920 0 12692.01454339 0 64452.96823256 0 5593.12466697 0 7563.68009605 0 180
0.01450000 0.01448870 76248.97119049 0 3393.92535960 0 63882.42953269 0 -3665.37611723 0 31559.99517491 0 267
0.01550000 0.01550050 77313.81565653 0 -9092.99622912 0 57491.05597623 0 26035.63393230 0 16303.19277950 0 238
0.01650000 0.01653350 80592.82041778 0 -6029.67355050 0 32341.76720552 0 19966.32804393 0 1359.18707293 0 315
0.01750000 0.01747870 88128.78643721 0 6569.09295625 0 52268.88032534 0 13034.07413357 0 22387.54753231 0 297
0.01850000 0.01844180 78075.81545649 0 10694.03063657 0 42006.98277412 0 -8893.59328305 0 19505.19568697 0 388
0.01950000 0.01947590 73986.69846736 0 5621.32206478 0 51913.30971088 0 -3604.08220223 0 1258.63429552 0 399
0.02050000 0.02045430 68482.21930113 0 2567.45710316 0 54034.87005924 0 -5680.73761788 0 -743.17334102 0 462
0.02150000 0.02154770 64870.27214493 0 -2552.01279411 0 53126.22621531 0 4026.63674029 0 -8463.62415850 0 571
0.02250000 0.02255340 66214.23460026 0 2571.60927159 0 46906.87106548 0 1760.04708014 0 1011.98889969 0 510
0.02350000 0.02348930 66562.66524254 0 -449.71938605 0 43629.95337301 0 11857.62641011 0 -13282.76485681 0 555
0.02450000 0.02439640 68411.47865370 0 -741.19172413 0 46250.98223665 0 8384.62311249 0 -4056.49280856 0 592
0.02550000 0.02547300 71065.35138935 0 2891.32624114 0 40198.81228151 0 -755.45409317 0 -19628.44259133 0 837
0.02650000 0.02652900 64367.28856643 0 1646.01623217 0 42362.99277148 0 541.63609250 0 -2150.87817258 0 723
0.02750000 0.02749970 62565.70881736 0 3663.31101759 0 40693.55743057 0 7897.89670141 0 -10400.64368749 0 826
0.02850000 0.02848090 61119.37014558 0 263.11236858 0 35846.28524187 0 4926.97624735 0 7961.17882405 0 831
0.02950000 0.02946900 57518.51740769 0 -160.97781272 0 32731.71953216 0 7638.68275764 0 364.89431967 0 996
0.03050000 0.03053250 57039.69988887 0 1816.26612261 0 30730.33040784 0 3526.10272147 0 -3525.34478597 0 1041
0.03150000 0.03150510 55712.65367531 0 3877.92759668 0 27412.98948827 0 -959.32226799 0 3697.90143665 0 1036
0.03250000 0.03246190 50674.03023225 0 3323.26160419 0 30079.05509949 0 2650.63228674 0 6547.67303971 0 1059
0.03350000 0.03345080 48503.47869018 0 -1815.18963449 0 26065.40212400 0 6194.77167639 0 13166.98746180 0 1302
0.03450000 0.03451200 48836.97031375 0 -1540.08101419 0 19599.11378254 0 8848.86410350 0 829.68234238 0 1339
0.03550000 0.03553350 49709.14537671 0 1724.22638895 0 18516.36446319 0 1200.27326139 0 7154.71347428 0 1365
0.03650000 0.03647120 45615.63455854 0 3105.28374588 0 18155.96063680 0 -3077.13028636 0 8330.45818509 0 1308
0.03750000 0.03744890 45258.30641247 0 669.65359673 0 21057.31579271 0 1235.47881651 0 11319.27250790 0 1579
0.03850000 0.03847530 43815.26311246 0 1233.92999178 0 18949.48616008 0 -540.21578726 0 3117.79517405 0 1662
0.03950000 0.03950240 43045.13472878 0 693.08039468 0 21597.75676371 0 2351.76403595 0 3428.83433127 0 1683
0.04050000 0.04050350 42917.71368684 0 1258.71118752 0 21325.33936369 0 -242.21312079 0 4761.96599803 0 1822
0.04150000 0.04152450 41970.18445597 0 64.66178496 0 20329.58785920 0 596.12396633 0 3243.95299015 0 1887
0.04250000 0.04250150 40285.48055917 0 169.89948257 0 22216.29804577 0 -1480.27001649 0 3537.40584666 0 1920
0.04350000 0.04349210 42469.43327980 0 -149.76256412 0 21484.83535758 0 1270.39877275 0 1133.84955099 0 2005
0.04450000 0.04448520 39905.63403931 0 1038.73633392 0 21503.06974806 0 3019.83475577 0 5700.63067882 0 2151
0.04550000 0.04548030 41961.83618081 0 -680.11200829 0 21615.99115420 0 2059.70622016 0 3387.74104524 0 2274
0.04650000 0.04648670 41424.14135296 0 823.61007066 0 22762.45099451 0 975.77386235 0 4439.71159221 0 2311
0.04750000 0.04749250 40936.20663889 0 2296.05028382 0 24060.16839927 0 -2054.87300822 0 3067.11235616 0 2568
0.04850000 0.04851840 38058.13877685 0 243.40055309 0 21088.62182457 0 591.14356112 0 8613.78326568 0 2493
0.04950000 0.04949480 37128.18486212 0 49.90576923 0 25000.88719514 0 2243.39024286 0 7015.00069562 0 2644
0.05050000 0.05050630 35217.63815304 0 836.38512857 0 20671.20806647 0 4095.07062747 0 5543.66113663 0 2829
0.05150000 0.05149060 38107.67919920 0 404.66286624 0 20561.36234066 0 3523.40051662 0 5020.47692916 0 2784
0.05250000 0.05249300 37814.50095700 0 526.94532513 0 19238.16072751 0 1392.99758733 0 4650.96689209 0 3055
0.05350000 0.05348950 33921.12905127 0 125.25049040 0 16136.99619635 0 -784.45885707 0 6229.57080233 0 3009
0.05450000 0.05448610 35204.89604885 0 -558.85441002 0 15207.48166451 0 1604.06614948 0 3915.92323324 0 3336
0.05550000 0.05550870 34702.02231608 0 625.86030277 0 14356.06744373 0 1561.40206958 0 1373.23634126 0 3349
0.05650000 0.05647670 34385.33708856 0 709.06734161 0 13420.51139698 0 2162.75249554 0 2207.19607620 0 3324
0.05750000 0.05747970 33921.67827990 0 508.24079494 0 11265.00871934 0 431.74752685 0 1296.30039490 0 3639
0.05850000 0.05849280 32937.24088516 0 971.89301285 0 11912.32958156 0 -80.29557788 0 1650.35513834 0 3846
0.05950000 0.05951020 30957.71106027 0 368.64664966 0 10910.77822274 0 -1418.42687286 0 2269.57746389 0 3787
0.06050000 0.06049470 32007.06727897 0 -1068.19146530 0 10038.54823692 0 4158.69327186 0 -733.10488179 0 3930
0.06150000 0.06148310 31943.24691227 0 -496.38185038 0 9348.89283197 0 473.10663954 0 -1173.47090429 0 4083
0.06250000 0.06249100 31261.10495497 0 1926.83683021 0 9420.22664632 0 -2168.31068927 0 348.51522349 0 4303
0.06350000 0.06350600 30373.22195322 0 899.64308516 0 10672.40201315 0 374.39707341 0 323.33858313 0 4470
0.06450000 0.06451750 30399.47508169 0 116.46942308 0 11614.97720179 0 1723.43549972 0 1593.31225292 0 4479
0.06550000 0.06550280 29457.54798284 0 -10.41250703 0 8783.12143660 0 318.79975774 0 -669.71181497 0 4636
0.06650000 0.06648880 29238.51560557 0 136.00768233 0 10331.19921963 0 949.98647975 0 2607.37503992 0 4653
0.06750000 0.06749660 28231.44999131 0 988.56320020 0 11911.45081576 0 -739.79338804 0 3348.27347595 0 5220
0.06850000 0.06852730 27953.10092210 0 482.33917279 0 10934.75754469 0 -2087.68392652 0 2732.25864559 0 5029
0.06950000 0.06949320 26995.90526736 0 827.97753672 0 13245.52715576 0 41.56968694 0 1476.86479899 0 5040
0.07050000 0.07048030 27118.93248027 0 -221.74666516 0 12208.25396690 0 1183.13732816 0 2217.52157443 0 5475
0.07150000 0.07148790 27294.90533302 0 -29.80169464 0 13084.16378454 0 2502.50532548 0 2971.12916095 0 5509
0.07250000 0.07249820 27533.81978667 0 289.43140449 0 11776.77995591 0 364.63508375 0 1912.56787043 0 5916
0.07350000 0.07351270 26472.16084668 0 719.00728134 0 11443.50802379 0 -232.81252358 0 3471.56431861 0 5721
0.07450000 0.07449140 26270.92347699 0 476.57446910 0 12303.05082828 0 -256.74351340 0 1945.84014078 0 6028
0.07550000 0.07549160 25553.63088743 0 603.51438676 0 13130.73837229 0 60.40262678 0 3247.55592996 0 6183
0.07650000 0.07648840 24916.52567771 0 -297.79286114 0 11834.99819059 0 785.71768909 0 3049.14159542 0 6330
0.07750000 0.07749960 24698.04252907 0 9.90584362 0 11340.25304153 0 1513.01502735 0 2461.95028351 0 6583
0.07850000 0.07848650 24867.31479255 0 45.93078195 0 10035.26384972 0 1398.01753700 0 3451.83602625 0 6549
0.07950000 0.07947320 25419.72894766 0 163.72944815 0 9764.36232072 0 634.54141048 0 2150.99900288 0 6828
0.08050000 0.08048110 23967.89798959 0 265.09618239 0 9099.29038921 0 355.27073563 0 2682.15801005 0 7147
0.08150000 0.08149960 23360.01174294 0 1057.28708010 0 8623.03227580 0 -544.49317983 0 1956.40729960 0 7386
0.08250000 0.08250610 22939.52230452 0 97.69437193 0 9645.14675449 0 -141.04301040 0 3263.24189960 0 7227
0.08350000 0.08350160 22605.81098950 0 67.11661724 0 9715.30521957 0 1000.91095824 0 797.24489955 0 7798
0.08450000 0.08449610 22673.80549378 0 426.08168431 0 8700.96781826 0 143.25420486 0 1091.41944248 0 7371
0.08550000 0.08548940 22256.17204424 0 225.62531774 0 8491.87647918 0 -315.75044039 0 434.71336145 0 8256
0.08650000 0.08650700 22062.84356681 0 -165.36395255 0 8761.10835315 0 177.60296332 0 -633.36825813 0 8037
0.08750000 0.08749060 21433.09802072 0 426.87257354 0 7981.35748389 0 553.01061741 0 283.03618633 0 8155
0.08850000 0.08849210 21264.92421450 0 386.03522806 0 7853.68379677 0 379.39395547 0 -482.52041824 0 8718
0.08950000 0.08949900 20295.31599274 0 634.01195408 0 7918.66852816 0 77.59029735 0 456.33868949 0 8571
0.09050000 0.09049190 20256.21091435 0 404.77600734 0 7174.36487463 0 748.54589547 0 -145.06336397 0 8932
0.09150000 0.09150830 19781.34784166 0 -192.19926337 0 7195.57608428 0 737.16368136 0 38.69645229 0 9285
0.09250000 0.09250820 19781.23799593 0 244.51768412 0 6203.40555044 0 -251.31274072 0 -1030.23097937 0 9204
0.09350000 0.09350330 18720.01843885 0 581.38266993 0 6760.30141117 0 -592.91207731 0 -942.03804303 0 9349
0.09450000 0.09448040 18333.47132971 0 673.81455283 0 6704.56568989 0 -49.28744764 0 -463.73570067 0 9564
0.09550000 0.09549270 18126.63182801 0 -51.30015087 0 7108.64417687 0 105.49363816 0 -1164.05712559 0 10155
0.09650000 0.09649430 17850.69936476 0 -312.05632863 0 5839.79422885 0 1529.97520742 0 -869.08510269 0 9913
0.09750000 0.09749140 18416.07531553 0 -153.91253564 0 5515.82622971 0 662.48506467 0 -1439.69300537 0 10476
0.09850000 0.09850240 17274.66837860 0 477.99697125 0 5186.37692885 0 -515.14459880 0 413.52082557 0 10575
0.09950000 0.09950330 17438.00897288 0 904.86515096 0 5895.49699641 0 224.32584280 0 241.47166214 0 10882
0.10050000 0.10051200 16541.88754170 0 -62.59899207 0 5557.86418898 0 -63.44524354 0 306.12136407 0 10875
0.10150000 0.10150300 16974.13047277 0 293.73186465 0 6202.88927553 0 1179.76506438 0 -332.91493351 0 11118
0.10250000 0.10250800 16392.38750886 0 75.01705138 0 5535.98292040 0 -847.51359906 0 379.27202672 0 11575
0.10350000 0.10349800 15728.26025060 0 240.77304332 0 5901.58244963 0 -6.18263372 0 768.02044420 0 11364
0.10450000 0.10450100 15823.16695770 0 25.00396288 0 5922.83759757 0 250.48889777 0 126.34125846 0 12093
0.10550000 0.10551000 15755.28229915 0 144.01873111 0 5822.42761960 0 500.11001431 0 238.69586065 0 12067
0.10650000 0.10649700 15735.72975995 0 332.83584459 0 5559.66565889 0 -169.36782926 0 -70.47789645 0 12054
0.10750000 0.10749900 15001.74062007 0 313.06910623 0 5336.18452972 0 230.93416166 0 595.58901765 0 12807
0.10850000 0.10850100 15187.70943387 0 15.71233262 0 5711.36260623 0 795.81910203 0 816.76668194 0 12736
0.10950000 0.10950300 15052.04996249 0 -195.87030753 0 4902.86511053 0 1008.96484686 0 1822.93375816 0 12933
0.11050000 0.11050200 15129.82073636 0 -121.93864177 0 4539.90187872 0 774.76167639 0 1207.49012558 0 13428
0.11150000 0.11150900 15098.73439596 0 258.08802508 0 4386.20573917 0 -722.25871483 0 1927.26522854 0 13453
0.11250000 0.11250000 14685.93415835 0 429.10793406 0 4504.94896877 0 -496.52355136 0 1409.93579825 0 13668
0.11350000 0.11349100 14452.40214527 0 315.20011331 0 4791.47055998 0 -440.14193722 0 1007.22269365 0 13791
0.11450000 0.11448600 14386.16517261 0 115.23475712 0 5916.75214436 0 25.65556772 0 1201.76716326 0 14205
0.11550000 0.11549300 14089.58171291 0 19.83780854 0 5468.02136984 0 -382.02695752 0 193.04068163 0 14776
0.11650000 0.11649800 14103.53212009 0 122.98656999 0 5977.80439877 0 90.07887761 0 0.05201898 0 14553
0.11750000 0.11747300 14024.55304323 0 191.76537275 0 6058.74971412 0 -104.11935828 0 -214.64074515 0 14568
0.11850000 0.11849100 13790.58164725 0 56.24079193 0 5657.84576862 0 276.25980351 0 511.91623292 0 16015
0.11950000 0.11950300 14109.57363501 0 -291.04613666 0 5717.60184346 0 382.99359991 0 -71.41773648 0 15270
0.12050000 0.12050700 13745.87443684 0 318.90960347 0 5249.80185094 0 -21.59863553 0 -242.75685713 0 15999
0.12150000 0.12150000 13667.77412579 0 332.55683644 0 5173.47005607 0 148.73330967 0 -311.53346298 0 15670
0.12250000 0.12250700 13897.90092137 0 -284.12915130 0 4714.29295303 0 584.84940103 0 -410.15075870 0 16887
0.12350000 0.12352200 13632.95303071 0 123.94991701 0 4812.20943302 0 -130.74717052 0 -1206.54545233 0 16407
0.12450000 0.12449800 13239.92502374 0 365.00306693 0 4445.93984486 0 -321.19549302 0 -813.08025939 0 16306
0.12550000 0.12549900 12910.49769203 0 158.15917140 0 4689.23714297 0 392.78195253 0 -707.20325965 0 17523
0.12650000 0.12650100 12756.27429299 0 27.42990573 0 4591.39755499 0 121.27627204 0 -1007.26663194 0 17154
0.12750000 0.12750600 12716.94952315 0 233.73742459 0 4238.34240765 0 231.15714849 0 -1388.63671202 0 18007
0.12850000 0.12850300 12408.83226224 0 149.78782863 0 4161.09889326 0 144.89090618 0 -200.83423588 0 17496
0.12950000 0.12949900 12287.01335231 0 59.01977894 0 4130.89131866 0 399.87469105 0 97.49390348 0 18405
0.13050000 0.13049000 12187.93250763 0 82.41351332 0 3826.25616726 0 195.19805168 0 -108.47056717 0 18100
0.13150000 0.13148800 12516.81061071 0 -13.02221080 0 3675.05352568 0 441.11517035 0 -98.83204411 0 19059
0.13250000 0.13249300 12092.69626335 0 -97.57903392 0 3738.80798494 0 -164.69938591 0 165.32001426 0 18957
0.13350000 0.13349100 12062.70838020 0 207.98299571 0 3534.23130518 0 257.37842170 0 184.23984208 0 19468
0.13450000 0.13450700 12060.51146569 0 274.89771651 0 3763.16078235 0 -13.79277856 0 -53.65128878 0 19953
0.13550000 0.13551000 11913.64773027 0 140.98589062 0 3499.12461121 0 -119.07935753 0 -118.75091881 0 19956
0.13650000 0.13649900 11567.74353969 0 45.17383505 0 3766.65387643 0 -309.58260289 0 -175.47305470 0 19723
0.13750000 0.13749600 11170.32170369 0 290.30248109 0 4031.65668996 0 -283.74029743 0 15.57140055 0 20946
0.13850000 0.13851100 11178.45028740 0 153.57311235 0 4067.76298003 0 8.44197357 0 -558.12942823 0 20955
0.13950000 0.13949800 10826.10913728 0 101.37640066 0 4303.21729331 0 205.28298777 0 -551.70784710 0 20506
0.14050000 0.14048300 11249.63031773 0 20.36572710 0 3976.32739787 0 490.00640445 0 -546.41218466 0 21447
0.14150000 0.14148400 10902.35305557 0 -113.33332761 0 3661.23493337 0 33.17802272 0 -53.85164739 0 21771
0.14250000 0.14249400 10914.19442481 0 58.35971598 0 3523.55430064 0 246.70910635 0 -220.31207998 0 22470
0.14350000 0.14350900 11058.71844627 0 -55.01051980 0 3114.03845023 0 257.20047162 0 -122.43184908 0 22519
0.14450000 0.14449900 11056.19199457 0 15.58677896 0 3223.75236117 0 445.03556430 0 -652.94825875 0 22218
0.14550000 0.14550500 10883.19596099 0 297.65994781 0 3000.73258405 0 -304.74939095 0 -655.55160245 0 23559
0.14650000 0.14650700 10427.88542749 0 392.82149700 0 3171.55367227 0 -326.01662193 0 -309.21461971 0 23044
0.14750000 0.14750500 10165.84844857 0 268.55302738 0 3352.73321242 0 -132.07740226 0 -518.53553636 0 23649
0.14850000 0.14849900 10062.12112968 0 -16.17192714 0 3416.30093395 0 125.34935155 0 -387.10402697 0 23640
0.14950000 0.14949500 9846.24132474 0 -117.82052551 0 3106.34924942 0 677.81842953 0 -704.74601076 0 24457
0.15050000 0.15050000 9811.27743021 0 1.66028519 0 2712.47543037 0 108.79614990 0 -354.46336954 0 24591
0.15150000 0.15149900 9794.70171019 0 261.71183558 0 2728.44699891 0 -47.58428966 0 -480.92545830 0 25020
0.15250000 0.15250500 9660.16266521 0 165.22335003 0 2870.06010863 0 -41.95919988 0 -142.05249262 0 25297
0.15350000 0.15350100 9763.47257034 0 -50.03989086 0 2842.93919892 0 260.39368687 0 -49.79713180 0 25452
0.15450000 0.15450400 9635.76592951 0 -117.02524245 0 2597.20332571 0 175.17866816 0 -130.98773266 0 26061
0.15550000 0.15549900 9652.36361868 0 61.29336578 0 2181.41528436 0 446.48552788 0 188.10091934 0 26128
0.15650000 0.15649500 9718.71043707 0 81.68776261 0 2344.94261637 0 43.58843169 0 611.85716964 0 26331
0.15750000 0.15749700 9355.45062180 0 260.47057888 0 2543.40088920 0 -201.90193633 0 370.26797257 0 27345
0.15850000 0.15849900 9287.77467013 0 256.21735237 0 2893.79776997 0 -199.79399685 0 922.52944213 0 26980
0.15950000 0.15949700 9020.86054098 0 -17.41263461 0 2747.40637118 0 160.74384133 0 538.94047839 0 27777
0.16050000 0.16050000 9143.20671039 0 -4.64307997 0 2684.43181657 0 202.84660957 0 347.51233201 0 28224
0.16150000 0.16150500 8945.98969426 0 118.56308261 0 2763.74043061 0 -255.69778209 0 419.88418846 0 28075
0.16250000 0.16249700 8897.73446691 0 171.62515893 0 3056.13876815 0 -251.70159459 0 470.11883579 0 28590
0.16350000 0.16349900 8767.46842067 0 76.41209209 0 2851.61701126 0 165.25630374 0 -7.29912765 0 29163
0.16450000 0.16449100 8695.60734684 0 130.81197950 0 3159.55851901 0 -237.91266062 0 -47.31901223 0 28996
0.16550000 0.16550500 8535.89166151 0 133.68664214 0 3009.22365866 0 169.49964413 0 24.94113112 0 30777
0.16650000 0.16650700 8546.09632944 0 -89.65333527 0 2925.00494068 0 402.87897165 0 259.03489524 0 29211
0.16750000 0.16749900 8497.21498145 0 93.64919323 0 2851.49618096 0 14.08123344 0 416.23071962 0 30922
0.16850000 0.16850800 8318.35318611 0 187.44074653 0 2729.76514762 0 36.81479501 0 368.73782161 0 30867
0.16950000 0.16949900 8279.57764490 0 81.01232124 0 2726.20614610 0 117.90290980 0 308.75436612 0 30852
0.17050000 0.17049200 8052.03222387 0 94.59924892 0 2879.45191818 0 24.57973868 0 503.04619056 0 31257
0.17150000 0.17149500 8088.07260651 0 -19.64426038 0 2674.17222578 0 -17.14417166 0 342.40011193 0 32608
0.17250000 0.17250900 7768.45449811 0 194.09080677 0 2518.70757004 0 270.71588972 0 365.46661590 0 32361
0.17350000 0.17350400 7935.79347682 0 78.88186339 0 2429.75450128 0 -3.53312186 0 515.69382743 0 32508
0.17450000 0.17449800 7611.33117191 0 23.49753859 0 2412.55266061 0 263.07721795 0 463.42154189 0 32791
0.17550000 0.17549800 7536.28457204 0 94.65812623 0 2455.18378680 0 170.52450475 0 712.53297426 0 33633
0.17650000 0.17650100 7482.02078348 0 81.29209831 0 2068.20827933 0 -18.84359488 0 622.49902356 0 33984
0.17750000 0.17750300 7590.35063828 0 6.46098279 0 2081.45567387 0 286.21402318 0 549.24071210 0 34069
0.17850000 0.17849800 7429.92095573 0 -36.09453658 0 2085.00369081 0 -14.89958410 0 763.49040647 0 34536
