### header ###
fiducial parameters:
Omega_m = 0.31
Omega_nu = 0
Omega_de = 0.69
Omega_k = 0
H_0 = 100
w_de = -1
zeff = 0
beta = 0
fgrowth = 0
b_1 = 2
gamma = 0.55
Lx = 3500 Ly = 3500 Lz = 3500
nx = 700 ny = 700 nz = 700
xoffset = -983.599254 yoffset = -42.9823471 zoffset = 800.977702
bins = 400 dk = 0.001
kx_ny = 0.628318531 ky_ny = 0.628318531 kz_ny = 0.628318531
############################
A(data) = 9.04655947 (not used)
A(ran) = 9.02806295 (used)
Ngal = 501425
weighted Ngal = 0
Nran = 25229228
weighted Nran = 0
SN(data) = 6764.77783
SN(ran) = 134.015375
SN(data+ran) = 6898.7932
############################
13 columns: k_central k_mean P_0(k) sigma^{lin}_{P_0(k)} P^img_1(k) sigma^{lin}_{P_1(k)} P_2(k) sigma^{lin}_{P_2(k)} P^img_3(k) sigma^{lin}_{P_3(k)} P_4(k) sigma^{lin}_{P_4(k)} N_modes
### header ###
0.00050000 0 0 0 0 0 0 0 0 0 0 0 0
0.00150000 0.00179520 46217.03990737 0 18215.27732874 0 58103.99512627 0 -27185.60883584 0 20565.86601542 0 3
0.00250000 0.00253879 61028.52773033 0 16728.07604695 0 26482.59619063 0 -29459.08582300 0 47708.30548102 0 6
0.00350000 0.00331552 48633.42618382 0 4461.80156767 0 -6252.77021962 0 57237.20250388 0 -20628.03869623 0 7
0.00450000 0.00420575 54328.92706724 0 -12787.03109622 0 16069.99030360 0 21712.98493009 0 2371.18476027 0 24
0.00550000 0.00557378 51993.60693645 0 -1289.64374391 0 23699.32518997 0 4641.09176134 0 7011.87009243 0 45
0.00650000 0.00659388 59270.44688869 0 962.44737889 0 454.42737386 0 7666.81424802 0 17176.57614545 0 40
0.00750000 0.00754703 57908.03035142 0 2996.23989387 0 10332.60524492 0 7986.35546441 0 4977.31854349 0 57
0.00850000 0.00846663 60706.24037079 0 -1631.43970435 0 12223.30283134 0 4233.46525742 0 16642.50622654 0 75
0.00950000 0.00948925 60739.63347144 0 -4490.75690100 0 8595.69167464 0 23139.88090841 0 61.74043788 0 112
0.01050000 0.01054430 67712.64014608 0 -2810.63357096 0 -9440.33939871 0 -17857.07041686 0 9843.16564442 0 105
0.01150000 0.01145670 63759.95154841 0 5938.42470606 0 7129.75652537 0 -1274.75964806 0 -10566.90617808 0 144
0.01250000 0.01249090 53409.07895928 0 6553.54978605 0 12447.60780345 0 -5280.69046904 0 15105.10544806 0 169
0.01350000 0.01339930 54563.11815468 0 3011.71715663 0 13732.58310402 0 3365.40940918 0 15945.20555908 0 180
0.01450000 0.01448870 60917.25401008 0 -1309.44892828 0 9013.50087735 0 19332.62805171 0 11199.32097531 0 267
0.01550000 0.01550050 68825.37734857 0 -11726.14107631 0 -1966.67787496 0 11052.12770272 0 15508.12941607 0 238
0.01650000 0.01653350 68844.27081341 0 -6480.24973321 0 -5224.85588661 0 1464.08974108 0 6743.35221568 0 315
0.01750000 0.01747870 76603.77288487 0 255.00904939 0 -8810.06659314 0 -6169.51814403 0 25915.57255399 0 297
0.01850000 0.01844180 66014.20553355 0 6433.04902483 0 16597.35963323 0 -15716.72644939 0 16182.25263538 0 388
0.01950000 0.01947590 67166.59704306 0 4031.54684423 0 8221.84273141 0 -218.21732199 0 11911.01143285 0 399
0.02050000 0.02045430 68531.86956919 0 -1632.26354730 0 24115.86018226 0 1016.46291610 0 12612.04685500 0 462
0.02150000 0.02154770 68371.60465523 0 1050.31407342 0 22640.63208458 0 11575.32289477 0 18830.52323902 0 571
0.02250000 0.02255340 80250.98051905 0 -3091.69582960 0 24572.81840164 0 -3302.86325290 0 6454.37008021 0 510
0.02350000 0.02348930 75520.69402835 0 -1370.92958101 0 17421.09273111 0 -8323.69168838 0 1399.55537716 0 555
0.02450000 0.02439640 73634.64291613 0 2645.37067647 0 23346.50071866 0 5557.53465180 0 6926.55291719 0 592
0.02550000 0.02547300 71760.12560512 0 -501.23703146 0 26656.70166605 0 1325.81594142 0 2935.38536177 0 837
0.02650000 0.02652900 66844.96875788 0 7168.12563740 0 26833.66313033 0 -5909.57921846 0 -1409.90284453 0 723
0.02750000 0.02749970 66198.19712429 0 7000.86355070 0 30819.63498293 0 -7149.06740397 0 -4363.85213396 0 826
0.02850000 0.02848090 56125.78345010 0 1149.66733551 0 30461.31822532 0 9668.26927978 0 -3374.46069699 0 831
0.02950000 0.02946900 57844.97890481 0 -162.59364335 0 28308.67153656 0 11624.31408848 0 -73.36134675 0 996
0.03050000 0.03053250 54627.37790428 0 -2311.38474714 0 15821.51927181 0 8093.31224764 0 9129.80553184 0 1041
0.03150000 0.03150510 55950.35982597 0 962.56051999 0 12613.14531225 0 6700.92979637 0 6603.45269928 0 1036
0.03250000 0.03246190 55721.77087056 0 949.56906600 0 8683.03001124 0 3623.84344830 0 7237.87767329 0 1059
0.03350000 0.03345080 53670.29209527 0 773.96419642 0 9157.88209936 0 -3379.61246153 0 10422.52495607 0 1302
0.03450000 0.03451200 51116.04943293 0 1028.87328620 0 12188.81127344 0 -606.88884746 0 11194.37791765 0 1339
0.03550000 0.03553350 51063.43333026 0 1729.05960088 0 15365.76935541 0 -1138.56193263 0 6994.14099228 0 1365
0.03650000 0.03647120 48694.28071592 0 2274.58642899 0 16821.00553099 0 -4861.09078100 0 2925.96059849 0 1308
0.03750000 0.03744890 47644.37526859 0 2788.43374977 0 19622.29123068 0 -2011.91234485 0 834.62649850 0 1579
0.03850000 0.03847530 42760.41460748 0 2035.66099077 0 23851.57136595 0 -829.17046130 0 4060.76580730 0 1662
0.03950000 0.03950240 43557.34534825 0 -986.58597714 0 25105.24063466 0 5602.51647653 0 6138.42081905 0 1683
0.04050000 0.04050350 46367.96793464 0 -1020.15702786 0 20635.39835986 0 4205.10309102 0 621.23140388 0 1822
0.04150000 0.04152450 44544.63873186 0 -98.44286071 0 16544.63368484 0 -1984.45091340 0 -2789.80682135 0 1887
0.04250000 0.04250150 44873.62668067 0 1531.41418643 0 19092.17575791 0 -1285.81012808 0 -2764.10292151 0 1920
0.04350000 0.04349210 42018.84611251 0 1333.57104967 0 18462.75974900 0 -1297.90414249 0 -4771.18205442 0 2005
0.04450000 0.04448520 42795.12585683 0 -1037.90699869 0 17209.85940037 0 3860.15455825 0 -4656.52508582 0 2151
0.04550000 0.04548030 42814.01932167 0 1000.12226593 0 17384.40425869 0 -1377.68509315 0 -11595.09512541 0 2274
0.04650000 0.04648670 41833.97575596 0 890.52588991 0 13147.76445979 0 -410.75710711 0 -7878.15742448 0 2311
0.04750000 0.04749250 41361.08990634 0 -1102.62041114 0 13775.42293709 0 3594.55857780 0 -4290.61798856 0 2568
0.04850000 0.04851840 39211.07951499 0 553.64991953 0 10886.40345618 0 2675.64415851 0 -7547.85132696 0 2493
0.04950000 0.04949480 39771.07302519 0 2020.75492578 0 11322.78757112 0 -505.81649977 0 -5002.55010671 0 2644
0.05050000 0.05050630 38103.17552444 0 2307.89165306 0 12387.85172861 0 -1201.94291642 0 -5430.98139110 0 2829
0.05150000 0.05149060 36518.87062103 0 -112.86977865 0 14275.00129808 0 239.23849854 0 -2506.96506195 0 2784
0.05250000 0.05249300 34272.19599097 0 515.98601706 0 12533.28746959 0 -402.22429113 0 -3572.16103431 0 3055
0.05350000 0.05348950 34505.50831260 0 1096.91282723 0 13383.16385021 0 1694.51312012 0 -2304.84892645 0 3009
0.05450000 0.05448610 34030.42554845 0 -344.87493614 0 13287.37837730 0 564.31484105 0 -3932.30123096 0 3336
0.05550000 0.05550870 34575.69973139 0 522.99197746 0 12816.14021356 0 1028.09777538 0 -3755.93293359 0 3349
0.05650000 0.05647670 33278.86109244 0 591.79165091 0 12703.43849887 0 -636.30992666 0 -2082.99351403 0 3324
0.05750000 0.05747970 33043.02231912 0 -193.44711082 0 13110.08737583 0 -255.48138601 0 -2137.48797860 0 3639
0.05850000 0.05849280 32974.69827766 0 76.92441256 0 13458.62786384 0 663.37920888 0 -3925.87525600 0 3846
0.05950000 0.05951020 32352.97146956 0 1232.98531854 0 12834.04506686 0 611.78137609 0 -3860.35228055 0 3787
0.06050000 0.06049470 33120.13401864 0 98.57006206 0 14021.80690008 0 696.26482227 0 -69.61527796 0 3930
0.06150000 0.06148310 31623.15646725 0 340.39982127 0 13143.48047648 0 -316.70829512 0 -1748.04094230 0 4083
0.06250000 0.06249100 31033.94399399 0 542.59284877 0 13517.72486433 0 549.53070481 0 186.73993080 0 4303
0.06350000 0.06350600 30018.96948747 0 745.25711444 0 13282.10578246 0 768.82121954 0 -812.24653033 0 4470
0.06450000 0.06451750 29054.74370628 0 606.42090467 0 13932.72201645 0 1675.09239579 0 2652.82920126 0 4479
0.06550000 0.06550280 29721.83679915 0 -155.13182319 0 13815.07724410 0 2600.90512667 0 3030.59963690 0 4636
0.06650000 0.06648880 29468.64240115 0 107.79007290 0 11077.61191111 0 1516.00283110 0 2714.94695920 0 4653
0.06750000 0.06749660 28690.60512521 0 1059.18741116 0 12323.26244183 0 475.90990246 0 4489.75730489 0 5220
0.06850000 0.06852730 28012.52745976 0 -217.04416963 0 11346.18471072 0 -255.69448672 0 6060.15573941 0 5029
0.06950000 0.06949320 27851.49362572 0 -321.03621672 0 12322.27383030 0 923.84100009 0 3578.74079328 0 5040
0.07050000 0.07048030 27266.67498149 0 1064.14035493 0 12281.41122030 0 -120.18111016 0 5880.68979258 0 5475
0.07150000 0.07148790 27265.68636996 0 -61.64333426 0 10625.02555161 0 334.48572739 0 6608.58249468 0 5509
0.07250000 0.07249820 27431.99279884 0 201.34282159 0 11765.57569188 0 2014.81227202 0 4832.86042947 0 5916
0.07350000 0.07351270 27967.71040363 0 -537.72888003 0 11730.75459679 0 461.32129161 0 5481.85094672 0 5721
0.07450000 0.07449140 26938.23626131 0 1141.95616556 0 11991.52834987 0 -1306.96641487 0 3885.60581292 0 6028
0.07550000 0.07549160 26370.22401313 0 985.72478665 0 12275.25985965 0 -1450.37000992 0 4558.14725378 0 6183
0.07650000 0.07648840 25524.52177009 0 -165.16732870 0 13393.37950271 0 1435.73855924 0 5058.70324174 0 6330
0.07750000 0.07749960 25729.16435728 0 468.86659452 0 13040.66487712 0 351.75127857 0 1079.21118851 0 6583
0.07850000 0.07848650 24155.84402645 0 900.60643217 0 11931.22304640 0 -516.74944486 0 3089.37808479 0 6549
0.07950000 0.07947320 23524.78033166 0 125.38560064 0 13212.90297519 0 379.75864328 0 2374.33733260 0 6828
0.08050000 0.08048110 22734.33048870 0 702.82261210 0 12053.04195633 0 230.40690218 0 1425.61078332 0 7147
0.08150000 0.08149960 23149.65717800 0 717.81655367 0 12318.53907562 0 699.35478254 0 -315.48461374 0 7386
0.08250000 0.08250610 22108.64923447 0 -61.21383747 0 11459.65534549 0 -236.86253549 0 -1020.09331734 0 7227
0.08350000 0.08350160 21962.88395632 0 -155.74256543 0 10677.37802453 0 1024.15651074 0 -1600.97948459 0 7798
0.08450000 0.08449610 21505.15681685 0 -471.84341369 0 9576.82271304 0 330.31049135 0 -1469.54907365 0 7371
0.08550000 0.08548940 22261.44463908 0 101.32697009 0 8570.87752518 0 764.87775798 0 -1826.70146656 0 8256
0.08650000 0.08650700 21709.14032969 0 629.39403977 0 8355.64581002 0 963.74026308 0 -2614.73470355 0 8037
0.08750000 0.08749060 21763.84350114 0 45.65364118 0 8372.88060440 0 -588.86975460 0 -947.30075176 0 8155
0.08850000 0.08849210 21358.40292716 0 329.91834211 0 8237.04537986 0 832.06379772 0 -1548.04482932 0 8718
0.08950000 0.08949900 20722.83555761 0 88.16844074 0 8225.85210040 0 396.90336417 0 -668.86819979 0 8571
0.09050000 0.09049190 20730.74444987 0 66.17062585 0 6837.24834210 0 353.61865591 0 -784.76752356 0 8932
0.09150000 0.09150830 20855.08981149 0 313.28110848 0 7239.79997349 0 835.77768171 0 -913.55175096 0 9285
0.09250000 0.09250820 20324.31526436 0 298.32231754 0 6830.36101510 0 409.44664760 0 182.94146560 0 9204
0.09350000 0.09350330 19652.60865101 0 71.00460670 0 6814.20270883 0 112.17006137 0 159.64648253 0 9349
0.09450000 0.09448040 19609.10974358 0 189.92985067 0 6295.66497555 0 316.66875066 0 -581.75065311 0 9564
0.09550000 0.09549270 18929.27454653 0 602.69383919 0 5772.16221547 0 -25.67050674 0 -401.73328073 0 10155
0.09650000 0.09649430 18739.79066950 0 265.89585928 0 6420.10919833 0 972.31042661 0 1481.22567430 0 9913
0.09750000 0.09749140 18267.78358568 0 -173.60238199 0 5615.51122589 0 969.46542231 0 1149.97490354 0 10476
0.09850000 0.09850240 18095.43564188 0 79.49732899 0 4960.21556398 0 259.51162569 0 501.94553639 0 10575
0.09950000 0.09950330 17740.74379322 0 573.46608847 0 4875.16201848 0 269.71080133 0 1866.67432618 0 10882
0.10050000 0.10051200 17674.28712911 0 297.82142103 0 5053.65033835 0 -120.12289192 0 1854.18486716 0 10875
0.10150000 0.10150300 16953.14993914 0 339.02125741 0 5758.15688543 0 -390.94752891 0 1740.39567979 0 11118
0.10250000 0.10250800 17032.45855318 0 325.79693048 0 5256.94182312 0 -81.03802514 0 1054.13890160 0 11575
0.10350000 0.10349800 16000.78749634 0 -117.52284359 0 6200.79122217 0 -211.74081799 0 1540.99273372 0 11364
0.10450000 0.10450100 16639.65023767 0 185.21307521 0 5611.58973348 0 833.05240925 0 609.17693393 0 12093
0.10550000 0.10551000 16091.30037441 0 282.16181435 0 5754.03767071 0 -305.09210962 0 1114.12125864 0 12067
0.10650000 0.10649700 15876.99136335 0 289.43579832 0 5648.61872765 0 73.40484566 0 1121.75553658 0 12054
0.10750000 0.10749900 15617.75545043 0 118.80144784 0 5761.32044233 0 241.80559315 0 1371.29207191 0 12807
0.10850000 0.10850100 15595.12723091 0 130.77353350 0 5689.06392389 0 717.63091440 0 1311.00873758 0 12736
0.10950000 0.10950300 15373.12901904 0 -43.20034674 0 5274.31941694 0 199.79070148 0 1828.51392104 0 12933
0.11050000 0.11050200 15328.20211718 0 -97.30793467 0 4270.85674249 0 700.08086278 0 1978.12379959 0 13428
0.11150000 0.11150900 15402.12829066 0 83.07148922 0 5046.70808848 0 -50.52233328 0 473.77340309 0 13453
0.11250000 0.11250000 15078.63262814 0 737.64919947 0 4944.34285660 0 -1047.30759591 0 1583.08561585 0 13668
0.11350000 0.11349100 14684.94554682 0 177.05703007 0 5547.17619986 0 -410.60771692 0 846.95228740 0 13791
0.11450000 0.11448600 14347.27978567 0 -25.99312364 0 5485.12434935 0 160.69550921 0 735.95537838 0 14205
0.11550000 0.11549300 14408.02447204 0 -44.54266151 0 5575.65919656 0 468.36899338 0 -153.42372216 0 14776
0.11650000 0.11649800 14516.77174060 0 147.83806700 0 4820.07438698 0 514.99520862 0 463.10848157 0 14553
0.11750000 0.11747300 14670.00652811 0 -104.96033716 0 4456.39715796 0 766.78028596 0 425.90043887 0 14568
0.11850000 0.11849100 14582.67917609 0 -35.14503013 0 4208.03597190 0 -78.78344162 0 415.29263713 0 16015
0.11950000 0.11950300 14061.02182420 0 470.86908210 0 4458.35241188 0 -650.05162696 0 -205.85418555 0 15270
0.12050000 0.12050700 13661.62276514 0 358.79129114 0 4301.86619089 0 -37.25044315 0 -7.06468392 0 15999
0.12150000 0.12150000 13436.98825585 0 3.41421387 0 4377.24232794 0 624.37958238 0 -19.67567625 0 15670
0.12250000 0.12250700 13530.57681425 0 -165.35736181 0 3994.77049523 0 294.00428205 0 -779.04016741 0 16887
0.12350000 0.12352200 13222.45955334 0 263.02229509 0 3868.97517003 0 104.79842456 0 -398.94210084 0 16407
0.12450000 0.12449800 13160.72625543 0 564.20499532 0 3919.07580557 0 -172.51271239 0 -258.17370475 0 16306
0.12550000 0.12549900 12708.93078516 0 -95.10871339 0 3893.59159718 0 -38.52366496 0 -124.01143061 0 17523
0.12650000 0.12650100 12543.39327636 0 56.77694891 0 3934.44322261 0 318.82062843 0 -578.28611892 0 17154
0.12750000 0.12750600 12696.40837242 0 26.63835743 0 3651.01928087 0 -36.07322651 0 -249.08726631 0 18007
0.12850000 0.12850300 12515.16292483 0 165.45402605 0 3796.74062073 0 553.71253159 0 212.19448084 0 17496
0.12950000 0.12949900 12481.65997845 0 120.95003024 0 3873.88527397 0 -1.34550030 0 817.56196500 0 18405
0.13050000 0.13049000 12584.80511499 0 30.17462088 0 3923.30486602 0 -24.28150754 0 573.67479535 0 18100
0.13150000 0.13148800 12156.07724714 0 94.23071651 0 4020.95771626 0 -308.25346961 0 142.29854705 0 19059
0.13250000 0.13249300 12345.23158699 0 146.36503582 0 4637.24716094 0 185.93366317 0 996.34467142 0 18957
0.13350000 0.13349100 12243.73413634 0 -31.32064134 0 4045.02491479 0 237.05586396 0 1134.58551735 0 19468
0.13450000 0.13450700 12448.15703208 0 -48.19733865 0 4313.37802295 0 242.69314661 0 737.55363369 0 19953
0.13550000 0.13551000 12424.65004676 0 108.32732835 0 3907.30034376 0 12.19661032 0 741.98810564 0 19956
0.13650000 0.13649900 12421.57436643 0 64.62158142 0 4175.67542107 0 117.51735130 0 432.33190611 0 19723
0.13750000 0.13749600 11875.64110914 0 277.78885601 0 4030.93170817 0 -419.65680781 0 842.27505639 0 20946
0.13850000 0.13851100 11676.16127106 0 346.44463156 0 4282.57728143 0 -3.19625798 0 433.62149493 0 20955
0.13950000 0.13949800 11438.56496613 0 -8.70625140 0 4093.35703415 0 460.58862062 0 669.80408538 0 20506
0.14050000 0.14048300 11432.85298839 0 17.77842088 0 3779.20924289 0 368.08094417 0 -307.97995375 0 21447
0.14150000 0.14148400 11186.57887111 0 110.72888545 0 3609.69531882 0 -20.85454058 0 566.92916932 0 21771
0.14250000 0.14249400 10948.74090558 0 217.84824035 0 3171.12527394 0 188.09103322 0 57.69306227 0 22470
0.14350000 0.14350900 10718.49327971 0 253.75351274 0 3155.42831972 0 146.62097636 0 665.32237976 0 22519
0.14450000 0.14449900 10372.45727425 0 158.92809148 0 3034.82869735 0 281.12926453 0 510.94299979 0 22218
0.14550000 0.14550500 10382.78277247 0 147.33497358 0 2994.70205371 0 385.49918091 0 563.77769545 0 23559
0.14650000 0.14650700 9902.09787631 0 199.40953681 0 3002.87457571 0 -81.62943453 0 818.96689183 0 23044
0.14750000 0.14750500 9664.27089536 0 192.08941764 0 3131.40505948 0 -236.36493435 0 809.29058184 0 23649
0.14850000 0.14849900 9677.41942874 0 -28.79671610 0 3065.61845429 0 193.01431866 0 464.34095062 0 23640
0.14950000 0.14949500 9621.81552233 0 89.18088880 0 3025.52476437 0 94.15744941 0 524.53201453 0 24457
0.15050000 0.15050000 9723.45577242 0 -62.65951707 0 2898.26849101 0 -275.88522958 0 29.93285044 0 24591
0.15150000 0.15149900 9522.50400162 0 258.70535806 0 3455.19730546 0 -386.04291726 0 -203.56939445 0 25020
0.15250000 0.15250500 9331.88871362 0 224.35000886 0 3492.02857733 0 -225.90542434 0 -61.27260493 0 25297
0.15350000 0.15350100 9339.80859045 0 20.16833433 0 3565.09795414 0 350.33097334 0 228.50217729 0 25452
0.15450000 0.15450400 9443.60181677 0 -182.81404456 0 3244.43631134 0 611.72096094 0 -452.95653959 0 26061
0.15550000 0.15549900 9361.47016758 0 -50.52848465 0 2997.77773403 0 532.90555421 0 858.27518481 0 26128
0.15650000 0.15649500 9281.35967974 0 74.13905449 0 2605.85916890 0 175.14351752 0 716.39075615 0 26331
0.15750000 0.15749700 9333.75609096 0 155.32625013 0 2530.82355360 0 257.93753644 0 1287.77636657 0 27345
0.15850000 0.15849900 9201.89728169 0 213.00514230 0 2564.00794736 0 1.63548203 0 1254.44917336 0 26980
0.15950000 0.15949700 8927.64545805 0 67.51700491 0 2561.99777058 0 74.98585519 0 1552.36176634 0 27777
0.16050000 0.16050000 8940.82694515 0 78.07987975 0 2659.71652827 0 -69.09263200 0 1131.35605302 0 28224
0.16150000 0.16150500 8684.69966627 0 193.51631362 0 2809.98548118 0 -57.19963527 0 983.72339752 0 28075
0.16250000 0.16249700 8589.60622143 0 23.01476663 0 2717.18781201 0 -218.05914414 0 1148.88743086 0 28590
0.16350000 0.16349900 8437.05247742 0 78.03198701 0 3052.41499805 0 -203.77700287 0 710.32397672 0 29163
0.16450000 0.16449100 8323.96630270 0 154.10037183 0 2862.32696953 0 45.46723298 0 920.96194362 0 28996
0.16550000 0.16550500 8454.27628723 0 -72.69974594 0 2974.75406990 0 297.40071190 0 905.10900847 0 30777
0.16650000 0.16650700 8517.32773385 0 -80.25790080 0 2643.10785452 0 433.98288737 0 1044.38460115 0 29211
0.16750000 0.16749900 8636.64216123 0 42.01763781 0 2515.82961202 0 148.79152790 0 626.04264667 0 30922
0.16850000 0.16850800 8524.78625863 0 43.91181751 0 2476.69157992 0 -12.78164866 0 1430.71860957 0 30867
0.16950000 0.16949900 8495.44646527 0 145.98167423 0 2508.08548835 0 -72.03463007 0 1083.34468318 0 30852
0.17050000 0.17049200 8162.28437887 0 53.79628514 0 2392.07741732 0 169.63255746 0 1292.20314932 0 31257
0.17150000 0.17149500 8278.74281738 0 102.78473271 0 2466.06949823 0 140.17522917 0 1046.77704105 0 32608
0.17250000 0.17250900 8025.05411361 0 119.23424000 0 2559.55919547 0 -34.12676025 0 1322.31186277 0 32361
0.17350000 0.17350400 7955.28010858 0 124.65952040 0 2490.87266312 0 66.31177760 0 1221.18788759 0 32508
0.17450000 0.17449800 7775.04524166 0 69.27255930 0 2269.83010906 0 -19.14292448 0 1259.32632359 0 32791
0.17550000 0.17549800 7914.86786605 0 -30.60675397 0 2260.00990118 0 356.05942794 0 1338.86561365 0 33633
0.17650000 0.17650100 7936.67224263 0 -97.14613191 0 1893.41077585 0 271.93957111 0 1049.39796007 0 33984
0.17750000 0.17750300 7920.66772037 0 96.68873431 0 2013.93350621 0 -92.48131348 0 1053.41721518 0 34069
0.17850000 0.17849800 7689.11293036 0 282.26397088 0 1851.31789371 0 -413.15284239 0 953.31919907 0 34536
