### header ###
fiducial parameters:
Omega_m = 0.31
Omega_nu = 0
Omega_de = 0.69
Omega_k = 0
H_0 = 100
w_de = -1
zeff = 0
beta = 0
fgrowth = 0
b_1 = 2
gamma = 0.55
Lx = 3500 Ly = 3500 Lz = 3500
nx = 700 ny = 700 nz = 700
xoffset = -983.599254 yoffset = -42.9823471 zoffset = 800.977702
bins = 400 dk = 0.001
kx_ny = 0.628318531 ky_ny = 0.628318531 kz_ny = 0.628318531
############################
A(data) = 9.10928572 (not used)
A(ran) = 9.11419325 (used)
Ngal = 505587
weighted Ngal = 0
Nran = 25229228
weighted Nran = 0
SN(data) = 6689.55462
SN(ran) = 135.29392
SN(data+ran) = 6824.84854
############################
13 columns: k_central k_mean P_0(k) sigma^{lin}_{P_0(k)} P^img_1(k) sigma^{lin}_{P_1(k)} P_2(k) sigma^{lin}_{P_2(k)} P^img_3(k) sigma^{lin}_{P_3(k)} P_4(k) sigma^{lin}_{P_4(k)} N_modes
### header ###
0.00050000 0 0 0 0 0 0 0 0 0 0 0 0
0.00150000 0.00179520 191410.57105894 0 -46493.85113642 0 524.36065520 0 -20761.83079027 0 -333770.63171315 0 3
0.00250000 0.00253879 210662.13296500 0 35543.11103863 0 42557.85908908 0 -100556.62201002 0 164994.87091532 0 6
0.00350000 0.00331552 155926.00779217 0 43235.82690880 0 56333.72140906 0 -98530.40775166 0 95507.12384010 0 7
0.00450000 0.00420575 71795.49592884 0 38759.61358190 0 58762.95963543 0 52953.54873433 0 25443.23593299 0 24
0.00550000 0.00557378 83122.89702044 0 18268.22296858 0 97798.17614339 0 35338.57829717 0 -47141.17199864 0 45
0.00650000 0.00659388 58391.79092790 0 13423.58707730 0 75257.28397785 0 34822.74276875 0 67858.62511568 0 40
0.00750000 0.00754703 59302.85137780 0 -1264.46710356 0 92519.75948088 0 14238.86205429 0 5581.31625144 0 57
0.00850000 0.00846663 44689.52524421 0 -4236.72767548 0 52283.92918977 0 35910.21545430 0 37291.63530213 0 75
0.00950000 0.00948925 60986.67650880 0 -7878.27825478 0 45677.91708508 0 37090.17824099 0 15205.83397863 0 112
0.01050000 0.01054430 67780.41495890 0 -14072.88516259 0 22943.03736775 0 29399.00021098 0 21563.37505153 0 105
0.01150000 0.01145670 83821.95521952 0 -4971.68345775 0 -161.55340433 0 13524.09591642 0 3690.04746725 0 144
0.01250000 0.01249090 90406.76709913 0 2487.75304450 0 -1320.44448543 0 3967.04543403 0 12090.16981166 0 169
0.01350000 0.01339930 92929.37419244 0 1588.44608727 0 -368.09192874 0 -24446.82535413 0 -5846.95617018 0 180
0.01450000 0.01448870 79966.80962637 0 6022.85213092 0 14822.58224126 0 -19124.47040130 0 6390.47282150 0 267
0.01550000 0.01550050 79793.91245394 0 1899.91364281 0 25731.14158034 0 -4897.60350026 0 -8782.14380964 0 238
0.01650000 0.01653350 81935.13518722 0 -5317.44484889 0 21955.74398414 0 13463.13153860 0 -21554.80708492 0 315
0.01750000 0.01747870 89278.10226640 0 -582.01647977 0 24450.66995454 0 -15925.43332843 0 -46567.11823554 0 297
0.01850000 0.01844180 80739.57430747 0 10326.35502312 0 29365.71695606 0 -9294.12375308 0 -13483.45299787 0 388
0.01950000 0.01947590 72625.92961599 0 5249.15376116 0 44510.80624831 0 -10330.57309900 0 -7081.18274542 0 399
0.02050000 0.02045430 69209.06846883 0 800.86431622 0 46703.21708982 0 12153.77048690 0 -15354.34539993 0 462
0.02150000 0.02154770 74909.07302702 0 -18.45463117 0 46704.09585563 0 12924.55794493 0 -13103.49663228 0 571
0.02250000 0.02255340 68459.92061879 0 1643.94014795 0 41228.28642383 0 5051.92576046 0 8913.28862169 0 510
0.02350000 0.02348930 67164.50997427 0 2349.40235284 0 37208.70177914 0 5876.30694812 0 3841.51373857 0 555
0.02450000 0.02439640 65491.66941586 0 1126.89631655 0 35207.20280909 0 5714.60305515 0 9479.25773937 0 592
0.02550000 0.02547300 65858.00491144 0 -330.47196457 0 29053.64524902 0 4343.59658212 0 2762.18062130 0 837
0.02650000 0.02652900 59801.66081872 0 3496.49929837 0 32347.03980036 0 897.80316925 0 2858.70206058 0 723
0.02750000 0.02749970 62145.65876185 0 3924.67793759 0 26688.33723508 0 -3164.58945325 0 -4356.55837777 0 826
0.02850000 0.02848090 55779.33003088 0 2552.70482218 0 33021.38271113 0 -479.99836037 0 741.27520688 0 831
0.02950000 0.02946900 53058.01201958 0 -775.17579478 0 26439.31697466 0 9264.44343797 0 -5096.86364689 0 996
0.03050000 0.03053250 54859.48192292 0 75.52102357 0 24627.63141882 0 7468.01545344 0 1621.53161989 0 1041
0.03150000 0.03150510 55403.21826570 0 422.94119501 0 19826.71412642 0 342.18810968 0 -4616.96963995 0 1036
0.03250000 0.03246190 53016.49033522 0 1492.30910804 0 23229.51502067 0 -2918.62290401 0 -2202.94504662 0 1059
0.03350000 0.03345080 50347.23919796 0 816.74800817 0 19970.39233579 0 4959.92996509 0 4525.62193437 0 1302
0.03450000 0.03451200 49890.61051575 0 245.40853295 0 18181.99407382 0 2800.07739671 0 8099.13407110 0 1339
0.03550000 0.03553350 51611.56350207 0 -791.89101888 0 14681.65017505 0 8978.17449193 0 4745.98344492 0 1365
0.03650000 0.03647120 50969.51523469 0 529.96498413 0 19891.30341320 0 -1249.37430083 0 -3776.46309975 0 1308
0.03750000 0.03744890 48751.18080189 0 3127.87901168 0 14038.17391323 0 -4351.07707605 0 4214.79148403 0 1579
0.03850000 0.03847530 46673.33905240 0 494.99889269 0 16901.74213946 0 -1500.82215179 0 7650.78775662 0 1662
0.03950000 0.03950240 45260.39348126 0 -593.51842572 0 15750.22939576 0 5094.41408720 0 1870.68369518 0 1683
0.04050000 0.04050350 47713.46823013 0 -514.46465376 0 15111.80603733 0 1614.85299976 0 -3642.70395943 0 1822
0.04150000 0.04152450 46241.86504141 0 -608.36517402 0 7550.28990208 0 295.34989220 0 -1520.30878355 0 1887
0.04250000 0.04250150 47252.22602744 0 1493.72611790 0 14179.32567090 0 -1096.32185722 0 -945.69590570 0 1920
0.04350000 0.04349210 45736.35501121 0 600.39147278 0 9945.87139805 0 -1497.75745604 0 -2407.84027898 0 2005
0.04450000 0.04448520 44675.02560840 0 664.29532223 0 13684.47067611 0 2277.78293961 0 -5886.17109429 0 2151
0.04550000 0.04548030 43010.75301660 0 3235.23123952 0 10316.15035520 0 -3985.96086802 0 -9038.94114745 0 2274
0.04650000 0.04648670 41416.34230642 0 1135.24459171 0 16446.98083459 0 -460.39199677 0 -1717.24020079 0 2311
0.04750000 0.04749250 38605.39018286 0 -455.56757250 0 15901.26726875 0 1418.94314777 0 -4219.76749541 0 2568
0.04850000 0.04851840 39106.61622974 0 1946.33444654 0 13618.67308635 0 2966.60351704 0 -5453.66453348 0 2493
0.04950000 0.04949480 38992.92590353 0 -232.55438612 0 15674.87522785 0 -1213.82822396 0 -797.36463139 0 2644
0.05050000 0.05050630 36147.48222206 0 1104.38892733 0 14298.61812913 0 -493.52366459 0 -1037.53352323 0 2829
0.05150000 0.05149060 36005.34185285 0 495.66016396 0 16442.36731411 0 -1612.10685661 0 -2061.50769006 0 2784
0.05250000 0.05249300 35010.24942271 0 663.40776876 0 15241.42399379 0 1247.58381550 0 -1821.62659403 0 3055
0.05350000 0.05348950 35795.97589945 0 -673.30816403 0 16598.56793622 0 2645.20590789 0 -4399.71676344 0 3009
0.05450000 0.05448610 36278.41832722 0 71.34161339 0 14264.45610841 0 851.91072346 0 -5397.10496925 0 3336
0.05550000 0.05550870 36434.50910361 0 1063.64385225 0 13830.01626281 0 21.86589018 0 -5442.32845457 0 3349
0.05650000 0.05647670 34561.63947849 0 782.97484131 0 13057.25158172 0 -1106.61879556 0 -3139.22607516 0 3324
0.05750000 0.05747970 34719.15824930 0 -486.41884305 0 14009.17464162 0 266.47584471 0 -7101.55912756 0 3639
0.05850000 0.05849280 33015.45104194 0 501.64675602 0 12327.32673369 0 994.00495746 0 -4999.95774758 0 3846
0.05950000 0.05951020 32295.41230923 0 -115.16335740 0 11407.91800863 0 4003.48126129 0 -2816.16979554 0 3787
0.06050000 0.06049470 34510.23167881 0 73.84796332 0 10449.42617433 0 1742.31797999 0 -3797.33378765 0 3930
0.06150000 0.06148310 33721.20983029 0 872.84512189 0 8621.53837393 0 780.80428977 0 -1735.70526730 0 4083
0.06250000 0.06249100 33230.41912735 0 -226.66116293 0 9741.83296235 0 -117.11861132 0 1527.83321577 0 4303
0.06350000 0.06350600 30883.67504108 0 617.16161974 0 9385.83394956 0 -1535.82998461 0 271.95494951 0 4470
0.06450000 0.06451750 30263.92545604 0 1993.56810864 0 13063.40294236 0 62.83834591 0 1296.16858003 0 4479
0.06550000 0.06550280 30199.88539789 0 708.23031718 0 13325.60468988 0 -2168.03607495 0 -923.69160991 0 4636
0.06650000 0.06648880 28574.05881012 0 982.26354783 0 15730.56701084 0 -52.64224595 0 766.80774739 0 4653
0.06750000 0.06749660 28167.95916179 0 110.55862457 0 14949.12451740 0 1283.67912100 0 2949.23690779 0 5220
0.06850000 0.06852730 28219.03742429 0 -195.43751537 0 14712.62666973 0 1240.46581247 0 2908.96746471 0 5029
0.06950000 0.06949320 28495.73880762 0 316.52265585 0 13963.47881968 0 3032.44504510 0 2435.03808069 0 5040
0.07050000 0.07048030 29143.27936129 0 -714.71451038 0 12431.79001894 0 1454.80777725 0 5100.81809302 0 5475
0.07150000 0.07148790 28983.78336741 0 -434.77267814 0 11886.95521890 0 636.95032724 0 3950.16214598 0 5509
0.07250000 0.07249820 29085.61035524 0 1117.62533729 0 11344.97640774 0 -913.50781267 0 4051.29710573 0 5916
0.07350000 0.07351270 28399.84348898 0 75.48334648 0 12203.20106352 0 -135.36618329 0 3451.92390283 0 5721
0.07450000 0.07449140 27636.30584885 0 419.84574246 0 12990.57522615 0 -333.06102832 0 2531.32884394 0 6028
0.07550000 0.07549160 27760.98074765 0 605.20271557 0 12461.22867345 0 383.51756402 0 390.59272722 0 6183
0.07650000 0.07648840 27264.91744988 0 380.88456197 0 13024.51755542 0 -519.54062475 0 2572.64182141 0 6330
0.07750000 0.07749960 26532.13661298 0 363.03463153 0 12598.31613927 0 313.01088799 0 170.08512185 0 6583
0.07850000 0.07848650 25724.66068252 0 246.84531505 0 12972.12114421 0 -329.32297827 0 317.96163485 0 6549
0.07950000 0.07947320 25448.50852783 0 732.86431965 0 12861.61634404 0 989.65836209 0 -326.24619949 0 6828
0.08050000 0.08048110 24566.55719527 0 -174.26694863 0 11683.52093469 0 1768.70292333 0 -117.80075328 0 7147
0.08150000 0.08149960 24322.58983824 0 305.67429196 0 10590.10559537 0 1114.83525585 0 426.60125460 0 7386
0.08250000 0.08250610 24499.00207390 0 726.21425941 0 11085.85034054 0 647.98872423 0 1615.50108954 0 7227
0.08350000 0.08350160 23436.90375101 0 481.10780220 0 9931.53653083 0 -476.19659980 0 -78.72302647 0 7798
0.08450000 0.08449610 22982.14244614 0 61.99846549 0 8913.22271425 0 613.31372396 0 -1471.75697274 0 7371
0.08550000 0.08548940 22244.63824303 0 315.84161235 0 8557.99262154 0 -77.58030139 0 -391.46160691 0 8256
0.08650000 0.08650700 21437.16231257 0 513.36399959 0 9144.27221393 0 -99.01383879 0 -879.63798157 0 8037
0.08750000 0.08749060 21422.99221394 0 249.78039284 0 7984.33430306 0 1128.45612585 0 -886.27925415 0 8155
0.08850000 0.08849210 20393.40822589 0 329.76016426 0 7410.45629312 0 1078.97392175 0 -2207.25099907 0 8718
0.08950000 0.08949900 20696.14304623 0 377.98024098 0 7277.83954834 0 -97.50192222 0 -1040.44333650 0 8571
0.09050000 0.09049190 20222.70796798 0 -316.20300478 0 6999.38063340 0 502.41128227 0 -2119.64903273 0 8932
0.09150000 0.09150830 19655.68433133 0 636.36484953 0 6630.96905360 0 -288.82615454 0 -1178.49085396 0 9285
0.09250000 0.09250820 19206.74484993 0 602.97614271 0 6937.22992174 0 -1169.70319590 0 -1679.25554880 0 9204
0.09350000 0.09350330 18837.44351975 0 105.53340231 0 7354.39103466 0 1033.14189111 0 -1374.91698086 0 9349
0.09450000 0.09448040 19092.83483226 0 -77.28163086 0 7188.46906582 0 610.92018560 0 -1850.60389650 0 9564
0.09550000 0.09549270 18705.62864877 0 213.40058691 0 6962.08800949 0 217.80869589 0 -506.59530596 0 10155
0.09650000 0.09649430 18490.99010053 0 234.43494495 0 6798.38492431 0 752.33776993 0 -296.12320611 0 9913
0.09750000 0.09749140 18072.25819373 0 302.09441976 0 7509.83372126 0 133.27032684 0 101.20646932 0 10476
0.09850000 0.09850240 17645.06816604 0 399.94828769 0 7405.41437430 0 -508.49783394 0 -23.54455256 0 10575
0.09950000 0.09950330 17578.39181047 0 240.34574345 0 7154.90021201 0 275.44035439 0 716.19852613 0 10882
0.10050000 0.10051200 17321.79219497 0 -43.26229973 0 7296.94172006 0 394.13635033 0 583.75643606 0 10875
0.10150000 0.10150300 17200.52251367 0 -130.12544371 0 6591.31474658 0 392.76547568 0 1188.61862988 0 11118
0.10250000 0.10250800 17327.61401844 0 -121.01593767 0 6260.26169812 0 951.93074910 0 412.91557562 0 11575
0.10350000 0.10349800 17289.93693449 0 335.55342784 0 6187.13739845 0 254.65314924 0 522.73384000 0 11364
0.10450000 0.10450100 16685.45590533 0 687.18936840 0 5674.10293604 0 -117.06039308 0 1655.56182574 0 12093
0.10550000 0.10551000 16216.30481039 0 -124.94292237 0 5914.89575159 0 704.64824806 0 2155.05231016 0 12067
0.10650000 0.10649700 16247.06161361 0 29.80751647 0 5314.16046169 0 739.31116530 0 1054.62332125 0 12054
0.10750000 0.10749900 15753.30507608 0 570.80892036 0 5085.21999995 0 310.88757011 0 1680.44188264 0 12807
0.10850000 0.10850100 15409.81749146 0 128.53158223 0 5073.07106268 0 217.17049222 0 2698.14056316 0 12736
0.10950000 0.10950300 15146.73697814 0 29.11175364 0 4835.94709436 0 180.92140270 0 2081.53256587 0 12933
0.11050000 0.11050200 15087.42028620 0 70.91431352 0 4637.46685239 0 -37.01515361 0 2113.87114755 0 13428
0.11150000 0.11150900 15152.66864733 0 145.40937800 0 4622.39601881 0 332.92262271 0 1186.09217819 0 13453
0.11250000 0.11250000 14818.95733231 0 173.19814972 0 4602.87643333 0 -277.30883019 0 1801.77747137 0 13668
0.11350000 0.11349100 14944.29130547 0 -47.46862211 0 4068.52091554 0 661.33497992 0 1653.04635862 0 13791
0.11450000 0.11448600 14868.05837175 0 -124.73751086 0 4422.69648928 0 -21.05698626 0 1413.46184605 0 14205
0.11550000 0.11549300 14576.96719835 0 388.97140431 0 4425.27786384 0 -119.89001898 0 829.52306608 0 14776
0.11650000 0.11649800 14331.57184688 0 605.20271557 0 4745.81867633 0 -636.64605458 0 1751.43517523 0 14553
0.11750000 0.11747300 13756.96885515 0 293.96363914 0 5238.18017315 0 -48.24764799 0 842.87591251 0 14568
0.11850000 0.11849100 13669.86119458 0 89.43001891 0 5096.54509428 0 281.73780985 0 988.12821113 0 16015
0.11950000 0.11950300 13569.79173836 0 -105.67334576 0 5237.55405251 0 273.73994256 0 837.36605091 0 15270
0.12050000 0.12050700 13285.95038286 0 107.08837840 0 4593.35280890 0 595.72302943 0 1572.37565758 0 15999
0.12150000 0.12150000 13292.98050931 0 50.57560846 0 4689.41289613 0 177.73148282 0 1359.83516271 0 15670
0.12250000 0.12250700 13218.83464439 0 118.23244698 0 4182.26616462 0 104.99735517 0 1208.92910458 0 16887
0.12350000 0.12352200 13239.81517802 0 63.80246184 0 4573.96503830 0 158.48541320 0 1065.67929355 0 16407
0.12450000 0.12449800 13136.45035003 0 116.54521663 0 3911.22183618 0 218.28322942 0 1616.19311761 0 16306
0.12550000 0.12549900 13202.57747697 0 0.77622812 0 4355.20727534 0 -278.51273934 0 689.18306833 0 17523
0.12650000 0.12650100 12897.53589638 0 91.64769426 0 4067.07095196 0 -225.84610764 0 722.41799113 0 17154
0.12750000 0.12750600 12808.67070420 0 -56.66084198 0 4083.78947143 0 451.89103605 0 817.71245364 0 18007
0.12850000 0.12850300 12966.29932074 0 26.47864174 0 4246.40508392 0 -289.16008555 0 520.73684471 0 17496
0.12950000 0.12949900 12759.02043613 0 551.30361483 0 4589.68396166 0 -110.01818360 0 234.27676710 0 18405
0.13050000 0.13049000 12655.76545387 0 151.64312294 0 4569.62613213 0 -177.22399557 0 430.99837900 0 18100
0.13150000 0.13148800 12449.69487224 0 -75.99160265 0 4961.42386696 0 -197.44549524 0 104.23348799 0 19059
0.13250000 0.13249300 12188.48173626 0 -115.08317002 0 4293.68268431 0 789.01086395 0 755.75946428 0 18957
0.13350000 0.13349100 12656.97375685 0 9.02462825 0 3967.61663181 0 371.82888034 0 152.25935746 0 19468
0.13450000 0.13450700 12672.13246701 0 88.48501613 0 4449.99315215 0 12.30019484 0 63.67712787 0 19953
0.13550000 0.13551000 12492.42485958 0 172.71592698 0 3963.33264850 0 145.75209667 0 227.85079214 0 19956
0.13650000 0.13649900 12183.64852432 0 -122.73831865 0 3527.30003989 0 385.43437193 0 785.75174126 0 19723
0.13750000 0.13749600 12259.33222941 0 42.06476163 0 3238.27396613 0 425.43579145 0 186.23464046 0 20946
0.13850000 0.13851100 12219.89761384 0 384.33921005 0 3666.07912988 0 -31.89908893 0 532.74847482 0 20955
0.13950000 0.13949800 11484.59032525 0 313.62272868 0 3205.04563407 0 -393.56734947 0 803.82685544 0 20506
0.14050000 0.14048300 11444.16709815 0 125.64923039 0 3489.39227991 0 242.97764704 0 687.00922141 0 21447
0.14150000 0.14148400 11275.55390902 0 119.14856033 0 3433.01945342 0 439.47846904 0 1029.90034374 0 21771
0.14250000 0.14249400 11034.55238659 0 9.79013213 0 3527.11330215 0 134.03155772 0 1166.45176241 0 22470
0.14350000 0.14350900 11070.03255603 0 74.66565490 0 3040.34295278 0 168.44622362 0 1041.85485408 0 22519
0.14450000 0.14449900 10962.43866759 0 159.70360230 0 3332.27993828 0 -178.70691287 0 903.01754585 0 22218
0.14550000 0.14550500 10726.24838795 0 302.77546326 0 3442.80670759 0 -222.21241103 0 1240.32301302 0 23559
0.14650000 0.14650700 10583.15236093 0 240.21942087 0 4198.81991550 0 -418.11347536 0 712.95258493 0 23044
0.14750000 0.14750500 10320.23661620 0 106.36119970 0 3746.38734002 0 115.42259331 0 493.50499082 0 23649
0.14850000 0.14849900 10067.28387879 0 -16.00726839 0 4111.11908801 0 138.17274159 0 710.76995036 0 23640
0.14950000 0.14949500 10167.72681048 0 69.55189698 0 3624.32676950 0 473.27140812 0 615.27996246 0 24457
0.15050000 0.15050000 10027.36594203 0 84.62778346 0 3795.47739489 0 198.88996653 0 904.42137423 0 24591
0.15150000 0.15149900 9921.03527944 0 149.36821796 0 3297.72247294 0 -13.03176737 0 851.68004744 0 25020
0.15250000 0.15250500 9739.26257237 0 162.94295276 0 3463.56754977 0 -66.40185110 0 1202.97546625 0 25297
0.15350000 0.15350100 9579.51393332 0 -37.66994398 0 3341.50697924 0 240.36881105 0 828.31036927 0 25452
0.15450000 0.15450400 9557.00654410 0 9.09468785 0 3101.79065180 0 141.51534702 0 418.86152476 0 26061
0.15550000 0.15549900 9782.88231009 0 49.50384372 0 2740.24442986 0 350.13215257 0 457.29215039 0 26128
0.15650000 0.15649500 9646.27816547 0 2.90850611 0 2828.86796145 0 -93.41071816 0 378.81397004 0 26331
0.15750000 0.15749700 9634.57959567 0 29.90011641 0 2578.32084544 0 120.47989053 0 577.98074780 0 27345
0.15850000 0.15849900 9414.54762229 0 16.15885550 0 2515.44515198 0 393.77605635 0 567.81672279 0 26980
0.15950000 0.15949700 9519.52718245 0 93.42291104 0 2314.48239661 0 -60.66021501 0 204.04502644 0 27777
0.16050000 0.16050000 9429.49762558 0 250.99858194 0 2463.65289226 0 -69.31638774 0 424.80637544 0 28224
0.16150000 0.16150500 9059.50426732 0 78.14161305 0 2616.07482140 0 98.09453991 0 882.81801533 0 28075
0.16250000 0.16249700 8980.71192819 0 -13.14490847 0 2487.61024506 0 67.45626022 0 611.70997637 0 28590
0.16350000 0.16349900 8909.56485158 0 147.87102072 0 2225.80394216 0 216.08741336 0 707.19886582 0 29163
0.16450000 0.16449100 8765.49119761 0 180.65118222 0 2476.64764163 0 -38.61758306 0 921.17943816 0 28996
0.16550000 0.16550500 8647.65968753 0 165.31232506 0 2431.49006374 0 139.74902775 0 968.83600630 0 30777
0.16650000 0.16650700 8572.81080996 0 -10.26596184 0 2437.71831640 0 48.45272996 0 692.58389200 0 29211
0.16750000 0.16749900 8452.37595617 0 66.55651388 0 2429.39201038 0 -5.80543449 0 797.13066000 0 30922
0.16850000 0.16850800 8376.52748250 0 147.71394133 0 2354.14768820 0 -213.29293810 0 868.40515765 0 30867
0.16950000 0.16949900 8261.87051390 0 -54.30267394 0 2300.09260653 0 195.43861382 0 609.07807278 0 30852
0.17050000 0.17049200 8347.79184063 0 -2.42839241 0 2276.27805317 0 344.01594256 0 781.70282781 0 31257
0.17150000 0.17149500 8401.83593773 0 120.97968858 0 2003.83868401 0 -20.75117575 0 735.81367739 0 32608
0.17250000 0.17250900 8177.57490391 0 83.93037295 0 2080.91742981 0 95.16649224 0 701.56597700 0 32361
0.17350000 0.17350400 8162.16354858 0 26.85178768 0 2073.64564276 0 -65.19794195 0 967.12570835 0 32508
0.17450000 0.17449800 7979.76472086 0 54.55993263 0 2019.43677707 0 260.95609699 0 583.79707898 0 32791
0.17550000 0.17549800 8081.42694010 0 153.32046718 0 2073.55776618 0 -175.55543900 0 796.71214778 0 33633
0.17650000 0.17650100 7966.62717205 0 138.86806503 0 1958.49436839 0 -148.98815175 0 464.97366200 0 33984
0.17750000 0.17750300 7819.19223887 0 8.19054768 0 2110.37805347 0 40.13213593 0 338.99379598 0 34069
0.17850000 0.17849800 7598.62202143 0 111.09467172 0 2009.44081602 0 27.18769590 0 557.36380352 0 34536
