### header ###
fiducial parameters:
Omega_m = 0.31
Omega_nu = 0
Omega_de = 0.69
Omega_k = 0
H_0 = 100
w_de = -1
zeff = 0
beta = 0
fgrowth = 0
b_1 = 2
gamma = 0.55
Lx = 3500 Ly = 3500 Lz = 3500
nx = 700 ny = 700 nz = 700
xoffset = -983.599254 yoffset = -42.9823471 zoffset = 800.977702
bins = 400 dk = 0.001
kx_ny = 0.628318531 ky_ny = 0.628318531 kz_ny = 0.628318531
############################
A(data) = 9.10186886 (not used)
A(ran) = 9.09355506 (used)
Ngal = 504631
weighted Ngal = 0
Nran = 25229228
weighted Nran = 0
SN(data) = 6751.05816
SN(ran) = 134.98756
SN(data+ran) = 6886.04572
############################
13 columns: k_central k_mean P_0(k) sigma^{lin}_{P_0(k)} P^img_1(k) sigma^{lin}_{P_1(k)} P_2(k) sigma^{lin}_{P_2(k)} P^img_3(k) sigma^{lin}_{P_3(k)} P_4(k) sigma^{lin}_{P_4(k)} N_modes
### header ###
0.00050000 0 0 0 0 0 0 0 0 0 0 0 0
0.00150000 0.00179520 47435.55854382 0 -45599.92661975 0 -34860.20016125 0 -15487.58826534 0 44856.60059317 0 3
0.00250000 0.00253879 50737.74075322 0 -16003.75333094 0 -17421.42226828 0 -23110.11271671 0 -23438.11205399 0 6
0.00350000 0.00331552 83966.40234897 0 -34089.63239467 0 -47324.17497785 0 -20474.91375445 0 22987.63473243 0 7
0.00450000 0.00420575 73651.33946645 0 -4030.04195779 0 -19676.22548206 0 -32306.83626471 0 -20206.01141766 0 24
0.00550000 0.00557378 76533.14208317 0 12418.38884039 0 10430.92815410 0 -23961.74662894 0 -15533.61362445 0 45
0.00650000 0.00659388 72230.48500306 0 15421.90052130 0 40200.89935030 0 -36791.94709540 0 18401.35598827 0 40
0.00750000 0.00754703 50654.69738451 0 3290.16508700 0 33436.48970898 0 6712.32079814 0 -3.04239707 0 57
0.00850000 0.00846663 45972.85285889 0 2773.51670021 0 24596.65492414 0 35241.36482982 0 -3530.95790256 0 75
0.00950000 0.00948925 63294.31551668 0 -6535.96348534 0 17875.41465307 0 9798.49138773 0 186.77068760 0 112
0.01050000 0.01054430 52040.73075282 0 -1403.72951474 0 22311.97367295 0 9692.61109262 0 26042.88375020 0 105
0.01150000 0.01145670 60678.01001926 0 4832.99224434 0 8133.21919982 0 6550.64985888 0 24203.95645436 0 144
0.01250000 0.01249090 52179.02652162 0 385.93746536 0 20876.18019084 0 63.12954693 0 13237.72810923 0 169
0.01350000 0.01339930 62529.34988212 0 -271.70450126 0 11201.73758128 0 8995.36534802 0 -6924.31206438 0 180
0.01450000 0.01448870 60149.43238665 0 1737.80332066 0 30964.30180382 0 -9598.08884555 0 15934.77021513 0 267
0.01550000 0.01550050 59116.99240972 0 -2711.05842051 0 26208.42125900 0 -3187.49228708 0 15012.83503837 0 238
0.01650000 0.01653350 59448.83634741 0 -876.21628721 0 30191.53712273 0 16267.82245579 0 12606.00534008 0 315
0.01750000 0.01747870 66151.07330791 0 -1118.05373562 0 28988.61657934 0 3644.18687672 0 14231.83192784 0 297
0.01850000 0.01844180 72072.19731216 0 -2341.66921375 0 18844.69333765 0 11082.66481449 0 16735.32586485 0 388
0.01950000 0.01947590 70837.20181684 0 -615.14595067 0 33062.46501258 0 12623.58065621 0 31003.62657366 0 399
0.02050000 0.02045430 70145.72297284 0 5848.49401034 0 27299.73854496 0 -8148.36692541 0 27349.16912158 0 462
0.02150000 0.02154770 67779.42634737 0 662.78054967 0 35005.41621077 0 3171.15822765 0 24103.66730669 0 571
0.02250000 0.02255340 67710.11369438 0 218.32057697 0 35847.05416196 0 4957.83191173 0 27289.85242964 0 510
0.02350000 0.02348930 65617.55261764 0 -1154.23691770 0 36339.49255078 0 -602.84432784 0 18793.39538369 0 555
0.02450000 0.02439640 65982.67981024 0 1929.23146703 0 37441.46487214 0 7488.99598707 0 15793.28892028 0 592
0.02550000 0.02547300 68720.58452614 0 1749.51287503 0 39324.44030403 0 -508.31658849 0 14266.10379429 0 837
0.02650000 0.02652900 68245.61160772 0 -1745.10806143 0 31841.96915307 0 2610.71434998 0 15556.57138115 0 723
0.02750000 0.02749970 68917.20837535 0 996.68299625 0 39649.58365244 0 6210.49059976 0 801.24548089 0 826
0.02850000 0.02848090 65092.49004825 0 99.84976476 0 30586.76204420 0 383.79657216 0 14908.92098175 0 831
0.02950000 0.02946900 65467.50335618 0 3257.52992186 0 34382.70079114 0 5993.30363068 0 12222.64375699 0 996
0.03050000 0.03053250 64710.22692242 0 795.99924902 0 30414.52394613 0 4158.35275011 0 16258.70526055 0 1041
0.03150000 0.03150510 60561.35385845 0 -1512.50973702 0 27835.01676685 0 588.19859721 0 4176.51024859 0 1036
0.03250000 0.03246190 64133.20732472 0 4676.82457595 0 33358.93862656 0 -59.33163096 0 9135.69326274 0 1059
0.03350000 0.03345080 56754.10100175 0 3003.75334151 0 26908.79760679 0 836.82451148 0 11533.58151896 0 1302
0.03450000 0.03451200 54801.04399679 0 -155.55582770 0 36241.18062617 0 -1171.95503328 0 10462.16827852 0 1339
0.03550000 0.03553350 53908.65732028 0 1469.30741305 0 26884.52170139 0 4630.49164880 0 1861.12711703 0 1365
0.03650000 0.03647120 54296.41273240 0 3815.08485694 0 37226.82632390 0 -5576.12054861 0 -2036.34203427 0 1308
0.03750000 0.03744890 47436.10777245 0 1372.92877322 0 27335.76794303 0 5939.55611704 0 3311.28842007 0 1579
0.03850000 0.03847530 49410.47484822 0 -572.44452322 0 33510.63557390 0 3763.98462530 0 360.17864266 0 1662
0.03950000 0.03950240 47476.20146237 0 -53.96226203 0 23710.41960828 0 1208.65449027 0 1384.78112704 0 1683
0.04050000 0.04050350 47352.18563793 0 1594.97092338 0 25621.95492889 0 5249.14277658 0 112.08218479 0 1822
0.04150000 0.04152450 45338.82332949 0 637.73792110 0 19336.58249784 0 4733.94435337 0 3960.71832023 0 1887
0.04250000 0.04250150 44935.35997858 0 -137.47631968 0 18109.71558623 0 1627.57313481 0 -451.11442677 0 1920
0.04350000 0.04349210 43937.52140529 0 1147.10793010 0 14483.26879423 0 -597.45969036 0 -3660.13647611 0 2005
0.04450000 0.04448520 41397.99807021 0 3841.53570772 0 19717.85701214 0 -5344.19228313 0 -6814.19172426 0 2151
0.04550000 0.04548030 36841.81705492 0 1411.51757670 0 17023.12166649 0 -1915.17121413 0 -3109.30409945 0 2274
0.04650000 0.04648670 37283.06733551 0 -252.85387625 0 19250.57329453 0 4230.44449996 0 -7600.50038335 0 2311
0.04750000 0.04749250 38190.06349356 0 -2413.54127215 0 14737.45180376 0 4474.81828618 0 -7312.73753543 0 2568
0.04850000 0.04851840 39206.24630306 0 313.02956177 0 11800.61647841 0 5279.64693464 0 -6118.54972725 0 2493
0.04950000 0.04949480 39523.92014211 0 542.79386645 0 9850.25069373 0 -1744.05354246 0 -4486.22027252 0 2644
0.05050000 0.05050630 37480.56995053 0 1121.03055479 0 10789.49755687 0 19.05361991 0 190.14954213 0 2829
0.05150000 0.05149060 35368.23664313 0 1308.20767158 0 12520.87490257 0 836.47959590 0 1467.31920542 0 2784
0.05250000 0.05249300 35512.79361831 0 11.77216644 0 12958.06089131 0 1618.13738696 0 3641.83617819 0 3055
0.05350000 0.05348950 35753.79514074 0 771.89030912 0 11973.29395939 0 327.34795212 0 259.58632079 0 3009
0.05450000 0.05448610 34126.97994144 0 167.23792064 0 14024.11366033 0 739.57589350 0 5737.02256778 0 3336
0.05550000 0.05550870 34983.99629424 0 -202.22268585 0 12938.17881494 0 819.39858553 0 2922.87393360 0 3349
0.05650000 0.05647670 33168.13660082 0 1138.79260865 0 12678.17398193 0 -2235.29461287 0 4342.69584717 0 3324
0.05750000 0.05747970 34287.57439258 0 443.00781221 0 13045.05870615 0 373.23710254 0 1606.82327720 0 3639
0.05850000 0.05849280 32988.20930194 0 -246.18184686 0 12721.23350645 0 1554.18520539 0 358.25194863 0 3846
0.05950000 0.05951020 33721.64921319 0 899.16745316 0 13996.32269170 0 -1588.78660902 0 -2801.88985119 0 3787
0.06050000 0.06049470 31550.76813394 0 879.01845168 0 12514.17431330 0 -728.35625107 0 -1249.57202314 0 3930
0.06150000 0.06148310 31146.64570867 0 135.60784389 0 14637.49219327 0 919.63061342 0 -3475.94716307 0 4083
0.06250000 0.06249100 30946.83633342 0 685.04517983 0 11633.43128372 0 1234.88564959 0 -145.22264027 0 4303
0.06350000 0.06350600 30448.13673823 0 -609.39223155 0 13412.05327609 0 1459.83871149 0 -3579.24608362 0 4470
0.06450000 0.06451750 30792.61293438 0 337.82064362 0 10404.36745760 0 825.80918209 0 -1687.04361076 0 4479
0.06550000 0.06550280 30202.85123248 0 527.23531784 0 10032.58361401 0 1361.86730863 0 405.42299866 0 4636
0.06650000 0.06648880 29785.98670302 0 -414.86863262 0 9606.00872238 0 1229.52517817 0 1770.69113097 0 4653
0.06750000 0.06749660 30191.97650563 0 320.72645177 0 9277.93249310 0 1679.55213226 0 1728.53234140 0 5220
0.06850000 0.06852730 30266.34206200 0 458.20057454 0 8411.10691699 0 375.94479968 0 1214.02594626 0 5029
0.06950000 0.06949320 29111.20440935 0 396.87150891 0 8961.42301874 0 -763.79138376 0 2859.71264125 0 5040
0.07050000 0.07048030 28805.06437151 0 709.39797725 0 10168.63853000 0 -206.01236339 0 2470.00197521 0 5475
0.07150000 0.07148790 27405.84951610 0 335.34911479 0 9779.90549092 0 -564.44006518 0 2429.02951949 0 5509
0.07250000 0.07249820 27941.45727516 0 226.14159265 0 11272.14869152 0 1219.10081880 0 1198.77935952 0 5916
0.07350000 0.07351270 27434.29955908 0 325.00054896 0 9792.83433285 0 399.96915837 0 2025.80782917 0 5721
0.07450000 0.07449140 26973.49673929 0 239.06494229 0 10379.66315386 0 -237.34585668 0 2586.61419774 0 6028
0.07550000 0.07549160 26375.27691651 0 440.40556696 0 10920.19200144 0 -1055.49220094 0 1498.35062296 0 6183
0.07650000 0.07648840 26520.49296604 0 729.69417201 0 11228.86947555 0 1591.20321499 0 1915.32499815 0 6330
0.07750000 0.07749960 25981.80952665 0 12.97047346 0 10503.51420972 0 -750.91307086 0 1526.96543453 0 6583
0.07850000 0.07848650 24843.91765295 0 921.69022078 0 11542.91840565 0 763.75074084 0 1615.57798155 0 6549
0.07950000 0.07947320 24595.55646689 0 264.86330945 0 10448.32771707 0 481.62517557 0 1480.42380051 0 6828
0.08050000 0.08048110 23356.60652544 0 281.36762976 0 9570.53953752 0 1338.77773707 0 1406.69534934 0 7147
0.08150000 0.08149960 23296.41106769 0 219.53437224 0 9482.79477174 0 19.91634824 0 -144.27137628 0 7386
0.08250000 0.08250610 22432.47443417 0 1201.04218147 0 9052.74875518 0 -599.20294203 0 -497.32322825 0 7227
0.08350000 0.08350160 21737.70021840 0 210.75879720 0 7693.16623764 0 720.27599947 0 -133.24616078 0 7798
0.08450000 0.08449610 21836.45152590 0 -508.30889929 0 8040.66319125 0 349.35444483 0 -1007.29189645 0 7371
0.08550000 0.08548940 21391.13695346 0 35.43359485 0 6708.16862970 0 978.04876733 0 -1904.09876497 0 8256
0.08650000 0.08650700 21419.47715072 0 574.95230114 0 6017.44772121 0 644.94599763 0 -1648.67449873 0 8037
0.08750000 0.08749060 21008.43444472 0 2.45443684 0 5691.44757614 0 254.96071727 0 328.48595384 0 8155
0.08850000 0.08849210 20572.56660469 0 133.17805643 0 6248.71691234 0 216.96837608 0 -1155.10469894 0 8718
0.08950000 0.08949900 20308.38763411 0 712.98114482 0 5968.05009831 0 418.83626024 0 565.28477881 0 8571
0.09050000 0.09049190 20142.74027959 0 104.00325135 0 7075.42682939 0 -549.28465039 0 307.59439525 0 8932
0.09150000 0.09150830 19319.88594752 0 763.79907296 0 7935.72756938 0 -945.64757358 0 894.62643086 0 9285
0.09250000 0.09250820 19170.93514332 0 478.18590590 0 8215.96598508 0 589.74632349 0 889.29781470 0 9204
0.09350000 0.09350330 18766.15364369 0 -475.63528814 0 7995.81318140 0 1231.63421611 0 1239.24652491 0 9349
0.09450000 0.09448040 18528.88687594 0 -45.01115353 0 7693.11131478 0 1338.42623075 0 2568.21503866 0 9564
0.09550000 0.09549270 19181.26064154 0 -81.54430409 0 5993.86384388 0 1139.27592985 0 2349.24856883 0 10155
0.09650000 0.09649430 18694.75392191 0 -10.48254466 0 6115.71570753 0 335.37218240 0 3068.27672086 0 9913
0.09750000 0.09749140 18643.12643078 0 541.70090148 0 5903.42785782 0 -372.14194065 0 1785.11387477 0 10476
0.09850000 0.09850240 18083.24276631 0 512.16558272 0 6277.15597075 0 -618.12167138 0 2075.18348292 0 10575
0.09950000 0.09950330 17730.41829500 0 261.30980022 0 5684.21972739 0 -327.75657822 0 1186.02627075 0 10882
0.10050000 0.10051200 17172.95123649 0 2.58421956 0 6802.85564535 0 314.19282800 0 1550.30765127 0 10875
0.10150000 0.10150300 17440.42557885 0 296.39122968 0 6516.57571474 0 -315.89214138 0 678.70378608 0 11118
0.10250000 0.10250800 16779.15430945 0 249.34869914 0 6102.10582210 0 44.92767078 0 11.95275281 0 11575
0.10350000 0.10349800 16589.56058670 0 246.99690215 0 6543.34511812 0 84.71346313 0 1620.59793122 0 11364
0.10450000 0.10450100 16433.25011887 0 -51.22875115 0 6609.92261253 0 261.29442182 0 1340.53526868 0 12093
0.10550000 0.10551000 16720.38684614 0 155.59537216 0 6347.84169531 0 758.73518500 0 390.52022904 0 12067
0.10650000 0.10649700 15984.64017464 0 548.47508739 0 6454.89733969 0 -446.47344485 0 721.18332517 0 12054
0.10750000 0.10749900 15416.29838929 0 298.66283929 0 6253.18763338 0 -246.64429737 0 1407.93660604 0 12807
0.10850000 0.10850100 15279.32076920 0 -15.99342783 0 6777.64605128 0 670.12813027 0 1458.98191483 0 12736
0.10950000 0.10950300 15211.43611064 0 6.46469558 0 6250.27672165 0 532.49802657 0 1175.76667996 0 12933
0.11050000 0.11050200 15090.93534943 0 195.54077035 0 5765.47261077 0 369.75169766 0 905.78785506 0 13428
0.11150000 0.11150900 15077.09478797 0 -164.16114186 0 4978.79047621 0 654.21477997 0 1419.83289815 0 13453
0.11250000 0.11250000 15639.50490414 0 -81.76784015 0 4826.02802532 0 600.02788343 0 951.45951094 0 13668
0.11350000 0.11349100 15070.06466152 0 185.85237733 0 4523.47994271 0 -336.81116140 0 139.29206953 0 13791
0.11450000 0.11448600 14937.04148756 0 256.14924802 0 4981.97600226 0 -559.33882967 0 563.30865420 0 14205
0.11550000 0.11549300 14512.81729447 0 141.54610383 0 4695.43244190 0 -611.68361339 0 -516.89993350 0 14776
0.11650000 0.11649800 14496.12074415 0 262.34015313 0 5198.32814382 0 392.79733094 0 -573.94611429 0 14553
0.11750000 0.11747300 14480.96203398 0 -38.71809190 0 4873.56925545 0 308.87409796 0 -939.55003734 0 14568
0.11850000 0.11849100 14095.07399920 0 -50.35174287 0 4229.62065702 0 459.39679450 0 -740.21519562 0 16015
0.11950000 0.11950300 14563.23648262 0 104.94386030 0 4472.73121739 0 406.77959338 0 -345.92725819 0 15270
0.12050000 0.12050700 14226.11995010 0 116.54192126 0 4030.60217099 0 -98.04796532 0 -1245.31000897 0 15999
0.12150000 0.12150000 13770.80941660 0 424.70092354 0 4494.05227277 0 -421.24298009 0 -552.51850856 0 15670
0.12250000 0.12250700 13519.70208739 0 315.87566452 0 4533.39901176 0 -312.57809583 0 -1217.74971637 0 16887
0.12350000 0.12352200 13124.69685737 0 140.22685666 0 4709.28398793 0 113.37616744 0 -403.49740309 0 16407
0.12450000 0.12449800 13068.01646285 0 84.26562211 0 4515.66991161 0 455.27208749 0 -1015.79285717 0 16306
0.12550000 0.12549900 12859.52927525 0 184.24643282 0 4286.25711325 0 469.40374012 0 -342.20019271 0 17523
0.12650000 0.12650100 12465.73234821 0 74.50286353 0 3866.73431722 0 317.71777734 0 -380.13321721 0 17154
0.12750000 0.12750600 12642.14458387 0 119.16943102 0 3656.39073686 0 477.14237150 0 -274.10243345 0 18007
0.12850000 0.12850300 12411.24886821 0 57.69701671 0 3761.88657193 0 -295.26201561 0 -340.83481034 0 17496
0.12950000 0.12949900 12199.90569174 0 131.16568274 0 3453.20909782 0 71.23758949 0 204.96773054 0 18405
0.13050000 0.13049000 12247.57873675 0 -43.01723391 0 3463.67739549 0 177.16138351 0 -751.23491884 0 18100
0.13150000 0.13148800 12008.99382028 0 91.53828792 0 3433.06339171 0 -35.42096259 0 -397.89197570 0 19059
0.13250000 0.13249300 11936.60548697 0 185.60302754 0 3534.24228976 0 -117.24603236 0 -296.39891888 0 18957
0.13350000 0.13349100 11894.31488253 0 179.59336788 0 3440.68668508 0 -151.59918465 0 -340.74913067 0 19468
0.13450000 0.13450700 11769.53013801 0 138.37815309 0 3964.01369200 0 305.54577247 0 -67.93068391 0 19953
0.13550000 0.13551000 11798.52940962 0 8.50361899 0 3656.23695285 0 37.84240177 0 -586.16645129 0 19956
0.13650000 0.13649900 11819.94932615 0 -44.76378095 0 3688.94900999 0 35.06638059 0 10.40846470 0 19723
0.13750000 0.13749600 11719.77002421 0 106.08427862 0 3851.65249907 0 225.56050876 0 -269.00888715 0 20946
0.13850000 0.13851100 11513.69944259 0 189.75190060 0 3644.81299736 0 -94.00761984 0 121.14555563 0 20955
0.13950000 0.13949800 11376.94151395 0 16.68633467 0 3592.70218503 0 270.78399407 0 28.69609741 0 20506
0.14050000 0.14048300 11360.90403798 0 -27.15276496 0 3651.57949407 0 357.46765014 0 -93.22145398 0 21447
0.14150000 0.14148400 11075.96422522 0 274.97021469 0 3345.51634824 0 66.21115892 0 683.52601345 0 21771
0.14250000 0.14249400 11053.99508006 0 101.74361492 0 3226.94887179 0 -93.18344736 0 248.84670417 0 22470
0.14350000 0.14350900 10622.13660902 0 207.08775305 0 3552.22403507 0 84.86087609 0 -86.88159807 0 22519
0.14450000 0.14449900 10418.92201627 0 422.35242192 0 3241.17389329 0 -104.89267219 0 135.38925089 0 22218
0.14550000 0.14550500 10261.93050493 0 137.15337325 0 3247.74266769 0 -88.69613961 0 287.91333656 0 23559
0.14650000 0.14650700 9870.56116843 0 -76.78842355 0 3437.17162186 0 447.18304824 0 305.03498984 0 23044
0.14750000 0.14750500 10376.44467409 0 -112.25574104 0 2954.08110430 0 521.22126436 0 84.59757589 0 23649
0.14850000 0.14849900 10106.04843543 0 51.76161276 0 2870.27980008 0 -244.36829393 0 425.76093480 0 23640
0.14950000 0.14949500 9900.71382017 0 217.60108746 0 2768.11229050 0 -133.69542980 0 242.21312079 0 24457
0.15050000 0.15050000 9923.10037909 0 107.81720479 0 3066.39835894 0 -15.29228256 0 424.15169491 0 24591
0.15150000 0.15149900 9887.82891653 0 60.65988547 0 3175.28842694 0 397.89746799 0 249.10154626 0 25020
0.15250000 0.15250500 9775.31393958 0 20.49424660 0 2941.65755271 0 -126.23470810 0 624.79809460 0 25297
0.15350000 0.15350100 9618.65196543 0 -44.25530509 0 2804.51516403 0 271.60454165 0 511.25825703 0 25452
0.15450000 0.15450400 9830.58830881 0 93.39830560 0 2832.97619159 0 94.46633559 0 561.00738625 0 26061
0.15550000 0.15549900 9717.12865862 0 220.69873693 0 3019.06583569 0 -11.77754888 0 486.99882848 0 26128
0.15650000 0.15649500 9572.20919255 0 108.86689055 0 2984.29966347 0 -159.00498349 0 472.04223445 0 26331
0.15750000 0.15749700 9334.88750193 0 9.31491755 0 3001.31476640 0 187.21995662 0 1084.81002516 0 27345
0.15850000 0.15849900 9373.71796601 0 114.68003621 0 3038.88200463 0 -113.26632172 0 -35.81014600 0 26980
0.15950000 0.15949700 9189.13320835 0 191.11508606 0 3026.43648389 0 -102.94027426 0 475.73964158 0 27777
0.16050000 0.16050000 8906.48917126 0 109.12228186 0 3186.49269098 0 214.91865484 0 691.29210626 0 28224
0.16150000 0.16150500 9074.13571800 0 -27.36300968 0 2848.50837722 0 518.41250915 0 709.40566645 0 28075
0.16250000 0.16249700 8978.42713709 0 85.56520689 0 2750.13054518 0 -93.16960679 0 400.44918420 0 28590
0.16350000 0.16349900 8677.88923127 0 131.85880927 0 2882.73630538 0 -22.63459057 0 664.23600554 0 29163
0.16450000 0.16449100 8571.47069210 0 161.77089886 0 2764.35556668 0 -131.82585555 0 572.25449011 0 28996
0.16550000 0.16550500 8193.04118210 0 324.53700000 0 2932.70512606 0 36.29621333 0 723.37364894 0 30777
0.16650000 0.16650700 8139.44745248 0 119.02992695 0 3068.86988778 0 -82.20766243 0 780.20453211 0 29211
0.16750000 0.16749900 7998.63621656 0 -16.30275340 0 2820.11325710 0 379.24456529 0 495.75023745 0 30922
0.16850000 0.16850800 8082.09699903 0 -32.55882236 0 2539.98468713 0 516.97462860 0 819.79403015 0 30867
0.16950000 0.16949900 8182.27630097 0 -51.02333964 0 2377.95125698 0 86.90521490 0 654.21697689 0 30852
0.17050000 0.17049200 8071.59574764 0 40.36863377 0 2441.21141048 0 -147.77435648 0 873.19552975 0 31257
0.17150000 0.17149500 7971.55924514 0 -16.18994184 0 2157.29316297 0 83.65894416 0 1038.03222282 0 32608
0.17250000 0.17250900 8164.88772258 0 -21.11718171 0 2237.71121884 0 159.47402474 0 515.28739825 0 32361
0.17350000 0.17350400 8040.48743809 0 144.82829411 0 2407.90618641 0 -495.99958725 0 509.39637197 0 32508
0.17450000 0.17449800 7804.80244879 0 326.40547580 0 2517.31252932 0 -245.51398485 0 371.34995297 0 32791
0.17550000 0.17549800 7832.52750998 0 -77.99123425 0 2710.45426902 0 182.46803052 0 268.93199514 0 33633
0.17650000 0.17650100 7845.86278110 0 39.81643931 0 2517.78486594 0 235.11379153 0 60.23258560 0 33984
0.17750000 0.17750300 7865.86568777 0 22.00879947 0 2520.39919422 0 25.40808530 0 316.49958824 0 34069
0.17850000 0.17849800 7759.00776569 0 -37.27208276 0 2416.85861306 0 149.35613493 0 191.25019630 0 34536
