### header ###
fiducial parameters:
Omega_m = 0.31
Omega_nu = 0
Omega_de = 0.69
Omega_k = 0
H_0 = 100
w_de = -1
zeff = 0
beta = 0
fgrowth = 0
b_1 = 2
gamma = 0.55
Lx = 3500 Ly = 3500 Lz = 3500
nx = 700 ny = 700 nz = 700
xoffset = -983.599254 yoffset = -42.9823471 zoffset = 800.977702
bins = 400 dk = 0.001
kx_ny = 0.628318531 ky_ny = 0.628318531 kz_ny = 0.628318531
############################
A(data) = 9.12334732 (not used)
A(ran) = 9.13365816 (used)
Ngal = 507325
weighted Ngal = 0
Nran = 25229228
weighted Nran = 0
SN(data) = 6723.45803
SN(ran) = 135.582863
SN(data+ran) = 6859.0409
############################
13 columns: k_central k_mean P_0(k) sigma^{lin}_{P_0(k)} P^img_1(k) sigma^{lin}_{P_1(k)} P_2(k) sigma^{lin}_{P_2(k)} P^img_3(k) sigma^{lin}_{P_3(k)} P_4(k) sigma^{lin}_{P_4(k)} N_modes
### header ###
0.00050000 0 0 0 0 0 0 0 0 0 0 0 0
0.00150000 0.00179520 30453.07979589 0 -15435.52139130 0 -12320.95568159 0 -4584.92764173 0 4833.80510271 0 3
0.00250000 0.00253879 41599.12559418 0 -12885.12332937 0 5901.12109758 0 -34856.57525230 0 9572.87925148 0 6
0.00350000 0.00331552 44850.77876971 0 -591.54779339 0 26995.90526736 0 -7062.93737036 0 13729.94680660 0 7
0.00450000 0.00420575 56806.49741296 0 8047.06719707 0 46047.87748962 0 -13308.57860238 0 14920.67447442 0 24
0.00550000 0.00557378 52009.64441242 0 6594.56618006 0 57156.02651250 0 24144.63976242 0 20297.84244444 0 45
0.00650000 0.00659388 62907.10933319 0 -7431.50273418 0 70411.32993786 0 54166.57508449 0 43778.79433149 0 40
0.00750000 0.00754703 64200.87229182 0 -4381.33957351 0 52070.93832742 0 38943.82486409 0 7154.80135086 0 57
0.00850000 0.00846663 65032.95366486 0 1092.51680128 0 50141.38830778 0 21112.01896416 0 36355.31033529 0 75
0.00950000 0.00948925 70876.85612386 0 -734.89207175 0 41286.39481279 0 24645.97565503 0 41555.40699530 0 112
0.01050000 0.01054430 77268.99860039 0 4753.79347603 0 37570.86313715 0 19535.18357011 0 43738.26125867 0 105
0.01150000 0.01145670 64899.71079945 0 4162.19735051 0 47532.66216544 0 5676.43166543 0 29301.56705218 0 144
0.01250000 0.01249090 60254.00551762 0 1115.34054619 0 32927.79415274 0 8165.60171979 0 18605.55919255 0 169
0.01350000 0.01339930 63014.31876159 0 6811.68724171 0 15627.31202857 0 17385.61256167 0 20828.39730011 0 180
0.01450000 0.01448870 66242.57479752 0 -3571.12848449 0 30093.11535240 0 2720.21955404 0 4119.31357916 0 267
0.01550000 0.01550050 61413.31730785 0 2977.57710505 0 24331.26765058 0 -10690.92200253 0 1307.30693662 0 238
0.01650000 0.01653350 56638.98268110 0 1995.54533171 0 30493.83256016 0 -2233.77874185 0 -12717.71844323 0 315
0.01750000 0.01747870 63368.13184443 0 -10342.44742196 0 10619.51129617 0 44.41095648 0 -3053.81003877 0 297
0.01850000 0.01844180 68889.19771526 0 -10795.30839577 0 2561.28377336 0 16684.13775662 0 -43971.24404312 0 388
0.01950000 0.01947590 82014.33395553 0 3809.50469407 0 17986.90806477 0 -28290.32730035 0 -51727.23105135 0 399
0.02050000 0.02045430 72354.06144460 0 14318.28051406 0 19933.37432619 0 -25214.64697757 0 -26155.47561916 0 462
0.02150000 0.02154770 71440.91392591 0 -5043.23696355 0 25128.52792853 0 12235.38586118 0 -34724.76038132 0 571
0.02250000 0.02255340 74955.31807759 0 -3593.44913597 0 39895.52823254 0 -8812.48319911 0 -48541.48531131 0 510
0.02350000 0.02348930 69054.07614971 0 11503.15425291 0 31358.09873086 0 1285.07416172 0 -28234.74536308 0 555
0.02450000 0.02439640 65190.91181858 0 1829.87600804 0 32995.56896556 0 -2414.35413052 0 -13337.13849109 0 592
0.02550000 0.02547300 62477.06331663 0 2791.63026040 0 45613.32779830 0 5234.44541847 0 -17478.65189143 0 837
0.02650000 0.02652900 60460.40563642 0 3993.23265507 0 43716.95118786 0 12985.85185994 0 2600.41082090 0 723
0.02750000 0.02749970 57920.00353554 0 -3242.82157917 0 35127.12527497 0 10284.41592501 0 11652.54444001 0 826
0.02850000 0.02848090 60278.06173157 0 -1851.94401435 0 29300.13905775 0 10587.52422082 0 5017.96146204 0 831
0.02950000 0.02946900 59626.67657750 0 2797.34223814 0 30734.72423687 0 2325.81847551 0 22110.95599471 0 996
0.03050000 0.03053250 59335.14602119 0 -968.88873225 0 24478.57076889 0 4112.82169676 0 12460.78929055 0 1041
0.03150000 0.03150510 57790.27573335 0 -297.92577447 0 23471.39530891 0 3317.89014819 0 8707.80022241 0 1036
0.03250000 0.03246190 57224.02101678 0 4415.27091822 0 21333.35810168 0 -5996.07174297 0 5179.57747843 0 1059
0.03350000 0.03345080 53186.97090169 0 1105.32261600 0 22328.23084037 0 4346.28780241 0 8633.47860432 0 1302
0.03450000 0.03451200 53650.41001889 0 -800.22281718 0 18861.06035080 0 7494.49925794 0 876.81604487 0 1339
0.03550000 0.03553350 52924.32977127 0 -206.22326718 0 12544.93111652 0 4509.58445840 0 3557.93601281 0 1365
0.03650000 0.03647120 50974.12875517 0 1803.87552474 0 14195.69268405 0 -3578.53208640 0 1760.01412642 0 1308
0.03750000 0.03744890 48645.72890511 0 3331.07163529 0 13693.14848845 0 -1816.03544658 0 981.81208189 0 1579
0.03850000 0.03847530 46214.95283858 0 1122.96383956 0 15567.44610801 0 -1841.26700980 0 -1110.11188964 0 1662
0.03950000 0.03950240 44038.24993586 0 1488.42056934 0 16211.80113563 0 -163.94145040 0 -4030.59118642 0 1683
0.04050000 0.04050350 42551.48803698 0 669.57340935 0 20147.46364580 0 2601.32254042 0 6614.52514844 0 1822
0.04150000 0.04152450 42916.06600095 0 -584.56599906 0 15970.14053884 0 6116.61644248 0 3422.60607861 0 1887
0.04250000 0.04250150 43748.80644834 0 -1101.02764812 0 12600.29336233 0 2517.88372710 0 3842.29364323 0 1920
0.04350000 0.04349210 44457.20153412 0 2365.22013736 0 14047.73049138 0 -409.73883723 0 1181.66539544 0 2005
0.04450000 0.04448520 40245.60656070 0 1840.60793545 0 17146.03903367 0 -4624.17551957 0 9095.74237226 0 2151
0.04550000 0.04548030 40606.88915290 0 145.71255221 0 17294.44060924 0 2600.14719116 0 7611.34215648 0 2274
0.04650000 0.04648670 39521.83307332 0 119.04420689 0 16741.25753405 0 812.00157436 0 2234.20714018 0 2311
0.04750000 0.04749250 39615.20194026 0 31.12907039 0 16833.41809801 0 1858.06242128 0 3349.83328526 0 2568
0.04850000 0.04851840 38580.67489455 0 992.69889178 0 16253.87204861 0 1155.13765265 0 4668.50925451 0 2493
0.04950000 0.04949480 37291.63530213 0 1672.78563555 0 16352.18397322 0 -843.21423735 0 1978.09084588 0 2644
0.05050000 0.05050630 36507.00728264 0 688.88648487 0 16687.21343695 0 318.66025367 0 2191.07072366 0 2829
0.05150000 0.05149060 36097.06303391 0 610.83889976 0 16526.61898581 0 -1509.56587156 0 -2738.48689825 0 2784
0.05250000 0.05249300 34481.89148155 0 530.57462791 0 16108.87569054 0 150.19865165 0 -1417.40530761 0 3055
0.05350000 0.05348950 33366.95736454 0 1178.63365341 0 15681.57581713 0 901.19959909 0 275.11191567 0 3009
0.05450000 0.05448610 32425.46964859 0 -219.00381738 0 16480.37393524 0 2170.41972720 0 -1845.43016281 0 3336
0.05550000 0.05550870 33428.25127954 0 -99.90468763 0 13679.63746418 0 2937.79098316 0 138.95044932 0 3349
0.05650000 0.05647670 32943.06270863 0 -460.97967141 0 12185.95528456 0 2957.34352236 0 1490.34286955 0 3324
0.05750000 0.05747970 33821.49897796 0 -747.19698996 0 10208.15003758 0 1813.77262463 0 4611.86181370 0 3639
0.05850000 0.05849280 33905.64080393 0 957.21103314 0 8982.52438267 0 1973.65307855 0 3716.12484256 0 3846
0.05950000 0.05951020 33087.39999234 0 834.94285419 0 10180.06248549 0 12.42684696 0 7719.49625812 0 3787
0.06050000 0.06049470 32856.83381386 0 -480.43005408 0 9407.93490960 0 -1362.46047555 0 5915.24725792 0 3930
0.06150000 0.06148310 31289.55499796 0 980.71142772 0 11554.01282396 0 725.08394689 0 4514.85705324 0 4083
0.06250000 0.06249100 31384.90108796 0 625.50220570 0 12502.86020354 0 -1781.68668812 0 4236.54093775 0 4303
0.06350000 0.06350600 31226.17401416 0 723.68231543 0 14869.26667474 0 -3101.06567001 0 2463.43320081 0 4470
0.06450000 0.06451750 30438.47031435 0 950.79274738 0 14319.81835422 0 -302.41297237 0 -563.49429348 0 4479
0.06550000 0.06550280 30033.46912328 0 -185.38333608 0 16505.19906927 0 347.67490369 0 1410.27632000 0 4636
0.06650000 0.06648880 30080.48309393 0 -392.99175787 0 14150.54609074 0 301.30792436 0 -1195.39611116 0 4653
0.06750000 0.06749660 30436.71278274 0 369.86264184 0 15103.34791644 0 1517.47476382 0 -236.78234811 0 5220
0.06850000 0.06852730 30877.96306333 0 -49.14300051 0 14675.60866013 0 1088.86882473 0 -556.52677909 0 5029
0.06950000 0.06949320 29863.97716835 0 437.35075733 0 14913.31481079 0 425.12053421 0 750.43743887 0 5040
0.07050000 0.07048030 28461.90632407 0 1005.09608039 0 14380.12365769 0 -2105.47893410 0 -278.32710007 0 5475
0.07150000 0.07148790 28959.72715345 0 200.42451132 0 15044.14107023 0 2017.99779806 0 144.94253367 0 5509
0.07250000 0.07249820 28449.60360278 0 46.02909387 0 13773.99494265 0 3095.61732201 0 1137.96876571 0 5916
0.07350000 0.07351270 28130.83130647 0 19.41830772 0 12073.25356988 0 869.90674872 0 762.47543196 0 5721
0.07450000 0.07449140 27245.25506496 0 517.93468024 0 12078.85570190 0 670.16328090 0 2125.36101047 0 6028
0.07550000 0.07549160 26087.37126916 0 1392.44835870 0 11121.55020143 0 162.83420549 0 2158.96281800 0 6183
0.07650000 0.07648840 25801.77238204 0 192.74190126 0 11314.54914169 0 -1015.18541031 0 1706.85977970 0 6330
0.07750000 0.07749960 24792.40000754 0 505.23321896 0 11760.85232567 0 168.26387972 0 155.99301368 0 6583
0.07850000 0.07848650 23747.65730933 0 369.77037143 0 10276.64983219 0 900.51745713 0 1103.85068327 0 6549
0.07950000 0.07947320 23682.29910247 0 -192.86822384 0 10989.51563900 0 798.48066397 0 -499.14776575 0 6828
0.08050000 0.08048110 23454.58891286 0 334.90533806 0 9446.98506512 0 2150.33992852 0 703.60471367 0 7147
0.08150000 0.08149960 23668.45854102 0 520.23265282 0 9286.66522830 0 205.49169465 0 1353.47509518 0 7386
0.08250000 0.08250610 22348.33260819 0 90.04262852 0 8009.40109769 0 260.69356570 0 335.06351591 0 7227
0.08350000 0.08350160 22687.20667233 0 516.51217809 0 8609.59814353 0 483.00373943 0 1808.41215321 0 7798
0.08450000 0.08449610 21783.39604034 0 13.23036845 0 7436.10527009 0 650.78539641 0 435.17471350 0 7371
0.08550000 0.08548940 21942.12311414 0 199.80278451 0 7882.70503753 0 361.62970469 0 2086.35479324 0 8256
0.08650000 0.08650700 20902.43331931 0 269.07699150 0 7564.47098528 0 296.15945519 0 1468.82409186 0 8037
0.08750000 0.08749060 20905.39915391 0 662.47078472 0 7535.79026627 0 254.42467013 0 1862.88464864 0 8155
0.08850000 0.08849210 20281.80496847 0 -154.90334408 0 6487.31281338 0 953.66081928 0 1513.84985487 0 8718
0.08950000 0.08949900 20587.83516058 0 122.69877419 0 7175.68302334 0 1021.88490113 0 2824.58397814 0 8571
0.09050000 0.09049190 20470.41007969 0 116.31563906 0 5973.19087828 0 -180.96314408 0 2193.41043762 0 8932
0.09150000 0.09150830 19962.92282643 0 337.26921808 0 6605.89127440 0 -69.94075085 0 2111.37764958 0 9285
0.09250000 0.09250820 19475.86687817 0 785.02456256 0 7266.33870085 0 -1820.91259681 0 933.94790533 0 9204
0.09350000 0.09350330 18904.88879539 0 547.76438554 0 7691.71627406 0 340.64038341 0 2682.66330039 0 9349
0.09450000 0.09448040 18706.83695175 0 -241.61665850 0 8041.44309591 0 224.38406103 0 1840.01476853 0 9564
0.09550000 0.09549270 18684.64811514 0 -292.95635383 0 7031.88398367 0 1029.73667361 0 744.15426335 0 10155
0.09650000 0.09649430 18563.04889666 0 386.19230744 0 7110.52253878 0 1013.96722121 0 884.34596938 0 9913
0.09750000 0.09749140 18827.11802152 0 387.23803875 0 7035.82744523 0 -443.73608937 0 967.60024189 0 10476
0.09850000 0.09850240 18049.41028276 0 218.17008832 0 6483.97350332 0 -180.78848937 0 850.27621906 0 10575
0.09950000 0.09950330 17286.86125416 0 397.51520486 0 6628.59638592 0 86.53086066 0 877.77389960 0 10882
0.10050000 0.10051200 17109.13086980 0 50.78036089 0 6647.01751414 0 452.67972836 0 1665.14037303 0 10875
0.10150000 0.10150300 16965.01327753 0 41.64965463 0 5693.23806147 0 1098.61104215 0 949.89860317 0 11118
0.10250000 0.10250800 17087.27157036 0 106.04737046 0 5998.89477812 0 112.60614890 0 150.27774057 0 11575
0.10350000 0.10349800 16387.33460548 0 463.17219209 0 5472.57996746 0 -206.21777490 0 2199.36407595 0 11364
0.10450000 0.10450100 16388.65275419 0 329.44161166 0 5989.15146224 0 129.12584761 0 1148.51395539 0 12093
0.10550000 0.10551000 15828.98878117 0 67.03577078 0 6104.58833550 0 64.53161777 0 1908.63539344 0 12067
0.10650000 0.10649700 15715.62799213 0 430.40521208 0 6340.08658707 0 -172.03927731 0 702.93245783 0 12054
0.10750000 0.10749900 15455.29362195 0 47.80826509 0 6712.83707305 0 -144.93374601 0 982.83035177 0 12807
0.10850000 0.10850100 15433.76385969 0 98.39958149 0 6277.71618396 0 8.79707184 0 1092.28173143 0 12736
0.10950000 0.10950300 15237.03016476 0 40.38379248 0 6124.47041187 0 212.57674397 0 319.24023910 0 12933
0.11050000 0.11050200 15296.56654815 0 142.22604887 0 6070.09677760 0 486.09919198 0 908.65043467 0 13428
0.11150000 0.11150900 14927.70460087 0 170.01372213 0 5721.27069070 0 459.42535439 0 96.89875934 0 13453
0.11250000 0.11250000 14343.32533954 0 449.71499222 0 5979.81457555 0 3.55293803 0 854.57008848 0 13668
0.11350000 0.11349100 14175.26137905 0 263.40785359 0 5507.65370771 0 1.70121371 0 693.58678347 0 13791
0.11450000 0.11448600 13766.41558757 0 72.22411395 0 5621.90424713 0 791.37584242 0 1718.90985582 0 14205
0.11550000 0.11549300 13492.68003884 0 -117.11311903 0 4937.60931360 0 689.02049665 0 879.00087636 0 14776
0.11650000 0.11649800 13468.40413344 0 -33.88839502 0 4292.70505735 0 292.80696364 0 2206.28435668 0 14553
0.11750000 0.11747300 13750.48795733 0 208.35647118 0 4059.52455060 0 1037.55329546 0 1523.32954101 0 14568
0.11850000 0.11849100 13889.11326330 0 116.70778830 0 4578.97400340 0 -942.35330027 0 1535.35764798 0 16015
0.11950000 0.11950300 13491.25204441 0 197.22250841 0 4948.51699418 0 -447.06551332 0 1365.68993989 0 15270
0.12050000 0.12050700 13435.56026142 0 3.41993683 0 4685.82094089 0 -541.30216149 0 995.17371598 0 15999
0.12150000 0.12150000 13582.09445965 0 -250.90850845 0 4712.39262197 0 470.82184844 0 840.61748439 0 15670
0.12250000 0.12250700 13639.98315716 0 125.08901718 0 5311.42530312 0 152.46147360 0 69.46138410 0 16887
0.12350000 0.12352200 13592.85934078 0 337.73606242 0 5015.98423897 0 -374.72551213 0 542.15895815 0 16407
0.12450000 0.12449800 13425.67414610 0 235.44991945 0 5399.11514604 0 -227.29826814 0 47.24332852 0 16306
0.12550000 0.12549900 12945.31878711 0 16.47696872 0 5236.65331756 0 182.04951831 0 -160.85917934 0 17523
0.12650000 0.12650100 12900.83126816 0 54.62023793 0 5318.67512102 0 491.37727911 0 130.59009113 0 17154
0.12750000 0.12750600 12970.91284123 0 2.85476958 0 4881.00581109 0 183.54451863 0 -230.17512770 0 18007
0.12850000 0.12850300 12711.89661976 0 172.11067703 0 4526.01737898 0 202.85979106 0 -520.45124582 0 17496
0.12950000 0.12949900 12730.57039315 0 311.99261811 0 4248.60199844 0 -175.01389957 0 -842.96488755 0 18405
0.13050000 0.13049000 12207.15550965 0 257.35315718 0 4602.72264932 0 -44.84199111 0 -159.48500931 0 18100
0.13150000 0.13148800 11940.01070447 0 -91.82377696 0 4187.52777489 0 200.66177809 0 -887.98625673 0 19059
0.13250000 0.13249300 11732.40228268 0 -34.92533868 0 4066.88421423 0 631.21198653 0 -839.16642235 0 18957
0.13350000 0.13349100 11774.03381276 0 245.33823169 0 3504.02373059 0 131.11625216 0 -283.46568312 0 19468
0.13450000 0.13450700 11811.49120527 0 35.29365140 0 3207.48420918 0 359.00219493 0 -547.41617459 0 19953
0.13550000 0.13551000 11914.08711318 0 104.46284587 0 3724.19850341 0 187.16832913 0 -327.48855465 0 19956
0.13650000 0.13649900 11507.98746484 0 110.78930060 0 3513.99772249 0 -279.89459857 0 -586.20599575 0 19723
0.13750000 0.13749600 11362.88126104 0 241.88468207 0 3930.87323652 0 -304.18368547 0 58.86764261 0 20946
0.13850000 0.13851100 11016.09830465 0 312.01568572 0 4042.93784600 0 -270.11613206 0 -200.31466559 0 20955
0.13950000 0.13949800 11129.45909369 0 -119.47919597 0 4308.38004243 0 80.44804375 0 64.25645423 0 20506
0.14050000 0.14048300 11076.40360812 0 -32.03046442 0 4275.88767673 0 379.91572267 0 -291.61513752 0 21447
0.14150000 0.14148400 11119.35328692 0 84.82704361 0 4239.49578777 0 41.40821372 0 1.88564468 0 21771
0.14250000 0.14249400 11349.58992822 0 64.81414098 0 4031.60176709 0 337.23296899 0 191.93343671 0 22470
0.14350000 0.14350900 11129.34924797 0 -40.78560815 0 3815.68900844 0 232.55548458 0 546.00575547 0 22519
0.14450000 0.14449900 11048.61263949 0 22.86120230 0 3833.75863033 0 295.81014579 0 603.22549251 0 22218
0.14550000 0.14550500 10789.14605055 0 322.87283726 0 3696.12193589 0 -21.93937697 0 486.26615749 0 23559
0.14650000 0.14650700 10680.79422661 0 194.88499137 0 3608.17944780 0 58.03402340 0 890.92023607 0 23044
0.14750000 0.14750500 10432.12547251 0 -54.40340247 0 3353.94151541 0 441.51500879 0 654.12250956 0 23649
0.14850000 0.14849900 10462.44289283 0 -11.23732760 0 3231.30974711 0 392.15143807 0 689.31598165 0 23640
0.14950000 0.14949500 10265.17095385 0 77.65697370 0 2816.56524015 0 281.90038153 0 890.35892441 0 24457
0.15050000 0.15050000 10294.06037973 0 144.51852917 0 2969.85495053 0 -365.78516850 0 586.27410010 0 24591
0.15150000 0.15149900 9997.92728751 0 327.95100516 0 2896.44505197 0 -358.29478846 0 535.62643284 0 25020
0.15250000 0.15250500 10035.26384972 0 22.13698943 0 3177.84783236 0 -37.32887300 0 547.96760013 0 25297
0.15350000 0.15350100 9780.94902532 0 -126.62685735 0 3065.54156228 0 431.43556499 0 384.39632983 0 25452
0.15450000 0.15450400 9765.01041050 0 160.03973022 0 2950.14862732 0 201.10555482 0 372.72741837 0 26061
0.15550000 0.15549900 9636.54583416 0 239.96018495 0 3056.76488879 0 -33.90586050 0 670.31267109 0 26128
0.15650000 0.15649500 9811.10167705 0 45.63529694 0 2853.69309548 0 102.25274986 0 405.83931396 0 26331
0.15750000 0.15749700 9392.31484739 0 -48.98207652 0 2874.37704565 0 301.28485676 0 796.39579209 0 27345
0.15850000 0.15849900 9396.42307753 0 12.84535918 0 2548.79431434 0 426.63310986 0 1119.20711574 0 26980
0.15950000 0.15949700 9431.34303377 0 105.89138953 0 2346.79900914 0 102.34996333 0 995.85915331 0 27777
0.16050000 0.16050000 9224.45959377 0 285.70873284 0 2242.20390902 0 -147.56455114 0 803.84003693 0 28224
0.16150000 0.16150500 8927.71136549 0 310.20323124 0 2822.02457273 0 -246.49490718 0 773.94991648 0 28075
0.16250000 0.16249700 8698.22167512 0 -31.44916084 0 2702.19387044 0 -160.21987721 0 1033.34510570 0 28590
0.16350000 0.16349900 8599.85482765 0 13.78618782 0 2693.16455178 0 487.48654350 0 364.57027477 0 29163
0.16450000 0.16449100 8685.09511088 0 125.08572181 0 2642.56961047 0 -5.52464684 0 582.32734317 0 28996
0.16550000 0.16550500 8594.23072649 0 107.67528412 0 2477.06505538 0 -185.44814506 0 304.56375168 0 30777
0.16650000 0.16650700 8278.39131106 0 137.26541589 0 2639.10947010 0 89.51767579 0 574.20754712 0 29211
0.16750000 0.16749900 8285.80589755 0 91.92648272 0 2927.66320724 0 -122.06166898 0 728.59022246 0 30922
0.16850000 0.16850800 8203.78409409 0 46.10950094 0 2797.99032792 0 -91.10307916 0 413.16931925 0 30867
0.16950000 0.16949900 8141.29286067 0 77.61863755 0 2757.02885676 0 136.55471404 0 187.77467753 0 30852
0.17050000 0.17049200 8123.72852911 0 36.75262233 0 2603.75013096 0 84.48344618 0 516.15517948 0 31257
0.17150000 0.17149500 7940.49487388 0 37.32283149 0 2793.83815948 0 111.85041031 0 523.41598196 0 32608
0.17250000 0.17250900 8067.81705467 0 72.54420440 0 2492.30065755 0 230.20368759 0 211.68479667 0 32361
0.17350000 0.17350400 7965.35296164 0 118.79375864 0 2545.49894256 0 -120.10311969 0 284.52020209 0 32508
0.17450000 0.17449800 7703.31598271 0 76.87212599 0 2511.66645901 0 101.35695797 0 454.25491607 0 32791
0.17550000 0.17549800 7672.54819491 0 166.00984542 0 2586.01004624 0 116.15087048 0 486.69455582 0 33633
0.17650000 0.17650100 7425.15365123 0 -27.34345714 0 2144.90256510 0 163.53721813 0 528.40956865 0 33984
0.17750000 0.17750300 7541.12876854 0 -64.30434697 0 2086.61842298 0 510.61895490 0 574.47557069 0 34069
0.17850000 0.17849800 7673.99815849 0 77.54185538 0 1973.88375458 0 107.57785096 0 620.83486081 0 34536
