### header ###
fiducial parameters:
Omega_m = 0.31
Omega_nu = 0
Omega_de = 0.69
Omega_k = 0
H_0 = 100
w_de = -1
zeff = 0
beta = 0
fgrowth = 0
b_1 = 2
gamma = 0.55
Lx = 3500 Ly = 3500 Lz = 3500
nx = 700 ny = 700 nz = 700
xoffset = -983.599254 yoffset = -42.9823471 zoffset = 800.977702
bins = 400 dk = 0.001
kx_ny = 0.628318531 ky_ny = 0.628318531 kz_ny = 0.628318531
############################
A(data) = 9.04327618 (not used)
A(ran) = 9.03648749 (used)
Ngal = 502222
weighted Ngal = 0
Nran = 25229228
weighted Nran = 0
SN(data) = 6747.06238
SN(ran) = 134.140431
SN(data+ran) = 6881.20281
############################
13 columns: k_central k_mean P_0(k) sigma^{lin}_{P_0(k)} P^img_1(k) sigma^{lin}_{P_1(k)} P_2(k) sigma^{lin}_{P_2(k)} P^img_3(k) sigma^{lin}_{P_3(k)} P_4(k) sigma^{lin}_{P_4(k)} N_modes
### header ###
0.00050000 0 0 0 0 0 0 0 0 0 0 0 0
0.00150000 0.00179520 112351.30681924 0 -5053.24390917 0 -6249.67257016 0 85556.96845874 0 -181998.98927124 0 3
0.00250000 0.00253879 128872.10398158 0 35546.95563903 0 -7177.01215662 0 -8636.12588631 0 66607.26260722 0 6
0.00350000 0.00331552 118507.06129382 0 1631.92302555 0 -13707.64812426 0 -38525.42249446 0 1605.92254225 0 7
0.00450000 0.00420575 91277.73385911 0 -10163.67350319 0 -23777.09596385 0 2715.66095642 0 -33001.72032621 0 24
0.00550000 0.00557378 98823.25645668 0 20019.38352950 0 1775.56828119 0 -37468.26722924 0 -28183.44740913 0 45
0.00650000 0.00659388 75502.23994641 0 23552.24176311 0 35962.17248261 0 -60812.13165048 0 30136.06503119 0 40
0.00750000 0.00754703 59686.54249807 0 11499.63918968 0 36200.09832472 0 26987.66683792 0 -23437.89236254 0 57
0.00850000 0.00846663 59296.48032570 0 -3759.00861392 0 60351.43867642 0 12195.40201698 0 -9884.01726985 0 75
0.00950000 0.00948925 50659.96997935 0 -904.46750943 0 25909.64088479 0 14941.98454522 0 -2964.39561795 0 112
0.01050000 0.01054430 57527.08537430 0 -3037.19038045 0 42873.33601361 0 27507.78634965 0 25645.57175994 0 105
0.01150000 0.01145670 67256.34100105 0 -6809.53426548 0 10410.38700337 0 28501.34093963 0 32620.00642901 0 144
0.01250000 0.01249090 78432.92391111 0 -5409.92396546 0 17082.32851270 0 34773.53188358 0 32861.55718007 0 169
0.01350000 0.01339930 83681.35269048 0 3550.77407149 0 -464.25966478 0 -11130.44770522 0 48766.55920350 0 180
0.01450000 0.01448870 77839.97668317 0 -1828.27226044 0 14232.16146502 0 1926.59516961 0 27721.76582354 0 267
0.01550000 0.01550050 72352.63345016 0 6805.11846730 0 24356.20263034 0 -9218.36315599 0 41159.63284520 0 238
0.01650000 0.01653350 74117.41488108 0 383.14518701 0 27366.52474626 0 -4573.34990223 0 14139.45167243 0 315
0.01750000 0.01747870 64298.19560489 0 5746.66702251 0 33495.36701802 0 -8560.23347435 0 25360.85163863 0 297
0.01850000 0.01844180 62086.12237846 0 2649.17133859 0 31368.20453764 0 3293.54833535 0 9040.23732701 0 388
0.01950000 0.01947590 60616.05702990 0 3814.72236605 0 42177.24364913 0 162.78477491 0 10166.72721437 0 399
0.02050000 0.02045430 64685.07225121 0 -1295.01519990 0 29286.73787920 0 16460.82139605 0 -4256.17036895 0 462
0.02150000 0.02154770 67364.09965807 0 -2709.35581176 0 29468.64240115 0 8013.28963638 0 -1135.13474598 0 571
0.02250000 0.02255340 64544.57956789 0 -1052.79548837 0 16831.11133776 0 836.83549605 0 1391.95405294 0 510
0.02350000 0.02348930 69331.76614457 0 2403.62220310 0 21151.56342546 0 -6824.14374701 0 -8070.51925953 0 555
0.02450000 0.02439640 64885.76039227 0 102.94697485 0 14406.59647761 0 -380.09367275 0 3209.04401849 0 592
0.02550000 0.02547300 64375.63684159 0 -969.57307112 0 18216.04624882 0 5111.17654496 0 -11550.71745219 0 837
0.02650000 0.02652900 62847.68279553 0 2326.79610247 0 11585.75823872 0 254.64216467 0 -6875.84813015 0 723
0.02750000 0.02749970 63839.69954535 0 1301.25443713 0 16800.35453454 0 2086.23396294 0 2277.93672363 0 826
0.02850000 0.02848090 58701.22633752 0 180.28649441 0 12031.40234835 0 296.77459126 0 -8711.96337542 0 831
0.02950000 0.02946900 61645.20163505 0 2400.15107817 0 15075.55694781 0 2197.65048263 0 -9976.33161782 0 996
0.03050000 0.03053250 57922.63983296 0 1948.84991366 0 17031.25025020 0 242.72610033 0 -4286.27908239 0 1041
0.03150000 0.03150510 54190.74114417 0 1887.87455127 0 15534.16285308 0 6.03739571 0 2811.11689215 0 1036
0.03250000 0.03246190 54938.35115406 0 795.35006078 0 16408.64467628 0 3701.60323761 0 4247.30581887 0 1059
0.03350000 0.03345080 51008.29077590 0 -596.71603479 0 14979.88132063 0 3310.69525315 0 483.65292767 0 1302
0.03450000 0.03451200 53322.85006452 0 1203.44780287 0 14307.29594147 0 20.38626825 0 4817.53695072 0 1339
0.03550000 0.03553350 50276.05916763 0 1382.58421252 0 9983.72423517 0 -1838.59775867 0 5452.18161618 0 1365
0.03650000 0.03647120 50002.54331036 0 -35.52158128 0 15657.95898608 0 3375.63604625 0 5322.30002998 0 1308
0.03750000 0.03744890 50142.92614794 0 896.25214760 0 11255.23244975 0 5409.63836657 0 3283.11299140 0 1579
0.03850000 0.03847530 51658.13808982 0 -427.29657804 0 12462.43697644 0 1959.14245817 0 7571.59997288 0 1662
0.03950000 0.03950240 47231.90456816 0 1857.76583782 0 9455.28940200 0 -1956.23154644 0 8913.81588117 0 1683
0.04050000 0.04050350 45851.69302332 0 1253.52646927 0 15206.93243589 0 -6085.33237977 0 8745.23564577 0 1822
0.04150000 0.04152450 43258.56497404 0 3437.44623617 0 16683.36883654 0 3352.48056725 0 2021.45793843 0 1887
0.04250000 0.04250150 44692.05169590 0 -253.84029087 0 21181.22177143 0 -2470.37545068 0 7456.80020484 0 1920
0.04350000 0.04349210 40939.39216494 0 1491.12277420 0 19892.84125336 0 -3428.37297922 0 541.94036516 0 2005
0.04450000 0.04448520 43257.02713388 0 467.16728114 0 25876.46747560 0 1375.52113235 0 4641.54212882 0 2151
0.04550000 0.04548030 41097.78970156 0 102.99783342 0 21768.89640453 0 833.78178487 0 1256.64608788 0 2274
0.04650000 0.04648670 40725.08315388 0 567.60472054 0 21937.50959365 0 2430.09502303 0 1140.05583450 0 2311
0.04750000 0.04749250 41963.37402097 0 235.17200977 0 24284.14383420 0 -1423.83128257 0 -3801.51890981 0 2568
0.04850000 0.04851840 41029.57550583 0 525.11749225 0 21823.27003881 0 2153.71219231 0 2270.62099829 0 2493
0.04950000 0.04949480 39009.18307095 0 405.27251002 0 22362.50270682 0 1322.50958508 0 2395.82315657 0 2644
0.05050000 0.05050630 38730.06508165 0 1031.74355502 0 19619.21555036 0 1824.68030520 0 -1092.83535389 0 2829
0.05150000 0.05149060 39912.22478286 0 -527.62636863 0 21182.97930304 0 2386.43134701 0 -1192.85867490 0 2784
0.05250000 0.05249300 38897.14043062 0 797.81060504 0 18096.97348204 0 16.39458442 0 -2376.51227797 0 3055
0.05350000 0.05348950 36855.65761637 0 1116.68066405 0 17590.69453176 0 -948.33659695 0 150.72261576 0 3009
0.05450000 0.05448610 35666.24809727 0 667.57092177 0 18069.73174204 0 1813.16847314 0 -3172.56425294 0 3336
0.05550000 0.05550870 36024.78454632 0 873.60854968 0 19111.50860565 0 447.50379776 0 -2599.45516308 0 3349
0.05650000 0.05647670 33489.10581164 0 390.88162148 0 17872.88820138 0 287.83644455 0 -2496.71645573 0 3324
0.05750000 0.05747970 34084.57949128 0 269.82394243 0 17206.89356577 0 1969.67666328 0 -2507.28361455 0 3639
0.05850000 0.05849280 33947.49202546 0 -0.04969102 0 14941.54516232 0 579.66907660 0 -3129.70245073 0 3846
0.05950000 0.05951020 32878.36357612 0 653.96543017 0 16185.98739006 0 925.56008570 0 -496.22367253 0 3787
0.06050000 0.06049470 32108.23519244 0 391.95481422 0 13330.43790181 0 1843.52983175 0 -1600.17761079 0 3930
0.06150000 0.06148310 32957.34265298 0 13.72753020 0 13402.49669795 0 1531.80963104 0 -1563.65390695 0 4083
0.06250000 0.06249100 31700.48785822 0 119.62199541 0 12118.72970037 0 485.70155046 0 -384.50947092 0 4303
0.06350000 0.06350600 31236.49951239 0 371.00833276 0 13455.00295489 0 250.73605066 0 1715.81220635 0 4470
0.06450000 0.06451750 31000.77058479 0 -117.58545565 0 10881.07593848 0 3512.50382062 0 2578.77121291 0 4479
0.06550000 0.06550280 31972.13633816 0 148.59819942 0 12152.01295529 0 1486.59713030 0 3821.10440272 0 4636
0.06650000 0.06648880 30573.36086565 0 974.26458207 0 10444.21948692 0 -380.41991455 0 3580.34454088 0 4653
0.06750000 0.06749660 30817.65775986 0 726.07365688 0 12111.80941964 0 -1028.45257707 0 6191.05889086 0 5220
0.06850000 0.06852730 29543.66703188 0 -353.20783290 0 10444.59296239 0 1788.55204598 0 5668.40194287 0 5029
0.06950000 0.06949320 29144.04828137 0 -54.84003923 0 12651.70116201 0 1053.73027550 0 6231.00978134 0 5040
0.07050000 0.07048030 29385.48918671 0 669.30428733 0 10106.94917038 0 -609.04402060 0 4986.65543018 0 5475
0.07150000 0.07148790 29096.26539064 0 328.50902145 0 10385.73762250 0 2100.19535469 0 7528.38666435 0 5509
0.07250000 0.07249820 29376.92122009 0 -503.14505172 0 9465.16453275 0 1959.73562509 0 5078.54137982 0 5916
0.07350000 0.07351270 28998.94207757 0 -150.81928000 0 9243.44093519 0 94.45754793 0 5396.74247836 0 5721
0.07450000 0.07449140 28345.57970043 0 1476.37049322 0 9263.91617848 0 -1864.60922654 0 3856.48571100 0 6028
0.07550000 0.07549160 27206.36967802 0 752.37072364 0 10401.30276185 0 -2244.10424008 0 2272.56526764 0 6183
0.07650000 0.07648840 26650.55030540 0 576.81528465 0 10170.71461422 0 -7.06830883 0 455.06887290 0 6330
0.07750000 0.07749960 25601.08424098 0 422.51169823 0 12489.34917926 0 240.59838862 0 410.79775003 0 6583
0.07850000 0.07848650 25537.37372001 0 -151.74857484 0 9716.59041456 0 896.21699697 0 285.44620156 0 6549
0.07950000 0.07947320 25393.91520210 0 2.95082967 0 10222.69361167 0 1573.17753138 0 -711.53227970 0 6828
0.08050000 0.08048110 24933.22222804 0 403.27661318 0 8219.37120258 0 918.06311492 0 -875.54403137 0 7147
0.08150000 0.08149960 24804.48303738 0 610.62250368 0 8153.17816820 0 436.44013626 0 -588.50836216 0 7386
0.08250000 0.08250610 23672.85237005 0 559.16527342 0 7375.79996662 0 -424.92061499 0 -224.62132780 0 7227
0.08350000 0.08350160 22966.21481589 0 497.10683217 0 8024.32913182 0 372.81309804 0 -71.32447746 0 7798
0.08450000 0.08449610 22088.32777519 0 446.39545439 0 7109.52294268 0 -453.94515112 0 -354.68965174 0 7371
0.08550000 0.08548940 21709.90924977 0 414.43584046 0 7630.94961854 0 346.78515331 0 -2083.08139061 0 8256
0.08650000 0.08650700 20381.32519605 0 664.14593204 0 7353.94066719 0 437.02122015 0 946.20009758 0 8037
0.08750000 0.08749060 20827.95791721 0 -19.54287277 0 7547.24717547 0 763.51676944 0 0.01850857 0 8155
0.08850000 0.08849210 20297.07352435 0 158.80067044 0 5860.91756193 0 1096.28121431 0 -25.36096148 0 8718
0.08950000 0.08949900 20437.78589912 0 -118.69270057 0 6468.46328683 0 1317.47865083 0 1407.05784023 0 8571
0.09050000 0.09049190 19626.13583109 0 283.50522758 0 5601.56081871 0 -656.07996039 0 1178.46888482 0 8932
0.09150000 0.09150830 19658.21078302 0 731.43302985 0 6003.53026775 0 -55.50032189 0 1787.20094356 0 9285
0.09250000 0.09250820 18930.15331233 0 548.45421670 0 7595.21680393 0 -1035.74962864 0 958.30949040 0 9204
0.09350000 0.09350330 18022.71777139 0 413.65593581 0 7327.97313760 0 -111.95036992 0 178.16427498 0 9349
0.09450000 0.09448040 18023.37684574 0 4.43339546 0 7852.04709546 0 93.32130374 0 943.73296258 0 9564
0.09550000 0.09549270 17969.99182300 0 6.23788612 0 8165.92027240 0 277.06497268 0 -692.61904263 0 10155
0.09650000 0.09649430 17589.92561168 0 202.01727434 0 6787.25755229 0 281.76856666 0 939.95976190 0 9913
0.09750000 0.09749140 17972.84781187 0 18.55612862 0 6913.12976950 0 774.22233388 0 -970.15854884 0 10476
0.09850000 0.09850240 17698.34334306 0 198.50550649 0 6508.58993047 0 131.77532651 0 136.86887282 0 10575
0.09950000 0.09950330 17516.98804974 0 205.12920376 0 6935.52731299 0 -298.31902216 0 -9.95360454 0 10882
0.10050000 0.10051200 16935.68446874 0 275.34259170 0 6674.65469875 0 296.98659351 0 372.30121696 0 10875
0.10150000 0.10150300 17288.94832295 0 154.73198475 0 6676.80767498 0 718.01537444 0 88.50676558 0 11118
0.10250000 0.10250800 16615.15464081 0 -56.11282165 0 5735.11125215 0 107.37013269 0 173.24758030 0 11575
0.10350000 0.10349800 16957.43392245 0 116.39802336 0 6339.76803447 0 500.49227744 0 1177.91965619 0 11364
0.10450000 0.10450100 16185.98739006 0 129.48724005 0 5753.64222610 0 438.20865244 0 1165.33133601 0 12093
0.10550000 0.10551000 16164.01824490 0 267.73247981 0 6079.60941745 0 361.07498378 0 1422.69987159 0 12067
0.10650000 0.10649700 16175.00281748 0 540.58047507 0 6155.06244651 0 -519.92178942 0 1209.54424065 0 12054
0.10750000 0.10749900 15778.02036439 0 -254.46421459 0 5842.59529486 0 622.46277447 0 1235.88524570 0 12807
0.10850000 0.10850100 16020.34003553 0 -266.63292410 0 5293.74014126 0 841.99055596 0 1379.82708481 0 12736
0.10950000 0.10950300 16118.76180586 0 39.98659034 0 5022.17953791 0 83.24196979 0 902.39581904 0 12933
0.11050000 0.11050200 15520.76167453 0 656.31063642 0 4726.77142748 0 -679.95822427 0 579.87229120 0 13428
0.11150000 0.11150900 15605.01334623 0 269.68114299 0 5605.69101800 0 365.08105740 0 1268.00413593 0 13453
0.11250000 0.11250000 15296.67639388 0 -410.09803275 0 4910.77400279 0 256.05478070 0 992.55719079 0 13668
0.11350000 0.11349100 15296.67639388 0 -1.12688533 0 4387.26025813 0 585.80835422 0 -342.83510101 0 13791
0.11450000 0.11448600 14930.99997264 0 378.66018602 0 4433.32955554 0 -290.75943931 0 212.02641688 0 14205
0.11550000 0.11549300 14654.84781795 0 379.58838241 0 4383.37171944 0 -333.85740984 0 1058.60413035 0 14776
0.11650000 0.11649800 14518.30958076 0 198.29020887 0 5114.43896302 0 223.30867138 0 49.00986749 0 14553
0.11750000 0.11747300 14491.61706939 0 -34.14554387 0 4955.36038290 0 -319.75541556 0 -271.13110657 0 14568
0.11850000 0.11849100 14332.88999559 0 125.89198944 0 5047.71866916 0 26.82872007 0 -802.58779566 0 16015
0.11950000 0.11950300 13775.86231999 0 228.59225079 0 5152.61035274 0 -468.94678190 0 -139.31733405 0 15270
0.12050000 0.12050700 13860.44352886 0 461.36522990 0 5611.16133515 0 -424.58997936 0 -689.98054830 0 15999
0.12150000 0.12150000 13443.68884513 0 47.72423311 0 5506.76395733 0 654.76730397 0 -399.49572330 0 15670
0.12250000 0.12250700 13855.50047120 0 -121.51353881 0 5901.91198680 0 61.24481396 0 -708.18637889 0 16887
0.12350000 0.12352200 13566.16682941 0 -74.90709580 0 5132.53055406 0 145.54119287 0 -451.53843127 0 16407
0.12450000 0.12449800 13693.36817990 0 199.73358170 0 5292.11442452 0 555.59309042 0 -720.80106204 0 16306
0.12550000 0.12549900 13469.28289924 0 72.01222155 0 4659.88636503 0 -0.60357810 0 557.92511518 0 17523
0.12650000 0.12650100 13332.19543343 0 82.17866316 0 4728.78160426 0 542.64118089 0 -327.05356558 0 17154
0.12750000 0.12750600 13165.66931309 0 143.65514176 0 4424.04759171 0 383.84490428 0 152.54166098 0 18007
0.12850000 0.12850300 13087.12961914 0 108.32271483 0 3950.12919226 0 640.42035372 0 -21.81700883 0 17496
0.12950000 0.12949900 12829.54139211 0 85.37704116 0 3982.19315962 0 -215.19546607 0 444.13373090 0 18405
0.13050000 0.13049000 12630.94031983 0 185.35148082 0 3270.73337810 0 525.89519999 0 549.84266667 0 18100
0.13150000 0.13148800 12458.15299313 0 59.41291680 0 3534.44001206 0 119.83729303 0 249.66066100 0 19059
0.13250000 0.13249300 12042.05738375 0 181.37177018 0 2867.53365693 0 254.59493100 0 109.27837264 0 18957
0.13350000 0.13349100 11971.53642778 0 371.85304640 0 3358.76374277 0 -135.70560658 0 -50.15171381 0 19468
0.13450000 0.13450700 11646.28323364 0 89.21340313 0 3320.83401365 0 -125.00553443 0 494.96703743 0 19953
0.13550000 0.13551000 11589.60283912 0 98.35070014 0 3179.44059538 0 245.85450660 0 -337.58886914 0 19956
0.13650000 0.13649900 11560.93310469 0 39.77458809 0 3133.39326712 0 -141.81412740 0 206.35068823 0 19723
0.13750000 0.13749600 11356.51020895 0 -35.01134788 0 3028.43567610 0 242.47455362 0 223.81286326 0 20946
0.13850000 0.13851100 11335.74936677 0 93.47816344 0 3159.08618239 0 406.50058523 0 263.92412850 0 20955
0.13950000 0.13949800 11247.43340321 0 91.26740836 0 2981.57548947 0 -382.60474604 0 193.07583226 0 20506
0.14050000 0.14048300 11040.48405578 0 354.35572073 0 3034.33439158 0 375.12095674 0 961.43130593 0 21447
0.14150000 0.14148400 11060.03659498 0 204.95894288 0 3438.12727967 0 -191.05357245 0 755.79681183 0 21771
0.14250000 0.14249400 10545.73890672 0 147.84246083 0 3680.53482740 0 -56.25441280 0 984.29349684 0 22470
0.14350000 0.14350900 10482.86321326 0 -20.55740789 0 3652.82075077 0 238.01481715 0 901.41050288 0 22519
0.14450000 0.14449900 10445.28499046 0 158.27780478 0 3406.17315803 0 206.65935472 0 1313.72192701 0 22218
0.14550000 0.14550500 10403.21407748 0 96.19849284 0 3487.37111855 0 64.56863578 0 1292.85123911 0 23559
0.14650000 0.14650700 10322.44451529 0 47.36229144 0 3456.66923819 0 87.35338546 0 1187.06980515 0 23044
0.14750000 0.14750500 10140.36424018 0 17.60475478 0 3167.85187131 0 124.92424860 0 1111.51791493 0 23649
0.14850000 0.14849900 10194.05683095 0 82.42713419 0 3337.29988795 0 150.94560258 0 800.31728450 0 23640
0.14950000 0.14949500 10114.48458718 0 45.93539547 0 3010.04750160 0 13.42171970 0 1248.18796699 0 24457
0.15050000 0.15050000 9946.01419749 0 19.27331136 0 2999.60117308 0 291.99410527 0 1185.87248674 0 24591
0.15150000 0.15149900 9991.13882166 0 44.38657073 0 2913.14160229 0 224.63780466 0 765.88394483 0 25020
0.15250000 0.15250500 9905.22847950 0 264.28002865 0 3160.25054708 0 -351.49094420 0 963.03065969 0 25297
0.15350000 0.15350100 9679.64929697 0 246.70690943 0 2911.55982384 0 -253.65025776 0 1041.84167259 0 25452
0.15450000 0.15450400 9456.81625758 0 37.11434430 0 3402.46037250 0 271.87256522 0 1176.33787774 0 26061
0.15550000 0.15549900 9479.60924569 0 17.90177763 0 3113.67595933 0 44.28946711 0 536.91602166 0 26128
0.15650000 0.15649500 9355.53849838 0 114.35928669 0 2974.43551729 0 -49.59688304 0 468.49751288 0 26331
0.15750000 0.15749700 9228.67766964 0 84.62767362 0 3173.06954328 0 111.93938535 0 929.51782721 0 27345
0.15850000 0.15849900 9217.71506621 0 -62.02900260 0 2879.41896447 0 24.66519866 0 543.10143448 0 26980
0.15950000 0.15949700 9324.36428140 0 -105.16915388 0 2679.26906746 0 699.86446670 0 608.73864948 0 27777
0.16050000 0.16050000 9235.70779609 0 35.02485890 0 2228.81371504 0 -162.84958389 0 172.07113257 0 28224
0.16150000 0.16150500 9100.57558420 0 293.52535469 0 2284.64829748 0 159.69151927 0 487.67657661 0 28075
0.16250000 0.16249700 9020.95940213 0 -39.56357445 0 2143.44161694 0 -10.53769820 0 671.00799453 0 28590
0.16350000 0.16349900 8939.22319755 0 146.22003946 0 2223.62899679 0 90.62151549 0 117.69859675 0 29163
0.16450000 0.16449100 8714.20422822 0 248.27221103 0 2335.37505366 0 -197.36640631 0 252.81433179 0 28996
0.16550000 0.16550500 8655.59054893 0 14.97449888 0 2491.34499974 0 -394.42744151 0 -110.48063411 0 30777
0.16650000 0.16650700 8432.57077181 0 143.44753334 0 2452.22893678 0 -34.71663180 0 -127.00802201 0 29211
0.16750000 0.16749900 8481.02372147 0 98.82204815 0 2657.80521264 0 61.86038941 0 -178.41582170 0 30922
0.16850000 0.16850800 8216.86672003 0 33.58258452 0 2546.47656952 0 220.06163172 0 -173.06084256 0 30867
0.16950000 0.16949900 8479.14535955 0 -8.83265087 0 2631.16762413 0 161.50946604 0 -365.87194662 0 30852
0.17050000 0.17049200 8343.47490360 0 -29.24785249 0 2055.03777681 0 66.19907589 0 -220.82505952 0 31257
0.17150000 0.17149500 8312.86089982 0 -2.03400232 0 2331.61832983 0 142.68849937 0 -60.98371067 0 32608
0.17250000 0.17250900 8266.83554070 0 119.71536428 0 1968.77592833 0 -48.14538162 0 -434.40908879 0 32361
0.17350000 0.17350400 8317.65017346 0 109.24673707 0 2190.66429447 0 -74.80647712 0 -58.69771127 0 32508
0.17450000 0.17449800 8108.37209664 0 142.59732742 0 2086.14608636 0 -11.12451604 0 -343.02623257 0 32791
0.17550000 0.17549800 7999.94338069 0 -37.35402767 0 2049.66632082 0 324.35465610 0 -48.85850008 0 33633
0.17650000 0.17650100 8109.82206023 0 15.36214445 0 1946.02687851 0 72.34714116 0 -433.19529352 0 33984
0.17750000 0.17750300 7854.45271685 0 198.25176286 0 1806.24819241 0 139.75891387 0 36.49075012 0 34069
0.17850000 0.17849800 7779.90042274 0 133.28021296 0 2036.52877201 0 -90.80715477 0 -5.13916524 0 34536
