### header ###
fiducial parameters:
Omega_m = 0.31
Omega_nu = 0
Omega_de = 0.69
Omega_k = 0
H_0 = 100
w_de = -1
zeff = 0
beta = 0
fgrowth = 0
b_1 = 2
gamma = 0.55
Lx = 3500 Ly = 3500 Lz = 3500
nx = 700 ny = 700 nz = 700
xoffset = -983.599254 yoffset = -42.9823471 zoffset = 800.977702
bins = 400 dk = 0.001
kx_ny = 0.628318531 ky_ny = 0.628318531 kz_ny = 0.628318531
############################
A(data) = 9.05927934 (not used)
A(ran) = 9.0575873 (used)
Ngal = 503422
weighted Ngal = 0
Nran = 25229228
weighted Nran = 0
SN(data) = 6702.14594
SN(ran) = 134.453643
SN(data+ran) = 6836.59958
############################
13 columns: k_central k_mean P_0(k) sigma^{lin}_{P_0(k)} P^img_1(k) sigma^{lin}_{P_1(k)} P_2(k) sigma^{lin}_{P_2(k)} P^img_3(k) sigma^{lin}_{P_3(k)} P_4(k) sigma^{lin}_{P_4(k)} N_modes
### header ###
0.00050000 0 0 0 0 0 0 0 0 0 0 0 0
0.00150000 0.00179520 39172.96304813 0 -40786.92629751 0 15691.02254955 0 -76765.24610181 0 57791.92341924 0 3
0.00250000 0.00253879 51875.63262693 0 -32048.91850050 0 -51591.02235134 0 3466.86292154 0 -20071.01102063 0 6
0.00350000 0.00331552 66420.08549043 0 -14072.66547114 0 -6127.73282993 0 -46201.66150576 0 15014.48272426 0 7
0.00450000 0.00420575 74491.43957748 0 -3701.91080564 0 -12133.55887335 0 -44968.53338778 0 5660.49305061 0 24
0.00550000 0.00557378 62896.34445206 0 20446.02432856 0 28139.06973590 0 -21177.48701675 0 14451.30368802 0 45
0.00650000 0.00659388 38329.23802816 0 10403.93905927 0 37896.88525136 0 15976.07220803 0 24703.42496963 0 40
0.00750000 0.00754703 59168.72974658 0 -14949.67374603 0 28207.28393163 0 49204.51411232 0 4310.26938891 0 57
0.00850000 0.00846663 63763.13707446 0 -5585.96272565 0 20822.13609374 0 33836.54784239 0 6729.89611427 0 75
0.00950000 0.00948925 76885.30748013 0 -4690.33560023 0 14150.87562792 0 13141.50325342 0 19282.53840074 0 112
0.01050000 0.01054430 71888.86479578 0 1852.57013499 0 -1346.23626185 0 1534.95121880 0 25964.89328488 0 105
0.01150000 0.01145670 75359.44050285 0 -904.77837284 0 -118.45763072 0 -7606.54189827 0 21325.77874660 0 144
0.01250000 0.01249090 67232.17494137 0 1058.29875923 0 134.25564300 0 801.14771819 0 21943.55110857 0 169
0.01350000 0.01339930 79368.37011214 0 1840.34430571 0 15062.26561499 0 3464.67699160 0 9160.35362819 0 180
0.01450000 0.01448870 66204.67802211 0 1728.23575794 0 2096.66930689 0 1485.76230278 0 10878.39570277 0 267
0.01550000 0.01550050 73249.19426425 0 3090.27881974 0 14673.08220843 0 -13081.96687002 0 -1139.68235903 0 238
0.01650000 0.01653350 60670.87004708 0 3281.93764214 0 17597.83450394 0 -5403.87146596 0 -3458.26200121 0 315
0.01750000 0.01747870 61348.61817535 0 3686.77406462 0 20510.50376961 0 -985.59846406 0 -1083.36445541 0 297
0.01850000 0.01844180 62788.25625786 0 -1005.28281813 0 24211.42596372 0 -2272.66412879 0 -5511.58618470 0 388
0.01950000 0.01947590 64488.44840200 0 -4241.36316511 0 21278.32539305 0 17042.01513132 0 -3191.73233210 0 399
0.02050000 0.02045430 65980.70258718 0 -2678.85165370 0 15020.41439345 0 -4070.19057057 0 -8395.45390106 0 462
0.02150000 0.02154770 69237.51851182 0 6944.73238481 0 20435.80867606 0 -8610.38903276 0 -5323.71703984 0 571
0.02250000 0.02255340 60567.72491054 0 1291.74179728 0 24686.28903641 0 3820.91766498 0 5196.68045794 0 510
0.02350000 0.02348930 62847.24341262 0 241.97146019 0 31732.56281016 0 8111.61254556 0 8946.56089204 0 555
0.02450000 0.02439640 64481.63796700 0 -2458.30340541 0 16318.24164394 0 12569.86609628 0 8102.57224232 0 592
0.02550000 0.02547300 64227.67464892 0 -1936.92066784 0 19930.84787449 0 2720.57106037 0 7658.93830948 0 837
0.02650000 0.02652900 64632.12661137 0 4601.90979095 0 20995.25295762 0 1429.40046087 0 21436.83277539 0 723
0.02750000 0.02749970 59586.47304185 0 3063.00412602 0 15979.58727126 0 716.07989275 0 18410.14364633 0 826
0.02850000 0.02848090 63950.09449979 0 -1180.83056792 0 17254.34691932 0 912.43681684 0 10267.92808156 0 831
0.02950000 0.02946900 57778.41239496 0 -243.36869783 0 20721.73710035 0 8379.71300855 0 9844.03342565 0 996
0.03050000 0.03053250 59449.27573031 0 705.24800573 0 15797.90244076 0 -1327.81513363 0 17149.00486827 0 1041
0.03150000 0.03150510 59642.05497911 0 -389.72055216 0 10408.02532027 0 5867.44239804 0 13453.35526900 0 1036
0.03250000 0.03246190 57585.41345471 0 2320.45800409 0 17256.54383384 0 3269.50310597 0 7786.45821258 0 1059
0.03350000 0.03345080 54458.54502370 0 3704.14067387 0 15127.29428467 0 -3695.60566098 0 13062.52417656 0 1302
0.03450000 0.03451200 51604.20383844 0 3618.48297688 0 15180.34977024 0 -1691.09691804 0 11846.31230035 0 1339
0.03550000 0.03553350 46730.12929265 0 -744.35967486 0 18529.43610456 0 4850.86414393 0 10204.96451153 0 1365
0.03650000 0.03647120 47152.15657122 0 -1322.70730738 0 11999.98647076 0 2844.38916250 0 9231.03935275 0 1308
0.03750000 0.03744890 49060.94574868 0 741.51906439 0 13607.35897659 0 2623.19282443 0 6146.13198900 0 1579
0.03850000 0.03847530 45991.85616946 0 2009.37490859 0 11660.12379510 0 -4343.88218101 0 7681.74228216 0 1662
0.03950000 0.03950240 44051.43142296 0 1704.33332800 0 13559.35639441 0 699.61731382 0 10682.03548331 0 1683
0.04050000 0.04050350 44488.50756597 0 -445.89565634 0 15398.94276461 0 -258.28684585 0 -1235.91819942 0 1822
0.04150000 0.04152450 42968.24272071 0 1119.50369920 0 15018.65686184 0 -2318.84327192 0 -671.20571684 0 1887
0.04250000 0.04250150 40560.75394806 0 3117.99289636 0 18297.99116028 0 -1310.69018498 0 -992.35397620 0 1920
0.04350000 0.04349210 39480.53108041 0 267.82035639 0 19441.81470317 0 -3012.90349047 0 1220.44093665 0 2005
0.04450000 0.04448520 39269.40759540 0 411.00096462 0 19742.90183763 0 4113.72243171 0 -1960.51552975 0 2151
0.04550000 0.04548030 39151.98251450 0 -194.89597594 0 16719.72777179 0 2905.93572268 0 -1806.61068331 0 2274
0.04650000 0.04648670 39022.03502087 0 465.59319189 0 16459.72293879 0 1460.84929217 0 2787.03870906 0 2311
0.04750000 0.04749250 39396.49910016 0 122.13087179 0 16409.41359637 0 2040.43927985 0 2773.87919110 0 2568
0.04850000 0.04851840 38587.37548382 0 434.56616818 0 14601.02341230 0 -88.17821701 0 -1476.86479899 0 2493
0.04950000 0.04949480 37245.06071438 0 338.28968487 0 13770.26018797 0 216.19725909 0 3132.02019555 0 2644
0.05050000 0.05050630 36904.64881009 0 417.39288740 0 15686.84841196 0 -17.71734665 0 1228.55853579 0 2829
0.05150000 0.05149060 36292.80811731 0 785.48701306 0 16296.82172741 0 1519.01260398 0 5005.32920357 0 2784
0.05250000 0.05249300 37449.59345585 0 126.70484781 0 13909.65441403 0 1716.95460190 0 -4.44774131 0 3055
0.05350000 0.05348950 36363.21922755 0 -257.90018889 0 14819.94594385 0 1083.74232470 0 1775.39252803 0 3009
0.05450000 0.05448610 36444.50506465 0 1335.48236529 0 13628.11981877 0 -999.56095427 0 3807.37368699 0 3336
0.05550000 0.05550870 33678.91922585 0 -265.98483431 0 14738.55026102 0 557.99541644 0 2920.83080310 0 3349
0.05650000 0.05647670 34490.56929389 0 1306.30734052 0 15924.11517972 0 1519.61675548 0 5003.85727084 0 3324
0.05750000 0.05747970 33681.66536900 0 314.17964651 0 13406.67083553 0 1301.04573025 0 4017.46462218 0 3639
0.05850000 0.05849280 33190.32543743 0 495.22847026 0 15392.79140396 0 1223.01132663 0 6335.94540321 0 3846
0.05950000 0.05951020 32327.70695262 0 -82.62716326 0 13485.32037521 0 1188.46484587 0 4654.26226387 0 3787
0.06050000 0.06049470 32810.69860902 0 118.33240659 0 12669.60601532 0 2549.57421899 0 6012.50466355 0 3930
0.06150000 0.06148310 32722.05310829 0 714.98143549 0 13225.86477084 0 -1806.05047011 0 1989.00951102 0 4083
0.06250000 0.06249100 31088.86685690 0 1062.56736414 0 14646.06015988 0 -3618.62577633 0 1815.33243394 0 4303
0.06350000 0.06350600 29956.24757803 0 1363.83354713 0 15885.11994706 0 -2353.19203038 0 -1740.72521697 0 4470
0.06450000 0.06451750 29414.92784122 0 -745.86565976 0 15615.11915301 0 1399.30273199 0 -2324.22571249 0 4479
0.06550000 0.06550280 31933.03125977 0 -1100.62121893 0 14402.20264858 0 3829.35381673 0 -3894.52528585 0 4636
0.06650000 0.06648880 30187.91221377 0 -753.00233657 0 11058.38890909 0 2922.48947356 0 -2665.12093798 0 4653
0.06750000 0.06749660 31691.59035443 0 334.48353047 0 9751.48840165 0 1228.20702947 0 -1489.03570541 0 5220
0.06850000 0.06852730 31076.23459843 0 343.08554926 0 8448.31166432 0 -479.45132866 0 -3279.30134472 0 5029
0.06950000 0.06949320 30451.21241855 0 1610.94249192 0 9185.91472858 0 -880.35417570 0 -2474.99995574 0 5040
0.07050000 0.07048030 28229.25307679 0 649.72977899 0 9085.13127515 0 525.22953489 0 1010.75203682 0 5475
0.07150000 0.07148790 28145.33094227 0 -288.99421850 0 10037.13122706 0 1834.76414283 0 -156.33024006 0 5509
0.07250000 0.07249820 27897.73867629 0 523.14466302 0 8300.37144079 0 335.57869236 0 -1532.44673625 0 5916
0.07350000 0.07351270 28230.68107123 0 1073.29819309 0 9758.02422234 0 326.22642726 0 369.22993046 0 5721
0.07450000 0.07449140 26432.39669394 0 -217.07932027 0 8757.10996873 0 -1565.25765455 0 158.97422668 0 6028
0.07550000 0.07549160 26286.41172433 0 -117.99518021 0 9465.80163796 0 1807.76406343 0 718.73266703 0 6183
0.07650000 0.07648840 26801.14879549 0 574.37890645 0 9435.67095537 0 -367.77996688 0 -472.68043812 0 6330
0.07750000 0.07749960 25541.76754904 0 309.05534341 0 8354.83295165 0 -5.03852458 0 346.84556846 0 6583
0.07850000 0.07848650 25629.42443824 0 1066.75578166 0 11012.03401280 0 -597.68157872 0 355.65519567 0 6549
0.07950000 0.07947320 24954.42245312 0 604.72818203 0 10153.65557300 0 318.41969153 0 86.26810969 0 6828
0.08050000 0.08048110 24311.93480284 0 -421.32865976 0 10411.29872290 0 997.43653793 0 1397.72095354 0 7147
0.08150000 0.08149960 25188.83323200 0 -23.47787621 0 9184.23408898 0 492.23627269 0 -1159.24588280 0 7386
0.08250000 0.08250610 23659.56103723 0 290.59137535 0 8917.51768213 0 294.92478924 0 1337.74518725 0 7227
0.08350000 0.08350160 23849.04491426 0 386.21867042 0 8801.18007392 0 294.46892947 0 249.62880574 0 7798
0.08450000 0.08449610 23504.23918093 0 901.41489671 0 9119.30428045 0 -406.64228622 0 -607.82583150 0 7371
0.08550000 0.08548940 22388.86568102 0 420.07751694 0 8788.05350969 0 127.31559005 0 163.84258925 0 8256
0.08650000 0.08650700 21786.69141211 0 216.14892697 0 9063.66742033 0 669.63492296 0 -46.45760205 0 8037
0.08750000 0.08749060 21373.01240870 0 609.83051600 0 8047.06719707 0 846.81937407 0 -862.29663684 0 8155
0.08850000 0.08849210 20320.25097250 0 230.93526012 0 7531.92369672 0 392.82039854 0 771.00714948 0 8718
0.08950000 0.08949900 20280.59666548 0 -472.06749897 0 6554.04409181 0 1936.32750092 0 1712.98917120 0 8571
0.09050000 0.09049190 20286.85787185 0 17.38044981 0 5264.92760738 0 1598.65075520 0 18.14772221 0 8932
0.09150000 0.09150830 20477.98943477 0 537.71020626 0 4516.03240250 0 368.22813744 0 850.20152397 0 9285
0.09250000 0.09250820 19871.42133683 0 65.43971239 0 4372.05760968 0 -95.13760282 0 1459.45425145 0 9204
0.09350000 0.09350330 19434.56488527 0 361.77360259 0 4533.00356714 0 -1245.73840730 0 73.96110441 0 9349
0.09450000 0.09448040 18785.59633716 0 738.88606234 0 5201.87616077 0 -566.59853369 0 113.76611977 0 9564
0.09550000 0.09549270 18205.83059632 0 310.82495805 0 5610.40339964 0 -595.11668103 0 -172.97296598 0 10155
0.09650000 0.09649430 17975.92349219 0 221.72469601 0 5211.97098297 0 741.52565513 0 -168.18918462 0 9913
0.09750000 0.09749140 18295.24501713 0 -31.90622890 0 5986.04282820 0 303.26098137 0 -618.59510646 0 10476
0.09850000 0.09850240 17277.19483029 0 364.49118585 0 5742.07547117 0 -109.78256452 0 -178.45756307 0 10575
0.09950000 0.09950330 17400.33188893 0 471.04922909 0 6341.13012147 0 477.98818359 0 141.33410158 0 10882
0.10050000 0.10051200 16859.34168930 0 -139.91159943 0 5899.40750425 0 52.06808234 0 1507.58864850 0 10875
0.10150000 0.10150300 17141.53535891 0 300.90698746 0 6331.41975931 0 91.70668142 0 49.50021881 0 11118
0.10250000 0.10250800 16350.09690443 0 338.64558502 0 6136.01519766 0 -30.64915442 0 1254.72378768 0 11575
0.10350000 0.10349800 16390.30044007 0 152.47904892 0 6289.90905952 0 338.74224926 0 1167.30855907 0 11364
0.10450000 0.10450100 16189.39260756 0 264.35582220 0 6343.06340624 0 -6.30892335 0 394.67020056 0 12093
0.10550000 0.10551000 15964.86794400 0 110.31696398 0 6372.01873957 0 90.99663865 0 727.59502019 0 12067
0.10650000 0.10649700 15816.68605988 0 -224.52246665 0 5939.00688841 0 398.64551738 0 813.58664818 0 12054
0.10750000 0.10749900 15959.81504061 0 -218.39637052 0 5421.33693637 0 359.49430378 0 244.24087289 0 12807
0.10850000 0.10850100 15921.25919085 0 322.71685632 0 5306.16369285 0 256.65783373 0 489.54395395 0 12736
0.10950000 0.10950300 15724.41565019 0 297.09204541 0 5472.44815259 0 -144.04179872 0 276.78596453 0 12933
0.11050000 0.11050200 15288.98719307 0 126.88389634 0 5383.60492955 0 35.36428220 0 321.27128657 0 13428
0.11150000 0.11150900 15297.33546823 0 202.17764910 0 5449.98470166 0 38.97765735 0 -111.37258140 0 13453
0.11250000 0.11250000 15170.46365492 0 65.72091745 0 5539.68472136 0 -128.31957998 0 72.45281275 0 13668
0.11350000 0.11349100 15090.93534943 0 175.66858009 0 5298.39760004 0 174.06922632 0 16.24914868 0 13791
0.11450000 0.11448600 14829.61236772 0 107.79842118 0 4833.60738040 0 327.48635774 0 9.66262321 0 14205
0.11550000 0.11549300 14691.64613609 0 16.97127448 0 5426.63150035 0 90.62898500 0 -666.68226985 0 14776
0.11650000 0.11649800 14509.96130560 0 410.55389251 0 5081.11176981 0 195.66379756 0 671.66597043 0 14553
0.11750000 0.11747300 14365.07479325 0 10.12394230 0 4941.25619170 0 -74.73705462 0 469.70581586 0 14568
0.11850000 0.11849100 14216.34368050 0 -99.91545251 0 4730.70390446 0 1034.02834612 0 64.62850170 0 16015
0.11950000 0.11950300 14262.80842252 0 66.89659625 0 4315.66281405 0 335.29309347 0 961.09737492 0 15270
0.12050000 0.12050700 14161.53066332 0 94.27531387 0 3956.23661461 0 272.55141180 0 919.44277723 0 15999
0.12150000 0.12150000 13908.11657387 0 85.48194383 0 4295.81369139 0 -6.52195816 0 1090.86691848 0 15670
0.12250000 0.12250700 13441.71162206 0 518.74424324 0 3788.94157420 0 -464.44640251 0 738.30278154 0 16887
0.12350000 0.12352200 13388.87582795 0 248.37107218 0 4259.23506470 0 56.40435221 0 1004.75995247 0 16407
0.12450000 0.12449800 13224.10723923 0 -143.90888539 0 4582.78565008 0 162.94405121 0 200.76393461 0 16306
0.12550000 0.12549900 13182.36586342 0 184.56388697 0 3996.13258223 0 440.72741494 0 440.21663231 0 17523
0.12650000 0.12650100 13014.74128583 0 -14.28653510 0 3539.47094631 0 398.77293842 0 698.75172950 0 17154
0.12750000 0.12750600 13085.04255035 0 13.68743651 0 3425.61585150 0 0.07325886 0 211.78365783 0 18007
0.12850000 0.12850300 12910.60753776 0 258.81849916 0 3606.38896247 0 -283.06364776 0 290.03226061 0 17496
0.12950000 0.12949900 12427.17649845 0 246.53664856 0 3983.77493808 0 -309.13882616 0 58.14804326 0 18405
0.13050000 0.13049000 12193.97402255 0 37.92863067 0 3577.57642859 0 18.63653569 0 -141.50326399 0 18100
0.13150000 0.13148800 12252.30210296 0 263.03437812 0 3732.62367058 0 434.84407786 0 -472.62002297 0 19059
0.13250000 0.13249300 11920.23847382 0 128.02079961 0 3428.14230319 0 -19.02560925 0 243.21820918 0 18957
0.13350000 0.13349100 11929.90489769 0 31.99805993 0 3706.11789694 0 -89.82392568 0 -301.44083769 0 19468
0.13450000 0.13450700 11624.31408848 0 204.26691481 0 3422.99053865 0 226.78309169 0 -632.03802639 0 19953
0.13550000 0.13551000 11689.56244961 0 58.19154217 0 3375.62506168 0 110.63112275 0 -270.66755761 0 19956
0.13650000 0.13649900 11237.76697934 0 -25.47904564 0 3209.08795678 0 9.30889800 0 -513.06412076 0 19723
0.13750000 0.13749600 11426.37209056 0 94.47688078 0 3219.60019274 0 70.23217156 0 -188.00315664 0 20946
0.13850000 0.13851100 11546.43346888 0 77.82734442 0 3092.02536678 0 272.54591952 0 -271.59795090 0 20955
0.13950000 0.13949800 11404.07340822 0 63.59617157 0 2840.94000671 0 16.51805102 0 -528.04378239 0 20506
0.14050000 0.14048300 11200.63912402 0 142.45342952 0 3259.80372838 0 154.96815306 0 -233.39800129 0 21447
0.14150000 0.14148400 11009.50756110 0 165.29914358 0 3078.45941964 0 -12.08434799 0 234.78315590 0 21771
0.14250000 0.14249400 10841.90495266 0 288.55373714 0 3605.74087269 0 -212.01982614 0 463.99603504 0 22470
0.14350000 0.14350900 10293.42327453 0 332.63043308 0 3591.07646829 0 150.47656133 0 539.82363802 0 22519
0.14450000 0.14449900 10350.21351477 0 -54.64594183 0 3690.91524848 0 311.19843352 0 801.43002171 0 22218
0.14550000 0.14550500 10212.31319058 0 -53.11710902 0 3434.38154042 0 975.34656247 0 986.12572355 0 23559
0.14650000 0.14650700 10275.90288126 0 -10.75355604 0 3164.57846868 0 -87.31757575 0 1443.97698868 0 23044
0.14750000 0.14750500 9942.49913427 0 175.40714727 0 3003.42380434 0 -524.33319377 0 1071.46706484 0 23649
0.14850000 0.14849900 10086.94626371 0 221.07770469 0 3310.55245371 0 183.30835032 0 1347.98280889 0 23640
0.14950000 0.14949500 9887.14787303 0 10.56791676 0 3219.57822359 0 12.38455636 0 1127.59932919 0 24457
0.15050000 0.15050000 9831.39018261 0 22.20256733 0 3183.72457869 0 139.93356857 0 698.94505798 0 24591
0.15150000 0.15149900 10059.46286312 0 115.51046989 0 3112.03925802 0 9.51968097 0 43.71288690 0 25020
0.15250000 0.15250500 9711.33978887 0 119.71865965 0 2992.43923175 0 -449.62821410 0 518.67284352 0 25297
0.15350000 0.15350100 9461.36387063 0 40.19101323 0 3138.32534021 0 325.53330073 0 524.32879994 0 25452
0.15450000 0.15450400 9613.93958379 0 -110.36968993 0 2736.55361347 0 550.99275142 0 646.01809191 0 26061
0.15550000 0.15549900 9515.42993688 0 177.87977455 0 2471.14437076 0 353.31328479 0 742.58017410 0 26128
0.15650000 0.15649500 9370.34570222 0 182.76241707 0 2239.69942647 0 121.61899071 0 1017.84807070 0 26331
0.15750000 0.15749700 9299.20961019 0 -1.02311517 0 2264.59046794 0 137.18303160 0 1007.11284792 0 27345
0.15850000 0.15849900 9122.39094535 0 154.57160999 0 2350.10536549 0 6.92557529 0 817.28185840 0 26980
0.15950000 0.15949700 9124.98330448 0 99.44421434 0 2329.79489079 0 -190.63615869 0 948.57056835 0 27777
0.16050000 0.16050000 9012.62211154 0 69.95448156 0 2455.84286116 0 -329.26915387 0 685.13305642 0 28224
0.16150000 0.16150500 8786.81225299 0 133.71849740 0 2575.60765601 0 -77.34050817 0 350.40676689 0 28075
0.16250000 0.16249700 8760.42730965 0 -15.55942737 0 2758.44586663 0 200.76942690 0 740.62821555 0 28590
0.16350000 0.16349900 8756.53877095 0 63.86100962 0 2598.10406066 0 107.28873701 0 39.28687307 0 29163
0.16450000 0.16449100 8686.44621331 0 85.59629323 0 2407.20317377 0 117.23285087 0 369.39689597 0 28996
0.16550000 0.16550500 8708.25058988 0 34.10050712 0 2179.61381445 0 98.16824639 0 118.11491205 0 30777
0.16650000 0.16650700 8430.91210135 0 182.44386446 0 2271.07136577 0 -26.86057533 0 281.95200902 0 29211
0.16750000 0.16749900 8398.20004420 0 42.64408798 0 2216.92840751 0 -179.93279117 0 234.40968043 0 30922
0.16850000 0.16850800 8302.85395420 0 124.27396190 0 2388.56235410 0 28.62766352 0 202.47642948 0 30867
0.16950000 0.16949900 8275.35956903 0 -60.33408305 0 2131.80895458 0 362.00977091 0 -48.99317094 0 30852
0.17050000 0.17049200 8270.37257307 0 -15.50527343 0 1924.13462536 0 132.08069763 0 -168.90208338 0 31257
0.17150000 0.17149500 8237.35294789 0 214.92744250 0 1974.04852317 0 -16.81913815 0 208.23014860 0 32608
0.17250000 0.17250900 8105.03278658 0 84.30154166 0 2043.83351278 0 34.06876171 0 262.19845214 0 32361
0.17350000 0.17350400 8118.23624282 0 -36.53380964 0 2071.14116021 0 5.78678268 0 225.21119935 0 32508
0.17450000 0.17449800 8035.09401295 0 59.83505392 0 1857.12873261 0 125.38010836 0 290.12782639 0 32791
0.17550000 0.17549800 7962.17842016 0 71.95751837 0 2143.32078664 0 12.81998481 0 462.33406921 0 33633
0.17650000 0.17650100 7723.67039570 0 115.00957338 0 1920.19116380 0 66.22939331 0 510.00711421 0 33984
0.17750000 0.17750300 7897.27058078 0 40.92851744 0 2078.77543816 0 166.04938988 0 546.69998046 0 34069
0.17850000 0.17849800 7751.10985801 0 -46.74298124 0 1661.26281891 0 196.61286463 0 565.63628513 0 34536
