### header ###
fiducial parameters:
Omega_m = 0.31
Omega_nu = 0
Omega_de = 0.69
Omega_k = 0
H_0 = 100
w_de = -1
zeff = 0
beta = 0
fgrowth = 0
b_1 = 2
gamma = 0.55
Lx = 3500 Ly = 3500 Lz = 3500
nx = 700 ny = 700 nz = 700
xoffset = -983.599254 yoffset = -42.9823471 zoffset = 800.977702
bins = 400 dk = 0.001
kx_ny = 0.628318531 ky_ny = 0.628318531 kz_ny = 0.628318531
############################
A(data) = 8.9918189 (not used)
A(ran) = 8.97643863 (used)
Ngal = 498999
weighted Ngal = 0
Nran = 25229228
weighted Nran = 0
SN(data) = 6795.49588
SN(ran) = 133.249047
SN(data+ran) = 6928.74493
############################
13 columns: k_central k_mean P_0(k) sigma^{lin}_{P_0(k)} P^img_1(k) sigma^{lin}_{P_1(k)} P_2(k) sigma^{lin}_{P_2(k)} P^img_3(k) sigma^{lin}_{P_3(k)} P_4(k) sigma^{lin}_{P_4(k)} N_modes
### header ###
0.00050000 0 0 0 0 0 0 0 0 0 0 0 0
0.00150000 0.00179520 15843.81795415 0 17416.69890207 0 28110.07046429 0 8710.73310329 0 -3134.46975523 0 3
0.00250000 0.00253879 11808.52537067 0 2927.93782156 0 18792.73630934 0 56778.92613579 0 -3496.93868127 0 6
0.00350000 0.00331552 14715.15312142 0 2714.78219062 0 26437.22990587 0 54489.19198120 0 23354.95883955 0 7
0.00450000 0.00420575 38833.97913827 0 -11718.12233833 0 22108.75908020 0 19149.62507251 0 23.43459699 0 24
0.00550000 0.00557378 58996.71133996 0 -13940.19152581 0 -6002.66248652 0 34218.04204814 0 9798.56827974 0 45
0.00650000 0.00659388 75242.45480486 0 -9557.59971102 0 -657.28716492 0 -3137.04014522 0 12927.63362526 0 40
0.00750000 0.00754703 82488.75764532 0 -8166.68919248 0 -18092.25011583 0 -12060.62131141 0 -19143.58355759 0 57
0.00850000 0.00846663 102115.22301359 0 -6088.69365898 0 -1620.71876151 0 -19921.95037070 0 14966.91952498 0 75
0.00950000 0.00948925 88737.22191249 0 4630.79921683 0 -2774.03297512 0 -21160.35108352 0 -10147.28452090 0 112
0.01050000 0.01054430 94662.19051714 0 6129.98466731 0 7656.00542860 0 7216.62252535 0 -7065.34299176 0 105
0.01150000 0.01145670 77663.23491034 0 8419.35633099 0 18403.22336560 0 -14769.96613860 0 -11544.34640009 0 144
0.01250000 0.01249090 83758.79392718 0 5154.59856038 0 26086.16296617 0 -5786.14557637 0 -18224.06498680 0 169
0.01350000 0.01339930 70466.91187512 0 -2205.35066801 0 20962.07954843 0 -4785.78055138 0 -3858.11142775 0 180
0.01450000 0.01448870 75923.60815063 0 -2149.88956105 0 23894.41119902 0 20710.53283632 0 -3404.83304018 0 267
0.01550000 0.01550050 81855.82657319 0 -7508.97692460 0 6765.83763575 0 4539.17689693 0 -6343.98611034 0 238
0.01650000 0.01653350 81409.19385203 0 6525.82472485 0 14299.49689494 0 5932.13054597 0 -8962.60935258 0 315
0.01750000 0.01747870 78515.85743410 0 6312.93272365 0 15174.19840959 0 -21560.40921693 0 6316.10726513 0 297
0.01850000 0.01844180 73947.92292615 0 2420.84601291 0 30761.63643970 0 2075.65581954 0 -8552.96168730 0 388
0.01950000 0.01947590 71109.39952541 0 5109.38605963 0 31783.31153549 0 -11009.61740683 0 4097.71790946 0 399
0.02050000 0.02045430 67135.95008556 0 -2015.40543893 0 31999.59776961 0 14515.67328334 0 10.41270475 0 462
0.02150000 0.02154770 68987.18010269 0 -2137.93834608 0 34453.11190138 0 1077.72168047 0 -4828.46660044 0 571
0.02250000 0.02255340 71880.73621207 0 2434.70854351 0 27457.58685295 0 46.82448677 0 -3980.57842745 0 510
0.02350000 0.02348930 68683.01728791 0 1035.44425752 0 34608.54360341 0 1570.29957337 0 4258.92749667 0 555
0.02450000 0.02439640 65611.40125699 0 3105.25079217 0 25433.34981766 0 2143.67229297 0 -5875.95544179 0 592
0.02550000 0.02547300 69715.23757338 0 2119.02291209 0 35968.43368898 0 3045.87917736 0 -5361.70169182 0 837
0.02650000 0.02652900 65605.24989635 0 -325.78704436 0 27664.75589184 0 4584.27955195 0 1944.10457831 0 723
0.02750000 0.02749970 64547.10601959 0 299.31532290 0 30718.90645236 0 3809.31795634 0 -1888.34688789 0 826
0.02850000 0.02848090 62228.81197629 0 -794.84367199 0 25532.76019953 0 3566.29527255 0 6837.50098727 0 831
0.02950000 0.02946900 65314.59810584 0 2185.00723959 0 22475.86349586 0 2363.23192972 0 -1744.26224934 0 996
0.03050000 0.03053250 60288.71676698 0 684.40917308 0 21047.42967739 0 3226.70721120 0 7156.73463563 0 1041
0.03150000 0.03150510 58620.16019187 0 1797.50447264 0 20531.04492034 0 -746.62798910 0 -1011.87466013 0 1036
0.03250000 0.03246190 59678.52376008 0 2995.43802007 0 25764.64452672 0 2826.75892351 0 -213.52141721 0 1059
0.03350000 0.03345080 55145.95957584 0 -584.39463973 0 17965.81768542 0 3577.04916911 0 5716.14089531 0 1302
0.03450000 0.03451200 53282.31699169 0 2024.57755704 0 19555.06564648 0 251.06558783 0 852.26662361 0 1339
0.03550000 0.03553350 51855.53085910 0 2529.28571343 0 16129.08730409 0 863.54777965 0 4581.33568650 0 1365
0.03650000 0.03647120 51169.32460995 0 195.16839334 0 18499.00883851 0 4677.07722112 0 5554.30518747 0 1308
0.03750000 0.03744890 48562.02646204 0 -803.32046665 0 14370.23754236 0 3302.81931461 0 7079.29339893 0 1579
0.03850000 0.03847530 48562.24615349 0 1512.81730505 0 8456.06677256 0 3143.53202761 0 3620.20755478 0 1662
0.03950000 0.03950240 48310.36990420 0 1366.39295254 0 12512.74631886 0 -3828.81557267 0 4315.31130773 0 1683
0.04050000 0.04050350 44703.25595994 0 1609.15200659 0 15339.73591839 0 -2083.15828262 0 1272.45288782 0 1822
0.04150000 0.04152450 41227.07812085 0 2053.68667438 0 18061.27362115 0 -3003.95106382 0 2209.54677474 0 1887
0.04250000 0.04250150 42468.44466826 0 1540.87190342 0 18198.80046987 0 -1347.49948770 0 1008.82094896 0 1920
0.04350000 0.04349210 41398.10791594 0 -385.87705021 0 19767.72697166 0 3990.87097196 0 -502.99895690 0 2005
0.04450000 0.04448520 43597.76857535 0 -690.70662854 0 21150.24527675 0 2246.99318267 0 -1126.01755074 0 2151
0.04550000 0.04548030 40459.91557176 0 1130.01593516 0 17453.27752877 0 1561.63274560 0 3657.28048724 0 2274
0.04650000 0.04648670 39774.91762559 0 744.14437724 0 19092.28560363 0 -1554.32800483 0 1159.50951254 0 2311
0.04750000 0.04749250 38478.07898664 0 2294.58933566 0 20840.48032995 0 -159.94416444 0 3741.88366526 0 2568
0.04850000 0.04851840 38058.57815976 0 460.86872722 0 20544.22640743 0 1252.62573431 0 2263.19542722 0 2493
0.04950000 0.04949480 36545.01390377 0 -474.07438038 0 21682.77735549 0 3021.71311768 0 5561.18152990 0 2644
0.05050000 0.05050630 35946.02516091 0 549.80971296 0 18241.64030293 0 860.67092009 0 3074.74663411 0 2829
0.05150000 0.05149060 35478.08236895 0 1217.09064201 0 17469.75438764 0 2408.53230705 0 4708.60294443 0 2784
0.05250000 0.05249300 35005.19651932 0 350.02999605 0 15838.10597641 0 3012.78266018 0 3988.65208830 0 3055
0.05350000 0.05348950 34792.86473132 0 821.06274828 0 17015.54231140 0 -1251.88976795 0 3031.54431014 0 3009
0.05450000 0.05448610 33002.37940057 0 1343.49011871 0 17812.03366928 0 98.53337359 0 2908.71481954 0 3336
0.05550000 0.05550870 32441.28743311 0 -732.98075612 0 15537.34837913 0 677.11761380 0 3330.36862265 0 3349
0.05650000 0.05647670 32241.47805786 0 -474.11282638 0 15916.86536182 0 2421.26342667 0 4928.09667375 0 3324
0.05750000 0.05747970 32944.60054879 0 -134.56211258 0 12490.33779079 0 2061.54064378 0 1235.30306335 0 3639
0.05850000 0.05849280 33760.86413731 0 420.66409312 0 14695.38089077 0 -1007.29629028 0 2157.60073100 0 3846
0.05950000 0.05951020 32045.07390010 0 1193.49578011 0 13151.05983156 0 -373.41944645 0 3138.00678760 0 3787
0.06050000 0.06049470 32118.56069067 0 516.73516491 0 14739.97825545 0 970.82311548 0 2185.07314703 0 3930
0.06150000 0.06148310 30679.25214534 0 -218.12065775 0 14596.19020036 0 -602.12154296 0 886.68238797 0 4083
0.06250000 0.06249100 30412.87626024 0 1244.50813518 0 14168.12140687 0 605.42899777 0 1535.29174055 0 4303
0.06350000 0.06350600 30109.15282837 0 448.83073413 0 15390.04526082 0 1025.74707685 0 3551.35625384 0 4470
0.06450000 0.06451750 30483.28737049 0 -517.12511724 0 14782.70824279 0 1147.54731300 0 881.65255218 0 4479
0.06550000 0.06550280 29948.22884005 0 27.66596419 0 12605.23641999 0 1501.48122614 0 945.49928185 0 4636
0.06650000 0.06648880 30072.57420167 0 -57.52115371 0 13903.06367048 0 -179.74056115 0 3524.48798930 0 4653
0.06750000 0.06749660 30101.79316474 0 347.48267367 0 13210.04698632 0 330.39177719 0 1282.02045054 0 5220
0.06850000 0.06852730 30202.63154103 0 26.63330453 0 12618.96713572 0 600.68256395 0 308.38748139 0 5029
0.06950000 0.06949320 29072.97809677 0 1188.27810813 0 12403.99905030 0 -736.98573129 0 206.76041278 0 5040
0.07050000 0.07048030 27591.92817562 0 998.06705240 0 13902.73413330 0 -573.25079085 0 4122.21350632 0 5475
0.07150000 0.07148790 26628.91069742 0 435.33179289 0 15233.95448444 0 354.10307556 0 1806.91825134 0 5509
0.07250000 0.07249820 27333.68087424 0 -57.14306472 0 13532.22450013 0 2968.50384810 0 1269.87151327 0 5916
0.07350000 0.07351270 27242.28923036 0 -407.81324165 0 12786.48186759 0 1546.03465253 0 2153.32773227 0 5721
0.07450000 0.07449140 27487.68458183 0 -444.29630257 0 9604.92124970 0 925.83470002 0 1188.62961445 0 6028
0.07550000 0.07549160 27551.39510280 0 578.90345190 0 10820.48503612 0 -544.49537674 0 793.21795524 0 6183
0.07650000 0.07648840 26419.76443547 0 974.43813832 0 9835.03706071 0 -675.31284853 0 499.39711555 0 6330
0.07750000 0.07749960 25240.13118596 0 -31.61425896 0 9195.54819874 0 333.83544069 0 -831.57718116 0 6583
0.07850000 0.07848650 24621.69974963 0 501.40289851 0 9382.43971664 0 733.57172613 0 -1191.56249533 0 6549
0.07950000 0.07947320 24633.23355084 0 717.76492618 0 8553.39008563 0 959.66169128 0 -1650.45399949 0 6828
0.08050000 0.08048110 23413.39676568 0 -30.87807291 0 7004.00513846 0 1824.70227435 0 -460.66990646 0 7147
0.08150000 0.08149960 23267.30195035 0 16.09898958 0 6663.96670963 0 1712.01154424 0 107.90057770 0 7386
0.08250000 0.08250610 22969.72987912 0 478.26389636 0 5362.45962733 0 -21.96079689 0 -424.32085733 0 7227
0.08350000 0.08350160 21873.35968978 0 1335.93273277 0 6085.24450319 0 -2118.57254462 0 555.73039758 0 7798
0.08450000 0.08449610 20397.80205493 0 764.58117452 0 7070.22014198 0 219.02468807 0 1120.60215646 0 7371
0.08550000 0.08548940 20548.94977364 0 -427.97542463 0 6906.65985625 0 1679.53016311 0 2653.83978193 0 8256
0.08650000 0.08650700 20639.79218889 0 -460.33487700 0 6346.65536148 0 306.25757277 0 -560.89644206 0 8037
0.08750000 0.08749060 20976.46933851 0 417.97946358 0 5716.04203415 0 315.16056885 0 1141.27512206 0 8155
0.08850000 0.08849210 20329.58785920 0 418.66490091 0 6552.29754477 0 -987.56689947 0 1508.36855315 0 8718
0.08950000 0.08949900 20340.35274032 0 248.52156082 0 7169.57560098 0 62.38655044 0 898.66435974 0 8571
0.09050000 0.09049190 20521.70803364 0 -210.93674728 0 7103.28370545 0 140.51794783 0 429.68462412 0 8932
0.09150000 0.09150830 20157.13006967 0 215.87650957 0 6526.24213861 0 74.22187817 0 -227.07747823 0 9285
0.09250000 0.09250820 20035.31115974 0 424.17256560 0 7564.75658417 0 -417.93003300 0 264.58210440 0 9204
0.09350000 0.09350330 19095.47112968 0 518.65307129 0 7705.19434462 0 -891.41783721 0 -106.43457664 0 9349
0.09450000 0.09448040 19376.23680486 0 394.39888162 0 8194.74379085 0 586.02475030 0 -729.48876050 0 9564
0.09550000 0.09549270 18729.79470845 0 277.20777212 0 7831.96729678 0 321.16144085 0 -702.03282133 0 10155
0.09650000 0.09649430 17993.60865405 0 -44.66173428 0 8462.80031555 0 682.95261876 0 631.17134361 0 9913
0.09750000 0.09749140 17828.84006533 0 381.67105737 0 7451.41776427 0 434.81332106 0 999.99484489 0 10476
0.09850000 0.09850240 17837.51787767 0 -2.31606418 0 7598.70989802 0 1316.57791588 0 1634.18584750 0 10575
0.09950000 0.09950330 17765.67877298 0 332.34812956 0 7009.31068702 0 -395.09310661 0 948.40689822 0 10882
0.10050000 0.10051200 17139.11875294 0 394.21983309 0 6875.46367011 0 293.03763967 0 1656.68225215 0 10875
0.10150000 0.10150300 16421.16708903 0 379.06771367 0 7440.32334596 0 164.06337916 0 2371.14082198 0 11118
0.10250000 0.10250800 16404.69023016 0 49.31337123 0 7143.56413311 0 382.48171883 0 2134.78577375 0 11575
0.10350000 0.10349800 16085.25885949 0 162.19160799 0 6579.58322306 0 673.45975113 0 1526.49309791 0 11364
0.10450000 0.10450100 16210.59283264 0 80.14563847 0 6588.70041831 0 146.38151268 0 1992.46965138 0 12093
0.10550000 0.10551000 16090.75114578 0 -168.41326990 0 5815.26567828 0 137.24234829 0 1959.54888736 0 12067
0.10650000 0.10649700 16032.75260255 0 71.83372224 0 6053.41121184 0 551.11687709 0 1053.74785081 0 12054
0.10750000 0.10749900 15561.29474736 0 362.98080712 0 5320.31182234 0 -234.54039684 0 1333.27446621 0 12807
0.10850000 0.10850100 15647.41379640 0 167.86513973 0 5892.64100754 0 135.73087110 0 910.23660695 0 12736
0.10950000 0.10950300 15317.87661896 0 121.48497892 0 5357.82413770 0 336.06091510 0 1128.97240077 0 12933
0.11050000 0.11050200 15255.04486379 0 68.88183805 0 5656.37383589 0 77.51955670 0 1080.43816527 0 13428
0.11150000 0.11150900 15037.87986386 0 224.22917856 0 5136.17743216 0 -82.77622391 0 6.82815312 0 13453
0.11250000 0.11250000 14873.22112086 0 361.42868702 0 5505.12725602 0 -160.81524105 0 374.81009333 0 13668
0.11350000 0.11349100 14337.72320752 0 306.03238903 0 5627.55031744 0 -129.73768830 0 804.32116121 0 13791
0.11450000 0.11448600 14106.71764614 0 -168.75598857 0 5462.51809898 0 663.05516398 0 1001.16030804 0 14205
0.11550000 0.11549300 14417.58105019 0 -143.28496167 0 4754.81504128 0 745.75032175 0 268.76283272 0 14776
0.11650000 0.11649800 14262.80842252 0 171.26266803 0 4463.09774724 0 8.25756456 0 400.33824001 0 14553
0.11750000 0.11747300 14039.49206194 0 264.43161575 0 4342.44320200 0 -175.68066312 0 785.74295360 0 14568
0.11850000 0.11849100 13886.36712016 0 -95.34015834 0 4517.93273356 0 321.89301338 0 927.55488408 0 16015
0.11950000 0.11950300 13899.87814443 0 251.09085235 0 4207.80529587 0 174.27573629 0 -411.94344095 0 15270
0.12050000 0.12050700 13730.27634378 0 150.86651366 0 4111.13007258 0 -138.39682687 0 -402.55712367 0 15999
0.12150000 0.12150000 13875.60223903 0 69.64098186 0 3849.18097024 0 185.81612824 0 440.95918942 0 15670
0.12250000 0.12250700 13130.40883511 0 150.21073468 0 4296.72541092 0 -235.94312676 0 58.37026117 0 16887
0.12350000 0.12352200 13168.08591906 0 125.53169546 0 3817.72115436 0 534.67516885 0 477.46751485 0 16407
0.12450000 0.12449800 13122.39009712 0 -85.69372639 0 4118.61056651 0 392.12727201 0 409.86735673 0 16306
0.12550000 0.12549900 12992.66229494 0 276.05439200 0 3573.18259956 0 15.80559164 0 346.75879033 0 17523
0.12650000 0.12650100 12931.69791711 0 334.78121239 0 3930.68649879 0 73.16450321 0 524.66822323 0 17154
0.12750000 0.12750600 12499.12544886 0 96.84185925 0 4166.54724126 0 -189.65084253 0 709.87690461 0 18007
0.12850000 0.12850300 12278.11584852 0 297.63358484 0 4272.91085756 0 -307.06384040 0 581.49251565 0 17496
0.12950000 0.12949900 12078.63601045 0 204.59755044 0 4451.50902316 0 -321.75570622 0 619.95060272 0 18405
0.13050000 0.13049000 11891.89827656 0 24.73725745 0 4494.67839341 0 279.83747880 0 723.87015162 0 18100
0.13150000 0.13148800 11790.84020881 0 87.23683914 0 4623.92287440 0 618.64563549 0 499.16094724 0 19059
0.13250000 0.13249300 11742.50808946 0 -150.62265615 0 4042.97079972 0 94.87199585 0 767.51735078 0 18957
0.13350000 0.13349100 12009.54304891 0 61.07444324 0 3826.97016448 0 402.71530152 0 568.79105438 0 19468
0.13450000 0.13450700 11763.15908591 0 -66.80663260 0 3708.60041034 0 221.68625001 0 663.06395164 0 19953
0.13550000 0.13551000 11738.22410615 0 95.36388501 0 3341.91340843 0 78.58813592 0 638.94073180 0 19956
0.13650000 0.13649900 11710.65282897 0 109.73082718 0 3383.61084595 0 -340.94026224 0 219.79250969 0 19723
0.13750000 0.13749600 11617.17411630 0 406.60054484 0 3663.19018729 0 -245.95007238 0 -238.98585337 0 20946
0.13850000 0.13851100 11257.86874717 0 82.35749200 0 3776.28734659 0 1.07127374 0 -457.75020707 0 20955
0.13950000 0.13949800 11296.86397983 0 17.70954761 0 3379.43670837 0 -284.84973926 0 -1018.74111645 0 20506
0.14050000 0.14048300 11093.97892425 0 148.74649115 0 3751.37433597 0 -73.57862160 0 -1480.94007542 0 21447
0.14150000 0.14148400 10998.30329707 0 -28.25462744 0 3555.46448398 0 265.37189516 0 -1250.50571181 0 21771
0.14250000 0.14249400 10801.47074098 0 58.21010610 0 3531.70485349 0 -158.36018908 0 -1473.16299803 0 22470
0.14350000 0.14350900 10744.53770130 0 270.30067288 0 3541.18453963 0 216.74758618 0 -1061.99396945 0 22519
0.14450000 0.14449900 10560.18361966 0 121.16422940 0 3573.08373840 0 78.29089339 0 -1232.53495106 0 22218
0.14550000 0.14550500 10573.76055137 0 30.49493102 0 3282.22324102 0 463.27984090 0 -1206.01819285 0 23559
0.14650000 0.14650700 10528.43820490 0 98.14462956 0 3307.26806651 0 105.47232809 0 -1068.85822886 0 23044
0.14750000 0.14750500 10136.28896375 0 186.41039362 0 3109.98514295 0 14.31114054 0 -431.38503596 0 23649
0.14850000 0.14849900 9911.63248532 0 9.13447398 0 3048.51547478 0 270.85209842 0 148.58721485 0 23640
0.14950000 0.14949500 9985.73441195 0 17.95856787 0 2942.03102818 0 439.96947943 0 -289.68514812 0 24457
0.15050000 0.15050000 10063.84570758 0 37.36578117 0 2859.21833549 0 290.92860173 0 165.56387178 0 24591
0.15150000 0.15149900 9793.11993174 0 134.79937935 0 2467.72816869 0 -36.14770191 0 275.37884079 0 25020
0.15250000 0.15250500 9742.30529897 0 182.49988578 0 2764.08095236 0 -35.88484109 0 399.97025683 0 25297
0.15350000 0.15350100 9688.78846136 0 102.01658155 0 2799.16567719 0 86.25668573 0 629.15567454 0 25452
0.15450000 0.15450400 9443.68969335 0 140.78597140 0 2911.97723760 0 -31.19618613 0 552.24169733 0 26061
0.15550000 0.15549900 9635.41442318 0 -90.36151066 0 2762.85068023 0 290.96485082 0 386.65585641 0 26128
0.15650000 0.15649500 9377.44173611 0 135.29478357 0 2734.52146754 0 56.74762010 0 636.20227785 0 26331
0.15750000 0.15749700 9454.11405273 0 257.45091988 0 2756.27092126 0 -457.77547158 0 549.80861450 0 27345
0.15850000 0.15849900 9110.82419042 0 -15.67871983 0 3076.69090345 0 187.16503376 0 625.39675380 0 26980
0.15950000 0.15949700 8910.55346311 0 165.03771075 0 2842.25815542 0 29.21599723 0 320.77478389 0 27777
0.16050000 0.16050000 8676.80175858 0 284.28623069 0 3125.16582226 0 -151.98034932 0 802.01879480 0 28224
0.16150000 0.16150500 8702.81322646 0 59.62865380 0 3149.16711335 0 120.24042685 0 352.83875126 0 28075
0.16250000 0.16249700 8461.99844176 0 -24.84347827 0 3133.47015913 0 75.62977083 0 669.81397149 0 28590
0.16350000 0.16349900 8480.40858540 0 12.96124642 0 2928.28932788 0 147.67110150 0 -278.31941087 0 29163
0.16450000 0.16449100 8494.72148348 0 125.38779756 0 2661.29830672 0 -12.98881769 0 211.11909118 0 28996
0.16550000 0.16550500 8440.42474121 0 71.88139529 0 2632.76038715 0 9.70013552 0 -440.75707328 0 30777
0.16650000 0.16650700 8269.28510039 0 38.23729716 0 2426.82162040 0 166.27457362 0 84.67776327 0 29211
0.16750000 0.16749900 8110.95347120 0 -44.93799628 0 2222.79416927 0 394.20775006 0 -383.65816655 0 30922
0.16850000 0.16850800 8390.85136515 0 85.31618663 0 1935.11919794 0 276.13238246 0 -398.87839032 0 30867
0.16950000 0.16949900 8298.30634115 0 24.96134273 0 1664.64606727 0 -32.01958969 0 -551.91875089 0 30852
0.17050000 0.17049200 8035.40158099 0 -43.27163662 0 1736.92455485 0 -190.40877804 0 58.21153409 0 31257
0.17150000 0.17149500 8098.27727444 0 64.98725784 0 1768.05483355 0 107.29851328 0 -474.23585360 0 32608
0.17250000 0.17250900 7981.53323705 0 77.60117208 0 1536.52201268 0 126.05236420 0 -378.26144604 0 32361
0.17350000 0.17350400 8126.48565683 0 31.17465637 0 1739.07753108 0 126.48186099 0 -211.59472318 0 32508
0.17450000 0.17449800 8039.21322767 0 76.97263483 0 1646.01623217 0 -94.81234962 0 -349.69716350 0 32791
0.17550000 0.17549800 7995.36281393 0 119.57915558 0 1824.05418457 0 -30.73131902 0 -87.45411399 0 33633
0.17650000 0.17650100 7807.54859193 0 146.60779487 0 1907.36118302 0 -97.12449231 0 -414.96419841 0 33984
0.17750000 0.17750300 7728.98692883 0 3.93165314 0 1912.82051560 0 -173.68147091 0 -150.36561715 0 34069
0.17850000 0.17849800 7787.33697838 0 70.48866133 0 2131.65517056 0 -66.56409324 0 -533.06373206 0 34536
