### header ###
fiducial parameters:
Omega_m = 0.31
Omega_nu = 0
Omega_de = 0.69
Omega_k = 0
H_0 = 100
w_de = -1
zeff = 0
beta = 0
fgrowth = 0
b_1 = 2
gamma = 0.55
Lx = 3500 Ly = 3500 Lz = 3500
nx = 700 ny = 700 nz = 700
xoffset = -983.599254 yoffset = -42.9823471 zoffset = 800.977702
bins = 400 dk = 0.001
kx_ny = 0.628318531 ky_ny = 0.628318531 kz_ny = 0.628318531
############################
A(data) = 9.05929853 (not used)
A(ran) = 9.05124004 (used)
Ngal = 502791
weighted Ngal = 0
Nran = 25229228
weighted Nran = 0
SN(data) = 6756.66253
SN(ran) = 134.359423
SN(data+ran) = 6891.02195
############################
13 columns: k_central k_mean P_0(k) sigma^{lin}_{P_0(k)} P^img_1(k) sigma^{lin}_{P_1(k)} P_2(k) sigma^{lin}_{P_2(k)} P^img_3(k) sigma^{lin}_{P_3(k)} P_4(k) sigma^{lin}_{P_4(k)} N_modes
### header ###
0.00050000 0 0 0 0 0 0 0 0 0 0 0 0
0.00150000 0.00179520 59799.79344138 0 -18276.68108947 0 49007.78041739 0 -57978.99069030 0 -108196.28239462 0 3
0.00250000 0.00253879 82658.13975453 0 738.49391310 0 7759.64487090 0 -8607.86258106 0 9932.23954348 0 6
0.00350000 0.00331552 80830.30687699 0 -157.51547544 0 -767.09224782 0 -7194.40073501 0 140089.54950164 0 7
0.00450000 0.00420575 63353.52236290 0 1478.05113283 0 3821.55477019 0 -300.95641804 0 17723.16847709 0 24
0.00550000 0.00557378 58320.06166895 0 5631.49377899 0 21170.12735312 0 5381.80345965 0 -39203.17062273 0 45
0.00650000 0.00659388 68976.41522156 0 12354.67831941 0 4692.52153017 0 11004.78419489 0 15966.07624698 0 40
0.00750000 0.00754703 73726.69363436 0 -4931.64469069 0 38943.93470981 0 2347.73269781 0 18812.50853999 0 57
0.00850000 0.00846663 59594.60162556 0 2345.71153646 0 34429.05568743 0 -9206.55474046 0 5982.43988840 0 75
0.00950000 0.00948925 64111.01848811 0 -3229.35449319 0 20901.44470778 0 20530.27600026 0 -10309.61453451 0 112
0.01050000 0.01054430 67076.19401071 0 3116.43308705 0 28710.37735586 0 14259.40320502 0 -3830.01289108 0 105
0.01150000 0.01145670 73693.84976234 0 1894.04788106 0 32204.56989398 0 -13357.24025891 0 8153.05733791 0 144
0.01250000 0.01249090 67976.16004230 0 5235.68667517 0 35891.43183518 0 21131.79119481 0 25166.09516676 0 169
0.01350000 0.01339930 60223.02902294 0 -5134.81534516 0 24378.61115840 0 2080.47804691 0 -614.13097616 0 180
0.01450000 0.01448870 71043.16255274 0 -2616.17368255 0 21644.44119718 0 13407.32990988 0 18007.00983260 0 267
0.01550000 0.01550050 73093.32317932 0 -176.11894757 0 18065.44775873 0 8686.00683041 0 10878.24191876 0 238
0.01650000 0.01653350 75923.27861345 0 3036.86084327 0 14169.00017267 0 2637.56064537 0 24572.81840164 0 315
0.01750000 0.01747870 69123.60849415 0 1417.61401449 0 19284.62546953 0 3594.42676293 0 16236.40657821 0 297
0.01850000 0.01844180 73526.55472193 0 -955.67209452 0 18478.13815061 0 6823.46270351 0 23347.15979302 0 388
0.01950000 0.01947590 73020.93484601 0 -3208.53872815 0 21608.85118202 0 12328.42519094 0 18839.75027999 0 399
0.02050000 0.02045430 74310.08428416 0 -3693.22200873 0 5092.00846581 0 -13188.73691552 0 2974.38059443 0 462
0.02150000 0.02154770 71584.70198100 0 7001.70936279 0 20085.07127353 0 2323.39088497 0 12370.82564111 0 571
0.02250000 0.02255340 68243.08515603 0 3974.04260677 0 19152.26136993 0 -2658.62905558 0 11009.06817820 0 510
0.02350000 0.02348930 71315.79964421 0 -122.71415259 0 30175.06026385 0 7408.35823975 0 16227.72876587 0 555
0.02450000 0.02439640 67533.26207582 0 4440.06309853 0 33261.83500494 0 -11018.84444780 0 -898.18982620 0 592
0.02550000 0.02547300 64158.25215021 0 1087.80771502 0 31954.67086776 0 5791.44014035 0 11293.56860806 0 837
0.02650000 0.02652900 67606.08979204 0 -1151.35895969 0 32651.42230659 0 10429.07176133 0 13285.73069141 0 723
0.02750000 0.02749970 64594.44952741 0 -2905.41944777 0 24233.06557170 0 10479.39208833 0 23747.32777215 0 826
0.02850000 0.02848090 67841.59902818 0 3507.67060868 0 24975.95221538 0 2590.97507305 0 17461.62580393 0 831
0.02950000 0.02946900 62291.86342291 0 3738.86290780 0 24554.03478253 0 -5247.22047638 0 14750.74313658 0 996
0.03050000 0.03053250 57539.38809559 0 3459.66802650 0 28125.99809453 0 -993.89840710 0 15307.33142928 0 1041
0.03150000 0.03150510 51706.79974635 0 4545.88847078 0 35527.07356266 0 -730.47407666 0 14706.14577190 0 1036
0.03250000 0.03246190 50564.62388934 0 1880.77851738 0 27265.02729560 0 -199.03825826 0 6886.89861017 0 1059
0.03350000 0.03345080 47591.86901165 0 60.04233280 0 32771.04430200 0 7948.57951930 0 7101.73488072 0 1302
0.03450000 0.03451200 51110.77683809 0 311.65758865 0 26410.75708595 0 2418.12183891 0 2014.54864227 0 1339
0.03550000 0.03553350 48388.47021525 0 -253.75131583 0 23159.21375615 0 1169.19790556 0 937.69364458 0 1365
0.03650000 0.03647120 48321.57416823 0 -1648.67449873 0 20072.10947789 0 2431.22643400 0 1677.01469599 0 1308
0.03750000 0.03744890 47554.19192770 0 1142.02207299 0 18158.59693422 0 4138.36082801 0 -302.69198051 0 1579
0.03850000 0.03847530 45824.23159186 0 1575.57216820 0 17428.56224046 0 -3337.08019649 0 -2312.66994213 0 1662
0.03950000 0.03950240 45656.16763137 0 1791.89135605 0 18635.87661288 0 2174.91241739 0 -2747.25258717 0 1683
0.04050000 0.04050350 44722.36911623 0 1130.03790431 0 18520.75829223 0 475.01246288 0 -3415.29035327 0 1822
0.04150000 0.04152450 40590.85167693 0 -678.03702253 0 17744.25885645 0 432.57686208 0 -2471.57276909 0 1887
0.04250000 0.04250150 42359.25801680 0 1288.85285469 0 16663.48676017 0 364.73284645 0 -5501.17280989 0 1920
0.04350000 0.04349210 40096.32621932 0 210.10960896 0 14012.57985912 0 1915.52272045 0 -3631.67544855 0 2005
0.04450000 0.04448520 42402.42738705 0 -1542.82715734 0 11990.53973834 0 2804.36138002 0 -4925.91074380 0 2151
0.04550000 0.04548030 42453.50564955 0 501.31612038 0 10178.72236763 0 1736.21055763 0 -7383.70885888 0 2274
0.04650000 0.04648670 40826.36091308 0 1144.41670981 0 10322.33466956 0 -878.30006063 0 -6070.18465418 0 2311
0.04750000 0.04749250 39660.45837929 0 489.53406783 0 8489.69054923 0 1617.36846688 0 -4858.19085384 0 2568
0.04850000 0.04851840 40154.21491683 0 -459.44402816 0 10276.08961899 0 1981.40818680 0 -5207.21466304 0 2493
0.04950000 0.04949480 40104.34495731 0 572.43024327 0 7813.88669031 0 -917.28101335 0 -4267.15494153 0 2644
0.05050000 0.05050630 38840.46003610 0 2452.04219904 0 10910.10816381 0 -4056.41591656 0 -5960.50369695 0 2829
0.05150000 0.05149060 34512.64828477 0 1589.55552910 0 11957.80571205 0 -516.70111274 0 -2505.39426807 0 2784
0.05250000 0.05249300 33900.91743772 0 -1.86286268 0 15347.42511920 0 2007.39768552 0 -2398.54733057 0 3055
0.05350000 0.05348950 34909.85042932 0 622.06952677 0 12197.37924005 0 1976.11362281 0 -496.38734266 0 3009
0.05450000 0.05448610 34171.68715185 0 -144.95241978 0 11863.11869640 0 2595.54465525 0 26.41394261 0 3336
0.05550000 0.05550870 34045.25472144 0 100.20478615 0 9575.15305800 0 513.64190928 0 747.88242729 0 3349
0.05650000 0.05647670 33380.02900591 0 1002.06323990 0 11978.78624568 0 86.38981875 0 2124.69095155 0 3324
0.05750000 0.05747970 32879.79157056 0 514.88536289 0 10385.63876135 0 -635.03461779 0 5190.45220528 0 3639
0.05850000 0.05849280 31822.96584251 0 -709.47267234 0 10658.90197345 0 2978.08239539 0 5825.82185253 0 3846
0.05950000 0.05951020 32029.91518994 0 -693.00020730 0 9172.32681230 0 2320.82049499 0 3719.68384408 0 3787
0.06050000 0.06049470 33406.39198011 0 1513.88280859 0 10384.00206003 0 968.20659029 0 6110.34425153 0 3930
0.06150000 0.06148310 32725.56817152 0 342.91638684 0 9168.92159480 0 -1459.22357542 0 5334.58078212 0 4083
0.06250000 0.06249100 32425.35980287 0 -62.14730645 0 11399.78942492 0 -865.76995869 0 4142.73268790 0 4303
0.06350000 0.06350600 31271.86983610 0 553.00622358 0 11970.65766197 0 -892.32076907 0 3946.86677420 0 4470
0.06450000 0.06451750 31210.46607537 0 54.09297845 0 12140.69884553 0 -102.32590712 0 5516.62810351 0 4479
0.06550000 0.06550280 31337.00835151 0 330.37200496 0 12370.38625821 0 1182.35742351 0 2546.65232269 0 4636
0.06650000 0.06648880 30399.25539024 0 803.58299793 0 12747.92601783 0 445.39256291 0 4558.82829728 0 4653
0.06750000 0.06749660 30835.78230462 0 423.51019587 0 12993.32136929 0 657.90999019 0 2063.77051201 0 5220
0.06850000 0.06852730 30308.85235789 0 -23.86936637 0 11099.80074772 0 497.88893374 0 3512.99812638 0 5029
0.06950000 0.06949320 29394.27684477 0 49.08038844 0 11214.47968547 0 924.02993474 0 3310.56343828 0 5040
0.07050000 0.07048030 29293.21877702 0 326.28794087 0 10503.42633314 0 -441.05695212 0 1999.75242301 0 5475
0.07150000 0.07148790 28323.06132664 0 885.87282497 0 10394.41543484 0 1990.02009170 0 2505.22949948 0 5509
0.07250000 0.07249820 27915.31399242 0 480.89140612 0 10544.53060373 0 11.41341029 0 1382.05695304 0 5916
0.07350000 0.07351270 26870.02206558 0 439.24559610 0 9109.05567423 0 -113.90342692 0 1971.04973485 0 5721
0.07450000 0.07449140 25820.22646398 0 475.06848420 0 11003.79558336 0 -703.32241015 0 881.60092469 0 6028
0.07550000 0.07549160 25167.85269837 0 1104.55369592 0 10780.73186795 0 -1192.11172396 0 1443.33988347 0 6183
0.07650000 0.07648840 25556.92625920 0 586.81783644 0 11078.93005982 0 832.72616745 0 -569.58084515 0 6330
0.07750000 0.07749960 24111.24666177 0 -357.70711383 0 10776.00850174 0 1212.88355071 0 952.95780664 0 6583
0.07850000 0.07848650 24838.86474956 0 39.08684400 0 10445.54862020 0 747.02123680 0 65.52747912 0 6549
0.07950000 0.07947320 24861.60281481 0 157.92520000 0 10863.94000525 0 -667.04476075 0 -142.97409826 0 6828
0.08050000 0.08048110 23342.87580971 0 1052.73397476 0 11029.38963748 0 -438.00543785 0 1618.75252302 0 7147
0.08150000 0.08149960 22793.64718064 0 443.85252584 0 11738.11426042 0 -104.42418017 0 1953.12291240 0 7386
0.08250000 0.08250610 22281.98578980 0 476.79525901 0 11285.44002435 0 723.67242932 0 1322.67435366 0 7227
0.08350000 0.08350160 22252.87667246 0 367.95901542 0 12070.94680964 0 1713.51643068 0 1525.48251723 0 7798
0.08450000 0.08449610 21796.90706461 0 -156.57080220 0 10090.85677155 0 1432.11365029 0 2672.78816964 0 7371
0.08550000 0.08548940 21863.25388300 0 -194.99483709 0 9861.67464922 0 711.85852151 0 3423.06743066 0 8256
0.08650000 0.08650700 21387.07266160 0 161.27769155 0 8867.41704659 0 657.95063311 0 2594.62195115 0 8037
0.08750000 0.08749060 21079.94401223 0 302.47338751 0 7890.58097607 0 1143.25234512 0 3474.95855154 0 8155
0.08850000 0.08849210 20816.09457882 0 169.78524302 0 7174.99099526 0 -315.80975709 0 987.11982736 0 8718
0.08950000 0.08949900 20573.66506195 0 684.74749792 0 7920.39310606 0 -536.66886878 0 1544.52976609 0 8571
0.09050000 0.09049190 19346.90799607 0 1113.95649005 0 8787.29557418 0 -1063.80642393 0 1710.94604070 0 8932
0.09150000 0.09150830 18745.61249297 0 -21.35356972 0 8087.50140874 0 1076.60674636 0 2263.47004154 0 9285
0.09250000 0.09250820 19028.02585403 0 -541.00887340 0 7346.55903441 0 1759.09142232 0 82.77655345 0 9204
0.09350000 0.09350330 18961.01996129 0 443.25606355 0 7743.47558006 0 213.34127022 0 1736.58403310 0 9349
0.09450000 0.09448040 18191.22111479 0 152.79430615 0 6857.14140305 0 312.09038081 0 2663.82475841 0 9564
0.09550000 0.09549270 18300.29792052 0 111.75264761 0 6269.22510935 0 129.96397050 0 1447.86552737 0 10155
0.09650000 0.09649430 17642.32202290 0 724.71816063 0 7866.97512960 0 -722.58605509 0 1640.04062468 0 9913
0.09750000 0.09749140 17526.32493644 0 418.82088184 0 7283.57349523 0 -686.77305310 0 1765.37459784 0 10476
0.09850000 0.09850240 17037.18191939 0 -142.13707383 0 7607.88201612 0 1235.00647989 0 1744.15240361 0 10575
0.09950000 0.09950330 17335.08352780 0 -195.49902897 0 6789.97074171 0 308.04036890 0 -213.66641357 0 10882
0.10050000 0.10051200 16874.93978236 0 213.98167080 0 6024.55473967 0 151.76175633 0 1009.11863087 0 10875
0.10150000 0.10150300 16889.76895535 0 352.40376218 0 6767.69402852 0 133.94258269 0 803.61045936 0 11118
0.10250000 0.10250800 17070.79471149 0 -34.98608336 0 6186.15977149 0 207.03173173 0 -123.05687126 0 11575
0.10350000 0.10349800 16871.97394777 0 28.43367597 0 5578.22958655 0 725.83309474 0 386.69649932 0 11364
0.10450000 0.10450100 16446.87098887 0 -17.89255059 0 5067.42499237 0 342.36715822 0 189.39709890 0 12093
0.10550000 0.10551000 16317.69241531 0 382.03025289 0 5787.68341653 0 -355.04115806 0 515.08308520 0 12067
0.10650000 0.10649700 15925.98255706 0 516.57918398 0 5666.42471980 0 -35.92614308 0 585.05810791 0 12054
0.10750000 0.10749900 15388.28772920 0 101.97538940 0 5681.64933740 0 135.92310112 0 195.80000626 0 12807
0.10850000 0.10850100 15599.41121422 0 276.15984390 0 6084.32179909 0 39.24381354 0 40.70366324 0 12736
0.10950000 0.10950300 15165.08121435 0 276.23344053 0 6167.87045814 0 -478.98887815 0 1164.02417187 0 12933
0.11050000 0.11050200 15087.31044047 0 -199.35571241 0 6213.29166577 0 524.00145968 0 497.55719964 0 13428
0.11150000 0.11150900 14876.18695546 0 152.48563966 0 6155.79841288 0 290.00260226 0 9.25260207 0 13453
0.11250000 0.11250000 14773.48120183 0 393.13565577 0 6416.90170313 0 0.33016440 0 1052.71749791 0 13668
0.11350000 0.11349100 14455.14828842 0 71.29932279 0 6238.56716728 0 416.94471684 0 1130.78485524 0 13791
0.11450000 0.11448600 14483.15894850 0 -113.13011302 0 5814.56266564 0 648.27212620 0 964.49050939 0 14205
0.11550000 0.11549300 14331.79153833 0 94.67273571 0 5011.62336366 0 458.95521468 0 341.98379663 0 14776
0.11650000 0.11649800 14137.36460364 0 270.97842101 0 5495.13129497 0 -341.49498315 0 946.73834164 0 14553
0.11750000 0.11747300 13695.12571152 0 565.30235413 0 5135.57328067 0 -59.78869902 0 976.01112911 0 14568
0.11850000 0.11849100 13668.10366297 0 -191.28095310 0 5424.12701780 0 245.88306649 0 579.41862835 0 16015
0.11950000 0.11950300 13552.10657651 0 -84.42028489 0 4806.49745527 0 511.18246347 0 409.21267620 0 15270
0.12050000 0.12050700 13442.70023360 0 363.36197179 0 4514.69228465 0 181.60024929 0 60.99755124 0 15999
0.12150000 0.12150000 13346.47537778 0 53.34328137 0 4724.44269809 0 -213.13146488 0 1237.40111672 0 15670
0.12250000 0.12250700 13055.49405010 0 123.66761349 0 4633.83095887 0 246.51687633 0 446.25924569 0 16887
0.12350000 0.12352200 12921.15272743 0 157.87357251 0 4940.73991679 0 346.69837518 0 1132.47647942 0 16407
0.12450000 0.12449800 12974.86728736 0 8.19619375 0 4766.87610197 0 -259.01951684 0 731.61537375 0 16306
0.12550000 0.12549900 12875.12736832 0 62.75277609 0 4991.58750327 0 -9.81179371 0 1108.59601863 0 17523
0.12650000 0.12650100 12599.63428798 0 201.97992680 0 4614.79469458 0 260.42444367 0 713.63692381 0 17154
0.12750000 0.12750600 12564.92303862 0 167.87063202 0 5232.73182515 0 -42.52929920 0 918.50579319 0 18007
0.12850000 0.12850300 12495.83007708 0 78.86198132 0 4974.27581688 0 76.70527034 0 798.96288670 0 17496
0.12950000 0.12949900 12384.77604829 0 164.94104651 0 5087.95515852 0 -0.57753038 0 234.13836149 0 18405
0.13050000 0.13049000 12091.59780609 0 120.33928800 0 4761.25200081 0 176.46606006 0 1087.30132622 0 18100
0.13150000 0.13148800 12087.20397706 0 -242.32076960 0 4069.81709511 0 1117.35072297 0 669.42621608 0 19059
0.13250000 0.13249300 12513.29554749 0 -190.38680889 0 3704.52513391 0 537.10715322 0 688.29221949 0 18957
0.13350000 0.13349100 12353.03063353 0 135.05092606 0 3185.97641607 0 409.15226105 0 589.20258715 0 19468
0.13450000 0.13450700 11859.38394172 0 209.94703729 0 2728.67767493 0 -53.02791429 0 1293.82886607 0 19953
0.13550000 0.13551000 11805.99891898 0 88.95054231 0 2626.18062817 0 -123.74999779 0 912.45878599 0 19956
0.13650000 0.13649900 11684.07016332 0 256.89180513 0 3038.59640574 0 -353.28802028 0 466.72130749 0 19723
0.13750000 0.13749600 11418.13366113 0 387.00187044 0 3208.12131439 0 8.85162123 0 526.08523310 0 20946
0.13850000 0.13851100 11152.41685039 0 29.51961082 0 3196.89508121 0 -224.34341812 0 260.00593146 0 20955
0.13950000 0.13949800 10987.53841594 0 -73.21129749 0 3197.19166467 0 700.63338678 0 504.56535695 0 20506
0.14050000 0.14048300 11094.74784433 0 -11.48689709 0 2708.18046249 0 166.85346060 0 -96.88008557 0 21447
0.14150000 0.14148400 10931.04475915 0 197.70363269 0 2806.15186535 0 -268.32674519 0 645.54905066 0 21771
0.14250000 0.14249400 10912.88726068 0 244.02557527 0 3000.64470747 0 -58.93190236 0 148.03139548 0 22470
0.14350000 0.14350900 10718.66903287 0 13.37119067 0 2903.33237897 0 102.14279429 0 35.98150533 0 22519
0.14450000 0.14449900 10734.95915400 0 63.90165253 0 3009.80584101 0 -155.46685266 0 1.58712794 0 22218
0.14550000 0.14550500 10559.84309791 0 -21.77559699 0 2772.36332009 0 182.95464709 0 -187.49017710 0 23559
0.14650000 0.14650700 10358.71557395 0 14.74909545 0 2837.13934460 0 373.97526582 0 487.59309386 0 23044
0.14750000 0.14750500 10546.78244111 0 243.61035842 0 2736.49869061 0 -21.86358342 0 -444.10956484 0 23649
0.14850000 0.14849900 10247.39791541 0 230.95613081 0 2742.95761929 0 -158.05591642 0 269.23626780 0 23640
0.14950000 0.14949500 10023.70807936 0 14.85037321 0 2845.04823686 0 -101.30983415 0 109.31044759 0 24457
0.15050000 0.15050000 10107.31166128 0 -23.98206809 0 2809.61200571 0 96.27285839 0 60.10296764 0 24591
0.15150000 0.15149900 9808.10288874 0 235.57734049 0 2607.58374679 0 9.47830208 0 -216.93981620 0 25020
0.15250000 0.15250500 10003.62828068 0 211.51783117 0 3202.42032122 0 -37.96949328 0 -89.37487635 0 25297
0.15350000 0.15350100 9727.62991001 0 5.97796917 0 3088.88377902 0 -225.89773514 0 148.15771806 0 25452
0.15450000 0.15450400 9481.00428641 0 26.77434644 0 3193.12737282 0 32.64516110 0 -528.22173246 0 26061
0.15550000 0.15549900 9387.96495664 0 182.74923558 0 3298.27170156 0 -103.84595227 0 246.62232822 0 26128
0.15650000 0.15649500 9315.58760791 0 187.77248062 0 3363.36627868 0 31.12841132 0 -93.40028282 0 26331
0.15750000 0.15749700 9411.16437394 0 39.59444110 0 3392.35456572 0 526.81460871 0 196.98634010 0 27345
0.15850000 0.15849900 9179.65352221 0 40.62424478 0 2987.99047986 0 95.67793394 0 -130.95917277 0 26980
0.15950000 0.15949700 8986.48981337 0 75.85023121 0 3023.04225097 0 82.58157728 0 418.94061368 0 27777
0.16050000 0.16050000 8986.94018085 0 86.97529647 0 2811.76498194 0 207.34808742 0 798.58391895 0 28224
0.16150000 0.16150500 8737.84302842 0 64.78876662 0 2742.34248322 0 110.15768767 0 469.39385400 0 28075
0.16250000 0.16249700 8592.28645714 0 172.22821196 0 2552.11165526 0 242.04176146 0 845.49683153 0 28590
0.16350000 0.16349900 8570.66881830 0 86.14749908 0 2772.70384184 0 -47.09932078 0 407.13219815 0 29163
0.16450000 0.16449100 8570.77866403 0 7.14169676 0 2397.99810194 0 378.63492151 0 896.46085448 0 28996
0.16550000 0.16550500 8333.43500426 0 63.63604557 0 2272.42246819 0 -71.25044144 0 304.39349080 0 30777
0.16650000 0.16650700 8220.12913809 0 274.55939167 0 2422.52665252 0 -390.41807252 0 433.41498497 0 29211
0.16750000 0.16749900 7998.92181544 0 76.93902204 0 2488.56590288 0 -13.43479134 0 37.08303827 0 30922
0.16850000 0.16850800 8133.55972157 0 69.78180408 0 2702.76506821 0 -23.57728659 0 12.94048558 0 30867
0.16950000 0.16949900 7963.02423225 0 33.64618520 0 2259.33984225 0 -24.04105524 0 -279.74850376 0 30852
0.17050000 0.17049200 8008.79694619 0 -81.28232204 0 2586.63616688 0 201.07589647 0 -264.94129992 0 31257
0.17150000 0.17149500 7961.99168243 0 -25.86075954 0 2144.52908963 0 218.00092591 0 -190.15723133 0 32608
0.17250000 0.17250900 8021.75874184 0 39.79062556 0 1954.48499940 0 78.58110580 0 -356.20552275 0 32361
0.17350000 0.17350400 8041.28931189 0 101.61344774 0 1970.05013875 0 311.37308822 0 81.85286074 0 32508
0.17450000 0.17449800 7997.66957417 0 -1.44912875 0 1759.94821898 0 193.93812121 0 142.05908337 0 32791
0.17550000 0.17549800 7849.22406031 0 68.70432736 0 1758.44333254 0 -120.78745856 0 204.54702141 0 33633
0.17650000 0.17650100 7593.10776600 0 264.67547326 0 1751.18253006 0 -220.14950830 0 -325.03020731 0 33984
0.17750000 0.17750300 7602.42268355 0 57.23269883 0 1975.93786965 0 -27.12991705 0 110.15549076 0 34069
0.17850000 0.17849800 7519.12666966 0 -15.25076088 0 1871.41966154 0 142.99936278 0 -258.31430728 0 34536
