### header ###
fiducial parameters:
Omega_m = 0.31
Omega_nu = 0
Omega_de = 0.69
Omega_k = 0
H_0 = 100
w_de = -1
zeff = 0
beta = 0
fgrowth = 0
b_1 = 2
gamma = 0.55
Lx = 3500 Ly = 3500 Lz = 3500
nx = 700 ny = 700 nz = 700
xoffset = -983.599254 yoffset = -42.9823471 zoffset = 800.977702
bins = 400 dk = 0.001
kx_ny = 0.628318531 ky_ny = 0.628318531 kz_ny = 0.628318531
############################
A(data) = 9.07046578 (not used)
A(ran) = 9.0802066 (used)
Ngal = 504821
weighted Ngal = 0
Nran = 25229228
weighted Nran = 0
SN(data) = 6704.26213
SN(ran) = 134.789411
SN(data+ran) = 6839.05154
############################
13 columns: k_central k_mean P_0(k) sigma^{lin}_{P_0(k)} P^img_1(k) sigma^{lin}_{P_1(k)} P_2(k) sigma^{lin}_{P_2(k)} P^img_3(k) sigma^{lin}_{P_3(k)} P_4(k) sigma^{lin}_{P_4(k)} N_modes
### header ###
0.00050000 0 0 0 0 0 0 0 0 0 0 0 0
0.00150000 0.00179520 18533.50039642 0 -18622.25574288 0 -6845.37692581 0 -3780.40656130 0 -53658.86813978 0 3
0.00250000 0.00253879 27354.55156214 0 -23985.14376854 0 -28097.65789727 0 -15463.64189711 0 13673.04672063 0 6
0.00350000 0.00331552 39117.71064805 0 2775.28521639 0 11256.44075273 0 -64589.61631548 0 -71937.52645231 0 7
0.00450000 0.00420575 57387.58130252 0 12681.57919943 0 -137.01496764 0 -32336.49461068 0 39954.95477020 0 24
0.00550000 0.00557378 54934.39670793 0 -16950.95302463 0 16118.32242296 0 -9621.35417028 0 -16749.05658058 0 45
0.00650000 0.00659388 56720.04882675 0 -3388.10353613 0 33374.53671962 0 -18103.12484268 0 -12481.76982418 0 40
0.00750000 0.00754703 54422.18608846 0 20007.63003684 0 16452.14358371 0 13632.84318498 0 387.39731506 0 57
0.00850000 0.00846663 56362.39114350 0 -4806.98077647 0 35463.36304169 0 -14213.59753735 0 15476.93322994 0 75
0.00950000 0.00948925 69006.40310471 0 -3184.96583539 0 42739.98330247 0 27134.53057334 0 -24692.98962568 0 112
0.01050000 0.01054430 62814.94876923 0 5747.88631007 0 23095.61308090 0 -12751.11154387 0 2049.44662936 0 105
0.01150000 0.01145670 66844.08999207 0 363.41909157 0 44300.56152911 0 4222.40379283 0 28683.68484448 0 144
0.01250000 0.01249090 67008.85858079 0 -9383.39537445 0 18994.63275338 0 21180.67254280 0 9943.82826755 0 169
0.01350000 0.01339930 79911.22768911 0 -4737.42646288 0 28055.25744711 0 28789.68596989 0 680.00435948 0 180
0.01450000 0.01448870 86766.15020850 0 -4819.74484981 0 8272.70130246 0 -4257.34571821 0 11935.28733826 0 267
0.01550000 0.01550050 84003.20066711 0 7061.78399024 0 24561.83382906 0 -5506.02799097 0 40090.28470440 0 238
0.01650000 0.01653350 80420.36262826 0 3055.43575551 0 19032.30983734 0 -25.42994460 0 22255.95235279 0 315
0.01750000 0.01747870 80301.83909010 0 3492.12743848 0 32178.20691979 0 3681.98479098 0 15651.91747116 0 297
0.01850000 0.01844180 75369.32661818 0 5381.88035166 0 38108.99734791 0 -2328.58658780 0 21825.57679905 0 388
0.01950000 0.01947590 73506.45295411 0 -3566.02065823 0 32443.26465617 0 14955.71526095 0 37147.07832696 0 399
0.02050000 0.02045430 76092.77056838 0 -884.95121933 0 32034.30901897 0 13893.17755516 0 18918.18012822 0 462
0.02150000 0.02154770 74582.72137563 0 5079.20045418 0 29792.02821794 0 -7525.42082975 0 21239.98923474 0 571
0.02250000 0.02255340 71372.91942163 0 4824.68790747 0 36499.31808184 0 3151.41895072 0 24607.09026810 0 510
0.02350000 0.02348930 69414.80951328 0 -3168.96131314 0 30951.77939108 0 4622.13238907 0 22958.30592364 0 555
0.02450000 0.02439640 71651.26849084 0 -1726.52216462 0 32377.24737496 0 10763.39821242 0 9982.55987047 0 592
0.02550000 0.02547300 67482.18381332 0 3025.74445582 0 21362.13768184 0 2483.91942867 0 10628.94704402 0 837
0.02650000 0.02652900 62083.70577249 0 6088.30919894 0 28374.35928059 0 3751.87962631 0 18517.68261190 0 723
0.02750000 0.02749970 57595.40941576 0 1114.36291923 0 25766.73159551 0 -335.16786935 0 14256.76690760 0 826
0.02850000 0.02848090 57853.98625432 0 1030.08598302 0 28490.79574996 0 7795.80608384 0 13213.67189528 0 831
0.02950000 0.02946900 56364.58805802 0 33.97253685 0 21100.59500868 0 -811.44465653 0 3387.37855434 0 996
0.03050000 0.03053250 54773.47271961 0 2671.09654546 0 22269.35353133 0 1973.69701684 0 3595.75589621 0 1041
0.03150000 0.03150510 55609.83807595 0 1199.17480413 0 20064.09073990 0 -2047.75500519 0 5642.70902760 0 1036
0.03250000 0.03246190 48782.59667947 0 234.95561369 0 23920.99386467 0 -727.65323842 0 2029.22403124 0 1059
0.03350000 0.03345080 50960.61773090 0 1947.23518149 0 25859.55123382 0 939.58079415 0 3698.79118703 0 1302
0.03450000 0.03451200 49585.34924372 0 258.90857266 0 22488.60560006 0 3460.73353004 0 4613.33374643 0 1339
0.03550000 0.03553350 49627.09061952 0 -2872.53163746 0 19097.77788992 0 7841.24926061 0 5771.54707941 0 1365
0.03650000 0.03647120 53431.15795017 0 369.85714956 0 16698.63739243 0 4500.12674141 0 1181.88508689 0 1308
0.03750000 0.03744890 52237.02506485 0 125.65032884 0 14128.46709985 0 -614.00025975 0 6310.17559593 0 1579
0.03850000 0.03847530 51270.16298624 0 667.62584464 0 14546.75962375 0 1348.80665184 0 5301.03389746 0 1662
0.03950000 0.03950240 51352.65712633 0 -196.53926800 0 11962.52907826 0 2185.42465335 0 3576.18138787 0 1683
0.04050000 0.04050350 50346.58012360 0 2038.33024191 0 13956.44869323 0 -3254.03682778 0 -1922.64072349 0 1822
0.04150000 0.04152450 45843.23490243 0 2593.22691043 0 13630.86596191 0 136.57668319 0 -2192.18016549 0 1887
0.04250000 0.04250150 45452.29396426 0 424.30547893 0 14780.62117400 0 -3026.59026791 0 -1618.54381614 0 1920
0.04350000 0.04349210 42760.85399038 0 623.55903481 0 16243.98593329 0 -1961.49315671 0 -9241.46371213 0 2005
0.04450000 0.04448520 40770.99866727 0 3318.58217627 0 15403.99566800 0 -2729.64431732 0 -6953.46512001 0 2151
0.04550000 0.04548030 38833.86929255 0 1235.25912506 0 17007.63341915 0 619.83965853 0 -9106.17771622 0 2274
0.04650000 0.04648670 39153.19081749 0 -932.90766630 0 15557.01076405 0 4892.79225747 0 -7434.94090540 0 2311
0.04750000 0.04749250 38934.81751457 0 109.54200238 0 13442.15100497 0 4441.58995412 0 -10602.03484120 0 2568
0.04850000 0.04851840 38129.64834436 0 1591.29109157 0 10606.95592971 0 -2438.68495878 0 -6500.99959082 0 2493
0.04950000 0.04949480 35908.23823123 0 259.05247056 0 15000.97169999 0 -259.76646778 0 -4648.75899301 0 2644
0.05050000 0.05050630 33734.39131739 0 748.27787190 0 12691.02593185 0 -80.41322266 0 -3852.99261692 0 2829
0.05150000 0.05149060 34153.78229854 0 1122.93088585 0 14606.40585286 0 -2712.07998576 0 -7902.58711391 0 2784
0.05250000 0.05249300 33404.74429422 0 1877.79071364 0 16602.63222807 0 -1948.11394730 0 -9090.14024025 0 3055
0.05350000 0.05348950 33284.46322445 0 140.77498683 0 15782.19450197 0 1891.34567620 0 -8730.82388654 0 3009
0.05450000 0.05448610 33101.46024525 0 -1688.48258977 0 15052.15980821 0 2858.16381652 0 -4678.12075552 0 3336
0.05550000 0.05550870 34108.85539668 0 -101.69616157 0 14149.00825058 0 2372.38207868 0 -8172.63184625 0 3349
0.05650000 0.05647670 33404.08521986 0 1012.17124359 0 13197.08519068 0 -1673.81818537 0 -3484.50414511 0 3324
0.05750000 0.05747970 33433.96325729 0 1145.07578417 0 14104.41088590 0 960.35152244 0 -4196.99647645 0 3639
0.05850000 0.05849280 31606.78945411 0 755.10038993 0 14777.54549368 0 -449.95445591 0 -456.01684151 0 3846
0.05950000 0.05951020 30887.73933293 0 -200.73867010 0 13235.31150326 0 1763.97955712 0 -491.97483986 0 3787
0.06050000 0.06049470 31714.54811113 0 -253.76779269 0 14937.04148756 0 3391.76139880 0 1234.24854438 0 3930
0.06150000 0.06148310 31217.05681892 0 -884.02082603 0 11841.14955124 0 186.00506289 0 2002.33379756 0 4083
0.06250000 0.06249100 31895.24433009 0 1166.49570070 0 12819.21589388 0 578.77603085 0 3048.59236679 0 4303
0.06350000 0.06350600 31307.02046836 0 694.52596443 0 12427.28634418 0 -927.01334466 0 179.02985930 0 4470
0.06450000 0.06451750 31268.02523570 0 360.91021519 0 13032.20675623 0 971.00875476 0 729.39758855 0 4479
0.06550000 0.06550280 30415.40271193 0 -519.30335798 0 10711.01278578 0 1609.55843577 0 683.29314051 0 4636
0.06650000 0.06648880 30485.26459355 0 492.19343285 0 11885.96660737 0 -377.88687211 0 958.20733387 0 4653
0.06750000 0.06749660 29088.68603556 0 1022.48465879 0 11385.83901774 0 -404.67934310 0 -1679.91462316 0 5220
0.06850000 0.06852730 28096.55944001 0 986.16636646 0 13745.21536249 0 -1855.83255305 0 -1017.67341600 0 5029
0.06950000 0.06949320 27269.75066181 0 713.18985170 0 12559.76028951 0 2023.09463974 0 21.63839968 0 5040
0.07050000 0.07048030 27943.10496105 0 -991.30934335 0 11941.65839036 0 718.29767795 0 -1156.97207628 0 5475
0.07150000 0.07148790 26844.86739437 0 -153.23698442 0 9100.49869219 0 2516.76330069 0 165.69129282 0 5509
0.07250000 0.07249820 26898.80164574 0 1327.09015184 0 11083.21404312 0 954.53519126 0 1574.57257210 0 5916
0.07350000 0.07351270 26150.97194440 0 457.88531731 0 9637.98481317 0 348.89309279 0 4313.93823615 0 5721
0.07450000 0.07449140 25997.84700262 0 -25.78298876 0 10452.21625576 0 1593.96034271 0 3656.70928947 0 6028
0.07550000 0.07549160 24782.73358367 0 425.57968935 0 9750.73046614 0 -740.43378862 0 3178.78152102 0 6183
0.07650000 0.07648840 25013.18991643 0 768.58285432 0 11059.81690353 0 -1063.50215127 0 2593.95189222 0 6330
0.07750000 0.07749960 24560.51568035 0 -41.01946970 0 10245.98090555 0 424.90523659 0 3525.85007630 0 6583
0.07850000 0.07848650 24311.27572848 0 -340.13069924 0 10231.30551658 0 1500.33883060 0 2576.66217498 0 6549
0.07950000 0.07947320 24521.63029341 0 732.65012049 0 10284.29509471 0 -64.33795976 0 159.79587271 0 6828
0.08050000 0.08048110 24066.31975992 0 696.04732773 0 10273.89270448 0 -965.17924209 0 2897.27987948 0 7147
0.08150000 0.08149960 22357.66949489 0 27.06521792 0 10032.67149059 0 1719.56893017 0 2662.13313423 0 7386
0.08250000 0.08250610 22977.19938848 0 -431.90460624 0 9188.55102600 0 2318.42585816 0 3206.27590620 0 7227
0.08350000 0.08350160 23699.76457288 0 251.55220440 0 8143.74242036 0 970.52543357 0 2333.55161461 0 7798
0.08450000 0.08449610 23191.61824526 0 -92.20120688 0 6237.86415463 0 389.23613251 0 3219.88579162 0 7371
0.08550000 0.08548940 22013.08345301 0 473.67124657 0 7124.79149857 0 -62.08733068 0 4325.20840762 0 8256
0.08650000 0.08650700 22030.43907769 0 779.19504989 0 7937.64986959 0 -1534.28115987 0 2309.44047779 0 8037
0.08750000 0.08749060 20393.18853444 0 1254.18554362 0 8256.54299619 0 -1120.86578620 0 2541.88501819 0 8155
0.08850000 0.08849210 20469.20177670 0 354.07781104 0 9649.49664523 0 472.87925888 0 575.21922625 0 8718
0.08950000 0.08949900 19664.91137230 0 -298.26739467 0 8902.93016974 0 478.75930059 0 2042.28468804 0 8571
0.09050000 0.09049190 19580.87939205 0 -136.26581979 0 8181.56230375 0 1130.11479631 0 692.26973322 0 8932
0.09150000 0.09150830 19596.80702229 0 154.82315671 0 7561.40628953 0 681.81132167 0 1507.23714218 0 9285
0.09250000 0.09250820 19911.73471820 0 -42.53325365 0 6753.27128472 0 596.74239777 0 694.27991000 0 9204
0.09350000 0.09350330 19871.64102828 0 67.17077118 0 6168.54051707 0 475.76710301 0 15.67871983 0 9349
0.09450000 0.09448040 19608.78020641 0 276.25760659 0 6170.81432359 0 130.84493322 0 1999.71946929 0 9564
0.09550000 0.09549270 18981.45126629 0 726.73932198 0 6350.70866876 0 -811.24363885 0 197.64651291 0 10155
0.09650000 0.09649430 17997.78279163 0 580.29959107 0 6807.91953331 0 -81.72269355 0 1672.52200581 0 9913
0.09750000 0.09749140 17614.20151709 0 -28.64370100 0 6655.05822127 0 677.99198578 0 -458.09182727 0 10476
0.09850000 0.09850240 16898.33692196 0 524.69348775 0 7158.95351929 0 -38.97963457 0 1269.06963947 0 10575
0.09950000 0.09950330 17123.96004278 0 324.70835933 0 6463.81681263 0 91.46117622 0 726.77776799 0 10882
0.10050000 0.10051200 16425.23138088 0 10.20108696 0 6440.10112043 0 809.38395071 0 856.18701757 0 10875
0.10150000 0.10150300 16662.05876574 0 -254.70038290 0 5973.25678572 0 801.24438243 0 1747.94208115 0 11118
0.10250000 0.10250800 16770.25680566 0 183.29077501 0 5277.36214355 0 86.11564382 0 229.06678433 0 11575
0.10350000 0.10349800 16510.14212694 0 250.27579707 0 5206.20408236 0 226.63589841 0 1580.02092010 0 11364
0.10450000 0.10450100 16229.59614321 0 40.02327881 0 4961.35795952 0 178.54104582 0 1455.80737335 0 12093
0.10550000 0.10551000 16007.26839416 0 416.10659395 0 5266.17984866 0 642.52829320 0 1691.11888719 0 12067
0.10650000 0.10649700 15847.55270883 0 246.06980422 0 5170.03188485 0 -391.97129108 0 969.64007702 0 12054
0.10750000 0.10749900 15323.47875097 0 121.43554834 0 5710.06642667 0 188.82590113 0 2436.30130653 0 12807
0.10850000 0.10850100 15094.45041265 0 59.67138379 0 4975.70381132 0 398.83994431 0 1362.54835213 0 12736
0.10950000 0.10950300 15094.67010410 0 169.51721945 0 4925.73499064 0 67.98659539 0 1654.96865882 0 12933
0.11050000 0.11050200 15095.43902419 0 81.21267985 0 5183.41109426 0 -115.26990775 0 2152.45995103 0 13428
0.11150000 0.11150900 14952.52973490 0 11.41099369 0 5328.98963468 0 251.67193624 0 1134.92603910 0 13453
0.11250000 0.11250000 14648.25707440 0 79.92155319 0 4881.48913229 0 253.61840250 0 2142.60678943 0 13668
0.11350000 0.11349100 15030.19066305 0 29.15327532 0 4684.94217509 0 272.18892091 0 1314.58970824 0 13791
0.11450000 0.11448600 14782.37870562 0 22.91052303 0 4715.79783947 0 -41.70413811 0 1019.86373977 0 14205
0.11550000 0.11549300 14706.91469198 0 405.41970329 0 4731.20919480 0 208.67612224 0 443.99971911 0 14776
0.11650000 0.11649800 14363.97633599 0 263.77254140 0 4796.98481542 0 -320.72755023 0 1646.58742994 0 14553
0.11750000 0.11747300 13852.75432806 0 69.55002960 0 5006.81212087 0 -305.15142631 0 599.21722197 0 14568
0.11850000 0.11849100 13835.39870338 0 373.77205123 0 5710.05544210 0 -585.22727033 0 20.70778669 0 16015
0.11950000 0.11950300 13323.07823819 0 221.64450863 0 5468.98801223 0 -183.52035257 0 151.70903038 0 15270
0.12050000 0.12050700 13303.19616181 0 48.40395846 0 5747.43594259 0 86.38685292 0 -91.81037578 0 15999
0.12150000 0.12150000 13299.68109859 0 115.01726258 0 5986.83371743 0 293.22767277 0 33.99966875 0 15670
0.12250000 0.12250700 13137.32911583 0 82.01268627 0 5528.12895100 0 281.17649819 0 205.58835889 0 16887
0.12350000 0.12352200 13014.08221147 0 120.75120947 0 5609.70038699 0 613.56087685 0 816.84247549 0 16407
0.12450000 0.12449800 13005.18470768 0 44.34768535 0 5173.08559603 0 290.35410859 0 981.29690544 0 16306
0.12550000 0.12549900 12925.10717356 0 -182.37905548 0 4410.92102747 0 1513.89379316 0 1987.01031881 0 17523
0.12650000 0.12650100 13252.22774504 0 -289.41932146 0 4104.41849874 0 526.26538009 0 1866.60841875 0 17154
0.12750000 0.12750600 13210.70606068 0 237.58092653 0 3528.43145086 0 -138.49788493 0 2017.66826089 0 18007
0.12850000 0.12850300 13245.74684721 0 3.13509588 0 3665.70565441 0 259.25019286 0 2418.46236066 0 17496
0.12950000 0.12949900 12762.53549936 0 88.75457754 0 3472.64080672 0 48.30883206 0 1991.33824041 0 18405
0.13050000 0.13049000 12867.54801324 0 374.10048995 0 3778.08881649 0 -11.86004302 0 2075.99634129 0 18100
0.13150000 0.13148800 12466.72095974 0 217.89547401 0 3854.90393255 0 -458.07644887 0 1222.05566882 0 19059
0.13250000 0.13249300 12046.67090423 0 191.07664005 0 3869.68916725 0 -148.60698708 0 1475.95307946 0 18957
0.13350000 0.13349100 12132.02103319 0 244.48143503 0 3942.87937436 0 97.09725057 0 1053.25574196 0 19468
0.13450000 0.13450700 11804.13154164 0 30.72802365 0 3655.99529225 0 343.86325700 0 594.12147875 0 19953
0.13550000 0.13551000 11868.72082842 0 -8.82310528 0 3718.32175708 0 124.98356529 0 571.04618713 0 19956
0.13650000 0.13649900 11650.67706268 0 46.21099839 0 3218.54567377 0 -129.32686529 0 540.29707310 0 19723
0.13750000 0.13749600 11371.99845629 0 193.57013803 0 3575.29163749 0 -215.47667113 0 446.28011638 0 20946
0.13850000 0.13851100 11193.82868902 0 291.74255856 0 3555.12396223 0 -218.54576071 0 -225.17495026 0 20955
0.13950000 0.13949800 11107.70963998 0 176.49681687 0 3698.65937215 0 -107.50019003 0 -3.95094205 0 20506
0.14050000 0.14048300 11126.93264200 0 -148.90576746 0 3712.17039643 0 310.80738273 0 -731.01561609 0 21447
0.14150000 0.14148400 11173.39738402 0 65.98575549 0 3333.37839553 0 -65.36556652 0 -833.79826173 0 21771
0.14250000 0.14249400 10686.82475695 0 202.29738094 0 3402.59218737 0 -207.21737100 0 -760.14889949 0 22470
0.14350000 0.14350900 10747.18498329 0 182.99968383 0 3744.93737644 0 -2.08090645 0 -601.49102849 0 22519
0.14450000 0.14449900 10503.40436399 0 230.95613081 0 3716.94868550 0 75.52058418 0 -603.15189587 0 22218
0.14550000 0.14550500 10290.50137822 0 153.99272302 0 3627.78690986 0 195.46497680 0 -734.17587762 0 23559
0.14650000 0.14650700 10199.27450293 0 117.55469885 0 3854.26682734 0 50.42995303 0 -425.57639398 0 23044
0.14750000 0.14750500 10184.69797511 0 -195.70663740 0 3585.21070653 0 238.20265334 0 -795.78065603 0 23649
0.14850000 0.14849900 9872.76906752 0 204.54482449 0 3649.15190353 0 240.42373392 0 60.81169227 0 23640
0.14950000 0.14949500 9985.47078221 0 24.38992527 0 3183.48291809 0 201.45596268 0 402.40663503 0 24457
0.15050000 0.15050000 10195.15528821 0 -57.05386999 0 3153.76964926 0 751.83028267 0 248.52156082 0 24591
0.15150000 0.15149900 10062.52755887 0 36.93112163 0 2860.26186988 0 0.99788361 0 45.38001548 0 25020
0.15250000 0.15250500 9864.21208548 0 59.41522356 0 2798.97893945 0 -266.65489324 0 618.00962874 0 25297
0.15350000 0.15350100 9642.22485819 0 235.45541174 0 2922.77507244 0 -80.37939017 0 362.88963517 0 25452
0.15450000 0.15450400 9562.52079954 0 168.01233300 0 3153.01171375 0 95.93145788 0 352.06983118 0 26061
0.15550000 0.15549900 9701.22299752 0 -42.05718227 0 3121.73863561 0 -181.36517943 0 -288.12314189 0 26128
0.15650000 0.15649500 9530.79735392 0 167.50814112 0 3125.70406631 0 -11.65836626 0 -382.39274379 0 26331
0.15750000 0.15749700 9155.57533911 0 138.16944621 0 2996.58041562 0 -155.98093066 0 -165.43095845 0 27345
0.15850000 0.15849900 9109.35225769 0 88.47062634 0 3087.58759945 0 207.53043132 0 -233.95821450 0 26980
0.15950000 0.15949700 9273.03337373 0 -53.34229276 0 2716.21018505 0 357.34791830 0 -93.06854873 0 27777
0.16050000 0.16050000 9155.35564766 0 -69.86715421 0 2465.42140845 0 641.65282277 0 -262.95419074 0 28224
0.16150000 0.16150500 9104.81562922 0 171.20884362 0 2338.80224030 0 -129.68606081 0 -157.09476631 0 28075
0.16250000 0.16249700 8792.34847757 0 252.53642210 0 2391.01191378 0 -205.70369690 0 402.99980195 0 28590
0.16350000 0.16349900 8712.62244977 0 86.21944803 0 2394.40614671 0 109.01595120 0 118.43016929 0 29163
0.16450000 0.16449100 8600.73359346 0 85.61661469 0 2683.70683478 0 29.08901557 0 212.85355519 0 28996
0.16550000 0.16550500 8562.25463571 0 76.77007931 0 2535.72267297 0 -26.72238941 0 199.16787622 0 30777
0.16650000 0.16650700 8498.17063927 0 29.98810284 0 2550.31018536 0 115.68512460 0 417.48515781 0 29211
0.16750000 0.16749900 8335.12662844 0 49.55536136 0 2319.67809944 0 233.21016510 0 302.44592608 0 30922
0.16850000 0.16850800 8510.56123714 0 44.06691967 0 2530.26334039 0 245.70951024 0 814.93335678 0 30867
0.16950000 0.16949900 8323.61479638 0 59.27571948 0 2204.37304105 0 -22.66095354 0 521.69689635 0 30852
0.17050000 0.17049200 8215.04328098 0 107.19415984 0 2326.49951901 0 167.79044464 0 718.29438258 0 31257
0.17150000 0.17149500 8152.22251039 0 82.74645572 0 2239.02936755 0 252.77039350 0 1057.36067674 0 32608
0.17250000 0.17250900 8099.93594490 0 -4.15042189 0 2141.47537845 0 -123.94991701 0 625.12543486 0 32361
0.17350000 0.17350400 8016.02479495 0 99.73058215 0 1991.14051810 0 83.99957576 0 887.81379894 0 32508
0.17450000 0.17449800 8071.06848816 0 -36.13155459 0 1890.00555835 0 201.61414053 0 589.52333667 0 32791
0.17550000 0.17549800 7878.04757876 0 133.48782138 0 1941.63304948 0 59.66479304 0 1152.67710840 0 33633
0.17650000 0.17650100 7920.12947632 0 85.10550253 0 1594.42169475 0 113.80346731 0 684.01922076 0 33984
0.17750000 0.17750300 7893.43696495 0 -38.96711216 0 1806.03948553 0 321.39431379 0 839.05218280 0 34069
0.17850000 0.17849800 7816.00671282 0 -18.65180424 0 1501.38236499 0 -57.41877749 0 572.38300961 0 34536
