### header ###
fiducial parameters:
Omega_m = 0.31
Omega_nu = 0
Omega_de = 0.69
Omega_k = 0
H_0 = 100
w_de = -1
zeff = 0
beta = 0
fgrowth = 0
b_1 = 2
gamma = 0.55
Lx = 3500 Ly = 3500 Lz = 3500
nx = 700 ny = 700 nz = 700
xoffset = -983.599254 yoffset = -42.9823471 zoffset = 800.977702
bins = 400 dk = 0.001
kx_ny = 0.628318531 ky_ny = 0.628318531 kz_ny = 0.628318531
############################
A(data) = 9.11139879 (not used)
A(ran) = 9.10440309 (used)
Ngal = 505551
weighted Ngal = 0
Nran = 25229228
weighted Nran = 0
SN(data) = 6730.49579
SN(ran) = 135.148592
SN(data+ran) = 6865.64438
############################
13 columns: k_central k_mean P_0(k) sigma^{lin}_{P_0(k)} P^img_1(k) sigma^{lin}_{P_1(k)} P_2(k) sigma^{lin}_{P_2(k)} P^img_3(k) sigma^{lin}_{P_3(k)} P_4(k) sigma^{lin}_{P_4(k)} N_modes
### header ###
0.00050000 0 0 0 0 0 0 0 0 0 0 0 0
0.00150000 0.00179520 17969.33274864 0 -13161.82471269 0 5351.98034509 0 -16371.73651241 0 5720.04041857 0 3
0.00250000 0.00253879 29562.56049672 0 -4347.19952193 0 -15514.17093099 0 -7625.17173336 0 2471.41898508 0 6
0.00350000 0.00331552 32137.01477261 0 -607.12501577 0 -17466.01963296 0 7159.88720796 0 19122.82271541 0 7
0.00450000 0.00420575 55506.14371079 0 -19361.95686050 0 -27671.67617256 0 7076.76694724 0 23924.17939071 0 24
0.00550000 0.00557378 64038.08092617 0 -13731.48464676 0 -29827.61823311 0 -6119.61523079 0 -10108.60784084 0 45
0.00650000 0.00659388 76411.10348179 0 -9026.00132094 0 -39807.65165188 0 -25548.35829259 0 16140.95064248 0 40
0.00750000 0.00754703 67936.50573529 0 3898.47973198 0 -39824.56789366 0 -15491.98209437 0 -29894.95366303 0 57
0.00850000 0.00846663 70126.06058792 0 15809.98547060 0 -4728.53994366 0 -45368.04229256 0 -21726.16641719 0 75
0.00950000 0.00948925 56089.53436058 0 8590.50695638 0 13445.88575964 0 -3537.39486209 0 -26992.28035841 0 112
0.01050000 0.01054430 58729.67638051 0 -5571.00173779 0 599.37759673 0 -1645.98327845 0 -25137.31558660 0 105
0.01150000 0.01145670 51796.43385861 0 -8465.33775182 0 12438.49060821 0 -5502.97427979 0 -23709.10145957 0 144
0.01250000 0.01249090 55009.64103011 0 8435.96500474 0 6193.76109572 0 -7574.64269949 0 -32851.78091047 0 169
0.01350000 0.01339930 65826.36934241 0 -604.68204683 0 11072.99839062 0 -14585.31547351 0 -23923.41047063 0 180
0.01450000 0.01448870 62906.23056738 0 -10290.99568398 0 6534.09610800 0 6217.83927881 0 -37902.37753765 0 267
0.01550000 0.01550050 68887.33033793 0 -5388.55897179 0 14358.92343261 0 -1603.71464316 0 -15308.53973226 0 238
0.01650000 0.01653350 83337.20603151 0 -304.92734103 0 5383.20948494 0 -14429.33454285 0 -41414.80446626 0 315
0.01750000 0.01747870 78305.83240635 0 1352.32171506 0 16758.61315873 0 -8642.87041388 0 -26091.87494392 0 297
0.01850000 0.01844180 82336.07208644 0 2815.73041264 0 26573.87798879 0 -9618.81673401 0 -44636.14022147 0 388
0.01950000 0.01947590 80290.96436325 0 4210.24387099 0 43916.21133448 0 -16303.96169958 0 -25554.39980751 0 399
0.02050000 0.02045430 76097.27424314 0 4471.00663949 0 39529.30258267 0 10706.65191046 0 -30749.00418123 0 462
0.02150000 0.02154770 77848.98403269 0 -686.02500371 0 41427.21703328 0 9618.30045910 0 -11619.81041372 0 571
0.02250000 0.02255340 70444.61319278 0 -1063.44503149 0 31869.10104735 0 6883.97671386 0 -2035.81477479 0 510
0.02350000 0.02348930 71402.68761333 0 5498.37174388 0 46057.76360494 0 6034.82531504 0 -2630.06916687 0 555
0.02450000 0.02439640 63935.48501826 0 5689.61315252 0 27031.38543680 0 681.70696823 0 8903.80893555 0 592
0.02550000 0.02547300 63123.28572159 0 2979.43349782 0 38941.62794957 0 10196.59426722 0 13534.86079755 0 837
0.02650000 0.02652900 59505.51674193 0 -3111.75365913 0 26387.14025490 0 9011.09525595 0 7315.69238546 0 723
0.02750000 0.02749970 61697.81773771 0 694.06461238 0 30036.87434078 0 1384.45158986 0 7525.03636971 0 826
0.02850000 0.02848090 60693.49826660 0 -135.05312297 0 17533.46490861 0 1896.16790356 0 9428.31129174 0 831
0.02950000 0.02946900 61708.25308166 0 -277.33299625 0 23619.68703876 0 -1075.75104815 0 110.44768039 0 996
0.03050000 0.03053250 60994.91493823 0 388.22555183 0 16598.12855331 0 1859.25973969 0 -2075.11757549 0 1041
0.03150000 0.03150510 59972.03153946 0 1154.05017997 0 22224.09709230 0 -1601.61658980 0 -4459.52776115 0 1036
0.03250000 0.03246190 62021.09370878 0 1665.36006448 0 25526.49899315 0 -7932.03675300 0 -9606.38219785 0 1059
0.03350000 0.03345080 54785.88528663 0 3632.71898295 0 26760.17633977 0 -2768.12327507 0 -2316.45961967 0 1302
0.03450000 0.03451200 56664.35704376 0 -108.47671853 0 27021.71901293 0 5697.88453568 0 -6612.19641906 0 1339
0.03550000 0.03553350 53515.84900477 0 -242.58330089 0 28676.21533513 0 7843.40223684 0 4524.06212506 0 1365
0.03650000 0.03647120 55073.46139681 0 1637.53614214 0 25771.67465317 0 2315.27328583 0 1605.63694336 0 1308
0.03750000 0.03744890 53852.30646294 0 1009.67115487 0 20971.30658940 0 6588.55761886 0 9570.56150666 0 1579
0.03850000 0.03847530 52116.41445791 0 524.78026587 0 21024.03253779 0 2310.30825903 0 7531.96763501 0 1662
0.03950000 0.03950240 50071.96580907 0 1561.38010043 0 21417.71961910 0 -433.71376534 0 9066.49045548 0 1683
0.04050000 0.04050350 46522.74056231 0 4354.21866381 0 20814.11735576 0 -1332.11010151 0 7997.18625298 0 1822
0.04150000 0.04152450 42952.31509047 0 2217.43369785 0 27599.94691361 0 -1898.06823462 0 6357.66190320 0 1887
0.04250000 0.04250150 39978.02237262 0 448.88895237 0 22525.95314683 0 2674.45782467 0 1211.07109624 0 1920
0.04350000 0.04349210 38931.74183425 0 2091.80314124 0 23116.92315171 0 2159.44613919 0 944.89403190 0 2005
0.04450000 0.04448520 37522.20148061 0 -595.47477809 0 23221.60612841 0 1402.57613462 0 3021.27373478 0 2151
0.04550000 0.04548030 37030.64185760 0 1208.78630514 0 17838.50648920 0 4788.94410829 0 -1447.82158908 0 2274
0.04650000 0.04648670 36550.94557297 0 311.22699340 0 17554.00605934 0 -1294.61975529 0 1699.42322406 0 2311
0.04750000 0.04749250 35473.46884846 0 -522.34937996 0 14877.06572127 0 4504.01528010 0 1475.79929545 0 2568
0.04850000 0.04851840 36767.23180709 0 -831.39373879 0 13243.98931560 0 2783.80924472 0 2602.34410567 0 2493
0.04950000 0.04949480 36342.78792255 0 -163.71736512 0 12223.08313989 0 -6.31713981 0 3578.83965444 0 2644
0.05050000 0.05050630 36861.58928557 0 1088.83587101 0 14194.37453534 0 -375.04406473 0 1453.06123021 0 2829
0.05150000 0.05149060 36072.01820842 0 407.82422623 0 12617.20960411 0 399.72969469 0 6055.50926521 0 2784
0.05250000 0.05249300 36097.39257108 0 -844.87620318 0 14477.88635366 0 1829.28284112 0 2042.28468804 0 3055
0.05350000 0.05348950 37696.52664748 0 -202.94327381 0 13527.06175102 0 -80.10960907 0 3174.17898511 0 3009
0.05450000 0.05448610 37458.49095964 0 1838.96024956 0 15266.35897355 0 -1760.05806471 0 2141.24470243 0 3336
0.05550000 0.05550870 35145.03012828 0 735.66538566 0 16324.39300459 0 -483.99235096 0 4385.75537169 0 3349
0.05650000 0.05647670 36157.47818310 0 -125.80850669 0 16710.61057655 0 1166.60554643 0 1272.69454842 0 3324
0.05750000 0.05747970 35585.62133452 0 -94.59848000 0 14098.69890815 0 1405.42113892 0 1872.91356341 0 3639
0.05850000 0.05849280 34915.23286988 0 275.22615523 0 15472.86893808 0 1800.98658215 0 1285.57945206 0 3846
0.05950000 0.05951020 33790.96186618 0 519.82951901 0 13788.82411563 0 114.77450353 0 2482.59029539 0 3787
0.06050000 0.06049470 34541.75740211 0 541.16046051 0 12820.42419686 0 1472.25127850 0 1293.66409748 0 3930
0.06150000 0.06148310 32874.84851290 0 249.43328035 0 13514.20980110 0 -398.47745342 0 2985.20039842 0 4083
0.06250000 0.06249100 32926.14646685 0 -124.68258800 0 9905.68983155 0 2174.45106534 0 328.89897377 0 4303
0.06350000 0.06350600 32768.51785031 0 717.05861817 0 11665.61608139 0 252.91099603 0 755.78582726 0 4470
0.06450000 0.06451750 31183.88340972 0 1201.32778036 0 11711.09221187 0 -542.18861650 0 1562.28083538 0 4479
0.06550000 0.06550280 30105.41807369 0 1316.67677704 0 11377.82027976 0 -773.59841016 0 1209.53325608 0 4636
0.06650000 0.06648880 29101.53798548 0 -89.61379080 0 13218.28541576 0 1615.20450608 0 4202.30202501 0 4653
0.06750000 0.06749660 29307.60856710 0 -369.88900482 0 11541.16087404 0 1661.63629438 0 2212.21602587 0 5220
0.06850000 0.06852730 29678.77727463 0 12.08083292 0 10596.72929264 0 3127.80211967 0 4361.40257428 0 5029
0.06950000 0.06949320 29184.69119992 0 -247.22428280 0 8589.36456084 0 -1043.81669874 0 3284.15652580 0 5040
0.07050000 0.07048030 30031.27220876 0 879.50506824 0 10677.96020688 0 -706.30911544 0 2147.24227906 0 5475
0.07150000 0.07148790 28451.69067157 0 1313.48026641 0 10941.78767114 0 -1248.93491793 0 1724.35820382 0 5509
0.07250000 0.07249820 27912.12846637 0 -25.30494016 0 11716.36480671 0 -774.09161747 0 2042.69111723 0 5916
0.07350000 0.07351270 26873.86666598 0 -0.77825587 0 11924.52245713 0 1121.50289141 0 1344.03934734 0 5721
0.07450000 0.07449140 27014.46919502 0 169.27555885 0 11052.12770272 0 793.83748514 0 -186.87504104 0 6028
0.07550000 0.07549160 26973.49673929 0 -8.37652748 0 10409.32149983 0 1319.38996646 0 1260.97400948 0 6183
0.07650000 0.07648840 26828.06099832 0 492.40433665 0 9057.54901340 0 632.27529315 0 384.26012113 0 6330
0.07750000 0.07749960 26494.56937475 0 296.03862490 0 9661.30506076 0 109.78465159 0 2177.43886908 0 6583
0.07850000 0.07848650 26274.32869449 0 181.68702741 0 9650.66100993 0 298.64855934 0 -1491.47428052 0 6549
0.07950000 0.07947320 25564.17607711 0 888.33007385 0 8975.06585788 0 -1013.31473760 0 -284.93981276 0 6828
0.08050000 0.08048110 24062.25546806 0 502.82869603 0 9767.27323245 0 37.07062570 0 1374.74122770 0 7147
0.08150000 0.08149960 24679.14906423 0 -460.45021501 0 9276.37268379 0 2028.77366377 0 40.03184678 0 7386
0.08250000 0.08250610 24643.66889479 0 -377.98573327 0 8195.23809662 0 878.54501660 0 -1338.48115361 0 7227
0.08350000 0.08350160 25006.70901861 0 145.04139482 0 6075.68792504 0 1427.17059263 0 -189.13127225 0 7798
0.08450000 0.08449610 24523.60751648 0 310.99082509 0 7228.60669403 0 -1233.61143918 0 144.57125511 0 7371
0.08550000 0.08548940 23643.52356126 0 532.07402207 0 6952.60832335 0 -238.62116556 0 110.56631377 0 8256
0.08650000 0.08650700 23267.85117898 0 568.24512112 0 7427.51533433 0 779.69814331 0 67.54589433 0 8037
0.08750000 0.08749060 22830.44549879 0 392.54688268 0 6969.61244171 0 601.25266327 0 820.45200604 0 8155
0.08850000 0.08849210 22567.58467692 0 484.67009909 0 7460.34822178 0 810.23086126 0 602.52797215 0 8718
0.08950000 0.08949900 22461.03432288 0 139.60293294 0 7032.19155170 0 -591.48518133 0 819.64244305 0 8571
0.09050000 0.09049190 20914.51634915 0 445.79240135 0 7048.37182712 0 16.33329051 0 2074.01911823 0 8932
0.09150000 0.09150830 20731.73306140 0 504.72023942 0 7267.62389584 0 -113.88695007 0 1963.14084259 0 9285
0.09250000 0.09250820 20573.88475340 0 476.22625815 0 7419.17804375 0 1335.28464299 0 2306.46365862 0 9204
0.09350000 0.09350330 19803.31698682 0 -155.31856093 0 6698.83174301 0 998.51082913 0 3250.31305767 0 9349
0.09450000 0.09448040 19805.73359279 0 -41.25849400 0 6268.36831269 0 781.90823931 0 3208.96712648 0 9564
0.09550000 0.09549270 19402.27024188 0 684.30372119 0 5750.64343778 0 -8.56057400 0 2175.24195457 0 10155
0.09650000 0.09649430 18821.29619805 0 560.26373068 0 6386.44148337 0 -487.68316735 0 3207.39633260 0 9913
0.09750000 0.09749140 17866.73684073 0 456.88022892 0 6752.87584011 0 -718.05052507 0 2369.93251900 0 10476
0.09850000 0.09850240 17708.33930411 0 412.45532203 0 6789.08099133 0 400.71720777 0 1859.41352371 0 10575
0.09950000 0.09950330 17368.47662844 0 -189.77496820 0 6453.71100585 0 410.06178366 0 1369.49060201 0 10882
0.10050000 0.10051200 17341.78411707 0 318.11761578 0 6682.86017447 0 303.95960018 0 1027.01359807 0 10875
0.10150000 0.10150300 16473.67334597 0 212.35485560 0 5249.77988179 0 -613.48618175 0 1348.34529979 0 11118
0.10250000 0.10250800 16219.38049071 0 395.59839694 0 6683.10183507 0 383.35938617 0 1076.91321593 0 11575
0.10350000 0.10349800 15855.46160109 0 450.55421357 0 6336.65940043 0 12.73287715 0 400.13392696 0 11364
0.10450000 0.10450100 15600.61951720 0 240.21063321 0 6230.89993561 0 9.92049704 0 828.98592048 0 12093
0.10550000 0.10551000 15178.59223863 0 114.50977533 0 6167.44205981 0 344.60361719 0 1107.51953051 0 12067
0.10650000 0.10649700 15434.75247122 0 -51.27939003 0 6086.41985245 0 962.12443246 0 472.21688916 0 12054
0.10750000 0.10749900 15755.94137350 0 -502.68479813 0 4846.76689836 0 429.65386732 0 775.82937685 0 12807
0.10850000 0.10850100 15744.07803511 0 54.73173134 0 4741.04038726 0 330.42033708 0 499.10822129 0 12736
0.10950000 0.10950300 15742.86973213 0 212.61848534 0 4128.56258927 0 -47.48916326 0 386.72835459 0 12933
0.11050000 0.11050200 15329.08088299 0 125.22083206 0 4420.60942049 0 -181.12571575 0 394.02760307 0 13428
0.11150000 0.11150900 15182.87622193 0 458.94093473 0 5037.37120179 0 -494.08058242 0 320.58914462 0 13453
0.11250000 0.11250000 14949.45405458 0 180.08327981 0 4616.48631876 0 308.72470777 0 310.63382649 0 13668
0.11350000 0.11349100 14498.97673302 0 187.76588988 0 5023.70639350 0 299.97769262 0 30.58862942 0 13791
0.11450000 0.11448600 14316.08359954 0 285.59559174 0 4451.42114658 0 90.00099699 0 865.07573370 0 14205
0.11550000 0.11549300 14201.95389042 0 -103.41217150 0 4502.85091541 0 703.44653582 0 818.06505842 0 14776
0.11650000 0.11649800 14602.45140673 0 -228.07487742 0 4265.26559505 0 165.61110544 0 466.37639192 0 14553
0.11750000 0.11747300 13883.29143983 0 316.50398207 0 4066.70846106 0 36.42857743 0 978.32448010 0 14568
0.11850000 0.11849100 14415.05459850 0 10.05350922 0 4307.65506064 0 -464.72980449 0 373.63144870 0 16015
0.11950000 0.11950300 14170.64785856 0 -136.05930982 0 4108.27408371 0 455.22155846 0 216.62346050 0 15270
0.12050000 0.12050700 14113.52808114 0 386.79206511 0 4930.90872433 0 -342.90869764 0 66.44425155 0 15999
0.12150000 0.12150000 13722.69698869 0 315.70210827 0 4048.84754605 0 -174.35812058 0 531.83236147 0 15670
0.12250000 0.12250700 13897.13200129 0 -65.90018567 0 5066.71099515 0 362.15366881 0 556.37189662 0 16887
0.12350000 0.12352200 13764.87774741 0 61.75032399 0 4415.33682565 0 287.82875535 0 -38.56749341 0 16407
0.12450000 0.12449800 13394.47795996 0 211.52222500 0 4297.27463955 0 191.96309506 0 428.02046138 0 16306
0.12550000 0.12549900 13040.11564849 0 99.94708808 0 4127.20050227 0 103.63307125 0 1010.99259896 0 17523
0.12650000 0.12650100 13334.61203940 0 44.21279479 0 4311.73033706 0 486.33096647 0 566.93466161 0 17154
0.12750000 0.12750600 12985.74201421 0 213.86852970 0 4106.71427441 0 315.69222216 0 952.04169328 0 18007
0.12850000 0.12850300 12933.12591155 0 75.07834529 0 3563.39534539 0 -186.81682281 0 873.80187816 0 17496
0.12950000 0.12949900 12778.79266678 0 -49.29140208 0 3653.87526974 0 156.16547147 0 795.01722823 0 18405
0.13050000 0.13049000 12722.55165516 0 163.85467228 0 3701.40551530 0 394.35054950 0 478.30014545 0 18100
0.13150000 0.13148800 12661.25774016 0 174.90405384 0 3405.67885226 0 -90.45498937 0 1061.22724628 0 19059
0.13250000 0.13249300 12406.41565627 0 122.82729369 0 3715.60856765 0 72.07329577 0 1163.04654491 0 18957
0.13350000 0.13349100 12468.80802853 0 61.05093626 0 3557.63942936 0 -137.83112138 0 674.90312397 0 19468
0.13450000 0.13450700 12148.05850916 0 151.60577540 0 3964.36519832 0 -42.13231675 0 661.08563012 0 19953
0.13550000 0.13551000 12062.59853448 0 89.23559197 0 3746.76081549 0 -217.89217864 0 969.63788010 0 19956
0.13650000 0.13649900 11956.26787189 0 -40.50605078 0 3876.69732455 0 649.71000675 0 1037.41928367 0 19723
0.13750000 0.13749600 12059.19331698 0 189.57175361 0 3626.39186914 0 176.97464577 0 777.01461223 0 20946
0.13850000 0.13851100 11900.35639745 0 218.23489730 0 3880.44306380 0 78.01188524 0 1031.86328686 0 20955
0.13950000 0.13949800 11759.75386841 0 162.33770281 0 3611.94715620 0 70.90299941 0 576.51540582 0 20506
0.14050000 0.14048300 11782.82147083 0 -68.68202868 0 3415.88352019 0 -151.71012884 0 1037.78067611 0 21447
0.14150000 0.14148400 11235.24052765 0 -67.42879879 0 3408.07348909 0 291.28010805 0 1377.60820114 0 21771
0.14250000 0.14249400 11404.95217403 0 155.42840665 0 3136.39205543 0 385.84299804 0 611.33759936 0 22470
0.14350000 0.14350900 11071.79008764 0 308.42482894 0 3201.76124686 0 -170.95839537 0 982.72599833 0 22519
0.14450000 0.14449900 10942.89711297 0 228.58566005 0 3448.94708366 0 -134.39844245 0 950.04469799 0 22218
0.14550000 0.14550500 10668.89793450 0 156.19512982 0 3354.96308066 0 185.44375123 0 693.43519637 0 23559
0.14650000 0.14650700 10727.86312012 0 137.18962234 0 3373.35125516 0 -98.58302385 0 596.22392594 0 23044
0.14750000 0.14750500 10354.05811517 0 34.37248514 0 3407.33752272 0 17.74942161 0 501.76978323 0 23649
0.14850000 0.14849900 10061.00070328 0 360.04902470 0 3681.71017666 0 -190.53619908 0 1047.80519705 0 23640
0.14950000 0.14949500 9914.73013478 0 186.85636727 0 3529.88141444 0 -18.90444941 0 443.40545373 0 24457
0.15050000 0.15050000 9907.43637859 0 -74.16091379 0 3790.46842979 0 144.17581050 0 359.31195988 0 24591
0.15150000 0.15149900 9789.67077594 0 -39.45263027 0 3520.88504950 0 506.41296206 0 626.29529184 0 25020
0.15250000 0.15250500 9641.86236729 0 158.63150802 0 3411.12720027 0 -135.81655077 0 805.62173460 0 25297
0.15350000 0.15350100 9794.81155591 0 119.61101084 0 3185.05371197 0 230.30035183 0 620.35483499 0 25452
0.15450000 0.15450400 9502.72078640 0 116.87475381 0 3515.12913347 0 -51.91407863 0 793.86165120 0 26061
0.15550000 0.15549900 9460.84759572 0 -9.60333947 0 3029.50117964 0 -52.60973161 0 386.67233326 0 26128
0.15650000 0.15649500 9173.10671695 0 261.60198985 0 3486.34955330 0 -156.82125046 0 421.91084211 0 26331
0.15750000 0.15749700 9089.63494991 0 200.24106896 0 3192.20466872 0 157.43418961 0 531.64232836 0 27345
0.15850000 0.15849900 8869.52608452 0 43.25504991 0 3260.89120107 0 206.82302485 0 163.77778027 0 26980
0.15950000 0.15949700 8839.13177219 0 51.12516663 0 3095.80405975 0 66.95118957 0 308.01071055 0 27777
0.16050000 0.16050000 8636.26868576 0 36.93320870 0 2780.43698093 0 164.76858872 0 407.18821948 0 28224
0.16150000 0.16150500 8760.30647935 0 -11.96033216 0 2866.56701455 0 303.10280352 0 489.28361958 0 28075
0.16250000 0.16249700 8627.96434889 0 24.92377550 0 2713.39813447 0 490.79180139 0 560.31645663 0 28590
0.16350000 0.16349900 8855.64158478 0 36.92639826 0 2299.97177623 0 177.69743065 0 843.93592377 0 29163
0.16450000 0.16449100 8661.18169637 0 -46.35127138 0 2533.29508243 0 -7.72491165 0 1139.35282185 0 28996
0.16550000 0.16550500 8670.13412303 0 157.08048637 0 2340.31811132 0 -35.77334768 0 1029.98822032 0 30777
0.16650000 0.16650700 8518.51406769 0 149.98555094 0 2696.74552244 0 -76.41198225 0 1359.36282609 0 29211
0.16750000 0.16749900 8573.72252948 0 -41.61483353 0 2635.47357658 0 84.93908625 0 1330.44044648 0 30922
0.16850000 0.16850800 8554.73020349 0 52.49955635 0 2690.59416179 0 143.20916811 0 1259.40321560 0 30867
0.16950000 0.16949900 8564.13299762 0 77.77033449 0 2656.78364739 0 -179.09137291 0 1274.03466627 0 30852
0.17050000 0.17049200 8352.72391372 0 136.15707252 0 2723.46000296 0 -14.91452311 0 1153.99525711 0 31257
0.17150000 0.17149500 8232.71745827 0 99.74541132 0 2891.46904059 0 -201.98102525 0 944.06909050 0 32608
0.17250000 0.17250900 7908.17826135 0 233.15524224 0 2806.50337167 0 4.92637210 0 979.67338561 0 32361
0.17350000 0.17350400 7939.38543205 0 19.80562375 0 2744.40758287 0 443.11106719 0 1042.51722381 0 32508
0.17450000 0.17449800 7973.58040650 0 29.79817958 0 2517.79585051 0 44.67184008 0 432.56258214 0 32791
0.17550000 0.17549800 7846.67563947 0 114.24394868 0 2557.61492612 0 23.09209802 0 844.00732349 0 33633
0.17650000 0.17650100 7677.49125257 0 -12.28448690 0 2415.01320487 0 25.03406060 0 697.82353312 0 33984
0.17750000 0.17750300 7716.27777835 0 -151.72770415 0 1994.54573560 0 395.04257757 0 671.00579762 0 34069
0.17850000 0.17849800 7850.58614731 0 61.49196685 0 1842.40940535 0 128.09988853 0 243.55653402 0 34536
