### header ###
fiducial parameters:
Omega_m = 0.31
Omega_nu = 0
Omega_de = 0.69
Omega_k = 0
H_0 = 100
w_de = -1
zeff = 0
beta = 0
fgrowth = 0
b_1 = 2
gamma = 0.55
Lx = 3500 Ly = 3500 Lz = 3500
nx = 700 ny = 700 nz = 700
xoffset = -983.599254 yoffset = -42.9823471 zoffset = 800.977702
bins = 400 dk = 0.001
kx_ny = 0.628318531 ky_ny = 0.628318531 kz_ny = 0.628318531
############################
A(data) = 9.12209989 (not used)
A(ran) = 9.13067687 (used)
Ngal = 506965
weighted Ngal = 0
Nran = 25229228
weighted Nran = 0
SN(data) = 6679.43212
SN(ran) = 135.538608
SN(data+ran) = 6814.97072
############################
13 columns: k_central k_mean P_0(k) sigma^{lin}_{P_0(k)} P^img_1(k) sigma^{lin}_{P_1(k)} P_2(k) sigma^{lin}_{P_2(k)} P^img_3(k) sigma^{lin}_{P_3(k)} P_4(k) sigma^{lin}_{P_4(k)} N_modes
### header ###
0.00050000 0 0 0 0 0 0 0 0 0 0 0 0
0.00150000 0.00179520 55748.90276483 0 -73512.71416048 0 -40664.00893033 0 -52918.39810207 0 -167624.57759130 0 3
0.00250000 0.00253879 69780.48593452 0 -69677.99987233 0 -64182.96743851 0 47.76905017 0 21593.80231758 0 6
0.00350000 0.00331552 79644.85180401 0 -9274.38447615 0 7043.90110608 0 -138148.57552652 0 -66177.21659066 0 7
0.00450000 0.00420575 74794.06455209 0 29343.96750235 0 -14849.05506119 0 -52841.06671110 0 36316.75448553 0 24
0.00550000 0.00557378 84149.62501962 0 -17094.08200536 0 -4903.05184826 0 41028.25735712 0 -39736.69131301 0 45
0.00650000 0.00659388 82784.57218494 0 -15642.25104728 0 -20759.41418430 0 14585.31547351 0 17090.78663359 0 40
0.00750000 0.00754703 87014.07201166 0 14632.98851851 0 -11631.01467776 0 -52086.31672904 0 5081.49622985 0 57
0.00850000 0.00846663 69059.23889882 0 15773.18715245 0 8031.73273374 0 -27347.08205279 0 5880.45911655 0 75
0.00950000 0.00948925 57051.45338153 0 9078.68333104 0 31357.98888514 0 -12754.73645283 0 -6511.95120968 0 112
0.01050000 0.01054430 48951.20986859 0 -1867.70687601 0 32085.49712720 0 8605.01757676 0 -7202.65014902 0 105
0.01150000 0.01145670 65604.04159336 0 -2113.82720926 0 39186.80360959 0 7442.09186215 0 -18954.20952629 0 144
0.01250000 0.01249090 66461.71702051 0 -2510.88655436 0 30737.36053429 0 5269.82672675 0 -8456.47320175 0 169
0.01350000 0.01339930 64995.93565526 0 1600.51813254 0 12387.52219143 0 7891.04232812 0 6828.69136006 0 180
0.01450000 0.01448870 67256.45084677 0 559.49261369 0 39473.72064541 0 -3524.44405101 0 -449.79188423 0 267
0.01550000 0.01550050 72929.43335641 0 -5746.33748533 0 20893.86535270 0 22597.90209724 0 22405.12284844 0 238
0.01650000 0.01653350 73676.05475476 0 -3981.36931668 0 17854.98334807 0 10790.18958494 0 -5298.72713722 0 315
0.01750000 0.01747870 77166.40269248 0 5945.58664739 0 11901.89423761 0 11517.87358017 0 16967.75942068 0 297
0.01850000 0.01844180 71989.81301780 0 -896.34881184 0 5378.93648620 0 -2123.93301604 0 20842.01817011 0 388
0.01950000 0.01947590 72413.48798226 0 506.98415983 0 10300.92573760 0 1241.65214630 0 15849.63977762 0 399
0.02050000 0.02045430 70485.91518569 0 1738.51731788 0 8426.35350373 0 4199.76458874 0 11972.63488504 0 462
0.02150000 0.02154770 68084.02854505 0 -614.82410269 0 5384.29695762 0 -2917.99678337 0 6525.51715682 0 571
0.02250000 0.02255340 67787.88446826 0 258.88989888 0 5611.20527344 0 -8369.11289601 0 -1021.91126410 0 510
0.02350000 0.02348930 65137.41695011 0 6861.99658413 0 19831.76702981 0 -11994.38433875 0 -15393.67016977 0 555
0.02450000 0.02439640 64473.50938329 0 4337.42325233 0 23356.38683398 0 -14644.63216545 0 -12666.31064355 0 592
0.02550000 0.02547300 59387.65227813 0 -30.29918593 0 32952.94882395 0 3764.47893106 0 -4485.83581248 0 837
0.02650000 0.02652900 63191.60976305 0 -3022.92142067 0 28343.05324874 0 7650.63397261 0 -19058.45312008 0 723
0.02750000 0.02749970 65543.73628989 0 2979.89484987 0 35897.80288728 0 -739.68903460 0 -16113.37936530 0 826
0.02850000 0.02848090 61948.59552974 0 2658.27754926 0 31984.98828808 0 471.05362292 0 3824.10319103 0 831
0.02950000 0.02946900 60164.04186818 0 -1172.84478366 0 37684.55346336 0 9772.40302785 0 3870.13953472 0 996
0.03050000 0.03053250 59436.75331757 0 1383.03458000 0 28108.42277840 0 7337.88122207 0 3579.09229961 0 1041
0.03150000 0.03150510 61593.46429819 0 -69.55156744 0 28275.05874446 0 6770.95644658 0 20990.52959141 0 1036
0.03250000 0.03246190 56407.42789108 0 1445.89928888 0 23100.66598429 0 3633.99319337 0 9496.25087315 0 1059
0.03350000 0.03345080 55967.16622202 0 2896.68671256 0 27132.22381310 0 -2687.07909857 0 13891.85940645 0 1302
0.03450000 0.03451200 50997.30620332 0 2903.22253325 0 23838.93910748 0 2866.76473685 0 14314.32606793 0 1339
0.03550000 0.03553350 51530.93673932 0 -369.46939415 0 25075.80198014 0 2387.81540316 0 10298.55306992 0 1365
0.03650000 0.03647120 49443.42856596 0 -294.62381195 0 22998.50945928 0 -348.88100976 0 -54.31552589 0 1308
0.03750000 0.03744890 50653.48908153 0 2545.33417398 0 22998.94884219 0 233.52432388 0 -471.47762742 0 1579
0.03850000 0.03847530 47582.86166214 0 1074.45596704 0 23105.82873340 0 -5148.99642836 0 -1737.52870634 0 1662
0.03950000 0.03950240 45374.30349893 0 -416.96778444 0 25475.31088493 0 4260.31155281 0 4815.38397449 0 1683
0.04050000 0.04050350 44146.88735869 0 -1106.86045616 0 19410.61851704 0 6082.19079201 0 -372.52969607 0 1822
0.04150000 0.04152450 47966.22324523 0 1931.76890330 0 17367.59786264 0 7491.47850048 0 636.15504419 0 1887
0.04250000 0.04250150 45168.67230021 0 168.52201717 0 15824.26541496 0 -755.76825194 0 7542.72153157 0 1920
0.04350000 0.04349210 45762.60813968 0 2307.86968391 0 19001.77272556 0 649.75174813 0 9514.06784988 0 2005
0.04450000 0.04448520 42664.84882602 0 225.79997244 0 17640.12510838 0 1629.86891047 0 7281.66217960 0 2151
0.04550000 0.04548030 40660.71355855 0 989.53094105 0 16397.66010370 0 -2139.17960278 0 8217.59170182 0 2274
0.04650000 0.04648670 39071.35575176 0 1473.66828837 0 20472.60699420 0 -1429.37849172 0 6448.74597905 0 2311
0.04750000 0.04749250 37728.82129087 0 1483.14797451 0 19711.26626859 0 1010.52904999 0 6466.98036953 0 2568
0.04850000 0.04851840 37916.21809910 0 807.40672765 0 21189.57004659 0 180.96094716 0 3757.72341892 0 2493
0.04950000 0.04949480 36892.34608880 0 -343.70068533 0 17850.91905622 0 3114.25814168 0 6310.52710226 0 2644
0.05050000 0.05050630 37736.29080022 0 -1083.71046944 0 18051.60719728 0 355.66727870 0 1485.44375018 0 2829
0.05150000 0.05149060 37568.22683973 0 1112.52849561 0 18898.18820612 0 -159.24884100 0 2670.29467166 0 2784
0.05250000 0.05249300 36240.19201464 0 597.70794170 0 17964.60938243 0 -77.01437621 0 2739.77209324 0 3055
0.05350000 0.05348950 36969.78732549 0 -335.55892013 0 16766.85158816 0 279.17291215 0 -1083.65225121 0 3009
0.05450000 0.05448610 36859.94159968 0 1068.54956237 0 17206.89356577 0 1781.08253663 0 -2043.00966983 0 3336
0.05550000 0.05550870 35941.52148616 0 -95.51525242 0 16577.03817396 0 220.57570972 0 2056.09229578 0 3349
0.05650000 0.05647670 35468.19625362 0 347.96160103 0 15970.25038456 0 1780.02801766 0 -99.33766399 0 3324
0.05750000 0.05747970 35520.48281911 0 -85.71877121 0 15410.80610300 0 1036.95793162 0 1052.08039270 0 3639
0.05850000 0.05849280 35525.31603105 0 338.48411181 0 12961.02672590 0 3177.14481971 0 1901.36360640 0 3846
0.05950000 0.05951020 34842.62484512 0 407.84949074 0 14173.39400171 0 -663.51981140 0 1268.81699430 0 3787
0.06050000 0.06049470 33025.88638589 0 1535.55537029 0 13330.76743899 0 -199.25575280 0 3506.96759604 0 3930
0.06150000 0.06148310 32306.50672754 0 706.36623522 0 13836.38731491 0 924.95373730 0 1461.75002712 0 4083
0.06250000 0.06249100 32064.73628502 0 31.09842344 0 13943.04751468 0 574.92923354 0 2252.26577751 0 4303
0.06350000 0.06350600 30619.60591622 0 749.20387137 0 12598.97521362 0 770.85446393 0 -479.68749697 0 4470
0.06450000 0.06451750 31277.03258521 0 -131.00311106 0 12704.97633903 0 -15.61478962 0 -231.78985987 0 4479
0.06550000 0.06550280 29769.61968988 0 341.67293323 0 11261.49365612 0 421.78232261 0 -341.52683841 0 4636
0.06650000 0.06648880 29303.54427525 0 1081.44435212 0 10399.27061592 0 966.71268842 0 -1554.61360372 0 4653
0.06750000 0.06749660 28804.51514288 0 304.01562150 0 10486.51009136 0 152.98763463 0 -1408.12334377 0 5220
0.06850000 0.06852730 27760.76105620 0 772.18030184 0 11323.66633693 0 904.96071674 0 -2207.40478308 0 5029
0.06950000 0.06949320 26750.83945307 0 376.89057138 0 9645.27856936 0 739.93399057 0 859.69768696 0 5040
0.07050000 0.07048030 27607.52626869 0 -646.75955056 0 9494.40546496 0 1570.43138824 0 529.07083992 0 5475
0.07150000 0.07148790 27941.12773799 0 -745.51964572 0 7468.31203690 0 1812.05903131 0 1270.59649506 0 5509
0.07250000 0.07249820 27879.17474863 0 -252.04870708 0 7285.86927090 0 1353.69478663 0 2099.37151175 0 5916
0.07350000 0.07351270 28473.00074237 0 298.20038878 0 7675.64584437 0 -563.33062335 0 2515.30235254 0 5721
0.07450000 0.07449140 28200.69318808 0 649.61114560 0 7409.08322154 0 -2210.29372567 0 1107.13507047 0 6028
0.07550000 0.07549160 27686.61519128 0 976.81190445 0 9190.40741877 0 -454.91728580 0 1204.80988987 0 6183
0.07650000 0.07648840 26761.16495130 0 -61.47120601 0 9437.28568754 0 677.80744496 0 514.47783525 0 6330
0.07750000 0.07749960 26949.00114244 0 453.10483132 0 10247.28806968 0 -423.86170220 0 -2089.70508787 0 6583
0.07850000 0.07848650 25538.91156017 0 1371.73145481 0 10262.76533245 0 -928.97299241 0 12.03370911 0 6549
0.07950000 0.07947320 24348.62327526 0 585.82483108 0 10588.15034146 0 21.30666559 0 814.97399970 0 6828
0.08050000 0.08048110 24445.39735970 0 -352.70144410 0 9669.68628964 0 2079.99472571 0 320.11900491 0 7147
0.08150000 0.08149960 24226.03544525 0 305.49414497 0 8561.27700875 0 984.78450723 0 -1015.24912083 0 7386
0.08250000 0.08250610 23227.31810615 0 609.63938444 0 8578.85232488 0 155.87108493 0 285.98444561 0 7227
0.08350000 0.08350160 23066.72365501 0 55.53931712 0 7885.93450187 0 620.00442712 0 -230.58045843 0 7798
0.08450000 0.08449610 23319.36882439 0 496.26211854 0 8037.66440294 0 -787.49828830 0 -1219.22164909 0 7371
0.08550000 0.08548940 21640.04736815 0 401.64101032 0 7683.77442809 0 -482.61598402 0 -121.47948663 0 8256
0.08650000 0.08650700 21561.61751992 0 234.78535281 0 8311.19124479 0 954.31769672 0 -2077.87470320 0 8037
0.08750000 0.08749060 20945.60268956 0 273.89812040 0 7731.35959651 0 137.98380694 0 -234.27786556 0 8155
0.08850000 0.08849210 21347.52820031 0 488.89806108 0 8183.91300229 0 824.44929201 0 -1760.46449389 0 8718
0.08950000 0.08949900 20385.71902509 0 269.05941618 0 7336.35436648 0 33.35948786 0 84.67303990 0 8571
0.09050000 0.09049190 20260.93428056 0 254.06108078 0 7724.31848548 0 154.58808685 0 342.37484742 0 8932
0.09150000 0.09150830 19502.12000664 0 136.57009245 0 7939.23164804 0 115.07548082 0 914.04056444 0 9285
0.09250000 0.09250820 19505.96460705 0 169.79842451 0 7705.38108235 0 306.63763898 0 -211.36844098 0 9204
0.09350000 0.09350330 19214.65374219 0 363.25542144 0 7465.29127944 0 -91.01564196 0 114.50318459 0 9349
0.09450000 0.09448040 18725.84026232 0 320.43645906 0 7796.99241768 0 -12.83305646 0 1125.24863066 0 9564
0.09550000 0.09549270 18460.45298875 0 422.74896499 0 7502.40815019 0 558.37218728 0 641.29911953 0 10155
0.09650000 0.09649430 18302.38498931 0 -227.11702269 0 7000.20447635 0 1001.83146542 0 1215.24523382 0 9913
0.09750000 0.09749140 18116.52602123 0 -143.71555691 0 6711.85944609 0 863.26767305 0 1103.26850092 0 10476
0.09850000 0.09850240 18145.08590994 0 647.78880501 0 6229.46095661 0 796.48037330 0 1821.51674830 0 10575
0.09950000 0.09950330 17851.90766775 0 127.96477829 0 6004.91432390 0 -777.98345153 0 1752.12720330 0 10882
0.10050000 0.10051200 17304.98579892 0 345.67900685 0 6589.83182928 0 220.11655459 0 686.06235126 0 10875
0.10150000 0.10150300 16901.85198519 0 445.71001706 0 6603.37580727 0 -61.27051786 0 2095.55986506 0 11118
0.10250000 0.10250800 16032.86244828 0 479.21406189 0 6531.24011913 0 -520.42378439 0 1492.23221603 0 11575
0.10350000 0.10349800 16176.43081192 0 -16.01012438 0 6932.12209549 0 904.33569456 0 1399.88491434 0 11364
0.10450000 0.10450100 16111.95137086 0 -145.20726187 0 6395.51474032 0 487.97755390 0 857.92148158 0 12093
0.10550000 0.10551000 15794.05784036 0 180.11623353 0 6069.64641012 0 186.29615407 0 1785.55325767 0 12067
0.10650000 0.10649700 16204.44147200 0 -121.60580922 0 5687.09768540 0 141.45053804 0 1370.79776614 0 12054
0.10750000 0.10749900 16040.22211191 0 -112.45895563 0 5838.71774074 0 506.59530596 0 850.82215232 0 12807
0.10850000 0.10850100 15927.74008867 0 97.13284058 0 5079.34325362 0 100.13031075 0 561.34131725 0 12736
0.10950000 0.10950300 16083.83086505 0 376.35672115 0 5399.54354437 0 30.50053315 0 1469.94451826 0 12933
0.11050000 0.11050200 15614.35023293 0 -139.24154050 0 4491.43794450 0 720.65496723 0 630.75502831 0 13428
0.11150000 0.11150900 15339.29653549 0 448.29358853 0 5632.70208198 0 79.75085293 0 559.55961958 0 13453
0.11250000 0.11250000 14941.76485377 0 594.11818338 0 4546.97594347 0 -731.85593589 0 1465.62758124 0 13668
0.11350000 0.11349100 14439.76988680 0 130.29790150 0 5298.05707829 0 149.34075653 0 955.81050014 0 13791
0.11450000 0.11448600 14489.53000060 0 191.34576208 0 5169.33985678 0 612.10871635 0 852.15677789 0 14205
0.11550000 0.11549300 14049.48802299 0 -121.11370037 0 5206.34688181 0 196.74358105 0 1194.40749963 0 14776
0.11650000 0.11649800 14238.42267139 0 -173.98903894 0 4526.74236077 0 455.78616549 0 927.52193037 0 14553
0.11750000 0.11747300 13851.43617935 0 216.23900046 0 4506.93717641 0 -390.18739649 0 631.46792707 0 14568
0.11850000 0.11849100 14211.94985147 0 169.35794314 0 3800.81589716 0 494.65287865 0 763.21798907 0 16015
0.11950000 0.11950300 13858.79584298 0 -12.61611115 0 4157.36413858 0 418.84065407 0 931.77735379 0 15270
0.12050000 0.12050700 14097.05122227 0 226.78528860 0 3924.89762904 0 -8.90604979 0 425.55222792 0 15999
0.12150000 0.12150000 13419.85232263 0 291.45036893 0 4051.92322637 0 -120.64136375 0 263.36501375 0 15670
0.12250000 0.12250700 13067.24754277 0 153.27213506 0 4294.40766610 0 -292.95305846 0 882.78506161 0 16887
0.12350000 0.12352200 12856.01421203 0 290.21570297 0 4349.25363700 0 -419.95339127 0 -121.23233375 0 16407
0.12450000 0.12449800 12482.20920708 0 209.92616660 0 4536.54059951 0 160.45494707 0 32.17765769 0 16306
0.12550000 0.12549900 12658.84113419 0 147.72382745 0 4363.94001054 0 224.04463774 0 -60.04738571 0 17523
0.12650000 0.12650100 12414.76393143 0 -173.75177218 0 4049.72631185 0 653.10204277 0 41.35944222 0 17154
0.12750000 0.12750600 12320.73599014 0 20.83290097 0 4180.29992613 0 275.67542424 0 481.68778764 0 18007
0.12850000 0.12850300 12442.00567144 0 107.69395789 0 3786.03066247 0 162.15426045 0 300.50165674 0 17496
0.12950000 0.12949900 12360.06075998 0 94.61605531 0 3620.41626166 0 62.58438259 0 152.68885425 0 18405
0.13050000 0.13049000 12333.58794006 0 232.90040016 0 3641.88011648 0 -447.46425330 0 415.36183993 0 18100
0.13150000 0.13148800 12132.68010755 0 108.08325114 0 3970.53852812 0 -12.21682193 0 100.05682396 0 19059
0.13250000 0.13249300 11815.00626849 0 -49.41311115 0 3934.36633060 0 181.70130735 0 195.20024860 0 18957
0.13350000 0.13349100 12008.00520875 0 72.02155843 0 3694.46326543 0 363.37405482 0 -184.16954081 0 19468
0.13450000 0.13450700 11995.81233318 0 88.36506459 0 3230.33212015 0 169.16571312 0 61.63399737 0 19953
0.13550000 0.13551000 11925.51106866 0 24.60829857 0 3503.90290029 0 119.09144056 0 358.87916772 0 19956
0.13650000 0.13649900 11640.02202727 0 137.94316402 0 3306.54308472 0 96.66193196 0 75.73280612 0 19723
0.13750000 0.13749600 11473.05652404 0 188.22504501 0 3275.18213000 0 90.59855774 0 392.39309867 0 20946
0.13850000 0.13851100 11476.24205008 0 72.62779699 0 3343.15466513 0 62.73454170 0 533.28562042 0 20955
0.13950000 0.13949800 11387.26701218 0 80.12070349 0 3044.31936806 0 -214.55836086 0 -17.84191171 0 20506
0.14050000 0.14048300 11011.59462989 0 176.67366848 0 3334.03746989 0 11.42615240 0 -54.85212226 0 21447
0.14150000 0.14148400 11160.21589692 0 30.83633153 0 3059.28035591 0 384.98400446 0 533.04945211 0 21771
0.14250000 0.14249400 10931.44020377 0 40.22550479 0 3298.37056272 0 135.95605484 0 -3.97060444 0 22470
0.14350000 0.14350900 10923.13586690 0 119.29135978 0 3213.50375495 0 -159.01267269 0 121.67611048 0 22519
0.14450000 0.14449900 10631.14395854 0 293.78129523 0 3119.10233819 0 133.81626010 0 70.15000696 0 22218
0.14550000 0.14550500 10687.80238391 0 139.12839940 0 3357.72020837 0 -340.45474413 0 -115.04252710 0 23559
0.14650000 0.14650700 10332.12192373 0 70.87641674 0 3403.95427437 0 154.51009639 0 123.82249597 0 23044
0.14750000 0.14750500 10212.08251456 0 20.78885284 0 3392.75001034 0 197.16868401 0 -152.98104388 0 23649
0.14850000 0.14849900 10239.23637798 0 54.14636347 0 2882.54956765 0 -37.40982930 0 584.50448545 0 23640
0.14950000 0.14949500 10054.13534541 0 17.47250053 0 2851.56208840 0 929.54748555 0 312.03106412 0 24457
0.15050000 0.15050000 10295.20277528 0 -30.04511277 0 2461.46696232 0 268.52227058 0 325.92105615 0 24591
0.15150000 0.15149900 10109.64039067 0 184.23544825 0 2223.69490422 0 158.34041685 0 615.24481182 0 25020
0.15250000 0.15250500 9824.12938013 0 38.48620757 0 2250.98058251 0 -137.53234100 0 508.49453856 0 25297
0.15350000 0.15350100 9827.49065934 0 87.01044710 0 2014.62553428 0 4.93754341 0 127.19036592 0 25452
0.15450000 0.15450400 9688.50286247 0 147.78094722 0 2200.01216574 0 -326.79323121 0 -174.42512648 0 26061
0.15550000 0.15549900 9489.29763871 0 235.14015451 0 2036.34203427 0 -10.03273740 0 86.16221841 0 26128
0.15650000 0.15649500 9270.11147742 0 82.66451081 0 2237.95287943 0 43.35204369 0 -608.48051203 0 26331
0.15750000 0.15749700 9076.87087657 0 168.26717509 0 2286.40582909 0 -72.30331272 0 -514.04064926 0 27345
0.15850000 0.15849900 9038.10631993 0 130.26934161 0 2201.78068192 0 165.67920979 0 -356.46036484 0 26980
0.15950000 0.15949700 8924.52583944 0 -143.33988453 0 2188.54427196 0 202.81365586 0 -33.76635642 0 27777
0.16050000 0.16050000 9056.84600075 0 26.67965942 0 1798.26240815 0 319.74882481 0 -700.51145803 0 28224
0.16150000 0.16150500 8905.96191178 0 181.27510594 0 2084.04803300 0 -195.93072268 0 36.63212156 0 28075
0.16250000 0.16249700 8820.20535363 0 147.40527484 0 2175.92299807 0 -318.66025367 0 -218.01191048 0 28590
0.16350000 0.16349900 8616.16691793 0 154.75505235 0 2380.11521778 0 -323.55058538 0 -300.50934594 0 29163
0.16450000 0.16449100 8570.22943540 0 93.16938710 0 2684.19015598 0 11.08815710 0 -573.08931763 0 28996
0.16550000 0.16550500 8512.00021615 0 3.81020771 0 2669.36098299 0 254.00505946 0 -108.32502159 0 30777
0.16650000 0.16650700 8448.44347919 0 71.42465676 0 2518.04849568 0 197.26095442 0 -91.75534307 0 29211
0.16750000 0.16749900 8402.24236691 0 139.71497558 0 2498.44103363 0 21.77504777 0 -143.18060823 0 30922
0.16850000 0.16850800 8295.27459912 0 77.29711911 0 2491.00447799 0 126.68068175 0 6.43709135 0 30867
0.16950000 0.16949900 8026.10863258 0 40.68235317 0 2497.28765351 0 -103.85803530 0 253.04281090 0 30852
0.17050000 0.17049200 7957.81754484 0 146.92415056 0 2439.00351139 0 143.45192717 0 255.68240369 0 31257
0.17150000 0.17149500 7954.26952790 0 25.25935419 0 2406.30243881 0 222.60016645 0 190.73062602 0 32608
0.17250000 0.17250900 8088.91841860 0 -35.56925432 0 2348.73229392 0 99.73508583 0 13.11085630 0 32361
0.17350000 0.17350400 8064.15919200 0 49.23911552 0 1998.42328972 0 19.66996428 0 140.25212118 0 32508
0.17450000 0.17449800 7921.22793358 0 82.54203282 0 2256.14333163 0 -237.95989429 0 -161.59404724 0 32791
0.17550000 0.17549800 7932.93748795 0 116.99338719 0 2070.84457675 0 -153.19524305 0 60.73809563 0 33633
0.17650000 0.17650100 7774.02367641 0 -51.19590728 0 2246.75152207 0 268.21250563 0 -307.51091250 0 33984
0.17750000 0.17750300 7814.69954868 0 -29.97327367 0 2094.77996041 0 274.43856137 0 -138.06069895 0 34069
0.17850000 0.17849800 7837.83305854 0 116.51226291 0 1831.11726474 0 48.53467488 0 -105.15245733 0 34536
