### header ###
fiducial parameters:
Omega_m = 0.31
Omega_nu = 0
Omega_de = 0.69
Omega_k = 0
H_0 = 100
w_de = -1
zeff = 0
beta = 0
fgrowth = 0
b_1 = 2
gamma = 0.55
Lx = 3500 Ly = 3500 Lz = 3500
nx = 700 ny = 700 nz = 700
xoffset = -983.599254 yoffset = -42.9823471 zoffset = 800.977702
bins = 400 dk = 0.001
kx_ny = 0.628318531 ky_ny = 0.628318531 kz_ny = 0.628318531
############################
A(data) = 9.01379059 (not used)
A(ran) = 8.99067187 (used)
Ngal = 499714
weighted Ngal = 0
Nran = 25229228
weighted Nran = 0
SN(data) = 6811.89219
SN(ran) = 133.46033
SN(data+ran) = 6945.35252
############################
13 columns: k_central k_mean P_0(k) sigma^{lin}_{P_0(k)} P^img_1(k) sigma^{lin}_{P_1(k)} P_2(k) sigma^{lin}_{P_2(k)} P^img_3(k) sigma^{lin}_{P_3(k)} P_4(k) sigma^{lin}_{P_4(k)} N_modes
### header ###
0.00050000 0 0 0 0 0 0 0 0 0 0 0 0
0.00150000 0.00179520 105922.91525318 0 8551.99504491 0 26475.89560136 0 41626.03779700 0 98191.31399608 0 3
0.00250000 0.00253879 115182.03117345 0 -17174.04969375 0 50764.98249323 0 -87858.89548889 0 -19601.20085133 0 6
0.00350000 0.00331552 62390.72457614 0 25452.46297396 0 -1460.03643379 0 77678.50346623 0 -58640.37180542 0 7
0.00450000 0.00420575 71087.32053452 0 19965.33943240 0 57405.81569300 0 33032.36728371 0 47692.81723368 0 24
0.00550000 0.00557378 53492.12232800 0 6243.86173126 0 59057.89540924 0 37051.51254550 0 21704.74650065 0 45
0.00650000 0.00659388 53619.87290712 0 -1773.58007356 0 42951.10678749 0 17657.26104161 0 1.63038519 0 40
0.00750000 0.00754703 49339.62435507 0 12598.53583072 0 34769.68728318 0 42994.38600346 0 24126.62506339 0 57
0.00850000 0.00846663 56884.70756974 0 -10134.97081504 0 30287.65213281 0 12444.97150603 0 69946.02344332 0 75
0.00950000 0.00948925 65054.15388994 0 -17225.12795626 0 -510.55304747 0 43492.97575293 0 21576.11715573 0 112
0.01050000 0.01054430 80810.09526344 0 -12954.21629090 0 -11558.07711582 0 10250.30882714 0 24926.96102166 0 105
0.01150000 0.01145670 85202.82583872 0 9086.39450100 0 5824.40484267 0 -38168.86326847 0 -5657.87872234 0 144
0.01250000 0.01249090 82219.41592563 0 11788.64329430 0 3623.38209625 0 -21916.19952284 0 12347.31865578 0 169
0.01350000 0.01339930 68373.36218685 0 -8650.69142956 0 11700.21748502 0 -5306.66898319 0 -11337.28720693 0 180
0.01450000 0.01448870 80741.77122199 0 -1809.79620936 0 15123.77922144 0 16306.15861410 0 -9464.85696471 0 267
0.01550000 0.01550050 87853.84258550 0 -1069.65131500 0 10212.09349913 0 1937.98617138 0 -21067.75113666 0 238
0.01650000 0.01653350 83497.25125402 0 202.96963679 0 2607.79245367 0 615.71824690 0 -7006.99294220 0 315
0.01750000 0.01747870 83793.94455944 0 2621.41332367 0 13852.86417378 0 -11328.60939459 0 -6815.52085754 0 297
0.01850000 0.01844180 80946.19411772 0 8271.85549037 0 23083.85958824 0 -17025.42842673 0 -17137.36122133 0 388
0.01950000 0.01947590 70759.10150579 0 1662.18552301 0 31313.94074909 0 -2964.82401629 0 -16319.44994692 0 399
0.02050000 0.02045430 73120.78461078 0 -777.89447649 0 30830.07032688 0 8834.44135970 0 -13967.54311153 0 462
0.02150000 0.02154770 77687.18127857 0 -1634.72409156 0 30202.96107821 0 6452.35990343 0 -9577.48178739 0 571
0.02250000 0.02255340 79075.85094430 0 2268.62180608 0 30336.64332652 0 765.41819896 0 -24752.19647190 0 510
0.02350000 0.02348930 72818.92855624 0 2609.44013956 0 29677.45912592 0 -973.78455625 0 441.73030641 0 555
0.02450000 0.02439640 70989.77753000 0 -37.21199715 0 23682.40894820 0 5514.90352562 0 1511.18060373 0 592
0.02550000 0.02547300 74036.23888970 0 -331.83844540 0 28206.62485728 0 6979.23492729 0 2843.23578238 0 837
0.02650000 0.02652900 72174.90306580 0 3694.26554312 0 26619.13442782 0 -1126.12739647 0 -4632.77643990 0 723
0.02750000 0.02749970 67396.83368436 0 4816.81196893 0 25664.13568760 0 616.56296053 0 2288.48191331 0 826
0.02850000 0.02848090 63056.93890320 0 -1796.64767598 0 27264.36822125 0 5123.23760566 0 7549.46605913 0 831
0.02950000 0.02946900 65181.02570326 0 1683.82513099 0 27866.32279871 0 -597.64093580 0 317.40581548 0 996
0.03050000 0.03053250 62530.44833938 0 2409.25728884 0 24353.78602437 0 -579.10886340 0 -2718.12150068 0 1041
0.03150000 0.03150510 59128.19667376 0 2597.71960062 0 27606.53765716 0 -2006.90337976 0 -1442.45013309 0 1036
0.03250000 0.03246190 56360.41392044 0 3118.64098614 0 29523.89480123 0 66.61857672 0 -1682.44107485 0 1059
0.03350000 0.03345080 52742.42524932 0 1805.31450374 0 29148.22241895 0 -423.58928480 0 -5934.11875361 0 1302
0.03450000 0.03451200 50811.00785234 0 3216.64534271 0 30186.70391079 0 5507.70863058 0 -1480.32493935 0 1339
0.03550000 0.03553350 48764.36228899 0 -522.57346524 0 28935.56109377 0 1461.64018139 0 3850.81767155 0 1365
0.03650000 0.03647120 47738.18351844 0 -572.04468478 0 23629.13377118 0 7915.24134152 0 -1991.94239190 0 1308
0.03750000 0.03744890 48288.51060476 0 1219.24361824 0 24400.25076639 0 906.86763854 0 -2575.94817776 0 1579
0.03850000 0.03847530 46466.49955069 0 2928.13554386 0 20730.41491269 0 1736.85864742 0 2513.29217576 0 1662
0.03950000 0.03950240 45114.07897448 0 -1515.00323499 0 21819.42543840 0 2163.27975502 0 4612.60876464 0 1683
0.04050000 0.04050350 44017.04971078 0 -2086.40971610 0 14878.38386998 0 6443.48436878 0 667.01620086 0 1822
0.04150000 0.04152450 45307.73698909 0 883.74511326 0 15476.27415558 0 3034.44423731 0 2713.92539395 0 1887
0.04250000 0.04250150 45369.79982417 0 1369.72127803 0 11911.01143285 0 -763.05102356 0 7652.69907225 0 1920
0.04350000 0.04349210 44624.71626598 0 934.80360353 0 12814.93191057 0 -2240.17176309 0 -1746.06371924 0 2005
0.04450000 0.04448520 43900.50339569 0 1560.83087180 0 14348.04870575 0 391.94273119 0 -2193.57520620 0 2151
0.04550000 0.04548030 40005.04442117 0 1329.86924871 0 15847.88224601 0 -2107.28040400 0 -514.50090285 0 2274
0.04650000 0.04648670 41211.48002778 0 370.29433555 0 17051.90124665 0 -1225.47187089 0 2119.22063440 0 2311
0.04750000 0.04749250 39060.37117918 0 519.29676724 0 16084.05055651 0 2860.73420650 0 -3132.53647046 0 2568
0.04850000 0.04851840 40233.96291377 0 -26.33024017 0 18736.49529772 0 -760.56960862 0 -3975.18500232 0 2493
0.04950000 0.04949480 38765.21571392 0 -821.39228546 0 15555.91230680 0 726.77776799 0 -180.52705655 0 2644
0.05050000 0.05050630 39494.92087049 0 1274.92441665 0 18120.70015881 0 469.92331040 0 -3206.73725824 0 2829
0.05150000 0.05149060 39576.09686187 0 578.10157810 0 16415.89449419 0 -1048.71581811 0 -559.12463051 0 2784
0.05250000 0.05249300 37664.34184981 0 945.56079546 0 17930.11782453 0 641.43862360 0 -3584.47474017 0 3055
0.05350000 0.05348950 38102.29675863 0 552.18897138 0 19911.40518102 0 81.34240765 0 -2498.56186392 0 3009
0.05450000 0.05448610 36831.71124815 0 -780.03427123 0 15932.57330061 0 2101.07412050 0 -3850.61994924 0 3336
0.05550000 0.05550870 36945.73111154 0 865.54697186 0 16150.17768345 0 2934.72628741 0 -405.38235574 0 3349
0.05650000 0.05647670 36496.46209296 0 230.61890443 0 14399.67619688 0 1023.86432111 0 806.34451948 0 3324
0.05750000 0.05747970 36295.77395190 0 474.77958994 0 14101.55489703 0 1138.88048523 0 -1198.25210004 0 3639
0.05850000 0.05849280 36161.54247496 0 549.18029695 0 13898.01076709 0 110.85081420 0 1574.10023548 0 3846
0.05950000 0.05951020 34085.89763999 0 643.42573278 0 13755.87039789 0 880.08834905 0 610.92018560 0 3787
0.06050000 0.06049470 34289.99099855 0 -167.37412934 0 12847.00686251 0 1742.16419597 0 2324.48934223 0 3930
0.06150000 0.06148310 33918.49275385 0 708.53788521 0 11933.74949810 0 634.34808200 0 139.10423334 0 4083
0.06250000 0.06249100 33141.00470654 0 1137.45249080 0 12225.38990013 0 214.96369159 0 1689.15264870 0 4303
0.06350000 0.06350600 32276.40899866 0 119.58464786 0 12952.23906784 0 1296.17956460 0 2785.73154492 0 4470
0.06450000 0.06451750 32317.71099157 0 -1075.48192612 0 10146.62544655 0 1801.97519368 0 3881.08016901 0 4479
0.06550000 0.06550280 31840.10177573 0 579.16818009 0 11134.29230563 0 416.92604307 0 2293.08444922 0 4636
0.06650000 0.06648880 31285.71039755 0 1015.90819519 0 9083.68131157 0 -1181.05025937 0 2422.83422055 0 4653
0.06750000 0.06749660 30047.85891336 0 1022.42424364 0 10681.67299241 0 478.02443268 0 1980.66123586 0 5220
0.06850000 0.06852730 29331.22539815 0 735.00191748 0 9818.84580072 0 1.90970090 0 1276.71490198 0 5029
0.06950000 0.06949320 29031.12687523 0 377.99342247 0 12296.35023901 0 229.52154563 0 1426.90696289 0 5040
0.07050000 0.07048030 27533.49024949 0 204.81614344 0 9351.82571285 0 361.71428590 0 997.02901029 0 5475
0.07150000 0.07148790 27687.71364853 0 146.03220327 0 9569.53994141 0 2138.94892676 0 2736.98201180 0 5509
0.07250000 0.07249820 27440.67061118 0 -155.35920385 0 8144.43444843 0 1408.55174211 0 2675.02902244 0 5916
0.07350000 0.07351270 27316.54494101 0 52.54843770 0 8797.62107241 0 508.05515566 0 1675.30110267 0 5721
0.07450000 0.07449140 27043.79800382 0 756.53717202 0 6583.33994689 0 740.52166520 0 4184.64981687 0 6028
0.07550000 0.07549160 26836.07973630 0 -88.41888900 0 7443.73954804 0 565.80105372 0 3135.04095301 0 6183
0.07650000 0.07648840 26536.31075056 0 167.22913298 0 6208.03005550 0 313.41512026 0 2540.75360721 0 6330
0.07750000 0.07749960 26224.45873497 0 878.38464184 0 7296.11787712 0 -270.25783305 0 1224.37341363 0 6583
0.07850000 0.07848650 25567.36160316 0 332.34922802 0 6289.00832457 0 -874.10285545 0 1949.34421943 0 6549
0.07950000 0.07947320 24682.66412746 0 -61.22679927 0 7037.05771736 0 286.54905264 0 941.61184162 0 6828
0.08050000 0.08048110 24405.52336123 0 242.91503498 0 6954.10222522 0 392.47877833 0 594.98925998 0 7147
0.08150000 0.08149960 24120.36385702 0 505.57264226 0 6442.89120186 0 -128.77104591 0 -378.89305896 0 7386
0.08250000 0.08250610 23832.23851821 0 895.44368306 0 7151.19841105 0 -559.87267990 0 300.69937904 0 7227
0.08350000 0.08350160 23195.90222857 0 401.43669727 0 7605.41048729 0 -257.54758411 0 40.70267463 0 7798
0.08450000 0.08449610 22363.05193545 0 475.48479950 0 8867.95529064 0 116.25522391 0 -2149.96645306 0 7371
0.08550000 0.08548940 22461.03432288 0 -162.12130673 0 8005.15006810 0 -12.76176658 0 1175.65683424 0 8256
0.08650000 0.08650700 21927.73332405 0 -192.88030687 0 8369.35455660 0 747.99117455 0 92.26997030 0 8037
0.08750000 0.08749060 21575.78761855 0 270.98061792 0 7231.57252863 0 1261.94065186 0 994.58604135 0 8155
0.08850000 0.08849210 21905.32479599 0 467.00361101 0 7592.89905912 0 703.03131898 0 678.35118130 0 8718
0.08950000 0.08949900 21253.61010474 0 382.01048066 0 6883.10893263 0 595.72083252 0 2877.62847913 0 8571
0.09050000 0.09049190 20968.12106335 0 202.55551840 0 7011.04624949 0 742.27809836 0 2193.82785137 0 8932
0.09150000 0.09150830 20533.57137203 0 699.71397806 0 7129.69061794 0 -792.96860545 0 3105.67919050 0 9285
0.09250000 0.09250820 19569.67512802 0 525.16143054 0 7270.80942189 0 -620.58111718 0 2032.99173964 0 9204
0.09350000 0.09350330 18575.57130941 0 394.78114474 0 8337.13680522 0 -447.86409174 0 1862.41231202 0 9349
0.09450000 0.09448040 18376.97023714 0 500.73064266 0 8028.04191736 0 -46.87161059 0 1868.80533326 0 9564
0.09550000 0.09549270 18539.10252844 0 -143.08943627 0 8563.30915467 0 1176.74430692 0 1820.64896707 0 10155
0.09650000 0.09649430 18436.83615770 0 -127.58361362 0 7034.28960507 0 542.86087234 0 260.58152306 0 9913
0.09750000 0.09749140 18162.88091753 0 245.08448806 0 6923.41132943 0 20.53653721 0 1019.95381327 0 10476
0.09850000 0.09850240 17918.91356049 0 41.09097927 0 6209.89743284 0 628.51088013 0 2035.28751531 0 10575
0.09950000 0.09950330 17572.89952418 0 22.03867751 0 6119.10994045 0 450.45425396 0 265.35871368 0 10882
0.10050000 0.10051200 17106.27488093 0 802.49222987 0 5482.21343761 0 112.47982632 0 483.38051027 0 10875
0.10150000 0.10150300 16773.00294881 0 525.78425581 0 5933.96496959 0 345.79764023 0 1550.65915759 0 11118
0.10250000 0.10250800 16025.28309320 0 367.61739521 0 5427.03792954 0 -511.51529602 0 -0.12403779 0 11575
0.10350000 0.10349800 15652.13716261 0 40.10994709 0 5803.65498506 0 -0.30984074 0 611.19370146 0 11364
0.10450000 0.10450100 15350.17126235 0 -47.96007188 0 5031.68119319 0 1244.46419689 0 336.00709069 0 12093
0.10550000 0.10551000 15668.72386721 0 -308.74448000 0 4499.20403731 0 314.26532618 0 419.15591130 0 12067
0.10650000 0.10649700 15814.37929963 0 78.92832813 0 4224.80941423 0 556.81127952 0 117.34709043 0 12054
0.10750000 0.10749900 15856.23052117 0 205.53673140 0 4307.83081380 0 -11.12023205 0 1141.23118377 0 12807
0.10850000 0.10850100 15635.66030374 0 88.00367216 0 4091.69836369 0 -96.32580403 0 1500.02027799 0 12736
0.10950000 0.10950300 15748.69155560 0 131.87858150 0 5374.36690401 0 -143.22894035 0 1304.98919181 0 12933
0.11050000 0.11050200 15245.48828565 0 252.17283275 0 5297.21126620 0 207.28547535 0 1252.86739491 0 13428
0.11150000 0.11150900 15198.25462355 0 171.06055189 0 5366.18339744 0 -553.03038964 0 1708.52943473 0 13453
0.11250000 0.11250000 15215.06101960 0 189.14994602 0 6267.34674744 0 -465.26695008 0 1461.57427396 0 13668
0.11350000 0.11349100 14894.86072885 0 266.03646180 0 6330.24441004 0 246.94527466 0 1834.69823540 0 13791
0.11450000 0.11448600 14834.55542538 0 -108.79362345 0 6203.87788706 0 4.27354796 0 1892.13656543 0 14205
0.11550000 0.11549300 14704.60793174 0 295.07417942 0 6107.91666099 0 574.22512243 0 804.85720835 0 14776
0.11650000 0.11649800 14733.60720336 0 -23.26862010 0 6039.69148069 0 218.91813772 0 1211.00518880 0 14553
0.11750000 0.11747300 14577.18688980 0 -26.89319951 0 5415.99843409 0 129.65530401 0 890.27104783 0 14568
0.11850000 0.11849100 14315.20483373 0 10.98114539 0 5395.98454285 0 382.75084085 0 899.85179203 0 16015
0.11950000 0.11950300 14435.04652059 0 112.39634357 0 4840.78030630 0 475.75611844 0 762.96534390 0 15270
0.12050000 0.12050700 14120.22867041 0 83.34533462 0 4707.95485465 0 -158.00758430 0 284.98704642 0 15999
0.12150000 0.12150000 14216.34368050 0 241.47385906 0 4202.73042334 0 348.17250482 0 -618.05686240 0 15670
0.12250000 0.12250700 13999.72790920 0 232.02273281 0 4326.49360261 0 -260.30581029 0 -171.80969974 0 16887
0.12350000 0.12352200 13683.59191031 0 17.01861799 0 3874.57730204 0 259.36772779 0 506.35254691 0 16407
0.12450000 0.12449800 13425.12491747 0 -17.21908644 0 3767.27999707 0 650.51956975 0 -916.10786100 0 16306
0.12550000 0.12549900 13501.02831400 0 306.93971473 0 3825.22361744 0 -170.37621302 0 -94.49720224 0 17523
0.12650000 0.12650100 12802.51934356 0 452.02834321 0 3795.27967258 0 -245.75564545 0 399.85052499 0 17154
0.12750000 0.12750600 12606.77426016 0 27.84061890 0 3707.51293765 0 427.42839291 0 447.24566031 0 18007
0.12850000 0.12850300 12416.52146305 0 70.35234278 0 3869.84295126 0 259.86423047 0 -2.68348714 0 17496
0.12950000 0.12949900 12376.75731030 0 276.65085429 0 3293.82294967 0 368.18529761 0 158.31515233 0 18405
0.13050000 0.13049000 12134.21794771 0 54.16800308 0 3674.77891136 0 -390.97059652 0 174.91284150 0 18100
0.13150000 0.13148800 11951.54450568 0 184.93187015 0 3527.55268505 0 -412.73542863 0 -390.04679396 0 19059
0.13250000 0.13249300 11601.46617751 0 40.21166423 0 3607.89384891 0 273.84649291 0 -262.33466084 0 18957
0.13350000 0.13349100 11650.45737122 0 98.09849436 0 3277.51085939 0 1.29334554 0 -844.93442141 0 19468
0.13450000 0.13450700 11704.17193115 0 64.49558837 0 3541.84361398 0 149.67468754 0 -690.85052644 0 19953
0.13550000 0.13551000 11592.34898227 0 63.09186984 0 3379.70033811 0 332.85561682 0 -323.71425551 0 19956
0.13650000 0.13649900 11368.59323879 0 -79.34881757 0 3127.70325852 0 60.92900750 0 -172.40726049 0 19723
0.13750000 0.13749600 11438.45512040 0 69.78290254 0 3167.36855011 0 326.56804747 0 335.82035296 0 20946
0.13850000 0.13851100 11462.84087153 0 250.11981613 0 3001.71021101 0 113.10045467 0 137.05231518 0 20955
0.13950000 0.13949800 11478.65865605 0 85.04190185 0 3441.07114512 0 -210.93015654 0 437.09261987 0 20506
0.14050000 0.14048300 11257.97859289 0 115.00627801 0 3334.42192993 0 73.75701105 0 491.16857223 0 21447
0.14150000 0.14148400 11097.05460458 0 15.22659482 0 3758.34953956 0 -178.69263292 0 923.00946795 0 21771
0.14250000 0.14249400 11167.02633192 0 44.40425589 0 3450.56181583 0 91.82103082 0 237.47217926 0 22470
0.14350000 0.14350900 11042.79081602 0 99.37446231 0 3338.40932978 0 245.68534418 0 473.58336999 0 22519
0.14450000 0.14449900 10978.47614356 0 40.42245818 0 3400.90056319 0 314.12472365 0 963.03615198 0 22218
0.14550000 0.14550500 10785.01585126 0 14.69362336 0 2953.32316879 0 277.95362460 0 471.83792140 0 23559
0.14650000 0.14650700 10749.08531434 0 246.06650885 0 3253.78418261 0 153.78291768 0 760.51798113 0 23044
0.14750000 0.14750500 10588.67760094 0 152.24617598 0 2900.52032839 0 -127.94939988 0 485.32587808 0 23649
0.14850000 0.14849900 10386.67131117 0 66.46336471 0 2933.24337011 0 170.91226016 0 855.69490871 0 23640
0.14950000 0.14949500 10304.42981625 0 203.08607326 0 2903.65093158 0 -266.18695045 0 120.79734468 0 24457
0.15050000 0.15050000 9844.11031766 0 236.72852370 0 3029.03982760 0 -271.91650351 0 346.14585118 0 24591
0.15150000 0.15149900 9691.23802104 0 207.99837411 0 3366.54082016 0 -80.48440269 0 13.22026264 0 25020
0.15250000 0.15250500 9565.46466499 0 15.15860032 0 3314.30917753 0 -68.64643866 0 -158.31185696 0 25297
0.15350000 0.15350100 9366.49011725 0 103.29848117 0 3106.63484831 0 107.80457254 0 -101.18087527 0 25452
0.15450000 0.15450400 9356.17560359 0 36.02654208 0 3072.09935211 0 226.37007176 0 -320.42657294 0 26061
0.15550000 0.15549900 9541.39746646 0 -16.82331229 0 3061.27954812 0 303.98816007 0 -195.40785702 0 26128
0.15650000 0.15649500 9334.78864078 0 200.69363335 0 2829.32931349 0 -99.91259652 0 -279.24431188 0 26331
0.15750000 0.15749700 9307.82151509 0 15.63093694 0 2752.32745970 0 137.39723076 0 30.76756811 0 27345
0.15850000 0.15849900 9050.56282524 0 113.56620055 0 2850.77119917 0 214.24859591 0 -213.80811455 0 26980
0.15950000 0.15949700 9064.61209357 0 52.13245193 0 2748.61467417 0 -87.46839393 0 59.30449906 0 27777
0.16050000 0.16050000 8879.07167810 0 123.94552318 0 2743.75949309 0 485.63893839 0 134.27102141 0 28224
0.16150000 0.16150500 8868.33975068 0 32.26421612 0 2377.33612092 0 183.86526815 0 317.05101379 0 28075
0.16250000 0.16249700 8793.33708910 0 60.51642696 0 2518.14735684 0 312.89115615 0 727.22923392 0 28590
0.16350000 0.16349900 8703.91168371 0 -15.37708347 0 2101.00821306 0 98.82446476 0 786.17245039 0 29163
0.16450000 0.16449100 8749.55258279 0 58.72956653 0 1965.96387775 0 234.05378028 0 882.95642095 0 28996
0.16550000 0.16550500 8487.02129810 0 62.63469193 0 2041.49379882 0 -293.39024445 0 686.60498914 0 30777
0.16650000 0.16650700 8438.99674677 0 208.09723527 0 2074.52440857 0 104.58334663 0 645.70063776 0 29211
0.16750000 0.16749900 8302.98576907 0 239.76905339 0 2104.90773633 0 -162.54201586 0 455.40609928 0 30922
0.16850000 0.16850800 8143.39091403 0 111.63181732 0 2238.96346011 0 -278.02831969 0 62.79166148 0 30867
0.16950000 0.16949900 7974.94249350 0 70.95704350 0 2410.21294665 0 19.20960084 0 -115.65436779 0 30852
0.17050000 0.17049200 7948.22801298 0 41.30045507 0 2184.37013438 0 115.15017591 0 -56.51859177 0 31257
0.17150000 0.17149500 7830.34158004 0 -48.61903639 0 1958.80193642 0 150.36781407 0 82.01708010 0 32608
0.17250000 0.17250900 7897.51224137 0 53.26177584 0 1677.79460065 0 335.04923596 0 -127.07173254 0 32361
0.17350000 0.17350400 7727.80059499 0 26.91978218 0 1671.68717829 0 123.19857224 0 162.62879398 0 32508
0.17450000 0.17449800 7852.21186405 0 67.10014038 0 1601.67151266 0 248.99499590 0 138.02664677 0 32791
0.17550000 0.17549800 7956.90582532 0 -90.30966348 0 1416.91100184 0 133.52956276 0 273.46752516 0 33633
0.17650000 0.17650100 7869.06219839 0 69.39415852 0 1607.22970638 0 -419.71502605 0 110.19833059 0 33984
0.17750000 0.17750300 7681.14911524 0 149.19905554 0 1622.36644740 0 -215.47117884 0 144.10001695 0 34069
0.17850000 0.17849800 7576.05970935 0 163.83380159 0 1919.56504316 0 28.09293453 0 286.44469920 0 34536
