### header ###
fiducial parameters:
Omega_m = 0.31
Omega_nu = 0
Omega_de = 0.69
Omega_k = 0
H_0 = 100
w_de = -1
zeff = 0
beta = 0
fgrowth = 0
b_1 = 2
gamma = 0.55
Lx = 3500 Ly = 3500 Lz = 3500
nx = 700 ny = 700 nz = 700
xoffset = -983.599254 yoffset = -42.9823471 zoffset = 800.977702
bins = 400 dk = 0.001
kx_ny = 0.628318531 ky_ny = 0.628318531 kz_ny = 0.628318531
############################
A(data) = 9.12253027 (not used)
A(ran) = 9.12661848 (used)
Ngal = 506559
weighted Ngal = 0
Nran = 25229228
weighted Nran = 0
SN(data) = 6712.60262
SN(ran) = 135.478364
SN(data+ran) = 6848.08099
############################
13 columns: k_central k_mean P_0(k) sigma^{lin}_{P_0(k)} P^img_1(k) sigma^{lin}_{P_1(k)} P_2(k) sigma^{lin}_{P_2(k)} P^img_3(k) sigma^{lin}_{P_3(k)} P_4(k) sigma^{lin}_{P_4(k)} N_modes
### header ###
0.00050000 0 0 0 0 0 0 0 0 0 0 0 0
0.00150000 0.00179520 29656.58843801 0 -40331.50591829 0 -17612.66367693 0 5038.24996759 0 26970.31121325 0 3
0.00250000 0.00253879 83240.54179279 0 -60456.45119029 0 -15489.45564268 0 -130770.23812363 0 -43314.47644848 0 6
0.00350000 0.00331552 74420.69893005 0 4481.33213772 0 -63057.92751473 0 -1353.36524946 0 51705.37175191 0 7
0.00450000 0.00420575 74600.84592039 0 24929.04809046 0 16711.70903380 0 -73440.43567289 0 47320.00084027 0 24
0.00550000 0.00557378 61707.04477868 0 -689.41484281 0 54288.72353160 0 8925.71217328 0 -16698.30785525 0 45
0.00650000 0.00659388 54712.06895888 0 964.84860646 0 31748.27074895 0 49114.33077143 0 -3946.30656100 0 40
0.00750000 0.00754703 71401.03992744 0 -8889.12256201 0 36663.97682483 0 -3403.81147493 0 1991.10756438 0 57
0.00850000 0.00846663 69340.00457400 0 5061.14181685 0 31299.66080473 0 32838.05019475 0 20498.96996840 0 75
0.00950000 0.00948925 79339.04130335 0 -3825.06983342 0 38266.40627300 0 19226.07769767 0 20099.90044652 0 112
0.01050000 0.01054430 83411.68143361 0 -4423.56427051 0 14500.62441891 0 12842.83272493 0 29709.53407786 0 105
0.01150000 0.01145670 78379.64873409 0 -4143.17207080 0 8864.01182909 0 -3203.56271677 0 19075.36936186 0 144
0.01250000 0.01249090 100065.50176991 0 -13850.66725927 0 10446.54821631 0 -2167.34404688 0 -5068.22686617 0 169
0.01350000 0.01339930 103412.28134399 0 4580.66562757 0 14044.43511960 0 -12728.59317008 0 -36424.07375965 0 180
0.01450000 0.01448870 93380.29089690 0 11086.07003199 0 27776.24930354 0 -28551.43059060 0 -16956.88469382 0 267
0.01550000 0.01550050 88691.08670765 0 7534.48310213 0 40151.90815658 0 -8718.55411897 0 -13588.68520320 0 238
0.01650000 0.01653350 84505.19563408 0 3154.93401395 0 51533.13365384 0 5749.20445878 0 -33117.60756694 0 315
0.01750000 0.01747870 80362.03454785 0 -894.08489143 0 49311.28415781 0 6805.29422046 0 -38705.13010190 0 297
0.01850000 0.01844180 73258.31145949 0 9659.27291483 0 46174.96899439 0 -859.46481402 0 -21102.46238602 0 388
0.01950000 0.01947590 72711.06005349 0 -729.13066343 0 37865.90875668 0 11174.27614982 0 -4976.11024050 0 399
0.02050000 0.02045430 72464.78593622 0 -6218.87182864 0 32313.53685399 0 12590.18755556 0 -18273.05618052 0 462
0.02150000 0.02154770 75043.85373259 0 -423.58269405 0 13267.05691802 0 12119.82815763 0 -13901.30613887 0 571
0.02250000 0.02255340 76236.22908630 0 1819.35278750 0 22160.38657133 0 -2519.19089123 0 -17845.31692420 0 510
0.02350000 0.02348930 70831.05045619 0 1169.18692099 0 18044.13768792 0 -6050.86279101 0 -8932.67639229 0 555
0.02450000 0.02439640 67465.81680017 0 3637.92567035 0 12324.47074482 0 3737.74248140 0 -2599.76273112 0 592
0.02550000 0.02547300 66660.86732141 0 1722.80937909 0 13180.05910318 0 5736.36349343 0 -5132.36578547 0 837
0.02650000 0.02652900 67190.10402838 0 674.48680867 0 9894.16701491 0 -2301.95998386 0 -5339.83140782 0 723
0.02750000 0.02749970 64792.17183388 0 3785.94278589 0 21997.81489712 0 -5700.96021600 0 -20032.67486232 0 826
0.02850000 0.02848090 58025.67512377 0 4256.86239702 0 19016.49205282 0 -2565.90827842 0 4326.31784945 0 831
0.02950000 0.02946900 55404.53641441 0 -855.56309384 0 22584.39107297 0 2104.22669283 0 -1495.29691178 0 996
0.03050000 0.03053250 57042.66572346 0 -1323.87167208 0 20738.43365067 0 7840.17277250 0 -6136.98184004 0 1041
0.03150000 0.03150510 58686.94639316 0 3024.77781343 0 16338.89264039 0 -355.68046018 0 -430.53812541 0 1036
0.03250000 0.03246190 58122.33936248 0 588.55120199 0 25859.00200519 0 1549.86826836 0 -9063.64545118 0 1059
0.03350000 0.03345080 52691.56667827 0 1267.21324670 0 17243.91157537 0 -85.62078883 0 6903.90272853 0 1302
0.03450000 0.03451200 52280.08458937 0 1645.25829666 0 20901.55455351 0 657.33439858 0 -8303.62287428 0 1339
0.03550000 0.03553350 48480.74062494 0 1814.35480698 0 18008.87720993 0 -1432.53106405 0 2263.50299526 0 1365
0.03650000 0.03647120 49213.85099901 0 596.68198262 0 21037.43371634 0 3041.44141004 0 -528.28104915 0 1308
0.03750000 0.03744890 48211.94813387 0 733.99682909 0 17170.97401343 0 4362.46807782 0 -710.95778655 0 1579
0.03850000 0.03847530 48869.59449432 0 -1385.53906255 0 15529.87886978 0 2634.62776449 0 -1059.17972196 0 1662
0.03950000 0.03950240 46228.35401713 0 1286.15064983 0 15690.58316664 0 1365.44827930 0 3672.21950595 0 1683
0.04050000 0.04050350 47379.42737793 0 1739.73660543 0 14291.47815696 0 -1665.18431132 0 3662.91557297 0 1822
0.04150000 0.04152450 46022.28343551 0 900.48450342 0 18519.33029779 0 1380.87061920 0 5550.69126309 0 1887
0.04250000 0.04250150 43587.88246003 0 1971.34631831 0 19501.24124084 0 -2845.69632664 0 4757.86875246 0 1920
0.04350000 0.04349210 41874.06944589 0 865.05266610 0 20366.27633162 0 -130.00131804 0 4224.38101590 0 2005
0.04450000 0.04448520 40441.24179838 0 607.77420401 0 22518.48363748 0 60.52818045 0 4970.94749139 0 2151
0.04550000 0.04548030 40491.11175790 0 2133.48959418 0 22566.48621966 0 2685.24467494 0 2620.52357330 0 2274
0.04650000 0.04648670 38823.87333150 0 -621.28852366 0 22348.77199110 0 2480.17368942 0 4165.72339831 0 2311
0.04750000 0.04749250 40548.34138104 0 597.52559779 0 22500.35909272 0 -866.25327988 0 457.49426653 0 2568
0.04850000 0.04851840 38298.15168776 0 1086.38191750 0 18958.38366387 0 -117.77439030 0 2621.70990713 0 2493
0.04950000 0.04949480 37616.44911336 0 -936.95328439 0 22392.49058997 0 2830.35087874 0 5765.65934850 0 2644
0.05050000 0.05050630 39715.93047083 0 -1748.83183153 0 17619.58395765 0 3732.45890199 0 2400.56849193 0 2829
0.05150000 0.05149060 39093.43474265 0 128.18996202 0 14030.04532952 0 4028.36131818 0 3892.49313992 0 2784
0.05250000 0.05249300 39865.32065794 0 1063.89320205 0 12395.21139224 0 854.73046324 0 2847.77241086 0 3055
0.05350000 0.05348950 37276.14705479 0 2030.94860914 0 17034.10623907 0 -3474.54113778 0 6002.26704191 0 3009
0.05450000 0.05448610 35967.66476890 0 2706.10437828 0 17749.64129702 0 -2313.72446110 0 -1251.27463189 0 3336
0.05550000 0.05550870 33658.37807512 0 1020.34815942 0 18766.15364369 0 -374.42014101 0 1046.35413501 0 3349
0.05650000 0.05647670 33434.18294874 0 -1138.72670122 0 17552.35837345 0 2915.26162480 0 789.77099637 0 3324
0.05750000 0.05747970 33743.17897545 0 -1435.11243861 0 14561.47895101 0 3152.94580631 0 1084.83528968 0 3639
0.05850000 0.05849280 34685.54545720 0 130.99981569 0 14296.97044325 0 2306.46365862 0 -161.04921244 0 3846
0.05950000 0.05951020 33804.47289045 0 1250.79131069 0 12565.25257580 0 470.62851996 0 652.96693253 0 3787
0.06050000 0.06049470 33643.76859359 0 1028.30538380 0 13472.24873384 0 -3440.15942560 0 -174.63932564 0 3930
0.06150000 0.06148310 31796.38317686 0 904.28846090 0 15353.90601702 0 166.78755316 0 -196.43161919 0 4083
0.06250000 0.06249100 31645.12561241 0 -370.59970666 0 15478.91045300 0 311.81466804 0 646.31797074 0 4303
0.06350000 0.06350600 30804.58611849 0 432.76030444 0 13927.01003871 0 2590.31599870 0 -940.83193696 0 4470
0.06450000 0.06451750 31550.21890531 0 -103.13217474 0 13446.10545110 0 2070.71276188 0 2008.70484966 0 4479
0.06550000 0.06550280 31710.48381927 0 -19.28693223 0 13490.70281578 0 596.31399944 0 1325.36557395 0 4636
0.06650000 0.06648880 30652.77932542 0 673.84640809 0 13261.12524883 0 289.41492763 0 3501.02494227 0 4653
0.06750000 0.06749660 30862.80435317 0 -464.63753408 0 11556.64912138 0 2498.85844738 0 3329.89628603 0 5220
0.06850000 0.06852730 31574.16527354 0 -284.59160181 0 12220.99607110 0 103.10833822 0 2668.95455381 0 5029
0.06950000 0.06949320 31465.19831353 0 497.47811072 0 11118.58436684 0 -2104.74296774 0 1276.71490198 0 5040
0.07050000 0.07048030 30491.85533710 0 1223.86812330 0 13446.98421690 0 -151.96826629 0 451.29567222 0 5475
0.07150000 0.07148790 29535.86798534 0 991.89921489 0 13654.26310151 0 -2814.69786282 0 -362.82702311 0 5509
0.07250000 0.07249820 27923.22288468 0 565.80434909 0 13930.52510193 0 950.42476420 0 -514.16038110 0 5916
0.07350000 0.07351270 28042.18580573 0 159.54542446 0 15228.13266097 0 748.80183601 0 -2479.58052250 0 5721
0.07450000 0.07449140 26678.56096549 0 414.86204188 0 12482.53874426 0 1090.61097794 0 -1637.76681816 0 6028
0.07550000 0.07549160 26335.29307232 0 664.73800050 0 12134.54748488 0 2192.69644040 0 -1778.22654776 0 6183
0.07650000 0.07648840 26311.12701264 0 -156.60046055 0 10380.38813565 0 921.02675260 0 -1317.73129600 0 6330
0.07750000 0.07749960 26353.19792563 0 -259.74889246 0 9878.41513783 0 1432.25644974 0 -2726.21713067 0 6583
0.07850000 0.07848650 25805.06775382 0 58.97957541 0 7181.47189309 0 -4.63187570 0 -2842.34603200 0 6549
0.07950000 0.07947320 24533.71332325 0 1089.66520624 0 7918.62458987 0 411.00645690 0 -991.40490913 0 6828
0.08050000 0.08048110 24551.94771374 0 42.71471879 0 6438.22275851 0 555.54475830 0 -2261.55872591 0 7147
0.08150000 0.08149960 24614.99916035 0 86.98331521 0 7506.83493294 0 233.48807479 0 -3122.51854026 0 7386
0.08250000 0.08250610 23866.83992184 0 449.57109432 0 6990.18654615 0 400.35471687 0 -1788.43121569 0 7227
0.08350000 0.08350160 23631.00114852 0 103.61198087 0 6716.81348832 0 416.41526044 0 -704.92725621 0 7798
0.08450000 0.08449610 23162.61897365 0 515.04024536 0 7234.38457921 0 -91.44766520 0 -2012.79111066 0 7371
0.08550000 0.08548940 22705.99029144 0 768.17093284 0 7880.45320015 0 -866.24009839 0 -168.17051085 0 8256
0.08650000 0.08650700 22418.19448981 0 357.83233795 0 7798.18973609 0 -85.68384027 0 -692.41033575 0 8037
0.08750000 0.08749060 21015.79410835 0 353.89546714 0 8508.58401407 0 683.55457334 0 705.26777796 0 8155
0.08850000 0.08849210 21191.98665256 0 421.82186707 0 9014.93985636 0 1038.22445284 0 1342.79809063 0 8718
0.08950000 0.08949900 20551.69591679 0 169.12067638 0 7823.79477478 0 68.92346958 0 1788.15660137 0 8571
0.09050000 0.09049190 20493.80721929 0 399.08929411 0 8914.73858527 0 664.88189840 0 1423.84226714 0 8932
0.09150000 0.09150830 19907.34088917 0 407.17174262 0 7982.55480230 0 28.08821116 0 1938.04109424 0 9285
0.09250000 0.09250820 19691.05465504 0 -95.82677490 0 7457.17368030 0 749.45102425 0 3311.83764870 0 9204
0.09350000 0.09350330 19247.71730566 0 229.83131058 0 7366.23240390 0 161.24254092 0 1482.35708528 0 9349
0.09450000 0.09448040 19030.44246000 0 151.18286935 0 6899.41003834 0 555.07681551 0 1559.64453796 0 9564
0.09550000 0.09549270 18478.24799634 0 441.64792212 0 6640.96501465 0 -26.92450555 0 553.07322947 0 10155
0.09650000 0.09649430 17666.59792830 0 335.19752769 0 6234.04152337 0 -151.76505170 0 1588.43510270 0 9913
0.09750000 0.09749140 17785.12146645 0 297.95872818 0 6143.72636761 0 993.74132772 0 1252.75754918 0 10476
0.09850000 0.09850240 17302.78888441 0 158.39863508 0 6602.14553515 0 190.91846221 0 583.07758948 0 10575
0.09950000 0.09950330 16862.19767817 0 466.91902980 0 5813.34337808 0 -760.46305826 0 -835.22405925 0 10882
0.10050000 0.10051200 16638.88131759 0 325.60140508 0 6777.39340611 0 -696.94147194 0 -120.61390231 0 10875
0.10150000 0.10150300 16030.22615086 0 41.06835105 0 6250.61724340 0 196.40745313 0 -138.21777833 0 11118
0.10250000 0.10250800 16217.07373047 0 -132.40144715 0 6638.15296407 0 313.84242014 0 -496.94975278 0 11575
0.10350000 0.10349800 16068.89184634 0 164.08315139 0 6216.58703754 0 603.94717892 0 -735.41933124 0 11364
0.10450000 0.10450100 15975.85251658 0 584.67254942 0 6485.13786801 0 -522.35487225 0 -846.46786775 0 12093
0.10550000 0.10551000 15517.35645703 0 102.64577787 0 6253.18763338 0 380.53305565 0 -22.95138564 0 12067
0.10650000 0.10649700 15610.39578680 0 -277.43734969 0 6434.23535867 0 1518.48534450 0 596.92474167 0 12054
0.10750000 0.10749900 15683.11365729 0 -17.21963567 0 5887.01690638 0 -6.59455520 0 464.09819156 0 12807
0.10850000 0.10850100 15737.48729156 0 179.75593955 0 5750.29193146 0 69.70139701 0 268.08947842 0 12736
0.10950000 0.10950300 15428.16172767 0 205.45654402 0 6100.89751911 0 -429.83181739 0 1310.02012605 0 12933
0.11050000 0.11050200 15370.05333872 0 219.91333999 0 6339.96575677 0 -163.41199401 0 372.23311261 0 13428
0.11150000 0.11150900 15257.90085266 0 314.20381257 0 6677.95007053 0 -267.17995581 0 -729.07134674 0 13453
0.11250000 0.11250000 14561.14941383 0 215.26796425 0 6557.87770764 0 -23.68240895 0 195.41994005 0 13668
0.11350000 0.11349100 14514.02559745 0 123.18319384 0 6567.32444006 0 240.21502704 0 705.95101837 0 13791
0.11450000 0.11448600 14285.65633349 0 41.24223683 0 6068.04266252 0 1199.40548016 0 -248.07778409 0 14205
0.11550000 0.11549300 14438.45173809 0 -13.39634534 0 5524.32828889 0 1000.58801181 0 813.79315815 0 14776
0.11650000 0.11649800 14516.33235770 0 -279.58703054 0 4696.83846719 0 583.11713394 0 721.68971397 0 14553
0.11750000 0.11747300 14270.16808615 0 13.17654404 0 3786.47004537 0 598.80859587 0 1598.89241580 0 14568
0.11850000 0.11849100 14158.45498300 0 141.63068503 0 4298.50491168 0 -274.95373783 0 465.76674814 0 16015
0.11950000 0.11950300 14107.04718332 0 407.65835918 0 3596.60170830 0 -28.96302253 0 1414.16485869 0 15270
0.12050000 0.12050700 14090.89986162 0 -98.01226546 0 3926.34759262 0 225.11343665 0 188.29424782 0 15999
0.12150000 0.12150000 13927.44942161 0 69.95689817 0 3793.42327981 0 -180.33372807 0 565.46931963 0 15670
0.12250000 0.12250700 13489.60435852 0 521.61341360 0 4001.72372967 0 -338.03484279 0 -18.40069691 0 16887
0.12350000 0.12352200 13243.11054979 0 57.65187012 0 4679.14232077 0 -294.58207057 0 856.55060692 0 16407
0.12450000 0.12449800 13101.08002632 0 236.69447153 0 4867.97810801 0 -87.79287821 0 -294.72157464 0 16306
0.12550000 0.12549900 13117.88642237 0 132.12793129 0 4649.51692851 0 -126.71583238 0 -194.43462389 0 17523
0.12650000 0.12650100 12785.71294751 0 -9.94515740 0 4589.29950162 0 201.29778484 0 -431.10822473 0 17154
0.12750000 0.12750600 12812.07592170 0 -76.95462013 0 4512.24272496 0 430.00427518 0 -341.14347683 0 18007
0.12850000 0.12850300 13005.51424486 0 15.20616352 0 4194.62380877 0 192.16301428 0 -567.10272557 0 17496
0.12950000 0.12949900 12781.42896420 0 334.30887577 0 4042.54240139 0 -489.27153655 0 -529.84525229 0 18405
0.13050000 0.13049000 12383.78743675 0 255.56706568 0 4316.46468785 0 -84.94150286 0 -869.71122333 0 18100
0.13150000 0.13148800 12271.30541352 0 115.39293497 0 4450.92684082 0 76.64540441 0 -773.48417060 0 19059
0.13250000 0.13249300 12130.04381013 0 -119.12659119 0 3996.67082629 0 580.36110468 0 -767.10542930 0 18957
0.13350000 0.13349100 12575.24853685 0 118.37195105 0 4372.09056340 0 205.62131261 0 -928.73682409 0 19468
0.13450000 0.13450700 12129.38473577 0 68.83032041 0 3656.30286028 0 -218.06024260 0 -472.85289591 0 19953
0.13550000 0.13551000 12037.77340044 0 83.16694516 0 4045.88171145 0 176.41003874 0 -171.84045655 0 19956
0.13650000 0.13649900 11886.51583600 0 111.92181003 0 3751.63796571 0 175.62024797 0 -472.08397583 0 19723
0.13750000 0.13749600 11798.41956389 0 216.36971688 0 4037.52245172 0 243.11934803 0 -42.97120856 0 20946
0.13850000 0.13851100 11501.06718412 0 98.54776338 0 3877.15867660 0 196.13613418 0 250.76241363 0 20955
0.13950000 0.13949800 11541.16087404 0 54.76556383 0 3870.94140852 0 -50.35745485 0 100.43414403 0 20506
0.14050000 0.14048300 11017.74599054 0 156.44228270 0 3818.66582761 0 33.57434609 0 -71.23660088 0 21447
0.14150000 0.14148400 11319.49219935 0 192.63095707 0 3589.01136865 0 603.56052197 0 479.05149022 0 21771
0.14250000 0.14249400 11285.00064144 0 -206.28148542 0 3121.03562296 0 815.18380503 0 594.16102321 0 22470
0.14350000 0.14350900 11200.96866120 0 -31.29263068 0 2669.85528876 0 453.42228547 0 398.70373561 0 22519
0.14450000 0.14449900 10914.72168430 0 236.98775961 0 2254.29792343 0 -182.27360359 0 1185.38916554 0 22218
0.14550000 0.14550500 10751.37010544 0 269.62402321 0 2679.01642229 0 -70.73976866 0 764.45375348 0 23559
0.14650000 0.14650700 10351.34492575 0 255.60001940 0 2547.62994965 0 -115.58955882 0 979.37570369 0 23044
0.14750000 0.14750500 10258.42642628 0 37.86206416 0 2530.62583129 0 121.85625747 0 491.97044603 0 23649
0.14850000 0.14849900 10041.77770126 0 73.55127001 0 2624.93937147 0 -25.43642550 0 832.57677726 0 23640
0.14950000 0.14949500 9989.82067295 0 297.43696099 0 2657.88210464 0 -72.67942448 0 739.45945703 0 24457
0.15050000 0.15050000 9790.54954175 0 96.57108954 0 3017.33027322 0 -513.83413930 0 219.74307912 0 24591
0.15150000 0.15149900 9626.61578055 0 243.13252952 0 3091.44318443 0 26.62484641 0 525.74251443 0 25020
0.15250000 0.15250500 9514.92464654 0 -92.69803909 0 3138.94047627 0 355.56841754 0 313.98631804 0 25297
0.15350000 0.15350100 9597.45174034 0 -96.17256925 0 3030.69849806 0 -112.65667794 0 578.45967516 0 25452
0.15450000 0.15450400 9513.37582181 0 192.20805103 0 3104.07544290 0 214.22003602 0 312.71979682 0 26061
0.15550000 0.15549900 9600.93384985 0 -50.30099415 0 3013.13416650 0 98.67891917 0 725.46950539 0 26128
0.15650000 0.15649500 9473.51280791 0 46.67103229 0 2824.94646903 0 276.95512695 0 717.23107596 0 26331
0.15750000 0.15749700 9606.95339563 0 164.30833513 0 3054.57895885 0 -268.71010677 0 432.81412885 0 27345
0.15850000 0.15849900 9234.55441597 0 208.14007510 0 3050.95404990 0 108.82372118 0 863.87511992 0 26980
0.15950000 0.15949700 9201.65562109 0 -1.11783404 0 3100.45053395 0 191.35784511 0 936.05364789 0 27777
0.16050000 0.16050000 9141.80068510 0 27.84479304 0 2789.86174421 0 172.42483581 0 811.45234573 0 28224
0.16150000 0.16150500 8998.33118261 0 96.39621514 0 2550.48593852 0 545.30603820 0 1205.38108764 0 28075
0.16250000 0.16249700 9023.05745549 0 -77.82910196 0 2379.04971424 0 230.41349292 0 1015.84887849 0 28590
0.16350000 0.16349900 9023.90326758 0 167.42465837 0 2248.27837766 0 -319.39292466 0 505.01682288 0 29163
0.16450000 0.16449100 8738.76573252 0 208.83539854 0 2308.53974284 0 -81.60977215 0 715.17586243 0 28996
0.16550000 0.16550500 8695.53045483 0 -28.53264697 0 2240.83083745 0 165.79564626 0 764.86347804 0 30777
0.16650000 0.16650700 8578.52278770 0 -32.47292300 0 2092.13267842 0 68.72629650 0 177.22179866 0 29211
0.16750000 0.16749900 8554.96087951 0 198.61645067 0 2134.43426743 0 88.30168361 0 360.75423426 0 30922
0.16850000 0.16850800 8431.43936083 0 130.68675537 0 2131.62221685 0 -165.49576743 0 365.55668939 0 30867
0.16950000 0.16949900 8328.51391575 0 48.47019544 0 2268.81952839 0 175.27862777 0 571.16372205 0 30852
0.17050000 0.17049200 8368.19019191 0 -78.11733714 0 2011.20933221 0 153.58629383 0 767.53492609 0 31257
0.17150000 0.17149500 8207.31014188 0 52.19857906 0 1944.12654745 0 227.12141652 0 806.17865243 0 32608
0.17250000 0.17250900 8358.57869090 0 163.64706386 0 2230.79093811 0 -108.22462259 0 547.25470137 0 32361
0.17350000 0.17350400 7981.97261995 0 237.85663930 0 2415.59538722 0 -432.92726995 0 1194.66014480 0 32508
0.17450000 0.17449800 7975.39286097 0 -23.38923071 0 2323.35793125 0 42.39869263 0 593.50304731 0 32791
0.17550000 0.17549800 7937.73774617 0 79.95736289 0 2524.27674834 0 250.07807476 0 794.94473005 0 33633
0.17650000 0.17650100 7947.49204662 0 -1.57211203 0 2051.86323533 0 188.28765707 0 795.35335615 0 33984
0.17750000 0.17750300 7860.65900036 0 -65.18410138 0 2084.32264731 0 333.37079327 0 996.61818728 0 34069
0.17850000 0.17849800 7897.73193282 0 149.84714533 0 1910.46981706 0 197.20822847 0 783.50539617 0 34536
