### header ###
fiducial parameters:
Omega_m = 0.31
Omega_nu = 0
Omega_de = 0.69
Omega_k = 0
H_0 = 100
w_de = -1
zeff = 0
beta = 0
fgrowth = 0
b_1 = 2
gamma = 0.55
Lx = 3500 Ly = 3500 Lz = 3500
nx = 700 ny = 700 nz = 700
xoffset = -983.599254 yoffset = -42.9823471 zoffset = 800.977702
bins = 400 dk = 0.001
kx_ny = 0.628318531 ky_ny = 0.628318531 kz_ny = 0.628318531
############################
A(data) = 9.00368294 (not used)
A(ran) = 8.97449599 (used)
Ngal = 498282
weighted Ngal = 0
Nran = 25229228
weighted Nran = 0
SN(data) = 6801.86819
SN(ran) = 133.22021
SN(data+ran) = 6935.0884
############################
13 columns: k_central k_mean P_0(k) sigma^{lin}_{P_0(k)} P^img_1(k) sigma^{lin}_{P_1(k)} P_2(k) sigma^{lin}_{P_2(k)} P^img_3(k) sigma^{lin}_{P_3(k)} P_4(k) sigma^{lin}_{P_4(k)} N_modes
### header ###
0.00050000 0 0 0 0 0 0 0 0 0 0 0 0
0.00150000 0.00179520 63053.75337715 0 -2297.26957137 0 -50850.55231363 0 90828.57468626 0 -48751.51033907 0 3
0.00250000 0.00253879 105732.22307317 0 -53050.32281877 0 -6038.52711600 0 4396.99258944 0 -9924.01209861 0 6
0.00350000 0.00331552 115560.99892751 0 -31446.41469442 0 -29835.19758819 0 14640.23833641 0 -63898.57685438 0 7
0.00450000 0.00420575 131571.01346481 0 5625.60604809 0 28268.57784664 0 -108776.04813546 0 -12267.02143022 0 24
0.00550000 0.00557378 82487.65918806 0 30349.05589354 0 29327.27095203 0 10843.29999337 0 46073.69123519 0 45
0.00650000 0.00659388 81517.83127486 0 7221.36786070 0 61956.50442200 0 51843.11829208 0 -1311.21744446 0 40
0.00750000 0.00754703 89132.77637115 0 12091.92734327 0 63354.29128298 0 8792.18370898 0 -19989.17595490 0 57
0.00850000 0.00846663 69647.35291483 0 8199.96146283 0 58630.81522727 0 33617.40561939 0 38429.41733010 0 75
0.00950000 0.00948925 62392.26241630 0 -10975.37849409 0 50863.51410928 0 10465.41971200 0 20728.32784390 0 112
0.01050000 0.01054430 70213.82732285 0 -9148.95164185 0 25619.53832292 0 30420.89499822 0 -3630.19253125 0 105
0.01150000 0.01145670 86389.48921468 0 4947.56133636 0 31204.64425190 0 -5473.62350186 0 2791.49844552 0 144
0.01250000 0.01249090 74771.32648685 0 115.85209010 0 31775.95187186 0 -15740.56297189 0 9398.29045487 0 169
0.01350000 0.01339930 80581.39646230 0 8210.83618968 0 49612.37129227 0 5057.35213931 0 -11900.02686027 0 180
0.01450000 0.01448870 80625.00521545 0 -1670.62167475 0 38148.32211775 0 18.76417642 0 -13592.74949506 0 267
0.01550000 0.01550050 79192.39725939 0 -4799.74194314 0 43471.33614494 0 3528.88181834 0 -14753.70897118 0 238
0.01650000 0.01653350 73359.36952724 0 9609.73249249 0 42348.05375277 0 -10570.64093276 0 -8240.32976706 0 315
0.01750000 0.01747870 76662.32065673 0 6185.17115996 0 46921.04116411 0 23178.87614107 0 12217.37116215 0 297
0.01850000 0.01844180 72990.72727141 0 -5737.76951872 0 40591.40090556 0 14241.27866026 0 -4982.12978628 0 388
0.01950000 0.01947590 71845.58557981 0 2330.27821198 0 36851.15394162 0 9299.28650220 0 -571.41087494 0 399
0.02050000 0.02045430 69310.01669086 0 9115.02029714 0 43964.21391666 0 -15962.89072093 0 6521.14529693 0 462
0.02150000 0.02154770 62972.35769432 0 -2361.04599978 0 33683.53274633 0 11213.71076539 0 5388.30632662 0 571
0.02250000 0.02255340 70180.76375938 0 -6363.30797351 0 33390.90373277 0 10055.38758669 0 -10262.44677985 0 510
0.02350000 0.02348930 70237.44415390 0 -2214.20423351 0 16345.81292112 0 11053.00646852 0 -7114.92735239 0 555
0.02450000 0.02439640 74862.60828500 0 1874.61617216 0 16599.99593065 0 758.24527306 0 816.27677001 0 592
0.02550000 0.02547300 71789.67410537 0 3361.00459558 0 18544.37512328 0 -4032.54644034 0 -7633.45410109 0 837
0.02650000 0.02652900 69262.45349158 0 -1715.60349947 0 13271.45074705 0 887.34695461 0 -7692.35337927 0 723
0.02750000 0.02749970 73329.71118127 0 -2016.49291162 0 15512.19370792 0 7336.71685738 0 -19457.08325906 0 826
0.02850000 0.02848090 67165.60843153 0 6699.44687907 0 15028.54297716 0 -11420.11088419 0 -7677.95260462 0 831
0.02950000 0.02946900 60257.52058085 0 4956.53573216 0 22305.05339222 0 -3526.12469062 0 -10193.65040177 0 996
0.03050000 0.03053250 61674.42059811 0 2256.27514650 0 27823.15342846 0 456.00366003 0 -13488.28620981 0 1041
0.03150000 0.03150510 56933.80860918 0 -745.61191613 0 26055.84554585 0 -340.91609618 0 -5743.17392843 0 1036
0.03250000 0.03246190 56179.71770147 0 -1459.91560350 0 22966.98373598 0 6387.47403319 0 -1590.62103264 0 1059
0.03350000 0.03345080 53873.72637947 0 2519.65224328 0 18418.16238432 0 3515.48063979 0 -4780.96930859 0 1302
0.03450000 0.03451200 53737.18814229 0 2222.78318470 0 21805.58487695 0 1706.73894940 0 -4407.75747057 0 1339
0.03550000 0.03553350 49577.76988863 0 1850.04368329 0 23578.49489158 0 1497.06542797 0 2750.25137548 0 1365
0.03650000 0.03647120 49151.34878103 0 1067.37750847 0 18423.54482488 0 2881.52800240 0 4450.58631907 0 1308
0.03750000 0.03744890 49471.43922605 0 -1120.21769642 0 17402.85834062 0 4464.63558740 0 783.25604637 0 1579
0.03850000 0.03847530 50104.48014391 0 578.10707038 0 14109.79332646 0 2895.47840958 0 5626.45186018 0 1662
0.03950000 0.03950240 48529.40228147 0 257.71784499 0 10614.62316138 0 1606.64752404 0 -70.72746594 0 1683
0.04050000 0.04050350 49292.50053870 0 1304.75851578 0 14946.81775716 0 -1758.33348681 0 -2266.98510477 0 1822
0.04150000 0.04152450 44408.10049468 0 2304.66218872 0 12701.68096726 0 -7268.21706276 0 -3727.63667462 0 1887
0.04250000 0.04250150 42145.05885147 0 2001.08155629 0 17794.67804460 0 441.43372295 0 -407.06299535 0 1920
0.04350000 0.04349210 38880.88326320 0 1151.22714482 0 16516.95256194 0 740.57548961 0 -5393.31529171 0 2005
0.04450000 0.04448520 39982.41620165 0 28.19706828 0 16717.42101155 0 1717.64662997 0 -3799.83827020 0 2151
0.04550000 0.04548030 38864.95563295 0 1585.78782071 0 17077.16576359 0 1976.08066909 0 -6751.49178396 0 2274
0.04650000 0.04648670 38660.97212012 0 518.48500733 0 18129.15827970 0 410.25181677 0 -2017.81106033 0 2311
0.04750000 0.04749250 37968.83420177 0 585.14598449 0 14635.73466166 0 1643.99507081 0 -2092.87962935 0 2568
0.04850000 0.04851840 37915.00979612 0 -1090.18917035 0 14476.34851350 0 2898.51015161 0 -872.62872581 0 2493
0.04950000 0.04949480 38068.02489218 0 -655.10013652 0 11825.11207527 0 2905.88079981 0 1340.97465159 0 2644
0.05050000 0.05050630 38441.39051422 0 -343.52163679 0 10832.56806596 0 1405.02569431 0 -3380.63402678 0 2829
0.05150000 0.05149060 38426.01211260 0 141.84598266 0 11152.30700466 0 -635.97709411 0 2654.11439625 0 2784
0.05250000 0.05249300 38042.76037524 0 1387.16477929 0 10297.57544296 0 -3080.59042672 0 -3494.99441192 0 3055
0.05350000 0.05348950 36401.88492304 0 1844.28776726 0 13287.81776020 0 -360.11932596 0 3247.97334371 0 3009
0.05450000 0.05448610 36207.12845117 0 -796.45730570 0 11656.93826905 0 2043.39412987 0 -2896.98329602 0 3336
0.05550000 0.05550870 35714.69006235 0 142.63797034 0 14590.69791407 0 -89.07093323 0 -2686.52986994 0 3349
0.05650000 0.05647670 34471.23644614 0 1780.24770911 0 12310.74002909 0 2674.72145441 0 1045.60828253 0 3324
0.05750000 0.05747970 35124.59882328 0 -660.06955716 0 12967.83716090 0 -1450.60068595 0 235.37192899 0 3639
0.05850000 0.05849280 33272.49004034 0 618.70165682 0 12193.64448537 0 1701.34552426 0 113.93308527 0 3846
0.05950000 0.05951020 34284.82824944 0 182.33401873 0 10388.56065765 0 1895.61867493 0 938.31097756 0 3787
0.06050000 0.06049470 34423.01417251 0 -186.83220121 0 10171.19793541 0 672.98521760 0 -169.88300571 0 3930
0.06150000 0.06148310 33126.72476219 0 744.45084681 0 9758.41966695 0 -808.69851338 0 -838.08554041 0 4083
0.06250000 0.06249100 31172.12991706 0 2028.94941693 0 11432.19391403 0 -2952.94969332 0 -2107.26941943 0 4303
0.06350000 0.06350600 29595.95359736 0 1182.74188355 0 11162.08327426 0 -392.66771298 0 -2586.29564513 0 4470
0.06450000 0.06451750 28762.88361280 0 -46.41651975 0 12983.87463687 0 460.95220997 0 -1960.29583829 0 4479
0.06550000 0.06550280 29875.84050674 0 -409.74432951 0 10532.96384881 0 2417.64950229 0 -3234.36345829 0 4636
0.06650000 0.06648880 30987.91863487 0 -1433.06930811 0 9100.79527565 0 2178.46043433 0 -5441.91104081 0 4653
0.06750000 0.06749660 30368.60843274 0 298.60901488 0 7840.12883421 0 -1060.34079128 0 -5233.58862181 0 5220
0.06850000 0.06852730 30698.14561018 0 720.58246905 0 6507.54639607 0 494.71988455 0 -4054.14211003 0 5029
0.06950000 0.06949320 30200.87400942 0 267.29749074 0 8635.79634914 0 -577.37659631 0 -3203.59567049 0 5040
0.07050000 0.07048030 29222.80766678 0 622.50122047 0 8898.43747956 0 -68.94741595 0 -3835.81274541 0 5475
0.07150000 0.07148790 28183.22771768 0 980.77953207 0 8931.98436422 0 -191.53909056 0 -2939.60343764 0 5509
0.07250000 0.07249820 27014.57904075 0 402.36818903 0 8602.74377024 0 998.77555733 0 -2459.45678554 0 5916
0.07350000 0.07351270 27384.75913674 0 402.19902661 0 8593.57165213 0 2257.58231064 0 -1840.72876575 0 5721
0.07450000 0.07449140 26212.37570513 0 685.24070523 0 8405.99909074 0 241.50791123 0 -582.69862172 0 6028
0.07550000 0.07549160 25445.76238468 0 297.16344513 0 7765.20306463 0 1414.67014903 0 1051.13791637 0 6183
0.07650000 0.07648840 24574.13655035 0 -185.94245083 0 5914.99461275 0 -243.51918647 0 1428.21412703 0 6330
0.07750000 0.07749960 24472.85879115 0 325.06865331 0 6929.02444602 0 505.19147759 0 0.22744107 0 6583
0.07850000 0.07848650 24600.27983310 0 523.07985404 0 6848.01322323 0 -1224.71393538 0 -752.57393824 0 6549
0.07950000 0.07947320 23635.50482328 0 630.14648299 0 6319.18294545 0 -96.20332605 0 -1083.06567503 0 6828
0.08050000 0.08048110 23889.79767853 0 -29.65395214 0 7375.15187684 0 516.81864767 0 -49.64675300 0 7147
0.08150000 0.08149960 23694.71166949 0 1.53920225 0 6552.08883789 0 232.99047365 0 -1518.90275826 0 7386
0.08250000 0.08250610 23454.25937568 0 538.62851653 0 7751.28561117 0 -1187.43229604 0 -2393.38458146 0 7227
0.08350000 0.08350160 22659.30585797 0 391.92625433 0 7599.51177181 0 -470.94048182 0 -2053.93931955 0 7798
0.08450000 0.08449610 21950.36154357 0 5.55905052 0 8471.25843644 0 337.97882147 0 -1717.33906194 0 7371
0.08550000 0.08548940 22489.92374877 0 405.45485392 0 7725.88927936 0 604.31516211 0 -993.98518523 0 8256
0.08650000 0.08650700 21798.88428768 0 78.79387697 0 7150.16586123 0 1041.31770848 0 -799.59230271 0 8037
0.08750000 0.08749060 22148.19369576 0 219.99023200 0 7879.67329550 0 216.11377634 0 -1336.24030080 0 8155
0.08850000 0.08849210 21699.80344299 0 385.67822945 0 7132.82122112 0 497.15955812 0 -227.10274275 0 8718
0.08950000 0.08949900 20322.66757847 0 487.54915557 0 8113.23826230 0 -590.60751398 0 987.19891629 0 8571
0.09050000 0.09049190 19921.29129635 0 603.66267849 0 8443.51140610 0 -232.97179988 0 359.95016355 0 8932
0.09150000 0.09150830 20034.10285676 0 215.94571238 0 8242.33994385 0 887.23710888 0 158.25034335 0 9285
0.09250000 0.09250820 19743.34122053 0 -177.76663346 0 7505.98912086 0 827.84572185 0 1499.56991051 0 9204
0.09350000 0.09350330 19428.08398744 0 -37.22836416 0 7223.79545124 0 1386.60456609 0 2126.76703576 0 9349
0.09450000 0.09448040 19527.93375221 0 90.02779935 0 6860.12920679 0 -48.10979161 0 1511.54309463 0 9564
0.09550000 0.09549270 19009.13238919 0 601.66897857 0 6875.83714558 0 -23.20282251 0 1836.31296757 0 10155
0.09650000 0.09649430 18657.18668369 0 536.25584885 0 6952.28977075 0 -258.25059676 0 1192.63898345 0 9913
0.09750000 0.09749140 18139.70346938 0 182.91510262 0 7367.16609257 0 -262.56643533 0 517.27450743 0 10476
0.09850000 0.09850240 17620.02334056 0 337.74594853 0 7024.21675201 0 -68.37490003 0 1028.22519642 0 10575
0.09950000 0.09950330 17392.42299667 0 -182.02864762 0 6603.80420561 0 867.94160869 0 633.95812967 0 10882
0.10050000 0.10051200 17676.70373507 0 -109.09141521 0 6035.24272879 0 1174.15194779 0 -33.04631769 0 10875
0.10150000 0.10150300 17086.17311310 0 524.32440611 0 5691.73317503 0 -518.77719696 0 -153.39516227 0 11118
0.10250000 0.10250800 16473.45365451 0 798.98815122 0 6355.11348236 0 -802.06493000 0 661.07794092 0 11575
0.10350000 0.10349800 15705.63203108 0 166.72933493 0 5819.56064616 0 264.21082584 0 809.50148564 0 11364
0.10450000 0.10450100 15910.38446399 0 -136.51297267 0 5696.00617377 0 1460.14627952 0 388.18930274 0 12093
0.10550000 0.10551000 15866.66586512 0 -183.53902635 0 4874.66771271 0 545.04131000 0 860.71156301 0 12067
0.10650000 0.10649700 15984.20079174 0 226.12072196 0 4894.63766567 0 340.96772367 0 545.84098688 0 12054
0.10750000 0.10749900 15882.81318682 0 79.45789438 0 4560.00364655 0 -420.27084542 0 532.13004339 0 12807
0.10850000 0.10850100 15484.73227647 0 361.21998014 0 4819.82174181 0 -318.44166068 0 750.53849694 0 12736
0.10950000 0.10950300 15258.01069839 0 36.96835933 0 4637.01648492 0 278.61050204 0 963.45246728 0 12933
0.11050000 0.11050200 15113.01434032 0 -89.59929117 0 4961.54469726 0 -99.12423375 0 -242.49103048 0 13428
0.11150000 0.11150900 15140.47577177 0 329.62066019 0 4525.12762860 0 375.99203334 0 -274.02444299 0 13453
0.11250000 0.11250000 15007.78213499 0 121.67830740 0 5267.94836484 0 -441.74458636 0 -217.96687373 0 13668
0.11350000 0.11349100 14968.45736514 0 93.06734042 0 4736.39391306 0 -454.32192196 0 -1154.85205377 0 13791
0.11450000 0.11448600 14520.94587818 0 424.41312774 0 5810.16883660 0 -440.49344354 0 -736.70452623 0 14205
0.11550000 0.11549300 14301.69380946 0 113.67824319 0 5687.75675976 0 -85.21282180 0 -808.61612909 0 14776
0.11650000 0.11649800 14353.65083777 0 49.30568203 0 5728.72921549 0 1205.77653225 0 -591.37423715 0 14553
0.11750000 0.11747300 14483.26879423 0 -128.99073737 0 5235.87341291 0 706.33547841 0 -223.09996450 0 14568
0.11850000 0.11849100 14219.74889800 0 89.26074664 0 5327.68247054 0 -159.84090946 0 11.15461376 0 16015
0.11950000 0.11950300 14061.46120710 0 334.84821828 0 4610.29101983 0 489.61425521 0 690.17387677 0 15270
0.12050000 0.12050700 14151.97408517 0 -118.04790616 0 4660.77611541 0 467.00800484 0 1421.04120113 0 15999
0.12150000 0.12150000 13463.68076723 0 -47.92678863 0 4236.40912287 0 474.17763536 0 1551.16444793 0 15670
0.12250000 0.12250700 13852.53463661 0 238.66949768 0 4003.33846184 0 82.70306666 0 604.80397559 0 16887
0.12350000 0.12352200 13460.27554973 0 355.24437265 0 4207.75037301 0 -380.97024164 0 927.87673206 0 16407
0.12450000 0.12449800 13193.13074455 0 143.60241581 0 3746.62900062 0 135.29148820 0 1102.76321059 0 16306
0.12550000 0.12549900 13352.18735553 0 -343.46781239 0 3741.74086582 0 389.92596366 0 316.68852289 0 17523
0.12650000 0.12650100 13480.59700900 0 350.28923196 0 3590.56019338 0 -254.34118738 0 -643.79701133 0 17154
0.12750000 0.12750600 12689.04870879 0 413.66801884 0 3756.83366855 0 -632.16215206 0 -156.62682352 0 18007
0.12850000 0.12850300 12712.99507702 0 25.44389501 0 3984.30219756 0 121.56956013 0 210.30733127 0 17496
0.12950000 0.12949900 12336.00454603 0 11.94780975 0 3758.36052413 0 788.70439437 0 -135.07619058 0 18405
0.13050000 0.13049000 12618.19821564 0 -24.43386356 0 3716.24567286 0 304.99983921 0 179.20890784 0 18100
0.13150000 0.13148800 12025.80021633 0 215.63594743 0 3423.35302955 0 336.87926575 0 163.59433791 0 19059
0.13250000 0.13249300 12144.98282884 0 231.85357039 0 3056.11679901 0 94.34385760 0 535.04205358 0 18957
0.13350000 0.13349100 12157.72493303 0 -2.12482277 0 3207.18762572 0 -9.53818997 0 789.49748051 0 19468
0.13450000 0.13450700 11877.06910358 0 15.61489946 0 2930.32147381 0 271.52105889 0 339.22227509 0 19953
0.13550000 0.13551000 11905.07976366 0 139.16794386 0 2966.69139362 0 -375.09129839 0 385.37944907 0 19956
0.13650000 0.13649900 11695.82365599 0 79.05893470 0 3021.63622568 0 255.63956386 0 421.71092288 0 19723
0.13750000 0.13749600 11770.29905809 0 170.75188541 0 3355.77593903 0 -266.35281750 0 215.58322148 0 20946
0.13850000 0.13851100 11389.90330959 0 93.32328097 0 3236.04409789 0 96.85822627 0 507.72232311 0 20955
0.13950000 0.13949800 11499.08996105 0 7.70474398 0 3604.89506060 0 -22.24738439 0 508.35832986 0 20506
0.14050000 0.14048300 11367.93416443 0 138.83291440 0 3229.39843148 0 300.08424298 0 372.42094880 0 21447
0.14150000 0.14148400 11384.08148613 0 91.09264381 0 3428.94417699 0 342.21886649 0 1053.59846063 0 21771
0.14250000 0.14249400 11331.57522919 0 69.18446303 0 3239.42734625 0 262.15671077 0 716.49401114 0 22470
0.14350000 0.14350900 10989.73533046 0 309.50351397 0 3729.38322166 0 -665.23340473 0 1042.31291076 0 22519
0.14450000 0.14449900 10578.22028784 0 281.26767015 0 3714.32337266 0 -349.19736545 0 517.78529005 0 22218
0.14550000 0.14550500 10472.55968418 0 44.42369859 0 3802.68327450 0 75.98808759 0 500.29894896 0 23559
0.14650000 0.14650700 10392.87759468 0 76.65693822 0 3695.39695410 0 316.36118263 0 483.38051027 0 23044
0.14750000 0.14750500 10329.55153375 0 -101.43088414 0 3349.49276351 0 495.65796705 0 412.98477843 0 23649
0.14850000 0.14849900 10539.78526838 0 -14.42021735 0 2634.33118103 0 465.00661571 0 415.94841611 0 23640
0.14950000 0.14949500 10447.74553472 0 189.39270508 0 2737.22367240 0 106.71446355 0 345.69987754 0 24457
0.15050000 0.15050000 10205.76638533 0 221.18315658 0 2677.57744328 0 -248.44247190 0 280.77006901 0 24591
0.15150000 0.15149900 9982.13147214 0 -10.02982649 0 2528.60466993 0 104.03785275 0 319.24902676 0 25020
0.15250000 0.15250500 9671.75138928 0 -1.83059001 0 2474.91207916 0 227.95075175 0 623.99182697 0 25297
0.15350000 0.15350100 9709.59324183 0 173.38488745 0 2613.88889146 0 0.77707063 0 606.90202895 0 25452
0.15450000 0.15450400 9604.65761996 0 352.40376218 0 2733.71959375 0 -26.74227149 0 490.44139353 0 26061
0.15550000 0.15549900 9474.08400568 0 14.73503520 0 2590.07433810 0 26.37725414 0 868.05365133 0 26128
0.15650000 0.15649500 9190.05591245 0 45.08738646 0 2634.00164385 0 35.21423294 0 647.80308495 0 26331
0.15750000 0.15749700 9127.64157104 0 252.19370344 0 2812.19338027 0 -187.51104779 0 882.54120410 0 27345
0.15850000 0.15849900 9010.21649015 0 104.17461068 0 2839.10558309 0 275.17123236 0 877.23126172 0 26980
0.15950000 0.15949700 8904.62179392 0 -2.43719106 0 2767.23352469 0 177.43819474 0 468.85341303 0 27777
0.16050000 0.16050000 8848.89705722 0 41.07263503 0 2657.60749033 0 -51.73327257 0 564.47851118 0 28224
0.16150000 0.16150500 8632.89642198 0 211.53540649 0 2535.34919750 0 -19.95051026 0 888.99793587 0 28075
0.16250000 0.16249700 8721.99229018 0 11.15351531 0 2690.20970175 0 87.82978637 0 647.05174019 0 28590
0.16350000 0.16349900 8522.45752924 0 -47.05450372 0 2574.70692106 0 29.14558612 0 220.58779275 0 29163
0.16450000 0.16449100 8576.19405831 0 167.29723733 0 2555.12142815 0 -32.27190532 0 323.95481765 0 28996
0.16550000 0.16550500 8453.44145971 0 83.97178479 0 2556.67025288 0 -124.61997594 0 64.82688308 0 30777
0.16650000 0.16650700 8466.00781075 0 57.85409610 0 2680.46638587 0 61.65904220 0 232.46870645 0 29211
0.16750000 0.16749900 8468.64410817 0 -15.39784431 0 2674.45782467 0 -128.45688714 0 -291.64699278 0 30922
0.16850000 0.16850800 8441.74288992 0 -50.24343499 0 2493.02563934 0 230.81882365 0 -35.58397365 0 30867
0.16950000 0.16949900 8545.89860713 0 -31.33371298 0 2331.08008578 0 -26.55059069 0 -490.56881457 0 30852
0.17050000 0.17049200 8404.87866433 0 244.63851442 0 2390.11117883 0 53.72411650 0 -105.01405172 0 31257
0.17150000 0.17149500 8276.28227312 0 109.44819413 0 2559.02095141 0 -38.47137840 0 -318.59764161 0 32608
0.17250000 0.17250900 8227.59864744 0 94.09264043 0 2616.36042029 0 -12.56008983 0 -468.05044078 0 32361
0.17350000 0.17350400 7997.99911135 0 34.46552447 0 2430.07305388 0 67.69385653 0 -279.75179913 0 32508
0.17450000 0.17449800 7925.72062376 0 -0.34180585 0 2284.01119227 0 475.29256948 0 34.50968245 0 32791
0.17550000 0.17549800 7871.45683521 0 -29.43008655 0 2057.24567590 0 484.84255688 0 119.49567283 0 33633
0.17650000 0.17650100 8048.55011437 0 140.55200001 0 1748.72198580 0 -107.43790750 0 305.04597441 0 33984
0.17750000 0.17750300 7841.34812176 0 160.57907274 0 1865.57586893 0 47.78860271 0 -42.69417763 0 34069
0.17850000 0.17849800 7698.51572449 0 -34.51363690 0 1893.36683756 0 -178.74426042 0 99.00087700 0 34536
