### header ###
fiducial parameters:
Omega_m = 0.31
Omega_nu = 0
Omega_de = 0.69
Omega_k = 0
H_0 = 100
w_de = -1
zeff = 0
beta = 0
fgrowth = 0
b_1 = 2
gamma = 0.55
Lx = 3500 Ly = 3500 Lz = 3500
nx = 700 ny = 700 nz = 700
xoffset = -983.599254 yoffset = -42.9823471 zoffset = 800.977702
bins = 400 dk = 0.001
kx_ny = 0.628318531 ky_ny = 0.628318531 kz_ny = 0.628318531
############################
A(data) = 9.10099906 (not used)
A(ran) = 9.09803661 (used)
Ngal = 506129
weighted Ngal = 0
Nran = 25229228
weighted Nran = 0
SN(data) = 6726.32225
SN(ran) = 135.054085
SN(data+ran) = 6861.37634
############################
13 columns: k_central k_mean P_0(k) sigma^{lin}_{P_0(k)} P^img_1(k) sigma^{lin}_{P_1(k)} P_2(k) sigma^{lin}_{P_2(k)} P^img_3(k) sigma^{lin}_{P_3(k)} P_4(k) sigma^{lin}_{P_4(k)} N_modes
### header ###
0.00050000 0 0 0 0 0 0 0 0 0 0 0 0
0.00150000 0.00179520 34866.13183044 0 5661.99793705 0 31647.32252693 0 -42254.90457728 0 -103194.67696115 0 3
0.00250000 0.00253879 56065.36830090 0 19850.44080320 0 289.59617308 0 -8822.91854306 0 57273.45159340 0 6
0.00350000 0.00331552 55744.94831870 0 -1343.27042725 0 -27458.35577304 0 22974.34339961 0 54529.50536258 0 7
0.00450000 0.00420575 32801.91095096 0 -2489.09316236 0 -10515.02604178 0 10908.40555506 0 11141.21258635 0 24
0.00550000 0.00557378 62598.44284366 0 -15750.44908721 0 -41715.78175499 0 184.16954081 0 -20361.55296541 0 45
0.00650000 0.00659388 52671.35506472 0 -20124.06650620 0 -30491.08641702 0 -27877.08767984 0 -24246.90613315 0 40
0.00750000 0.00754703 59105.56845424 0 2816.58720930 0 -43941.47585142 0 -18843.37518894 0 -8262.61746483 0 57
0.00850000 0.00846663 72608.02476268 0 8664.47706815 0 -27122.33769777 0 -27900.70451089 0 -7650.76578748 0 75
0.00950000 0.00948925 66460.61856326 0 -2302.06982959 0 -9147.83121544 0 -28013.62591702 0 -30557.65292686 0 112
0.01050000 0.01054430 57209.74107243 0 9281.62330949 0 1111.27625434 0 -23837.95049595 0 -14783.03777997 0 105
0.01150000 0.01145670 45713.28740879 0 8148.09231110 0 15029.09220579 0 9013.50087735 0 4960.74282346 0 144
0.01250000 0.01249090 57577.06517955 0 -6091.68146272 0 16003.53363948 0 5068.14997416 0 -15925.87271133 0 169
0.01350000 0.01339930 54876.61785615 0 4927.70122914 0 27052.03643325 0 1683.58347040 0 -4569.29659495 0 180
0.01450000 0.01448870 53173.35003169 0 1048.35662259 0 19746.41690085 0 13305.28323060 0 8125.05766240 0 267
0.01550000 0.01550050 50921.40280678 0 -6129.19377808 0 13347.02460641 0 -6536.16120765 0 22213.44205690 0 238
0.01650000 0.01653350 60217.97611955 0 2288.92129621 0 17916.93633743 0 7996.95557695 0 10499.03250410 0 315
0.01750000 0.01747870 60349.90083625 0 -4838.36370033 0 14314.76545083 0 7661.46476117 0 16184.66924135 0 297
0.01850000 0.01844180 66410.63875801 0 -8540.39533627 0 7918.84428133 0 8414.31441218 0 3268.67926303 0 388
0.01950000 0.01947590 72730.72243841 0 3752.11030234 0 5898.26510871 0 3042.63872845 0 10960.34061423 0 399
0.02050000 0.02045430 72373.06475516 0 -2088.06838656 0 7185.87670669 0 -9164.31905889 0 5423.98421836 0 462
0.02150000 0.02154770 70713.40568385 0 3563.41731453 0 13538.15616933 0 -4568.25306056 0 -2268.62180608 0 571
0.02250000 0.02255340 69339.67503683 0 4906.78660294 0 16924.59005043 0 -11058.27906336 0 699.79087007 0 510
0.02350000 0.02348930 63903.41006632 0 2302.94859540 0 27753.62108402 0 3656.13809169 0 -4123.42180930 0 555
0.02450000 0.02439640 62873.27684964 0 -2352.31326458 0 27904.54911129 0 -2833.60231223 0 -6371.89790927 0 592
0.02550000 0.02547300 61852.48051966 0 5893.60764993 0 29659.00504398 0 1332.50554613 0 -3851.99302082 0 837
0.02650000 0.02652900 60932.74225742 0 300.82680008 0 33218.77548042 0 -3838.07556736 0 238.51900903 0 723
0.02750000 0.02749970 57456.56441833 0 -1084.57385685 0 31151.80845779 0 4105.92338518 0 -9667.08294594 0 826
0.02850000 0.02848090 64690.34484605 0 -292.88056028 0 36489.65165796 0 8407.09754799 0 -471.83792140 0 831
0.02950000 0.02946900 61136.72577026 0 -3463.67739549 0 22240.68379690 0 10276.50703275 0 7132.43676108 0 996
0.03050000 0.03053250 65955.87745314 0 -275.27229043 0 19038.79073516 0 10855.29514663 0 3138.43518593 0 1041
0.03150000 0.03150510 61712.31737352 0 2902.45361317 0 14839.71817449 0 -4271.10938766 0 16209.49437538 0 1036
0.03250000 0.03246190 60686.68783160 0 3633.30116530 0 21760.32843792 0 2403.71007969 0 14369.68831374 0 1059
0.03350000 0.03345080 58292.16085459 0 1590.19263431 0 20798.29957124 0 -3604.94998346 0 14274.67176091 0 1302
0.03450000 0.03451200 54310.14344813 0 2250.72793734 0 19115.46305178 0 4450.84994881 0 4614.73977172 0 1339
0.03550000 0.03553350 52959.80994070 0 -0.01360582 0 21359.17184724 0 1481.10484401 0 14522.92310125 0 1365
0.03650000 0.03647120 52936.19310965 0 -256.53260961 0 19894.81847643 0 2775.65869186 0 12226.04897449 0 1308
0.03750000 0.03744890 49239.33520740 0 2390.40776229 0 21187.37313207 0 -834.02783930 0 4455.62823788 0 1579
0.03850000 0.03847530 48768.09704366 0 3839.30583949 0 21186.27467481 0 -1290.39069485 0 6126.78815669 0 1662
0.03950000 0.03950240 45781.83114170 0 628.81954662 0 20910.67174875 0 5544.10051954 0 9212.47542509 0 1683
0.04050000 0.04050350 44150.95165055 0 -551.84954809 0 20038.93606869 0 1791.15538969 0 12713.43445992 0 1822
0.04150000 0.04152450 46608.74976562 0 134.29738438 0 20456.78920969 0 3473.10215877 0 7659.88298272 0 1887
0.04250000 0.04250150 42476.35356052 0 1267.22423127 0 15844.58687423 0 -948.09713327 0 7268.21706276 0 1920
0.04350000 0.04349210 41293.64463069 0 819.72812271 0 18344.67559375 0 2030.72891769 0 6200.24199354 0 2005
0.04450000 0.04448520 41345.27212182 0 717.54193936 0 18655.31930635 0 -1726.88465551 0 7281.49741101 0 2151
0.04550000 0.04548030 41019.14016188 0 98.25019131 0 16259.58402636 0 2487.75304450 0 2229.00045278 0 2274
0.04650000 0.04648670 41666.68071555 0 -408.87654828 0 17380.33996683 0 888.79801665 0 3555.62925257 0 2311
0.04750000 0.04749250 41413.26662610 0 826.91862392 0 16163.13947909 0 741.14888429 0 3367.30974024 0 2568
0.04850000 0.04851840 40509.89537701 0 499.74532650 0 18355.87985778 0 -985.50839057 0 408.20319398 0 2493
0.04950000 0.04949480 37989.70488967 0 2375.36988243 0 18013.49073042 0 -2337.89052078 0 2631.83768305 0 2644
0.05050000 0.05050630 38690.63046609 0 796.46499490 0 20659.67426526 0 997.68149390 0 -149.99543706 0 2829
0.05150000 0.05149060 36664.74574491 0 -515.82124848 0 18564.14735392 0 329.44051320 0 449.80726263 0 2784
0.05250000 0.05249300 36133.20227770 0 1459.72886576 0 20119.12344854 0 917.81925741 0 753.84924711 0 3055
0.05350000 0.05348950 33444.61829269 0 919.37137751 0 19039.01042661 0 2140.55267435 0 4594.20960557 0 3009
0.05450000 0.05448610 35880.99649123 0 -24.79459692 0 16293.85589281 0 2814.29143363 0 289.59177925 0 3336
0.05550000 0.05550870 34647.53883607 0 83.75121457 0 16217.62295910 0 4027.53747524 0 2067.28557524 0 3349
0.05650000 0.05647670 35473.35900274 0 -927.66143444 0 12859.63912098 0 1246.59520397 0 3651.08518830 0 3324
0.05750000 0.05747970 33574.45594060 0 566.41069750 0 11064.65011546 0 -22.25924772 0 3899.06191433 0 3639
0.05850000 0.05849280 32509.50162884 0 1480.03934047 0 11214.47968547 0 100.06396393 0 1565.30159284 0 3846
0.05950000 0.05951020 33497.89346971 0 141.14077310 0 11735.69765446 0 1138.50700977 0 3669.51730110 0 3787
0.06050000 0.06049470 32295.19261778 0 -608.56069941 0 8340.55300730 0 3597.41456667 0 958.32377034 0 3930
0.06150000 0.06148310 32379.44428948 0 -640.24899439 0 7368.23159611 0 1962.74539798 0 3522.18122906 0 4083
0.06250000 0.06249100 32152.83255712 0 1147.36057527 0 5479.81880079 0 236.41875875 0 2824.78170045 0 4303
0.06350000 0.06350600 30720.44429252 0 967.29377231 0 7506.51638034 0 -2585.35097189 0 3615.79175660 0 4470
0.06450000 0.06451750 29997.87910812 0 567.17082992 0 7727.32825837 0 406.94436196 0 2230.82389183 0 4479
0.06550000 0.06550280 29668.23208495 0 666.93491502 0 10217.57480085 0 -902.99887208 0 2381.92767226 0 4636
0.06650000 0.06648880 28630.29982174 0 274.46053052 0 9288.97198854 0 -776.99264308 0 -76.07991862 0 4653
0.06750000 0.06749660 28488.48898971 0 -412.32350716 0 9102.87135987 0 1242.43205096 0 1452.89646162 0 5220
0.06850000 0.06852730 28715.32041352 0 -105.51824360 0 9125.00527362 0 813.12419768 0 -612.39761061 0 5029
0.06950000 0.06949320 28655.01511005 0 843.86562250 0 9995.49969697 0 -108.84030789 0 2117.50704108 0 5040
0.07050000 0.07048030 28407.42284406 0 1572.54042617 0 10618.84123725 0 -2870.81804413 0 -38.20500251 0 5475
0.07150000 0.07148790 27081.58493350 0 344.08075154 0 11174.16630410 0 266.09907387 0 563.44266599 0 5509
0.07250000 0.07249820 26730.84753097 0 -826.15409767 0 11543.13809710 0 1877.53806847 0 18.11718510 0 5916
0.07350000 0.07351270 26450.85077587 0 165.62538538 0 9798.83190948 0 2242.53344620 0 1115.29660790 0 5721
0.07450000 0.07449140 26949.44052534 0 181.22457690 0 9720.42403039 0 948.14985922 0 2106.87397482 0 6028
0.07550000 0.07549160 26820.59148896 0 231.51414710 0 9188.37527284 0 -129.52129222 0 1937.38201989 0 6183
0.07650000 0.07648840 26584.64286992 0 700.16544399 0 9517.11057648 0 -445.91762548 0 2625.79616813 0 6330
0.07750000 0.07749960 26037.28161819 0 83.68113300 0 8721.56389185 0 -143.32560458 0 727.35885188 0 6583
0.07850000 0.07848650 24914.43860892 0 193.11427827 0 9953.71438287 0 607.97412323 0 1672.45609837 0 6549
0.07950000 0.07947320 24837.32690940 0 1300.12302616 0 10288.28249456 0 -701.23314445 0 2653.71895164 0 6828
0.08050000 0.08048110 24259.42854590 0 213.77516083 0 10188.91605099 0 732.48095807 0 3013.20007393 0 7147
0.08150000 0.08149960 23752.38067554 0 -463.86971245 0 9075.91521875 0 1919.00482996 0 2643.45936085 0 7386
0.08250000 0.08250610 24185.61221815 0 219.31248387 0 8302.27177185 0 2487.19283130 0 2880.85794347 0 7227
0.08350000 0.08350160 23956.25434265 0 158.40961965 0 7573.01698275 0 -163.57346722 0 4579.56717032 0 7798
0.08450000 0.08449610 23540.15873327 0 -162.77598725 0 6933.39630591 0 57.38362686 0 3056.50125905 0 7371
0.08550000 0.08548940 23215.23507631 0 1041.55717216 0 8278.57804879 0 -997.36294130 0 2560.73454474 0 8256
0.08650000 0.08650700 22029.01108325 0 1124.23804998 0 8590.73763241 0 -1841.34390181 0 1660.20829994 0 8037
0.08750000 0.08749060 20905.72869109 0 350.11787263 0 9055.83542008 0 -98.74284939 0 1830.20554521 0 8155
0.08850000 0.08849210 20491.72015050 0 -131.56222581 0 9002.94470310 0 514.43609387 0 690.79230821 0 8718
0.08950000 0.08949900 20325.41372161 0 576.58241171 0 8275.27169245 0 1086.70706084 0 184.42218598 0 8571
0.09050000 0.09049190 19883.28467522 0 642.16031002 0 9306.83290356 0 -281.11827996 0 63.22170749 0 8932
0.09150000 0.09150830 19179.39326420 0 324.76877448 0 8433.30673817 0 102.81208430 0 401.07969866 0 9285
0.09250000 0.09250820 19198.83595767 0 -510.43770945 0 8003.07398388 0 1934.77867619 0 1004.54026102 0 9204
0.09350000 0.09350330 19349.65413921 0 -50.35778439 0 6162.44407929 0 1438.89113158 0 1167.63809625 0 9349
0.09450000 0.09448040 19362.39624341 0 5.32071825 0 5669.37956983 0 930.84915740 0 1999.13728694 0 9564
0.09550000 0.09549270 18863.80649394 0 406.37645956 0 5513.68423806 0 -387.95972517 0 1521.08868820 0 10155
0.09650000 0.09649430 18260.20423060 0 715.86129975 0 5806.46703564 0 -623.20313466 0 2741.18910310 0 9913
0.09750000 0.09749140 17557.52112257 0 332.43380923 0 6261.86544572 0 -59.19201704 0 1545.96874510 0 10476
0.09850000 0.09850240 17214.14338367 0 139.87754725 0 6529.27388064 0 204.20210583 0 2492.91579362 0 10575
0.09950000 0.09950330 17360.12835328 0 221.16667972 0 6542.42241402 0 639.82059606 0 1771.65777335 0 10882
0.10050000 0.10051200 17216.77968109 0 23.52324249 0 6329.57435111 0 -49.31117431 0 867.27594359 0 10875
0.10150000 0.10150300 16998.18668673 0 200.05433122 0 5858.92935429 0 224.44227927 0 1793.84660997 0 11118
0.10250000 0.10250800 16427.86767830 0 93.91194421 0 6352.94952157 0 -305.03279293 0 1470.01042570 0 11575
0.10350000 0.10349800 15947.95170222 0 168.10789878 0 5725.58762773 0 455.73893183 0 980.80040276 0 11364
0.10450000 0.10450100 16831.22118349 0 399.68136257 0 5371.69765287 0 548.87931966 0 -209.84927459 0 12093
0.10550000 0.10551000 15890.50238762 0 43.04337720 0 5170.80080493 0 -440.55276023 0 452.97850874 0 12067
0.10650000 0.10649700 15503.62574131 0 36.56149076 0 4538.46289972 0 364.40770310 0 -431.89032630 0 12054
0.10750000 0.10749900 15511.75432502 0 219.06972482 0 4635.05024642 0 466.21491870 0 -26.11779854 0 12807
0.10850000 0.10850100 15152.11941870 0 170.12576477 0 4530.40022344 0 54.66802082 0 -919.98431666 0 12736
0.10950000 0.10950300 15038.31924676 0 56.11611703 0 4455.66119160 0 -112.07888942 0 -250.53832835 0 12933
0.11050000 0.11050200 14853.00950731 0 170.24220124 0 4127.42019372 0 645.89726161 0 563.87216278 0 13428
0.11150000 0.11150900 14658.91210980 0 -63.84640013 0 3926.54531493 0 657.46291808 0 -30.50481713 0 13453
0.11250000 0.11250000 14752.72035965 0 210.07116296 0 3739.29130613 0 108.90874177 0 633.67912153 0 13668
0.11350000 0.11349100 14874.53926957 0 182.29886810 0 4010.72009462 0 121.09392814 0 860.37104126 0 13791
0.11450000 0.11448600 14222.49504115 0 -175.29620308 0 3600.18267896 0 -41.77367045 0 1890.28017266 0 14205
0.11550000 0.11549300 14246.44140937 0 429.60883057 0 4313.24620808 0 -200.42560978 0 85.17261826 0 14776
0.11650000 0.11649800 13830.78518290 0 620.24498926 0 4605.01842499 0 -611.95822771 0 919.16926138 0 14553
0.11750000 0.11747300 13526.95190530 0 205.75971822 0 5135.16685148 0 73.89805297 0 1407.23359340 0 14568
0.11850000 0.11849100 13451.70758311 0 -112.47433403 0 5044.24754422 0 249.71997769 0 649.21240562 0 16015
0.11950000 0.11950300 13570.01142981 0 43.90039355 0 4655.33875198 0 315.01227712 0 1027.90774227 0 15270
0.12050000 0.12050700 13357.45995036 0 -116.83411089 0 4704.82425146 0 428.63340053 0 1514.32219149 0 15999
0.12150000 0.12150000 13431.16643239 0 -33.37409734 0 4041.35606755 0 800.35792742 0 1461.12390648 0 15670
0.12250000 0.12250700 13590.66242627 0 112.06021565 0 3950.04131568 0 302.30312664 0 1459.86068063 0 16887
0.12350000 0.12352200 13378.44048400 0 95.49240451 0 3996.33030454 0 -297.69180307 0 2133.79716222 0 16407
0.12450000 0.12449800 13258.37910568 0 226.78419014 0 3940.90215129 0 -278.31721395 0 1314.02949504 0 16306
0.12550000 0.12549900 12961.68580026 0 93.07085549 0 3644.74708993 0 296.03532952 0 1639.60124178 0 17523
0.12650000 0.12650100 12853.04837743 0 94.66142160 0 3624.41464608 0 665.05435619 0 1164.41961649 0 17154
0.12750000 0.12750600 12984.75340268 0 47.90075519 0 3271.38146789 0 350.65172286 0 1557.01922512 0 18007
0.12850000 0.12850300 12779.78127831 0 97.56354567 0 3239.28454680 0 62.28230684 0 1137.23279935 0 17496
0.12950000 0.12949900 12401.58244434 0 108.23791392 0 2873.93766275 0 -385.23994500 0 873.80737044 0 18405
0.13050000 0.13049000 12128.50596996 0 391.02332246 0 3288.72610799 0 -330.31708209 0 954.57363726 0 18100
0.13150000 0.13148800 12122.57430077 0 240.45888455 0 3683.44573913 0 -318.79756083 0 560.97882636 0 19059
0.13250000 0.13249300 11941.32885318 0 59.12116655 0 3877.90562754 0 124.48706261 0 125.32408704 0 18957
0.13350000 0.13349100 11729.32660236 0 -16.55397057 0 3860.64886401 0 -96.93237213 0 279.30912085 0 19468
0.13450000 0.13450700 11877.28879503 0 -74.64533344 0 3736.23759496 0 276.25760659 0 328.15421975 0 19953
0.13550000 0.13551000 11963.73738124 0 23.00389190 0 3765.15997456 0 -129.48064930 0 -302.24820378 0 19956
0.13650000 0.13649900 11830.38467011 0 326.67679474 0 4140.62364996 0 -328.49144613 0 425.11504193 0 19723
0.13750000 0.13749600 11356.51020895 0 107.91969086 0 4365.54375814 0 -157.01787431 0 396.73969404 0 20946
0.13850000 0.13851100 11669.79021897 0 43.68883068 0 4316.98096276 0 357.47973317 0 199.99171916 0 20955
0.13950000 0.13949800 11494.69613202 0 -30.77075363 0 4012.51057995 0 99.48793294 0 -122.06606281 0 20506
0.14050000 0.14048300 11526.33170106 0 130.99432340 0 3947.05351194 0 379.47414285 0 69.52740138 0 21447
0.14150000 0.14148400 11328.06016596 0 184.74403396 0 3989.95925244 0 -399.24857041 0 35.85683043 0 21771
0.14250000 0.14249400 10632.63786041 0 362.62820234 0 4141.51340034 0 -85.29597501 0 342.93835599 0 22470
0.14350000 0.14350900 10619.43440417 0 154.05094125 0 4228.62106091 0 262.09300025 0 509.06353942 0 22519
0.14450000 0.14449900 10553.37318466 0 41.47829530 0 4113.55766312 0 415.71114934 0 110.35101615 0 22218
0.14550000 0.14550500 10507.93000789 0 93.98619992 0 3844.74320291 0 164.25890455 0 358.25304708 0 23559
0.14650000 0.14650700 10593.34604429 0 -139.59304682 0 3671.09907955 0 492.96345139 0 649.44967238 0 23044
0.14750000 0.14750500 10630.00156299 0 -114.35489286 0 3493.30278775 0 -160.74603824 0 -44.90229642 0 23649
0.14850000 0.14849900 10265.30276872 0 359.84031782 0 3280.12518766 0 -97.43821170 0 383.00458448 0 23640
0.14950000 0.14949500 10067.55849311 0 117.88423603 0 3639.49646423 0 -176.66927465 0 262.94430462 0 24457
0.15050000 0.15050000 9969.02687705 0 210.91148276 0 3545.00717089 0 358.88905383 0 509.00422273 0 24591
0.15150000 0.15149900 9957.22944610 0 -53.79584576 0 3464.50123844 0 608.66395439 0 228.24623675 0 25020
0.15250000 0.15250500 9818.39543324 0 62.05382774 0 2906.84744220 0 249.26082256 0 645.08110787 0 25297
0.15350000 0.15350100 9696.71932276 0 116.84619392 0 2866.97344373 0 -56.79628176 0 583.24125961 0 25452
0.15450000 0.15450400 9708.58266115 0 176.31776833 0 2863.19475076 0 64.63256599 0 586.99139269 0 26061
0.15550000 0.15549900 9200.55716383 0 122.87123198 0 2922.06107523 0 -137.42908602 0 697.49948823 0 26128
0.15650000 0.15649500 9195.19669241 0 21.29732870 0 2550.37609279 0 138.55939854 0 435.28785460 0 26331
0.15750000 0.15749700 9409.32995032 0 26.67504590 0 2534.17384823 0 437.60010712 0 643.76845145 0 27345
0.15850000 0.15849900 9271.94590104 0 3.07616364 0 2453.00884143 0 -142.67861326 0 154.28601111 0 26980
0.15950000 0.15949700 8957.77614064 0 227.86946591 0 2579.01287351 0 -47.37327602 0 484.45040764 0 27777
0.16050000 0.16050000 8917.99001875 0 171.22641894 0 2615.39377790 0 -142.32491002 0 342.97130971 0 28224
0.16150000 0.16150500 8799.98275551 0 15.22978035 0 2696.47090812 0 168.76807160 0 176.00910184 0 28075
0.16250000 0.16249700 8674.28629146 0 116.16295350 0 2635.66031431 0 77.29250559 0 446.40534050 0 28590
0.16350000 0.16349900 8588.21118072 0 161.56878273 0 2752.85471918 0 65.47200703 0 394.72292651 0 29163
0.16450000 0.16449100 8561.71639165 0 43.72991298 0 2399.40412723 0 68.24692976 0 288.01109925 0 28996
0.16550000 0.16550500 8403.39574703 0 -76.90562894 0 2608.68220405 0 258.38460854 0 434.81441952 0 30777
0.16650000 0.16650700 8393.55357000 0 86.92641512 0 2129.01887314 0 136.62062148 0 718.33173013 0 29211
0.16750000 0.16749900 8372.62795923 0 -88.73096071 0 1935.11919794 0 90.67753681 0 442.04885902 0 30922
0.16850000 0.16850800 8406.70210338 0 67.24348905 0 1959.43904163 0 277.80862824 0 301.67041526 0 30867
0.16950000 0.16949900 8274.63458724 0 164.92017582 0 1894.94861601 0 -193.11317981 0 468.41403013 0 30852
0.17050000 0.17049200 8324.81211479 0 204.81943881 0 2002.08115239 0 -0.82744259 0 378.74037340 0 31257
0.17150000 0.17149500 8050.56029115 0 76.23007773 0 2222.37675551 0 -72.74104794 0 672.39644451 0 32608
0.17250000 0.17250900 7973.82206710 0 51.51424019 0 2132.73165868 0 -124.40357986 0 495.20320574 0 32361
0.17350000 0.17350400 7874.87303728 0 96.89656243 0 2357.94835031 0 252.56717891 0 921.15197673 0 32508
0.17450000 0.17449800 7863.35022064 0 30.24832736 0 2318.72244162 0 -61.85918111 0 556.11925145 0 32791
0.17550000 0.17549800 7777.74744652 0 19.54265308 0 2310.60484249 0 135.04872914 0 947.91918319 0 33633
0.17650000 0.17650100 7823.80575935 0 55.91905379 0 2252.63925297 0 77.28031271 0 964.85300028 0 33984
0.17750000 0.17750300 7808.07585142 0 -21.59237432 0 2185.73222138 0 170.90896479 0 857.57327063 0 34069
0.17850000 0.17849800 7796.25645132 0 129.15111213 0 2201.87954308 0 -142.80713276 0 604.83583085 0 34536
