### header ###
fiducial parameters:
Omega_m = 0.31
Omega_nu = 0
Omega_de = 0.69
Omega_k = 0
H_0 = 100
w_de = -1
zeff = 0
beta = 0
fgrowth = 0
b_1 = 2
gamma = 0.55
Lx = 3500 Ly = 3500 Lz = 3500
nx = 700 ny = 700 nz = 700
xoffset = -983.599254 yoffset = -42.9823471 zoffset = 800.977702
bins = 400 dk = 0.001
kx_ny = 0.628318531 ky_ny = 0.628318531 kz_ny = 0.628318531
############################
A(data) = 9.09474009 (not used)
A(ran) = 9.10415305 (used)
Ngal = 505806
weighted Ngal = 0
Nran = 25229228
weighted Nran = 0
SN(data) = 6710.67284
SN(ran) = 135.14488
SN(data+ran) = 6845.81772
############################
13 columns: k_central k_mean P_0(k) sigma^{lin}_{P_0(k)} P^img_1(k) sigma^{lin}_{P_1(k)} P_2(k) sigma^{lin}_{P_2(k)} P^img_3(k) sigma^{lin}_{P_3(k)} P_4(k) sigma^{lin}_{P_4(k)} N_modes
### header ###
0.00050000 0 0 0 0 0 0 0 0 0 0 0 0
0.00150000 0.00179520 3345.18681106 0 -1936.20667062 0 -19321.97301631 0 20972.62473811 0 -10997.53437699 0 3
0.00250000 0.00253879 18858.31420765 0 -19983.13443998 0 -1048.96187254 0 18794.60368668 0 19845.38789981 0 6
0.00350000 0.00331552 41429.63363925 0 -27588.74264958 0 4032.83203922 0 -20561.03280348 0 -13459.83616682 0 7
0.00450000 0.00420575 74844.15420306 0 -13347.68368077 0 4733.06558757 0 -20417.24474839 0 16943.92289817 0 24
0.00550000 0.00557378 81417.76181864 0 8019.06752156 0 12023.05407318 0 -15740.78266334 0 11711.86113195 0 45
0.00650000 0.00659388 59631.72948089 0 1857.22759376 0 40553.94351306 0 10648.92798155 0 23844.76093095 0 40
0.00750000 0.00754703 93227.16595512 0 5688.10826608 0 33952.21539167 0 17339.14781965 0 -8435.17411551 0 57
0.00850000 0.00846663 65389.40304512 0 -2552.95746735 0 49231.64600660 0 -5692.89753972 0 3808.19752994 0 75
0.00950000 0.00948925 76251.82717936 0 9807.90516643 0 33799.52983279 0 4882.48872839 0 8678.69110507 0 112
0.01050000 0.01054430 73352.77878369 0 -3807.00021152 0 33345.31775655 0 35124.04959465 0 4437.82224573 0 105
0.01150000 0.01145670 70712.08753514 0 -3998.76887965 0 23223.80304293 0 1287.33698367 0 6302.64017914 0 144
0.01250000 0.01249090 69692.27981669 0 5373.32336962 0 21909.38908784 0 -3857.00198591 0 -11691.97905558 0 169
0.01350000 0.01339930 69172.37999641 0 3978.38151294 0 24930.47608489 0 -3700.46084206 0 2430.42456020 0 180
0.01450000 0.01448870 64519.64458813 0 -5942.08256873 0 8182.92439075 0 21626.97572678 0 -4546.08619309 0 267
0.01550000 0.01550050 76174.05640549 0 -11448.56092718 0 -6612.56989453 0 19374.25958180 0 20512.04160977 0 238
0.01650000 0.01653350 82938.57589253 0 -5072.47789576 0 -14567.19092875 0 6111.88209169 0 -29252.90539565 0 315
0.01750000 0.01747870 87431.37592402 0 5862.47737124 0 -16756.85562711 0 -29741.93856697 0 -5339.07347231 0 297
0.01850000 0.01844180 78143.48042359 0 6449.60277571 0 -7938.31992851 0 -16417.54218008 0 -22991.91871574 0 388
0.01950000 0.01947590 76483.93119801 0 6131.05017085 0 10662.71362014 0 -12081.27230786 0 -14589.92899399 0 399
0.02050000 0.02045430 66565.08184850 0 -1997.46763191 0 16232.78166926 0 879.35677651 0 -14464.15563794 0 462
0.02150000 0.02154770 74007.34946382 0 3102.17511184 0 15072.15173031 0 5823.22949340 0 -26073.86024488 0 571
0.02250000 0.02255340 65393.90671988 0 2355.61962092 0 24005.02584491 0 -13432.37473537 0 -7440.85060545 0 510
0.02350000 0.02348930 61273.81323607 0 7340.50653492 0 29934.93750722 0 -5544.29824184 0 -7971.84484403 0 555
0.02450000 0.02439640 65105.89122680 0 -2984.09095659 0 32615.39290852 0 6230.28479955 0 3142.94984526 0 592
0.02550000 0.02547300 66537.84010850 0 -4053.35122081 0 22945.34412799 0 11838.62309954 0 -7624.50167444 0 837
0.02650000 0.02652900 68416.42171136 0 -1462.11251801 0 27349.16912158 0 783.35271061 0 913.07611897 0 723
0.02750000 0.02749970 71325.13653090 0 4540.33027705 0 23362.42834890 0 616.31031536 0 -2495.59602933 0 826
0.02850000 0.02848090 69555.63173378 0 2103.89715565 0 27735.93592217 0 -1958.88981300 0 4193.95374985 0 831
0.02950000 0.02946900 65345.35490907 0 238.85733387 0 23568.71862198 0 -1910.17323361 0 -3448.80428422 0 996
0.03050000 0.03053250 65616.23446893 0 -874.46314943 0 26015.20262730 0 7553.10195266 0 5505.64353093 0 1041
0.03150000 0.03150510 66221.59426389 0 -1672.48905209 0 16262.65970668 0 7971.74598288 0 2286.52665939 0 1036
0.03250000 0.03246190 66392.29452180 0 1007.10296180 0 18866.55263709 0 1683.73725441 0 -4349.40742102 0 1059
0.03350000 0.03345080 65745.63273394 0 3310.46457713 0 15749.89985858 0 -1176.44772346 0 4283.85149185 0 1302
0.03450000 0.03451200 59686.10311516 0 4177.38901439 0 21629.28248702 0 -9354.25330339 0 -2976.85212326 0 1339
0.03550000 0.03553350 53720.49159196 0 4655.70124288 0 24416.83747099 0 -418.07063553 0 -985.91262284 0 1365
0.03650000 0.03647120 48476.34679590 0 3644.00013899 0 28559.00994569 0 1928.01217948 0 -1723.95177463 0 1308
0.03750000 0.03744890 47966.22324523 0 394.96568556 0 25325.92069782 0 -744.77818707 0 -3150.93562953 0 1579
0.03850000 0.03847530 46303.15895641 0 926.08844365 0 27172.09781157 0 4994.75106017 0 -4332.59004040 0 1662
0.03950000 0.03950240 44732.14538583 0 -113.28060166 0 24100.15224347 0 4278.20542155 0 1789.22210491 0 1683
0.04050000 0.04050350 46735.84127039 0 -1565.76294489 0 18134.21118309 0 3849.06013994 0 -2273.57584831 0 1822
0.04150000 0.04152450 49388.06632015 0 -907.35425511 0 16290.23098386 0 3170.75179847 0 -4630.30491107 0 1887
0.04250000 0.04250150 46127.73533229 0 801.28722226 0 12657.19344830 0 -331.85931608 0 -1493.59430303 0 1920
0.04350000 0.04349210 48035.53589821 0 833.51815513 0 15308.75942371 0 -804.18055868 0 -5962.82144177 0 2005
0.04450000 0.04448520 43799.55517367 0 1552.24093604 0 13863.73890064 0 -5613.12757364 0 -6041.56984260 0 2151
0.04550000 0.04548030 41556.83498974 0 3060.09321428 0 20629.79622784 0 -262.91794165 0 -9029.52736874 0 2274
0.04650000 0.04648670 38951.07468199 0 1103.57606896 0 17395.71836844 0 719.02156129 0 -5496.07596821 0 2311
0.04750000 0.04749250 39400.23385484 0 758.18815328 0 20017.29646071 0 3889.06595328 0 -3605.96056414 0 2568
0.04850000 0.04851840 37846.13652603 0 -30.34136669 0 16304.84046539 0 1887.67682896 0 -5612.52342215 0 2493
0.04950000 0.04949480 39338.93993984 0 -121.41687457 0 15777.36129003 0 2500.73680930 0 -845.26286013 0 2644
0.05050000 0.05050630 37265.71171084 0 -243.35771325 0 14373.86245132 0 264.58539977 0 -3108.37041078 0 2829
0.05150000 0.05149060 38559.36482374 0 175.22700027 0 14215.24522324 0 812.18172135 0 -1356.34206863 0 2784
0.05250000 0.05249300 37460.02879980 0 469.04783997 0 15123.22999282 0 -1383.18836402 0 -2153.69022316 0 3055
0.05350000 0.05348950 37406.31423988 0 101.39122983 0 13235.64104044 0 2126.16288427 0 1390.75673452 0 3009
0.05450000 0.05448610 37268.23816253 0 -331.47485604 0 12352.70109635 0 2815.11527657 0 -1912.02962637 0 3336
0.05550000 0.05550870 37756.39256804 0 411.69848498 0 10702.03838998 0 2112.38823026 0 1119.11923916 0 3349
0.05650000 0.05647670 37161.57796276 0 688.10877713 0 10164.29962383 0 1310.02012605 0 437.04648467 0 3324
0.05750000 0.05747970 36402.98338030 0 870.64161663 0 11421.42903290 0 -1845.00176448 0 1889.34648399 0 3639
0.05850000 0.05849280 34487.16407639 0 1160.30040177 0 12063.69699173 0 -638.57604399 0 1084.69029332 0 3846
0.05950000 0.05951020 33027.75376323 0 1023.75557384 0 12779.56158686 0 -353.01670133 0 -310.16039141 0 3787
0.06050000 0.06049470 32487.86202085 0 1069.63154277 0 12816.03036783 0 -1857.48023893 0 1101.85149106 0 3930
0.06150000 0.06148310 30610.48872098 0 293.55061921 0 13858.68599725 0 1513.12487308 0 -348.91176656 0 4083
0.06250000 0.06249100 31154.88413811 0 13.05131991 0 12827.89370622 0 3341.60584040 0 -1128.70877102 0 4303
0.06350000 0.06350600 31201.78826303 0 -181.55960637 0 11611.13260138 0 158.54692681 0 -1026.41713577 0 4470
0.06450000 0.06451750 30844.35027123 0 652.29357823 0 11313.34083870 0 -315.32204206 0 700.66853742 0 4479
0.06550000 0.06550280 29899.01795488 0 996.90049079 0 12913.57337235 0 -1441.07706152 0 505.46279653 0 4636
0.06650000 0.06648880 28699.50262900 0 844.26655940 0 12644.45134411 0 -1324.35499327 0 -1303.78088882 0 4653
0.06750000 0.06749660 28288.78946018 0 451.49559144 0 13521.56946473 0 3195.95040797 0 1086.98936436 0 5220
0.06850000 0.06852730 29048.81203709 0 -1525.25184121 0 11235.24052765 0 2534.27270939 0 244.40893685 0 5029
0.06950000 0.06949320 28586.69106859 0 486.30240658 0 10045.53442508 0 1873.61657605 0 2399.61283411 0 5040
0.07050000 0.07048030 28163.89486993 0 1000.01791249 0 9505.51086784 0 -787.53453739 0 3360.24666007 0 5475
0.07150000 0.07148790 28286.04331704 0 202.86088952 0 9660.94256986 0 1074.49660996 0 2182.51374161 0 5509
0.07250000 0.07249820 26993.81819857 0 193.41196018 0 8989.87306172 0 206.27379622 0 1672.30231436 0 5916
0.07350000 0.07351270 27226.25175439 0 781.54464996 0 11150.65931877 0 -1182.52219210 0 2327.47714597 0 5721
0.07450000 0.07449140 25293.95559161 0 342.50446537 0 9262.97150524 0 -385.87155792 0 2303.71751548 0 6028
0.07550000 0.07549160 26611.44522701 0 -542.30615143 0 9329.87853683 0 2249.64046466 0 1462.12350258 0 6183
0.07650000 0.07648840 26753.69544194 0 -794.57454996 0 7789.76456892 0 1897.89248146 0 592.95931097 0 6330
0.07750000 0.07749960 27383.22129658 0 294.76770985 0 7854.02431852 0 -883.53091409 0 399.26614573 0 6583
0.07850000 0.07848650 26704.81409396 0 1209.66507095 0 8227.29107941 0 -1261.40240781 0 542.02934020 0 6549
0.07950000 0.07947320 25394.68412218 0 200.81336519 0 9600.75809669 0 -1501.99750106 0 -696.92609354 0 6828
0.08050000 0.08048110 25529.46482775 0 897.40223235 0 10291.47900518 0 652.49898973 0 760.28510819 0 7147
0.08150000 0.08149960 24169.02551355 0 -168.19797228 0 10491.18951928 0 260.03009752 0 381.03285370 0 7386
0.08250000 0.08250610 24797.89229383 0 304.05626442 0 9809.03657741 0 834.17942640 0 -1126.48988736 0 7227
0.08350000 0.08350160 23895.94903918 0 1150.55708589 0 10293.14866021 0 -268.25205009 0 7.83221994 0 7798
0.08450000 0.08449610 22572.08835168 0 322.53231551 0 10422.72267838 0 -551.76057305 0 79.58377758 0 7371
0.08550000 0.08548940 22216.62758294 0 89.13793912 0 10297.23492121 0 1333.75778740 0 1446.66820896 0 8256
0.08650000 0.08650700 22472.67796982 0 436.11389445 0 10641.51339506 0 451.89433142 0 158.10644545 0 8037
0.08750000 0.08749060 21592.81370605 0 233.97139598 0 9437.76900873 0 942.60045315 0 1962.70145969 0 8155
0.08850000 0.08849210 20975.37088125 0 219.31797616 0 8326.41586238 0 1211.59835572 0 925.25251767 0 8718
0.08950000 0.08949900 20806.64784640 0 406.02385478 0 7277.18047399 0 863.00184640 0 2156.82082635 0 8571
0.09050000 0.09049190 20338.92474589 0 377.43870155 0 7743.95890126 0 322.94094161 0 2173.71509898 0 8932
0.09150000 0.09150830 19431.92858785 0 430.72815852 0 7698.77935423 0 29.77994519 0 2255.23161210 0 9285
0.09250000 0.09250820 18925.86932903 0 361.83621466 0 6813.90612537 0 75.20796325 0 1787.36571215 0 9204
0.09350000 0.09350330 18668.94017635 0 118.45103997 0 7094.29832508 0 466.07761154 0 640.12047489 0 9349
0.09450000 0.09448040 18467.92249811 0 169.22173444 0 6564.45746662 0 123.37652232 0 1837.57619342 0 9564
0.09550000 0.09549270 18143.76776123 0 192.97477419 0 6429.05064041 0 129.61905492 0 65.70169444 0 10155
0.09650000 0.09649430 17758.20926363 0 258.34067025 0 6628.79410823 0 -348.24390455 0 1018.85425755 0 9913
0.09750000 0.09749140 17575.64566733 0 429.30565637 0 6917.18307678 0 -256.20417089 0 16.58681444 0 10476
0.09850000 0.09850240 17217.43875545 0 146.96589194 0 6426.68895730 0 302.89409664 0 349.29512814 0 10575
0.09950000 0.09950330 16873.73147938 0 -37.19815659 0 6743.13252423 0 688.85902343 0 269.29558449 0 10882
0.10050000 0.10051200 16461.91985330 0 447.14020841 0 5803.65498506 0 856.34849078 0 518.77609850 0 10875
0.10150000 0.10150300 16928.21495938 0 -0.69924823 0 5285.29300495 0 465.77883117 0 -109.46818605 0 11118
0.10250000 0.10250800 16588.46212944 0 -22.27242921 0 4883.04894159 0 616.43553949 0 551.08721875 0 11575
0.10350000 0.10349800 16462.68877338 0 62.16861652 0 4201.23652147 0 767.28337938 0 1267.77345990 0 11364
0.10450000 0.10450100 16012.21145182 0 -134.21609854 0 3922.97532884 0 -325.57833748 0 331.04316234 0 12093
0.10550000 0.10551000 15949.59938811 0 569.63027572 0 4184.26535683 0 -113.35529675 0 -106.11789142 0 12067
0.10650000 0.10649700 15442.88105493 0 436.07434999 0 4428.78194249 0 -540.88584619 0 1080.18661856 0 12054
0.10750000 0.10749900 15209.01950468 0 36.01259167 0 4642.70649351 0 462.87560863 0 229.67532965 0 12807
0.10850000 0.10850100 15349.40234227 0 -69.70710899 0 4474.38988785 0 55.74428924 0 -47.90317180 0 12736
0.10950000 0.10950300 15263.61283041 0 43.98794059 0 4475.92772801 0 496.85748237 0 1213.11422674 0 12933
0.11050000 0.11050200 15528.67056679 0 52.66168864 0 4646.60601678 0 118.38183717 0 876.51177221 0 13428
0.11150000 0.11150900 15079.95077685 0 -74.15157690 0 4348.96803812 0 114.42189875 0 707.10769386 0 13453
0.11250000 0.11250000 15207.59151024 0 186.57516221 0 4165.11924682 0 417.12156846 0 1510.74122083 0 13668
0.11350000 0.11349100 15299.42253702 0 23.91187667 0 4192.71249315 0 -228.81743453 0 1129.99396602 0 13791
0.11450000 0.11448600 14812.47643449 0 531.31938193 0 4751.61853066 0 -616.19607581 0 548.88371349 0 14205
0.11550000 0.11549300 14128.13756267 0 474.27649652 0 4753.84839889 0 -23.20600804 0 1057.38044897 0 14776
0.11650000 0.11649800 13987.20549645 0 12.12213492 0 5074.49905711 0 355.50690394 0 1098.64399587 0 14553
0.11750000 0.11747300 13947.88072661 0 -126.91794852 0 4630.41475679 0 1033.50438200 0 540.03344336 0 14568
0.11850000 0.11849100 13926.13127290 0 201.67235876 0 3934.78374436 0 269.13301282 0 811.11621781 0 16015
0.11950000 0.11950300 13372.39896908 0 286.59408939 0 4335.92935046 0 -400.97754214 0 1313.20565210 0 15270
0.12050000 0.12050700 13118.98487962 0 350.18487852 0 4099.11295018 0 -190.36044592 0 647.81846336 0 15999
0.12150000 0.12150000 12968.71592671 0 88.73085086 0 4249.70045570 0 102.63259638 0 893.94978119 0 15670
0.12250000 0.12250700 12836.02228993 0 -122.84047518 0 4124.03694537 0 427.56130624 0 1045.95869040 0 16887
0.12350000 0.12352200 12957.51166268 0 -46.47979088 0 3945.26302661 0 225.61213625 0 532.60347847 0 16407
0.12450000 0.12449800 12577.22575991 0 396.73420175 0 3468.59848401 0 106.85616454 0 477.45103799 0 16306
0.12550000 0.12549900 12712.99507702 0 66.23137053 0 3409.67723668 0 376.09748524 0 1516.95848891 0 17523
0.12650000 0.12650100 12708.16186508 0 -309.90445087 0 3117.02625397 0 724.91478448 0 1338.05275528 0 17154
0.12750000 0.12750600 12677.07552468 0 183.62360756 0 3171.52071855 0 24.74703372 0 749.77067531 0 18007
0.12850000 0.12850300 12642.03473814 0 254.05009620 0 3349.05338061 0 -66.34637901 0 1915.11629127 0 17496
0.12950000 0.12949900 12405.97627337 0 -46.56997422 0 3099.22026182 0 -463.90156771 0 1330.97869054 0 18405
0.13050000 0.13049000 12261.52914392 0 58.38640849 0 3289.48404350 0 75.01243786 0 905.89111004 0 18100
0.13150000 0.13148800 12300.85391377 0 131.86759692 0 3454.39543166 0 -12.23154126 0 630.26621483 0 19059
0.13250000 0.13249300 12206.71612674 0 208.72774973 0 3721.30956082 0 -73.57203085 0 1069.56124150 0 18957
0.13350000 0.13349100 12105.98759617 0 141.28027717 0 3897.57899703 0 -99.22375397 0 333.26534137 0 19468
0.13450000 0.13450700 11763.26893163 0 159.21149345 0 3906.00416420 0 23.76413417 0 848.52417973 0 19953
0.13550000 0.13551000 11581.25456396 0 104.35673489 0 3566.96533148 0 224.71359821 0 437.04648467 0 19956
0.13650000 0.13649900 11475.25343855 0 212.08573357 0 3707.47998394 0 -190.41976261 0 615.03610494 0 19723
0.13750000 0.13749600 11442.40956653 0 269.78220106 0 3762.11724796 0 383.35169697 0 210.00525552 0 20946
0.13850000 0.13851100 11153.95469055 0 7.62744554 0 3384.89604094 0 75.45226014 0 671.07280351 0 20955
0.13950000 0.13949800 10816.96997290 0 -176.02557870 0 3011.51943433 0 199.23598057 0 574.34485427 0 20506
0.14050000 0.14048300 11235.57006483 0 -79.39747923 0 2421.97742389 0 688.36361921 0 61.85500697 0 21447
0.14150000 0.14148400 11077.61191111 0 69.05803060 0 2282.20972236 0 173.89786699 0 562.81215152 0 21771
0.14250000 0.14249400 11102.10750796 0 231.73933083 0 2043.52594474 0 143.91218076 0 317.31684044 0 22470
0.14350000 0.14350900 10723.55716767 0 193.14833044 0 2551.62833407 0 -247.64609039 0 756.60967020 0 22519
0.14450000 0.14449900 10745.85585001 0 157.04972957 0 2622.50079636 0 -333.79040394 0 -70.11793200 0 22218
0.14550000 0.14550500 10358.56178993 0 104.74514938 0 2706.08240913 0 34.52681838 0 480.98477499 0 23559
0.14650000 0.14650700 10250.17701227 0 96.71817297 0 2927.03708661 0 14.70801315 0 466.71251984 0 23044
0.14750000 0.14750500 10241.72987596 0 35.00750328 0 2635.63834517 0 77.38038217 0 527.67030692 0 23649
0.14850000 0.14849900 10234.62285750 0 71.16750791 0 2815.07133828 0 142.94663683 0 610.71697101 0 23640
0.14950000 0.14949500 10143.52779708 0 41.73028139 0 2782.52404973 0 274.92517794 0 519.35498547 0 24457
0.15050000 0.15050000 10237.70952239 0 204.73046377 0 2615.84414538 0 -312.70551687 0 451.59445259 0 24591
0.15150000 0.15149900 9885.00588138 0 8.26828550 0 2803.16406161 0 -136.80076847 0 386.99857507 0 25020
0.15250000 0.15250500 9899.17598001 0 56.65710723 0 2992.62596949 0 133.32964354 0 115.90042222 0 25297
0.15350000 0.15350100 9761.83586902 0 250.88214547 0 3143.81762650 0 -69.81596610 0 160.08696389 0 25452
0.15450000 0.15450400 9722.46716089 0 148.66190994 0 3003.53365006 0 -277.16712920 0 160.06060091 0 26061
0.15550000 0.15549900 9401.21235118 0 37.81900463 0 3055.51264752 0 272.34050801 0 312.40014576 0 26128
0.15650000 0.15649500 9362.33794881 0 83.05446313 0 3578.01581149 0 -148.30710825 0 194.98275406 0 26331
0.15750000 0.15749700 9315.04936385 0 77.84645758 0 3229.26661661 0 1.49605485 0 249.66505483 0 27345
0.15850000 0.15849900 9303.51556264 0 4.75538624 0 3178.55084500 0 122.42745525 0 424.73607417 0 26980
0.15950000 0.15949700 9487.45223051 0 -154.31127562 0 3031.07197352 0 304.17929164 0 -138.67803192 0 27777
0.16050000 0.16050000 9572.40691486 0 62.20629360 0 2942.00905903 0 122.47029508 0 -250.25602483 0 28224
0.16150000 0.16150500 9326.13279758 0 163.98868407 0 3095.83701346 0 -220.70642613 0 0.73880258 0 28075
0.16250000 0.16249700 9154.35605156 0 224.06990226 0 3033.42267206 0 -231.00556139 0 -99.73365783 0 28590
0.16350000 0.16349900 8881.18071603 0 197.58609776 0 3236.70317225 0 110.55093537 0 -185.45363735 0 29163
0.16450000 0.16449100 8848.90804179 0 99.15037703 0 2964.41758710 0 361.32103820 0 -109.57605456 0 28996
0.16550000 0.16550500 8630.74344575 0 48.13505613 0 2846.50918501 0 234.54259376 0 15.57315809 0 30777
0.16650000 0.16650700 8563.92429074 0 168.98336922 0 2682.98185299 0 64.39815522 0 143.82100881 0 29211
0.16750000 0.16749900 8299.93205789 0 46.31260569 0 2647.51266813 0 171.58122064 0 832.35598735 0 30922
0.16850000 0.16850800 8279.23712315 0 -36.11375958 0 2471.64966110 0 484.46358913 0 367.68549956 0 30867
0.16950000 0.16949900 8219.39317172 0 113.99459888 0 2113.64047153 0 -49.34775294 0 417.89268546 0 30852
0.17050000 0.17049200 8195.07332803 0 53.20366745 0 2079.48943537 0 174.42402802 0 646.09827929 0 31257
0.17150000 0.17149500 8219.29431057 0 -30.65354825 0 2043.15246928 0 234.87762322 0 746.53901406 0 32608
0.17250000 0.17250900 8118.19230453 0 181.09495895 0 2085.37716628 0 -2.43493922 0 498.26460612 0 32361
0.17350000 0.17350400 7987.72853598 0 53.96445895 0 2007.89199129 0 -253.76339886 0 1034.74344179 0 32508
0.17450000 0.17449800 7928.77433494 0 64.89037391 0 2220.12491813 0 217.52309700 0 383.36597692 0 32791
0.17550000 0.17549800 7843.31436026 0 53.06603076 0 2088.45284660 0 -90.03054549 0 731.37591007 0 33633
0.17650000 0.17650100 7798.11284408 0 36.51865093 0 2130.43588301 0 -81.08756557 0 314.45206391 0 33984
0.17750000 0.17750300 7833.75778211 0 17.14461104 0 2159.28137060 0 53.45114987 0 595.62636519 0 34069
0.17850000 0.17849800 7760.36985269 0 81.22179704 0 2000.98269514 0 79.30773527 0 199.02727369 0 34536
