### header ###
fiducial parameters:
Omega_m = 0.31
Omega_nu = 0
Omega_de = 0.69
Omega_k = 0
H_0 = 100
w_de = -1
zeff = 0
beta = 0
fgrowth = 0
b_1 = 2
gamma = 0.55
Lx = 3500 Ly = 3500 Lz = 3500
nx = 700 ny = 700 nz = 700
xoffset = -983.599254 yoffset = -42.9823471 zoffset = 800.977702
bins = 400 dk = 0.001
kx_ny = 0.628318531 ky_ny = 0.628318531 kz_ny = 0.628318531
############################
A(data) = 9.10550952 (not used)
A(ran) = 9.09503609 (used)
Ngal = 505376
weighted Ngal = 0
Nran = 25229228
weighted Nran = 0
SN(data) = 6745.87642
SN(ran) = 135.009545
SN(data+ran) = 6880.88596
############################
13 columns: k_central k_mean P_0(k) sigma^{lin}_{P_0(k)} P^img_1(k) sigma^{lin}_{P_1(k)} P_2(k) sigma^{lin}_{P_2(k)} P^img_3(k) sigma^{lin}_{P_3(k)} P_4(k) sigma^{lin}_{P_4(k)} N_modes
### header ###
0.00050000 0 0 0 0 0 0 0 0 0 0 0 0
0.00150000 0.00179520 -3283.66222003 0 2212.04027271 0 12660.26912863 0 -13605.60144498 0 7628.75270403 0 3
0.00250000 0.00253879 12025.36083343 0 -25198.71934733 0 -32749.40469402 0 12344.90204982 0 -17735.58104411 0 6
0.00350000 0.00331552 13100.09141478 0 -18879.51443273 0 -21475.16893370 0 -3130.59220111 0 -25531.33220509 0 7
0.00450000 0.00420575 41961.17710646 0 -17740.08471887 0 -21472.64248201 0 -28606.35345351 0 -21844.68995534 0 24
0.00550000 0.00557378 41668.98747579 0 1049.35512024 0 -8580.07161243 0 -32313.97623689 0 -9192.98879333 0 45
0.00650000 0.00659388 42846.86319369 0 8620.07742577 0 -4755.07867102 0 -21432.65863781 0 -10730.55434040 0 40
0.00750000 0.00754703 40620.61986863 0 813.15056065 0 642.28992798 0 7596.58987551 0 -2326.25785841 0 57
0.00850000 0.00846663 56466.96427448 0 -9752.91639609 0 9008.59077340 0 18487.91442021 0 -8138.95314671 0 75
0.00950000 0.00948925 74585.35767305 0 -16766.08266808 0 -7163.12765687 0 -10940.18392354 0 -38614.06799520 0 112
0.01050000 0.01054430 77457.71355734 0 973.68239973 0 -8612.53102441 0 -21808.55071155 0 -22416.98618683 0 105
0.01150000 0.01145670 66439.30849245 0 15626.87264567 0 9782.46489633 0 -20019.27368377 0 -2820.44279428 0 144
0.01250000 0.01249090 67869.06045964 0 -66.73127843 0 17224.24919045 0 -7229.15592266 0 -19129.96268759 0 169
0.01350000 0.01339930 69297.49427811 0 -5041.22678676 0 19680.17992819 0 27433.09125610 0 -21290.51826861 0 180
0.01450000 0.01448870 70672.65291957 0 -6351.35675854 0 5631.93316190 0 -610.30065570 0 -20832.90097487 0 267
0.01550000 0.01550050 76175.04501702 0 -4233.56411858 0 -11182.95396216 0 -3628.62173738 0 -4625.48268371 0 238
0.01650000 0.01653350 83499.44816853 0 3968.40752103 0 8605.12742249 0 2449.82331538 0 -27018.53348688 0 315
0.01750000 0.01747870 80050.40222372 0 6577.73781487 0 2396.55912293 0 -28427.63445761 0 -26654.94413444 0 297
0.01850000 0.01844180 75702.04932167 0 489.04964818 0 15339.95560985 0 -10198.95595033 0 -30400.90307613 0 388
0.01950000 0.01947590 70940.12726193 0 89.70221661 0 14918.91694280 0 -1726.86268637 0 -23038.05392058 0 399
0.02050000 0.02045430 74153.88366205 0 -387.44015489 0 19000.56442258 0 3007.36726589 0 -32450.07509118 0 462
0.02150000 0.02154770 73373.86916305 0 3185.99838521 0 20405.60110146 0 -1418.49278029 0 -23717.44973473 0 571
0.02250000 0.02255340 67883.34040399 0 898.36008708 0 9003.64771574 0 7513.55749136 0 -15374.66685920 0 510
0.02350000 0.02348930 75665.25100352 0 -1334.99904410 0 31235.51090086 0 5764.68172154 0 -13228.50106826 0 555
0.02450000 0.02439640 72160.62312144 0 -1260.67742602 0 12392.46524909 0 -3843.46899249 0 -10848.79227967 0 592
0.02550000 0.02547300 76826.54001682 0 215.17020155 0 24158.26063242 0 80.84832158 0 -9112.39498430 0 837
0.02650000 0.02652900 71962.68112352 0 425.45885905 0 19665.13106375 0 -7293.48157970 0 -8074.31992164 0 723
0.02750000 0.02749970 72709.63205906 0 2316.08614420 0 26977.12164825 0 6789.64120454 0 -3764.13840931 0 826
0.02850000 0.02848090 71320.74270187 0 3125.16582226 0 35673.49791517 0 -3251.29068463 0 -327.60169575 0 831
0.02950000 0.02946900 68144.33384852 0 4626.05388148 0 37192.33476599 0 -2015.58119210 0 3685.37902390 0 996
0.03050000 0.03053250 63767.53090349 0 3040.98005799 0 39487.67105259 0 2684.39886286 0 -418.75058057 0 1041
0.03150000 0.03150510 64064.22420891 0 -455.66533519 0 34445.64239203 0 4725.80478509 0 2190.85103220 0 1036
0.03250000 0.03246190 60085.28248277 0 148.90906283 0 35333.52539378 0 4683.27252006 0 3825.43232432 0 1059
0.03350000 0.03345080 60812.13165048 0 1419.23973123 0 33769.21241247 0 -180.88735053 0 -816.75789429 0 1302
0.03450000 0.03451200 58657.72743010 0 4151.37754652 0 35054.40740449 0 -2595.12724149 0 1527.88813863 0 1339
0.03550000 0.03553350 53656.45153381 0 707.53609219 0 29773.68398173 0 7237.97653444 0 -3744.94836101 0 1365
0.03650000 0.03647120 55388.93832134 0 -739.89115073 0 33177.58333324 0 7143.59708682 0 2467.76112241 0 1308
0.03750000 0.03744890 50900.97150178 0 1272.44190325 0 26498.41397515 0 -1116.91134007 0 -5124.11637146 0 1579
0.03850000 0.03847530 49606.11008589 0 4668.27857848 0 29982.83024368 0 -1741.63693649 0 470.79878084 0 1662
0.03950000 0.03950240 45645.73228742 0 1383.52888577 0 29222.03874670 0 4084.84399040 0 6225.15500415 0 1683
0.04050000 0.04050350 44804.42387341 0 -1859.89684490 0 28438.28949302 0 5032.49405156 0 -2594.25946025 0 1822
0.04150000 0.04152450 45889.47995300 0 730.69706348 0 22548.03213772 0 4393.42260335 0 7260.89035285 0 1887
0.04250000 0.04250150 44562.54358517 0 1593.71868211 0 23010.70233485 0 -117.05270388 0 2335.56179139 0 1920
0.04350000 0.04349210 43040.85074548 0 1663.40481057 0 26289.48740465 0 -510.06862781 0 9383.35143616 0 2005
0.04450000 0.04448520 43373.90298614 0 640.35774166 0 25195.64366700 0 574.11417825 0 1304.97820724 0 2151
0.04550000 0.04548030 43240.00104638 0 -892.30648913 0 24120.58354847 0 1842.95863398 0 3662.72883524 0 2274
0.04650000 0.04648670 43758.03348931 0 -148.87061682 0 25342.17786524 0 2726.60159071 0 4454.32107374 0 2311
0.04750000 0.04749250 39930.45917334 0 1749.50189046 0 22035.16244390 0 1198.81231324 0 9023.66160698 0 2568
0.04850000 0.04851840 39904.42573633 0 1113.52809172 0 22547.81244627 0 3430.05361882 0 6965.66898015 0 2493
0.04950000 0.04949480 39160.88001830 0 858.06428102 0 21219.77762119 0 2639.18636211 0 7272.19347803 0 2644
0.05050000 0.05050630 38430.62563309 0 501.08764127 0 19739.82615730 0 3180.49511435 0 9842.10014088 0 2829
0.05150000 0.05149060 37722.01085586 0 -442.38608540 0 15665.09895825 0 3570.94174675 0 11329.26846895 0 2784
0.05250000 0.05249300 38627.79871092 0 -80.19199336 0 16106.56893030 0 1057.49688544 0 9713.65753368 0 3055
0.05350000 0.05348950 37090.06839526 0 -714.95946635 0 11257.31951854 0 2459.56663126 0 7380.75400886 0 3009
0.05450000 0.05448610 37656.43295755 0 885.83657588 0 15784.50126221 0 -952.25808936 0 6001.58599841 0 3336
0.05550000 0.05550870 36904.31927291 0 1393.00857190 0 11433.29237129 0 -3606.12533273 0 3919.25155873 0 3349
0.05650000 0.05647670 34732.88896503 0 275.73364248 0 15076.76525080 0 314.37187653 0 2895.80794676 0 3324
0.05750000 0.05747970 34849.98450875 0 1097.36539162 0 16216.08511893 0 360.27750381 0 2333.71638320 0 3639
0.05850000 0.05849280 33879.38767546 0 535.61325135 0 15682.23489148 0 1522.75834323 0 4856.58710624 0 3846
0.05950000 0.05951020 33669.58233916 0 439.65971448 0 15618.08498761 0 124.64853582 0 2151.17475604 0 3787
0.06050000 0.06049470 33781.95451666 0 243.21820918 0 15848.98070327 0 1953.37555757 0 1609.52548205 0 3930
0.06150000 0.06148310 33862.58127941 0 694.75883737 0 17299.49351263 0 -976.24839588 0 3901.96184149 0 4083
0.06250000 0.06249100 32011.90049091 0 488.68825574 0 16567.81113299 0 -1272.74947128 0 4077.38546561 0 4303
0.06350000 0.06350600 30684.85427735 0 274.99108537 0 17424.82748578 0 255.09692597 0 3261.34156855 0 4470
0.06450000 0.06451750 30893.89069358 0 937.29600305 0 18123.55614768 0 2150.03236049 0 5164.79224373 0 4479
0.06550000 0.06550280 30718.79660663 0 7.57500519 0 15274.15802008 0 2480.99753237 0 3712.55485647 0 4636
0.06650000 0.06648880 31536.70788104 0 -333.86290212 0 15461.88436550 0 1288.41347178 0 2049.55647509 0 4653
0.06750000 0.06749660 30790.52586559 0 138.95813853 0 13991.15994258 0 -662.00064502 0 2758.94017239 0 5220
0.06850000 0.06852730 28755.19441199 0 1066.99085152 0 13206.64176882 0 411.08993966 0 2265.26052687 0 5029
0.06950000 0.06949320 29268.61333444 0 488.16648854 0 13032.75598486 0 2333.26601572 0 4131.64925417 0 5040
0.07050000 0.07048030 29428.43886550 0 -285.02109860 0 12255.59747473 0 152.62953756 0 -73.17405979 0 5475
0.07150000 0.07148790 29161.29406032 0 -271.46613603 0 12588.43002395 0 765.18532602 0 641.97357229 0 5509
0.07250000 0.07249820 28083.15826146 0 185.24273355 0 10665.87717704 0 -468.79629325 0 813.17252980 0 5916
0.07350000 0.07351270 27016.44641809 0 990.82162832 0 10899.31032897 0 -499.92327658 0 417.65212332 0 5721
0.07450000 0.07449140 27806.34703241 0 1373.78556989 0 12460.45975337 0 288.37908244 0 82.25841116 0 6028
0.07550000 0.07549160 27081.03570487 0 -375.43511551 0 11657.81703485 0 533.19335001 0 -705.63795805 0 6183
0.07650000 0.07648840 26543.45072274 0 -165.93734724 0 11238.86543660 0 1441.71416673 0 -1548.83571854 0 6330
0.07750000 0.07749960 25089.42285014 0 750.15843073 0 11121.33050998 0 134.65328453 0 717.56940079 0 6583
0.07850000 0.07848650 25447.30022484 0 279.19597976 0 9610.07301424 0 1894.25658793 0 3628.09447789 0 6549
0.07950000 0.07947320 25417.31234170 0 -924.13428818 0 7755.02036585 0 3321.20748911 0 1853.99812942 0 6828
0.08050000 0.08048110 25625.68968356 0 492.76463063 0 7258.67146919 0 696.87226913 0 1980.49646727 0 7147
0.08150000 0.08149960 24976.17190683 0 786.69970987 0 6853.07711119 0 -1431.54245252 0 1657.94547799 0 7386
0.08250000 0.08250610 23421.74504084 0 845.24198945 0 7952.31427398 0 -1241.02602567 0 1468.18698665 0 7227
0.08350000 0.08350160 22482.01485651 0 938.22969172 0 8365.52094077 0 -659.61699277 0 911.38559325 0 7798
0.08450000 0.08449610 22703.57368548 0 145.61918334 0 9537.43203576 0 365.32821028 0 284.77284726 0 7371
0.08550000 0.08548940 22118.20581262 0 -115.24903707 0 7936.65027348 0 1372.15985314 0 857.61391354 0 8256
0.08650000 0.08650700 21957.94089865 0 -113.66176633 0 8013.05896036 0 698.45294913 0 -608.58047164 0 8037
0.08750000 0.08749060 21936.08159922 0 285.10018752 0 7136.92945127 0 -353.38578297 0 434.59143269 0 8155
0.08850000 0.08849210 21169.79781594 0 647.98762577 0 7586.06665497 0 -370.19108056 0 60.37846072 0 8718
0.08950000 0.08949900 20767.76245946 0 576.55495028 0 8101.59461536 0 -167.61469148 0 371.53998608 0 8571
0.09050000 0.09049190 20538.51442969 0 101.60059579 0 7324.34822865 0 49.38015743 0 -1413.58267635 0 8932
0.09150000 0.09150830 20074.19654668 0 145.28415388 0 8381.73416990 0 -208.18181648 0 -999.53349284 0 9285
0.09250000 0.09250820 19621.30261915 0 430.30195710 0 7841.07350745 0 420.20054415 0 -1634.64719955 0 9204
0.09350000 0.09350330 19381.83893688 0 111.05293034 0 7547.42292863 0 -592.07065905 0 -928.68849198 0 9349
0.09450000 0.09448040 18835.13675950 0 318.42298690 0 7346.97644817 0 788.67912985 0 -997.40248576 0 9564
0.09550000 0.09549270 19197.73750041 0 198.94379094 0 7350.04114392 0 1291.58801326 0 -708.56424819 0 10155
0.09650000 0.09649430 18746.05187587 0 -112.87087710 0 6638.30674808 0 699.53712644 0 509.91374534 0 9913
0.09750000 0.09749140 18600.72598062 0 170.22682284 0 6538.03956956 0 350.83516522 0 443.12864250 0 10476
0.09850000 0.09850240 18288.76411931 0 338.28529104 0 6082.04799256 0 -255.83618771 0 1197.42825709 0 10575
0.09950000 0.09950330 17616.50827733 0 443.79870143 0 6683.14577336 0 180.64678839 0 493.67964552 0 10882
0.10050000 0.10051200 17228.64301948 0 715.87338278 0 7575.42260414 0 184.28158345 0 1922.16838686 0 10875
0.10150000 0.10150300 16699.84569542 0 381.24815132 0 7233.04446135 0 86.14716954 0 2516.54360924 0 11118
0.10250000 0.10250800 16600.32546783 0 -180.70280971 0 7655.34635424 0 431.01815123 0 2900.35555981 0 11575
0.10350000 0.10349800 16404.14100153 0 -141.78117368 0 6995.68981702 0 761.87787121 0 1853.51480823 0 11364
0.10450000 0.10450100 16980.17198769 0 -295.97491438 0 6349.00606001 0 757.41923320 0 2618.56831938 0 12093
0.10550000 0.10551000 16774.21125179 0 379.57849629 0 6339.55932759 0 -759.46126524 0 2058.95926922 0 12067
0.10650000 0.10649700 16228.05830305 0 471.36888015 0 6725.15077891 0 -389.98967418 0 2014.66947257 0 12054
0.10750000 0.10749900 16073.61521255 0 151.46407441 0 6670.09610113 0 140.86506033 0 1231.26074064 0 12807
0.10850000 0.10850100 15812.95130520 0 253.92377362 0 7150.94576588 0 -61.78668293 0 209.96900644 0 12736
0.10950000 0.10950300 15356.10293154 0 494.50788230 0 6921.36819893 0 -147.68867681 0 719.80805668 0 12933
0.11050000 0.11050200 15053.14841975 0 149.75267800 0 6620.73143195 0 215.92264477 0 284.17858188 0 13428
0.11150000 0.11150900 14684.94554682 0 29.67273576 0 6462.16912674 0 1048.92013116 0 631.82492568 0 13453
0.11250000 0.11250000 14403.74048874 0 -42.74404759 0 5562.84020036 0 1078.70260280 0 975.17190777 0 13668
0.11350000 0.11349100 14682.63878658 0 -103.43436033 0 4927.77812114 0 670.61364838 0 994.33010081 0 13791
0.11450000 0.11448600 14712.18728682 0 134.31935352 0 4030.11884980 0 885.07864037 0 1494.02270136 0 14205
0.11550000 0.11549300 14480.85218826 0 -123.12387715 0 3753.42845104 0 103.89000041 0 1663.00936595 0 14776
0.11650000 0.11649800 14354.63944930 0 192.55626198 0 4167.17336189 0 -410.94823867 0 1068.35733235 0 14553
0.11750000 0.11747300 14247.32017518 0 296.49558312 0 3857.27660023 0 -1041.27047482 0 293.10244865 0 14568
0.11850000 0.11849100 14091.99831888 0 257.44982142 0 4662.65447732 0 -208.42896936 0 -256.99615857 0 16015
0.11950000 0.11950300 13724.12498313 0 -44.41348294 0 4780.15645022 0 -412.64096130 0 -369.17500760 0 15270
0.12050000 0.12050700 13576.27263619 0 225.79228324 0 4385.19515849 0 282.12886064 0 -1108.61798777 0 15999
0.12150000 0.12150000 13856.92846564 0 182.40322154 0 5016.97285050 0 59.77507815 0 -512.50720293 0 15670
0.12250000 0.12250700 13707.86781571 0 3.31120054 0 4961.78635786 0 355.18395750 0 -619.03998165 0 16887
0.12350000 0.12352200 13592.74949506 0 -4.60862136 0 4476.67467895 0 210.15903954 0 -441.45019981 0 16407
0.12450000 0.12449800 13364.92945972 0 195.94939645 0 4746.78531872 0 -29.51455791 0 -57.84673644 0 16306
0.12550000 0.12549900 13246.29607584 0 233.76159065 0 5090.45964107 0 -158.34700759 0 391.98886639 0 17523
0.12650000 0.12650100 13146.55615680 0 -99.50847409 0 4726.37598286 0 458.67181271 0 185.14826623 0 17154
0.12750000 0.12750600 13313.63150577 0 -18.70760587 0 4612.08150516 0 435.81840945 0 389.16692970 0 18007
0.12850000 0.12850300 13207.08115173 0 207.97750343 0 4317.31049994 0 172.01181588 0 386.33950072 0 17496
0.12950000 0.12949900 12886.22178663 0 124.44422277 0 4548.64559850 0 -167.16981629 0 1073.99791037 0 18405
0.13050000 0.13049000 12696.51821815 0 166.63926143 0 4591.21081725 0 181.00049162 0 938.80308641 0 18100
0.13150000 0.13148800 12321.28521877 0 362.61831623 0 4419.35717922 0 93.31031917 0 253.51734443 0 19059
0.13250000 0.13249300 12307.33481159 0 130.08919462 0 4522.09588657 0 87.18092767 0 1212.56499811 0 18957
0.13350000 0.13349100 12195.73155416 0 -19.88636036 0 4270.95560364 0 487.07242512 0 361.64837847 0 19468
0.13450000 0.13450700 11999.87662504 0 -47.41644539 0 4224.57873820 0 74.05842773 0 15.63104678 0 19953
0.13550000 0.13551000 11854.99011269 0 309.53536923 0 3852.33354257 0 -393.96169563 0 48.46173731 0 19956
0.13650000 0.13649900 11617.72334493 0 183.30175958 0 4113.65652428 0 -419.64362633 0 2.36712047 0 19723
0.13750000 0.13749600 11480.30634194 0 9.54129861 0 4160.09929715 0 352.47076808 0 -324.79733437 0 20946
0.13850000 0.13851100 11517.32435154 0 81.98302792 0 4063.10552126 0 325.67829709 0 -1207.56701758 0 20955
0.13950000 0.13949800 11401.54695653 0 132.41243172 0 3395.54009177 0 239.24948311 0 -352.60258295 0 20506
0.14050000 0.14048300 11354.20344871 0 -36.37837794 0 3778.86872114 0 307.25716887 0 -597.09829792 0 21447
0.14150000 0.14148400 11170.76108660 0 92.04808193 0 3255.86026683 0 -159.93208141 0 -534.43460671 0 21771
0.14250000 0.14249400 10980.43139748 0 313.05482628 0 3640.55098320 0 -174.25266869 0 -325.93313918 0 22470
0.14350000 0.14350900 10702.75238720 0 160.26601242 0 3501.99158466 0 -162.41129944 0 -726.95461960 0 22519
0.14450000 0.14449900 10620.87338317 0 -25.66226831 0 3542.56859577 0 486.55615020 0 -786.67334690 0 22218
0.14550000 0.14550500 10694.39312746 0 144.58773197 0 3457.82261831 0 223.39544950 0 -254.56417420 0 23559
0.14650000 0.14650700 10555.18563914 0 -38.15271595 0 3212.55908171 0 290.31346567 0 210.45342609 0 23044
0.14750000 0.14750500 10453.22683644 0 128.12185767 0 3352.84305815 0 -24.13519303 0 -66.12317249 0 23649
0.14850000 0.14849900 10371.00731067 0 194.32807354 0 3284.27735610 0 -98.64750330 0 76.89793974 0 23640
0.14950000 0.14949500 10189.31149560 0 70.67419076 0 3301.94054881 0 102.05261095 0 571.85025784 0 24457
0.15050000 0.15050000 10193.37578745 0 -65.64545343 0 3308.06994031 0 185.47560649 0 156.60924821 0 24591
0.15150000 0.15149900 10202.97630389 0 16.15105645 0 3472.89345189 0 -13.74851073 0 187.51214625 0 25020
0.15250000 0.15250500 10059.84732316 0 221.35122054 0 3261.66012115 0 80.47682333 0 565.50666718 0 25297
0.15350000 0.15350100 9851.94231791 0 -4.56116801 0 3267.52588291 0 337.34830700 0 574.49644138 0 25452
0.15450000 0.15450400 10217.20132538 0 -45.68351922 0 2981.56450490 0 348.88869896 0 210.18540251 0 26061
0.15550000 0.15549900 9684.72416950 0 265.65529714 0 2768.85924143 0 -39.51919678 0 383.33961394 0 26128
0.15650000 0.15649500 9546.54923100 0 297.45343784 0 2689.30896680 0 -87.54572532 0 964.25434108 0 26331
0.15750000 0.15749700 9362.12924193 0 -3.04470383 0 2841.98354111 0 206.26610702 0 849.10526362 0 27345
0.15850000 0.15849900 9246.91206013 0 161.52154907 0 2644.09646606 0 249.28938245 0 215.94351546 0 26980
0.15950000 0.15949700 8860.54070415 0 170.83536816 0 2452.23992135 0 43.50835415 0 1018.47089597 0 27777
0.16050000 0.16050000 8811.11012754 0 21.93959666 0 2603.90391498 0 36.56621413 0 767.11641388 0 28224
0.16150000 0.16150500 8774.63036199 0 159.54432600 0 2806.90980086 0 -163.56467957 0 527.36054197 0 28075
0.16250000 0.16249700 8604.72099330 0 230.28936725 0 2636.38529610 0 -187.51104779 0 324.52381851 0 28590
0.16350000 0.16349900 8572.75588709 0 -91.71590846 0 2930.66199556 0 116.30685141 0 460.57873451 0 29163
0.16450000 0.16449100 8608.74134687 0 -81.66172918 0 2721.08733528 0 330.37420187 0 495.01756646 0 28996
0.16550000 0.16550500 8671.38636430 0 37.23923889 0 2421.73576329 0 182.20659769 0 332.02518313 0 30777
0.16650000 0.16650700 8629.52415819 0 133.02756779 0 2578.14509228 0 -76.98801323 0 453.50027594 0 29211
0.16750000 0.16749900 8529.52060941 0 91.56860534 0 2438.41034447 0 -112.11184314 0 475.98899138 0 30922
0.16850000 0.16850800 8264.92422507 0 116.72426516 0 2582.02264640 0 99.29427493 0 748.78426070 0 30867
0.16950000 0.16949900 8272.91000934 0 -1.57214498 0 2577.95835454 0 250.91070536 0 793.60021837 0 30852
0.17050000 0.17049200 8392.51003561 0 -37.76221439 0 2244.31294696 0 236.64833632 0 507.67399099 0 31257
0.17150000 0.17149500 8366.77318205 0 59.49672908 0 2028.70775633 0 224.22148936 0 560.89094978 0 32608
0.17250000 0.17250900 8335.19253588 0 56.33723647 0 1930.72536890 0 18.99913643 0 491.24546424 0 32361
0.17350000 0.17350400 8179.82674129 0 113.12022690 0 2121.02210430 0 -55.16001983 0 651.98491174 0 32508
0.17450000 0.17449800 8159.04392996 0 24.17847225 0 1816.80436666 0 -51.70350437 0 266.69992999 0 32791
0.17550000 0.17549800 8024.71359186 0 11.65177552 0 1669.88570839 0 210.37543562 0 568.17262294 0 33633
0.17650000 0.17650100 7948.98594849 0 35.59605668 0 1723.31466942 0 227.36637249 0 573.21673867 0 33984
0.17750000 0.17750300 7933.83822290 0 106.48137092 0 1656.10006980 0 39.63398556 0 343.43595713 0 34069
0.17850000 0.17849800 7940.03352184 0 187.28586405 0 1774.64557710 0 -336.42889828 0 -4.44771935 0 34536
