### header ###
fiducial parameters:
Omega_m = 0.31
Omega_nu = 0
Omega_de = 0.69
Omega_k = 0
H_0 = 100
w_de = -1
zeff = 0
beta = 0
fgrowth = 0
b_1 = 2
gamma = 0.55
Lx = 3500 Ly = 3500 Lz = 3500
nx = 700 ny = 700 nz = 700
xoffset = -983.599254 yoffset = -42.9823471 zoffset = 800.977702
bins = 400 dk = 0.001
kx_ny = 0.628318531 ky_ny = 0.628318531 kz_ny = 0.628318531
############################
A(data) = 8.96962626 (not used)
A(ran) = 8.94978017 (used)
Ngal = 497266
weighted Ngal = 0
Nran = 25229228
weighted Nran = 0
SN(data) = 6798.28644
SN(ran) = 132.853321
SN(data+ran) = 6931.13976
############################
13 columns: k_central k_mean P_0(k) sigma^{lin}_{P_0(k)} P^img_1(k) sigma^{lin}_{P_1(k)} P_2(k) sigma^{lin}_{P_2(k)} P^img_3(k) sigma^{lin}_{P_3(k)} P_4(k) sigma^{lin}_{P_4(k)} N_modes
### header ###
0.00050000 0 0 0 0 0 0 0 0 0 0 0 0
0.00150000 0.00179520 61664.53448279 0 48867.94680843 0 25689.40020454 0 94744.35512005 0 -63736.66425453 0 3
0.00250000 0.00253879 101606.63730307 0 35992.48990293 0 63644.72338203 0 24512.95248107 0 -41590.99701047 0 6
0.00350000 0.00331552 92983.74782672 0 13822.87629064 0 93348.98486505 0 -28963.02252523 0 122428.55370536 0 7
0.00450000 0.00420575 67782.28233624 0 16315.05611789 0 67365.30796106 0 24829.63770859 0 -27609.17395458 0 24
0.00550000 0.00557378 54675.05094928 0 10669.21648711 0 67733.18129680 0 56506.39889004 0 22250.35022077 0 45
0.00650000 0.00659388 76588.17479180 0 -13951.72532702 0 47236.29839720 0 62048.99452314 0 63562.33908767 0 40
0.00750000 0.00754703 61439.13105342 0 -6290.82077904 0 56877.45775184 0 11908.70467261 0 35822.22902792 0 57
0.00850000 0.00846663 79221.61622245 0 3993.49628481 0 38928.22677102 0 32558.60266828 0 32119.00007357 0 75
0.00950000 0.00948925 65556.25870263 0 -2161.51123884 0 37921.16115676 0 12043.04599528 0 15786.14894810 0 112
0.01050000 0.01054430 71173.98881218 0 5334.60275127 0 32080.77376099 0 6604.75986342 0 1668.89709686 0 105
0.01150000 0.01145670 71817.35522827 0 6390.87925069 0 47067.57536235 0 -7287.87944768 0 30146.61022087 0 144
0.01250000 0.01249090 64511.73569587 0 924.32981357 0 27344.11621819 0 5313.34760332 0 13115.57966212 0 169
0.01350000 0.01339930 63734.79687720 0 -2226.61680053 0 38981.61179377 0 22030.43907769 0 14483.81802286 0 180
0.01450000 0.01448870 67400.89797622 0 5369.48975378 0 28950.17057531 0 -958.90375577 0 -6932.94593843 0 267
0.01550000 0.01550050 69891.97934622 0 1855.07461754 0 41437.10314860 0 -8229.36716363 0 17378.91197239 0 238
0.01650000 0.01653350 59562.85621080 0 -1446.72313183 0 39040.26941135 0 7562.75739196 0 4795.18334551 0 315
0.01750000 0.01747870 67602.46488309 0 -2284.26383744 0 42081.34833050 0 12880.29011743 0 5343.30253275 0 297
0.01850000 0.01844180 66129.87308283 0 2518.64166260 0 33278.97093816 0 1937.37103532 0 403.69622385 0 388
0.01950000 0.01947590 71159.59902210 0 1460.14627952 0 33255.02456994 0 6332.38640169 0 3791.00667385 0 399
0.02050000 0.02045430 67426.60187606 0 -1016.29045831 0 43368.95992848 0 4438.50328923 0 13372.83835198 0 462
0.02150000 0.02154770 65459.37477247 0 1419.58025298 0 38560.24358955 0 1594.99289253 0 2653.65304420 0 571
0.02250000 0.02255340 66686.90075843 0 3726.70298595 0 35925.04462728 0 -767.92927225 0 991.46971811 0 510
0.02350000 0.02348930 61669.69723190 0 1665.78846282 0 42591.36203545 0 -1817.22178042 0 -3238.03230553 0 555
0.02450000 0.02439640 69212.25399488 0 -2184.40308810 0 39480.09169751 0 14182.40135122 0 11025.21549989 0 592
0.02550000 0.02547300 67648.60008793 0 -6815.42199638 0 28390.83613947 0 11016.86722473 0 2234.19615561 0 837
0.02650000 0.02652900 70100.02715091 0 1949.25634285 0 18627.85787489 0 4221.28336643 0 7729.50320374 0 723
0.02750000 0.02749970 68497.59770274 0 4975.86857990 0 21696.61791694 0 -2603.08007204 0 4831.20175901 0 826
0.02850000 0.02848090 65707.95564998 0 3930.58763764 0 24800.19905408 0 -3436.22694861 0 15974.75405932 0 831
0.02950000 0.02946900 60197.76450600 0 1513.88280859 0 25428.18706855 0 4979.76810317 0 -5.18969427 0 996
0.03050000 0.03053250 56093.70849816 0 517.42719299 0 23567.07093609 0 2168.98074819 0 11303.01534048 0 1041
0.03150000 0.03150510 57582.33777439 0 1273.74906739 0 24950.24831554 0 1206.51249862 0 3070.78120340 0 1036
0.03250000 0.03246190 56413.24971455 0 3272.95226176 0 20937.80364302 0 4434.34013622 0 1712.02252881 0 1059
0.03350000 0.03345080 53293.52125573 0 756.33505589 0 22657.10894346 0 -555.96656589 0 8965.11383513 0 1302
0.03450000 0.03451200 52232.08200719 0 -225.61103779 0 18918.07028249 0 -93.28077067 0 25.10293387 0 1339
0.03550000 0.03553350 48434.49557437 0 787.64658003 0 21923.44934075 0 5160.45333756 0 4478.56402543 0 1365
0.03650000 0.03647120 50999.61296356 0 1699.29140919 0 13411.06466456 0 535.63412204 0 -2987.07876033 0 1308
0.03750000 0.03744890 48848.72380641 0 1559.82029112 0 18239.66307987 0 358.48592002 0 -246.97712992 0 1579
0.03850000 0.03847530 45996.57953566 0 1910.29406390 0 15922.57733956 0 -79.16987889 0 -2984.24474061 0 1662
0.03950000 0.03950240 44250.14234096 0 402.49561007 0 19126.33777863 0 -755.43981322 0 -1417.28447731 0 1683
0.04050000 0.04050350 40431.35568305 0 1221.56136305 0 15313.37294420 0 -75.60879030 0 -2123.31787997 0 1822
0.04150000 0.04152450 40653.46374065 0 1270.66240249 0 16214.43743305 0 3371.35206295 0 -980.77623670 0 1887
0.04250000 0.04250150 40597.33257476 0 112.33043613 0 16061.09279981 0 3428.04344204 0 30.18329869 0 1920
0.04350000 0.04349210 38854.08090610 0 1157.09290657 0 13400.51947488 0 2304.04705265 0 773.74999726 0 2005
0.04450000 0.04448520 40401.03826273 0 145.59721419 0 15189.24727403 0 -1171.88912584 0 1888.94005481 0 2151
0.04550000 0.04548030 38332.31370848 0 588.60173103 0 15124.87767870 0 1766.03367219 0 1358.28633797 0 2274
0.04650000 0.04648670 38172.26848597 0 -201.31755707 0 15112.02572878 0 -779.25326812 0 397.10218493 0 2311
0.04750000 0.04749250 37465.30139464 0 877.92219133 0 16669.96765799 0 -2718.23134641 0 -2210.78803144 0 2568
0.04850000 0.04851840 36295.00503182 0 1941.60009576 0 17326.40571546 0 -856.42977662 0 343.51394759 0 2493
0.04950000 0.04949480 35603.63603355 0 -587.76800197 0 17085.73373020 0 1304.29716374 0 -262.84983730 0 2644
0.05050000 0.05050630 37434.54459141 0 -928.55448019 0 17394.94944836 0 2913.62492348 0 -1511.67490950 0 2829
0.05150000 0.05149060 36529.41581071 0 -137.65536822 0 13268.81444963 0 2011.38508537 0 -1628.46288518 0 2784
0.05250000 0.05249300 37839.32609103 0 -8.68595191 0 13719.07207974 0 -249.27400405 0 -2447.90101518 0 3055
0.05350000 0.05348950 37968.06528169 0 695.83093165 0 12977.83312195 0 68.68169914 0 -1917.65372753 0 3009
0.05450000 0.05448610 36299.39886086 0 1094.57750710 0 14208.76432542 0 -1320.41153171 0 -4696.43203801 0 3336
0.05550000 0.05550870 34731.13143342 0 1545.82594565 0 16415.34526556 0 -1719.93142107 0 -3367.70518485 0 3349
0.05650000 0.05647670 33685.94935230 0 772.56586033 0 18107.95805462 0 -249.49589241 0 -4299.36170834 0 3324
0.05750000 0.05747970 31802.42469178 0 224.26432919 0 16537.71340412 0 618.96199119 0 -2239.69942647 0 3639
0.05850000 0.05849280 33534.36225068 0 -684.04997756 0 15212.09518500 0 4952.85590035 0 -3167.74202558 0 3846
0.05950000 0.05951020 34635.56565196 0 -867.24738370 0 13905.69996790 0 2427.73333992 0 -2970.44811745 0 3787
0.06050000 0.06049470 33576.76270084 0 628.88765097 0 11687.25568937 0 1294.22431068 0 2319.55726914 0 3930
0.06150000 0.06148310 33277.21340655 0 273.02924071 0 12624.02003911 0 -213.22153838 0 3792.13808482 0 4083
0.06250000 0.06249100 32650.98292369 0 388.49028003 0 10966.76658919 0 1579.90008980 0 2177.43886908 0 4303
0.06350000 0.06350600 33051.48044000 0 793.02682368 0 12904.45617711 0 -438.19217559 0 1445.83338145 0 4470
0.06450000 0.06451750 31705.43091589 0 293.60224670 0 12758.14167033 0 -839.11149949 0 2416.12264670 0 4479
0.06550000 0.06550280 31275.71443650 0 1088.14274448 0 13407.22006416 0 984.84272547 0 3999.38401571 0 4636
0.06650000 0.06648880 31387.97676829 0 -168.34406710 0 13788.16504128 0 -860.85655937 0 679.24642397 0 4653
0.06750000 0.06749660 30348.83620209 0 -46.41882651 0 13586.15875151 0 1465.62758124 0 2671.06359174 0 5220
0.06850000 0.06852730 30622.46190509 0 917.74346386 0 12848.43485695 0 623.27233747 0 822.38638928 0 5029
0.06950000 0.06949320 29525.43264139 0 856.03103664 0 14047.95018283 0 -2152.15238300 0 2876.25540756 0 5040
0.07050000 0.07048030 29037.93731023 0 192.62107096 0 12933.12591155 0 1958.96670501 0 791.43186374 0 5475
0.07150000 0.07148790 28349.97352946 0 -117.27459225 0 13044.94886043 0 1977.11321892 0 2522.22263327 0 5509
0.07250000 0.07249820 28123.03225993 0 520.38753530 0 12364.89397191 0 361.99219559 0 2321.83107566 0 5916
0.07350000 0.07351270 27510.86202997 0 1136.83735473 0 12569.42671338 0 513.32665204 0 3103.59212171 0 5721
0.07450000 0.07449140 27162.54123342 0 324.78634980 0 11990.42989262 0 858.22245887 0 4097.50920258 0 6028
0.07550000 0.07549160 26147.12734400 0 -39.35860232 0 11996.03202463 0 725.42886247 0 3082.96309440 0 6183
0.07650000 0.07648840 25479.59486823 0 629.29298170 0 11871.46697156 0 824.83045668 0 5955.58260843 0 6330
0.07750000 0.07749960 25145.77370749 0 244.64620362 0 11677.25972832 0 315.72407742 0 5281.29462053 0 6583
0.07850000 0.07848650 25266.16462298 0 123.70496104 0 11082.00574014 0 1325.17883621 0 4727.83693102 0 6549
0.07950000 0.07947320 24663.00174254 0 615.96320287 0 11084.20265466 0 274.87684582 0 2999.01899073 0 6828
0.08050000 0.08048110 23660.22011158 0 178.61793783 0 11084.31250038 0 9.37420129 0 7430.26147748 0 7147
0.08150000 0.08149960 23767.10000280 0 212.89749349 0 10879.81271263 0 908.52521054 0 5017.65389400 0 7386
0.08250000 0.08250610 22935.12847549 0 -49.46968169 0 9722.46716089 0 1693.23890970 0 4860.48662951 0 7227
0.08350000 0.08350160 23595.19144190 0 446.96884908 0 9427.17988076 0 574.09220911 0 2984.56329321 0 7798
0.08450000 0.08449610 23062.43967171 0 635.30373981 0 8037.02729773 0 -2137.45502489 0 3381.51279259 0 7371
0.08550000 0.08548940 21908.40047631 0 339.19701057 0 8649.40623457 0 1262.03951302 0 3758.56923101 0 8256
0.08650000 0.08650700 21114.54541586 0 -303.66411518 0 8302.09601869 0 906.72923293 0 2167.73949149 0 8037
0.08750000 0.08749060 21052.48258077 0 367.08134807 0 6622.47797899 0 -443.68226496 0 1328.80374517 0 8155
0.08850000 0.08849210 21370.70564845 0 573.70665061 0 6433.93877521 0 1413.26412374 0 605.61353858 0 8718
0.08950000 0.08949900 20407.13894162 0 -46.26108804 0 6974.56648394 0 -722.49598159 0 1170.80165316 0 8571
0.09050000 0.09049190 20278.39975097 0 575.75527339 0 6058.55199181 0 735.66758258 0 -99.40939325 0 8932
0.09150000 0.09150830 19740.04584875 0 380.94607558 0 6511.07244387 0 -1493.04507440 0 -767.81503269 0 9285
0.09250000 0.09250820 18302.38498931 0 701.10792032 0 7117.20115891 0 -930.88101266 0 227.13240109 0 9204
0.09350000 0.09350330 18553.27262707 0 597.19935599 0 8125.16750812 0 879.39632097 0 -849.75774723 0 9349
0.09450000 0.09448040 17734.48258685 0 16.25464097 0 7737.29126570 0 1227.75666199 0 1256.72297989 0 9564
0.09550000 0.09549270 18120.26077591 0 -343.48758462 0 6542.74096663 0 1617.68701948 0 1022.89438335 0 10155
0.09650000 0.09649430 17987.78683058 0 214.44741668 0 6445.83506731 0 267.63142174 0 1517.65051698 0 9913
0.09750000 0.09749140 17314.87191425 0 784.37207894 0 6682.19011555 0 -745.08245974 0 1669.67700151 0 10476
0.09850000 0.09850240 16987.53165132 0 238.00273412 0 6945.55622776 0 -63.18864393 0 3438.97309176 0 10575
0.09950000 0.09950330 17042.34466850 0 -354.89616170 0 6918.27054946 0 1216.08006134 0 1740.32977235 0 10882
0.10050000 0.10051200 16988.84980003 0 -7.63891343 0 5797.74528501 0 120.47110287 0 1360.49423706 0 10875
0.10150000 0.10150300 16894.71201301 0 475.67812798 0 5649.08007970 0 -88.77050517 0 1664.93166615 0 11118
0.10250000 0.10250800 16379.86509612 0 198.73398560 0 6173.90098849 0 -24.33741901 0 1777.24892080 0 11575
0.10350000 0.10349800 16063.61925150 0 246.41801517 0 5900.34119292 0 -110.68165179 0 1728.73006371 0 11364
0.10450000 0.10450100 15822.83742052 0 166.67001823 0 6262.81011896 0 87.44466726 0 863.14135047 0 12093
0.10550000 0.10551000 15682.67427438 0 17.72130110 0 5953.41864764 0 898.43478217 0 1216.29975279 0 12067
0.10650000 0.10649700 15728.15040487 0 -272.97431785 0 5242.40923359 0 826.24636808 0 1696.74298835 0 12054
0.10750000 0.10749900 15653.45531132 0 184.25961431 0 5571.71573501 0 -266.86030475 0 884.52501791 0 12807
0.10850000 0.10850100 15379.93945404 0 595.79442915 0 5238.82826293 0 -564.61471988 0 1517.33196438 0 12736
0.10950000 0.10950300 14983.83576676 0 328.96488121 0 6012.10921894 0 -797.63704879 0 524.87473320 0 12933
0.11050000 0.11050200 14570.81583770 0 167.94642557 0 6455.01816999 0 -115.68732151 0 909.67199992 0 13428
0.11150000 0.11150900 14590.14868544 0 104.36640132 0 6280.45134253 0 333.38067939 0 -292.30936250 0 13453
0.11250000 0.11250000 14670.00652811 0 -15.05062197 0 6072.35959955 0 414.98397064 0 71.72827034 0 13668
0.11350000 0.11349100 14781.71963126 0 -161.01296335 0 5679.28765430 0 101.26347926 0 -539.74125373 0 13791
0.11450000 0.11448600 14275.98990962 0 187.60441666 0 5406.66154740 0 3.17621113 0 -216.95739151 0 14205
0.11550000 0.11549300 14362.76803301 0 109.31231497 0 5481.94980787 0 48.01774089 0 -359.99629875 0 14776
0.11650000 0.11649800 13855.17093403 0 253.19769337 0 5545.48457568 0 553.64882107 0 -201.88765639 0 14553
0.11750000 0.11747300 14136.92522074 0 241.04655918 0 5312.85329756 0 404.85949009 0 -230.93196475 0 14568
0.11850000 0.11849100 13913.38916871 0 61.85599558 0 4717.65423224 0 107.46427048 0 -275.06358355 0 16015
0.11950000 0.11950300 13808.81603773 0 -50.16236884 0 4825.73144186 0 765.92458775 0 698.59794549 0 15270
0.12050000 0.12050700 13392.39089117 0 52.35532891 0 4926.54784901 0 93.89843319 0 1175.50305022 0 15999
0.12150000 0.12150000 13255.41327108 0 161.20409492 0 4166.10785835 0 213.13036642 0 1291.56604411 0 15670
0.12250000 0.12250700 13260.35632875 0 319.52034570 0 5056.36352778 0 -199.13931633 0 1119.38286890 0 16887
0.12350000 0.12352200 13009.13915381 0 183.65106899 0 4770.87448639 0 -30.46164776 0 1469.26347476 0 16407
0.12450000 0.12449800 13194.33904753 0 -185.55689233 0 4817.83353418 0 561.31934811 0 1186.71829883 0 16306
0.12550000 0.12549900 12863.59356711 0 8.82468706 0 4418.39053683 0 338.67304646 0 1168.98919868 0 17523
0.12650000 0.12650100 13108.43968995 0 155.08239262 0 4597.60383849 0 -79.10880466 0 1198.47179149 0 17154
0.12750000 0.12750600 13117.11750229 0 19.00836347 0 4114.41445979 0 262.04247121 0 1450.06244189 0 18007
0.12850000 0.12850300 13094.48928277 0 -233.54739148 0 4205.33376704 0 -138.57367849 0 707.95240750 0 17496
0.12950000 0.12949900 12857.44220646 0 425.67855050 0 3923.66735691 0 121.96170937 0 860.70716918 0 18405
0.13050000 0.13049000 12561.84735830 0 203.04543034 0 4485.80285876 0 -331.06842686 0 1124.04032768 0 18100
0.13150000 0.13148800 12170.68672868 0 225.50009361 0 4592.10056763 0 -1.49839456 0 440.27375209 0 19059
0.13250000 0.13249300 12017.56178689 0 308.20184212 0 4635.01729271 0 484.25378379 0 1232.74365794 0 18957
0.13350000 0.13349100 11720.64879002 0 81.61954842 0 4145.07240186 0 262.16110460 0 1263.37963087 0 19468
0.13450000 0.13450700 11844.22523156 0 123.58632766 0 4075.07870537 0 635.51464361 0 1523.40643302 0 19953
0.13550000 0.13551000 11589.60283912 0 -15.06259515 0 4247.25089601 0 -92.05785820 0 1828.79951992 0 19956
0.13650000 0.13649900 11214.04030257 0 185.23724127 0 3747.69450416 0 -239.39008564 0 1256.37147356 0 19723
0.13750000 0.13749600 11379.13842847 0 199.47983808 0 4639.15847657 0 -147.26467231 0 1210.41202188 0 20946
0.13850000 0.13851100 10972.32478292 0 87.27012240 0 3889.64813563 0 -211.35745641 0 684.38610548 0 20955
0.13950000 0.13949800 11186.35917966 0 -40.75880579 0 3967.16626433 0 739.56710584 0 879.66873837 0 20506
0.14050000 0.14048300 11137.36798595 0 -234.14495223 0 3396.13325869 0 212.66681746 0 310.50970081 0 21447
0.14150000 0.14148400 11255.34229547 0 126.47197487 0 3312.27703161 0 577.65889982 0 965.58237590 0 21771
0.14250000 0.14249400 11184.60164805 0 -5.46776872 0 2822.59577050 0 75.72555631 0 454.08135982 0 22470
0.14350000 0.14350900 11033.67362078 0 195.15631031 0 2513.06149973 0 23.37956428 0 394.69436662 0 22519
0.14450000 0.14449900 10825.80156925 0 84.08437666 0 2763.97110664 0 -189.17411208 0 215.60738754 0 22218
0.14550000 0.14550500 10476.76677548 0 215.51731405 0 2702.33666988 0 -261.61626980 0 112.44247877 0 23559
0.14650000 0.14650700 10533.33732427 0 171.44501194 0 2572.19145394 0 77.49791709 0 25.67160520 0 23044
0.14750000 0.14750500 10042.34889903 0 52.94618907 0 2484.91902478 0 251.46213090 0 -237.34365977 0 23649
0.14850000 0.14849900 10103.47804545 0 354.74896843 0 2857.92215592 0 -227.73655259 0 -338.26222344 0 23640
0.14950000 0.14949500 9947.87059026 0 306.52779325 0 3054.78766573 0 -302.33498190 0 -192.33437361 0 24457
0.15050000 0.15050000 9486.17802009 0 -80.23230675 0 3307.35594309 0 -31.77353527 0 -64.53941682 0 24591
0.15150000 0.15149900 9447.25967944 0 -37.15202138 0 2955.33334557 0 67.30555189 0 -835.70957736 0 25020
0.15250000 0.15250500 9533.75220394 0 214.99994068 0 3027.53494115 0 166.90838346 0 19.42731507 0 25297
0.15350000 0.15350100 9516.71513187 0 -10.97806971 0 2724.83307453 0 259.94771322 0 -305.99833686 0 25452
0.15450000 0.15450400 9267.53010286 0 60.91659494 0 2983.79437313 0 271.48371135 0 106.24739953 0 26061
0.15550000 0.15549900 9286.36864484 0 136.90731882 0 2790.44392656 0 122.64714670 0 0.85548400 0 26128
0.15650000 0.15649500 9201.79842054 0 23.00641835 0 2609.36324755 0 230.74522702 0 252.37934271 0 26331
0.15750000 0.15749700 9194.49367977 0 -87.63338221 0 2202.73633974 0 284.11816673 0 258.69217658 0 27345
0.15850000 0.15849900 8990.88364240 0 179.53624810 0 2509.76612796 0 -151.52009573 0 97.16930936 0 26980
0.15950000 0.15949700 8999.59440846 0 209.81082859 0 2215.70911996 0 -19.36744915 0 544.77218797 0 27777
0.16050000 0.16050000 8922.46073979 0 -42.39451849 0 2420.38466086 0 408.98200018 0 247.28689487 0 28224
0.16150000 0.16150500 9022.90367148 0 -184.08935343 0 2002.37773585 0 -15.58249497 0 138.40561452 0 28075
0.16250000 0.16249700 8915.43061334 0 182.31095113 0 2143.88099985 0 -278.30293401 0 -26.08121991 0 28590
0.16350000 0.16349900 8872.39305797 0 245.95776158 0 2154.67883469 0 -297.05140249 0 -480.20047651 0 29163
0.16450000 0.16449100 8691.66388529 0 143.55298524 0 2602.36607482 0 -336.89134878 0 -409.89701507 0 28996
0.16550000 0.16550500 8518.00877735 0 110.39715136 0 2548.98105207 0 79.23150234 0 -578.05873826 0 30777
0.16650000 0.16650700 8394.25658265 0 5.96791828 0 2727.11786562 0 180.17884559 0 -466.76195041 0 29211
0.16750000 0.16749900 8302.33767929 0 71.61864431 0 2303.21222514 0 84.98126701 0 -629.40172897 0 30922
0.16850000 0.16850800 8221.37039479 0 193.17469342 0 2649.96222781 0 296.84599098 0 -268.95066891 0 30867
0.16950000 0.16949900 8068.01477698 0 63.97700670 0 2284.62632833 0 30.00600769 0 -89.33016914 0 30852
0.17050000 0.17049200 7904.46547582 0 118.68501137 0 2562.41518434 0 -23.40537803 0 134.97293559 0 31257
0.17150000 0.17149500 7769.86052341 0 50.16028177 0 2187.97307419 0 463.32597611 0 565.50337180 0 32608
0.17250000 0.17250900 7830.33059547 0 -89.07565659 0 2153.29477855 0 395.77085473 0 294.77649751 0 32361
0.17350000 0.17350400 7844.44577123 0 143.64964948 0 1857.32645492 0 -84.22684656 0 343.76549430 0 32508
0.17450000 0.17449800 7695.48398246 0 206.90211377 0 2069.28476745 0 -118.51694741 0 780.38138373 0 32791
0.17550000 0.17549800 7484.96464894 0 -2.93392441 0 1931.76890330 0 0.85606509 0 722.99577965 0 33633
0.17650000 0.17650100 7657.51031504 0 -30.99286169 0 1818.46303712 0 299.13407745 0 450.02036334 0 33984
0.17750000 0.17750300 7514.52413375 0 19.04889654 0 1926.29858615 0 63.90802359 0 150.02948923 0 34069
0.17850000 0.17849800 7593.56911805 0 99.62403180 0 1707.82642208 0 -244.66158202 0 387.96961129 0 34536
