### header ###
fiducial parameters:
Omega_m = 0.31
Omega_nu = 0
Omega_de = 0.69
Omega_k = 0
H_0 = 100
w_de = -1
zeff = 0
beta = 0
fgrowth = 0
b_1 = 2
gamma = 0.55
Lx = 3500 Ly = 3500 Lz = 3500
nx = 700 ny = 700 nz = 700
xoffset = -983.599254 yoffset = -42.9823471 zoffset = 800.977702
bins = 400 dk = 0.001
kx_ny = 0.628318531 ky_ny = 0.628318531 kz_ny = 0.628318531
############################
A(data) = 9.07303084 (not used)
A(ran) = 9.0761482 (used)
Ngal = 504136
weighted Ngal = 0
Nran = 25229228
weighted Nran = 0
SN(data) = 6714.14511
SN(ran) = 134.729167
SN(data+ran) = 6848.87428
############################
13 columns: k_central k_mean P_0(k) sigma^{lin}_{P_0(k)} P^img_1(k) sigma^{lin}_{P_1(k)} P_2(k) sigma^{lin}_{P_2(k)} P^img_3(k) sigma^{lin}_{P_3(k)} P_4(k) sigma^{lin}_{P_4(k)} N_modes
### header ###
0.00050000 0 0 0 0 0 0 0 0 0 0 0 0
0.00150000 0.00179520 105757.26789866 0 -58987.81383617 0 -80754.73301763 0 64262.93512691 0 -154835.23973484 0 3
0.00250000 0.00253879 152477.95045888 0 -39664.52267115 0 -46471.88199126 0 -31779.79647226 0 65080.95624704 0 6
0.00350000 0.00331552 120127.28574957 0 13667.00520571 0 18374.66347689 0 -145988.26497783 0 119204.58165274 0 7
0.00450000 0.00420575 85108.57820597 0 35542.78150145 0 12836.79121001 0 -30516.24108823 0 29447.55202179 0 24
0.00550000 0.00557378 47933.15968176 0 14130.33447719 0 27697.27022668 0 16428.41690693 0 -21680.25090380 0 45
0.00650000 0.00659388 48884.64335875 0 6793.22217520 0 26736.77920017 0 21538.00068887 0 -1461.56328938 0 40
0.00750000 0.00754703 38961.18048877 0 -4573.05331877 0 4105.00068108 0 22525.62360966 0 15269.10511670 0 57
0.00850000 0.00846663 46444.31071408 0 -17187.45087230 0 -5489.64999325 0 19651.51019375 0 6024.53277053 0 75
0.00950000 0.00948925 60657.24917708 0 -1546.78160347 0 -6090.91254264 0 -4858.84992820 0 -23657.69365989 0 112
0.01050000 0.01054430 65938.19229129 0 7778.82393463 0 -7609.87022376 0 -22375.90388537 0 5272.96831451 0 105
0.01150000 0.01145670 54403.51231507 0 2845.56451177 0 2446.75861963 0 -14405.49802035 0 9573.08795836 0 144
0.01250000 0.01249090 55550.19184684 0 -11142.75042651 0 9798.35957286 0 2442.07919171 0 -3621.96508639 0 169
0.01350000 0.01339930 78154.02561327 0 -7231.35283718 0 11415.82690089 0 15970.25038456 0 -19582.85661512 0 180
0.01450000 0.01448870 80156.40334913 0 -989.13329952 0 4376.37454671 0 -1778.85266840 0 -18742.64665837 0 267
0.01550000 0.01550050 80657.40970456 0 6469.89128127 0 7381.51194436 0 -18736.82483490 0 -4815.69154252 0 238
0.01650000 0.01653350 79260.94099230 0 -3668.12226038 0 15089.06797209 0 -2167.34404688 0 -2589.32738716 0 315
0.01750000 0.01747870 79419.55822037 0 1323.20161315 0 34257.91604661 0 -674.15617303 0 -8200.55462975 0 297
0.01850000 0.01844180 77715.30178437 0 6744.42870379 0 27893.34484726 0 -3909.13476739 0 -385.29376941 0 388
0.01950000 0.01947590 70760.09011732 0 -1435.20031519 0 25239.91149451 0 9832.17008726 0 278.83678423 0 399
0.02050000 0.02045430 72738.19194777 0 3258.29884194 0 27196.04417979 0 8314.29987883 0 9799.98528960 0 462
0.02150000 0.02154770 74878.31622379 0 1771.73466536 0 31362.05317699 0 -3091.65189131 0 -2395.99890973 0 571
0.02250000 0.02255340 70111.12156921 0 431.18291982 0 33278.31186381 0 -744.66504598 0 15011.07750676 0 510
0.02350000 0.02348930 68383.90737652 0 2980.18044875 0 31582.73324015 0 9398.52113090 0 10019.63280294 0 555
0.02450000 0.02439640 66212.47706864 0 -240.24248847 0 34044.92518426 0 -1483.37865053 0 10883.08611526 0 592
0.02550000 0.02547300 63279.37649797 0 5338.74393513 0 31603.82361951 0 10078.72980342 0 10535.50128507 0 837
0.02650000 0.02652900 63752.81157623 0 -575.52569583 0 32017.72231437 0 5645.80667707 0 21858.20097961 0 723
0.02750000 0.02749970 62195.08933847 0 -2995.91035669 0 24303.14714477 0 8333.79749516 0 15004.70645466 0 826
0.02850000 0.02848090 65614.69662877 0 637.29084899 0 26412.29492611 0 1946.68595287 0 19872.73948554 0 831
0.02950000 0.02946900 62926.88156384 0 1792.94587502 0 20650.00784139 0 -3785.11894294 0 10734.10235734 0 996
0.03050000 0.03053250 61789.09953586 0 2800.56071790 0 25061.52203579 0 -2365.40687509 0 5878.02054144 0 1041
0.03150000 0.03150510 56800.01651514 0 1458.16905646 0 26760.39603122 0 -3722.51786380 0 6140.94727075 0 1036
0.03250000 0.03246190 57716.56925133 0 1274.38617260 0 28435.87288705 0 2165.21303980 0 3912.81459920 0 1059
0.03350000 0.03345080 52873.80073739 0 1729.54292208 0 28570.21420972 0 6832.98632794 0 4033.76572789 0 1302
0.03450000 0.03451200 53719.28328898 0 2042.19681146 0 25710.38073817 0 1445.05347679 0 -1382.16679877 0 1339
0.03550000 0.03553350 52682.77902020 0 1701.15878653 0 26177.99399295 0 5610.57915280 0 7210.53707214 0 1365
0.03650000 0.03647120 50157.42578375 0 1716.91066361 0 25033.29168425 0 171.24509271 0 6714.62755838 0 1308
0.03750000 0.03744890 44753.89483954 0 354.61935047 0 20933.51965972 0 1070.40156130 0 13464.88907021 0 1579
0.03850000 0.03847530 45705.26867081 0 -1016.00046560 0 20384.18118492 0 7429.77815629 0 7704.75496172 0 1662
0.03950000 0.03950240 46636.87027143 0 -194.24349233 0 17488.42816103 0 6488.70785410 0 13675.57317232 0 1683
0.04050000 0.04050350 47869.33931506 0 -148.65092537 0 15665.09895825 0 1289.10549986 0 12502.09128346 0 1822
0.04150000 0.04152450 46916.64733508 0 1205.34813392 0 16159.29487869 0 -1554.72344945 0 6462.45472563 0 1887
0.04250000 0.04250150 45761.50968242 0 2387.16731338 0 18282.39306721 0 -1109.85924447 0 12225.49974586 0 1920
0.04350000 0.04349210 44584.95211324 0 -67.31730538 0 19241.67579074 0 -3110.72110931 0 13378.11094682 0 2005
0.04450000 0.04448520 43598.42764971 0 51.74711313 0 19530.24051245 0 1834.89595771 0 5791.96739984 0 2151
0.04550000 0.04548030 42882.01382595 0 1331.20936656 0 20100.44967515 0 2243.69781089 0 4461.03264759 0 2274
0.04650000 0.04648670 42942.09943797 0 1450.65560881 0 22346.68492231 0 445.61005745 0 8128.59469477 0 2311
0.04750000 0.04749250 41632.40884910 0 1098.76482617 0 22781.34445935 0 919.96234752 0 6106.40078998 0 2568
0.04850000 0.04851840 39315.32310879 0 -24.08400492 0 19980.82767974 0 -558.90823443 0 8361.80815524 0 2493
0.04950000 0.04949480 39413.74487912 0 1098.47922728 0 19758.93931359 0 2666.10954951 0 4316.68437930 0 2644
0.05050000 0.05050630 37975.64463677 0 157.95485835 0 18323.91475157 0 3135.56821249 0 5705.89228909 0 2829
0.05150000 0.05149060 38657.56690262 0 201.57239915 0 17393.30176248 0 1581.02051621 0 5494.74683493 0 2784
0.05250000 0.05249300 36290.50135706 0 855.80145907 0 16952.93024769 0 291.19442839 0 3549.15933932 0 3055
0.05350000 0.05348950 34331.51268291 0 1320.32365513 0 14947.47683151 0 -1121.82144401 0 4981.00935987 0 3009
0.05450000 0.05448610 33947.82156264 0 952.11419146 0 15278.66169484 0 3186.15216923 0 3942.27522286 0 3336
0.05550000 0.05550870 34293.72575323 0 7.63626615 0 13568.03420675 0 1753.19270685 0 4347.14459907 0 3349
0.05650000 0.05647670 34211.01192169 0 -364.00456929 0 13535.73956336 0 2310.76961107 0 2275.99245428 0 3324
0.05750000 0.05747970 32837.06158322 0 944.52824564 0 12640.71658943 0 -1978.37644476 0 4394.72976749 0 3639
0.05850000 0.05849280 31580.09694273 0 504.30172721 0 12442.33520861 0 478.37264363 0 1570.07988191 0 3846
0.05950000 0.05951020 31983.12091074 0 -299.35157199 0 12727.27502137 0 -943.49899119 0 879.98948789 0 3787
0.06050000 0.06049470 32170.51771898 0 186.60372210 0 11769.31044655 0 126.41924892 0 -845.46387781 0 3930
0.06150000 0.06148310 31558.78687192 0 584.85159795 0 12402.02182724 0 392.04818309 0 274.59454230 0 4083
0.06250000 0.06249100 31287.79746634 0 211.11359890 0 11892.77704237 0 -110.99251519 0 -2821.66208183 0 4303
0.06350000 0.06350600 30425.50851871 0 1439.62709794 0 12233.51848384 0 -70.54237589 0 -2969.40458305 0 4470
0.06450000 0.06451750 29449.19970768 0 607.97741860 0 12305.68712570 0 724.39521419 0 -768.49058391 0 4479
0.06550000 0.06550280 29081.21652620 0 -530.90306663 0 13268.37506673 0 -737.94138910 0 -3941.95667026 0 4636
0.06650000 0.06648880 28965.76866837 0 626.04923741 0 10999.07221715 0 1955.98988584 0 -4573.72337770 0 4653
0.06750000 0.06749660 28522.76085617 0 -80.82635243 0 10810.15953790 0 453.23884311 0 -1574.68241783 0 5220
0.06850000 0.06852730 27988.47124581 0 469.06871065 0 10570.33336473 0 377.60786397 0 -2875.36565718 0 5029
0.06950000 0.06949320 27639.16183772 0 722.88703238 0 9649.12316977 0 1739.40706826 0 -1263.90689035 0 5040
0.07050000 0.07048030 27100.47839834 0 -342.22985106 0 8749.39879877 0 2311.43967000 0 740.01637486 0 5475
0.07150000 0.07148790 27598.29922772 0 -343.37883735 0 8385.10643369 0 536.22509205 0 -1294.03757295 0 5509
0.07250000 0.07249820 26633.96360081 0 1063.65813220 0 7963.36475400 0 -528.75228732 0 -26.60683171 0 5916
0.07350000 0.07351270 25936.22355044 0 1076.15198505 0 9460.02375278 0 -1433.95905849 0 1937.97518681 0 5721
0.07450000 0.07449140 24964.52825989 0 290.06850970 0 9425.38939543 0 -612.78316911 0 83.07983750 0 6028
0.07550000 0.07549160 24585.34081438 0 267.16897124 0 11083.43373458 0 582.45696113 0 284.59929101 0 6183
0.07650000 0.07648840 24301.93884179 0 440.67798436 0 10733.50919042 0 206.88344000 0 477.42906885 0 6330
0.07750000 0.07749960 24155.51448928 0 479.76329052 0 10936.02077053 0 186.50486094 0 1412.72587969 0 6583
0.07850000 0.07848650 23576.51766851 0 149.06504376 0 10654.06876152 0 238.68487608 0 1101.57687675 0 6549
0.07950000 0.07947320 24052.14966129 0 -427.02745601 0 10575.10066923 0 842.63315346 0 633.04860706 0 6828
0.08050000 0.08048110 23900.89209684 0 -636.70756819 0 8600.11845739 0 2466.58577314 0 1171.39482007 0 7147
0.08150000 0.08149960 24600.16998737 0 -134.62472464 0 6920.52238684 0 1950.58547613 0 1791.43000400 0 7386
0.08250000 0.08250610 24256.68240275 0 749.75749383 0 6647.50083533 0 -29.59771113 0 1340.66708355 0 7227
0.08350000 0.08350160 23943.07285555 0 549.40877606 0 7008.61865895 0 -1520.55044415 0 24.92937763 0 7798
0.08450000 0.08449610 22569.12251708 0 644.72960155 0 8090.95056453 0 -1145.94356540 0 -14.41758105 0 7371
0.08550000 0.08548940 21621.48344049 0 481.62297866 0 7541.01892282 0 242.25596062 0 451.49009915 0 8256
0.08650000 0.08650700 21810.85747179 0 -306.75297699 0 7788.51232765 0 419.54696209 0 -2063.83641945 0 8037
0.08750000 0.08749060 21751.76047130 0 189.77496820 0 6995.18452668 0 976.03309826 0 -1186.32285421 0 8155
0.08850000 0.08849210 21256.90547651 0 633.37484887 0 6546.43178301 0 57.56355416 0 -1369.90801576 0 8718
0.08950000 0.08949900 20946.59130109 0 484.43722615 0 6689.62667118 0 -359.30097531 0 -299.07036693 0 8571
0.09050000 0.09049190 19681.60792262 0 492.92390693 0 7451.98896205 0 866.26865828 0 -961.59717297 0 8932
0.09150000 0.09150830 19969.29387853 0 133.97333949 0 7167.47754762 0 342.77907969 0 863.66092075 0 9285
0.09250000 0.09250820 19763.11345118 0 -366.99456994 0 6623.27985279 0 1016.58704177 0 954.91196210 0 9204
0.09350000 0.09350330 19744.65936924 0 255.64505614 0 6096.24006034 0 -152.72400488 0 -282.93183289 0 9349
0.09450000 0.09448040 18483.30089972 0 654.78597774 0 6573.30004755 0 -1248.05615212 0 1113.82467518 0 9564
0.09550000 0.09549270 18613.46808481 0 566.72156090 0 6712.63935074 0 199.01628911 0 24.10883006 0 10155
0.09650000 0.09649430 18495.71346674 0 64.16275582 0 7594.26114612 0 151.24328450 0 -160.60653417 0 9913
0.09750000 0.09749140 18101.47715680 0 245.89295261 0 6584.07591325 0 -183.27319969 0 -1514.58582123 0 10476
0.09850000 0.09850240 17844.21846694 0 113.77161205 0 7227.34346819 0 -381.16137320 0 -1015.01514943 0 10575
0.09950000 0.09950330 17312.89469118 0 92.66574445 0 6575.31022433 0 881.21426774 0 -1669.62207865 0 10882
0.10050000 0.10051200 17661.98440782 0 -322.73333318 0 6319.78709694 0 523.46980636 0 -1368.95235795 0 10875
0.10150000 0.10150300 17813.90104662 0 194.36212571 0 5695.36906856 0 956.50362667 0 -1913.86404999 0 11118
0.10250000 0.10250800 17352.76868965 0 249.55960293 0 5494.40631318 0 -111.50659319 0 -793.37173926 0 11575
0.10350000 0.10349800 16839.34976720 0 344.51793753 0 5566.39920188 0 -188.66882174 0 -977.67419340 0 11364
0.10450000 0.10450100 16244.97454482 0 490.35022157 0 5824.59158040 0 -416.99524588 0 -1316.55594674 0 12093
0.10550000 0.10551000 16173.24528587 0 517.14928330 0 6697.57950173 0 -199.88956263 0 -965.19901432 0 12067
0.10650000 0.10649700 15345.88727904 0 232.41158668 0 6673.23768889 0 186.29395715 0 -198.24077829 0 12054
0.10750000 0.10749900 15186.61097661 0 -86.62851351 0 5947.03661097 0 665.78592873 0 -417.70594772 0 12807
0.10850000 0.10850100 15452.76717026 0 82.59388000 0 6557.57013961 0 620.67887988 0 -612.32621089 0 12736
0.10950000 0.10950300 15312.05479549 0 275.44145285 0 5760.57349140 0 -42.77172872 0 353.59339139 0 12933
0.11050000 0.11050200 14639.13987916 0 182.72836489 0 6156.88588556 0 396.14762557 0 1217.58494778 0 13428
0.11150000 0.11150900 14757.66341731 0 -168.36713470 0 5155.10385071 0 386.43506650 0 779.18626223 0 13453
0.11250000 0.11250000 14738.76995247 0 26.11010933 0 5266.66316985 0 806.53345413 0 374.36851352 0 13668
0.11350000 0.11349100 14815.88165199 0 241.17727560 0 4927.23987709 0 186.40270442 0 486.98235162 0 13791
0.11450000 0.11448600 14488.54138907 0 436.18309726 0 4648.01204207 0 -40.51022491 0 905.31441998 0 14205
0.11550000 0.11549300 13941.39982879 0 179.19792326 0 4979.84499518 0 -565.31114178 0 638.54309027 0 14776
0.11650000 0.11649800 13471.04043086 0 308.35892150 0 5233.58862181 0 198.56152781 0 768.65535249 0 14553
0.11750000 0.11747300 13510.80458360 0 -75.24476157 0 4600.64656510 0 760.51688267 0 807.29029118 0 14568
0.11850000 0.11849100 13692.15987692 0 -130.47585158 0 4418.63219743 0 444.01180214 0 613.23243813 0 16015
0.11950000 0.11950300 13438.19655884 0 264.77653133 0 4279.33683252 0 -154.06961503 0 503.52511793 0 15270
0.12050000 0.12050700 13257.17080270 0 10.74854707 0 4508.26630969 0 -678.79715495 0 935.53517607 0 15999
0.12150000 0.12150000 13059.55834196 0 179.60215553 0 4638.43349478 0 22.93501863 0 190.68558927 0 15670
0.12250000 0.12250700 13064.50139962 0 265.84642870 0 4917.81511381 0 -182.94256406 0 -347.90338280 0 16887
0.12350000 0.12352200 13004.41578760 0 122.69218345 0 4933.94046636 0 1.98297898 0 -305.22502295 0 16407
0.12450000 0.12449800 13012.76406276 0 -194.96517875 0 4316.61847186 0 545.90579586 0 -297.80933800 0 16306
0.12550000 0.12549900 13090.53483664 0 -160.52634679 0 4365.95018733 0 633.74283205 0 -659.31491702 0 17523
0.12650000 0.12650100 13323.95700399 0 -103.40371338 0 3727.38402945 0 255.51214281 0 -143.71665537 0 17154
0.12750000 0.12750600 13182.69540060 0 -7.23343991 0 3200.83854277 0 239.87889912 0 -610.93556400 0 18007
0.12850000 0.12850300 13004.41578760 0 231.68770334 0 3321.32831941 0 125.73051622 0 -157.92849537 0 17496
0.12950000 0.12949900 12852.16961162 0 143.68040628 0 2930.79381043 0 279.18609364 0 -395.83676217 0 18405
0.13050000 0.13049000 12861.39665259 0 172.56433988 0 3126.15443379 0 -24.49592639 0 -27.15034836 0 18100
0.13150000 0.13148800 12645.00057274 0 150.14153187 0 3043.00121935 0 105.11236364 0 -410.24193065 0 19059
0.13250000 0.13249300 12194.63309690 0 133.58228870 0 3374.62546558 0 -274.19360540 0 152.72070951 0 18957
0.13350000 0.13349100 11907.16683245 0 375.30000527 0 3089.80648312 0 -71.87458485 0 -545.78386711 0 19468
0.13450000 0.13450700 11887.50444753 0 144.57564894 0 3433.32702145 0 -189.16202905 0 198.01120072 0 19953
0.13550000 0.13551000 11738.44379760 0 19.49673757 0 3591.13139116 0 526.43893633 0 -284.20274794 0 19956
0.13650000 0.13649900 11675.06281381 0 11.26347088 0 3312.24407789 0 19.84835373 0 -281.54118600 0 19723
0.13750000 0.13749600 11663.85854977 0 86.13212068 0 3067.35401676 0 -262.04796350 0 -498.86326532 0 20946
0.13850000 0.13851100 11600.03818308 0 137.20170537 0 3583.48612864 0 -105.24231114 0 -646.77822433 0 20955
0.13950000 0.13949800 11209.20709063 0 115.97731423 0 3423.32007583 0 -126.90696395 0 -674.75043841 0 20506
0.14050000 0.14048300 11223.26734354 0 270.66426223 0 3767.33491993 0 -14.50106380 0 -953.76736964 0 21447
0.14150000 0.14148400 11161.42419990 0 123.31061488 0 3330.31369978 0 359.18234192 0 -756.56463345 0 21771
0.14250000 0.14249400 10988.19749030 0 -32.97513766 0 3500.67343595 0 135.24095916 0 -415.70675551 0 22470
0.14350000 0.14350900 10657.02361154 0 131.08439690 0 3109.56772919 0 147.67329841 0 -274.87794428 0 22519
0.14450000 0.14449900 10726.80860115 0 85.71613492 0 2762.44425105 0 504.79163915 0 -49.06226390 0 22218
0.14550000 0.14550500 10546.18927419 0 187.17272296 0 3241.41555388 0 109.41282381 0 -11.30125781 0 23559
0.14650000 0.14650700 10437.03557645 0 -90.58548610 0 2289.04212651 0 124.25309121 0 239.55485423 0 23044
0.14750000 0.14750500 10515.84988472 0 -192.20805103 0 2382.04850255 0 647.86899239 0 43.43343937 0 23649
0.14850000 0.14849900 10549.62744541 0 149.62415850 0 1975.43257931 0 -207.20309106 0 -147.67549533 0 23640
0.14950000 0.14949500 10264.08348116 0 456.71106650 0 2730.50111398 0 -752.75628214 0 -285.21991936 0 24457
0.15050000 0.15050000 10021.79676373 0 236.74170519 0 2877.18909623 0 -333.96066482 0 -479.12508685 0 24591
0.15150000 0.15149900 9759.80372310 0 46.29689775 0 3133.38228255 0 0.63612539 0 -805.75354947 0 25020
0.15250000 0.15250500 9605.22881773 0 77.35467827 0 3067.16727903 0 197.10497349 0 -709.00363109 0 25297
0.15350000 0.15350100 9663.46902156 0 57.78247669 0 3178.37509184 0 214.76047700 0 -671.85490508 0 25452
0.15450000 0.15450400 9513.11219206 0 130.41873180 0 2962.08885771 0 50.49871645 0 -574.20315329 0 26061
0.15550000 0.15549900 9396.89541415 0 -78.29330999 0 2519.21286038 0 455.56976941 0 -194.08311757 0 26128
0.15650000 0.15649500 9403.80471031 0 136.20760155 0 2653.55418305 0 8.42030100 0 -787.72347204 0 26331
0.15750000 0.15749700 9073.77322710 0 331.58030794 0 2963.35208356 0 -604.28660222 0 -432.48788704 0 27345
0.15850000 0.15849900 8947.37375041 0 144.66023015 0 2844.33423964 0 -2.54619097 0 -552.11757166 0 26980
0.15950000 0.15949700 8940.26673195 0 -107.28423333 0 2972.64503196 0 413.82180286 0 -184.33430940 0 27777
0.16050000 0.16050000 9051.41962190 0 3.27208448 0 2369.54805896 0 490.66657726 0 -795.13146779 0 28224
0.16150000 0.16150500 8839.23063334 0 87.32636341 0 2397.77841049 0 -14.92155324 0 -348.53170035 0 28075
0.16250000 0.16249700 8781.49571986 0 149.49124517 0 2365.28604480 0 91.61034672 0 93.48903817 0 28590
0.16350000 0.16349900 8695.06910279 0 -85.98602586 0 2499.47358345 0 112.69073011 0 90.48981047 0 29163
0.16450000 0.16449100 8482.78125308 0 77.19836780 0 2304.81597274 0 -68.35996101 0 -172.33476231 0 28996
0.16550000 0.16550500 8569.26279301 0 332.35691722 0 2433.45630224 0 -83.64927774 0 136.48111741 0 30777
0.16650000 0.16650700 8431.53822199 0 -72.36581494 0 2471.56178452 0 -12.48176982 0 338.18423298 0 29211
0.16750000 0.16749900 8347.06685884 0 -59.47805531 0 2669.61362816 0 339.01686358 0 62.65391494 0 30922
0.16850000 0.16850800 8655.65645636 0 -48.34980452 0 2248.05868621 0 185.71726709 0 82.19063635 0 30867
0.16950000 0.16949900 8655.87614782 0 49.63060568 0 2378.02814899 0 -132.05103929 0 110.81895894 0 30852
0.17050000 0.17049200 8431.40640712 0 114.65587015 0 2118.57254462 0 -67.32422566 0 327.55336363 0 31257
0.17150000 0.17149500 8417.29123135 0 200.73757164 0 2742.99057300 0 114.59215963 0 595.85594276 0 32608
0.17250000 0.17250900 8195.16120461 0 245.23497671 0 2700.73292228 0 -122.49446114 0 349.63894526 0 32361
0.17350000 0.17350400 7997.09837640 0 107.01027809 0 2902.48656689 0 -30.82117282 0 524.53970373 0 32508
0.17450000 0.17449800 7787.60060812 0 2.92804767 0 2781.75512964 0 253.87983533 0 977.42264669 0 32791
0.17550000 0.17549800 7806.05469006 0 -13.00694224 0 2790.43294198 0 257.06096755 0 932.58691678 0 33633
0.17650000 0.17650100 7814.74348697 0 32.38251997 0 2443.79278503 0 121.73872255 0 1194.38553049 0 33984
0.17750000 0.17750300 7775.02327252 0 113.77051360 0 2539.84188769 0 34.65753480 0 800.53807441 0 34069
0.17850000 0.17849800 7719.62807299 0 143.40579196 0 2452.47059737 0 -181.94955869 0 959.86270896 0 34536
