### header ###
fiducial parameters:
Omega_m = 0.31
Omega_nu = 0
Omega_de = 0.69
Omega_k = 0
H_0 = 100
w_de = -1
zeff = 0
beta = 0
fgrowth = 0
b_1 = 2
gamma = 0.55
Lx = 3500 Ly = 3500 Lz = 3500
nx = 700 ny = 700 nz = 700
xoffset = -983.599254 yoffset = -42.9823471 zoffset = 800.977702
bins = 400 dk = 0.001
kx_ny = 0.628318531 ky_ny = 0.628318531 kz_ny = 0.628318531
############################
A(data) = 9.06381792 (not used)
A(ran) = 9.05052838 (used)
Ngal = 502980
weighted Ngal = 0
Nran = 25229228
weighted Nran = 0
SN(data) = 6746.29057
SN(ran) = 134.348859
SN(data+ran) = 6880.63943
############################
13 columns: k_central k_mean P_0(k) sigma^{lin}_{P_0(k)} P^img_1(k) sigma^{lin}_{P_1(k)} P_2(k) sigma^{lin}_{P_2(k)} P^img_3(k) sigma^{lin}_{P_3(k)} P_4(k) sigma^{lin}_{P_4(k)} N_modes
### header ###
0.00050000 0 0 0 0 0 0 0 0 0 0 0 0
0.00150000 0.00179520 59185.75583408 0 -49274.59568539 0 32718.42819934 0 -147898.48214972 0 -41378.99475965 0 3
0.00250000 0.00253879 66607.70199012 0 -20158.00883547 0 -40036.78983593 0 7698.82329252 0 39977.80268117 0 6
0.00350000 0.00331552 99127.63896291 0 -11860.48239898 0 -36287.20598529 0 2274.26787639 0 -4763.67959135 0 7
0.00450000 0.00420575 93894.14920226 0 1611.04135307 0 443.49223186 0 -68626.44673912 0 14669.89668238 0 24
0.00550000 0.00557378 81204.22172766 0 19138.86019138 0 28138.74019872 0 -18918.94904830 0 -4130.55079691 0 45
0.00650000 0.00659388 78616.25642750 0 7293.48157970 0 56387.87535189 0 -33057.52195492 0 24280.73861670 0 40
0.00750000 0.00754703 67026.98312555 0 5188.68368910 0 34746.61968076 0 29464.46826357 0 -24354.11556155 0 57
0.00850000 0.00846663 73711.75461565 0 2876.06866983 0 70311.04079019 0 18628.84648643 0 -1603.81350431 0 75
0.00950000 0.00948925 67521.72827461 0 6279.80325275 0 66699.20347972 0 26342.87242740 0 44843.41910608 0 112
0.01050000 0.01054430 69034.52361052 0 -8296.35108723 0 57090.22892274 0 39348.60636371 0 27437.04570223 0 105
0.01150000 0.01145670 74838.44222532 0 1967.43581047 0 46211.10823818 0 9300.56071262 0 29423.93519074 0 144
0.01250000 0.01249090 76971.31668344 0 9028.11035888 0 53534.74246961 0 23251.70385728 0 35485.11249540 0 169
0.01350000 0.01339930 69079.01112947 0 5042.70970406 0 73554.78507346 0 16985.66427398 0 58924.98208100 0 180
0.01450000 0.01448870 54343.42670305 0 6117.73686888 0 54236.32712038 0 8154.43040948 0 46444.42055981 0 267
0.01550000 0.01550050 58167.48595579 0 2079.06103704 0 69882.97199670 0 21682.55766404 0 66683.49554093 0 238
0.01650000 0.01653350 58455.61129460 0 -89.23614120 0 62066.35014782 0 14419.55827326 0 39951.98893560 0 315
0.01750000 0.01747870 58395.52568258 0 79.03059451 0 59315.70332772 0 23056.28831106 0 56934.79722071 0 297
0.01850000 0.01844180 61911.57752014 0 -4858.56432931 0 45053.00475093 0 25485.08715452 0 55615.76974515 0 388
0.01950000 0.01947590 69530.47706256 0 -6251.52896292 0 33927.17056619 0 16388.10352556 0 54806.64612881 0 399
0.02050000 0.02045430 75826.83406619 0 -2583.52753284 0 24221.31207904 0 4154.35436569 0 39925.73580713 0 462
0.02150000 0.02154770 72676.78818704 0 842.39588669 0 19180.71141291 0 6606.87988593 0 55814.59050887 0 571
0.02250000 0.02255340 83188.14538158 0 -528.78633949 0 21959.03935591 0 8516.64669035 0 40196.28582981 0 510
0.02350000 0.02348930 74770.55756677 0 424.53176112 0 21409.48118967 0 -1428.30200361 0 40826.69045026 0 555
0.02450000 0.02439640 77268.55921749 0 3252.76261736 0 24540.85329543 0 -297.60941878 0 24494.93778204 0 592
0.02550000 0.02547300 70047.30120252 0 3412.76390158 0 29220.06152363 0 -6960.35244702 0 22431.48582264 0 837
0.02650000 0.02652900 69986.77620759 0 4038.90650786 0 35508.83917218 0 -3441.08212969 0 19271.88336534 0 723
0.02750000 0.02749970 65470.68888223 0 1412.79178712 0 32828.93299951 0 864.83846693 0 5957.41703206 0 826
0.02850000 0.02848090 62403.35683461 0 3190.32630681 0 41593.52346216 0 4714.88611994 0 12460.56959910 0 831
0.02950000 0.02946900 57558.83078906 0 2974.89686934 0 36077.51049471 0 -32.01607463 0 10016.27152373 0 996
0.03050000 0.03053250 55531.62791917 0 2318.14025928 0 33591.26233665 0 10131.10424549 0 6945.53425861 0 1041
0.03150000 0.03150510 52164.74657727 0 1253.43859268 0 34435.64643098 0 6679.19132723 0 16734.11756187 0 1036
0.03250000 0.03246190 52988.25998369 0 -1347.98280889 0 24869.73139852 0 14556.31620189 0 18796.36121829 0 1059
0.03350000 0.03345080 53130.51019862 0 -602.15779205 0 22282.86455561 0 2170.27692776 0 17493.92044732 0 1302
0.03450000 0.03451200 50526.83695966 0 997.03560103 0 15023.16053660 0 2935.50619207 0 15760.88443116 0 1339
0.03550000 0.03553350 51220.40287245 0 -1550.74703417 0 10768.75868384 0 2392.85732197 0 18576.45007521 0 1365
0.03650000 0.03647120 49076.98322465 0 180.86208601 0 11618.16272784 0 2508.72259356 0 10933.14281252 0 1308
0.03750000 0.03744890 53192.02380507 0 2348.77623221 0 14463.71625503 0 -2071.89909572 0 5127.63143469 0 1579
0.03850000 0.03847530 50222.56429916 0 748.07136193 0 13113.60243906 0 -1599.57345930 0 4718.93942723 0 1662
0.03950000 0.03950240 47342.73890551 0 863.71364670 0 11354.20344871 0 -1923.39865899 0 1263.13797027 0 1683
0.04050000 0.04050350 44857.03997608 0 2307.55113131 0 18022.71777139 0 -2334.52924157 0 1570.16775849 0 1822
0.04150000 0.04152450 43466.39308728 0 3300.87504527 0 18073.79603389 0 -1524.62572057 0 -1999.66454643 0 1887
0.04250000 0.04250150 40613.69958790 0 1194.61620651 0 19792.66195142 0 1373.39012527 0 1766.00071848 0 1920
0.04350000 0.04349210 40225.39494715 0 -474.34460087 0 18096.86363631 0 3199.98174611 0 -943.41221306 0 2005
0.04450000 0.04448520 39338.06117403 0 -0.98177583 0 17751.94805726 0 2047.98568121 0 2266.56769101 0 2151
0.04550000 0.04548030 41167.32204600 0 569.22824037 0 19585.93229544 0 -930.26587660 0 -991.29066957 0 2274
0.04650000 0.04648670 39509.64019775 0 -122.64714670 0 15799.65997238 0 344.01704102 0 -898.36997319 0 2311
0.04750000 0.04749250 39388.26067073 0 88.28575598 0 17016.75061439 0 -45.61706255 0 -1039.91497856 0 2568
0.04850000 0.04851840 39489.86796711 0 1068.65391581 0 17985.26037888 0 -992.62199977 0 -3665.67270069 0 2493
0.04950000 0.04949480 39294.67211234 0 1564.70842592 0 21725.72703428 0 82.32970103 0 -168.78235154 0 2644
0.05050000 0.05050630 37458.49095964 0 1036.19779920 0 17959.33678759 0 532.97585548 0 -905.41877342 0 2829
0.05150000 0.05149060 37746.61629845 0 -1627.33147421 0 20661.21210543 0 1009.03844349 0 -1245.89219132 0 2784
0.05250000 0.05249300 36665.51466499 0 1035.40141769 0 18870.72677467 0 632.35548053 0 -4643.94775021 0 3055
0.05350000 0.05348950 36111.34297826 0 1477.55682706 0 19668.42643552 0 -30.97638483 0 79.91034892 0 3009
0.05450000 0.05448610 33914.97769062 0 973.64834755 0 20088.80602821 0 -34.34919784 0 -1169.12101355 0 3336
0.05550000 0.05550870 34836.47348447 0 -15.38081822 0 19223.33155453 0 1379.73920822 0 -4045.14574509 0 3349
0.05650000 0.05647670 35443.92034822 0 -456.95162864 0 18960.47073266 0 1527.13020312 0 -3031.96172390 0 3324
0.05750000 0.05747970 33458.23916269 0 -314.02366558 0 15264.05221331 0 3357.92891525 0 608.62990222 0 3639
0.05850000 0.05849280 35303.09812773 0 -55.68947623 0 15270.97249403 0 2081.43370472 0 -1028.40314650 0 3846
0.05950000 0.05951020 34432.02152203 0 285.52529048 0 13673.92548643 0 283.33936053 0 -1807.28074224 0 3787
0.06050000 0.06049470 35057.37323908 0 512.12054597 0 15241.09445661 0 -609.55809860 0 -1595.26750684 0 3930
0.06150000 0.06148310 31473.87612587 0 1784.26806268 0 13157.21119221 0 -1411.47363841 0 1817.54033303 0 4083
0.06250000 0.06249100 31892.16864977 0 545.01275011 0 14217.77167494 0 2796.59528720 0 2474.20906651 0 4303
0.06350000 0.06350600 32776.86612547 0 -876.68423000 0 14943.96176829 0 3996.85756402 0 585.21518730 0 4470
0.06450000 0.06451750 31457.39926700 0 218.56223757 0 12502.53066636 0 1191.22197358 0 4048.33127114 0 4479
0.06550000 0.06550280 30809.08979325 0 612.43825353 0 11332.01461209 0 -546.58574090 0 5543.26569202 0 4636
0.06650000 0.06648880 30324.23075951 0 392.26897300 0 11860.81193616 0 965.83941490 0 6802.29543215 0 4653
0.06750000 0.06749660 30567.75873364 0 442.25097515 0 12479.57290966 0 1241.81691489 0 5569.96918797 0 5220
0.06850000 0.06852730 30305.33729467 0 -314.36967962 0 10404.13678157 0 698.69460972 0 5006.16403108 0 5029
0.06950000 0.06949320 29647.58108850 0 16.22871738 0 10846.36468912 0 1061.62818318 0 3965.81516191 0 5040
0.07050000 0.07048030 30100.14547885 0 722.98479507 0 10031.68287906 0 -1287.86424315 0 4592.93539515 0 5475
0.07150000 0.07148790 27987.26294283 0 1255.11923229 0 9681.64848918 0 -985.28540374 0 2710.71789876 0 5509
0.07250000 0.07249820 28459.27002665 0 -206.26830393 0 10250.26488885 0 811.77089833 0 2288.31714472 0 5916
0.07350000 0.07351270 27508.22573255 0 -479.42496568 0 9907.99659179 0 2187.06135466 0 1304.64867006 0 5721
0.07450000 0.07449140 27939.26036065 0 654.92438336 0 9312.73161904 0 -45.73305964 0 103.58111422 0 6028
0.07550000 0.07549160 26642.20203024 0 1241.53131601 0 8636.02702516 0 -1333.49415766 0 450.10604301 0 6183
0.07650000 0.07648840 26579.48012080 0 561.15897335 0 10923.61918809 0 -458.16432545 0 1476.55723096 0 6330
0.07750000 0.07749960 24984.95956489 0 -63.40734677 0 9803.44542996 0 411.70727264 0 -183.57088161 0 6583
0.07850000 0.07848650 25479.48502251 0 358.88246309 0 10849.24264714 0 583.67954405 0 -490.77861990 0 6549
0.07950000 0.07947320 24875.11383908 0 602.40604339 0 9779.21346285 0 -1217.70577808 0 -660.87362787 0 6828
0.08050000 0.08048110 24045.99830064 0 418.40017271 0 10742.18700276 0 357.64779713 0 -105.15586255 0 7147
0.08150000 0.08149960 24367.95612300 0 -440.10568813 0 9792.95516315 0 1332.70326843 0 -2245.40041964 0 7386
0.08250000 0.08250610 24352.02849276 0 -276.60911291 0 8703.50525453 0 1114.03338205 0 -479.49746386 0 7227
0.08350000 0.08350160 23793.57282272 0 817.78714874 0 8233.17881031 0 344.09722840 0 -1212.86158157 0 7798
0.08450000 0.08449610 23069.90918106 0 381.35909551 0 7217.90772034 0 936.17887202 0 -1076.35849502 0 7371
0.08550000 0.08548940 23141.19905712 0 693.67905388 0 8077.37363282 0 211.42446230 0 -881.54050954 0 8256
0.08650000 0.08650700 21511.63771467 0 737.72499302 0 7470.12449138 0 290.22778600 0 -235.96180053 0 8037
0.08750000 0.08749060 21198.79708756 0 537.13461466 0 7600.01706215 0 -502.79903768 0 -878.88334143 0 8155
0.08850000 0.08849210 20022.78874700 0 21.23867109 0 7084.86257723 0 152.70093728 0 -416.25927951 0 8718
0.08950000 0.08949900 19896.02677941 0 -199.72808942 0 7038.00239060 0 1162.77193060 0 304.96359012 0 8571
0.09050000 0.09049190 20429.76716114 0 -70.61827929 0 6484.13827190 0 449.57768507 0 -971.26799067 0 8932
0.09150000 0.09150830 20412.08199928 0 148.35324345 0 5897.83671037 0 597.12795627 0 208.11371213 0 9285
0.09250000 0.09250820 20252.47615967 0 423.73098578 0 6481.46902077 0 451.74933507 0 17.08584358 0 9204
0.09350000 0.09350330 19146.65923791 0 505.70116176 0 6243.79582382 0 -1154.47857830 0 394.51861346 0 9349
0.09450000 0.09448040 19063.28633202 0 1006.12313793 0 7843.21549910 0 -247.61093976 0 476.84468959 0 9564
0.09550000 0.09549270 17946.37499195 0 679.08604921 0 7857.87990350 0 -581.10476024 0 1522.11025345 0 10155
0.09650000 0.09649430 17456.02367192 0 -133.22529010 0 8083.43711688 0 746.97839696 0 1225.09839542 0 9913
0.09750000 0.09749140 16655.35817646 0 112.61054273 0 7566.58002321 0 983.46086624 0 512.43690166 0 10476
0.09850000 0.09850240 16690.83834590 0 329.40975640 0 7529.64989020 0 659.37203680 0 2372.82146159 0 10575
0.09950000 0.09950330 16942.16536656 0 -76.61728391 0 6699.89724655 0 621.77514022 0 1314.63364654 0 10882
0.10050000 0.10051200 16781.90045260 0 -78.09174309 0 5807.69730777 0 247.57688758 0 1176.04129428 0 10875
0.10150000 0.10150300 16849.45557397 0 -82.06596145 0 5788.97959609 0 -290.65508587 0 523.59063666 0 11118
0.10250000 0.10250800 16531.56204347 0 310.60746351 0 5525.19607013 0 231.51085172 0 -226.77979631 0 11575
0.10350000 0.10349800 16631.63149969 0 -15.97706082 0 5714.86668489 0 -530.78992553 0 -682.71205662 0 11364
0.10450000 0.10450100 15868.09385956 0 322.03251745 0 5153.55502598 0 178.19942562 0 -975.87272350 0 12093
0.10550000 0.10551000 16496.19171976 0 116.82532323 0 5308.85491314 0 587.33960364 0 -1196.00026266 0 12067
0.10650000 0.10649700 16151.27614070 0 -20.48150450 0 5068.18292788 0 219.88148473 0 -1013.60033649 0 12054
0.10750000 0.10749900 15608.52840946 0 420.97166115 0 4979.28478198 0 62.32965035 0 -1487.13537435 0 12807
0.10850000 0.10850100 15117.84755225 0 351.78313383 0 5169.47167165 0 -477.16873448 0 -183.61042607 0 12736
0.10950000 0.10950300 14887.94044812 0 119.32651041 0 5203.94126041 0 629.28858787 0 -451.12760826 0 12933
0.11050000 0.11050200 14976.25641168 0 -85.84278704 0 4658.38147859 0 845.83076254 0 794.23292975 0 13428
0.11150000 0.11150900 14569.49768899 0 -12.47221325 0 4142.31527414 0 1061.61719861 0 454.80084933 0 13453
0.11250000 0.11250000 14884.86476780 0 344.30483682 0 4228.47826147 0 -339.25413035 0 1054.37506991 0 13668
0.11350000 0.11349100 14839.93786594 0 301.76927641 0 4359.61208895 0 -409.85087987 0 556.17197740 0 13791
0.11450000 0.11448600 14089.03248428 0 119.06068375 0 4619.80365968 0 -413.46700116 0 845.62754794 0 14205
0.11550000 0.11549300 14019.93952275 0 -262.11716631 0 4281.12731785 0 12.14366468 0 240.27544219 0 14776
0.11650000 0.11649800 14326.29925204 0 35.94975992 0 4716.48986754 0 553.98494899 0 -430.19211137 0 14553
0.11750000 0.11747300 14345.85179123 0 351.49094420 0 4153.01424784 0 -198.28691349 0 -190.35055980 0 14568
0.11850000 0.11849100 13660.41446216 0 294.00867588 0 4461.86747511 0 -320.77698081 0 -292.35769462 0 16015
0.11950000 0.11950300 13768.06327346 0 45.10078764 0 4719.30191812 0 330.39067873 0 -267.50290224 0 15270
0.12050000 0.12050700 13435.34056997 0 -2.86244780 0 3950.94205063 0 934.87390480 0 324.59082441 0 15999
0.12150000 0.12150000 13568.69328110 0 29.22467504 0 4175.34588389 0 193.84914617 0 496.90910986 0 15670
0.12250000 0.12250700 13244.75823568 0 75.45489644 0 3088.52128812 0 332.26574527 0 291.21200370 0 16887
0.12350000 0.12352200 13193.46028173 0 202.54453383 0 3895.93131114 0 -265.78161972 0 185.99737369 0 16407
0.12450000 0.12449800 12916.64905268 0 282.86812237 0 3706.37054211 0 -587.33850518 0 187.13317850 0 16306
0.12550000 0.12549900 12881.82795759 0 292.07099728 0 4003.32747727 0 132.07850072 0 -208.85846615 0 17523
0.12650000 0.12650100 12682.34811952 0 -167.94642557 0 3911.18888246 0 32.40745495 0 478.90319849 0 17154
0.12750000 0.12750600 12748.69493791 0 -226.58207401 0 3627.55623384 0 718.02086672 0 42.97977652 0 18007
0.12850000 0.12850300 12734.96422218 0 92.93563540 0 3457.31732797 0 131.60506564 0 185.18231841 0 17496
0.12950000 0.12949900 12628.96309677 0 355.78810900 0 3426.37378701 0 -186.97719757 0 289.30947573 0 18405
0.13050000 0.13049000 12697.72652113 0 153.89166495 0 3992.18912067 0 -4.03602855 0 668.38817397 0 18100
0.13150000 0.13148800 12290.52841554 0 -50.50673519 0 3652.20561471 0 191.77745578 0 427.11203722 0 19059
0.13250000 0.13249300 12352.37155917 0 176.44189400 0 3809.44977121 0 -110.89255558 0 300.56426880 0 18957
0.13350000 0.13349100 11935.61687544 0 312.35510901 0 4158.50653413 0 -419.04057329 0 540.92758757 0 19468
0.13450000 0.13450700 12051.28442472 0 55.64696593 0 4173.93985860 0 168.38031618 0 -373.99284113 0 19953
0.13550000 0.13551000 11920.34831955 0 102.10017415 0 4230.68616056 0 -201.75913689 0 -339.89562938 0 19956
0.13650000 0.13649900 11497.00289226 0 159.67394396 0 4307.72096807 0 -122.82949060 0 -76.22875958 0 19723
0.13750000 0.13749600 11433.95144565 0 -18.66344789 0 4361.90786462 0 296.57577050 0 -129.63882715 0 20946
0.13850000 0.13851100 11502.82471573 0 19.73609140 0 3585.95765747 0 631.20978961 0 -189.97269051 0 20955
0.13950000 0.13949800 11623.32547695 0 -104.52853361 0 3506.25359882 0 637.34357494 0 121.96610320 0 20506
0.14050000 0.14048300 11473.82544412 0 142.71815772 0 3151.79242619 0 -1.95238695 0 234.83478339 0 21447
0.14150000 0.14148400 11309.16670112 0 431.43117116 0 3366.47491272 0 -231.89201639 0 78.86395854 0 21771
0.14250000 0.14249400 10831.61240815 0 174.80409423 0 3345.10991905 0 -125.34056390 0 733.57941533 0 22470
0.14350000 0.14350900 10769.64843422 0 80.53888617 0 4131.94583763 0 93.72520648 0 325.08952400 0 22519
0.14450000 0.14449900 10532.61234248 0 95.56687991 0 3544.63369542 0 -101.44439517 0 347.68918363 0 22218
0.14550000 0.14550500 10431.77396619 0 140.81123592 0 3761.41423531 0 206.33530983 0 451.10673757 0 23559
0.14650000 0.14650700 10314.71137619 0 92.54260739 0 3548.19269694 0 324.33268695 0 508.47586479 0 23044
0.14750000 0.14750500 10398.21609695 0 3.26352750 0 3242.89847118 0 143.31681693 0 165.96480867 0 23649
0.14850000 0.14849900 10131.88415014 0 334.21770382 0 3529.28824752 0 -167.24231447 0 827.27122870 0 23640
0.14950000 0.14949500 9718.55665305 0 33.24030524 0 3375.64703083 0 135.85389831 0 678.36985508 0 24457
0.15050000 0.15050000 9763.43961662 0 93.00330037 0 3402.24068105 0 335.64789517 0 679.50016760 0 24591
0.15150000 0.15149900 9771.44737003 0 159.80575883 0 2768.54068883 0 229.36776161 0 473.61192987 0 25020
0.15250000 0.15250500 9497.73379045 0 -41.89472044 0 2928.86052565 0 336.43439056 0 1082.73503940 0 25297
0.15350000 0.15350100 9636.82044848 0 -164.98937863 0 2548.98105207 0 59.65183125 0 514.03405852 0 25452
0.15450000 0.15450400 9532.11550263 0 249.98470589 0 2881.54997155 0 -144.92056452 0 31.04240211 0 26061
0.15550000 0.15549900 9381.16550622 0 165.24641763 0 2578.95795065 0 -322.72674244 0 753.48346085 0 26128
0.15650000 0.15649500 9140.37269066 0 131.26124852 0 2935.93459040 0 209.33629505 0 232.44234348 0 26331
0.15750000 0.15749700 9139.79050831 0 44.46873534 0 2575.26713426 0 -15.84359826 0 339.90990933 0 27345
0.15850000 0.15849900 9198.82160137 0 -35.84683447 0 2742.66103583 0 345.39011259 0 137.84320441 0 26980
0.15950000 0.15949700 9180.26865828 0 9.76122073 0 2471.64966110 0 -2.34203170 0 -170.94301697 0 27777
0.16050000 0.16050000 9107.85835582 0 139.09983951 0 2387.04648308 0 -105.39510654 0 -186.09184102 0 28224
0.16150000 0.16150500 8806.20002359 0 175.19075119 0 2601.87176905 0 -450.37296812 0 1.81843008 0 28075
0.16250000 0.16249700 8904.17142644 0 128.25367255 0 3007.68581850 0 -19.71708809 0 -495.20100883 0 28590
0.16350000 0.16349900 8789.48150412 0 -18.72056767 0 2838.10598699 0 -46.91873440 0 -707.20106273 0 29163
0.16450000 0.16449100 8632.21537848 0 200.36080080 0 2772.37430466 0 -117.28887219 0 -863.63016395 0 28996
0.16550000 0.16550500 8535.45227861 0 132.18834644 0 2976.80818497 0 51.89782146 0 -155.41522517 0 30777
0.16650000 0.16650700 8364.27968407 0 -17.10451735 0 2949.23690779 0 376.65110770 0 -158.94786371 0 29211
0.16750000 0.16749900 8384.05191472 0 -52.31303831 0 2745.56096299 0 681.74870960 0 -75.52563709 0 30922
0.16850000 0.16850800 8435.76728243 0 139.07567345 0 2352.50000231 0 129.47076319 0 454.58225633 0 30867
0.16950000 0.16949900 8193.97487077 0 49.60435255 0 2410.70725242 0 -112.58967204 0 491.16088303 0 30852
0.17050000 0.17049200 8201.40044184 0 181.65187678 0 2313.16424790 0 163.95902572 0 752.33996684 0 31257
0.17150000 0.17149500 8151.23389886 0 21.66992541 0 2427.44774103 0 -116.87475381 0 112.57758901 0 32608
0.17250000 0.17250900 8101.22113989 0 10.75961952 0 2195.96984303 0 1.16296965 0 -0.77248348 0 32361
0.17350000 0.17350400 8047.33082681 0 63.13712628 0 2276.46479090 0 -16.43885225 0 -77.88666112 0 32508
0.17450000 0.17449800 7972.64671783 0 -105.52626234 0 1784.53169242 0 130.50441147 0 -71.27790287 0 32791
0.17550000 0.17549800 8047.69331770 0 -68.09600173 0 1727.67554474 0 434.65404476 0 -273.38404240 0 33633
0.17650000 0.17650100 8013.17979065 0 151.23559530 0 1393.94226057 0 -16.55462965 0 -690.01130510 0 33984
0.17750000 0.17750300 7819.24716173 0 186.59713135 0 1660.86737430 0 -100.30507530 0 -69.61494843 0 34069
0.17850000 0.17849800 7638.60586563 0 155.71071017 0 1612.30457892 0 -13.91525655 0 -347.26298221 0 34536
