### header ###
fiducial parameters:
Omega_m = 0.31
Omega_nu = 0
Omega_de = 0.69
Omega_k = 0
H_0 = 100
w_de = -1
zeff = 0
beta = 0
fgrowth = 0
b_1 = 2
gamma = 0.55
Lx = 3500 Ly = 3500 Lz = 3500
nx = 700 ny = 700 nz = 700
xoffset = -983.599254 yoffset = -42.9823471 zoffset = 800.977702
bins = 400 dk = 0.001
kx_ny = 0.628318531 ky_ny = 0.628318531 kz_ny = 0.628318531
############################
A(data) = 9.08751379 (not used)
A(ran) = 9.09007369 (used)
Ngal = 504566
weighted Ngal = 0
Nran = 25229228
weighted Nran = 0
SN(data) = 6721.99551
SN(ran) = 134.935881
SN(data+ran) = 6856.93139
############################
13 columns: k_central k_mean P_0(k) sigma^{lin}_{P_0(k)} P^img_1(k) sigma^{lin}_{P_1(k)} P_2(k) sigma^{lin}_{P_2(k)} P^img_3(k) sigma^{lin}_{P_3(k)} P_4(k) sigma^{lin}_{P_4(k)} N_modes
### header ###
0.00050000 0 0 0 0 0 0 0 0 0 0 0 0
0.00150000 0.00179520 23168.55064284 0 -35847.82308204 0 -25723.89176244 0 -6287.66820671 0 32446.99941085 0 3
0.00250000 0.00253879 38408.32695075 0 -26527.08370959 0 -4005.26076204 0 -55110.58925213 0 -4010.41252659 0 6
0.00350000 0.00331552 29039.25545894 0 7982.93926234 0 -9497.22850011 0 -23454.91845004 0 21037.21402489 0 7
0.00450000 0.00420575 34060.19374015 0 13952.49424710 0 -755.80340257 0 -15958.16735472 0 26314.97161304 0 24
0.00550000 0.00557378 25847.90758688 0 -545.44993610 0 716.70052110 0 7168.05972996 0 2579.23256496 0 45
0.00650000 0.00659388 22284.07285859 0 1445.60270542 0 19754.76517601 0 16956.66500237 0 -923.68392071 0 40
0.00750000 0.00754703 27092.23996890 0 -1075.89494605 0 -328.33326829 0 11155.82206789 0 6809.42441976 0 57
0.00850000 0.00846663 24224.60745081 0 -4836.86979846 0 119.97130482 0 2261.85530937 0 -707.41086807 0 75
0.00950000 0.00948925 38002.33714814 0 -6794.23275588 0 -7415.60805766 0 501.84997061 0 -10132.92768454 0 112
0.01050000 0.01054430 42705.38189884 0 -1481.33552003 0 -6784.34664055 0 -8779.41963564 0 -857.11741086 0 105
0.01150000 0.01145670 50386.89350498 0 -4878.83086572 0 -1900.78142405 0 -20967.46198899 0 -3885.28726031 0 144
0.01250000 0.01249090 55660.14741838 0 -2703.01771338 0 4311.85116736 0 10409.80482102 0 -15336.11100944 0 169
0.01350000 0.01339930 67802.82348697 0 -10476.12967027 0 13543.97799280 0 -20112.86224217 0 -24680.13767576 0 180
0.01450000 0.01448870 69596.71403523 0 2382.14736371 0 23012.78940364 0 -4345.55183604 0 -16485.75637581 0 267
0.01550000 0.01550050 70647.38840263 0 4750.77271857 0 39159.56186959 0 -12448.70626071 0 5136.26530874 0 238
0.01650000 0.01653350 76108.58835290 0 -4221.19548985 0 27122.33769777 0 9005.28441706 0 -10331.99010886 0 315
0.01750000 0.01747870 81761.13955753 0 -4136.09800606 0 49338.30620636 0 3617.91177911 0 -4890.62829667 0 297
0.01850000 0.01844180 83918.61945824 0 7157.66832430 0 41876.37620613 0 -4635.36879903 0 -7470.86045774 0 388
0.01950000 0.01947590 75043.63404114 0 2988.53970849 0 52974.08988506 0 -5273.20997511 0 17925.50430404 0 399
0.02050000 0.02045430 74953.12116307 0 1952.26611574 0 51795.33540136 0 11356.51020895 0 -310.60197122 0 462
0.02150000 0.02154770 73165.05243828 0 -687.79132298 0 49979.36586221 0 17587.28931426 0 14531.05168496 0 571
0.02250000 0.02255340 74771.98556120 0 -2768.78234943 0 42697.03362368 0 18858.20436192 0 22229.47953286 0 510
0.02350000 0.02348930 79006.97767421 0 2661.11156898 0 29252.90539565 0 5907.82168685 0 11769.74982946 0 555
0.02450000 0.02439640 73368.92610539 0 2355.56469806 0 31437.73688208 0 2765.87143769 0 31829.00735743 0 592
0.02550000 0.02547300 68446.62928596 0 2320.79852584 0 30161.32954813 0 3272.52386343 0 20816.64380745 0 837
0.02650000 0.02652900 70089.48196123 0 1194.71506766 0 32979.42164387 0 -2762.74083451 0 15962.23164658 0 723
0.02750000 0.02749970 61969.35637192 0 3580.03697285 0 26545.31810007 0 -762.10195649 0 15306.23297202 0 826
0.02850000 0.02848090 64522.83011418 0 766.68362172 0 32193.36562995 0 6431.03884805 0 15942.12987876 0 831
0.02950000 0.02946900 61623.34233561 0 1295.04815362 0 31183.11448964 0 6866.14875257 0 9012.62211154 0 996
0.03050000 0.03053250 63991.17680124 0 -738.19513273 0 28847.24513022 0 5476.40259872 0 11195.47637491 0 1041
0.03150000 0.03150510 61076.75000396 0 -1297.22309899 0 22156.32227947 0 3425.33025261 0 15554.26462091 0 1036
0.03250000 0.03246190 61124.97227759 0 1826.10829964 0 25984.88520697 0 1433.08029268 0 6338.83434580 0 1059
0.03350000 0.03345080 57750.73127206 0 3778.07783192 0 21228.34558780 0 -7314.51703619 0 10658.49554427 0 1302
0.03450000 0.03451200 53016.05095232 0 2414.29920765 0 27937.17329186 0 215.74469470 0 2481.31608497 0 1339
0.03550000 0.03553350 53243.87098766 0 2139.55307825 0 26998.65141051 0 1942.07243238 0 2403.42448080 0 1365
0.03650000 0.03647120 51123.73863373 0 -988.22487537 0 25233.32075096 0 4527.17075910 0 -1441.62629015 0 1308
0.03750000 0.03744890 49596.33381630 0 1735.22194610 0 24056.54349032 0 1701.96066033 0 -2443.66097016 0 1579
0.03850000 0.03847530 49546.79339396 0 2870.79607499 0 21485.27474048 0 -803.48633369 0 -5694.74294792 0 1662
0.03950000 0.03950240 46840.19470991 0 -23.01026295 0 19948.53303635 0 2634.37511932 0 1961.88860132 0 1683
0.04050000 0.04050350 45331.68335732 0 -1493.75907162 0 18942.12649645 0 5200.89853381 0 -3466.54436894 0 1822
0.04150000 0.04152450 45274.45373417 0 -756.82606628 0 13297.37433835 0 2629.43206166 0 125.68767639 0 1887
0.04250000 0.04250150 45893.43439913 0 1544.25515178 0 9962.10659633 0 1443.88911210 0 -240.49293672 0 1920
0.04350000 0.04349210 43661.03971342 0 1110.72702571 0 11230.62700717 0 2069.39461317 0 3399.41764589 0 2005
0.04450000 0.04448520 41440.06898320 0 1178.30411623 0 9700.53096945 0 -1685.92318436 0 -1438.91310072 0 2151
0.04550000 0.04548030 41761.47757693 0 2564.44733027 0 14030.04532952 0 1403.44391586 0 1967.51270248 0 2274
0.04650000 0.04648670 39398.80586041 0 658.64815346 0 13723.02652587 0 -381.95445934 0 -1229.25056386 0 2311
0.04750000 0.04749250 40056.12268367 0 450.78488959 0 13475.76379707 0 -2862.57961470 0 -2194.57480231 0 2568
0.04850000 0.04851840 38426.56134123 0 631.87106088 0 15609.29732954 0 875.94606673 0 -4420.55449763 0 2493
0.04950000 0.04949480 37260.65880745 0 -662.91785683 0 14660.66964142 0 -1257.44796168 0 -1620.72974609 0 2644
0.05050000 0.05050630 37056.78514034 0 39.80391690 0 15379.28037969 0 2154.67883469 0 -711.36751111 0 2829
0.05150000 0.05149060 39061.14009926 0 195.71981888 0 16056.03989642 0 860.72913833 0 -1061.29205526 0 2784
0.05250000 0.05249300 38916.25358691 0 923.53123515 0 15977.17066529 0 -137.59275615 0 -2279.09010375 0 3055
0.05350000 0.05348950 37761.88485434 0 204.21199195 0 16930.52171962 0 -213.58073390 0 -23.81543212 0 3009
0.05450000 0.05448610 36765.14473830 0 70.85455744 0 17022.35274640 0 1105.67412232 0 476.98748903 0 3336
0.05550000 0.05550870 36773.05363056 0 309.60567049 0 17706.91130967 0 1123.20550016 0 2809.91957374 0 3349
0.05650000 0.05647670 36361.02231304 0 1492.45190748 0 16883.17821180 0 1582.71214038 0 1663.78927061 0 3324
0.05750000 0.05747970 35915.70774059 0 410.46381902 0 17824.77577347 0 58.52261719 0 1484.58695351 0 3639
0.05850000 0.05849280 35330.55955918 0 -201.98981291 0 15125.09737015 0 3702.75661773 0 4160.06634343 0 3846
0.05950000 0.05951020 33939.58313321 0 -292.30936250 0 12063.25760883 0 2725.10768884 0 5883.16132141 0 3787
0.06050000 0.06049470 33518.10508326 0 622.63303534 0 11080.68759143 0 1691.39350150 0 6051.91730997 0 3930
0.06150000 0.06148310 33649.37072561 0 1930.41780087 0 11010.71586409 0 441.63144526 0 4459.89025204 0 4083
0.06250000 0.06249100 31333.82282546 0 639.75249171 0 11834.66865341 0 -882.92895952 0 5443.43789640 0 4303
0.06350000 0.06350600 30696.93730719 0 -441.75557093 0 9329.99936713 0 1738.09990412 0 6429.38017759 0 4470
0.06450000 0.06451750 31827.90890017 0 -776.41595302 0 9459.54043159 0 1559.04038647 0 2640.38368052 0 4479
0.06550000 0.06550280 31353.37536465 0 -61.85489713 0 7609.50773286 0 -717.07289811 0 2115.77147861 0 4636
0.06650000 0.06648880 31560.76409499 0 1564.42282703 0 9139.53786315 0 341.65645637 0 2601.09186440 0 4653
0.06750000 0.06749660 30691.55486663 0 635.19499255 0 9475.02867892 0 -1550.00008324 0 2298.90627269 0 5220
0.06850000 0.06852730 29305.52149831 0 -200.83972816 0 10009.05465954 0 664.95879041 0 1930.59355403 0 5029
0.06950000 0.06949320 28467.06907318 0 724.77198503 0 10384.81491840 0 472.31904568 0 -26.23434485 0 5040
0.07050000 0.07048030 29691.84891600 0 474.28967800 0 8722.44265766 0 232.35336844 0 2066.94505349 0 5475
0.07150000 0.07148790 28166.53116735 0 -172.69066247 0 9815.82504326 0 993.01964130 0 1393.63469254 0 5509
0.07250000 0.07249820 28199.92426800 0 189.88701084 0 9256.78719088 0 692.23897642 0 1413.25313917 0 5916
0.07350000 0.07351270 28151.81184010 0 495.61952104 0 7359.19129288 0 1253.60336127 0 1902.27532592 0 5721
0.07450000 0.07449140 27573.58393941 0 129.04456177 0 7909.70511694 0 598.58011676 0 2618.31567421 0 6028
0.07550000 0.07549160 26382.30704297 0 806.97393549 0 8253.45633130 0 -1680.63960495 0 2193.68505193 0 6183
0.07650000 0.07648840 26192.71332021 0 1341.86440196 0 8203.36668033 0 162.60792329 0 1838.22428320 0 6330
0.07750000 0.07749960 24950.24831554 0 -311.09408008 0 8880.68641027 0 511.93161132 0 2366.29662547 0 6583
0.07850000 0.07848650 25324.38285766 0 -133.18684409 0 8586.25592680 0 429.30236100 0 1558.22752810 0 6549
0.07950000 0.07947320 24172.87011396 0 501.55119024 0 8416.46738841 0 366.43984903 0 1491.61707997 0 6828
0.08050000 0.08048110 24449.79118873 0 522.99307591 0 8401.40753940 0 268.62223019 0 2507.16278426 0 7147
0.08150000 0.08149960 24388.60711945 0 87.08865726 0 7733.67734132 0 893.43680165 0 2180.40470368 0 7386
0.08250000 0.08250610 24103.55746097 0 363.95513871 0 8011.13666015 0 638.86933207 0 1475.73338801 0 7227
0.08350000 0.08350160 23091.43894332 0 342.02004572 0 8230.24592943 0 -437.43424008 0 2484.89705563 0 7798
0.08450000 0.08449610 22585.26983877 0 348.51961732 0 7328.05002961 0 231.43945200 0 2872.74034434 0 7371
0.08550000 0.08548940 22496.51449232 0 13.42523476 0 8157.11064519 0 618.40507336 0 2207.36084479 0 8256
0.08650000 0.08650700 22136.87958600 0 269.09786218 0 7251.82808047 0 -306.14223476 0 320.09154348 0 8037
0.08750000 0.08749060 21695.73915114 0 943.00798079 0 8642.54087670 0 -913.14202640 0 904.25111335 0 8155
0.08850000 0.08849210 20765.12616205 0 417.20395275 0 8135.75663609 0 -692.52677222 0 132.29050297 0 8718
0.08950000 0.08949900 20641.65956623 0 136.77879933 0 8711.61186909 0 554.06513637 0 -732.13494403 0 8571
0.09050000 0.09049190 19909.31811223 0 411.24482213 0 8361.85209353 0 223.88865681 0 -1611.14021422 0 8932
0.09150000 0.09150830 19630.41981439 0 386.98099975 0 7778.07698370 0 332.53926113 0 136.43827758 0 9285
0.09250000 0.09250820 19739.27692867 0 -68.63600332 0 7857.45150517 0 764.42629205 0 -435.58663497 0 9204
0.09350000 0.09350330 19440.38670874 0 -100.44501875 0 6238.68799757 0 1665.00855816 0 -109.85341501 0 9349
0.09450000 0.09448040 19470.48443761 0 241.51669889 0 7030.17039035 0 161.52813981 0 1083.39081838 0 9564
0.09550000 0.09549270 18260.53376777 0 323.41327823 0 6348.88522971 0 -233.15853761 0 680.49207450 0 10155
0.09650000 0.09649430 18233.40187350 0 552.88978711 0 6701.14948782 0 -403.29199158 0 693.37368277 0 9913
0.09750000 0.09749140 17944.94699751 0 207.41069948 0 7019.26270978 0 -172.01181588 0 526.62787098 0 10476
0.09850000 0.09850240 17789.51529549 0 -146.95600582 0 6900.71720248 0 649.32444826 0 -46.37104361 0 10575
0.09950000 0.09950330 18017.55502227 0 23.89397182 0 6107.70795411 0 545.63996920 0 -310.56352522 0 10882
0.10050000 0.10051200 18070.94004502 0 -24.59116264 0 5892.03685605 0 230.36186543 0 -869.63213441 0 10875
0.10150000 0.10150300 17677.14311798 0 140.19280448 0 5603.08767430 0 294.24704111 0 -687.76496001 0 11118
0.10250000 0.10250800 17640.01526265 0 207.42058560 0 5013.40286442 0 19.31724965 0 -945.94196013 0 11575
0.10350000 0.10349800 17506.88224297 0 232.48847868 0 4931.31515351 0 -76.97735820 0 -1082.77238695 0 11364
0.10450000 0.10450100 16851.54264276 0 217.07382798 0 5216.61745717 0 353.77353838 0 -1063.02651927 0 12093
0.10550000 0.10551000 16473.34380879 0 276.95952078 0 4473.14863115 0 259.06675050 0 -643.73110390 0 12067
0.10650000 0.10649700 16507.94521242 0 371.98156589 0 4986.79822962 0 123.02391754 0 -1135.31049914 0 12054
0.10750000 0.10749900 15603.47550607 0 238.70904214 0 5060.85621797 0 -32.28003391 0 -267.43809327 0 12807
0.10850000 0.10850100 15651.14855108 0 228.24294138 0 5437.92364097 0 -100.25915978 0 -173.33655533 0 12736
0.10950000 0.10950300 15244.06029121 0 307.50651867 0 5432.26658609 0 -286.90824817 0 68.90336781 0 12933
0.11050000 0.11050200 15013.38426700 0 338.95644843 0 6028.47623208 0 52.41881974 0 234.65573485 0 13428
0.11150000 0.11150900 14483.48848568 0 80.95465224 0 5898.60563046 0 259.31280493 0 811.84010114 0 13453
0.11250000 0.11250000 14784.46577441 0 93.55176007 0 5873.39603638 0 650.10545137 0 627.70131713 0 13668
0.11350000 0.11349100 14688.24091859 0 -81.55715604 0 5801.76563858 0 297.03163026 0 393.27625830 0 13791
0.11450000 0.11448600 14672.86251698 0 143.50904695 0 5359.15327099 0 99.50979224 0 866.49054665 0 14205
0.11550000 0.11549300 14288.62216809 0 165.18600248 0 5266.09197208 0 92.65322204 0 1658.50569119 0 14776
0.11650000 0.11649800 14186.57548880 0 -17.69043445 0 5471.77809366 0 428.13030710 0 1077.82383700 0 14553
0.11750000 0.11747300 14191.95792937 0 119.58354941 0 5016.72020533 0 361.36937032 0 802.21761556 0 14568
0.11850000 0.11849100 14159.77313171 0 352.97825533 0 4984.39260823 0 -134.68733671 0 564.30275802 0 16015
0.11950000 0.11950300 13591.87072925 0 -135.75284025 0 4622.34109595 0 334.30777731 0 1114.98903987 0 15270
0.12050000 0.12050700 13696.99308885 0 136.70520269 0 4463.72386787 0 -59.11644318 0 166.29764122 0 15999
0.12150000 0.12150000 13293.31004649 0 226.35359490 0 4288.83848780 0 414.49625561 0 521.77818219 0 15670
0.12250000 0.12250700 13330.65759327 0 201.24945272 0 4447.17011699 0 -231.10552100 0 48.46646068 0 16887
0.12350000 0.12352200 13115.90919930 0 190.29234157 0 4115.05156500 0 47.58154351 0 404.57279274 0 16407
0.12450000 0.12449800 13087.45915632 0 -67.27940860 0 4525.67685723 0 143.01693809 0 598.63723654 0 16306
0.12550000 0.12549900 12972.45068139 0 -269.97772645 0 4118.67647395 0 567.54101002 0 370.42505196 0 17523
0.12650000 0.12650100 13148.09399696 0 164.15455111 0 4000.44951925 0 -109.78355313 0 -726.09892140 0 17154
0.12750000 0.12750600 13124.03778301 0 365.51824339 0 4387.61176446 0 -584.81864423 0 127.15631374 0 18007
0.12850000 0.12850300 12719.36612911 0 319.28966968 0 4654.07552613 0 -333.29390126 0 38.58693610 0 17496
0.12950000 0.12949900 12688.27978871 0 104.50173125 0 5162.39760691 0 -146.78025266 0 17.00488728 0 18405
0.13050000 0.13049000 12642.25442959 0 41.01441680 0 5087.31805332 0 298.88582611 0 -68.59074688 0 18100
0.13150000 0.13148800 12340.28852933 0 -208.97160724 0 4900.17389025 0 681.51803358 0 460.65123269 0 19059
0.13250000 0.13249300 12693.00315492 0 -138.60882912 0 4301.34991597 0 598.72950695 0 393.93972648 0 18957
0.13350000 0.13349100 12428.71433861 0 362.07128451 0 4602.31622013 0 -250.03743184 0 906.48317850 0 19468
0.13450000 0.13450700 12319.85722433 0 468.01309323 0 4829.71884171 0 -127.54736453 0 1050.04275448 0 19953
0.13550000 0.13551000 12100.38546416 0 -45.21052352 0 4639.91641208 0 -144.61629186 0 885.00504373 0 19956
0.13650000 0.13649900 12209.57211561 0 -85.30223622 0 4962.02801845 0 348.18788323 0 430.77978601 0 19723
0.13750000 0.13749600 11817.75241164 0 60.25510397 0 4672.28794747 0 178.90463518 0 968.01106490 0 20946
0.13850000 0.13851100 11731.08413397 0 126.75317993 0 4406.83476647 0 252.53971747 0 982.56562357 0 20955
0.13950000 0.13949800 11621.89748251 0 242.38557858 0 4373.83711044 0 62.22496738 0 999.94211894 0 20506
0.14050000 0.14048300 11606.62892662 0 157.16726449 0 4221.31632015 0 260.57163695 0 690.99112897 0 21447
0.14150000 0.14148400 11283.13326410 0 27.10509192 0 4308.39102700 0 381.68204194 0 1291.56604411 0 21771
0.14250000 0.14249400 11317.84451346 0 5.31048063 0 3557.91404367 0 644.52528850 0 1714.01073645 0 22470
0.14350000 0.14350900 11454.93197928 0 -73.55083063 0 3366.43097443 0 150.92253498 0 1424.50134149 0 22519
0.14450000 0.14449900 10991.82239925 0 279.69138398 0 3151.01252154 0 0.85304104 0 972.82450461 0 22218
0.14550000 0.14550500 10817.61806268 0 337.40213141 0 3220.30320538 0 -14.90090224 0 1527.21807970 0 23559
0.14650000 0.14650700 10648.24693805 0 94.66933049 0 3395.95750553 0 45.96340613 0 1684.13269903 0 23044
0.14750000 0.14750500 10464.37617761 0 69.37735212 0 2846.01487925 0 578.64751135 0 666.92502890 0 23649
0.14850000 0.14849900 10194.12273839 0 16.03154430 0 2807.70069008 0 24.46066592 0 1256.75593360 0 23640
0.14950000 0.14949500 10247.59563772 0 33.06707853 0 2323.66549928 0 249.35968371 0 1024.26525801 0 24457
0.15050000 0.15050000 10002.12339424 0 172.74228996 0 2719.92297058 0 -311.44229103 0 950.29075241 0 24591
0.15150000 0.15149900 9939.39050023 0 234.31631156 0 2612.66960390 0 -231.16813306 0 290.27172429 0 25020
0.15250000 0.15250500 9595.96882305 0 83.28733607 0 2656.93743140 0 -77.38697291 0 375.30769447 0 25297
0.15350000 0.15350100 9700.32226257 0 -43.44629132 0 2388.50743123 0 267.44797938 0 293.56819452 0 25452
0.15450000 0.15450400 9530.80833849 0 -2.22170670 0 2476.58173419 0 135.38375861 0 25.75607656 0 26061
0.15550000 0.15549900 9442.47040579 0 244.97354388 0 2097.21853552 0 72.78762252 0 67.07696293 0 26128
0.15650000 0.15649500 9367.01737673 0 179.58677713 0 2394.10956325 0 -153.62144446 0 36.09310859 0 26331
0.15750000 0.15749700 9042.46719524 0 141.87234563 0 2334.30955012 0 -156.00070289 0 -248.86098412 0 27345
0.15850000 0.15849900 9157.33287073 0 170.93752468 0 2463.63092312 0 20.18634903 0 -329.69096146 0 26980
0.15950000 0.15949700 8641.20075885 0 50.52101514 0 2456.16141376 0 349.71803419 0 345.33079590 0 27777
0.16050000 0.16050000 8862.66072666 0 -106.95337801 0 2023.51205350 0 372.82737798 0 -30.11673218 0 28224
0.16150000 0.16150500 8881.30154633 0 13.77542294 0 2021.90830590 0 99.08128407 0 23.38187104 0 28075
0.16250000 0.16249700 8724.16723555 0 114.05721094 0 1698.59938112 0 -127.83735724 0 389.20757262 0 28590
0.16350000 0.16349900 8715.12693232 0 133.73936809 0 1970.70921310 0 287.94079799 0 619.99344255 0 29163
0.16450000 0.16449100 8470.48951636 0 70.81863789 0 2087.00288302 0 -76.71010355 0 586.39602885 0 28996
0.16550000 0.16550500 8606.08308030 0 51.51808479 0 1920.47676269 0 28.54681707 0 253.93365973 0 30777
0.16650000 0.16650700 8307.77504271 0 215.28883494 0 2193.86080509 0 -139.83800279 0 731.88229886 0 29211
0.16750000 0.16749900 8231.57506272 0 75.74939283 0 2334.48530328 0 -346.84666691 0 335.19423232 0 30922
0.16850000 0.16850800 8103.37411612 0 138.63299518 0 2390.79222233 0 15.20616352 0 500.96022023 0 30867
0.16950000 0.16949900 8034.42395403 0 46.06369527 0 2604.94744938 0 143.84517487 0 723.77129047 0 30852
0.17050000 0.17049200 8012.63056203 0 -104.03686414 0 2325.53287662 0 311.04025567 0 412.74641320 0 31257
0.17150000 0.17149500 8219.17348027 0 30.94562803 0 2167.11337086 0 121.31471805 0 522.95023608 0 32608
0.17250000 0.17250900 8160.12041808 0 106.70776296 0 2191.02678537 0 -15.59644538 0 674.51317164 0 32361
0.17350000 0.17350400 8013.22372894 0 -31.46651646 0 2146.40745154 0 110.49491405 0 551.66171189 0 32508
0.17450000 0.17449800 8021.22049778 0 159.50697845 0 2223.37635162 0 -51.52017186 0 78.20499403 0 32791
0.17550000 0.17549800 7904.76205928 0 77.68421544 0 1836.06032240 0 -87.53957396 0 390.50704755 0 33633
0.17650000 0.17650100 7830.22074974 0 90.78057210 0 2284.94488094 0 -46.94817306 0 30.57358056 0 33984
0.17750000 0.17750300 7724.20863976 0 116.68801607 0 2111.41060330 0 120.86105520 0 53.93809597 0 34069
0.17850000 0.17849800 7662.78290988 0 -59.39369379 0 2025.95062861 0 -50.15028581 0 -10.29866292 0 34536
