### header ###
fiducial parameters:
Omega_m = 0.31
Omega_nu = 0
Omega_de = 0.69
Omega_k = 0
H_0 = 100
w_de = -1
zeff = 0
beta = 0
fgrowth = 0
b_1 = 2
gamma = 0.55
Lx = 3500 Ly = 3500 Lz = 3500
nx = 700 ny = 700 nz = 700
xoffset = -983.599254 yoffset = -42.9823471 zoffset = 800.977702
bins = 400 dk = 0.001
kx_ny = 0.628318531 ky_ny = 0.628318531 kz_ny = 0.628318531
############################
A(data) = 9.09709304 (not used)
A(ran) = 9.10182572 (used)
Ngal = 505468
weighted Ngal = 0
Nran = 25229228
weighted Nran = 0
SN(data) = 6708.12464
SN(ran) = 135.110332
SN(data+ran) = 6843.23497
############################
13 columns: k_central k_mean P_0(k) sigma^{lin}_{P_0(k)} P^img_1(k) sigma^{lin}_{P_1(k)} P_2(k) sigma^{lin}_{P_2(k)} P^img_3(k) sigma^{lin}_{P_3(k)} P_4(k) sigma^{lin}_{P_4(k)} N_modes
### header ###
0.00050000 0 0 0 0 0 0 0 0 0 0 0 0
0.00150000 0.00179520 94750.50648070 0 -37696.52664748 0 -57018.93904669 0 85040.47385597 0 -148816.79241752 0 3
0.00250000 0.00253879 134414.91930612 0 -4751.19013233 0 8194.98545145 0 -52457.04605366 0 52539.54019374 0 6
0.00350000 0.00331552 108242.96682809 0 27944.42310976 0 17104.84688649 0 -113447.56716285 0 119504.46048421 0 7
0.00450000 0.00420575 69583.31285668 0 24911.25308287 0 7679.68816708 0 -7141.59789462 0 20819.60964205 0 24
0.00550000 0.00557378 58371.57931435 0 -13464.12015013 0 17391.32453941 0 19325.48807953 0 -28803.41668562 0 45
0.00650000 0.00659388 68268.78905587 0 -1136.78243187 0 -3967.83632326 0 21304.79821297 0 26774.56612985 0 40
0.00750000 0.00754703 68100.17586675 0 5148.62295289 0 -29575.52229236 0 -12009.32335746 0 -12277.34692844 0 57
0.00850000 0.00846663 83772.19510573 0 -8437.08543114 0 7407.29273621 0 21415.85224176 0 26287.62002732 0 75
0.00950000 0.00948925 75477.96404101 0 2144.47416677 0 2074.42554741 0 5669.95076760 0 -7492.24742056 0 112
0.01050000 0.01054430 81805.07784786 0 2922.97279475 0 7738.30184638 0 -18698.15913941 0 60400.75940731 0 105
0.01150000 0.01145670 73256.55392788 0 1262.66563365 0 23129.11602728 0 -5413.21933723 0 9117.42591854 0 144
0.01250000 0.01249090 79852.78976298 0 5358.16465945 0 39223.60192773 0 1345.47832634 0 21024.69161214 0 169
0.01350000 0.01339930 74617.76216216 0 6958.00174849 0 37856.24233281 0 3776.52900718 0 25420.60771347 0 180
0.01450000 0.01448870 73289.50764563 0 545.36096106 0 64034.78555439 0 12030.85311972 0 36752.73217129 0 267
0.01550000 0.01550050 70026.10097743 0 -1407.04685566 0 50330.87218481 0 12348.63680449 0 38728.41739577 0 238
0.01650000 0.01653350 71060.84771460 0 3289.98933384 0 64151.44171521 0 12057.21609391 0 47471.58794189 0 315
0.01750000 0.01747870 71986.95702893 0 -140.01924824 0 33804.91227336 0 20402.19588396 0 36669.79864830 0 297
0.01850000 0.01844180 74907.97456976 0 -4685.90881748 0 48082.33017741 0 21278.43523877 0 44514.98038589 0 388
0.01950000 0.01947590 79471.29555723 0 1381.14523352 0 34746.39998930 0 14223.92303558 0 47572.20662673 0 399
0.02050000 0.02045430 74260.76355327 0 2288.38305215 0 27729.78456152 0 -4087.55717982 0 47839.13174046 0 462
0.02150000 0.02154770 66268.71808026 0 5101.68587425 0 30943.10157874 0 3237.47209233 0 35822.55856510 0 571
0.02250000 0.02255340 71065.57108081 0 3790.81993611 0 36782.82990016 0 4842.81245223 0 33302.25823204 0 510
0.02350000 0.02348930 66099.00643388 0 -1002.08630751 0 39617.28900905 0 1749.22727614 0 22697.64201628 0 555
0.02450000 0.02439640 61554.24937407 0 631.27899242 0 39402.43076936 0 -3434.93076905 0 24310.39696267 0 592
0.02550000 0.02547300 63726.55844776 0 2391.90166416 0 40457.49896580 0 -1805.16071973 0 14224.36241848 0 837
0.02650000 0.02652900 67208.00888169 0 -1935.60251913 0 39051.91305829 0 8100.19957464 0 24530.08841430 0 723
0.02750000 0.02749970 67538.42482494 0 -5962.19532113 0 30371.68411306 0 16388.43306274 0 -2529.74706548 0 826
0.02850000 0.02848090 73767.55624437 0 3123.35336778 0 31038.55751447 0 527.86253694 0 13531.12604288 0 831
0.02950000 0.02946900 66955.14402087 0 6594.17073545 0 31607.88791136 0 -7274.92863661 0 5202.22766709 0 996
0.03050000 0.03053250 58224.82542467 0 3102.41677244 0 37569.10560553 0 -3805.45138679 0 4137.86652225 0 1041
0.03150000 0.03150510 55961.01486138 0 1863.78538359 0 33005.12554371 0 4476.25726519 0 9700.51998487 0 1036
0.03250000 0.03246190 57757.32201561 0 286.99612475 0 33675.18447117 0 9520.57071685 0 698.73964647 0 1059
0.03350000 0.03345080 56189.93335397 0 -1641.40271168 0 24689.91394536 0 5075.50963779 0 2538.86426073 0 1302
0.03450000 0.03451200 55782.62540266 0 59.10787521 0 20713.49867091 0 903.16144375 0 -7767.29013342 0 1339
0.03550000 0.03553350 53344.16013533 0 2811.41347561 0 22315.48873618 0 -3636.60752164 0 -4487.23085320 0 1365
0.03650000 0.03647120 48831.25833601 0 3245.60067604 0 21356.20601265 0 2589.64593977 0 -7056.36859596 0 1308
0.03750000 0.03744890 48073.43267362 0 664.66001004 0 20932.97043109 0 771.60141486 0 -4983.42596584 0 1579
0.03850000 0.03847530 47856.26767369 0 1264.35725783 0 19326.36684534 0 4796.57838623 0 -9169.07537882 0 1662
0.03950000 0.03950240 46411.90622497 0 -205.14677907 0 18288.10504495 0 -238.62116556 0 -6608.12114263 0 1683
0.04050000 0.04050350 43736.94310996 0 877.88044996 0 16854.72816881 0 163.52733202 0 -4627.58073707 0 1822
0.04150000 0.04152450 44694.13876470 0 1718.29471975 0 13833.97070894 0 1265.91706714 0 -3434.89781533 0 1887
0.04250000 0.04250150 42415.49902842 0 -817.87502532 0 16888.78034382 0 1568.28939658 0 -1000.52649820 0 1920
0.04350000 0.04349210 43939.71831981 0 -211.88251898 0 17910.89482251 0 -219.36520982 0 -4547.92061671 0 2005
0.04450000 0.04448520 42077.17419292 0 1651.69525619 0 14789.95806070 0 1981.13357248 0 -2892.79817387 0 2151
0.04550000 0.04548030 44891.86107116 0 832.02205634 0 17885.52045985 0 -1703.65228450 0 -6747.46044582 0 2274
0.04650000 0.04648670 41783.77625927 0 664.14043976 0 18079.94739454 0 -883.82310372 0 4684.71149906 0 2311
0.04750000 0.04749250 41258.60384415 0 -2065.11062987 0 17332.99645900 0 3120.94774638 0 -3471.65219519 0 2568
0.04850000 0.04851840 43017.12406870 0 1321.60885012 0 18833.26938216 0 2447.43966313 0 -3148.20047096 0 2493
0.04950000 0.04949480 40784.61953727 0 3501.72795492 0 17125.49788294 0 -2315.76759160 0 115.73785055 0 2644
0.05050000 0.05050630 38242.89928767 0 -55.70353648 0 18749.78663055 0 -27.86588342 0 5538.88284756 0 2829
0.05150000 0.05149060 37397.85611899 0 -881.32411346 0 19294.29189340 0 4065.18160548 0 72.91976693 0 2784
0.05250000 0.05249300 38020.46169290 0 1696.20474429 0 15785.81941092 0 1861.57748451 0 1278.23077300 0 3055
0.05350000 0.05348950 38089.33496299 0 821.30770425 0 17655.28381854 0 -401.80797582 0 2955.31137643 0 3009
0.05450000 0.05448610 36115.18757867 0 -426.38815389 0 14822.69208699 0 -392.49086136 0 1013.57287505 0 3336
0.05550000 0.05550870 36315.76587400 0 355.65409721 0 14800.94263328 0 3250.23616567 0 -1612.66706981 0 3349
0.05650000 0.05647670 34467.17215429 0 879.27878605 0 12948.94369606 0 -1087.08053631 0 1480.09426333 0 3324
0.05750000 0.05747970 34182.01265008 0 36.19878018 0 11589.82253058 0 3207.38534803 0 -1490.47468442 0 3639
0.05850000 0.05849280 34062.17096321 0 569.87742861 0 11706.91807429 0 1422.35934984 0 1164.66127708 0 3846
0.05950000 0.05951020 33323.78799430 0 249.85289102 0 7653.88540609 0 474.60273832 0 -645.48314323 0 3787
0.06050000 0.06049470 33038.62849008 0 197.69045120 0 8964.00439330 0 1022.46049273 0 390.95192274 0 3930
0.06150000 0.06148310 31905.56982832 0 383.43408127 0 7961.75002183 0 -465.26475317 0 -1963.81090152 0 4083
0.06250000 0.06249100 31479.14872071 0 1439.01196187 0 8831.38764852 0 -1435.12342318 0 -680.80733173 0 4303
0.06350000 0.06350600 29743.47640713 0 719.63559889 0 10006.24260896 0 -2168.58530358 0 -4201.53310493 0 4470
0.06450000 0.06451750 29455.79045123 0 724.38972191 0 10119.66930543 0 713.88956898 0 -3055.09523376 0 4479
0.06550000 0.06550280 28546.26784149 0 -431.21477508 0 10011.61406495 0 1926.55123132 0 -2469.72736090 0 4636
0.06650000 0.06648880 29738.97273237 0 -794.01104138 0 7239.37157516 0 2412.90416694 0 -2251.68359516 0 4653
0.06750000 0.06749660 29667.46316487 0 412.81012372 0 8759.80118901 0 157.86698177 0 -3713.60937544 0 5220
0.06850000 0.06852730 28214.20421236 0 1262.14935874 0 7094.62786226 0 -1576.50585687 0 4.49757832 0 5029
0.06950000 0.06949320 28616.67895174 0 11.91760218 0 8023.77990320 0 1456.91681518 0 -1967.34793389 0 5040
0.07050000 0.07048030 28497.71603068 0 20.60552032 0 8278.92955511 0 -863.62467166 0 -1744.21831105 0 5475
0.07150000 0.07148790 27396.51262940 0 767.22625960 0 8699.17733293 0 1096.13511949 0 1320.65319231 0 5509
0.07250000 0.07249820 26812.57275098 0 -658.05498655 0 7839.53566729 0 1711.30853159 0 949.70197932 0 5916
0.07350000 0.07351270 27570.28856764 0 -30.65585501 0 7382.64335534 0 855.39942371 0 1381.87021531 0 5721
0.07450000 0.07449140 27719.45906329 0 1448.31589485 0 8531.35503303 0 -761.52306952 0 1104.77338737 0 6028
0.07550000 0.07549160 26004.65743762 0 1168.12141745 0 9667.64315914 0 -2113.39881093 0 1880.59177964 0 6183
0.07650000 0.07648840 25244.08563209 0 129.76405128 0 10587.87572714 0 546.27268059 0 2328.49871122 0 6330
0.07750000 0.07749960 24744.50727109 0 -525.62278259 0 10339.40469535 0 1978.74992023 0 2186.61098719 0 6583
0.07850000 0.07848650 25700.60446857 0 -92.44781053 0 9866.21127769 0 833.03153857 0 2516.23604121 0 6549
0.07950000 0.07947320 24337.30916550 0 621.11716433 0 9202.31469545 0 -293.99878977 0 1603.82448888 0 6828
0.08050000 0.08048110 24441.33306784 0 881.54490337 0 10097.72212942 0 -932.98895214 0 2755.27132515 0 7147
0.08150000 0.08149960 24118.16694250 0 350.89667882 0 9880.49122205 0 -78.31319207 0 897.22867610 0 7386
0.08250000 0.08250610 23167.89156849 0 -181.57608323 0 10594.91683817 0 620.15711268 0 1710.00136746 0 7227
0.08350000 0.08350160 23927.91414539 0 87.00989787 0 8975.24161105 0 779.40815059 0 -198.07491124 0 7798
0.08450000 0.08449610 22970.38895348 0 24.06818714 0 8991.32302531 0 -815.63527097 0 -1584.06324281 0 7371
0.08550000 0.08548940 23111.21117397 0 740.06580544 0 8905.25889913 0 -605.69043059 0 -1329.88023328 0 8256
0.08650000 0.08650700 22052.51806858 0 746.80264380 0 8395.64063879 0 357.89165464 0 -1604.14304149 0 8037
0.08750000 0.08749060 21417.39008193 0 1.14287887 0 8042.05823197 0 597.25427885 0 -1205.09548875 0 8155
0.08850000 0.08849210 21200.00539054 0 34.69620049 0 8191.86583284 0 1901.08899208 0 -1660.86737430 0 8718
0.08950000 0.08949900 20854.97996576 0 314.42240557 0 7151.02265789 0 1129.54359854 0 -1048.69824280 0 8571
0.09050000 0.09049190 20456.67936396 0 646.87818394 0 7259.39645098 0 -1047.98534404 0 -1842.31054420 0 8932
0.09150000 0.09150830 19433.57627373 0 711.56413496 0 7046.73512580 0 -56.21453880 0 237.76217198 0 9285
0.09250000 0.09250820 18852.49238418 0 26.14042675 0 7303.32375673 0 59.74541981 0 -811.53802540 0 9204
0.09350000 0.09350330 18908.51370435 0 70.53292916 0 7148.96854282 0 938.50210912 0 -778.88308803 0 9349
0.09450000 0.09448040 18100.92792817 0 299.41967634 0 6838.10513877 0 -116.04322166 0 -163.98538870 0 9564
0.09550000 0.09549270 18157.27878551 0 96.76903154 0 7136.24840777 0 455.60821541 0 -715.27801895 0 10155
0.09650000 0.09649430 18242.73876019 0 428.67404344 0 7215.42520693 0 -749.08084415 0 -2286.15318392 0 9913
0.09750000 0.09749140 17792.04174718 0 678.97290811 0 7518.37971873 0 -778.11636486 0 -1396.62249628 0 10476
0.09850000 0.09850240 16868.01950164 0 -19.06921800 0 7012.79279653 0 54.02827932 0 -555.13393529 0 10575
0.09950000 0.09950330 17284.77418537 0 -384.45344960 0 7044.03292095 0 1912.82051560 0 -1277.02247002 0 10882
0.10050000 0.10051200 17459.09935224 0 -95.36586224 0 6179.65690452 0 493.48192322 0 -1820.61601335 0 10875
0.10150000 0.10150300 16911.29871761 0 580.41932291 0 5190.48515900 0 642.60738212 0 -783.78440431 0 11118
0.10250000 0.10250800 16813.31633018 0 214.94062399 0 5631.75740874 0 213.78834232 0 -261.66130655 0 11575
0.10350000 0.10349800 16127.76915538 0 233.38811518 0 5325.60638632 0 -421.77133803 0 -373.41175724 0 11364
0.10450000 0.10450100 15983.87125456 0 392.00863862 0 5520.31891990 0 123.12387715 0 67.86521586 0 12093
0.10550000 0.10551000 15644.00857890 0 -132.82984548 0 5407.81492752 0 320.83629750 0 -71.49363987 0 12067
0.10650000 0.10649700 15936.52774674 0 252.03332868 0 5481.85094672 0 191.36992814 0 -1115.58220679 0 12054
0.10750000 0.10749900 15512.52324510 0 269.48561760 0 5277.83448017 0 -20.79698142 0 162.84299315 0 12807
0.10850000 0.10850100 15017.33871313 0 155.27681955 0 5487.60686275 0 -79.60135290 0 584.47043328 0 12736
0.10950000 0.10950300 15204.40598419 0 -14.69175598 0 5463.53966423 0 531.88069359 0 120.25141142 0 12933
0.11050000 0.11050200 14954.72664942 0 141.83829346 0 5301.17669690 0 662.36313591 0 50.70918086 0 13428
0.11150000 0.11150900 15037.11094378 0 74.21429881 0 4933.84160521 0 264.23718882 0 564.33241637 0 13453
0.11250000 0.11250000 14999.10432265 0 -62.41994354 0 4144.01788289 0 225.33862039 0 1031.60185403 0 13668
0.11350000 0.11349100 14698.45657110 0 -45.62848651 0 4440.63429631 0 171.85583495 0 31.25506344 0 13791
0.11450000 0.11448600 14397.03989946 0 319.80704305 0 4400.67242126 0 -589.16853497 0 512.02388173 0 14205
0.11550000 0.11549300 14097.92998807 0 545.52682811 0 4719.74130103 0 -680.42946244 0 -412.29384881 0 14776
0.11650000 0.11649800 14066.84364767 0 58.86808200 0 5197.82285348 0 -55.21527223 0 -438.46129761 0 14553
0.11750000 0.11747300 14110.34255509 0 -47.34076168 0 4626.73492498 0 570.45851250 0 -1117.17496981 0 14568
0.11850000 0.11849100 14008.29587581 0 -222.94727894 0 4512.02303351 0 794.83708124 0 -654.57946778 0 16015
0.11950000 0.11950300 13878.12869072 0 81.56286802 0 4011.56590671 0 203.50019164 0 -361.66924916 0 15270
0.12050000 0.12050700 14015.65553944 0 223.20651485 0 4336.59940939 0 -20.35902651 0 -150.78852320 0 15999
0.12150000 0.12150000 13621.08969232 0 240.40286323 0 4220.56936921 0 36.18647745 0 544.71836357 0 15670
0.12250000 0.12250700 13850.66725927 0 25.15609921 0 4298.30718937 0 371.01602196 0 22.63107551 0 16887
0.12350000 0.12352200 13454.78326344 0 -92.69375511 0 4119.12684142 0 296.63728410 0 222.08608845 0 16407
0.12450000 0.12449800 13711.38287894 0 25.85878231 0 3935.50872615 0 -129.05225097 0 157.80217279 0 16306
0.12550000 0.12549900 13275.95442181 0 259.85324590 0 4038.81863128 0 -32.02255553 0 768.86955166 0 17523
0.12650000 0.12650100 13370.20205456 0 69.30002073 0 3973.08694895 0 26.96437954 0 192.72212903 0 17154
0.12750000 0.12750600 12986.18139712 0 243.56202630 0 3625.62294906 0 242.27024057 0 307.75037618 0 18007
0.12850000 0.12850300 13036.16120236 0 206.81753256 0 3978.41446666 0 64.61751713 0 -255.13756889 0 17496
0.12950000 0.12949900 12711.01785395 0 135.78030168 0 3605.59807325 0 254.13467741 0 790.93645952 0 18405
0.13050000 0.13049000 12591.06632136 0 -38.37757015 0 3508.08802244 0 704.50435016 0 309.43321270 0 18100
0.13150000 0.13148800 12460.56959910 0 -12.89105500 0 3041.71602435 0 22.60866698 0 332.78861092 0 19059
0.13250000 0.13249300 12349.29587885 0 403.39414811 0 3167.54430327 0 -527.14524435 0 -252.95163895 0 18957
0.13350000 0.13349100 12050.95488754 0 233.09153172 0 3412.78587072 0 -290.41891756 0 385.10593321 0 19468
0.13450000 0.13450700 11622.99593977 0 -118.75201726 0 3510.17509123 0 286.26125684 0 8.11170042 0 19953
0.13550000 0.13551000 11878.38725229 0 29.67361453 0 3333.88368587 0 99.72498002 0 -566.54910311 0 19956
0.13650000 0.13649900 12103.57099020 0 105.25768954 0 2669.88824248 0 380.64619675 0 -551.28274414 0 19723
0.13750000 0.13749600 11989.66097254 0 -76.23842600 0 3145.77288042 0 107.69747295 0 -458.82339981 0 20946
0.13850000 0.13851100 11633.10174655 0 370.44372573 0 2998.21711693 0 -207.47331154 0 -52.05072671 0 20955
0.13950000 0.13949800 11515.56681993 0 204.97981357 0 3065.33285540 0 66.82486699 0 513.34422736 0 20506
0.14050000 0.14048300 11233.04361313 0 -46.99683471 0 2840.97296043 0 456.36505246 0 -120.24482068 0 21447
0.14150000 0.14148400 11178.45028740 0 193.67119610 0 3236.00015960 0 -85.23555987 0 -70.54369404 0 21771
0.14250000 0.14249400 10876.87983176 0 303.45430985 0 3125.02302281 0 -251.74553288 0 760.90024425 0 22470
0.14350000 0.14350900 10618.73139152 0 21.73660176 0 2962.58316348 0 264.66888252 0 911.32188272 0 22519
0.14450000 0.14449900 10640.78841326 0 -206.04531711 0 3049.87756178 0 534.09957725 0 652.41001470 0 22218
0.14550000 0.14550500 10693.42648507 0 217.15840919 0 2568.74229815 0 165.70996659 0 223.92270899 0 23559
0.14650000 0.14650700 10450.27198641 0 366.99566840 0 2917.67823077 0 -386.68002247 0 304.78783696 0 23044
0.14750000 0.14750500 10154.29267821 0 153.89605878 0 2962.39642574 0 -642.33606318 0 231.40539983 0 23649
0.14850000 0.14849900 9968.48863300 0 373.32827449 0 3840.21755901 0 -307.09459720 0 -64.25887084 0 23640
0.14950000 0.14949500 9757.45302456 0 -47.58670626 0 3309.08052098 0 -30.36915766 0 -362.93247500 0 24457
0.15050000 0.15050000 9852.64533055 0 -152.11106573 0 3080.55747300 0 930.45810662 0 -875.53414525 0 24591
0.15150000 0.15149900 9880.97454324 0 -56.21761448 0 2892.29288353 0 72.65844395 0 -593.02192303 0 25020
0.15250000 0.15250500 9687.48129722 0 155.27901647 0 2545.93832547 0 121.68050431 0 -562.92968645 0 25297
0.15350000 0.15350100 9744.99651926 0 108.57931444 0 2703.52300372 0 130.82186561 0 64.27260155 0 25452
0.15450000 0.15450400 9794.38315758 0 -16.87021642 0 2467.84899899 0 11.72691000 0 -422.96865645 0 26061
0.15550000 0.15549900 9266.33278445 0 157.10684934 0 2385.21205946 0 20.20205697 0 271.10034976 0 26128
0.15650000 0.15649500 9494.63614098 0 136.48441278 0 2740.92547336 0 229.49408420 0 -136.86008516 0 26331
0.15750000 0.15749700 9389.17325963 0 194.00183173 0 2597.10446455 0 -163.45263692 0 337.33402706 0 27345
0.15850000 0.15849900 9128.38852198 0 112.90163391 0 2675.55628193 0 -30.67189248 0 183.86087432 0 26980
0.15950000 0.15949700 8918.39644794 0 -1.10736575 0 2767.60700016 0 235.36863361 0 511.24727245 0 27777
0.16050000 0.16050000 9004.37269753 0 127.06514179 0 2880.97877377 0 210.57096101 0 538.90313084 0 28224
0.16150000 0.16150500 8921.31834424 0 28.12292241 0 2757.33642480 0 -30.50525652 0 680.76668881 0 28075
0.16250000 0.16249700 8801.67437969 0 77.73672170 0 2729.40265672 0 103.92460181 0 462.61637272 0 28590
0.16350000 0.16349900 8670.48562935 0 98.64706391 0 2583.05519622 0 94.17985794 0 719.22038205 0 29163
0.16450000 0.16449100 8606.00618830 0 -24.16111662 0 2437.82816212 0 -58.93783403 0 509.50402078 0 28996
0.16550000 0.16550500 8613.00336103 0 108.32084745 0 2498.38611076 0 -54.38989145 0 178.53006125 0 30777
0.16650000 0.16650700 8609.63109725 0 137.76960777 0 2699.45871187 0 127.69895163 0 567.22685124 0 29211
0.16750000 0.16749900 8296.99917701 0 124.89239334 0 2314.05399828 0 138.28588268 0 123.98726455 0 30922
0.16850000 0.16850800 8381.25084871 0 63.56881999 0 2479.71233738 0 -36.75174356 0 141.02982891 0 30867
0.16950000 0.16949900 8061.02858882 0 165.71436042 0 2441.67276253 0 -66.34440179 0 293.57698218 0 30852
0.17050000 0.17049200 7920.22833747 0 124.58152993 0 2698.94243695 0 -95.70242954 0 451.54392356 0 31257
0.17150000 0.17149500 7725.98814052 0 92.99714901 0 2613.66920000 0 -154.73088630 0 226.97751862 0 32608
0.17250000 0.17250900 7821.35619967 0 78.51662635 0 2734.04913092 0 283.99294260 0 40.15300661 0 32361
0.17350000 0.17350400 7741.67411016 0 8.69691451 0 2828.62630085 0 -64.60049104 0 -100.61407132 0 32508
0.17450000 0.17449800 7800.73815693 0 50.85417722 0 2588.44862136 0 130.92292368 0 255.14965192 0 32791
0.17550000 0.17549800 7706.11704872 0 -26.69218184 0 2618.29370506 0 -120.02183385 0 96.93336074 0 33633
0.17650000 0.17650100 7808.57015718 0 -115.69391226 0 2305.25535564 0 223.01208792 0 -361.33751506 0 33984
0.17750000 0.17750300 7841.79848924 0 121.89360502 0 2217.70831217 0 197.69704195 0 -39.20701522 0 34069
0.17850000 0.17849800 7858.90146875 0 -57.05200261 0 2019.29397763 0 219.27293941 0 224.13141586 0 34536
