### header ###
fiducial parameters:
Omega_m = 0.31
Omega_nu = 0
Omega_de = 0.69
Omega_k = 0
H_0 = 100
w_de = -1
zeff = 0
beta = 0
fgrowth = 0
b_1 = 2
gamma = 0.55
Lx = 3500 Ly = 3500 Lz = 3500
nx = 700 ny = 700 nz = 700
xoffset = -983.599254 yoffset = -42.9823471 zoffset = 800.977702
bins = 400 dk = 0.001
kx_ny = 0.628318531 ky_ny = 0.628318531 kz_ny = 0.628318531
############################
A(data) = 9.04047358 (not used)
A(ran) = 9.04962438 (used)
Ngal = 502177
weighted Ngal = 0
Nran = 25229228
weighted Nran = 0
SN(data) = 6741.14452
SN(ran) = 134.335439
SN(data+ran) = 6875.47996
############################
13 columns: k_central k_mean P_0(k) sigma^{lin}_{P_0(k)} P^img_1(k) sigma^{lin}_{P_1(k)} P_2(k) sigma^{lin}_{P_2(k)} P^img_3(k) sigma^{lin}_{P_3(k)} P_4(k) sigma^{lin}_{P_4(k)} N_modes
### header ###
0.00050000 0 0 0 0 0 0 0 0 0 0 0 0
0.00150000 0.00179520 17825.65453928 0 -23244.89342228 0 -20028.39087901 0 4529.86197938 0 22669.85104765 0 3
0.00250000 0.00253879 26364.84157256 0 -11280.49696668 0 6746.79038690 0 -51240.17510309 0 6545.23446460 0 6
0.00350000 0.00331552 28798.36378223 0 -1782.55446936 0 -35747.53393437 0 5463.47375679 0 -899.84410283 0 7
0.00450000 0.00420575 31702.24538984 0 -13185.99077237 0 -25834.94579124 0 -9563.11396645 0 -11327.29124588 0 24
0.00550000 0.00557378 48014.44551886 0 -6928.06878821 0 -18842.16688596 0 -18765.60441506 0 -10343.47997178 0 45
0.00650000 0.00659388 53888.00632383 0 9377.61748927 0 -32030.79395575 0 2236.59079243 0 7226.55257896 0 40
0.00750000 0.00754703 45343.54669570 0 -7012.49621307 0 -8765.54612047 0 -10709.37608446 0 2578.05721570 0 57
0.00850000 0.00846663 62419.61400203 0 -2510.63390919 0 -16663.26706872 0 -10837.55506191 0 -5454.99366676 0 75
0.00950000 0.00948925 46010.96932575 0 5422.95166854 0 -12931.36837993 0 -1435.94726612 0 16566.16344710 0 112
0.01050000 0.01054430 44247.06666063 0 60.08714986 0 1303.46233622 0 5034.85573467 0 18804.16026482 0 105
0.01150000 0.01145670 53138.63878233 0 -4568.34093714 0 2987.24352892 0 847.72340439 0 -6448.32856529 0 144
0.01250000 0.01249090 55583.80463894 0 -4129.16674076 0 1253.14200922 0 -12457.71361023 0 -10224.56098901 0 169
0.01350000 0.01339930 58725.50224293 0 4794.41442543 0 5765.04421244 0 -7288.53852204 0 11296.75413410 0 180
0.01450000 0.01448870 59397.75808490 0 -1068.77474611 0 16659.42246832 0 -157.02666196 0 1614.55641630 0 267
0.01550000 0.01550050 67597.19228825 0 -5113.54921264 0 20305.64149097 0 7191.43490042 0 -3756.62496167 0 238
0.01650000 0.01653350 74008.11838390 0 -2975.68775857 0 21024.91130359 0 -8715.64320723 0 -14300.48550647 0 315
0.01750000 0.01747870 66875.61571538 0 4780.36515710 0 27609.39364603 0 -3135.84282680 0 9093.38068916 0 297
0.01850000 0.01844180 68975.20691858 0 1773.16265980 0 30565.67166485 0 -5571.71573501 0 -7812.70035647 0 388
0.01950000 0.01947590 73365.85042507 0 -2146.94569560 0 30949.25293939 0 8799.14792799 0 -6126.10711319 0 399
0.02050000 0.02045430 74342.04939037 0 1275.75924417 0 41699.74427902 0 2570.26915374 0 -8336.15917826 0 462
0.02150000 0.02154770 73557.42137088 0 829.36378978 0 33641.90121625 0 -2591.41445596 0 -12923.02010477 0 571
0.02250000 0.02255340 69453.91459167 0 1998.71987318 0 37086.77302349 0 -2787.54399939 0 2339.75789812 0 510
0.02350000 0.02348930 67858.29557851 0 2990.12148694 0 38618.13228705 0 5467.65887894 0 -3338.68394409 0 555
0.02450000 0.02439640 63343.19686467 0 3516.31546730 0 35983.92193632 0 4529.48850392 0 -7188.62284984 0 592
0.02550000 0.02547300 61831.71967748 0 2369.60298182 0 37461.78633141 0 1977.25601836 0 -10009.60388817 0 837
0.02650000 0.02652900 58591.16092026 0 252.41998563 0 30687.05119187 0 4404.68179025 0 4648.61619356 0 723
0.02750000 0.02749970 64417.15852595 0 -1333.49415766 0 29079.89837749 0 9513.99095787 0 -13788.49457846 0 826
0.02850000 0.02848090 60517.85495102 0 585.11083386 0 27812.05901015 0 -2726.54666785 0 -8195.08431260 0 831
0.02950000 0.02946900 55200.00367294 0 4920.01202833 0 23309.59255479 0 -5294.59693793 0 -6077.64317896 0 996
0.03050000 0.03053250 54422.84516281 0 -936.34034524 0 22256.83111859 0 5564.58674740 0 -5463.68246367 0 1041
0.03150000 0.03150510 56666.44411255 0 -3073.10993279 0 20546.64301340 0 11409.34600306 0 -11734.04996857 0 1036
0.03250000 0.03246190 55826.89323016 0 2344.61307920 0 17363.09418788 0 -1616.67643880 0 -14352.11299761 0 1059
0.03350000 0.03345080 52368.18086147 0 4018.90360119 0 18422.88575053 0 -3028.39173781 0 -5566.61889333 0 1302
0.03450000 0.03451200 50162.03930424 0 914.76664469 0 15043.59184160 0 -1320.11494825 0 -8865.43982352 0 1339
0.03550000 0.03553350 48724.15875334 0 117.26250922 0 21067.86098239 0 -430.11412091 0 -12059.96223706 0 1365
0.03650000 0.03647120 46810.20682677 0 3228.56360396 0 18028.64944058 0 -575.67618447 0 -14923.53046329 0 1308
0.03750000 0.03744890 44477.52299339 0 184.01905217 0 16919.64699277 0 3284.60689327 0 -4077.39645019 0 1579
0.03850000 0.03847530 43302.50326436 0 -322.60151831 0 16269.03075878 0 4592.49601224 0 -4896.70276531 0 1662
0.03950000 0.03950240 45921.33521348 0 -624.03576526 0 10724.27116488 0 4746.67547300 0 -9073.97094941 0 1683
0.04050000 0.04050350 43820.09632440 0 -377.77263256 0 12285.25582070 0 -2999.38148163 0 -7818.18165819 0 1822
0.04150000 0.04152450 44284.19451596 0 1746.65688616 0 11093.97892425 0 -1868.93714813 0 -7142.81718217 0 1887
0.04250000 0.04250150 44223.44982958 0 2152.94327223 0 14218.54059502 0 -2364.71484702 0 -6742.93480192 0 1920
0.04350000 0.04349210 40681.80393791 0 59.12006809 0 13946.56257790 0 -489.89326335 0 -9822.51464796 0 2005
0.04450000 0.04448520 42877.18061402 0 799.49893385 0 18357.41769794 0 1823.70267824 0 -6796.12210236 0 2151
0.04550000 0.04548030 39561.59722606 0 453.08615755 0 16806.17635800 0 -768.51584842 0 -6099.88693844 0 2274
0.04650000 0.04648670 39062.01886506 0 798.71353691 0 17655.17397282 0 1108.59601863 0 -1057.46393172 0 2311
0.04750000 0.04749250 39794.58001051 0 275.62819058 0 17938.24640824 0 4808.14514116 0 -2163.65323049 0 2568
0.04850000 0.04851840 38834.63821263 0 1211.02715795 0 17648.03400064 0 -2214.19324894 0 558.18984338 0 2493
0.04950000 0.04949480 37463.65370875 0 2332.71678709 0 19430.06121051 0 -1919.01581453 0 2762.36735904 0 2644
0.05050000 0.05050630 34185.41786758 0 577.02289307 0 20832.13205479 0 1237.97231449 0 3560.89086284 0 2829
0.05150000 0.05149060 34689.39005761 0 366.57495927 0 18408.05657754 0 2455.09591022 0 1188.91521334 0 2784
0.05250000 0.05249300 34126.65040427 0 -157.28589788 0 19112.82675436 0 3507.56076296 0 4343.34393695 0 3055
0.05350000 0.05348950 34462.77832525 0 349.18088859 0 15986.06816908 0 2516.06028805 0 3008.33390828 0 3009
0.05450000 0.05448610 33754.93246811 0 226.26242295 0 16216.41465611 0 1122.53544123 0 4373.02425207 0 3336
0.05550000 0.05550870 32824.75886192 0 821.56364479 0 13992.25839984 0 857.79955282 0 3424.01210390 0 3349
0.05650000 0.05647670 31957.19731945 0 -154.36070620 0 13893.83662951 0 -963.11853627 0 2918.42518170 0 3324
0.05750000 0.05747970 31803.63299476 0 9.25654553 0 12782.41757573 0 2002.72924218 0 1297.61854361 0 3639
0.05850000 0.05849280 31955.76932501 0 586.58716042 0 14460.42088326 0 -469.24775919 0 1129.68639798 0 3846
0.05950000 0.05951020 30945.73787616 0 516.20570852 0 11306.31071225 0 -41.56803925 0 636.53071657 0 3787
0.06050000 0.06049470 31067.44694036 0 -946.27698959 0 12625.44803354 0 3006.07108633 0 3590.57117795 0 3930
0.06150000 0.06148310 33519.86261487 0 -965.28689090 0 10552.81297146 0 1526.49309791 0 115.97401886 0 4083
0.06250000 0.06249100 32776.31689684 0 587.67353464 0 9400.83887571 0 -179.65268457 0 1251.52727706 0 4303
0.06350000 0.06350600 32198.85791624 0 785.28270001 0 11336.84782403 0 -2186.88560150 0 63.18216303 0 4470
0.06450000 0.06451750 31720.69947177 0 748.17132155 0 12422.56297797 0 -1663.55859458 0 62.97499399 0 4479
0.06550000 0.06550280 31098.64312649 0 459.65712887 0 12705.74525911 0 1046.62106012 0 577.45238986 0 4636
0.06650000 0.06648880 31418.84341724 0 -137.77290314 0 13228.17153108 0 482.31061290 0 -1478.00719454 0 4653
0.06750000 0.06749660 29996.45111368 0 1262.08345131 0 13672.71718345 0 -204.52724918 0 728.49026285 0 5220
0.06850000 0.06852730 30285.01583539 0 -393.06974834 0 11824.23330946 0 1959.62577937 0 -580.56871310 0 5029
0.06950000 0.06949320 29674.71298277 0 -293.60554207 0 11084.20265466 0 2873.58615642 0 2674.73243898 0 5040
0.07050000 0.07048030 29613.41906777 0 792.16014090 0 9961.35964539 0 388.61660261 0 874.39614353 0 5475
0.07150000 0.07148790 28888.76681458 0 826.06622109 0 10357.99059216 0 -53.36074684 0 2947.43543789 0 5509
0.07250000 0.07249820 27647.94949579 0 455.08864513 0 11744.26562107 0 -451.57687728 0 2838.05106412 0 5916
0.07350000 0.07351270 27345.76390408 0 267.94008823 0 9814.52886370 0 881.53282034 0 1969.53386383 0 5721
0.07450000 0.07449140 26686.36001202 0 275.37774233 0 10847.57299211 0 1329.34198922 0 3439.10490663 0 6028
0.07550000 0.07549160 26570.36292556 0 553.73999303 0 11389.57377242 0 -244.30018958 0 3533.30860109 0 6183
0.07650000 0.07648840 26638.46727556 0 -53.01627064 0 10821.31986364 0 691.54694835 0 3524.68571161 0 6330
0.07750000 0.07749960 25994.99101375 0 -41.96425279 0 10213.36770955 0 166.40968386 0 2136.85087339 0 6583
0.07850000 0.07848650 26051.45171682 0 -37.40829146 0 8757.76904308 0 220.68226007 0 1551.88942972 0 6549
0.07950000 0.07947320 26013.44509569 0 705.75768989 0 9867.24382751 0 -967.51456222 0 -81.02264674 0 6828
0.08050000 0.08048110 25104.80125176 0 200.81116827 0 9140.79010442 0 637.55338028 0 824.79969987 0 7147
0.08150000 0.08149960 24863.03080924 0 514.16367647 0 9386.35022448 0 -285.40226327 0 -1459.63000461 0 7386
0.08250000 0.08250610 23993.71173515 0 473.49549341 0 9054.55022508 0 600.96816284 0 -1754.00556522 0 7227
0.08350000 0.08350160 23935.82303765 0 284.40815945 0 8744.34589539 0 -599.24028957 0 -3747.29905954 0 7798
0.08450000 0.08449610 22698.74047354 0 483.99784325 0 8233.65114693 0 693.10346228 0 -2002.30084384 0 7371
0.08550000 0.08548940 22011.87515003 0 647.93599828 0 9217.16583758 0 -231.07586265 0 -1674.55415174 0 8256
0.08650000 0.08650700 21887.09040550 0 503.58443462 0 8110.16258198 0 287.79690009 0 -2353.82913559 0 8037
0.08750000 0.08749060 21474.07047645 0 -231.34388622 0 8512.05513901 0 914.86989967 0 -3115.00509262 0 8155
0.08850000 0.08849210 20855.74888584 0 502.92975409 0 7943.71335365 0 106.15216328 0 -173.87919322 0 8718
0.08950000 0.08949900 20249.07094217 0 287.12354579 0 8364.66414411 0 1035.69250886 0 194.06224688 0 8571
0.09050000 0.09049190 20286.08895177 0 532.52768491 0 7643.49400043 0 781.25465725 0 108.63280931 0 8932
0.09150000 0.09150830 19634.04472334 0 295.13129920 0 7359.24621574 0 1029.47853615 0 1628.77045322 0 9285
0.09250000 0.09250820 19540.34631923 0 -16.59560210 0 7455.40516412 0 642.51071789 0 2384.52003139 0 9204
0.09350000 0.09350330 18779.00559361 0 408.99408321 0 7652.43544251 0 -191.26777162 0 1325.47541967 0 9349
0.09450000 0.09448040 18311.50218455 0 875.56160669 0 8023.10984427 0 -717.23656824 0 2791.11398548 0 9564
0.09550000 0.09549270 17656.60196725 0 116.15855968 0 7334.10252910 0 696.27690530 0 2211.30430635 0 10155
0.09650000 0.09649430 17619.03472902 0 -475.85058577 0 7217.53424487 0 665.72880895 0 2207.19607620 0 9913
0.09750000 0.09749140 18057.97824937 0 111.77351830 0 6740.89167142 0 703.85296501 0 1683.29787151 0 10476
0.09850000 0.09850240 18102.13623115 0 111.01009051 0 6157.42412962 0 122.77127237 0 1920.59759298 0 10575
0.09950000 0.09950330 17551.69929910 0 101.36574563 0 6076.40192226 0 -71.22968060 0 1584.00831995 0 10882
0.10050000 0.10051200 17493.59091014 0 423.43659924 0 6632.44098632 0 -584.24195417 0 736.12014697 0 10875
0.10150000 0.10150300 16875.59885672 0 359.55911276 0 6553.63766263 0 -36.90552758 0 1263.40160002 0 11118
0.10250000 0.10250800 16972.59263261 0 106.57704655 0 6979.56446447 0 -16.11480736 0 757.92342508 0 11575
0.10350000 0.10349800 16624.60137323 0 76.13077719 0 6069.66837926 0 803.65988994 0 71.99453638 0 11364
0.10450000 0.10450100 16977.64553600 0 177.23498014 0 6378.98295858 0 126.36981835 0 -625.32205871 0 12093
0.10550000 0.10551000 15913.89952722 0 165.62099155 0 5378.39824215 0 86.42145432 0 822.57312701 0 12067
0.10650000 0.10649700 15826.46232947 0 -90.73213014 0 5873.96723416 0 154.13332555 0 -357.09966696 0 12054
0.10750000 0.10749900 15559.86675292 0 455.32591190 0 5405.45324442 0 229.51825026 0 107.41681712 0 12807
0.10850000 0.10850100 15393.56032404 0 429.75163001 0 5533.32465384 0 408.61182008 0 -426.21679456 0 12736
0.10950000 0.10950300 15205.17490427 0 -72.64141786 0 5041.53435480 0 634.44584470 0 270.29627905 0 12933
0.11050000 0.11050200 14870.25528627 0 193.36252961 0 4726.70552004 0 189.12468150 0 472.33442408 0 13428
0.11150000 0.11150900 14623.10240319 0 73.73998497 0 5092.33800298 0 336.10814876 0 894.47374530 0 13453
0.11250000 0.11250000 14508.64315689 0 61.73725235 0 4335.68768986 0 380.36828706 0 1418.47081115 0 13668
0.11350000 0.11349100 14392.20668753 0 403.60834727 0 4648.68210100 0 -452.64787310 0 397.62834596 0 13791
0.11450000 0.11448600 13852.97401951 0 401.25764874 0 5144.72342963 0 -11.95429065 0 1343.21550439 0 14205
0.11550000 0.11549300 13890.65110346 0 -95.52217270 0 4188.91183103 0 213.74001020 0 30.11717157 0 14776
0.11650000 0.11649800 13748.62057999 0 -127.69785317 0 4986.93004449 0 674.25832956 0 1532.98498031 0 14553
0.11750000 0.11747300 13768.39281063 0 86.36971698 0 4166.53625668 0 122.63396521 0 556.12694065 0 14568
0.11850000 0.11849100 13545.62567868 0 163.24722542 0 3815.84279245 0 -35.50609303 0 857.30854243 0 16015
0.11950000 0.11950300 13666.67566853 0 13.35910764 0 3775.49645736 0 408.70628741 0 1115.74697538 0 15270
0.12050000 0.12050700 13572.09849860 0 -67.53018640 0 3389.69629916 0 451.79547027 0 1474.60197704 0 15999
0.12150000 0.12150000 13746.53351120 0 -10.00312299 0 4028.96546968 0 180.72587731 0 1109.44183072 0 15670
0.12250000 0.12250700 13648.11174087 0 235.99255734 0 3564.68054038 0 -420.66519158 0 905.67251705 0 16887
0.12350000 0.12352200 13465.21860739 0 273.84978828 0 4027.66929011 0 -572.45111396 0 416.44162342 0 16407
0.12450000 0.12449800 13128.32176632 0 235.41916265 0 4618.11203550 0 -425.89055275 0 1077.25703305 0 16306
0.12550000 0.12549900 13184.56277793 0 9.54341863 0 4914.05838999 0 55.36993501 0 739.35510359 0 17523
0.12650000 0.12650100 12789.77723936 0 160.34070751 0 5427.30155928 0 -206.16614741 0 300.97838719 0 17154
0.12750000 0.12750600 12859.85881243 0 445.97804063 0 5425.13759848 0 -272.80845080 0 567.66843106 0 18007
0.12850000 0.12850300 12664.55311193 0 123.30622105 0 5523.76807569 0 440.58681241 0 1146.70150091 0 17496
0.12950000 0.12949900 12653.12915645 0 -131.66108696 0 5485.59668597 0 466.17647269 0 1003.22870305 0 18405
0.13050000 0.13049000 12483.52735579 0 -7.20838410 0 5430.44314704 0 875.77580585 0 1526.16356073 0 18100
0.13150000 0.13148800 12393.45386063 0 60.36934353 0 4798.20410297 0 105.02426737 0 1603.78055059 0 19059
0.13250000 0.13249300 12458.59237603 0 107.68418162 0 4635.76424364 0 -100.08769061 0 1620.53202378 0 18957
0.13350000 0.13349100 11871.79650874 0 269.62731858 0 4350.16535653 0 318.17693248 0 1765.57232014 0 19468
0.13450000 0.13450700 11990.75942979 0 -13.29946141 0 4466.82151734 0 7.19251139 0 1290.63235544 0 19953
0.13550000 0.13551000 11640.13187300 0 161.45564163 0 4181.64004398 0 140.22356129 0 1285.56846748 0 19956
0.13650000 0.13649900 11739.43240913 0 199.51938254 0 4459.78040632 0 70.44944640 0 913.56383399 0 19723
0.13750000 0.13749600 11750.19729026 0 -84.02198429 0 4177.64165956 0 235.30602155 0 1369.36977171 0 20946
0.13850000 0.13851100 11650.67706268 0 -123.40178684 0 3675.58078516 0 224.23796622 0 782.86938942 0 20955
0.13950000 0.13949800 11583.01209557 0 52.51493475 0 3705.46980715 0 299.94364045 0 1102.86207174 0 20506
0.14050000 0.14048300 11679.56648856 0 168.25509206 0 3479.51714916 0 82.89628529 0 644.24188652 0 21447
0.14150000 0.14148400 11454.16305920 0 57.33320767 0 3246.23778125 0 244.87248581 0 1017.13407349 0 21771
0.14250000 0.14249400 11320.70050233 0 62.90513211 0 3507.73651612 0 1.58876464 0 937.56292816 0 22470
0.14350000 0.14350900 11107.48994853 0 304.62526528 0 3359.57660114 0 96.67588236 0 1169.47251987 0 22519
0.14450000 0.14449900 10905.68138106 0 101.64134855 0 3034.92755850 0 36.92013706 0 1248.87999506 0 22218
0.14550000 0.14550500 10611.53649648 0 73.34508958 0 2949.83007471 0 556.48064389 0 1439.01196187 0 23559
0.14650000 0.14650700 10676.01593753 0 185.98309375 0 2808.30484157 0 285.97126413 0 1411.14410123 0 23044
0.14750000 0.14750500 10291.17143715 0 306.49483954 0 2865.75415617 0 -159.38175433 0 1436.09006557 0 23649
0.14850000 0.14849900 10184.98357400 0 62.69510708 0 2881.97836988 0 139.66993883 0 1500.32784602 0 23640
0.14950000 0.14949500 9870.96759762 0 -29.34891056 0 2942.39351907 0 18.36697428 0 1310.54738553 0 24457
0.15050000 0.15050000 9749.63200889 0 197.93980100 0 2902.12407599 0 -354.08769716 0 1266.49924948 0 24591
0.15150000 0.15149900 9662.41450259 0 62.16356362 0 2431.35824887 0 177.16358042 0 642.47227188 0 25020
0.15250000 0.15250500 9710.75760652 0 3.67902994 0 2899.83928489 0 296.31433767 0 1100.57728064 0 25297
0.15350000 0.15350100 9686.02034907 0 96.37622322 0 2448.06578377 0 158.60953887 0 761.26822743 0 25452
0.15450000 0.15450400 9607.29391738 0 61.14430513 0 2289.99778432 0 19.45060236 0 997.18828659 0 26061
0.15550000 0.15549900 9365.47953657 0 167.85085979 0 2450.01005312 0 -69.10229842 0 631.32842300 0 26128
0.15650000 0.15649500 9323.91391392 0 85.10154808 0 2520.50903994 0 49.73210313 0 1104.25711246 0 26331
0.15750000 0.15749700 9182.56443395 0 68.33469649 0 2198.66106331 0 353.37479840 0 966.90821381 0 27345
0.15850000 0.15849900 9040.30323445 0 -11.91749233 0 2328.76234096 0 65.20387361 0 1158.30120956 0 26980
0.15950000 0.15949700 9181.98225160 0 242.66019289 0 2340.39500333 0 -332.52717810 0 761.06501284 0 27777
0.16050000 0.16050000 8945.38554277 0 -23.74524070 0 2389.37521247 0 57.59859494 0 730.76297092 0 28224
0.16150000 0.16150500 8887.43093783 0 -6.21291819 0 2449.14227188 0 37.33085023 0 675.85768333 0 28075
0.16250000 0.16249700 9018.57574988 0 103.61395810 0 2471.66064567 0 -133.16157957 0 626.33813167 0 28590
0.16350000 0.16349900 8639.58602668 0 284.04347164 0 2535.57987352 0 -91.87562414 0 208.65744847 0 29163
0.16450000 0.16449100 8657.09543537 0 202.19522442 0 2556.90092890 0 -42.28686968 0 583.25993338 0 28996
0.16550000 0.16550500 8430.58256417 0 -16.11337937 0 2687.49651232 0 66.56519169 0 532.10368041 0 30777
0.16650000 0.16650700 8364.36756065 0 -31.86635490 0 2306.04624486 0 415.55406995 0 396.76495855 0 29211
0.16750000 0.16749900 8358.41392231 0 15.99320814 0 2391.67098814 0 117.81283631 0 551.30141791 0 30922
0.16850000 0.16850800 8272.04222811 0 78.99588326 0 2132.23735291 0 100.06187686 0 445.34972308 0 30867
0.16950000 0.16949900 8190.99805160 0 119.31552584 0 2176.08776665 0 -83.46462707 0 472.10045269 0 30852
0.17050000 0.17049200 7994.83555444 0 160.04632097 0 2224.48579345 0 -30.03313959 0 337.48231879 0 31257
0.17150000 0.17149500 8093.98230656 0 45.67121650 0 2201.76969735 0 88.62100513 0 409.69489894 0 32608
0.17250000 0.17250900 8009.07156051 0 16.33977141 0 2304.75006530 0 -194.91464971 0 201.83493044 0 32361
0.17350000 0.17350400 7844.55561696 0 91.81685668 0 2254.59450689 0 -161.70828680 0 39.99405985 0 32508
0.17450000 0.17449800 7840.98563087 0 128.70953231 0 2637.71442939 0 -90.95270036 0 76.06124485 0 32791
0.17550000 0.17549800 7756.21768426 0 101.17659129 0 2384.54200053 0 15.64620549 0 153.47534965 0 33633
0.17650000 0.17650100 7799.48591566 0 -7.47005858 0 2561.90989400 0 379.61584384 0 132.92650972 0 33984
0.17750000 0.17750300 7745.94710890 0 -28.73311542 0 2170.32086605 0 195.34194959 0 89.87082980 0 34069
0.17850000 0.17849800 7631.19127914 0 167.19068697 0 2246.53183062 0 -42.25567350 0 245.66996578 0 34536
