### header ###
fiducial parameters:
Omega_m = 0.31
Omega_nu = 0
Omega_de = 0.69
Omega_k = 0
H_0 = 100
w_de = -1
zeff = 0
beta = 0
fgrowth = 0
b_1 = 2
gamma = 0.55
Lx = 3500 Ly = 3500 Lz = 3500
nx = 700 ny = 700 nz = 700
xoffset = -983.599254 yoffset = -42.9823471 zoffset = 800.977702
bins = 400 dk = 0.001
kx_ny = 0.628318531 ky_ny = 0.628318531 kz_ny = 0.628318531
############################
A(data) = 9.05313774 (not used)
A(ran) = 9.05125928 (used)
Ngal = 503402
weighted Ngal = 0
Nran = 25229228
weighted Nran = 0
SN(data) = 6726.73785
SN(ran) = 134.359708
SN(data+ran) = 6861.09756
############################
13 columns: k_central k_mean P_0(k) sigma^{lin}_{P_0(k)} P^img_1(k) sigma^{lin}_{P_1(k)} P_2(k) sigma^{lin}_{P_2(k)} P^img_3(k) sigma^{lin}_{P_3(k)} P_4(k) sigma^{lin}_{P_4(k)} N_modes
### header ###
0.00050000 0 0 0 0 0 0 0 0 0 0 0 0
0.00150000 0.00179520 75080.76189646 0 -81259.36428202 0 -750.88231406 0 -122750.40168199 0 57409.77013913 0 3
0.00250000 0.00253879 116239.84551303 0 -47353.39394091 0 12361.15921724 0 -153595.08149041 0 80264.93092623 0 6
0.00350000 0.00331552 93585.26302127 0 22167.19700633 0 -8909.10349953 0 -83967.72049767 0 -69310.01669086 0 7
0.00450000 0.00420575 78210.81585352 0 19564.29268745 0 -5029.74790842 0 -37972.23941927 0 38188.74534485 0 24
0.00550000 0.00557378 83077.53073568 0 -1907.06459956 0 29394.16699905 0 4344.66208566 0 -61083.01121033 0 45
0.00650000 0.00659388 73730.86777194 0 15218.46623710 0 52425.84986753 0 -27540.63022167 0 12457.05453587 0 40
0.00750000 0.00754703 57636.38187149 0 27676.83892168 0 30099.26671304 0 525.32729759 0 5567.86015003 0 57
0.00850000 0.00846663 53995.87482658 0 -9529.05080688 0 66174.36060179 0 17212.93508069 0 -3914.51720795 0 75
0.00950000 0.00948925 55176.49668762 0 -3902.51107012 0 35403.16758394 0 31553.51427709 0 -29803.01279052 0 112
0.01050000 0.01054430 63822.45376639 0 -5012.34834545 0 17204.91634271 0 15546.90495728 0 -4620.30895002 0 105
0.01150000 0.01145670 72869.23789866 0 -8888.56234881 0 10802.50329081 0 2137.19139514 0 134.01398241 0 144
0.01250000 0.01249090 80008.77069363 0 -148.26646533 0 4521.78831854 0 165.89670432 0 -36687.70350161 0 169
0.01350000 0.01339930 70321.25644269 0 3783.15270445 0 6708.79475034 0 -20549.38915655 0 -6133.49973053 0 180
0.01450000 0.01448870 69661.74270491 0 5322.56365972 0 9682.17574866 0 -7363.11278529 0 -15426.40419606 0 267
0.01550000 0.01550050 68539.55877000 0 -2084.69612278 0 21125.09060554 0 1406.89307165 0 -17047.50741762 0 238
0.01650000 0.01653350 64251.84070860 0 2049.24890706 0 15936.85728392 0 4358.50264712 0 -15571.29070841 0 315
0.01750000 0.01747870 72376.79950984 0 118.58285484 0 22959.95360952 0 6673.67707180 0 -20515.99605590 0 297
0.01850000 0.01844180 67414.07946332 0 671.94168320 0 21218.89885538 0 5916.47753005 0 -376.25895846 0 388
0.01950000 0.01947590 74845.03296887 0 -996.41826805 0 26365.50064692 0 1892.04868885 0 18303.15390939 0 399
0.02050000 0.02045430 72877.14679092 0 -1638.76641427 0 19115.68274323 0 -4301.04234794 0 -4256.80747416 0 462
0.02150000 0.02154770 70126.17043365 0 847.33784589 0 25906.67505019 0 5483.09220342 0 5566.43215560 0 571
0.02250000 0.02255340 76847.74024190 0 -241.71551965 0 22935.23832122 0 3404.99780876 0 5515.62850741 0 510
0.02350000 0.02348930 74556.24855571 0 1941.42434260 0 29346.16441686 0 -5111.78069645 0 -3323.63507965 0 555
0.02450000 0.02439640 72385.58716791 0 1194.71506766 0 28669.40490013 0 -543.18272032 0 -1772.95395292 0 592
0.02550000 0.02547300 69186.76978649 0 3375.09780220 0 26634.29313798 0 1227.95438430 0 -8208.33170713 0 837
0.02650000 0.02652900 70823.58094684 0 -3577.60938231 0 21528.55395645 0 4719.49964043 0 -2140.09132231 0 723
0.02750000 0.02749970 69928.99735581 0 -2343.64643681 0 15935.64898093 0 8683.94173076 0 -13443.90853658 0 826
0.02850000 0.02848090 72697.43918349 0 4390.12723158 0 13820.67937612 0 2593.80909278 0 -7697.07674548 0 831
0.02950000 0.02946900 66026.28856339 0 3976.52512017 0 8512.88996652 0 -11174.05645837 0 -14442.18649277 0 996
0.03050000 0.03053250 59700.49290525 0 3780.42853045 0 21100.04578005 0 265.47295323 0 -8981.92023118 0 1041
0.03150000 0.03150510 55430.78954288 0 809.78598607 0 15885.88886714 0 3717.04754666 0 -8067.83902382 0 1036
0.03250000 0.03246190 57854.53548295 0 2451.92136874 0 20644.84509228 0 -1250.31897407 0 -9554.37024668 0 1059
0.03350000 0.03345080 53826.60256310 0 1267.03749354 0 15458.47914800 0 5713.86708878 0 -4015.26770767 0 1302
0.03450000 0.03451200 53616.68738107 0 -3141.55480455 0 14011.81093904 0 7513.37075363 0 1600.63896284 0 1339
0.03550000 0.03553350 52103.34281654 0 34.04745164 0 8212.45092185 0 5707.97935788 0 5385.46132232 0 1365
0.03650000 0.03647120 55075.54846560 0 3082.86423324 0 13402.16716077 0 -2157.44694698 0 3596.00854138 0 1308
0.03750000 0.03744890 49131.02732175 0 2598.01618408 0 12577.22575991 0 -4747.63113081 0 2227.30882860 0 1579
0.03850000 0.03847530 50360.53053078 0 132.65848615 0 12962.01533744 0 786.13839822 0 7105.38175881 0 1662
0.03950000 0.03950240 50398.53715191 0 -2225.08994494 0 12299.86530223 0 3984.91733362 0 2733.84042404 0 1683
0.04050000 0.04050350 48779.85053633 0 1996.23735978 0 13205.87284874 0 -1404.20185136 0 3006.35668522 0 1822
0.04150000 0.04152450 46517.57781320 0 3399.20893901 0 12641.48550951 0 -2339.68100611 0 -992.87025111 0 1887
0.04250000 0.04250150 45328.93721417 0 2321.22692417 0 19542.10385084 0 -3243.64542212 0 2718.70368303 0 1920
0.04350000 0.04349210 43752.87074020 0 -273.18632010 0 15345.77743331 0 3311.96946357 0 -378.88866513 0 2005
0.04450000 0.04448520 42140.44533098 0 -195.02559390 0 18838.76166846 0 6418.74711133 0 3776.12257800 0 2151
0.04550000 0.04548030 43301.07526993 0 416.75028991 0 13607.79835949 0 -3630.23646955 0 -548.10490729 0 2274
0.04650000 0.04648670 42651.44764747 0 -57.82344914 0 15765.05856874 0 4751.46474664 0 1579.49366062 0 2311
0.04750000 0.04749250 41202.80221544 0 -439.89478434 0 14377.48736027 0 155.02966667 0 5430.55299276 0 2568
0.04850000 0.04851840 41237.07408189 0 1327.51855017 0 12072.92403270 0 459.63406126 0 -1559.27106249 0 2493
0.04950000 0.04949480 40530.87591064 0 2329.00400156 0 12794.39075985 0 -872.54963688 0 1506.64397526 0 2644
0.05050000 0.05050630 38884.72786360 0 280.82279496 0 13097.56496309 0 504.46649580 0 2594.78671974 0 2829
0.05150000 0.05149060 36538.09362305 0 735.27653179 0 15183.42545056 0 881.25271374 0 3336.13552325 0 2784
0.05250000 0.05249300 36301.59577537 0 528.30301830 0 11805.55953607 0 342.24962329 0 1698.21492108 0 3055
0.05350000 0.05348950 34740.13878293 0 196.86441135 0 9373.67402772 0 2705.39038106 0 948.51344857 0 3009
0.05450000 0.05448610 36696.93054257 0 33.48515137 0 11894.64441971 0 1221.35265617 0 1707.31014717 0 3336
0.05550000 0.05550870 34997.83685569 0 518.97821464 0 8626.70112304 0 -650.18893412 0 -783.57130360 0 3349
0.05650000 0.05647670 34540.87863631 0 1020.76886855 0 10037.02138133 0 -816.32510213 0 1377.87183089 0 3324
0.05750000 0.05747970 33342.79130486 0 437.11239210 0 9877.04206626 0 -352.26755348 0 -1115.15380846 0 3639
0.05850000 0.05849280 33533.48348487 0 536.49860790 0 10552.02208224 0 517.89843115 0 -1229.09677984 0 3846
0.05950000 0.05951020 32922.96094080 0 -513.52217743 0 9059.52623646 0 155.09227873 0 -1879.84482871 0 3787
0.06050000 0.06049470 32205.88804269 0 232.59063521 0 9657.19683061 0 1173.30613570 0 -3676.32773610 0 3930
0.06150000 0.06148310 32102.19367752 0 1479.56700384 0 9995.76332672 0 -771.82879551 0 -3151.47387359 0 4083
0.06250000 0.06249100 31440.59287095 0 -178.74316196 0 9778.18091302 0 600.47605399 0 -1364.74526665 0 4303
0.06350000 0.06350600 31598.44117894 0 -775.24719450 0 8250.22686696 0 527.61758097 0 -2776.63631882 0 4470
0.06450000 0.06451750 32481.60081448 0 -142.14036920 0 7697.04379176 0 2844.31227050 0 -3647.32846448 0 4479
0.06550000 0.06550280 31177.07297472 0 755.71223062 0 7568.44740055 0 -1543.72789229 0 -850.86718907 0 4636
0.06650000 0.06648880 31272.41906473 0 1539.05944894 0 9357.48276773 0 -2116.97978159 0 -4631.22761517 0 4653
0.06750000 0.06749660 29578.70781841 0 1130.48827178 0 10992.92085651 0 -2352.48901774 0 -3211.46062445 0 5220
0.06850000 0.06852730 28200.25380518 0 31.55340443 0 10690.86707966 0 1035.12790183 0 -2123.62544801 0 5029
0.06950000 0.06949320 28592.29320061 0 -323.56816070 0 11003.57589191 0 2778.41581958 0 -2092.87962935 0 5040
0.07050000 0.07048030 29631.32392108 0 -10.36353780 0 9418.72175987 0 2205.88891207 0 -965.57798208 0 5475
0.07150000 0.07148790 28488.70868117 0 167.71355263 0 9477.32445459 0 120.23822993 0 312.47923468 0 5509
0.07250000 0.07249820 28571.31266698 0 323.71645243 0 9300.91221894 0 -680.98528181 0 575.44990228 0 5916
0.07350000 0.07351270 27644.98366119 0 388.29914846 0 9290.74050473 0 1468.47258554 0 2031.46488405 0 5721
0.07450000 0.07449140 27609.39364603 0 302.64035302 0 9337.13933931 0 931.74110470 0 913.48254815 0 6028
0.07550000 0.07549160 26948.01253091 0 559.70241902 0 8770.75280787 0 -368.33798317 0 1019.12337958 0 6183
0.07650000 0.07648840 26461.17627410 0 541.13629445 0 9411.50489569 0 41.29463324 0 972.81242158 0 6330
0.07750000 0.07749960 25513.09781461 0 432.98768510 0 8697.01337213 0 133.71410358 0 1602.14384928 0 6583
0.07850000 0.07848650 25013.84899078 0 280.94801908 0 9544.47314678 0 -54.02377564 0 2146.64911214 0 6549
0.07950000 0.07947320 25119.30088756 0 -191.34686054 0 7951.79799907 0 1157.64213520 0 471.98841005 0 6828
0.08050000 0.08048110 24920.48012384 0 722.49158776 0 8452.31004874 0 1079.42099385 0 795.72353625 0 7147
0.08150000 0.08149960 23958.56110289 0 420.47845384 0 7134.91927449 0 -357.47204397 0 1206.40265289 0 7386
0.08250000 0.08250610 23628.47469682 0 206.32432525 0 7928.42282862 0 228.51535878 0 1153.30322903 0 7227
0.08350000 0.08350160 23233.13992962 0 299.74262277 0 7788.74300367 0 156.01168746 0 602.46426163 0 7798
0.08450000 0.08449610 22219.70326327 0 438.16141878 0 8373.99004623 0 -941.38006714 0 673.71898705 0 7371
0.08550000 0.08548940 22608.33744119 0 538.03425115 0 7753.98781603 0 914.02408758 0 -63.79433326 0 8256
0.08650000 0.08650700 21592.26447742 0 449.88525310 0 8449.93738106 0 -347.40688012 0 -646.87488857 0 8037
0.08750000 0.08749060 20870.46821310 0 241.57711404 0 7854.17810254 0 -121.47728972 0 1244.99145637 0 8155
0.08850000 0.08849210 20842.01817011 0 -105.06007708 0 8100.15563635 0 1277.80237467 0 128.92263302 0 8718
0.08950000 0.08949900 20761.17171592 0 392.26567762 0 7215.42520693 0 -137.08307199 0 334.57470243 0 8571
0.09050000 0.09049190 20113.74100797 0 492.92280847 0 6670.03019370 0 709.40456799 0 937.68815229 0 8932
0.09150000 0.09150830 20382.97288194 0 -151.47835435 0 7617.65828572 0 895.42940311 0 2196.03575046 0 9285
0.09250000 0.09250820 19785.19244206 0 -64.94441801 0 6948.66486180 0 -35.43227670 0 762.75334165 0 9204
0.09350000 0.09350330 19557.48225245 0 986.92540043 0 6416.74791912 0 -173.93082071 0 1299.03555347 0 9349
0.09450000 0.09448040 19561.32685286 0 -245.10645721 0 7498.19007432 0 134.52915886 0 3074.82352611 0 9564
0.09550000 0.09549270 19390.40690349 0 -161.78517881 0 7393.85860395 0 805.95127178 0 1239.66393867 0 10155
0.09650000 0.09649430 19418.96679220 0 23.84904491 0 6593.02833990 0 507.17858677 0 1683.26491779 0 9913
0.09750000 0.09749140 18768.35055821 0 835.38113864 0 6725.02994861 0 -72.70479885 0 2621.70990713 0 10476
0.09850000 0.09850240 18594.46477425 0 350.80550687 0 7698.69147765 0 -764.74045083 0 1919.10369111 0 10575
0.09950000 0.09950330 18183.97129688 0 217.83615732 0 7237.19662979 0 172.25018111 0 795.99924902 0 10882
0.10050000 0.10051200 17623.20886660 0 109.48795828 0 7569.72161097 0 1241.39950114 0 2320.93034071 0 10875
0.10150000 0.10150300 17317.39836594 0 204.32403459 0 6835.52376421 0 -206.07277854 0 1638.15127820 0 11118
0.10250000 0.10250800 17176.68599117 0 579.16598318 0 6388.41870643 0 250.22966186 0 1258.94186355 0 11575
0.10350000 0.10349800 16367.23283765 0 335.81705759 0 6922.62044021 0 -294.29976706 0 1295.75116627 0 11364
0.10450000 0.10450100 15959.59534916 0 202.22598122 0 6751.15126221 0 -252.85387625 0 1456.00509566 0 12093
0.10550000 0.10551000 15772.41823237 0 192.14763588 0 6439.17841633 0 185.87654339 0 502.07185898 0 12067
0.10650000 0.10649700 15569.09379389 0 112.89943699 0 7176.90231089 0 257.78704780 0 583.83113116 0 12054
0.10750000 0.10749900 15375.65547074 0 130.46596546 0 6067.16389672 0 286.81268239 0 580.33803707 0 12807
0.10850000 0.10850100 15683.44319446 0 -190.61199263 0 5966.63308845 0 1277.87926668 0 -206.27159930 0 12736
0.10950000 0.10950300 15808.66732189 0 -132.90783595 0 5569.93623425 0 333.45207911 0 51.69713332 0 12933
0.11050000 0.11050200 15408.82887993 0 189.33119147 0 4476.41104920 0 478.04090954 0 1777.15005965 0 13428
0.11150000 0.11150900 15596.33553389 0 -333.71900422 0 4398.28876901 0 335.32494873 0 685.71523876 0 13453
0.11250000 0.11250000 15662.57250656 0 223.01318638 0 4073.72760294 0 99.36743218 0 553.71912234 0 13668
0.11350000 0.11349100 15146.84682387 0 630.30026700 0 4648.42945583 0 -771.67830687 0 112.42710037 0 13791
0.11450000 0.11448600 14804.56754223 0 360.40382639 0 4885.60834700 0 -309.81327891 0 559.82544624 0 14205
0.11550000 0.11549300 14238.09313421 0 74.08874515 0 4812.35223246 0 524.14206221 0 925.73474041 0 14776
0.11650000 0.11649800 14446.58032181 0 -75.45390783 0 4865.94596208 0 1075.98501955 0 997.90557918 0 14553
0.11750000 0.11747300 14385.83563543 0 -126.04687191 0 4344.10187246 0 172.11507086 0 559.89684596 0 14568
0.11850000 0.11849100 14284.99725913 0 437.32549281 0 4595.31904740 0 -106.80266967 0 854.01097374 0 16015
0.11950000 0.11950300 13616.14663466 0 140.15655539 0 4352.24144074 0 16.06120265 0 2391.42932754 0 15270
0.12050000 0.12050700 13892.95786371 0 -250.64927253 0 3986.88357212 0 599.31498467 0 1515.10209614 0 15999
0.12150000 0.12150000 13815.84616418 0 280.39659354 0 3780.86791335 0 211.01034392 0 1229.51419360 0 15670
0.12250000 0.12250700 13657.11909038 0 360.12262134 0 3865.63585996 0 -158.02625807 0 1296.52008635 0 16887
0.12350000 0.12352200 13628.33951022 0 1.71914053 0 3857.90272087 0 80.55349565 0 1373.09354181 0 16407
0.12450000 0.12449800 13146.00692817 0 267.49081921 0 4271.62566257 0 -748.14166320 0 627.65847730 0 16306
0.12550000 0.12549900 12878.53258582 0 218.36341680 0 4340.47696351 0 -8.26663782 0 872.97803521 0 17523
0.12650000 0.12650100 12639.61813217 0 119.31882121 0 4813.92302634 0 -120.25141142 0 295.24224338 0 17154
0.12750000 0.12750600 12688.82901734 0 58.39398784 0 4393.77410967 0 -4.45796795 0 170.31030559 0 18007
0.12850000 0.12850300 12772.75115186 0 -5.26989263 0 4386.44739976 0 569.22604345 0 -58.97012867 0 17496
0.12950000 0.12949900 12890.06638703 0 -211.10261433 0 3974.33919023 0 -53.29714616 0 -155.39545294 0 18405
0.13050000 0.13049000 12565.91165015 0 118.12699508 0 3929.57705696 0 -64.50108066 0 -23.73667274 0 18100
0.13150000 0.13148800 12510.21986717 0 371.97387669 0 4028.53707134 0 -62.23067935 0 -27.07016098 0 19059
0.13250000 0.13249300 12289.75949546 0 219.96496748 0 3934.01482428 0 13.07966011 0 -109.82968834 0 18957
0.13350000 0.13349100 12280.20291731 0 -25.21761281 0 4083.60273369 0 490.68525104 0 -703.71126402 0 19468
0.13450000 0.13450700 12182.44022134 0 150.02729232 0 3577.43362915 0 290.66277507 0 -376.45777922 0 19953
0.13550000 0.13551000 11984.16868625 0 -224.30387365 0 3070.14409820 0 189.40698502 0 -116.78577877 0 19956
0.13650000 0.13649900 12001.41446520 0 72.67645865 0 3218.65551949 0 361.04752235 0 -611.19699683 0 19723
0.13750000 0.13749600 11709.77406316 0 299.86015770 0 3073.39553168 0 -384.25353038 0 -472.03124988 0 20946
0.13850000 0.13851100 11402.20603089 0 364.23304840 0 3566.41610285 0 -252.98459266 0 -227.72446956 0 20955
0.13950000 0.13949800 11109.02778869 0 94.64769088 0 3171.18019680 0 365.58524928 0 -185.00986062 0 20506
0.14050000 0.14048300 11329.04877749 0 -196.17348173 0 2978.79639261 0 726.84257696 0 -637.94882489 0 21447
0.14150000 0.14148400 11340.58257870 0 3.24862143 0 2629.97030572 0 226.66116293 0 -271.58586787 0 21771
0.14250000 0.14249400 11066.40764707 0 283.71942675 0 2692.02215623 0 -319.40830306 0 665.70244598 0 22470
0.14350000 0.14350900 10933.48333427 0 214.66930504 0 2648.83081684 0 272.34819721 0 193.22632091 0 22519
0.14450000 0.14449900 10906.59310059 0 -15.86655602 0 2578.40872202 0 -200.27402267 0 398.37200152 0 22218
0.14550000 0.14550500 10733.37737555 0 150.85992292 0 2958.71659393 0 192.26736772 0 -101.76536438 0 23559
0.14650000 0.14650700 10567.55426787 0 118.93106580 0 3103.87772059 0 -109.78893557 0 503.23182984 0 23044
0.14750000 0.14750500 10519.92516115 0 189.59591967 0 3047.94427701 0 -341.09624317 0 -201.43728891 0 23649
0.14850000 0.14849900 10172.14260865 0 114.57897814 0 3448.95806824 0 -158.10534699 0 329.92383440 0 23640
0.14950000 0.14949500 10107.60824474 0 131.73688051 0 3020.34004611 0 337.38455609 0 142.31392545 0 24457
0.15050000 0.15050000 10126.53466330 0 -138.51875562 0 3158.50400004 0 312.63851098 0 510.92762139 0 24591
0.15150000 0.15149900 10327.66218726 0 17.39363130 0 2699.46969644 0 590.41198859 0 292.17315380 0 25020
0.15250000 0.15250500 9974.71688565 0 263.25956186 0 2560.71257559 0 -35.77971873 0 615.74900371 0 25297
0.15350000 0.15350100 9757.89240747 0 205.03144106 0 2783.21607780 0 -286.06353454 0 920.32813378 0 25452
0.15450000 0.15450400 9560.31290045 0 195.86811061 0 2815.47776747 0 -31.04174304 0 409.02484001 0 26061
0.15550000 0.15549900 9580.45860656 0 146.21674409 0 2939.79017537 0 -35.41525061 0 674.13859772 0 26128
0.15650000 0.15649500 9217.75900450 0 -125.62726124 0 2755.13951028 0 397.27244581 0 184.27279580 0 26331
0.15750000 0.15749700 9204.94000829 0 95.69034651 0 2615.27294760 0 120.57875168 0 223.69313142 0 27345
0.15850000 0.15849900 9181.00462464 0 251.74113905 0 2258.41713815 0 -207.25362009 0 -316.91150972 0 26980
0.15950000 0.15949700 8960.78591353 0 81.33537752 0 2658.48625614 0 -146.10579990 0 6.07006382 0 27777
0.16050000 0.16050000 8845.74448488 0 -27.46824189 0 2432.72033587 0 304.39019543 0 -585.22727033 0 28224
0.16150000 0.16150500 8741.00658532 0 82.20667382 0 2366.68108551 0 -31.57713111 0 -383.89433486 0 28075
0.16250000 0.16249700 8650.44976896 0 33.25766087 0 2117.00175074 0 136.79857156 0 -96.24089329 0 28590
0.16350000 0.16349900 8781.90214904 0 6.58305435 0 2227.31981317 0 100.82376682 0 -423.59477708 0 29163
0.16450000 0.16449100 8685.89698468 0 50.73104016 0 1800.43735352 0 409.32581730 0 -74.80043560 0 28996
0.16550000 0.16550500 8790.92048313 0 57.37736565 0 2078.43491641 0 -209.97559718 0 -250.32852301 0 30777
0.16650000 0.16650700 8479.99117164 0 149.51541123 0 2082.49920826 0 -278.15024845 0 184.35627855 0 29211
0.16750000 0.16749900 8302.38161758 0 218.25247262 0 2427.73333992 0 -194.72901044 0 -264.33055768 0 30922
0.16850000 0.16850800 8130.91243958 0 153.86749889 0 2453.88760724 0 40.65664927 0 -110.90134324 0 30867
0.16950000 0.16949900 8200.17016971 0 -39.10716546 0 2423.26261888 0 364.69220353 0 -246.29938179 0 30852
0.17050000 0.17049200 8151.32177544 0 -37.25637482 0 2393.17587458 0 74.30547076 0 -167.04129679 0 31257
0.17150000 0.17149500 8070.28858350 0 179.45276535 0 2332.92549397 0 -230.24762588 0 -316.72367352 0 32608
0.17250000 0.17250900 8124.80501723 0 11.23403222 0 2201.11062299 0 143.95611905 0 -91.28212769 0 32361
0.17350000 0.17350400 8006.86366142 0 -65.10215647 0 2340.62567935 0 256.16352797 0 3.36692528 0 32508
0.17450000 0.17449800 7960.04741308 0 74.91236840 0 2110.13639288 0 -107.43647951 0 -73.90475356 0 32791
0.17550000 0.17549800 8025.66924968 0 194.21053861 0 2277.42044872 0 -69.59045283 0 -133.88546291 0 33633
0.17650000 0.17650100 7887.05492828 0 68.82812349 0 2450.94374178 0 100.14404146 0 197.34553562 0 33984
0.17750000 0.17750300 7825.66215212 0 -77.48297807 0 2388.90287585 0 135.14868875 0 411.48867964 0 34069
0.17850000 0.17849800 7931.00420317 0 -11.99449418 0 2305.54095453 0 307.07043114 0 353.73399392 0 34536
