### header ###
fiducial parameters:
Omega_m = 0.31
Omega_nu = 0
Omega_de = 0.69
Omega_k = 0
H_0 = 100
w_de = -1
zeff = 0
beta = 0
fgrowth = 0
b_1 = 2
gamma = 0.55
Lx = 3500 Ly = 3500 Lz = 3500
nx = 700 ny = 700 nz = 700
xoffset = -983.599254 yoffset = -42.9823471 zoffset = 800.977702
bins = 400 dk = 0.001
kx_ny = 0.628318531 ky_ny = 0.628318531 kz_ny = 0.628318531
############################
A(data) = 9.08039376 (not used)
A(ran) = 9.07961034 (used)
Ngal = 504424
weighted Ngal = 0
Nran = 25229228
weighted Nran = 0
SN(data) = 6734.6684
SN(ran) = 134.78056
SN(data+ran) = 6869.44896
############################
13 columns: k_central k_mean P_0(k) sigma^{lin}_{P_0(k)} P^img_1(k) sigma^{lin}_{P_1(k)} P_2(k) sigma^{lin}_{P_2(k)} P^img_3(k) sigma^{lin}_{P_3(k)} P_4(k) sigma^{lin}_{P_4(k)} N_modes
### header ###
0.00050000 0 0 0 0 0 0 0 0 0 0 0 0
0.00150000 0.00179520 7957.45505395 0 -12999.03334704 0 3218.96308753 0 -18828.21647878 0 36207.12845117 0 3
0.00250000 0.00253879 14656.93488674 0 -6991.61454059 0 -5320.30083777 0 -12579.31282870 0 -9308.56846603 0 6
0.00350000 0.00331552 24424.74636325 0 -13314.18073439 0 -21803.38796243 0 8929.24920565 0 34164.43733395 0 7
0.00450000 0.00420575 38048.03297008 0 -11901.67454616 0 -28642.49269730 0 1247.14443260 0 1054.78040064 0 24
0.00550000 0.00557378 80576.12386746 0 -15832.94322730 0 -35944.48732075 0 -9953.11023138 0 -8066.98222716 0 45
0.00650000 0.00659388 77593.37302872 0 -12656.53437395 0 -19428.30367890 0 -12679.16259347 0 -2358.83810069 0 40
0.00750000 0.00754703 59384.57659781 0 22245.73670028 0 -29620.11965704 0 -23353.09146221 0 14835.98341981 0 57
0.00850000 0.00846663 74880.62298403 0 5167.36263372 0 24333.57441082 0 -17125.60772867 0 7074.91055447 0 75
0.00950000 0.00948925 63164.91725168 0 1839.52046276 0 8382.38225969 0 7057.68674467 0 -12438.92999111 0 112
0.01050000 0.01054430 49302.16696257 0 2171.03486327 0 14197.56006139 0 4384.73380644 0 14942.97315676 0 105
0.01150000 0.01145670 59082.61069754 0 -594.36753318 0 24885.21964586 0 -2659.85932771 0 4191.09776098 0 144
0.01250000 0.01249090 59888.21925066 0 -2058.55284003 0 10914.41411627 0 3028.11712350 0 -6398.19497603 0 169
0.01350000 0.01339930 63023.32611110 0 -5534.45606481 0 17634.30328491 0 -8276.86445547 0 -18976.17867145 0 180
0.01450000 0.01448870 71403.89591631 0 -369.00694364 0 18328.52827205 0 5027.10062642 0 2052.89578515 0 267
0.01550000 0.01550050 72296.39243855 0 -4696.68468318 0 12438.92999111 0 2058.95926922 0 2069.96581095 0 238
0.01650000 0.01653350 72602.20293921 0 -3840.05279042 0 8268.13172027 0 12234.83663255 0 -10247.28806968 0 315
0.01750000 0.01747870 82901.22834575 0 1007.04254666 0 11619.37103082 0 -18864.46556830 0 -31984.54890518 0 297
0.01850000 0.01844180 78747.85160702 0 7945.26217838 0 20530.38584598 0 -15309.85788097 0 -20464.91779340 0 388
0.01950000 0.01947590 74210.45421085 0 1866.63038789 0 20502.15549445 0 -11857.07718148 0 -22827.36981847 0 399
0.02050000 0.02045430 70520.51658932 0 278.40509053 0 34402.80255896 0 -4344.70602395 0 -36897.83837509 0 462
0.02150000 0.02154770 64968.14468663 0 4727.92480760 0 32790.37714975 0 2311.15407111 0 -29902.97240101 0 571
0.02250000 0.02255340 64758.88857895 0 2959.97981978 0 33374.64656535 0 6352.60899981 0 -19201.80179227 0 510
0.02350000 0.02348930 66912.96326216 0 -2730.59997513 0 25247.93023249 0 8434.77867090 0 -26398.23467321 0 555
0.02450000 0.02439640 63670.42728187 0 178.90243826 0 27625.10158482 0 7411.28013606 0 -18734.18853748 0 592
0.02550000 0.02547300 63445.24354395 0 2359.12369958 0 22952.26440872 0 -553.84214955 0 -1381.09031065 0 837
0.02650000 0.02652900 66441.50540696 0 -3014.96859012 0 23916.05080700 0 3071.93458353 0 -6988.53886027 0 723
0.02750000 0.02749970 60889.35319572 0 -578.45418288 0 22419.51263852 0 4712.10702308 0 -3941.16578103 0 826
0.02850000 0.02848090 63624.51176848 0 4603.21695508 0 24800.41874553 0 -1780.52232343 0 -3178.67167530 0 831
0.02950000 0.02946900 64810.73576154 0 2473.33030071 0 27059.72563406 0 -1130.97159298 0 1203.82127833 0 996
0.03050000 0.03053250 60991.07033783 0 -1538.64203519 0 28592.84242924 0 4018.76080175 0 1654.93570511 0 1041
0.03150000 0.03150510 61679.91288440 0 1084.10481560 0 26809.60691638 0 3646.13114607 0 1767.17606774 0 1036
0.03250000 0.03246190 57993.71001756 0 1721.21661606 0 27077.41079591 0 -1109.67250674 0 4122.48812063 0 1059
0.03350000 0.03345080 56993.12530112 0 3966.54014370 0 25356.01842669 0 5485.03647277 0 8810.96732809 0 1302
0.03450000 0.03451200 54400.32678902 0 -577.04596067 0 24316.32863187 0 5818.39628147 0 11097.16445030 0 1339
0.03550000 0.03553350 52843.59316279 0 -517.68972427 0 18903.35095523 0 8157.61593553 0 8643.77114883 0 1365
0.03650000 0.03647120 52613.35652149 0 -182.68882043 0 14539.29011439 0 2623.26971644 0 11556.64912138 0 1308
0.03750000 0.03744890 52217.80206283 0 2721.59262562 0 13455.11280061 0 1883.60155253 0 11865.20576519 0 1579
0.03850000 0.03847530 49817.67295381 0 474.89382949 0 13590.99196344 0 -2072.56915465 0 7186.21722844 0 1662
0.03950000 0.03950240 47685.23787859 0 2084.93778337 0 13679.74730990 0 -1634.93279843 0 7525.62953663 0 1683
0.04050000 0.04050350 46896.10618435 0 1260.54561114 0 17560.81649434 0 -2115.59572545 0 3580.78392378 0 1822
0.04150000 0.04152450 42281.26755148 0 380.13541412 0 14394.95283067 0 -474.53683089 0 152.76684472 0 1887
0.04250000 0.04250150 44405.57404298 0 1790.19973187 0 18836.01552531 0 1430.19135009 0 3394.55148024 0 1920
0.04350000 0.04349210 42504.47406633 0 1195.13248142 0 17045.20065737 0 2254.28693886 0 5257.94141922 0 2005
0.04450000 0.04448520 42433.40388173 0 1155.09371436 0 21259.87131111 0 -701.30454417 0 1587.06203113 0 2151
0.04550000 0.04548030 38845.95232239 0 2450.44943602 0 21451.00287402 0 -3150.78184551 0 2005.32160130 0 2274
0.04650000 0.04648670 37204.08825865 0 109.66590836 0 22106.34247423 0 1841.27799438 0 7038.61752667 0 2311
0.04750000 0.04749250 37930.27835201 0 758.89446130 0 24523.49767075 0 1564.75236421 0 4865.30885687 0 2568
0.04850000 0.04851840 37797.47486950 0 -616.83318102 0 24084.66399613 0 1955.03422803 0 3926.58925322 0 2493
0.04950000 0.04949480 38193.13917388 0 196.99732467 0 22038.56766140 0 2297.28055594 0 5475.42497176 0 2644
0.05050000 0.05050630 36845.22227242 0 386.99967353 0 21467.36988717 0 -1100.48940406 0 4275.87669216 0 2829
0.05150000 0.05149060 36471.85665038 0 145.39949189 0 20796.87157681 0 782.56951058 0 2598.46655155 0 2784
0.05250000 0.05249300 36875.32000130 0 617.96239508 0 20950.32605577 0 3293.99870283 0 1730.60842562 0 3055
0.05350000 0.05348950 36347.07190586 0 368.08314109 0 19012.09822379 0 -1190.57388380 0 2518.92726149 0 3009
0.05450000 0.05448610 36655.84824112 0 125.85574035 0 19061.19926323 0 3094.36508074 0 -571.43284408 0 3336
0.05550000 0.05550870 35855.18274567 0 202.22707968 0 17944.06823170 0 -320.58035696 0 -626.74016703 0 3349
0.05650000 0.05647670 34504.95908397 0 402.38356743 0 13270.02275262 0 1905.02146906 0 932.36063459 0 3324
0.05750000 0.05747970 36014.78858527 0 -550.87631495 0 15297.99454259 0 1743.28462238 0 -654.55420326 0 3639
0.05850000 0.05849280 33661.56360117 0 808.57988000 0 13993.57654855 0 625.05293668 0 356.89645237 0 3846
0.05950000 0.05951020 34360.18241734 0 1281.50417563 0 13874.06439887 0 -1564.96107109 0 -1424.65512551 0 3787
0.06050000 0.06049470 32289.81017721 0 503.03740291 0 13088.55761357 0 -369.87472487 0 996.84666639 0 3930
0.06150000 0.06148310 32289.15110286 0 -139.85118428 0 14483.04910278 0 2647.42479155 0 -1734.73862491 0 4083
0.06250000 0.06249100 32656.58505570 0 -46.95652133 0 12842.50318775 0 159.05880789 0 1494.46208426 0 4303
0.06350000 0.06350600 32658.12289587 0 580.89605336 0 13291.33282343 0 1619.78507284 0 870.36151003 0 4470
0.06450000 0.06451750 31149.06231464 0 416.99634433 0 14151.42485654 0 -958.71042730 0 685.52081183 0 4479
0.06550000 0.06550280 30856.65299253 0 760.86179825 0 13406.56098980 0 -68.84855480 0 1529.83240798 0 4636
0.06650000 0.06648880 30789.86679123 0 347.23881616 0 15109.49927709 0 1181.31388912 0 1675.00451921 0 4653
0.06750000 0.06749660 30378.60439379 0 509.25686790 0 14837.52125998 0 196.47116365 0 353.99103292 0 5220
0.06850000 0.06852730 28791.77303868 0 497.69890063 0 14376.82828591 0 -1045.94770582 0 1028.19443962 0 5029
0.06950000 0.06949320 29066.71689040 0 653.75123101 0 13658.43723909 0 2422.52665252 0 2166.49823479 0 5040
0.07050000 0.07048030 28853.72602804 0 -195.80549855 0 13741.70029926 0 439.28733747 0 23.25236293 0 5475
0.07150000 0.07148790 28353.59843841 0 -49.86853152 0 11642.10909606 0 934.25547336 0 -2012.70323408 0 5509
0.07250000 0.07249820 28472.01213084 0 -75.53815950 0 11224.69533797 0 1239.77378439 0 -114.49549539 0 5916
0.07350000 0.07351270 27857.20560346 0 535.91422864 0 10628.49667655 0 38.61340892 0 -923.44445702 0 5721
0.07450000 0.07449140 26702.94671662 0 1057.17284054 0 10018.33662337 0 350.46718204 0 -643.03138663 0 6028
0.07550000 0.07549160 26584.75271564 0 108.79614990 0 11188.11671128 0 -188.22834038 0 -821.84924368 0 6183
0.07650000 0.07648840 25390.94936750 0 372.68128317 0 10287.08517615 0 -501.67202053 0 -3181.50569502 0 6330
0.07750000 0.07749960 24945.85448650 0 832.93267741 0 10866.25775007 0 597.63434506 0 -1725.24795420 0 6583
0.07850000 0.07848650 24612.69240011 0 809.00937679 0 11077.17252820 0 14.76326555 0 -140.72006397 0 6549
0.07950000 0.07947320 23770.94460320 0 -105.75507098 0 10527.57042367 0 369.84946036 0 -1450.84234654 0 6828
0.08050000 0.08048110 24262.94360912 0 -143.15534371 0 10190.05844653 0 1661.22986519 0 233.07066103 0 7147
0.08150000 0.08149960 23397.68882689 0 359.58327882 0 10262.54564100 0 308.78292601 0 -371.92005229 0 7386
0.08250000 0.08250610 22936.99585283 0 458.22583906 0 9495.47096850 0 -144.07475243 0 957.08910438 0 7227
0.08350000 0.08350160 22745.31506128 0 889.13634148 0 11060.58582361 0 518.88484577 0 1583.94241251 0 7798
0.08450000 0.08449610 21654.87654113 0 189.14005991 0 9582.84225881 0 -356.52407536 0 1127.17093086 0 7371
0.08550000 0.08548940 22203.77563302 0 -160.61971566 0 10789.09112769 0 1293.58720547 0 1568.45416517 0 8256
0.08650000 0.08650700 21589.29864282 0 -206.72086832 0 9486.07915894 0 818.22763010 0 572.91136755 0 8037
0.08750000 0.08749060 21406.95473797 0 795.19737522 0 8619.57213543 0 216.48066106 0 2280.46317532 0 8155
0.08850000 0.08849210 20979.21548166 0 225.10135362 0 9088.25089376 0 -343.71935910 0 1038.14536392 0 8718
0.08950000 0.08949900 20806.42815495 0 178.88705986 0 8983.48004048 0 902.87035258 0 1360.36242219 0 8571
0.09050000 0.09049190 20218.86336758 0 364.11771038 0 8077.54938598 0 677.87774623 0 1262.35806562 0 8932
0.09150000 0.09150830 20030.14841063 0 -249.41131120 0 7540.07424958 0 1721.32646179 0 2391.98954074 0 9285
0.09250000 0.09250820 20114.07054515 0 424.07150753 0 6988.45098369 0 252.60452645 0 1828.49195189 0 9204
0.09350000 0.09350330 18665.31526740 0 636.23742848 0 6889.69967618 0 -493.63351032 0 3035.13626538 0 9349
0.09450000 0.09448040 18424.53343641 0 429.68352566 0 6745.02187071 0 361.37376415 0 2280.83665079 0 9564
0.09550000 0.09549270 17936.04949372 0 310.32186462 0 7001.69837822 0 232.30174095 0 1454.91762297 0 10155
0.09650000 0.09649430 17651.43921814 0 244.77801849 0 6646.90766841 0 -68.31942794 0 2181.65694495 0 9913
0.09750000 0.09749140 17580.58872499 0 124.87811339 0 6767.40842963 0 321.61949752 0 438.76666873 0 10476
0.09850000 0.09850240 17521.82126168 0 -36.08574892 0 6420.50464294 0 -261.45699350 0 1179.86392553 0 10575
0.09950000 0.09950330 17205.46557134 0 -197.59598388 0 5446.73326818 0 595.75378624 0 616.03789796 0 10882
0.10050000 0.10051200 16736.97355074 0 192.28054921 0 5615.64304076 0 308.54126541 0 318.26920289 0 10875
0.10150000 0.10150300 16925.90819914 0 562.30466427 0 5765.06618158 0 -22.78200353 0 -871.03486432 0 11118
0.10250000 0.10250800 16450.82543500 0 692.33893603 0 5774.01860824 0 -156.48841791 0 -592.12558191 0 11575
0.10350000 0.10349800 15956.40982311 0 -158.66775711 0 5985.58147615 0 318.00447469 0 322.50046024 0 11364
0.10450000 0.10450100 15633.68308067 0 -247.58567524 0 4822.94136043 0 909.70824901 0 94.94910755 0 12093
0.10550000 0.10551000 15617.75545043 0 210.88292287 0 4288.45402776 0 762.89833800 0 -112.39744202 0 12067
0.10650000 0.10649700 15527.57210954 0 304.27375896 0 4152.44305006 0 -98.26600909 0 457.58763539 0 12054
0.10750000 0.10749900 14938.03009909 0 336.16856391 0 4414.95236561 0 76.55851645 0 863.31490671 0 12807
0.10850000 0.10850100 15021.29315926 0 331.62534469 0 4646.73783165 0 -197.54215947 0 798.68278010 0 12736
0.10950000 0.10950300 14359.58250696 0 144.60420883 0 4815.34003620 0 -111.51098702 0 1031.44697156 0 12933
0.11050000 0.11050200 14623.10240319 0 -247.40882362 0 4860.79419754 0 171.18248065 0 1028.47015239 0 13428
0.11150000 0.11150900 14533.57813665 0 125.01981438 0 5233.75339040 0 -296.41319882 0 -350.38260083 0 13453
0.11250000 0.11250000 14601.79233238 0 329.87110845 0 4928.57999494 0 5.90029725 0 607.12721269 0 13668
0.11350000 0.11349100 14271.59608058 0 60.48457170 0 5379.01337821 0 -276.89361334 0 661.00544274 0 13791
0.11450000 0.11448600 14379.13504616 0 189.07634939 0 5173.62384009 0 497.32212979 0 -74.24329808 0 14205
0.11550000 0.11549300 14307.95501583 0 -124.80671367 0 5010.88739729 0 281.36872821 0 -274.67582814 0 14776
0.11650000 0.11649800 13813.64924967 0 342.37155204 0 5137.78117975 0 -173.68696320 0 173.22780807 0 14553
0.11750000 0.11747300 13639.98315716 0 342.13648219 0 4934.47871042 0 68.25176297 0 680.88861757 0 14568
0.11850000 0.11849100 13353.94488714 0 -119.87793595 0 5341.23743311 0 470.03535304 0 308.94330076 0 16015
0.11950000 0.11950300 13526.18298521 0 180.17445177 0 4722.88288878 0 -170.96937994 0 -227.68822047 0 15270
0.12050000 0.12050700 13075.48597220 0 330.66419459 0 4863.04603492 0 -225.38146022 0 -43.66565323 0 15999
0.12150000 0.12150000 13388.87582795 0 -256.92256193 0 4906.90743324 0 39.11430543 0 -67.14748389 0 15670
0.12250000 0.12250700 13138.42757309 0 236.83617251 0 5006.13107737 0 208.72115899 0 -564.27200122 0 16887
0.12350000 0.12352200 13109.86768438 0 -5.03152741 0 4107.81273166 0 219.78591895 0 -255.90209514 0 16407
0.12450000 0.12449800 13280.56794230 0 -161.10633222 0 4725.02488044 0 447.49830548 0 -350.90436803 0 16306
0.12550000 0.12549900 13068.34600002 0 81.57517074 0 4515.87861849 0 -141.89101940 0 -722.11042310 0 17523
0.12650000 0.12650100 13089.87576228 0 440.35943176 0 4389.38028064 0 -225.29907593 0 -341.20059661 0 17154
0.12750000 0.12750600 12613.25515798 0 110.75195305 0 4682.41572339 0 -55.70815000 0 172.83895420 0 18007
0.12850000 0.12850300 12274.82047675 0 196.99402930 0 4842.52685334 0 315.51537054 0 -264.45797872 0 17496
0.12950000 0.12949900 12487.15226475 0 88.84893502 0 4206.16859456 0 896.34331955 0 614.83838264 0 18405
0.13050000 0.13049000 12412.56701692 0 -363.57946633 0 3877.67495151 0 1068.98015761 0 880.76829409 0 18100
0.13150000 0.13148800 12461.11882773 0 33.58620943 0 3018.31888476 0 177.41512713 0 826.92960850 0 19059
0.13250000 0.13249300 12467.05049692 0 233.88132249 0 3171.56465684 0 0.47902183 0 1486.50925372 0 18957
0.13350000 0.13349100 11934.73810963 0 176.04315402 0 3371.35206295 0 -112.90822465 0 1233.68833118 0 19468
0.13450000 0.13450700 11795.45372930 0 245.63481515 0 3448.80428422 0 -131.99391951 0 1038.45403041 0 19953
0.13550000 0.13551000 11438.56496613 0 371.51801693 0 3813.62390879 0 -695.87706686 0 396.72870946 0 19956
0.13650000 0.13649900 11244.02818571 0 238.03678629 0 4001.92145198 0 -246.12582554 0 251.12929835 0 19723
0.13750000 0.13749600 11005.77280643 0 -79.24973673 0 4105.87944689 0 296.32092841 0 216.78383526 0 20946
0.13850000 0.13851100 11367.60462725 0 -84.65612366 0 3932.12547780 0 92.98319860 0 -648.84661935 0 20955
0.13950000 0.13949800 11195.03699200 0 239.08141915 0 3854.15698162 0 -357.57090513 0 -842.45410493 0 20506
0.14050000 0.14048300 11039.38559852 0 88.50566712 0 3672.43919740 0 -313.31076682 0 -1051.67506197 0 21447
0.14150000 0.14148400 10868.28989600 0 -2.80497652 0 3751.76978059 0 535.63851587 0 -220.02538263 0 21771
0.14250000 0.14249400 10890.61054748 0 -112.06021565 0 3508.47248248 0 798.55975289 0 -359.49320533 0 22470
0.14350000 0.14350900 11028.18133449 0 50.24530236 0 2677.37972098 0 618.82248711 0 -164.12489277 0 22519
0.14450000 0.14449900 10956.15549208 0 25.13709590 0 2758.99509526 0 195.91863965 0 241.60237855 0 22218
0.14550000 0.14550500 10814.80601210 0 124.75398772 0 2670.79996200 0 -51.67955801 0 12.38137083 0 23559
0.14650000 0.14650700 10644.66596739 0 194.42034395 0 2634.08952043 0 -290.33213944 0 347.21135472 0 23044
0.14750000 0.14750500 10332.73705979 0 88.59694892 0 2721.31801130 0 -151.98034932 0 -45.22161794 0 23649
0.14850000 0.14849900 10326.38797684 0 132.32455514 0 2691.67064990 0 -88.87683583 0 55.23603307 0 23640
0.14950000 0.14949500 10093.95442102 0 187.45173110 0 3017.59390297 0 264.23938573 0 -343.18660733 0 24457
0.15050000 0.15050000 10073.72083833 0 128.09769161 0 2828.11002594 0 93.74827408 0 -129.51470148 0 24591
0.15150000 0.15149900 10064.83431911 0 -69.90065716 0 2721.24111929 0 53.77398646 0 -717.77371384 0 25020
0.15250000 0.15250500 9719.46837258 0 282.48476079 0 2812.56685574 0 -442.34214711 0 -527.03539862 0 25297
0.15350000 0.15350100 9572.97811263 0 246.72118938 0 2903.36533269 0 -219.15869986 0 -250.49548852 0 25452
0.15450000 0.15450400 9578.55827550 0 -69.31045607 0 3123.94653470 0 611.26949501 0 -707.05606637 0 26061
0.15550000 0.15549900 9718.34794617 0 -156.21600051 0 2481.48085356 0 587.39782187 0 -156.18963753 0 26128
0.15650000 0.15649500 9584.88538931 0 -2.79041097 0 2094.97768271 0 175.74437364 0 -167.81351224 0 26331
0.15750000 0.15749700 9378.74890025 0 305.27774889 0 2431.32529515 0 -279.83747880 0 114.05940786 0 27345
0.15850000 0.15849900 9186.12343546 0 487.09000043 0 2507.14081511 0 -476.98309520 0 219.50691081 0 26980
0.15950000 0.15949700 8747.03711567 0 41.60297019 0 2906.77055019 0 238.58711338 0 343.17452430 0 27777
0.16050000 0.16050000 8802.57511464 0 -68.54702828 0 2732.10486158 0 372.92623914 0 -26.65285707 0 28224
0.16150000 0.16150500 8622.35123230 0 -34.68565530 0 2507.56921344 0 282.85384243 0 284.76845343 0 28075
0.16250000 0.16249700 8821.01821200 0 115.65546625 0 2108.98301275 0 335.46225589 0 555.63263488 0 28590
0.16350000 0.16349900 8755.96757318 0 51.37220967 0 2145.79231548 0 -107.22403788 0 454.21537161 0 29163
0.16450000 0.16449100 8649.53804944 0 -57.85277795 0 1893.54259072 0 115.79826570 0 503.28894962 0 28996
0.16550000 0.16550500 8551.75338432 0 78.35493345 0 2025.97259776 0 7.78434917 0 418.15851211 0 30777
0.16650000 0.16650700 8628.87606841 0 192.57054192 0 2245.96063284 0 -391.85155924 0 179.57359565 0 29211
0.16750000 0.16749900 8342.27758519 0 224.44008235 0 2451.37214012 0 -312.16507590 0 -122.67790350 0 30922
0.16850000 0.16850800 8246.09666767 0 32.74797670 0 2749.74608514 0 -134.53465115 0 -95.19746874 0 30867
0.16950000 0.16949900 8222.58968235 0 -59.28538591 0 2229.19817509 0 476.20428900 0 3.46420465 0 30852
0.17050000 0.17049200 8291.59476730 0 -51.76402937 0 2426.23943805 0 107.91881209 0 -182.89093656 0 31257
0.17150000 0.17149500 8364.07097719 0 94.56629520 0 2049.23792249 0 181.84300834 0 -63.92384137 0 32608
0.17250000 0.17250900 8292.58337883 0 -21.84084535 0 1934.78966076 0 130.90754528 0 42.63530033 0 32361
0.17350000 0.17350400 8253.81882219 0 59.38589475 0 2017.26183170 0 49.99221781 0 287.79690009 0 32508
0.17450000 0.17449800 8223.36958700 0 99.80362956 0 1788.29940082 0 61.86709000 0 -154.86050425 0 32791
0.17550000 0.17549800 8090.67595022 0 123.45670970 0 1898.71632440 0 -130.08480079 0 -250.90740999 0 33633
0.17650000 0.17650100 7768.25677581 0 174.03407569 0 2076.96298368 0 -110.16208150 0 337.64269355 0 33984
0.17750000 0.17750300 7747.71562508 0 96.69686290 0 2019.85419083 0 233.57814828 0 183.43247599 0 34069
0.17850000 0.17849800 7624.05130696 0 57.65165043 0 2046.50276391 0 162.74083662 0 191.47647849 0 34536
