### header ###
fiducial parameters:
Omega_m = 0.31
Omega_nu = 0
Omega_de = 0.69
Omega_k = 0
H_0 = 100
w_de = -1
zeff = 0
beta = 0
fgrowth = 0
b_1 = 2
gamma = 0.55
Lx = 3500 Ly = 3500 Lz = 3500
nx = 700 ny = 700 nz = 700
xoffset = -983.599254 yoffset = -42.9823471 zoffset = 800.977702
bins = 400 dk = 0.001
kx_ny = 0.628318531 ky_ny = 0.628318531 kz_ny = 0.628318531
############################
A(data) = 9.11026931 (not used)
A(ran) = 9.10726897 (used)
Ngal = 506352
weighted Ngal = 0
Nran = 25229228
weighted Nran = 0
SN(data) = 6738.71834
SN(ran) = 135.191134
SN(data+ran) = 6873.90947
############################
13 columns: k_central k_mean P_0(k) sigma^{lin}_{P_0(k)} P^img_1(k) sigma^{lin}_{P_1(k)} P_2(k) sigma^{lin}_{P_2(k)} P^img_3(k) sigma^{lin}_{P_3(k)} P_4(k) sigma^{lin}_{P_4(k)} N_modes
### header ###
0.00050000 0 0 0 0 0 0 0 0 0 0 0 0
0.00150000 0.00179520 45096.17412117 0 -34674.34119317 0 -4726.51878231 0 -26986.12899776 0 17194.81053593 0 3
0.00250000 0.00253879 41031.44288317 0 -8500.22475434 0 -29231.04609621 0 -9757.49696285 0 4560.55287518 0 6
0.00350000 0.00331552 47172.03864759 0 2171.44129245 0 -6272.23488224 0 -14792.92389529 0 10855.38302321 0 7
0.00450000 0.00420575 77088.63191861 0 -18147.28282446 0 -36245.35476375 0 -29227.20149581 0 -9808.89377796 0 24
0.00550000 0.00557378 81550.12591825 0 -6502.87795273 0 -22322.51886263 0 -42404.73414729 0 632.25222555 0 45
0.00650000 0.00659388 95686.61175608 0 -7961.16783948 0 -63243.23725418 0 29198.31206992 0 35773.01814276 0 40
0.00750000 0.00754703 89677.17178828 0 -10909.70173463 0 -7634.75028065 0 -20932.86058536 0 -22489.26467441 0 57
0.00850000 0.00846663 97070.77774706 0 19465.76107140 0 -49765.82577123 0 -31428.83937829 0 -17109.24071552 0 75
0.00950000 0.00948925 88154.92971996 0 1483.52144997 0 -4644.78257773 0 -2377.47892036 0 -2095.69167993 0 112
0.01050000 0.01054430 82603.87596598 0 -5129.54275032 0 -12896.54728485 0 8188.25190846 0 14807.42353110 0 105
0.01150000 0.01145670 99730.14276900 0 -8261.45310014 0 -10119.10909223 0 5972.02651359 0 -1435.21129976 0 144
0.01250000 0.01249090 81602.96171236 0 867.94380560 0 -11853.45227253 0 -2004.88221840 0 20964.82569157 0 169
0.01350000 0.01339930 95554.35750220 0 2918.77668802 0 -14299.27720349 0 -13366.90668278 0 -3534.37410463 0 180
0.01450000 0.01448870 89740.66261780 0 7640.12173665 0 -464.15860671 0 -7622.81005026 0 2114.10182358 0 267
0.01550000 0.01550050 89405.19377117 0 1984.70355857 0 13067.02785131 0 -2856.25250089 0 15424.09743582 0 238
0.01650000 0.01653350 81035.49869281 0 3594.99796070 0 20770.39875688 0 -12658.62144274 0 3726.13178818 0 315
0.01750000 0.01747870 74863.92643371 0 1258.00817488 0 12350.39433611 0 12065.89390625 0 1562.77514115 0 297
0.01850000 0.01844180 78308.35885804 0 -1096.40643843 0 27475.49170626 0 3951.41438725 0 -16527.60759734 0 388
0.01950000 0.01947590 66363.40509591 0 12780.33050694 0 28557.91148843 0 -21238.67108603 0 -1609.20692945 0 399
0.02050000 0.02045430 63860.02100462 0 7502.44110391 0 38918.78003860 0 -4858.23479213 0 617.96459199 0 462
0.02150000 0.02154770 60431.73590199 0 -3576.40107932 0 40181.56650255 0 10249.67172193 0 4342.14661854 0 571
0.02250000 0.02255340 61574.13145045 0 -1278.00009698 0 41392.28609247 0 7624.18312183 0 -7930.63072771 0 510
0.02350000 0.02348930 64800.84964621 0 1383.38608632 0 33027.09468887 0 13627.02136151 0 760.25654830 0 555
0.02450000 0.02439640 64823.91724864 0 -46.77824172 0 26254.66630957 0 6999.54540199 0 19552.75888624 0 592
0.02550000 0.02547300 67659.58466051 0 -3003.65448036 0 29612.65014769 0 2755.38117088 0 11256.44075273 0 837
0.02650000 0.02652900 64662.22434024 0 3372.99974884 0 35126.02681772 0 1375.30144090 0 12467.81941700 0 723
0.02750000 0.02749970 63528.06722121 0 3189.30474156 0 26566.62817088 0 642.95669153 0 15960.69380642 0 826
0.02850000 0.02848090 65404.45190956 0 -777.93292250 0 39215.14380685 0 2957.29958407 0 13089.87576228 0 831
0.02950000 0.02946900 60671.63896716 0 2355.56469806 0 31745.85414299 0 4352.20848703 0 11428.67885081 0 996
0.03050000 0.03053250 60135.48197947 0 3172.15782376 0 39343.99284323 0 -6283.69179144 0 10714.95624733 0 1041
0.03150000 0.03150510 53746.30533753 0 2138.43265185 0 32356.26684133 0 6511.20425874 0 9680.92350739 0 1036
0.03250000 0.03246190 58083.12443837 0 -298.02024179 0 36189.88267222 0 5555.03016926 0 1767.00031458 0 1059
0.03350000 0.03345080 54166.02585586 0 372.87131627 0 32399.65590303 0 1663.05330424 0 10208.52351304 0 1302
0.03450000 0.03451200 54271.25806119 0 931.92674397 0 28726.52467755 0 3186.97601217 0 2842.93919892 0 1339
0.03550000 0.03553350 54225.56223925 0 -1102.57647285 0 23166.46357405 0 5217.90265216 0 5241.04714659 0 1365
0.03650000 0.03647120 51446.46537617 0 -558.18984338 0 21865.01141462 0 3377.86591449 0 -4711.16234984 0 1308
0.03750000 0.03744890 51820.27038112 0 3068.60625803 0 19068.44908113 0 -425.11614039 0 6155.35902997 0 1579
0.03850000 0.03847530 48288.07122186 0 2626.51016535 0 21077.63725198 0 318.00008086 0 3406.28300376 0 1662
0.03950000 0.03950240 46880.28839983 0 571.33947522 0 18713.42769530 0 2802.38415695 0 -3721.61712885 0 1683
0.04050000 0.04050350 46497.80558255 0 1602.31960244 0 17948.90144364 0 -479.34367985 0 -3192.07285385 0 1822
0.04150000 0.04152450 42666.60635763 0 879.02174705 0 19182.02956162 0 1082.39561611 0 3542.64548778 0 1887
0.04250000 0.04250150 39822.92020777 0 340.64917106 0 18785.48649144 0 1804.22703106 0 -1340.31557723 0 1920
0.04350000 0.04349210 41534.53630740 0 1011.78568510 0 15535.92038470 0 -1908.86606947 0 -4905.38057765 0 2005
0.04450000 0.04448520 39183.39839209 0 2311.50557744 0 17133.62646665 0 323.48797332 0 -2354.43328709 0 2151
0.04550000 0.04548030 39221.29516749 0 -750.60220746 0 16094.26620901 0 3950.25002256 0 520.07996727 0 2274
0.04650000 0.04648670 38968.43030667 0 -2122.81258963 0 13060.54695349 0 3301.99547167 0 -5544.92436248 0 2311
0.04750000 0.04749250 40406.53054902 0 762.76652313 0 12739.57774266 0 -1058.99078731 0 -6315.04176159 0 2568
0.04850000 0.04851840 38509.05548132 0 2678.67590054 0 13358.55840762 0 -5388.60291008 0 -3227.42120841 0 2493
0.04950000 0.04949480 36509.42388861 0 1598.37614088 0 16141.06048820 0 -2279.11207289 0 -4831.99264823 0 2644
0.05050000 0.05050630 36352.34450070 0 143.09492856 0 18429.25680262 0 1752.67643193 0 -6763.93730470 0 2829
0.05150000 0.05149060 35357.69145346 0 -462.52300385 0 18196.16417245 0 2460.74198053 0 -7025.94132991 0 2784
0.05250000 0.05249300 35152.17010046 0 255.31222359 0 17143.29289052 0 -1154.84106919 0 -5211.91606011 0 3055
0.05350000 0.05348950 33706.27081158 0 1488.00315559 0 15999.68903908 0 314.74864737 0 -4219.38303537 0 3009
0.05450000 0.05448610 34225.73124895 0 816.95012431 0 19083.82748275 0 657.40799522 0 -750.14634770 0 3336
0.05550000 0.05550870 34402.58286751 0 -647.37798200 0 18837.00413684 0 4876.46918262 0 -1300.99080739 0 3349
0.05650000 0.05647670 34798.24717189 0 -252.16843892 0 15272.18079702 0 2769.71603810 0 476.71726854 0 3324
0.05750000 0.05747970 34495.40250582 0 43.90698429 0 14919.24647998 0 255.76588644 0 3854.81605597 0 3639
0.05850000 0.05849280 34004.28226571 0 -427.68323500 0 12995.07890091 0 1593.25733006 0 4969.89297242 0 3846
0.05950000 0.05951020 34425.21108703 0 1457.12552206 0 15747.15371544 0 -658.78765754 0 3304.93933712 0 3787
0.06050000 0.06049470 32498.40721053 0 1171.85617212 0 14580.59210730 0 -264.55134759 0 4014.98210878 0 3930
0.06150000 0.06148310 32190.72933253 0 463.75766981 0 16709.95150219 0 1409.99072111 0 3278.32371776 0 4083
0.06250000 0.06249100 30702.31974776 0 -440.10568813 0 14298.61812913 0 506.83257273 0 3015.18828157 0 4303
0.06350000 0.06350600 32436.23452972 0 220.22200648 0 13163.47239858 0 2117.22144219 0 1392.61312729 0 4470
0.06450000 0.06451750 31835.81779243 0 401.54983837 0 14266.65302292 0 -982.81717028 0 1184.42252316 0 4479
0.06550000 0.06550280 30040.60909546 0 275.23164751 0 11489.64322863 0 644.25287110 0 837.33529410 0 4636
0.06650000 0.06648880 30549.96372605 0 -57.06397579 0 11702.30455381 0 975.88370807 0 -125.66570725 0 4653
0.06750000 0.06749660 30021.60578489 0 529.48166294 0 11635.29866106 0 -933.53818077 0 -2629.04760162 0 5220
0.06850000 0.06852730 29192.60009218 0 810.63509353 0 11887.50444753 0 709.77255117 0 -1999.53273155 0 5029
0.06950000 0.06949320 28815.49971546 0 612.05928578 0 10770.56015374 0 -696.69541751 0 -1409.81496795 0 5040
0.07050000 0.07048030 27965.62333484 0 456.82201068 0 11665.94561856 0 -378.55802950 0 -4413.01908084 0 5475
0.07150000 0.07148790 27250.19812262 0 834.84509150 0 11389.57377242 0 1008.61334053 0 -3552.61947969 0 5509
0.07250000 0.07249820 27400.46707553 0 -356.85800636 0 11089.47524950 0 1636.61343804 0 -2959.77111290 0 5916
0.07350000 0.07351270 26537.62889927 0 -241.30799201 0 10242.26812001 0 1546.92440291 0 761.67465662 0 5721
0.07450000 0.07449140 27051.15766744 0 41.87319068 0 8922.55960095 0 965.67904014 0 -2495.03581613 0 6028
0.07550000 0.07549160 26424.92718458 0 876.15916743 0 9687.28357491 0 -1641.85307916 0 -456.68250661 0 6183
0.07650000 0.07648840 25461.90970638 0 1259.43616931 0 10165.21134336 0 -760.30927425 0 -1292.18118018 0 6330
0.07750000 0.07749960 24460.88560704 0 70.95572535 0 10776.41493093 0 604.24266393 0 499.60142860 0 6583
0.07850000 0.07848650 24972.54699788 0 -377.20143479 0 10172.03276293 0 1849.12097920 0 -235.86733321 0 6549
0.07950000 0.07947320 24678.70968133 0 -36.88180090 0 9433.89145461 0 1017.07915062 0 -376.27982915 0 6828
0.08050000 0.08048110 24167.26798194 0 674.54942073 0 9328.84598701 0 -111.59117440 0 742.76251801 0 7147
0.08150000 0.08149960 24422.87898591 0 318.48450051 0 8676.56009799 0 40.83405011 0 -626.44358357 0 7386
0.08250000 0.08250610 23604.63817432 0 344.34328282 0 9764.60398131 0 -788.52095201 0 157.73406844 0 7227
0.08350000 0.08350160 22889.10311637 0 281.40497730 0 9458.82643437 0 551.47717107 0 79.00522014 0 7798
0.08450000 0.08449610 23104.94996760 0 -374.49044227 0 8876.76491785 0 827.02627273 0 -237.41286257 0 7371
0.08550000 0.08548940 22863.94844516 0 549.59661225 0 8834.60612829 0 876.42169872 0 -960.96336313 0 8256
0.08650000 0.08650700 22661.72246394 0 588.51275599 0 7724.26356262 0 -498.38104259 0 -1332.51653070 0 8037
0.08750000 0.08749060 21509.44080016 0 287.17407482 0 8541.27410208 0 91.56377213 0 17.36210558 0 8155
0.08850000 0.08849210 20905.06961673 0 231.70857403 0 8243.37249367 0 319.66973589 0 -454.41089700 0 8718
0.08950000 0.08949900 20354.30314750 0 452.75991574 0 7767.04847282 0 813.88103473 0 -214.16401470 0 8571
0.09050000 0.09049190 20463.70949041 0 395.17768781 0 8953.40428075 0 118.61910393 0 -452.30185907 0 8932
0.09150000 0.09150830 20039.37545160 0 379.56201943 0 7724.04387117 0 -204.71069154 0 -50.05834494 0 9285
0.09250000 0.09250820 19700.50138746 0 101.34542417 0 8308.00571874 0 73.52995994 0 -647.87228776 0 9204
0.09350000 0.09350330 19167.31023436 0 384.37875451 0 8207.57377163 0 107.68000748 0 94.28662798 0 9349
0.09450000 0.09448040 18848.86747523 0 -3.12364995 0 8121.09223169 0 28.74662645 0 -992.08485417 0 9564
0.09550000 0.09549270 18734.62792038 0 431.38942979 0 8195.34794234 0 553.40606202 0 -323.45172423 0 10155
0.09650000 0.09649430 18443.97612988 0 199.29200189 0 7791.06074849 0 486.43531991 0 563.20100539 0 9913
0.09750000 0.09749140 18301.50622350 0 194.48515292 0 7674.88790887 0 707.24060719 0 190.97008970 0 10476
0.09850000 0.09850240 17961.53370211 0 229.86536275 0 7832.63735571 0 -601.78102121 0 -285.01560631 0 10575
0.09950000 0.09950330 17716.13835064 0 198.68016119 0 8165.56876608 0 -10.14469216 0 -722.61461498 0 10882
0.10050000 0.10051200 17207.99202303 0 312.13322064 0 7705.65569667 0 -205.20609576 0 -789.14377727 0 10875
0.10150000 0.10150300 16992.58455471 0 -58.05159872 0 7554.51896252 0 121.21146306 0 -854.57997460 0 11118
0.10250000 0.10250800 16764.32513647 0 131.38976802 0 7442.32253817 0 969.42148402 0 -1024.60028747 0 11575
0.10350000 0.10349800 16774.43094324 0 529.99574093 0 6998.31512986 0 193.54816888 0 -743.55011186 0 11364
0.10450000 0.10450100 16316.81364950 0 112.30407316 0 6869.35624776 0 357.51158843 0 -104.08904086 0 12093
0.10550000 0.10551000 16123.15563490 0 -94.30178669 0 6070.90963597 0 1690.09732194 0 370.34925841 0 12067
0.10650000 0.10649700 15682.23489148 0 -241.42882231 0 4962.22574076 0 583.37087756 0 -285.48684447 0 12054
0.10750000 0.10749900 16017.48404666 0 396.23769907 0 4254.58859050 0 581.07070807 0 1400.37922011 0 12807
0.10850000 0.10850100 15507.03095881 0 142.17771675 0 3962.57471299 0 560.43179464 0 1311.49205878 0 12736
0.10950000 0.10950300 15417.94607517 0 102.81702736 0 3997.31891607 0 144.82390028 0 1056.18862284 0 12933
0.11050000 0.11050200 15161.78584258 0 376.86970069 0 4465.63518350 0 -444.28092417 0 390.96290732 0 13428
0.11150000 0.11150900 14630.79160399 0 274.95483628 0 4132.69278856 0 -299.39001799 0 1103.36736208 0 13453
0.11250000 0.11250000 14634.74605012 0 61.10399174 0 4845.55859537 0 -163.89201983 0 496.54661897 0 13668
0.11350000 0.11349100 14468.65931269 0 63.25905504 0 4544.37259976 0 -218.59519128 0 791.30224579 0 13791
0.11450000 0.11448600 14525.66924439 0 136.03953759 0 4957.80994258 0 117.16364807 0 -182.97661623 0 14205
0.11550000 0.11549300 14337.50351607 0 207.08445768 0 5058.83505661 0 -149.80430549 0 -248.67644330 0 14776
0.11650000 0.11649800 14437.68281801 0 67.82347448 0 5030.80242738 0 546.13976726 0 434.76059511 0 14553
0.11750000 0.11747300 14094.96415348 0 -200.59147682 0 4439.04153328 0 196.26025985 0 622.89336971 0 14568
0.11850000 0.11849100 13908.11657387 0 274.26720204 0 4646.29844875 0 455.12818959 0 417.03369188 0 16015
0.11950000 0.11950300 13859.01553443 0 394.17150097 0 4412.93120426 0 -530.69875358 0 548.56955471 0 15270
0.12050000 0.12050700 13580.66646522 0 7.71879325 0 4440.75512660 0 374.64422629 0 510.02359107 0 15999
0.12150000 0.12150000 13570.34096699 0 283.82927247 0 4454.38698118 0 118.54880267 0 308.23918966 0 15670
0.12250000 0.12250700 13131.50729237 0 57.13548536 0 4275.18466409 0 -188.92036845 0 -6.55990985 0 16887
0.12350000 0.12352200 12975.85589889 0 -145.55437436 0 4077.63811078 0 355.63871881 0 407.59684558 0 16407
0.12450000 0.12449800 13031.76737333 0 -122.39559999 0 3612.33161624 0 811.50507168 0 186.75860457 0 16306
0.12550000 0.12549900 13416.88648803 0 183.12380950 0 3726.29655677 0 196.17128482 0 20.88353985 0 17523
0.12650000 0.12650100 13179.83941172 0 244.42431525 0 3376.15232117 0 -679.79565260 0 -412.21915372 0 17154
0.12750000 0.12750600 12875.01752259 0 194.32477816 0 4081.29597345 0 -64.84665531 0 282.09810383 0 18007
0.12850000 0.12850300 12358.96230272 0 -46.08676288 0 3847.06094773 0 443.59219147 0 659.66093106 0 17496
0.12950000 0.12949900 12944.87940421 0 -45.88673381 0 3825.67398491 0 406.11063290 0 50.56660111 0 18405
0.13050000 0.13049000 12658.51159701 0 236.46050013 0 3419.79402803 0 120.43924761 0 1081.07417202 0 18100
0.13150000 0.13148800 12581.29005177 0 66.52356016 0 3985.35671653 0 40.45497251 0 1013.56189048 0 19059
0.13250000 0.13249300 12290.30872409 0 145.50604224 0 3507.47288638 0 28.42719507 0 829.77790817 0 18957
0.13350000 0.13349100 12391.69632901 0 138.96582773 0 3677.25044019 0 211.74850719 0 889.21543040 0 19468
0.13450000 0.13450700 12143.66468013 0 87.15588284 0 3914.83576056 0 -320.79675304 0 701.90540029 0 19953
0.13550000 0.13551000 11994.82372165 0 162.29486297 0 3673.87817641 0 284.11706827 0 913.21232767 0 19956
0.13650000 0.13649900 11866.41406817 0 105.40367451 0 4272.19686034 0 -122.48787040 0 834.57377256 0 19723
0.13750000 0.13749600 11607.39784671 0 257.13017036 0 3591.85637295 0 3.40180130 0 843.03079499 0 20946
0.13850000 0.13851100 11574.88351186 0 151.29381353 0 4284.62041193 0 -199.97414384 0 -0.22731694 0 20955
0.13950000 0.13949800 11221.83934910 0 146.28374998 0 4011.19243124 0 -286.35462571 0 454.77668327 0 20506
0.14050000 0.14048300 10794.23190765 0 64.24546966 0 3975.92096868 0 407.45184922 0 538.87017712 0 21447
0.14150000 0.14148400 11135.28091716 0 -77.20221240 0 3706.70007928 0 186.54770078 0 55.55821058 0 21771
0.14250000 0.14249400 11038.06744981 0 318.32742112 0 3468.58749944 0 381.83253059 0 1.44650344 0 22470
0.14350000 0.14350900 10802.95365828 0 -19.80166930 0 3519.96234540 0 104.08904086 0 921.03554026 0 22519
0.14450000 0.14449900 10731.93839654 0 -69.56474893 0 3250.31305767 0 432.10452546 0 385.16085608 0 22218
0.14550000 0.14550500 10782.96173619 0 213.58293081 0 3352.49155183 0 -123.52151868 0 543.58585413 0 23559
0.14650000 0.14650700 10686.74786495 0 175.59168808 0 3444.77294608 0 -119.99217551 0 854.41740292 0 23044
0.14750000 0.14750500 10438.55144747 0 -115.70929066 0 3150.89169124 0 163.58884562 0 656.36775620 0 23649
0.14850000 0.14849900 10589.31470615 0 15.74979001 0 3252.11452758 0 261.23840050 0 524.54958985 0 23640
0.14950000 0.14949500 10401.80805219 0 193.67998375 0 3278.36765605 0 -30.27688725 0 373.95988742 0 24457
0.15050000 0.15050000 10268.91669310 0 148.81459550 0 3065.42073199 0 184.27828808 0 879.21068170 0 24591
0.15150000 0.15149900 10158.20318605 0 70.53281931 0 3391.54170735 0 -204.22956726 0 541.64378170 0 25020
0.15250000 0.15250500 9935.96331358 0 186.62129741 0 3050.59155900 0 156.87068103 0 601.84253482 0 25297
0.15350000 0.15350100 9795.62441428 0 138.46053739 0 3238.69137988 0 -109.04253387 0 437.45950459 0 25452
0.15450000 0.15450400 9774.23745147 0 43.12565165 0 2825.56160510 0 384.37545914 0 339.28818252 0 26061
0.15550000 0.15549900 9378.61708538 0 151.00272236 0 3276.35747926 0 65.81780138 0 520.07886881 0 26128
0.15650000 0.15649500 9353.48438331 0 242.23728685 0 2826.58317035 0 -382.39933453 0 236.95041207 0 26331
0.15750000 0.15749700 9123.51137175 0 200.00160527 0 3308.47636949 0 19.16368533 0 663.34955053 0 27345
0.15850000 0.15849900 9050.09048862 0 -45.82796635 0 2691.71458820 0 537.79039364 0 313.81605716 0 26980
0.15950000 0.15949700 8891.15470794 0 -136.39104391 0 2688.99041420 0 215.60958446 0 307.01660673 0 27777
0.16050000 0.16050000 9011.99599090 0 204.91939842 0 2498.86943196 0 247.45825420 0 283.18667498 0 28224
0.16150000 0.16150500 8973.23143426 0 63.48852276 0 2292.57915888 0 -150.96757173 0 624.53995714 0 28075
0.16250000 0.16249700 8783.49491207 0 -20.56531679 0 2098.36093107 0 90.11413809 0 261.59759602 0 28590
0.16350000 0.16349900 8740.17175781 0 196.86441135 0 2373.57939709 0 148.72671892 0 162.94624813 0 29163
0.16450000 0.16449100 8511.51689495 0 174.95568133 0 2195.72818243 0 -250.66135556 0 157.06620643 0 28996
0.16550000 0.16550500 8379.85580799 0 97.40031492 0 2525.69375820 0 -110.56960915 0 -3.24296438 0 30777
0.16650000 0.16650700 8300.38242537 0 8.08832525 0 2412.95908980 0 49.50505202 0 70.61575283 0 29211
0.16750000 0.16749900 8030.15095529 0 91.29992270 0 2495.85965907 0 -18.86325727 0 55.56513087 0 30922
0.16850000 0.16850800 8152.70583158 0 117.92927278 0 2324.14882048 0 251.17872893 0 -149.69885360 0 30867
0.16950000 0.16949900 8087.12793327 0 93.92358786 0 2479.87710596 0 23.32332327 0 -231.42077823 0 30852
0.17050000 0.17049200 7991.54018267 0 -24.60895765 0 2149.80168447 0 211.13556804 0 298.34648360 0 31257
0.17150000 0.17149500 8129.12195425 0 -35.20961942 0 2366.76896209 0 206.62090871 0 313.43269558 0 32608
0.17250000 0.17250900 7877.79493359 0 140.49707714 0 1837.94966888 0 48.71734832 0 476.47670640 0 32361
0.17350000 0.17350400 7966.73701778 0 98.23327506 0 2043.02065440 0 56.84296619 0 374.87929614 0 32508
0.17450000 0.17449800 7766.05986129 0 48.14362409 0 1945.71931048 0 181.09386049 0 506.03948659 0 32791
0.17550000 0.17549800 7792.24708233 0 66.55036252 0 1926.39744731 0 122.57464852 0 772.15723423 0 33633
0.17650000 0.17650100 7667.53922981 0 32.26784103 0 1911.94174979 0 38.69799013 0 714.64311066 0 33984
0.17750000 0.17750300 7474.19976781 0 89.57600387 0 1979.37604087 0 -144.03081414 0 578.99901768 0 34069
0.17850000 0.17849800 7536.62509379 0 45.83532601 0 1864.14787449 0 31.37490513 0 670.64989747 0 34536
