### header ###
fiducial parameters:
Omega_m = 0.31
Omega_nu = 0
Omega_de = 0.69
Omega_k = 0
H_0 = 100
w_de = -1
zeff = 0
beta = 0
fgrowth = 0
b_1 = 2
gamma = 0.55
Lx = 3500 Ly = 3500 Lz = 3500
nx = 700 ny = 700 nz = 700
xoffset = -983.599254 yoffset = -42.9823471 zoffset = 800.977702
bins = 400 dk = 0.001
kx_ny = 0.628318531 ky_ny = 0.628318531 kz_ny = 0.628318531
############################
A(data) = 9.05574797 (not used)
A(ran) = 9.0416807 (used)
Ngal = 502458
weighted Ngal = 0
Nran = 25229228
weighted Nran = 0
SN(data) = 6761.75654
SN(ran) = 134.217521
SN(data+ran) = 6895.97406
############################
13 columns: k_central k_mean P_0(k) sigma^{lin}_{P_0(k)} P^img_1(k) sigma^{lin}_{P_1(k)} P_2(k) sigma^{lin}_{P_2(k)} P^img_3(k) sigma^{lin}_{P_3(k)} P_4(k) sigma^{lin}_{P_4(k)} N_modes
### header ###
0.00050000 0 0 0 0 0 0 0 0 0 0 0 0
0.00150000 0.00179520 26905.28254356 0 6887.32700850 0 12874.02891106 0 8351.05425868 0 -49132.89469909 0 3
0.00250000 0.00253879 46037.99137430 0 4906.05063658 0 2632.02442079 0 40617.21465113 0 15109.27958564 0 6
0.00350000 0.00331552 46898.74248177 0 -2775.17537067 0 28663.80276811 0 -1941.47926546 0 79423.18312932 0 7
0.00450000 0.00420575 47553.42300762 0 -3279.25740643 0 19479.49178713 0 1620.57596207 0 8742.32473403 0 24
0.00550000 0.00557378 47103.60476041 0 4420.86206566 0 30394.53202403 0 13414.46988206 0 26222.26182046 0 45
0.00650000 0.00659388 57773.90872020 0 -12736.06267944 0 18288.21489068 0 8728.30841942 0 -17896.50503243 0 40
0.00750000 0.00754703 71188.59829372 0 -7310.34289861 0 15643.12981309 0 23340.34935802 0 2409.12547397 0 57
0.00850000 0.00846663 72343.73594637 0 -2964.02214249 0 40908.52551599 0 4843.94386320 0 4816.48243175 0 75
0.00950000 0.00948925 84175.65845664 0 3940.58359869 0 25206.18885668 0 -5114.82342306 0 27026.22268769 0 112
0.01050000 0.01054430 77573.27126090 0 7308.99179618 0 59688.51972113 0 -6384.18964599 0 21477.58553967 0 105
0.01150000 0.01145670 74909.07302702 0 5024.69500503 0 57136.47397331 0 6136.83904060 0 5809.96012972 0 144
0.01250000 0.01249090 74905.22842662 0 4349.09985299 0 57710.85727359 0 20522.80649090 0 14596.62958327 0 169
0.01350000 0.01339930 83024.25555866 0 -4715.49027144 0 70969.78560790 0 12374.67024151 0 22554.62288127 0 180
0.01450000 0.01448870 77218.90894942 0 -374.42123946 0 65021.09032647 0 5194.86800346 0 25544.51369219 0 267
0.01550000 0.01550050 78364.05064103 0 -606.17814562 0 51940.44160516 0 15242.52245105 0 14096.94137654 0 238
0.01650000 0.01653350 82622.98912227 0 -1256.40442728 0 46832.06612620 0 13780.47584047 0 11922.10585116 0 315
0.01750000 0.01747870 82314.43247846 0 1286.84267790 0 47716.10452755 0 9075.47583585 0 24484.17290091 0 297
0.01850000 0.01844180 83278.98779682 0 4289.50854673 0 43698.27741447 0 11811.82074244 0 21948.71385769 0 388
0.01950000 0.01947590 82113.30495449 0 -2010.25367439 0 29942.40701658 0 11450.75784170 0 12575.02884540 0 399
0.02050000 0.02045430 80951.02732966 0 2736.22407629 0 37964.87975564 0 5073.15893926 0 13347.24429786 0 462
0.02150000 0.02154770 72184.13010676 0 5348.70694246 0 25618.22017421 0 5004.74702122 0 18173.42610720 0 571
0.02250000 0.02255340 70591.58677392 0 4276.30509049 0 32428.98471182 0 -4738.83248817 0 26314.09284724 0 510
0.02350000 0.02348930 64466.80879402 0 1183.95018653 0 26448.32432418 0 10456.07184074 0 9684.29577117 0 555
0.02450000 0.02439640 67326.53241984 0 -2665.76902776 0 24028.09344733 0 9754.92657287 0 16295.28388725 0 592
0.02550000 0.02547300 65361.06284786 0 384.45125269 0 15774.61514689 0 -1278.12092727 0 7673.91028191 0 837
0.02650000 0.02652900 65713.11839910 0 2939.04322444 0 20596.51297292 0 -5181.62060893 0 4216.63689223 0 723
0.02750000 0.02749970 59757.61268267 0 3545.60033781 0 21737.26083549 0 -2731.55563295 0 8469.39105910 0 826
0.02850000 0.02848090 55771.20144717 0 772.05397925 0 24408.26950437 0 5117.91008795 0 469.17416255 0 831
0.02950000 0.02946900 58977.26864649 0 919.31425773 0 19711.37611432 0 2103.05134356 0 -4948.05564213 0 996
0.03050000 0.03053250 53499.59183735 0 3586.56180896 0 23774.45966643 0 -2803.66935194 0 1269.20145434 0 1041
0.03150000 0.03150510 52733.19820835 0 -1005.00600690 0 20641.33002905 0 5761.07878174 0 4739.84306885 0 1036
0.03250000 0.03246190 54777.09762856 0 -3357.40165577 0 19858.23984973 0 1242.34417438 0 -7306.52026735 0 1059
0.03350000 0.03345080 52888.52006465 0 2384.44313938 0 21308.75265910 0 -1979.33210258 0 -1525.47153266 0 1302
0.03450000 0.03451200 51083.86463526 0 3624.68926039 0 19754.65533029 0 -545.64875686 0 1617.17074457 0 1339
0.03550000 0.03553350 51642.86953393 0 -1513.60819427 0 18732.65069732 0 7047.29533900 0 3154.28592417 0 1365
0.03650000 0.03647120 52616.76173899 0 -1444.17471099 0 18390.26156996 0 5422.28160961 0 2088.05740199 0 1308
0.03750000 0.03744890 51440.75339843 0 1649.20175822 0 12825.58694598 0 1333.18658963 0 1506.22656150 0 1579
0.03850000 0.03847530 50506.51550039 0 1762.03528777 0 16939.85860632 0 -1185.60885699 0 6560.68975822 0 1662
0.03950000 0.03950240 47617.02368286 0 649.20251950 0 17151.86085714 0 -13.77300633 0 5864.26785657 0 1683
0.04050000 0.04050350 46953.99488185 0 302.34267110 0 17246.32818134 0 1002.62125619 0 2177.07637819 0 1822
0.04150000 0.04152450 45552.58311193 0 1802.30473086 0 17030.15179294 0 2722.89978975 0 5197.73497690 0 1887
0.04250000 0.04250150 45528.08751507 0 759.37778249 0 17103.30904633 0 -1065.60569692 0 3354.66649720 0 1920
0.04350000 0.04349210 42346.95529551 0 2247.22385869 0 16509.04366968 0 -434.87373621 0 1482.97222134 0 2005
0.04450000 0.04448520 41742.25457491 0 1335.07593611 0 18690.90932151 0 -81.69545181 0 1810.96057405 0 2151
0.04550000 0.04548030 40356.99012668 0 -244.49571497 0 16741.58707123 0 1256.15178211 0 767.81283578 0 2274
0.04650000 0.04648670 39933.97423657 0 170.47836955 0 15098.95408741 0 1188.03644754 0 -4755.56199221 0 2311
0.04750000 0.04749250 38771.25722883 0 719.56859300 0 14090.02109581 0 264.67986709 0 -960.12304333 0 2568
0.04850000 0.04851840 39130.56259797 0 -5.66470014 0 15154.31633322 0 198.72519794 0 -4336.73122426 0 2493
0.04950000 0.04949480 37463.54386303 0 695.93638355 0 12550.64309427 0 1203.51371030 0 -1988.03188406 0 2644
0.05050000 0.05050630 37558.01118723 0 972.34118341 0 13409.41697867 0 3024.59107570 0 -4130.88033409 0 2829
0.05150000 0.05149060 36355.85956392 0 -174.90295538 0 10373.91822240 0 1177.00793666 0 -1133.99235043 0 2784
0.05250000 0.05249300 36817.76084097 0 424.61744079 0 10330.51817613 0 1341.34812705 0 -1553.86665278 0 3055
0.05350000 0.05348950 36710.33172112 0 216.13794240 0 10472.53771504 0 1404.69615713 0 504.57634152 0 3009
0.05450000 0.05448610 34364.02701775 0 428.53673629 0 9714.16282402 0 -2034.69434839 0 495.51626606 0 3336
0.05550000 0.05550870 33511.29464826 0 1482.40102357 0 12902.58879977 0 -2421.34031868 0 -1234.88564959 0 3349
0.05650000 0.05647670 31781.33431242 0 1627.06784447 0 13408.53821287 0 591.98607784 0 558.85660693 0 3324
0.05750000 0.05747970 31843.83653041 0 585.60513963 0 14854.65719320 0 -589.68700680 0 -1045.74229432 0 3639
0.05850000 0.05849280 31520.67040507 0 511.85581777 0 15634.12246357 0 708.47087932 0 -264.09438937 0 3846
0.05950000 0.05951020 31211.67437835 0 61.48581549 0 16008.47669715 0 -93.21453370 0 77.39587041 0 3787
0.06050000 0.06049470 30200.87400942 0 11.25039924 0 16196.53257974 0 -745.83819833 0 1839.31175588 0 3930
0.06150000 0.06148310 31145.21771424 0 -134.10076053 0 14940.11716788 0 2659.06843848 0 771.39929873 0 4083
0.06250000 0.06249100 31524.62485120 0 -1007.51158790 0 14081.12359202 0 3174.46458400 0 3161.30506605 0 4303
0.06350000 0.06350600 32213.24770632 0 81.20290358 0 14787.32176328 0 749.90249018 0 2315.46002357 0 4470
0.06450000 0.06451750 32810.69860902 0 387.88283316 0 12592.60416153 0 -96.54934009 0 3713.11506967 0 4479
0.06550000 0.06550280 31819.12124210 0 60.82443437 0 12957.18212550 0 544.32621432 0 3550.52142632 0 4636
0.06650000 0.06648880 31533.74204644 0 322.53561088 0 13864.39797499 0 1590.85170867 0 5808.43327414 0 4653
0.06750000 0.06749660 31388.08661401 0 455.26549675 0 13868.68195830 0 531.17548403 0 5163.16652699 0 5220
0.06850000 0.06852730 30579.18268912 0 867.99213772 0 13182.25601769 0 -436.39180414 0 4852.27016922 0 5029
0.06950000 0.06949320 29811.80044859 0 963.46894414 0 13441.71162206 0 967.67274007 0 3876.90603143 0 5040
0.07050000 0.07048030 28915.56917168 0 121.62558145 0 12731.77869613 0 966.26781323 0 6331.36483644 0 5475
0.07150000 0.07148790 28475.85673125 0 -64.38673126 0 14198.21913574 0 912.07652286 0 6663.27468156 0 5509
0.07250000 0.07249820 27793.16554531 0 455.93555568 0 10948.57613699 0 1552.13109032 0 4546.88806689 0 5916
0.07350000 0.07351270 27910.59062621 0 -63.76346661 0 10090.45034237 0 1301.23246799 0 6821.33169643 0 5721
0.07450000 0.07449140 27540.95975885 0 107.25677190 0 11175.92383571 0 805.60196237 0 5370.06095156 0 6028
0.07550000 0.07549160 27018.53348688 0 644.15620686 0 9596.68282026 0 -464.86052090 0 5355.45147003 0 6183
0.07650000 0.07648840 26554.76483249 0 1226.08700696 0 10845.29918558 0 -1229.09677984 0 4645.23294521 0 6330
0.07750000 0.07749960 25620.74662590 0 480.04998786 0 11593.66713098 0 -259.18977771 0 4011.00569350 0 6583
0.07850000 0.07848650 25312.95890217 0 -456.17172399 0 11576.97058066 0 1357.41855674 0 2169.23339336 0 6549
0.07950000 0.07947320 25342.39755669 0 673.45206193 0 11398.91065911 0 -227.50038427 0 2198.46334100 0 6828
0.08050000 0.08048110 24464.29082454 0 462.64712952 0 10991.60270780 0 -539.57538668 0 2551.84802552 0 7147
0.08150000 0.08149960 23673.73113586 0 358.75064822 0 11530.50583864 0 539.26891711 0 2070.11959496 0 7386
0.08250000 0.08250610 23936.70180346 0 80.06446248 0 10040.45955255 0 2248.21247022 0 1534.32509816 0 7227
0.08350000 0.08350160 23669.11761538 0 -236.35394978 0 9364.86440051 0 864.10579594 0 1464.21057138 0 7798
0.08450000 0.08449610 23537.63228158 0 363.06099450 0 9051.86998937 0 -623.55134561 0 -208.49817217 0 7371
0.08550000 0.08548940 22493.32896627 0 750.10240940 0 8062.81907415 0 -319.39182620 0 1849.21984035 0 8256
0.08650000 0.08650700 21890.16608583 0 317.89243205 0 9299.00090331 0 -154.67486498 0 -1110.15582793 0 8037
0.08750000 0.08749060 21402.12152604 0 588.30185220 0 8165.89830325 0 -231.23843432 0 -1124.51266430 0 8155
0.08850000 0.08849210 21469.01757306 0 189.85076175 0 8027.38284300 0 1139.30888356 0 -927.05288912 0 8718
0.08950000 0.08949900 20780.83410084 0 -69.39273052 0 8271.51496862 0 371.79263125 0 424.49001975 0 8571
0.09050000 0.09049190 20481.50449800 0 296.56039209 0 7792.38988177 0 -184.38483844 0 -1687.86745370 0 8932
0.09150000 0.09150830 20069.03379757 0 629.82353655 0 7268.94204455 0 -496.15446973 0 -1343.74276388 0 9285
0.09250000 0.09250820 19647.77543907 0 285.34184812 0 8399.48523920 0 512.19524107 0 -229.91039950 0 9204
0.09350000 0.09350330 19598.67439963 0 18.56645411 0 7409.31389757 0 1124.96303177 0 -724.35786665 0 9349
0.09450000 0.09448040 19578.13324891 0 -172.76975139 0 7180.75789587 0 863.31930054 0 -725.46071773 0 9564
0.09550000 0.09549270 18578.53714400 0 372.89767925 0 6487.13706022 0 -277.20008292 0 -929.43654137 0 10155
0.09650000 0.09649430 18566.89349707 0 456.46061825 0 6555.12057992 0 305.29642267 0 633.50666374 0 9913
0.09750000 0.09749140 17963.95030808 0 187.62089352 0 6429.42411588 0 281.81689878 0 -375.55045353 0 10476
0.09850000 0.09850240 18275.36294076 0 180.47213368 0 6368.18512374 0 6.82701072 0 -1014.21657101 0 10575
0.09950000 0.09950330 17323.33003513 0 227.86507208 0 5479.37941789 0 658.39440984 0 -123.96968924 0 10882
0.10050000 0.10051200 17823.23793331 0 -269.97333262 0 5442.50420773 0 370.05487186 0 -303.46858979 0 10875
0.10150000 0.10150300 17115.83145907 0 189.17850591 0 5587.10512119 0 379.06002447 0 413.04739049 0 11118
0.10250000 0.10250800 17399.23343167 0 277.17921223 0 4990.03867853 0 117.27898608 0 -456.84178291 0 11575
0.10350000 0.10349800 17349.25362643 0 37.70575369 0 5023.45374833 0 387.39841351 0 634.98408875 0 11364
0.10450000 0.10450100 16832.97871510 0 113.22677725 0 4908.36838139 0 -100.48840781 0 407.73964502 0 12093
0.10550000 0.10551000 16728.51542985 0 643.43122507 0 5739.83461836 0 -235.42465494 0 196.18226939 0 12067
0.10650000 0.10649700 16179.61633796 0 500.92287268 0 6045.97465621 0 -526.33018906 0 -82.71811552 0 12054
0.10750000 0.10749900 15583.48358397 0 497.90980442 0 6720.00999894 0 -414.21175518 0 687.27944190 0 12807
0.10850000 0.10850100 14884.09584772 0 23.78028149 0 6544.82803542 0 785.78469498 0 706.92974379 0 12736
0.10950000 0.10950300 14930.01136111 0 -84.43104977 0 6112.53018148 0 585.06579711 0 1118.52607224 0 12933
0.11050000 0.11050200 14877.83464135 0 -249.64967643 0 5230.96330896 0 1100.13789774 0 441.68966350 0 13428
0.11150000 0.11150900 15241.53383952 0 355.84413032 0 4990.77464490 0 515.49280976 0 760.86289671 0 13453
0.11250000 0.11250000 14943.96176829 0 54.07265699 0 4399.95842404 0 -420.90795063 0 1040.07315641 0 13668
0.11350000 0.11349100 14750.30375368 0 39.29631980 0 4518.65771535 0 31.66544707 0 64.71033677 0 13791
0.11450000 0.11448600 14279.94435575 0 120.81272308 0 3607.41052772 0 601.58220045 0 605.47842834 0 14205
0.11550000 0.11549300 14637.38234754 0 85.04300031 0 3810.65807419 0 476.71507163 0 285.51101053 0 14776
0.11650000 0.11649800 14383.08949229 0 54.14262872 0 3528.85984919 0 -156.12482856 0 -107.25622267 0 14553
0.11750000 0.11747300 14148.89840485 0 401.05333569 0 3449.77092661 0 -146.11239065 0 -957.01111392 0 14568
0.11850000 0.11849100 13663.38029676 0 356.38347283 0 4075.83664088 0 -710.00871948 0 197.50481193 0 16015
0.11950000 0.11950300 13176.98342285 0 134.74116111 0 4276.06342989 0 221.18974733 0 729.22732767 0 15270
0.12050000 0.12050700 13129.31037785 0 40.69410666 0 3810.24066044 0 759.37668404 0 375.58999799 0 15999
0.12150000 0.12150000 13172.91913100 0 -88.43932030 0 4080.94446713 0 412.36195316 0 1418.75641003 0 15670
0.12250000 0.12250700 13354.71380722 0 112.26123332 0 3546.32531960 0 395.50063425 0 1001.28003988 0 16887
0.12350000 0.12352200 13283.42393117 0 115.85538547 0 3790.54532180 0 -477.13248539 0 1435.32114549 0 16407
0.12450000 0.12449800 13208.17960898 0 -14.66704069 0 3976.61299675 0 -259.81150452 0 1659.23067298 0 16306
0.12550000 0.12549900 13134.03374406 0 121.14226026 0 4478.04775052 0 112.69292703 0 1472.30620137 0 17523
0.12650000 0.12650100 13207.41068890 0 -41.64987432 0 4157.52890717 0 119.20348320 0 1215.58575557 0 17154
0.12750000 0.12750600 13217.40664995 0 54.49446458 0 4736.83329596 0 396.83965365 0 1580.04288925 0 18007
0.12850000 0.12850300 13326.59330141 0 -32.76093850 0 4067.91676405 0 178.55093194 0 1621.60851189 0 17496
0.12950000 0.12949900 13160.83610116 0 91.92516457 0 4109.44943298 0 -83.30820676 0 889.25717178 0 18405
0.13050000 0.13049000 13086.90992769 0 466.15889738 0 4561.80511645 0 -531.55445178 0 1399.81900690 0 18100
0.13150000 0.13148800 12509.34110136 0 242.52288574 0 4502.38956336 0 -398.76085539 0 937.50690684 0 19059
0.13250000 0.13249300 12338.64084345 0 -77.98793888 0 4632.40296443 0 722.12689995 0 1098.77581074 0 18957
0.13350000 0.13349100 12488.14087628 0 131.97414728 0 4075.54005742 0 467.92961048 0 820.37621249 0 19468
0.13450000 0.13450700 12148.27820061 0 101.16637563 0 3934.26746945 0 197.45428289 0 1218.85915820 0 19953
0.13550000 0.13551000 12042.93614956 0 160.49998382 0 4248.84365904 0 252.31343528 0 753.03199491 0 19956
0.13650000 0.13649900 12020.08823859 0 91.74391912 0 3817.65524693 0 -326.43403569 0 729.21634310 0 19723
0.13750000 0.13749600 11606.40923517 0 201.84701347 0 3785.44848012 0 -168.44732208 0 927.29345126 0 20946
0.13850000 0.13851100 11458.77657968 0 165.70337585 0 4320.50701056 0 7.21810544 0 752.76616826 0 20955
0.13950000 0.13949800 11472.94667831 0 -25.40303240 0 3620.24050850 0 571.16372205 0 743.69400976 0 20506
0.14050000 0.14048300 11538.85411380 0 -142.01844045 0 3813.52504764 0 492.71300314 0 551.53538931 0 21447
0.14150000 0.14148400 11228.86947555 0 239.70204750 0 3398.46198808 0 -285.46267841 0 1056.48520630 0 21771
0.14250000 0.14249400 11384.96025193 0 176.59018573 0 3499.92648501 0 -20.48743617 0 690.49352784 0 22470
0.14350000 0.14350900 10909.74567292 0 164.32041816 0 3507.24221035 0 98.25249807 0 764.03963510 0 22519
0.14450000 0.14449900 10819.55134745 0 212.86783514 0 3961.45428659 0 100.61714700 0 690.63742574 0 22218
0.14550000 0.14550500 10562.87483995 0 172.92353540 0 3538.43839648 0 4.18430930 0 766.46063489 0 23559
0.14650000 0.14650700 10550.52818036 0 21.89620760 0 3736.75386987 0 30.57610701 0 1055.76022451 0 23044
0.14750000 0.14750500 10208.97388052 0 131.88846761 0 3541.65687625 0 322.75090850 0 953.42904480 0 23649
0.14850000 0.14849900 10437.79351196 0 -112.76322829 0 3096.91350158 0 562.70340425 0 1476.43640066 0 23640
0.14950000 0.14949500 10534.69941127 0 -87.47465514 0 2950.01681245 0 555.08230780 0 629.91470851 0 24457
0.15050000 0.15050000 10371.20503297 0 201.43179662 0 2534.88784545 0 -286.84893147 0 1172.00995614 0 24591
0.15150000 0.15149900 9981.43944407 0 184.86486426 0 2931.34303906 0 -608.91330419 0 487.70843187 0 25020
0.15250000 0.15250500 9731.77109387 0 304.66700666 0 3175.91454758 0 -310.27023713 0 987.94147339 0 25297
0.15350000 0.15350100 9579.72264020 0 153.66538275 0 3280.04829565 0 -116.07397847 0 148.72342355 0 25452
0.15450000 0.15450400 9675.07971478 0 42.04762569 0 3286.68297749 0 690.31447930 0 231.54380544 0 26061
0.15550000 0.15549900 9583.63314804 0 -112.66546560 0 2830.86715366 0 323.34627233 0 197.57950702 0 26128
0.15650000 0.15649500 9531.53332028 0 -14.47074638 0 2826.80286180 0 135.69901584 0 565.09913953 0 26331
0.15750000 0.15749700 9419.53461824 0 198.61754913 0 2523.24419852 0 68.44981481 0 759.63591995 0 27345
0.15850000 0.15849900 9225.59100475 0 181.17844170 0 2683.19055987 0 -260.22891828 0 740.43049325 0 26980
0.15950000 0.15949700 8986.05043047 0 208.06318309 0 2844.00470246 0 -32.01036265 0 507.58281904 0 27777
0.16050000 0.16050000 8782.52826968 0 209.08584680 0 2898.07076871 0 28.17070530 0 476.35697456 0 28224
0.16150000 0.16150500 8816.16303092 0 23.96119740 0 2813.25888381 0 365.35017943 0 510.77713275 0 28075
0.16250000 0.16249700 8770.98348390 0 -119.50775586 0 2626.32342762 0 237.84235936 0 564.58945536 0 28590
0.16350000 0.16349900 8819.34855697 0 -13.01770712 0 2340.84537080 0 93.34535996 0 -27.45978377 0 29163
0.16450000 0.16449100 8643.71622597 0 36.19021221 0 2291.89811538 0 -256.20417089 0 514.77991099 0 28996
0.16550000 0.16550500 8534.32086763 0 156.27202183 0 2370.10827216 0 -7.49166524 0 335.70281803 0 30777
0.16650000 0.16650700 8644.49613062 0 -15.29964223 0 2140.58562807 0 141.38463061 0 447.92890072 0 29211
0.16750000 0.16749900 8615.77147332 0 20.01037618 0 2196.17854991 0 509.72041686 0 300.44234004 0 30922
0.16850000 0.16850800 8625.73448065 0 35.40053129 0 1994.61164304 0 189.90788153 0 427.32403947 0 30867
0.16950000 0.16949900 8529.82817745 0 116.54082280 0 2070.09762582 0 12.86128681 0 865.19985937 0 30852
0.17050000 0.17049200 8457.69248930 0 -9.51343074 0 1838.15837576 0 -236.12766758 0 699.99847849 0 31257
0.17150000 0.17149500 8312.45447063 0 249.45524949 0 2393.52738090 0 -155.71071017 0 480.93314750 0 32608
0.17250000 0.17250900 8073.62789357 0 297.96861430 0 2190.47755674 0 -199.43589979 0 415.07514259 0 32361
0.17350000 0.17350400 7882.13383976 0 4.79432655 0 2668.04283428 0 -3.43543606 0 920.79058429 0 32508
0.17450000 0.17449800 7885.68185670 0 -4.94526556 0 2238.83164524 0 428.14129167 0 206.38803577 0 32791
0.17550000 0.17549800 7888.52686100 0 79.17910593 0 2385.96999497 0 125.86672492 0 317.75073106 0 33633
0.17650000 0.17650100 7831.17640755 0 54.52445246 0 1800.37144608 0 -184.60233297 0 15.76670625 0 33984
0.17750000 0.17750300 7669.92288206 0 39.68220783 0 2083.00449860 0 71.87579315 0 274.36606319 0 34069
0.17850000 0.17849800 7654.11608212 0 -2.93740652 0 1774.49179308 0 142.55668450 0 121.84856827 0 34536
