### header ###
fiducial parameters:
Omega_m = 0.31
Omega_nu = 0
Omega_de = 0.69
Omega_k = 0
H_0 = 100
w_de = -1
zeff = 0
beta = 0
fgrowth = 0
b_1 = 2
gamma = 0.55
Lx = 3500 Ly = 3500 Lz = 3500
nx = 700 ny = 700 nz = 700
xoffset = -983.599254 yoffset = -42.9823471 zoffset = 800.977702
bins = 400 dk = 0.001
kx_ny = 0.628318531 ky_ny = 0.628318531 kz_ny = 0.628318531
############################
A(data) = 9.0386219 (not used)
A(ran) = 9.05537537 (used)
Ngal = 502858
weighted Ngal = 0
Nran = 25229228
weighted Nran = 0
SN(data) = 6704.22784
SN(ran) = 134.420809
SN(data+ran) = 6838.64864
############################
13 columns: k_central k_mean P_0(k) sigma^{lin}_{P_0(k)} P^img_1(k) sigma^{lin}_{P_1(k)} P_2(k) sigma^{lin}_{P_2(k)} P^img_3(k) sigma^{lin}_{P_3(k)} P_4(k) sigma^{lin}_{P_4(k)} N_modes
### header ###
0.00050000 0 0 0 0 0 0 0 0 0 0 0 0
0.00150000 0.00179520 109175.33734879 0 -95711.21719866 0 69231.91637980 0 -286257.96146980 0 40568.99237750 0 3
0.00250000 0.00253879 123653.33354818 0 -25255.61943330 0 -83785.92582145 0 33848.30133505 0 55175.61792181 0 6
0.00350000 0.00331552 164662.03836611 0 -3741.71889667 0 -10963.27349511 0 -107514.68966595 0 -68365.78283176 0 7
0.00450000 0.00420575 131833.54474951 0 23130.98340462 0 -19435.33380535 0 -40094.23915053 0 75472.80129189 0 24
0.00550000 0.00557378 111453.86723934 0 8878.36866545 0 9172.70028777 0 7944.99854864 0 -17846.41538146 0 45
0.00650000 0.00659388 105290.31371822 0 -581.59027835 0 -25695.00233655 0 -39772.61086535 0 33916.84506796 0 40
0.00750000 0.00754703 79835.32429257 0 466.25336470 0 11352.66560854 0 23108.90441373 0 -47335.26939615 0 57
0.00850000 0.00846663 102362.15620521 0 6185.24805197 0 -4395.36687270 0 65.73640569 0 17418.89581659 0 75
0.00950000 0.00948925 93013.95540131 0 7399.21907537 0 16366.57376330 0 -10140.52900877 0 -15262.07499024 0 112
0.01050000 0.01054430 80580.51769649 0 12396.63938667 0 29146.46488734 0 -21134.09795505 0 -7593.33844202 0 105
0.01150000 0.01145670 68574.48971081 0 9271.83605532 0 36779.64437411 0 13897.79107564 0 -9632.89895606 0 144
0.01250000 0.01249090 66998.86261974 0 3266.98763885 0 43539.55034067 0 817.81570863 0 -8510.60517543 0 169
0.01350000 0.01339930 69346.04608892 0 379.02926766 0 53030.98997103 0 3039.65092471 0 -3867.65702132 0 180
0.01450000 0.01448870 63426.89930774 0 2721.27407301 0 44818.92350922 0 3797.60840197 0 -10592.10478758 0 267
0.01550000 0.01550050 59960.27804679 0 -569.90708695 0 43107.19756387 0 -5465.64870216 0 4980.50406953 0 238
0.01650000 0.01653350 57368.79768340 0 1285.48059090 0 45743.49498339 0 9136.89058115 0 -8687.64353172 0 315
0.01750000 0.01747870 58140.68359869 0 1681.00209584 0 39401.44215783 0 11494.80597775 0 -6427.27113965 0 297
0.01850000 0.01844180 65602.17421602 0 -3072.80236476 0 35998.42157213 0 16719.39823461 0 -207.34918587 0 388
0.01950000 0.01947590 74770.11818386 0 -5515.13420164 0 18928.50562644 0 15214.73148242 0 -13272.87874149 0 399
0.02050000 0.02045430 74975.96907404 0 -1359.59350211 0 24886.42794884 0 -6514.21403163 0 7688.38794857 0 462
0.02150000 0.02154770 70556.21645021 0 1931.90071817 0 17982.40439001 0 2921.05049455 0 8225.80816211 0 571
0.02250000 0.02255340 68775.72708050 0 1726.92859380 0 23930.98982571 0 2985.12350642 0 18761.54012321 0 510
0.02350000 0.02348930 72113.49930507 0 1696.36951288 0 21381.58037531 0 9042.34636495 0 2978.18125654 0 555
0.02450000 0.02439640 69507.95868877 0 -1167.42938937 0 16754.65871260 0 4529.06010559 0 16314.06750636 0 592
0.02550000 0.02547300 65729.59525797 0 1521.58299397 0 16038.90396320 0 3504.71575866 0 21832.05769687 0 837
0.02650000 0.02652900 68036.13580860 0 1468.00024892 0 14565.21370568 0 3368.24342891 0 16570.99665904 0 723
0.02750000 0.02749970 64163.96412795 0 2744.60530517 0 21033.36942448 0 -2216.03865713 0 18457.04777125 0 826
0.02850000 0.02848090 60065.72994358 0 3939.26544998 0 19628.00320842 0 -2641.04275488 0 12618.96713572 0 831
0.02950000 0.02946900 56984.11795161 0 2548.00342511 0 20828.72683729 0 -1766.69274655 0 11524.90370662 0 996
0.03050000 0.03053250 55072.47278527 0 -1448.19506455 0 20524.78371397 0 10861.80899817 0 6018.41436360 0 1041
0.03150000 0.03150510 54961.96798511 0 -1686.68111987 0 16589.99996960 0 1720.76624859 0 13650.63819256 0 1036
0.03250000 0.03246190 54808.73319760 0 3374.54857357 0 12705.63541339 0 5694.50128732 0 11532.70275315 0 1059
0.03350000 0.03345080 54381.21363273 0 -419.86221932 0 9552.29416246 0 3787.63441006 0 13085.04255035 0 1302
0.03450000 0.03451200 51977.67930621 0 -2160.98397936 0 6091.76933930 0 2067.28557524 0 7337.14525571 0 1339
0.03550000 0.03553350 50834.51483767 0 3414.02712743 0 8729.97807445 0 2635.60539145 0 9342.12633526 0 1365
0.03650000 0.03647120 51627.27144086 0 1443.68040522 0 5169.98794656 0 -3405.01977791 0 9684.41660147 0 1308
0.03750000 0.03744890 49743.52708889 0 970.60232557 0 8709.81039919 0 -2889.66757068 0 1786.79451437 0 1579
0.03850000 0.03847530 42723.61628933 0 2011.36311622 0 7774.27632158 0 -3775.90288655 0 1089.67289544 0 1662
0.03950000 0.03950240 44002.76976643 0 2480.52519575 0 12292.61548433 0 2793.46468402 0 5392.54637163 0 1683
0.04050000 0.04050350 43444.42394212 0 -1615.66585813 0 7335.37673952 0 4367.42212005 0 -1030.63081782 0 1822
0.04150000 0.04152450 43601.28363858 0 -109.67996861 0 2548.19016285 0 2715.81474044 0 -1429.04895454 0 1887
0.04250000 0.04250150 44912.73175906 0 389.52612522 0 5240.42102595 0 881.61520464 0 -1123.10663901 0 1920
0.04350000 0.04349210 43756.49564915 0 -390.63227168 0 3881.32182961 0 -3799.48676388 0 1398.76448794 0 2005
0.04450000 0.04448520 40970.80804252 0 521.77598527 0 3626.10627025 0 -1742.76834747 0 -1975.43257931 0 2151
0.04550000 0.04548030 41162.81837124 0 1618.48889328 0 7124.67066827 0 -2763.26809399 0 -2291.68940850 0 2274
0.04650000 0.04648670 41555.40699530 0 203.06190720 0 6984.84804388 0 1245.24410154 0 -5332.02137671 0 2311
0.04750000 0.04749250 41879.78142363 0 918.83752728 0 7996.21961059 0 1794.51666890 0 -3533.47336968 0 2568
0.04850000 0.04851840 39313.12619427 0 -277.41647900 0 7886.60456080 0 -259.37541699 0 -3653.54573256 0 2493
0.04950000 0.04949480 37894.35879967 0 758.76044951 0 7959.76181419 0 610.48629498 0 -1613.71060421 0 2644
0.05050000 0.05050630 39253.58981088 0 1148.11851077 0 7200.12369733 0 -244.30018958 0 1045.90925982 0 2829
0.05150000 0.05149060 36649.36734330 0 1079.29686818 0 8607.36827530 0 813.67782013 0 -808.91710638 0 2784
0.05250000 0.05249300 35206.10435183 0 1034.40072313 0 8838.50565155 0 -22.54352846 0 1488.81601396 0 3055
0.05350000 0.05348950 34551.64351744 0 945.81783446 0 10687.68155361 0 -1735.01323922 0 -14.73195952 0 3009
0.05450000 0.05448610 33264.58114808 0 97.03266128 0 8947.20898182 0 902.36945607 0 2265.07378914 0 3336
0.05550000 0.05550870 34095.12468096 0 -574.24928849 0 6881.28549358 0 2834.77766149 0 -651.55541495 0 3349
0.05650000 0.05647670 33280.17924115 0 7.17351906 0 8548.06256793 0 -805.05602911 0 -2115.48587972 0 3324
0.05750000 0.05747970 34009.55486055 0 1740.17598834 0 7287.46203392 0 -2227.91298009 0 -716.35121169 0 3639
0.05850000 0.05849280 32318.47991165 0 270.91361203 0 10479.73261008 0 -365.10192809 0 1330.80293737 0 3846
0.05950000 0.05951020 31357.76919369 0 -150.99393470 0 9518.72530865 0 811.96971910 0 -1428.98304711 0 3787
0.06050000 0.06049470 33047.41614815 0 -605.03025778 0 7387.45459813 0 2560.94325161 0 -1322.94896798 0 3930
0.06150000 0.06148310 33639.92399319 0 189.37732667 0 8311.35601337 0 -42.37650380 0 -1611.63451999 0 4083
0.06250000 0.06249100 31502.65570603 0 1231.88686128 0 8409.17363221 0 -453.03453006 0 1733.85985910 0 4303
0.06350000 0.06350600 31023.39880431 0 940.83852771 0 9446.06236103 0 -718.45475734 0 2007.52950039 0 4470
0.06450000 0.06451750 29533.89076228 0 190.80532111 0 9282.57896730 0 1058.31194072 0 1494.22042367 0 4479
0.06550000 0.06550280 29951.08482892 0 537.96944217 0 9653.80259769 0 392.61279012 0 708.27205856 0 4636
0.06650000 0.06648880 28878.22162490 0 367.76349002 0 9581.11768092 0 226.79737163 0 1521.18754935 0 4653
0.06750000 0.06749660 27739.12144821 0 575.21373397 0 10060.52836666 0 -96.48749694 0 1026.16119523 0 5220
0.06850000 0.06852730 27533.70994094 0 675.95983985 0 9860.27960850 0 550.10629642 0 2824.24345639 0 5029
0.06950000 0.06949320 27039.51402051 0 -30.34158638 0 8687.73140830 0 715.77891546 0 1194.82491339 0 5040
0.07050000 0.07048030 28012.30776831 0 -378.36799639 0 8801.26795050 0 887.18548139 0 458.69488031 0 5475
0.07150000 0.07148790 27594.67431877 0 838.82260523 0 9436.98910408 0 -1133.45410638 0 -253.36465887 0 5509
0.07250000 0.07249820 26383.07596305 0 529.28284217 0 9860.36748508 0 -1999.32402468 0 1078.19950938 0 5916
0.07350000 0.07351270 26528.95108693 0 591.90589046 0 11943.08638479 0 340.93257304 0 -534.47085580 0 5721
0.07450000 0.07449140 26371.87169901 0 -210.41278317 0 11334.65090951 0 -170.21803518 0 -2079.92881828 0 6028
0.07550000 0.07549160 25766.18236688 0 596.86872035 0 12717.38890605 0 -564.63668903 0 -2272.94972768 0 6183
0.07650000 0.07648840 24344.11960050 0 231.74482312 0 12098.84762399 0 194.63014928 0 122.49446114 0 6330
0.07750000 0.07749960 25780.46231124 0 175.38407966 0 11621.56794534 0 2048.38112582 0 -679.00476337 0 6583
0.07850000 0.07848650 25131.49376313 0 62.69488739 0 10856.28375817 0 1213.61951708 0 -887.31400089 0 6549
0.07950000 0.07947320 24671.56970915 0 132.27841994 0 10645.66556349 0 1016.58923869 0 513.39255948 0 6828
0.08050000 0.08048110 24551.94771374 0 -6.48524771 0 9309.02981808 0 1468.39569353 0 2231.26327473 0 7147
0.08150000 0.08149960 24455.72285793 0 316.78738405 0 8383.12921062 0 1291.89558129 0 1438.64947098 0 7386
0.08250000 0.08250610 24006.23414790 0 108.74540118 0 7874.42266981 0 257.10929967 0 2294.62228938 0 7227
0.08350000 0.08350160 23565.53309593 0 511.27143851 0 8179.39834296 0 82.85366515 0 2762.82871109 0 7798
0.08450000 0.08449610 21947.28586325 0 729.52061576 0 7230.61687081 0 -677.87115548 0 1566.52088040 0 7371
0.08550000 0.08548940 22287.69776755 0 472.60903840 0 7997.55972844 0 75.70457577 0 2058.39905602 0 8256
0.08650000 0.08650700 21571.06425234 0 -150.95988253 0 7283.37577292 0 1197.37333423 0 679.28926380 0 8037
0.08750000 0.08749060 20880.79371133 0 661.79083968 0 7627.03911070 0 -34.16839178 0 1344.08328563 0 8155
0.08850000 0.08849210 20691.85906293 0 595.73840783 0 6366.70220644 0 -335.72698409 0 -72.31385791 0 8718
0.08950000 0.08949900 20341.45119758 0 154.40134912 0 6672.47975338 0 1359.65940955 0 859.01993884 0 8571
0.09050000 0.09049190 19676.99440214 0 39.74602820 0 6207.03045939 0 515.64769223 0 833.58076719 0 8932
0.09150000 0.09150830 19496.84741180 0 261.73710010 0 5918.98201259 0 -529.92983350 0 633.29466149 0 9285
0.09250000 0.09250820 18767.36194668 0 555.20094118 0 6351.24691281 0 -362.08446600 0 776.46208823 0 9204
0.09350000 0.09350330 18463.41882335 0 70.83357691 0 5809.56468511 0 -14.84268401 0 26.35594407 0 9349
0.09450000 0.09448040 18568.32149150 0 -25.12775901 0 6491.64073498 0 1033.22647232 0 273.58835545 0 9564
0.09550000 0.09549270 18597.10107167 0 157.87247405 0 5637.53529391 0 725.66942461 0 708.88829308 0 10155
0.09650000 0.09649430 18045.78537381 0 37.20342918 0 5440.09858634 0 587.22646254 0 1595.84968919 0 9913
0.09750000 0.09749140 18228.23912438 0 115.85648393 0 4585.67459267 0 382.65857044 0 757.40385480 0 10476
0.09850000 0.09850240 17761.06525250 0 341.44115875 0 5145.26167368 0 103.54135007 0 563.52285337 0 10575
0.09950000 0.09950330 17305.09564465 0 415.00374287 0 4858.55334474 0 -330.75756345 0 1816.56270607 0 10882
0.10050000 0.10051200 16890.20833825 0 165.66273293 0 4575.97521508 0 439.37301714 0 1551.79056857 0 10875
0.10150000 0.10150300 16819.57753655 0 149.97017254 0 4947.87988897 0 256.05258379 0 1109.41986157 0 11118
0.10250000 0.10250800 16701.05399840 0 132.45966539 0 4065.47818894 0 413.80752291 0 1502.75543656 0 11575
0.10350000 0.10349800 16344.60461814 0 89.39739472 0 5134.61762285 0 253.47889843 0 2162.77446469 0 11364
0.10450000 0.10450100 16044.61594094 0 167.75309709 0 3878.94916193 0 -64.98769723 0 1802.49146859 0 12093
0.10550000 0.10551000 16175.44220038 0 363.99138780 0 4889.21128681 0 485.56204639 0 2370.93211510 0 12067
0.10650000 0.10649700 15703.65480801 0 235.34117218 0 4573.13021078 0 -400.50300860 0 1923.95887219 0 12054
0.10750000 0.10749900 15803.94395568 0 159.67943624 0 5575.21981366 0 -731.64063827 0 2009.85822978 0 12807
0.10850000 0.10850100 15122.68076419 0 126.38629521 0 5486.62923579 0 -178.42131398 0 793.58483997 0 12736
0.10950000 0.10950300 15000.53231708 0 -37.37753466 0 5247.62690557 0 359.30646759 0 1530.85397323 0 12933
0.11050000 0.11050200 15044.90999031 0 64.26436312 0 5390.03090451 0 297.57976043 0 1034.00088468 0 13428
0.11150000 0.11150900 15130.58965645 0 384.37765605 0 5282.20634005 0 -108.94279395 0 493.53684608 0 13453
0.11250000 0.11250000 15163.54337419 0 -167.77946006 0 4760.21945099 0 297.57536660 0 307.00452370 0 13668
0.11350000 0.11349100 14591.57667988 0 186.26320035 0 4862.77142061 0 122.46370434 0 138.64617666 0 13791
0.11450000 0.11448600 14440.42896116 0 337.10005566 0 5130.39954698 0 -554.03437957 0 -146.28484844 0 14205
0.11550000 0.11549300 14275.11114381 0 237.65452317 0 4374.37535450 0 145.02711488 0 -252.68581229 0 14776
0.11650000 0.11649800 13908.22641959 0 95.95496486 0 4850.46869932 0 437.32549281 0 -1.20722650 0 14553
0.11750000 0.11747300 13858.57615153 0 27.74933710 0 4097.09178882 0 895.76772795 0 162.56178809 0 14568
0.11850000 0.11849100 13821.22860475 0 49.13651961 0 4533.51984205 0 250.42848262 0 -30.13474688 0 16015
0.11950000 0.11950300 13335.27111375 0 391.59891407 0 4218.77888388 0 -386.46252793 0 824.89087183 0 15270
0.12050000 0.12050700 13306.38168786 0 265.44109797 0 4379.26348929 0 -237.30411530 0 631.87435625 0 15999
0.12150000 0.12150000 12876.33567130 0 -70.81885758 0 4295.69286110 0 720.18812289 0 1560.47936548 0 15670
0.12250000 0.12250700 13371.41035754 0 -29.26103398 0 4418.20379910 0 132.14221124 0 -257.64754372 0 16887
0.12350000 0.12352200 13275.07565600 0 134.88835438 0 3701.39453073 0 42.85092749 0 788.78018792 0 16407
0.12450000 0.12449800 12904.01679421 0 129.66958395 0 4413.35960259 0 -149.68237674 0 1022.68897184 0 16306
0.12550000 0.12549900 13124.25747446 0 -325.22792962 0 3941.70402509 0 -68.64226452 0 493.48851396 0 17523
0.12650000 0.12650100 13214.00143245 0 169.94012549 0 4060.18362495 0 292.01277905 0 53.42083245 0 17154
0.12750000 0.12750600 13123.59840011 0 164.31822124 0 3686.23582056 0 199.95327316 0 185.09114645 0 18007
0.12850000 0.12850300 13103.27694083 0 69.03441376 0 3783.96556282 0 116.99228873 0 473.51636409 0 17496
0.12950000 0.12949900 13019.35480631 0 30.80403689 0 4067.05996739 0 83.68464806 0 -349.67629281 0 18405
0.13050000 0.13049000 12855.79452058 0 44.38272613 0 3652.93059650 0 -371.05336951 0 260.01032529 0 18100
0.13150000 0.13148800 12566.02149588 0 235.83877332 0 3965.65039332 0 -136.62721222 0 -416.56574909 0 19059
0.13250000 0.13249300 12577.33560564 0 292.85749268 0 3886.59442445 0 30.74274297 0 -242.32076960 0 18957
0.13350000 0.13349100 12444.31243168 0 37.07897398 0 4077.06691301 0 438.43823001 0 275.67871962 0 19468
0.13450000 0.13450700 12126.19920972 0 10.35097145 0 4072.00302505 0 151.70573501 0 -176.91642754 0 19953
0.13550000 0.13551000 12140.47915408 0 324.79513746 0 3674.27362102 0 271.03334387 0 266.56152437 0 19956
0.13650000 0.13649900 11510.95329944 0 102.16707020 0 3602.09399459 0 49.00162906 0 598.92613080 0 19723
0.13750000 0.13749600 11610.03414412 0 247.55491844 0 3527.57465420 0 -28.28637285 0 334.74496330 0 20946
0.13850000 0.13851100 11296.64428838 0 51.02169195 0 3818.87453448 0 53.75289608 0 339.73305771 0 20955
0.13950000 0.13949800 11213.05169104 0 12.68465488 0 3112.68734780 0 415.73751232 0 95.05796467 0 20506
0.14050000 0.14048300 11209.09724491 0 83.60665760 0 3014.65003751 0 228.71967183 0 41.23630516 0 21447
0.14150000 0.14148400 10975.86181529 0 171.41095976 0 2894.53373634 0 54.27631096 0 292.15008620 0 21771
0.14250000 0.14249400 10773.50401919 0 260.84185743 0 3232.41918894 0 -242.70852501 0 75.68897768 0 22470
0.14350000 0.14350900 10574.95786978 0 68.99289208 0 3136.98522235 0 212.88980428 0 499.86176297 0 22519
0.14450000 0.14449900 10415.64861364 0 44.88197496 0 3134.23907921 0 318.78547780 0 780.52528163 0 22218
0.14550000 0.14550500 10426.91878511 0 -156.34891384 0 2649.96222781 0 181.91111269 0 526.39389959 0 23559
0.14650000 0.14650700 10672.05050683 0 353.52089321 0 3305.86204122 0 66.17699690 0 463.51491076 0 23044
0.14750000 0.14750500 10275.33168348 0 175.15340364 0 2949.72022899 0 -441.84125060 0 873.00110282 0 23649
0.14850000 0.14849900 10186.81799762 0 -67.01797578 0 3552.67440255 0 93.17290217 0 1083.84777660 0 23640
0.14950000 0.14949500 9969.51019825 0 165.99446702 0 3180.18754632 0 -311.13252608 0 157.21999044 0 24457
0.15050000 0.15050000 9930.13050554 0 207.08994996 0 3630.68683702 0 38.58968224 0 319.43686295 0 24591
0.15150000 0.15149900 9783.84895248 0 -92.97188449 0 3256.78297092 0 428.54991777 0 661.16252213 0 25020
0.15250000 0.15250500 9932.72286467 0 -126.81579199 0 2926.77345686 0 535.79010297 0 394.64054222 0 25297
0.15350000 0.15350100 9908.66665072 0 111.68674018 0 2458.50112772 0 401.15549221 0 186.47190723 0 25452
0.15450000 0.15450400 9897.58321698 0 141.53072542 0 2466.99220233 0 -249.40142509 0 557.94269050 0 26061
0.15550000 0.15549900 9446.84226568 0 283.96218580 0 2668.78978522 0 -401.19613513 0 536.42501127 0 26128
0.15650000 0.15649500 9229.72120404 0 225.09256597 0 2633.81490612 0 165.19259322 0 432.49997007 0 26331
0.15750000 0.15749700 9040.29224987 0 -8.23215725 0 2620.94098705 0 437.67260530 0 373.59410115 0 27345
0.15850000 0.15849900 9127.89421621 0 33.96265074 0 2423.26261888 0 546.43525226 0 593.67660356 0 26980
0.15950000 0.15949700 8959.76434828 0 59.64974418 0 2233.24049780 0 -214.33207866 0 517.55571249 0 27777
0.16050000 0.16050000 8791.00835971 0 246.90243483 0 2436.24638367 0 -365.74562404 0 749.85196115 0 28224
0.16150000 0.16150500 8517.83302419 0 205.49828539 0 2509.54643651 0 -323.79993518 0 507.40157359 0 28075
0.16250000 0.16249700 8399.34243975 0 9.17914823 0 2578.59545975 0 386.52733691 0 508.52859074 0 28590
0.16350000 0.16349900 8579.24776949 0 -15.77077055 0 2667.97692685 0 269.58447875 0 -60.92285614 0 29163
0.16450000 0.16449100 8455.81412739 0 140.30265021 0 2539.71007281 0 -363.50477123 0 370.74470302 0 28996
0.16550000 0.16550500 8234.83748077 0 47.08504083 0 2340.39500333 0 54.77094627 0 530.81628851 0 30777
0.16650000 0.16650700 8329.21692839 0 -4.06040332 0 2554.86878298 0 353.12764552 0 269.47353457 0 29211
0.16750000 0.16749900 8322.29664767 0 22.87339518 0 2281.71541660 0 88.93977743 0 247.47363260 0 30922
0.16850000 0.16850800 8416.07194379 0 -54.00707909 0 2221.45405142 0 171.51751011 0 186.60482055 0 30867
0.16950000 0.16949900 8296.37305637 0 -76.04960120 0 1858.07340585 0 244.48143503 0 444.95427847 0 30852
0.17050000 0.17049200 8526.18129935 0 8.36364258 0 1831.85323110 0 89.47252920 0 318.45044833 0 31257
0.17150000 0.17149500 8517.99779278 0 116.83630780 0 1873.56165319 0 -274.19580232 0 335.81376221 0 32608
0.17250000 0.17250900 8257.38880828 0 102.22935272 0 1722.20522759 0 22.01407206 0 -80.47023259 0 32361
0.17350000 0.17350400 8186.01105565 0 183.35009170 0 2014.69144172 0 -124.51342558 0 114.76571587 0 32508
0.17450000 0.17449800 7943.94402967 0 148.71902972 0 1920.03737978 0 186.18301297 0 309.98244133 0 32791
0.17550000 0.17549800 7925.66570090 0 35.43403423 0 2177.65856053 0 169.65892043 0 458.31261718 0 33633
0.17650000 0.17650100 7756.85478947 0 69.66492823 0 1846.40778977 0 124.31790019 0 430.47002106 0 33984
0.17750000 0.17750300 7802.94605602 0 -7.74828682 0 1746.01978095 0 246.06870577 0 798.76845977 0 34069
0.17850000 0.17849800 7748.89097435 0 -44.87296761 0 1587.35861458 0 196.94240181 0 711.25986230 0 34536
