### header ###
fiducial parameters:
Omega_m = 0.31
Omega_nu = 0
Omega_de = 0.69
Omega_k = 0
H_0 = 100
w_de = -1
zeff = 0
beta = 0
fgrowth = 0
b_1 = 2
gamma = 0.55
Lx = 3500 Ly = 3500 Lz = 3500
nx = 700 ny = 700 nz = 700
xoffset = -983.599254 yoffset = -42.9823471 zoffset = 800.977702
bins = 400 dk = 0.001
kx_ny = 0.628318531 ky_ny = 0.628318531 kz_ny = 0.628318531
############################
A(data) = 9.021495 (not used)
A(ran) = 9.02040778 (used)
Ngal = 501399
weighted Ngal = 0
Nran = 25229228
weighted Nran = 0
SN(data) = 6723.17802
SN(ran) = 133.901739
SN(data+ran) = 6857.07976
############################
13 columns: k_central k_mean P_0(k) sigma^{lin}_{P_0(k)} P^img_1(k) sigma^{lin}_{P_1(k)} P_2(k) sigma^{lin}_{P_2(k)} P^img_3(k) sigma^{lin}_{P_3(k)} P_4(k) sigma^{lin}_{P_4(k)} N_modes
### header ###
0.00050000 0 0 0 0 0 0 0 0 0 0 0 0
0.00150000 0.00179520 14062.66951009 0 -19549.46351447 0 12675.42783879 0 -57877.71293110 0 -7390.79390820 0 3
0.00250000 0.00253879 22952.26440872 0 -13015.94958881 0 -29992.16713037 0 11655.72996606 0 31628.20937064 0 6
0.00350000 0.00331552 21852.37915615 0 2195.65129042 0 5576.01070289 0 -23464.25533673 0 -18507.68665085 0 7
0.00450000 0.00420575 29818.72072931 0 -428.63340053 0 -4523.93031019 0 -17330.25031586 0 1350.10283140 0 24
0.00550000 0.00557378 38453.47354406 0 -2365.32998309 0 1727.32403842 0 1046.12785281 0 -5216.62844174 0 45
0.00650000 0.00659388 35926.25293027 0 -2625.58746126 0 3764.14939388 0 -5069.11661655 0 18885.99533056 0 40
0.00750000 0.00754703 47607.35725899 0 -13462.25277279 0 -2548.14622456 0 2128.61244396 0 -16065.92601175 0 57
0.00850000 0.00846663 51272.25005503 0 -8080.30651370 0 -6139.28860029 0 -1509.52193327 0 -19616.13987004 0 75
0.00950000 0.00948925 59627.11596040 0 4261.75053182 0 3969.90142291 0 -25214.42728612 0 -29558.16666768 0 112
0.01050000 0.01054430 61962.65578265 0 3682.66583448 0 12783.62587872 0 -4648.08893408 0 -9359.22931477 0 105
0.01150000 0.01145670 62576.58354422 0 1506.55609868 0 16383.81954225 0 -4347.26542936 0 -8581.06022396 0 144
0.01250000 0.01249090 71053.26835952 0 -5577.14211386 0 18726.38949095 0 6646.94062213 0 -10585.34927545 0 169
0.01350000 0.01339930 71431.57703922 0 -575.24119540 0 22306.59123239 0 -3235.49486926 0 -16203.45286047 0 180
0.01450000 0.01448870 69999.07892888 0 -2152.28419787 0 16039.23350037 0 13275.51503891 0 -120.13607341 0 267
0.01550000 0.01550050 75131.29093034 0 -490.63911583 0 16554.19026299 0 2383.21286725 0 16389.20198282 0 238
0.01650000 0.01653350 77563.05560840 0 3146.55278507 0 12684.87457121 0 641.87471113 0 -3076.14167482 0 315
0.01750000 0.01747870 65651.93432982 0 2050.91856209 0 19284.84516098 0 -7351.55701493 0 13546.72413594 0 297
0.01850000 0.01844180 68163.77654199 0 2130.55671330 0 21705.95480364 0 4795.21629923 0 4519.14103655 0 388
0.01950000 0.01947590 75855.39395490 0 -6762.30060338 0 20679.22680446 0 15506.70142163 0 15066.76928975 0 399
0.02050000 0.02045430 77053.37144062 0 -4036.34710245 0 8624.19664049 0 -951.18929045 0 -14312.34884486 0 462
0.02150000 0.02154770 75123.38203808 0 9345.36678417 0 26220.94367175 0 -12662.02666024 0 7178.83559567 0 571
0.02250000 0.02255340 69756.75925774 0 5049.98149111 0 30073.78250465 0 -8456.25351030 0 -1871.04618607 0 510
0.02350000 0.02348930 65043.05947163 0 2593.47955560 0 37417.29881246 0 11552.69467525 0 1154.90697663 0 555
0.02450000 0.02439640 69232.90499134 0 -617.14733979 0 38672.83545851 0 2187.56664500 0 9314.92853355 0 592
0.02550000 0.02547300 62639.41529938 0 -1813.45407203 0 29968.55029932 0 4945.05685381 0 7941.31871683 0 837
0.02650000 0.02652900 68553.06979428 0 2127.99730789 0 36275.89187553 0 7182.26278231 0 9311.31460917 0 723
0.02750000 0.02749970 63397.02127032 0 1660.93328173 0 30917.61737035 0 -201.30108021 0 11677.04003687 0 826
0.02850000 0.02848090 64620.92234733 0 224.68723524 0 32342.42627988 0 9619.01445632 0 12395.10154651 0 831
0.02950000 0.02946900 66421.51348487 0 -1012.25033252 0 28601.08085867 0 -654.29386889 0 6423.54736955 0 996
0.03050000 0.03053250 64787.88785057 0 3407.00798555 0 25771.89434462 0 4401.73792480 0 3487.34914941 0 1041
0.03150000 0.03150510 60314.09112964 0 858.25541258 0 30086.19507167 0 -6546.31095271 0 11076.73314530 0 1036
0.03250000 0.03246190 57099.12642653 0 4078.30816971 0 27523.16475127 0 -43.12861748 0 -1854.71212664 0 1059
0.03350000 0.03345080 53537.04922985 0 792.33699252 0 28496.06834479 0 760.94528100 0 2858.77895258 0 1302
0.03450000 0.03451200 52429.47477648 0 1754.33510239 0 30363.44568362 0 2149.88956105 0 -4278.06262210 0 1339
0.03550000 0.03553350 48936.92992424 0 4290.27746681 0 28185.20494074 0 2497.01303919 0 -90.06229090 0 1365
0.03650000 0.03647120 47501.46597931 0 1061.87313915 0 28195.96982187 0 -558.38097494 0 -256.35465953 0 1308
0.03750000 0.03744890 48089.79968677 0 -994.23892885 0 26969.54229317 0 5131.53095796 0 -4039.26899876 0 1579
0.03850000 0.03847530 43856.23556819 0 96.81791289 0 23309.26301761 0 4513.98927200 0 -2340.55977191 0 1662
0.03950000 0.03950240 44896.47459164 0 2444.03444563 0 23109.12410518 0 -2633.97967471 0 -854.74364473 0 1683
0.04050000 0.04050350 43528.34607664 0 1591.63161332 0 23432.83945915 0 479.08993622 0 1527.64647803 0 1822
0.04150000 0.04152450 43110.60278137 0 -688.16589691 0 22609.65558990 0 2245.19171276 0 -3146.47589306 0 1887
0.04250000 0.04250150 42788.97449619 0 -823.71991639 0 19377.66479930 0 4874.88740416 0 946.43406898 0 1920
0.04350000 0.04349210 42878.49876272 0 -886.24849735 0 16536.28540968 0 4083.63568741 0 -1128.19249611 0 2005
0.04450000 0.04448520 44148.31535313 0 647.04405099 0 15541.08313381 0 2309.55032352 0 3747.80434988 0 2151
0.04550000 0.04548030 41644.82141611 0 1691.65713124 0 16740.26892252 0 -1192.68292174 0 -1799.78926374 0 2274
0.04650000 0.04648670 39332.01965911 0 1753.85178120 0 15629.17940591 0 -1484.32332377 0 4884.50988975 0 2311
0.04750000 0.04749250 39349.92451242 0 -1348.40022265 0 13021.88125800 0 4596.76901098 0 3901.44556658 0 2568
0.04850000 0.04851840 42866.96496151 0 -1060.90539831 0 13472.46842529 0 3781.50501856 0 622.07392060 0 2493
0.04950000 0.04949480 40247.25424659 0 905.89770078 0 10540.24662043 0 -1249.94549860 0 942.13690419 0 2644
0.05050000 0.05050630 38744.89425464 0 1496.90065938 0 10194.46326014 0 -886.71973551 0 1576.90130149 0 2829
0.05150000 0.05149060 39402.76030654 0 736.88137785 0 10740.12190312 0 -1235.44586280 0 -1982.64944350 0 2784
0.05250000 0.05249300 37033.60769219 0 646.77602742 0 12967.06824082 0 731.92843407 0 -1174.55837698 0 3055
0.05350000 0.05348950 34910.17996649 0 1578.15354276 0 12348.08757587 0 -1507.05040444 0 -45.76535428 0 3009
0.05450000 0.05448610 34110.50308257 0 1466.33059388 0 14167.02294961 0 369.28705024 0 -2209.25019128 0 3336
0.05550000 0.05550870 33689.13487835 0 -12.14827820 0 14400.33527124 0 1238.62040427 0 -1055.99639282 0 3349
0.05650000 0.05647670 34070.07985547 0 -576.40226472 0 12773.41022621 0 1919.04876825 0 840.89209870 0 3324
0.05750000 0.05747970 34508.47414719 0 -237.05366705 0 11073.10823635 0 1260.63348773 0 879.84998382 0 3639
0.05850000 0.05849280 33518.98384907 0 108.29294663 0 11886.40599027 0 1663.66844031 0 3385.67594559 0 3846
0.05950000 0.05951020 34644.02377285 0 1140.95656945 0 11464.81809460 0 1472.77853799 0 4278.80957304 0 3787
0.06050000 0.06049470 32973.16043750 0 -260.44970819 0 11580.81518106 0 -1073.58928427 0 2248.84957543 0 3930
0.06150000 0.06148310 32849.58399596 0 1128.02772752 0 11095.18722724 0 -616.35645057 0 2052.22572623 0 4083
0.06250000 0.06249100 31221.78018513 0 853.27390892 0 13244.75823568 0 -1123.84260537 0 1977.81623156 0 4303
0.06350000 0.06350600 30744.83004365 0 194.73669964 0 13370.09220883 0 -888.12356389 0 -301.66382452 0 4470
0.06450000 0.06451750 31186.51970714 0 -606.52306119 0 11354.64283161 0 3436.22694861 0 -11.89200812 0 4479
0.06550000 0.06550280 31129.18023827 0 351.22841292 0 10652.43206020 0 -541.49878534 0 -5032.18648353 0 4636
0.06650000 0.06648880 30918.05675326 0 384.83241736 0 8776.87121480 0 543.60342945 0 -1935.63547285 0 4653
0.06750000 0.06749660 29951.63405755 0 52.82349139 0 9466.90009521 0 1073.99791037 0 -4324.81296301 0 5220
0.06850000 0.06852730 31212.44329844 0 36.89377408 0 7573.32455078 0 -422.59298406 0 -3942.15439257 0 5029
0.06950000 0.06949320 28749.81197142 0 702.04051053 0 8418.59839549 0 -526.26428163 0 -3810.65807419 0 5040
0.07050000 0.07048030 28200.58334236 0 704.15174538 0 8312.79499238 0 103.37855871 0 -2383.82800331 0 5475
0.07150000 0.07148790 28319.21672624 0 196.67657515 0 7990.17809567 0 2247.69619531 0 -2723.25129608 0 5509
0.07250000 0.07249820 28283.40701962 0 354.17667220 0 8715.40154663 0 1547.28689381 0 -989.50128270 0 5916
0.07350000 0.07351270 27574.02332232 0 -330.90365827 0 6681.05870457 0 593.52281954 0 2165.49863869 0 5721
0.07450000 0.07449140 27659.48329700 0 -113.28938932 0 6774.98778471 0 1563.55504580 0 2275.60799424 0 6028
0.07550000 0.07549160 27251.73596278 0 412.28286424 0 5525.41576158 0 628.56140916 0 1092.11037210 0 6183
0.07650000 0.07648840 27345.65405835 0 729.09551280 0 5636.37092922 0 -328.16190895 0 2143.46358609 0 6330
0.07750000 0.07749960 26177.66445578 0 755.90006681 0 6682.16814640 0 -561.27431136 0 2711.78340230 0 6583
0.07850000 0.07848650 25348.10953443 0 506.82708045 0 6827.76865597 0 -1322.54253879 0 2442.17805286 0 6549
0.07950000 0.07947320 24449.24196010 0 264.70183624 0 7848.02674189 0 29.97041768 0 -18.36719397 0 6828
0.08050000 0.08048110 24434.74232429 0 107.97428418 0 7507.39514615 0 149.96687717 0 509.97525895 0 7147
0.08150000 0.08149960 24292.49210937 0 291.37128001 0 7725.07642099 0 134.46325143 0 -90.24155913 0 7386
0.08250000 0.08250610 23749.52468667 0 736.55952987 0 7817.31387696 0 -553.34784379 0 -1047.83595385 0 7227
0.08350000 0.08350160 23244.78357656 0 253.41299099 0 8385.08446454 0 -275.89621415 0 32.93537351 0 7798
0.08450000 0.08449610 23404.27957044 0 147.37232112 0 8273.44825340 0 1008.43429200 0 -256.84896530 0 7371
0.08550000 0.08548940 22845.38451750 0 291.29658491 0 8206.44236065 0 452.51056595 0 -102.43773006 0 8256
0.08650000 0.08650700 22085.25209487 0 604.04604008 0 8330.20553992 0 -374.79581339 0 -1239.11471004 0 8037
0.08750000 0.08749060 21683.76596702 0 601.44049946 0 8425.73836766 0 -4.61334473 0 543.96372343 0 8155
0.08850000 0.08849210 20682.96155914 0 212.38780932 0 7932.42121304 0 130.59997725 0 -18.04699368 0 8718
0.08950000 0.08949900 20205.57203475 0 515.81355927 0 8068.28939129 0 384.49628944 0 -592.05637910 0 8571
0.09050000 0.09049190 20186.78841564 0 282.95270358 0 7369.01150077 0 911.61077698 0 -409.48179823 0 8932
0.09150000 0.09150830 19752.56826150 0 -72.21466722 0 6561.16209484 0 1066.47787198 0 177.65019699 0 9285
0.09250000 0.09250820 19137.76173412 0 201.96344994 0 6438.46441911 0 402.57579745 0 -116.85278466 0 9204
0.09350000 0.09350330 18190.56204043 0 903.14276998 0 6090.76974319 0 -307.89317563 0 592.56276790 0 9349
0.09450000 0.09448040 18331.05472375 0 239.08910835 0 6184.03974898 0 744.26740445 0 1096.00989536 0 9564
0.09550000 0.09549270 17759.85694952 0 -350.42214529 0 5721.89681134 0 908.77895417 0 1214.92668121 0 10155
0.09650000 0.09649430 17748.54283976 0 211.26298909 0 5685.81249041 0 358.47932928 0 1582.30571120 0 9913
0.09750000 0.09749140 16889.65910962 0 768.06657940 0 6266.54487364 0 -848.75485576 0 2137.20237972 0 10476
0.09850000 0.09850240 16958.97176261 0 201.52626395 0 6304.92497024 0 146.41226948 0 2292.23863713 0 10575
0.09950000 0.09950330 17374.40829764 0 -118.20169018 0 6382.51999095 0 523.41488350 0 852.96414397 0 10882
0.10050000 0.10051200 17056.29507568 0 -12.81537129 0 6165.97012709 0 -680.41408403 0 1128.01674295 0 10875
0.10150000 0.10150300 16521.23654524 0 398.42143210 0 6676.17056977 0 110.65309190 0 1751.06169976 0 11118
0.10250000 0.10250800 16358.00579668 0 194.95639109 0 6695.25077234 0 -84.32186312 0 1028.55583206 0 11575
0.10350000 0.10349800 16366.57376330 0 316.63030466 0 6614.09675011 0 651.29178521 0 1258.42558864 0 11364
0.10450000 0.10450100 16230.03552611 0 -54.48523754 0 6843.98188510 0 -115.94436051 0 862.93593896 0 12093
0.10550000 0.10551000 15855.35175536 0 117.83041162 0 6161.83992779 0 -136.70520269 0 97.56167830 0 12067
0.10650000 0.10649700 15916.42597891 0 138.15406781 0 6657.92519471 0 403.86318935 0 841.64344347 0 12054
0.10750000 0.10749900 15604.90350051 0 -87.57219814 0 5929.69197086 0 377.35741572 0 -133.13961043 0 12807
0.10850000 0.10850100 15962.56118376 0 134.16996334 0 5773.65611734 0 -211.15424182 0 -267.88406691 0 12736
0.10950000 0.10950300 15594.68784801 0 324.18988751 0 6168.18901075 0 56.37908769 0 -947.38313605 0 12933
0.11050000 0.11050200 15426.29435034 0 278.83678423 0 6364.25264675 0 73.11737939 0 123.03819748 0 13428
0.11150000 0.11150900 14957.14325539 0 -54.31124191 0 5653.84738420 0 -348.63934916 0 -290.67595656 0 13453
0.11250000 0.11250000 14833.34712239 0 119.80433932 0 5979.47405380 0 709.95269816 0 -63.26454732 0 13668
0.11350000 0.11349100 14896.06903183 0 245.23387825 0 5642.59918187 0 445.56831607 0 -808.70290721 0 13791
0.11450000 0.11448600 14556.64573907 0 251.27429471 0 5949.00284946 0 -103.73874284 0 490.15140081 0 14205
0.11550000 0.11549300 14534.34705673 0 18.25833685 0 5345.74110786 0 460.28544642 0 -170.09610642 0 14776
0.11650000 0.11649800 14239.74082010 0 15.01558118 0 5388.29534204 0 -206.71757295 0 -421.89326679 0 14553
0.11750000 0.11747300 14067.72241347 0 353.49562870 0 5454.99366676 0 111.36269529 0 -690.93071382 0 14568
0.11850000 0.11849100 13951.17609839 0 47.54101044 0 5404.77220092 0 165.95382410 0 200.59147682 0 16015
0.11950000 0.11950300 13652.39572417 0 -75.52981122 0 5127.43371238 0 306.08950881 0 550.58082995 0 15270
0.12050000 0.12050700 13602.85530183 0 188.59412665 0 4730.39633643 0 430.82592121 0 -532.10807424 0 15999
0.12150000 0.12150000 13560.12531449 0 337.47682650 0 4827.22534373 0 -87.86131209 0 24.09652733 0 15670
0.12250000 0.12250700 13468.51397916 0 -47.93997012 0 4708.82263588 0 437.94721962 0 350.68907040 0 16887
0.12350000 0.12352200 13445.33653102 0 -117.70189212 0 4440.79906490 0 811.70389244 0 743.05470764 0 16407
0.12450000 0.12449800 13329.11975311 0 0.40105114 0 4140.37100480 0 24.69013364 0 263.11895933 0 16306
0.12550000 0.12549900 13324.17669544 0 227.28069282 0 3880.25632607 0 382.25543663 0 1128.07166581 0 17523
0.12650000 0.12650100 13133.92389833 0 78.50058888 0 3696.75904110 0 99.97213290 0 889.39008511 0 17154
0.12750000 0.12750600 12867.43816751 0 161.07008313 0 3809.82324668 0 -56.27759024 0 1112.17698929 0 18007
0.12850000 0.12850300 12770.33454589 0 220.95357902 0 3827.61825426 0 -158.80726118 0 656.59953068 0 17496
0.12950000 0.12949900 12653.23900218 0 243.67626586 0 3888.11029546 0 83.43595734 0 701.22435679 0 18405
0.13050000 0.13049000 12461.88774781 0 -153.66538275 0 3727.92227351 0 198.18915080 0 880.01585087 0 18100
0.13150000 0.13148800 12455.84623289 0 64.90959691 0 3435.06258392 0 104.60399762 0 96.97510212 0 19059
0.13250000 0.13249300 12035.13710302 0 126.37091680 0 3164.63339154 0 44.07010520 0 348.33287958 0 18957
0.13350000 0.13349100 12195.84139989 0 150.94230721 0 3243.77723699 0 181.48381282 0 297.11950684 0 19468
0.13450000 0.13450700 11820.49855478 0 148.70255286 0 2898.29046016 0 296.97670739 0 58.12003260 0 19953
0.13550000 0.13551000 11874.65249761 0 80.97189802 0 2965.50505979 0 231.63058357 0 680.97429724 0 19956
0.13650000 0.13649900 11619.70056800 0 20.29751291 0 2624.45605028 0 324.42385890 0 241.80229778 0 19723
0.13750000 0.13749600 11718.23218405 0 232.86524952 0 2873.05889694 0 -610.39622149 0 221.82795099 0 20946
0.13850000 0.13851100 11278.51974362 0 156.73007851 0 2716.33101535 0 -406.39513333 0 -204.08896473 0 20955
0.13950000 0.13949800 11230.62700717 0 179.29239059 0 3181.91212421 0 361.17384493 0 38.87967496 0 20506
0.14050000 0.14048300 10990.94363344 0 -35.14316275 0 2705.47825764 0 327.06894398 0 81.31923020 0 21447
0.14150000 0.14148400 11303.56456911 0 -39.42044547 0 2894.32502946 0 327.03269489 0 -87.26594826 0 21771
0.14250000 0.14249400 11133.41353982 0 213.69826883 0 2816.32357956 0 98.15078092 0 344.69369069 0 22470
0.14350000 0.14350900 10754.87418409 0 248.22058354 0 2940.29546571 0 -435.74920664 0 114.83272177 0 22519
0.14450000 0.14449900 10539.91708325 0 260.98355842 0 3388.64178019 0 -297.17772507 0 737.49431700 0 22218
0.14550000 0.14550500 10470.08815535 0 76.26896311 0 3691.48644626 0 -155.22409360 0 7.23894318 0 23559
0.14650000 0.14650700 10071.29324779 0 138.33751017 0 3696.69313366 0 -17.14010736 0 575.22801391 0 23044
0.14750000 0.14750500 10163.93713294 0 164.15674803 0 3638.77148244 0 20.45613014 0 71.51066596 0 23649
0.14850000 0.14849900 9824.87633107 0 52.84216517 0 3575.76397411 0 162.80674406 0 276.05549046 0 23640
0.14950000 0.14949500 9776.43436598 0 230.74852239 0 4007.41373827 0 -165.92306730 0 -121.73872255 0 24457
0.15050000 0.15050000 9663.50197528 0 127.70664083 0 3837.78996847 0 305.31729336 0 417.02710114 0 24591
0.15150000 0.15149900 9632.82206406 0 -154.25415585 0 3250.51077998 0 700.11821033 0 112.21180275 0 25020
0.15250000 0.15250500 9992.38007836 0 -211.24211840 0 2676.43504773 0 636.20777014 0 285.58900100 0 25297
0.15350000 0.15350100 9835.53136647 0 29.40767802 0 2247.03712096 0 226.96763250 0 581.25085506 0 25452
0.15450000 0.15450400 9885.81873975 0 107.67649242 0 2277.76097047 0 -106.25574780 0 406.20510023 0 26061
0.15550000 0.15549900 9488.95711696 0 151.89247274 0 2252.60629926 0 -359.20650798 0 365.43366218 0 26128
0.15650000 0.15649500 9342.99411650 0 292.01387750 0 2657.60749033 0 -185.85677116 0 252.61660948 0 26331
0.15750000 0.15749700 9189.33093066 0 75.72995014 0 2813.61039013 0 26.69086369 0 259.64453902 0 27345
0.15850000 0.15849900 9128.17981510 0 119.38472864 0 2708.29030822 0 102.67334915 0 -139.20089758 0 26980
0.15950000 0.15949700 8980.43731388 0 200.85730348 0 2839.84154945 0 83.72605990 0 435.77447116 0 27777
0.16050000 0.16050000 8889.39717632 0 46.66422186 0 2739.27778747 0 243.52358030 0 687.82537516 0 28224
0.16150000 0.16150500 8835.16634149 0 -34.77968324 0 2600.32294432 0 298.31023451 0 479.40739037 0 28075
0.16250000 0.16249700 8663.88390123 0 204.17684131 0 2733.29119542 0 -114.81185108 0 559.78150795 0 28590
0.16350000 0.16349900 8419.44420758 0 184.90331026 0 2615.70134593 0 -133.44937538 0 860.91807298 0 29163
0.16450000 0.16449100 8480.94682946 0 -87.81012399 0 2579.93557761 0 205.88933618 0 747.40459838 0 28996
0.16550000 0.16550500 8386.35867496 0 -67.10519328 0 2400.87605996 0 175.34783057 0 543.04541316 0 30777
0.16650000 0.16650700 8464.81049234 0 152.11875494 0 2266.72147502 0 54.30388224 0 593.47668434 0 29211
0.16750000 0.16749900 8233.65114693 0 225.88125828 0 2437.65240896 0 -93.15126256 0 466.53347130 0 30922
0.16850000 0.16850800 8163.31692870 0 76.60432211 0 2624.54392686 0 -134.61813390 0 569.79174894 0 30867
0.16950000 0.16949900 8045.97972438 0 37.34963385 0 2580.18822278 0 -34.82999259 0 248.56549911 0 30852
0.17050000 0.17049200 8018.68306152 0 1.24985762 0 2515.43416741 0 393.20595704 0 635.52672664 0 31257
0.17150000 0.17149500 8062.68725928 0 7.13094286 0 2367.98824965 0 137.11053342 0 552.67229257 0 32608
0.17250000 0.17250900 8110.54704202 0 20.58267241 0 2203.51624439 0 91.98722740 0 568.28246867 0 32361
0.17350000 0.17350400 8154.36450204 0 18.40695812 0 2115.39800314 0 131.20522720 0 782.00270664 0 32508
0.17450000 0.17449800 8109.49252305 0 -8.59569167 0 2174.67075679 0 -33.54688466 0 881.72285345 0 32791
0.17550000 0.17549800 8023.83482606 0 -30.97396823 0 1772.82213805 0 358.42660333 0 1044.58342191 0 33633
0.17650000 0.17650100 8037.00532858 0 52.30699679 0 1916.67610057 0 157.52646002 0 577.61825690 0 33984
0.17750000 0.17750300 8037.31289662 0 150.67538210 0 1828.62376676 0 -145.46539932 0 903.56238065 0 34069
0.17850000 0.17849800 7772.05743792 0 90.32262527 0 1723.62223746 0 -143.90559002 0 838.45791742 0 34536
