### header ###
fiducial parameters:
Omega_m = 0.31
Omega_nu = 0
Omega_de = 0.69
Omega_k = 0
H_0 = 100
w_de = -1
zeff = 0
beta = 0
fgrowth = 0
b_1 = 2
gamma = 0.55
Lx = 3500 Ly = 3500 Lz = 3500
nx = 700 ny = 700 nz = 700
xoffset = -983.599254 yoffset = -42.9823471 zoffset = 800.977702
bins = 400 dk = 0.001
kx_ny = 0.628318531 ky_ny = 0.628318531 kz_ny = 0.628318531
############################
A(data) = 9.05833036 (not used)
A(ran) = 9.05399052 (used)
Ngal = 503670
weighted Ngal = 0
Nran = 25229228
weighted Nran = 0
SN(data) = 6755.89472
SN(ran) = 134.400252
SN(data+ran) = 6890.29498
############################
13 columns: k_central k_mean P_0(k) sigma^{lin}_{P_0(k)} P^img_1(k) sigma^{lin}_{P_1(k)} P_2(k) sigma^{lin}_{P_2(k)} P^img_3(k) sigma^{lin}_{P_3(k)} P_4(k) sigma^{lin}_{P_4(k)} N_modes
### header ###
0.00050000 0 0 0 0 0 0 0 0 0 0 0 0
0.00150000 0.00179520 19570.55389382 0 -20915.39511496 0 -18763.95672918 0 29342.97889082 0 30317.85970741 0 3
0.00250000 0.00253879 21296.12040063 0 -11894.09519108 0 -10019.75363323 0 -15643.78888745 0 -23619.57719303 0 6
0.00350000 0.00331552 30763.61366276 0 -12865.24125299 0 -33226.90406413 0 -5797.33885583 0 11524.68401517 0 7
0.00450000 0.00420575 34613.04727817 0 -6337.45028965 0 -22084.48317479 0 -15711.56370027 0 17277.08498457 0 24
0.00550000 0.00557378 48175.91873580 0 -3891.96588044 0 -15283.82444396 0 -23731.50998764 0 -15498.90237510 0 45
0.00650000 0.00659388 52297.11067687 0 -1854.45948147 0 -25417.09265024 0 6595.99417450 0 22220.58202907 0 40
0.00750000 0.00754703 76982.30125602 0 -21353.45986950 0 -23271.91547083 0 610.63898054 0 -51472.49881319 0 57
0.00850000 0.00846663 76234.47155468 0 -6043.87660284 0 -15294.91886226 0 -18080.49662317 0 -8502.03720881 0 75
0.00950000 0.00948925 68662.47613719 0 13948.86933814 0 -4582.43414376 0 -24298.86316146 0 11582.57271267 0 112
0.01050000 0.01054430 71330.07958857 0 1052.29678878 0 1152.00704947 0 -5590.02701750 0 -1563.07172461 0 105
0.01150000 0.01145670 69661.19347628 0 -3063.08101803 0 19620.64354480 0 15520.10260018 0 -2948.63275630 0 144
0.01250000 0.01249090 76252.04687081 0 -4315.42115345 0 2680.90576878 0 9680.86858453 0 -2529.99971065 0 169
0.01350000 0.01339930 76236.55862347 0 -5055.15522480 0 14289.28124244 0 9614.11533695 0 11254.90291257 0 180
0.01450000 0.01448870 83266.35553836 0 1950.67335271 0 -1673.60947849 0 -6230.44956814 0 15983.87125456 0 267
0.01550000 0.01550050 82673.40831042 0 -1404.43252739 0 18486.81596295 0 -2911.81246901 0 -5483.63044748 0 238
0.01650000 0.01653350 90026.48119637 0 494.24205564 0 9149.56677791 0 -3707.47998394 0 -3411.33590714 0 315
0.01750000 0.01747870 80648.51220077 0 8439.88649715 0 37411.36714326 0 -30955.29445431 0 -2852.13328617 0 297
0.01850000 0.01844180 68977.84321600 0 12132.46041609 0 33315.98894776 0 -3894.28362526 0 4176.23563427 0 388
0.01950000 0.01947590 66001.35358363 0 10.00644033 0 55005.57673825 0 15348.52357646 0 5643.86240772 0 399
0.02050000 0.02045430 66749.84235932 0 -3286.45230147 0 36168.46275569 0 22042.41226180 0 15454.19516469 0 462
0.02150000 0.02154770 72149.41885741 0 -2963.56079044 0 35099.88353497 0 13655.36155877 0 14943.74207684 0 571
0.02250000 0.02255340 70104.53082566 0 1030.18813954 0 23752.82005844 0 -2450.17482170 0 7505.22020078 0 510
0.02350000 0.02348930 69824.75376202 0 3137.76512701 0 23048.59911026 0 -555.48873698 0 9922.11176756 0 555
0.02450000 0.02439640 73596.85598645 0 1175.68978795 0 29126.03358233 0 -10077.01621010 0 5622.78301294 0 592
0.02550000 0.02547300 66762.36477207 0 2659.06843848 0 31950.38688445 0 -1647.97148609 0 -7027.20455575 0 837
0.02650000 0.02652900 67155.17308757 0 -778.29431493 0 25381.72232653 0 5868.69463932 0 -5034.05386087 0 723
0.02750000 0.02749970 62956.86944698 0 939.90483904 0 30846.98656865 0 1000.10139524 0 -11060.36613215 0 826
0.02850000 0.02848090 61042.03875460 0 905.28695855 0 23771.38398611 0 1155.67589671 0 -8621.25277504 0 831
0.02950000 0.02946900 66218.40873784 0 3484.41626853 0 26053.97816851 0 3576.08252672 0 -15049.30381934 0 996
0.03050000 0.03053250 60071.33207559 0 996.96420131 0 25800.67392478 0 -3158.80058350 0 -6721.85540714 0 1041
0.03150000 0.03150510 56930.62308313 0 110.29938866 0 18651.36486022 0 8382.72278144 0 1560.89677924 0 1036
0.03250000 0.03246190 57652.41934745 0 -739.83622787 0 21412.77656144 0 5796.75667348 0 -8291.03455410 0 1059
0.03350000 0.03345080 55365.65102747 0 945.88264344 0 17295.86860368 0 829.34072218 0 -2842.48883145 0 1302
0.03450000 0.03451200 53537.81814993 0 6456.63290216 0 21316.11232273 0 -5244.61713268 0 -3236.50544994 0 1339
0.03550000 0.03553350 50513.43578111 0 797.25478567 0 24452.53733188 0 -1766.63782368 0 4420.69729707 0 1365
0.03650000 0.03647120 50421.82444578 0 -2126.17386884 0 24458.68869252 0 7894.42557648 0 -868.14042945 0 1308
0.03750000 0.03744890 50916.67944057 0 -730.69596503 0 20044.20866353 0 1775.07397543 0 -3823.99334531 0 1579
0.03850000 0.03847530 50307.25535376 0 2431.46809460 0 20213.48092701 0 1253.27382410 0 -842.20145976 0 1662
0.03950000 0.03950240 48736.02209173 0 3232.45214266 0 25946.10966576 0 -495.90621839 0 3164.96292872 0 1683
0.04050000 0.04050350 43399.60688598 0 1448.61247831 0 22837.03624234 0 -1233.94097635 0 8031.26039712 0 1822
0.04150000 0.04152450 41503.23027554 0 207.00646721 0 23634.07682884 0 6117.68194602 0 4272.61427410 0 1887
0.04250000 0.04250150 42429.22974415 0 1657.05572761 0 23765.89169982 0 5117.36085933 0 6872.88229556 0 1920
0.04350000 0.04349210 41355.92715722 0 1252.71361089 0 18624.23296594 0 1521.19853393 0 5318.91678162 0 2005
0.04450000 0.04448520 37986.95874653 0 165.91318118 0 20659.67426526 0 741.39054489 0 11071.35070474 0 2151
0.04550000 0.04548030 37601.40024892 0 1464.36435539 0 18738.58236651 0 444.09198952 0 10436.71702385 0 2274
0.04650000 0.04648670 35463.25319596 0 237.27665387 0 14999.98308845 0 5839.87112086 0 11543.90701719 0 2311
0.04750000 0.04749250 38482.14327849 0 -1535.30272512 0 13157.32103793 0 3524.25731328 0 5321.79473964 0 2568
0.04850000 0.04851840 38817.17274222 0 -1461.81593455 0 11852.79319817 0 2968.66861669 0 8409.23953965 0 2493
0.04950000 0.04949480 38383.28212526 0 598.86461719 0 11061.35474369 0 -3256.23374230 0 7449.67121723 0 2644
0.05050000 0.05050630 37815.05018563 0 1329.28706636 0 13965.67573419 0 -4782.43025675 0 6278.62790348 0 2829
0.05150000 0.05149060 38777.95781811 0 1248.45159673 0 13795.08532201 0 30.06378654 0 -970.24313005 0 2784
0.05250000 0.05249300 37547.90538045 0 -322.99147064 0 17153.94792593 0 82.54280174 0 3812.77809670 0 3055
0.05350000 0.05348950 36241.40031763 0 748.48767724 0 18233.95110213 0 1595.25652227 0 2580.22117649 0 3009
0.05450000 0.05448610 35754.23452364 0 1692.44802047 0 17737.00903855 0 -198.42531911 0 2833.90988026 0 3336
0.05550000 0.05550870 36657.49592701 0 -644.49123632 0 17973.06750332 0 4354.86675359 0 6343.48082000 0 3349
0.05650000 0.05647670 34091.28008055 0 -378.70522277 0 16255.08035160 0 -195.03218464 0 4680.53736148 0 3324
0.05750000 0.05747970 34165.42594548 0 1986.84555022 0 17216.55998964 0 1648.16920840 0 7384.40088695 0 3639
0.05850000 0.05849280 34888.97974141 0 -36.57994484 0 15052.92872830 0 -599.26335718 0 5001.41869573 0 3846
0.05950000 0.05951020 33041.04509605 0 -811.19420827 0 13012.43452558 0 3798.79473581 0 5136.34220075 0 3787
0.06050000 0.06049470 34532.85989832 0 186.00945672 0 13173.68805108 0 -389.63816786 0 624.40594536 0 3930
0.06150000 0.06148310 34127.52917007 0 173.39697048 0 11676.05142534 0 833.16005806 0 2480.55814946 0 4083
0.06250000 0.06249100 33131.99735702 0 227.50367965 0 10823.79139247 0 330.05125544 0 1548.29747449 0 4303
0.06350000 0.06350600 32587.60193989 0 517.66445975 0 10325.16868929 0 -789.50407125 0 211.33438881 0 4470
0.06450000 0.06451750 32188.42257229 0 896.45206682 0 11209.20709063 0 1060.69119914 0 1064.03160766 0 4479
0.06550000 0.06550280 31865.14660122 0 -172.23699962 0 9796.07478176 0 839.55857159 0 -779.56522998 0 4636
0.06650000 0.06648880 31871.29796186 0 7.72647146 0 10839.32357810 0 501.48638126 0 262.20504289 0 4653
0.06750000 0.06749660 30935.74191511 0 1403.56474615 0 10463.34362779 0 -2145.56163945 0 -2368.46058627 0 5220
0.06850000 0.06852730 29451.61631365 0 1443.93305039 0 13037.91873397 0 -3194.11598435 0 -1942.58870729 0 5029
0.06950000 0.06949320 28665.56029972 0 760.79808773 0 13364.59992254 0 372.97896508 0 -2205.03211541 0 5040
0.07050000 0.07048030 28128.19500905 0 -943.08157743 0 12445.74042611 0 2647.31494582 0 -1853.04247161 0 5475
0.07150000 0.07148790 28722.89976860 0 -499.48828750 0 12198.58754303 0 3019.05485112 0 -2515.30235254 0 5509
0.07250000 0.07249820 28443.56208786 0 1101.03863269 0 9827.65542793 0 -136.15707252 0 -1133.61887497 0 5916
0.07350000 0.07351270 27856.10714621 0 241.65620296 0 10104.43370326 0 605.06321150 0 566.84019429 0 5721
0.07450000 0.07449140 27214.27857028 0 253.39541568 0 9385.75705756 0 583.83552498 0 734.82506586 0 6028
0.07550000 0.07549160 26188.53918263 0 714.72549495 0 9942.04876679 0 1073.11914456 0 615.79404045 0 6183
0.07650000 0.07648840 27190.22235632 0 -133.72838352 0 8369.92575438 0 1152.12787977 0 808.63150749 0 6330
0.07750000 0.07749960 25177.18958507 0 799.29462080 0 9970.99311554 0 -1823.52692508 0 240.38748483 0 6583
0.07850000 0.07848650 24779.21852045 0 575.47846216 0 9453.33414808 0 519.39672685 0 1550.93377191 0 6549
0.07950000 0.07947320 24984.84971917 0 -293.20130980 0 9421.75350191 0 1014.73723975 0 -159.81125111 0 6828
0.08050000 0.08048110 25106.99816627 0 -536.15698770 0 7383.64295145 0 2061.22209117 0 -276.94084701 0 7147
0.08150000 0.08149960 25221.56725830 0 -21.13387826 0 7663.93629000 0 370.59311592 0 -676.31683846 0 7386
0.08250000 0.08250610 24940.69173739 0 1037.56318157 0 6823.02332061 0 -1380.20056027 0 89.73528018 0 7227
0.08350000 0.08350160 24025.45714991 0 568.17591831 0 7481.15300225 0 39.69044626 0 725.68699993 0 7798
0.08450000 0.08449610 23052.99293929 0 222.64300628 0 7844.39084837 0 -300.34567581 0 -1382.52928966 0 7371
0.08550000 0.08548940 23096.60169244 0 712.42203008 0 7647.04201737 0 413.46700116 0 -567.09723329 0 8256
0.08650000 0.08650700 22127.10331641 0 620.23070932 0 9228.65570050 0 -646.21691267 0 -1117.03217037 0 8037
0.08750000 0.08749060 21096.86025400 0 987.80196932 0 8789.22885895 0 -481.84596548 0 281.69826539 0 8155
0.08850000 0.08849210 20461.18303872 0 208.87933684 0 8984.20502227 0 418.05415867 0 -926.88043133 0 8718
0.08950000 0.08949900 19910.85595239 0 64.46142635 0 9317.97126016 0 1267.11438555 0 1355.83677829 0 8571
0.09050000 0.09049190 19467.40875729 0 49.18144651 0 8394.45430495 0 1059.83000865 0 754.88509231 0 8932
0.09150000 0.09150830 19280.89071485 0 548.85954743 0 7966.12188172 0 1022.95589695 0 2030.31150393 0 9285
0.09250000 0.09250820 18934.98652427 0 295.74533681 0 7880.56304588 0 -277.13088011 0 1544.26613635 0 9204
0.09350000 0.09350330 19050.98361073 0 378.50420509 0 7376.89842388 0 152.07921047 0 1926.38646274 0 9349
0.09450000 0.09448040 18455.18039391 0 1.59077482 0 8107.14182452 0 251.79825882 0 1949.87147891 0 9564
0.09550000 0.09549270 18530.20502465 0 -378.79969010 0 7006.16909926 0 664.65891158 0 1116.96626293 0 10155
0.09650000 0.09649430 18699.25759667 0 134.53794652 0 6793.12331404 0 -80.01799773 0 974.20087155 0 9913
0.09750000 0.09749140 18092.57965300 0 517.51067574 0 6766.26603408 0 -774.27066600 0 283.03398942 0 10476
0.09850000 0.09850240 18042.92938494 0 296.00786809 0 7134.60072188 0 145.39180269 0 721.61501887 0 10575
0.09950000 0.09950330 17689.22614782 0 -5.08673587 0 7429.34975796 0 428.49169954 0 442.86501276 0 10882
0.10050000 0.10051200 17824.55608202 0 64.07608755 0 7344.29621246 0 76.36452889 0 401.82555114 0 10875
0.10150000 0.10150300 17625.62547257 0 281.35115290 0 7097.26415968 0 47.07405626 0 -860.47869007 0 11118
0.10250000 0.10250800 17165.59157287 0 223.83812778 0 7268.64546109 0 63.69426380 0 704.99755747 0 11575
0.10350000 0.10349800 16625.26044759 0 109.61384149 0 7057.47803779 0 -26.24192421 0 -58.30083867 0 11364
0.10450000 0.10450100 16733.89787042 0 488.62784059 0 6975.89561723 0 865.90397047 0 -280.92275457 0 12093
0.10550000 0.10551000 16332.41174257 0 320.40130842 0 6517.44349597 0 -122.01223840 0 168.36713470 0 12067
0.10650000 0.10649700 15815.25806544 0 -45.16603600 0 6701.68773188 0 580.08429345 0 -83.30370309 0 12054
0.10750000 0.10749900 15367.52688702 0 176.54844436 0 5942.18142989 0 418.31009921 0 163.00336791 0 12807
0.10850000 0.10850100 15509.77710195 0 417.66530480 0 6054.79526799 0 124.11798097 0 77.35577672 0 12736
0.10950000 0.10950300 14929.02274958 0 99.55746529 0 5617.46647981 0 -152.42851988 0 -253.08015845 0 12933
0.11050000 0.11050200 14882.22847038 0 19.57505757 0 5365.16183219 0 654.54871098 0 -734.60317749 0 13428
0.11150000 0.11150900 14699.11564545 0 97.22884575 0 5203.28218606 0 96.77836842 0 -1162.92571461 0 13453
0.11250000 0.11250000 14819.39671522 0 -52.42958462 0 4686.18343179 0 -65.86217905 0 -290.68584268 0 13668
0.11350000 0.11349100 14477.77650794 0 -2.70358891 0 4282.53334314 0 766.09484863 0 -53.35558409 0 13791
0.11450000 0.11448600 14641.77617658 0 -6.70533461 0 4449.83936813 0 343.52603062 0 124.04438433 0 14205
0.11550000 0.11549300 14521.49510681 0 379.00510160 0 3993.26560879 0 413.27367269 0 -205.90800995 0 14776
0.11650000 0.11649800 14480.41280536 0 111.62302966 0 4377.48398854 0 -241.99672471 0 753.84595174 0 14553
0.11750000 0.11747300 13892.62832653 0 151.09828814 0 4456.80358715 0 416.09011709 0 293.97462371 0 14568
0.11850000 0.11849100 13960.51298508 0 137.70370034 0 4124.03694537 0 -89.08257687 0 486.09369970 0 16015
0.11950000 0.11950300 13817.82338725 0 30.13848164 0 4242.98888185 0 -198.91742796 0 1129.33489166 0 15270
0.12050000 0.12050700 13844.62574435 0 164.74771803 0 4380.32899283 0 215.08781726 0 454.40540472 0 15999
0.12150000 0.12150000 13570.34096699 0 -10.36571275 0 4326.36178774 0 449.11633302 0 1348.32333064 0 15670
0.12250000 0.12250700 13808.48650055 0 -166.67331361 0 3938.12305443 0 421.97015880 0 452.28977604 0 16887
0.12350000 0.12352200 13590.88211772 0 235.74540445 0 4084.97580527 0 -264.10647240 0 1119.54763749 0 16407
0.12450000 0.12449800 13454.01434335 0 234.49316318 0 4405.97796981 0 -409.97390708 0 713.81816925 0 16306
0.12550000 0.12549900 13374.92542077 0 90.26924025 0 4312.76288689 0 235.99036042 0 1375.41128663 0 17523
0.12650000 0.12650100 13287.26853157 0 -38.63889313 0 3755.63635013 0 553.41045585 0 327.13924525 0 17154
0.12750000 0.12750600 13419.63263118 0 170.05546350 0 4639.00469255 0 -351.57882078 0 53.43401394 0 18007
0.12850000 0.12850300 12895.11929042 0 453.63648464 0 4238.17763906 0 -423.57390639 0 645.98733511 0 17496
0.12950000 0.12949900 12867.76770469 0 -209.75480727 0 4124.32254425 0 486.19036394 0 710.35802889 0 18405
0.13050000 0.13049000 12908.19093179 0 -208.05219852 0 3922.86548311 0 425.57200015 0 -407.53203660 0 18100
0.13150000 0.13148800 12799.00428033 0 474.50277871 0 3546.81962536 0 -218.79840588 0 -290.88026961 0 19059
0.13250000 0.13249300 12212.09856731 0 407.57267952 0 4135.23022483 0 -358.79019268 0 423.20262784 0 18957
0.13350000 0.13349100 12062.81822593 0 51.69812193 0 3971.19760247 0 335.93788788 0 98.13089885 0 19468
0.13450000 0.13450700 12125.75982682 0 11.59004222 0 4069.30082019 0 433.71706072 0 -389.04060711 0 19953
0.13550000 0.13551000 11953.41188302 0 179.49999901 0 3544.71058743 0 -77.90006230 0 15.19430018 0 19956
0.13650000 0.13649900 11723.39493316 0 -109.59439879 0 3625.33735017 0 192.16850657 0 480.24111943 0 19723
0.13750000 0.13749600 11711.64144050 0 148.00613096 0 3584.91412307 0 50.81935613 0 0.44150183 0 20946
0.13850000 0.13851100 11469.65130654 0 327.51931146 0 3518.78699613 0 287.61455618 0 538.10455241 0 20955
0.13950000 0.13949800 11563.78909356 0 -110.09946944 0 3511.28453306 0 185.92377705 0 390.20387335 0 20506
0.14050000 0.14048300 11212.72215386 0 37.65676249 0 3099.51684528 0 74.46617506 0 565.23424978 0 21447
0.14150000 0.14148400 11351.23761411 0 167.51033804 0 3569.17323057 0 208.62229784 0 205.04242563 0 21771
0.14250000 0.14249400 10999.40175433 0 199.94448550 0 3282.66262393 0 -523.48079094 0 775.84805062 0 22470
0.14350000 0.14350900 10995.88669110 0 201.89644405 0 3471.82794835 0 108.97651659 0 289.48303198 0 22519
0.14450000 0.14449900 10780.34740791 0 115.09195768 0 3716.88277807 0 -284.76955189 0 -175.09079157 0 22218
0.14550000 0.14550500 10673.10502580 0 144.93813984 0 3634.89392832 0 138.30235954 0 -145.05457631 0 23559
0.14650000 0.14650700 10429.29145278 0 26.04024745 0 3656.29187571 0 -107.47009230 0 -21.39629970 0 23044
0.14750000 0.14750500 10480.69925246 0 77.53526464 0 3653.13930338 0 179.68344137 0 -373.28873003 0 23649
0.14850000 0.14849900 10393.60257647 0 -10.21021514 0 3342.86906624 0 340.60303586 0 -362.70948818 0 23640
0.14950000 0.14949500 10369.29371734 0 82.83378307 0 3305.89499494 0 341.33350994 0 -98.50261678 0 24457
0.15050000 0.15050000 10229.52601582 0 78.40348526 0 2862.34893867 0 163.11870592 0 -132.54314814 0 24591
0.15150000 0.15149900 10173.38386536 0 162.82212246 0 3148.50803899 0 25.01802313 0 -214.83736900 0 25020
0.15250000 0.15250500 9850.21774001 0 67.48745641 0 2849.26631273 0 316.09755289 0 191.78294807 0 25297
0.15350000 0.15350100 9868.80363682 0 103.17677211 0 2673.89761147 0 119.79445320 0 427.57009390 0 25452
0.15450000 0.15450400 9732.74872083 0 30.50910112 0 2654.35605685 0 77.69959385 0 264.80399276 0 26061
0.15550000 0.15549900 9699.10297501 0 123.23591979 0 2729.50151788 0 63.96887812 0 350.57043702 0 26128
0.15650000 0.15649500 9603.46030155 0 182.24394524 0 2727.28263421 0 -283.29652070 0 299.71735825 0 26331
0.15750000 0.15749700 9422.23682310 0 46.74902276 0 2955.66288275 0 -211.54968643 0 391.54289275 0 27345
0.15850000 0.15849900 9448.18238354 0 -9.96934543 0 3002.22648592 0 -150.83685532 0 -488.16978392 0 26980
0.15950000 0.15949700 9214.24394127 0 117.38443798 0 3011.93684809 0 22.87559209 0 -162.70019370 0 27777
0.16050000 0.16050000 9080.84729184 0 146.72752671 0 3109.24917658 0 367.00555452 0 -128.68426779 0 28224
0.16150000 0.16150500 9185.58519141 0 79.51951783 0 2791.15792377 0 51.62002162 0 17.20963971 0 28075
0.16250000 0.16249700 9079.12271395 0 152.39666462 0 2847.00349078 0 454.93486111 0 30.89125440 0 28590
0.16350000 0.16349900 8993.04760320 0 -28.18059142 0 2633.86982898 0 85.96021212 0 304.09141506 0 29163
0.16450000 0.16449100 8779.73818824 0 -45.08343202 0 2362.92436169 0 219.60687042 0 557.96356118 0 28996
0.16550000 0.16550500 8660.33588428 0 175.02488414 0 2406.82969830 0 85.18634898 0 504.54888009 0 30777
0.16650000 0.16650700 8603.95207322 0 52.89423204 0 2201.08865385 0 30.70539543 0 634.24263010 0 29211
0.16750000 0.16749900 8583.44387621 0 195.63633613 0 2175.50558431 0 100.53893685 0 163.70198672 0 30922
0.16850000 0.16850800 8348.45091498 0 139.71497558 0 2163.06006357 0 -36.08454062 0 452.30405598 0 30867
0.16950000 0.16949900 8244.32815148 0 -38.56815248 0 2098.32797735 0 131.02947404 0 464.17178820 0 30852
0.17050000 0.17049200 8154.03496486 0 87.68984292 0 2132.81953526 0 120.82370765 0 284.39717487 0 31257
0.17150000 0.17149500 8117.50027646 0 167.65203902 0 1831.06234187 0 -229.99717762 0 311.65539174 0 32608
0.17250000 0.17250900 8056.93134325 0 -13.43556026 0 2178.80095608 0 206.67473312 0 330.63124087 0 32361
0.17350000 0.17350400 7990.58452485 0 26.24390143 0 1839.20191016 0 185.57886148 0 291.99849910 0 32508
0.17450000 0.17449800 7993.26476056 0 23.01388786 0 2026.37902694 0 14.81928687 0 172.69945012 0 32791
0.17550000 0.17549800 7774.79259649 0 175.10836689 0 1638.09635534 0 -81.21465707 0 336.30147724 0 33633
0.17650000 0.17650100 7697.60400496 0 90.48080312 0 2049.65533624 0 97.55849277 0 432.43076727 0 33984
0.17750000 0.17750300 7842.68823962 0 62.76178344 0 1978.09084588 0 -110.99141673 0 203.92529460 0 34069
0.17850000 0.17849800 7482.24047494 0 91.02388039 0 2082.93859116 0 -1.47518416 0 37.10204158 0 34536
