### header ###
fiducial parameters:
Omega_m = 0.31
Omega_nu = 0
Omega_de = 0.69
Omega_k = 0
H_0 = 100
w_de = -1
zeff = 0
beta = 0
fgrowth = 0
b_1 = 2
gamma = 0.55
Lx = 3500 Ly = 3500 Lz = 3500
nx = 700 ny = 700 nz = 700
xoffset = -983.599254 yoffset = -42.9823471 zoffset = 800.977702
bins = 400 dk = 0.001
kx_ny = 0.628318531 ky_ny = 0.628318531 kz_ny = 0.628318531
############################
A(data) = 8.95766457 (not used)
A(ran) = 8.94549097 (used)
Ngal = 496844
weighted Ngal = 0
Nran = 25229228
weighted Nran = 0
SN(data) = 6803.45133
SN(ran) = 132.78965
SN(data+ran) = 6936.24098
############################
13 columns: k_central k_mean P_0(k) sigma^{lin}_{P_0(k)} P^img_1(k) sigma^{lin}_{P_1(k)} P_2(k) sigma^{lin}_{P_2(k)} P^img_3(k) sigma^{lin}_{P_3(k)} P_4(k) sigma^{lin}_{P_4(k)} N_modes
### header ###
0.00050000 0 0 0 0 0 0 0 0 0 0 0 0
0.00150000 0.00179520 182387.84314062 0 47596.92191504 0 18754.83953393 0 241527.68346132 0 -197680.56508837 0 3
0.00250000 0.00253879 227922.19186206 0 96519.02266630 0 163441.65235232 0 -119306.73817774 0 40465.73739523 0 6
0.00350000 0.00331552 144966.69972776 0 87408.85755023 0 52157.16722219 0 -36404.52122046 0 249771.60518361 0 7
0.00450000 0.00420575 84975.44518629 0 21716.82953049 0 86215.38373927 0 100800.58936705 0 8973.19848055 0 24
0.00550000 0.00557378 74605.56928660 0 -2024.59952619 0 80939.49352845 0 58597.20243518 0 -23280.26374600 0 45
0.00650000 0.00659388 84556.05420513 0 17346.83702046 0 90427.30824986 0 13478.50994021 0 52075.88138508 0 40
0.00750000 0.00754703 61311.27062857 0 5262.02768022 0 53054.27726490 0 42865.31727563 0 55759.33810879 0 57
0.00850000 0.00846663 60565.19845885 0 -755.31898292 0 69587.37714854 0 46134.21623011 0 14609.70122464 0 75
0.00950000 0.00948925 60981.84329686 0 9514.03489616 0 43709.48167850 0 11663.19947542 0 23777.53534675 0 112
0.01050000 0.01054430 53430.27918436 0 4319.36461501 0 60105.82363350 0 5901.54949591 0 42500.73931165 0 105
0.01150000 0.01145670 50353.50040433 0 1797.52644178 0 49364.88887201 0 28267.36954365 0 31385.88969949 0 144
0.01250000 0.01249090 51876.84092991 0 -3040.58461338 0 35003.21929626 0 19866.91766207 0 29421.40873905 0 169
0.01350000 0.01339930 51779.95699974 0 -1107.32180821 0 23944.28115854 0 13213.89158673 0 24856.00068279 0 180
0.01450000 0.01448870 57666.58944608 0 -5511.15778637 0 15026.12637120 0 2555.98920938 0 4113.68947800 0 267
0.01550000 0.01550050 55951.78782041 0 837.81092610 0 18771.53608426 0 9941.87301363 0 20079.02975861 0 238
0.01650000 0.01653350 65735.52692716 0 -3897.48013588 0 11409.23615734 0 -4813.82416518 0 47.69380585 0 315
0.01750000 0.01747870 70952.86936612 0 -5914.25864638 0 -4925.58120663 0 518.91999640 0 -5743.21786672 0 297
0.01850000 0.01844180 77402.68084871 0 -3000.05154055 0 12720.68427782 0 -12870.84338501 0 -43567.78069220 0 388
0.01950000 0.01947590 74219.79109754 0 4903.93061407 0 10151.67834994 0 -18346.43312536 0 -13282.87470254 0 399
0.02050000 0.02045430 78231.79638715 0 5685.58181439 0 21273.60202684 0 -13966.00527137 0 -41460.61013393 0 462
0.02150000 0.02154770 65999.81574347 0 2525.21043701 0 31961.37145703 0 -2479.36083105 0 -32392.40608512 0 571
0.02250000 0.02255340 67650.46746527 0 3414.30174174 0 30830.72940123 0 6054.34490051 0 -32398.22790859 0 510
0.02350000 0.02348930 68869.53533034 0 -4493.56895158 0 30735.16361978 0 3218.96308753 0 -26719.31372976 0 555
0.02450000 0.02439640 67878.94657496 0 3058.56635869 0 30193.18480861 0 7821.86149001 0 -18606.87734126 0 592
0.02550000 0.02547300 63674.05219082 0 861.77157427 0 20689.22276551 0 437.60999324 0 -17799.73094799 0 837
0.02650000 0.02652900 62393.91010219 0 -597.16750073 0 19395.34996115 0 9494.42743410 0 -11962.74876971 0 723
0.02750000 0.02749970 65734.53831563 0 1206.13902315 0 18941.24773064 0 2542.90658344 0 -9911.17113327 0 826
0.02850000 0.02848090 60517.52541385 0 -1.16034434 0 10953.66199410 0 4819.96454126 0 -3972.16424486 0 831
0.02950000 0.02946900 60529.27890651 0 -242.70852501 0 13854.29216822 0 2800.56071790 0 -7773.96875355 0 996
0.03050000 0.03053250 61143.86574243 0 1365.79978562 0 16203.12332329 0 -521.41788821 0 -8466.56802395 0 1041
0.03150000 0.03150510 55991.22243598 0 4545.89945535 0 13376.79279811 0 -4662.35789386 0 -1403.03748667 0 1036
0.03250000 0.03246190 58219.00360120 0 -1373.06058810 0 11722.18663018 0 -127.12775386 0 -10573.77153595 0 1059
0.03350000 0.03345080 55331.37916102 0 2848.34360863 0 21094.99287666 0 -35.40876972 0 -3275.69840491 0 1302
0.03450000 0.03451200 51480.62739690 0 2550.05754019 0 21426.28758572 0 -3733.30471408 0 -6507.94184069 0 1339
0.03550000 0.03553350 50073.06426633 0 1533.16073347 0 25314.60658806 0 1886.17194252 0 3010.70657596 0 1365
0.03650000 0.03647120 48934.40347255 0 -608.83201835 0 18842.16688596 0 7505.22020078 0 -3095.16695454 0 1308
0.03750000 0.03744890 50155.44856069 0 -1095.95716941 0 21553.15939903 0 3256.37654174 0 -1725.73127539 0 1579
0.03850000 0.03847530 48621.12346253 0 3172.72902153 0 20715.80543116 0 -467.04315547 0 4087.89770157 0 1662
0.03950000 0.03950240 45439.22232289 0 826.22659585 0 19064.82417218 0 -753.63944178 0 6929.80435067 0 1683
0.04050000 0.04050350 47446.98249931 0 -1285.57945206 0 20095.50661749 0 5692.87557058 0 5381.07847786 0 1822
0.04150000 0.04152450 46800.21086572 0 -1222.76966604 0 14965.71122200 0 4870.81212774 0 1219.16672623 0 1887
0.04250000 0.04250150 46556.46320014 0 2632.56266484 0 13812.11140951 0 -508.32537615 0 7570.76514537 0 1920
0.04350000 0.04349210 45701.64376186 0 2328.76234096 0 15564.15073623 0 -1009.58327829 0 2541.22594383 0 2005
0.04450000 0.04448520 41836.50220766 0 1351.25621152 0 19680.07008246 0 -5373.75176795 0 3207.46224003 0 2151
0.04550000 0.04548030 40367.75500781 0 1874.86881733 0 16826.05843438 0 1944.20343946 0 2707.40055784 0 2274
0.04650000 0.04648670 38987.10408006 0 -289.41932146 0 19173.79113219 0 1756.24641802 0 4642.16824946 0 2311
0.04750000 0.04749250 39701.43083502 0 -1349.37784961 0 15394.87847275 0 5143.82269467 0 429.84499888 0 2568
0.04850000 0.04851840 40279.32919853 0 1432.49811033 0 16690.39896300 0 295.65636177 0 3660.75161218 0 2493
0.04950000 0.04949480 37917.09686491 0 1832.01799969 0 14286.20556212 0 -770.59193264 0 6290.26056584 0 2644
0.05050000 0.05050630 37114.78368357 0 -318.04841298 0 16590.32950678 0 908.12647056 0 4844.94345931 0 2829
0.05150000 0.05149060 37599.09348868 0 -410.18590933 0 15437.93799727 0 1676.19085305 0 2835.15113696 0 2784
0.05250000 0.05249300 37772.75958119 0 237.22612484 0 14019.50013984 0 2079.61026567 0 3594.34987092 0 3055
0.05350000 0.05348950 38307.15903727 0 101.17230730 0 12515.60230773 0 424.06931062 0 4666.59793888 0 3009
0.05450000 0.05448610 37047.33840792 0 -172.44900187 0 10970.96269591 0 383.63949278 0 684.76507323 0 3336
0.05550000 0.05550870 37107.97324857 0 867.77903701 0 12908.41062324 0 -298.99347492 0 1919.69685803 0 3349
0.05650000 0.05647670 35326.82480450 0 1533.77586953 0 12761.87642500 0 -1369.60044773 0 1573.80365202 0 3324
0.05750000 0.05747970 34657.86433430 0 409.01275698 0 12750.56231525 0 1715.48266917 0 47.16160330 0 3639
0.05850000 0.05849280 34235.94690145 0 487.76884702 0 12173.43287182 0 79.65572653 0 -2368.43861713 0 3846
0.05950000 0.05951020 33301.81884913 0 983.37738349 0 13906.46888798 0 -1358.95639690 0 -1180.91844450 0 3787
0.06050000 0.06049470 32702.61041482 0 389.29874457 0 14062.01043573 0 671.09696957 0 -209.91518203 0 3930
0.06150000 0.06148310 31202.88672029 0 -259.17220240 0 11651.99521139 0 278.97848522 0 -1928.35270123 0 4083
0.06250000 0.06249100 32459.74151505 0 433.26889015 0 12114.22602561 0 1223.72532385 0 -2213.80878890 0 4303
0.06350000 0.06350600 30990.88446947 0 513.98792331 0 12490.11809934 0 961.52357634 0 20.18953456 0 4470
0.06450000 0.06451750 30871.70185696 0 907.15653280 0 13286.49961149 0 -728.37053101 0 919.25054721 0 4479
0.06550000 0.06550280 29768.41138689 0 809.70909406 0 12419.59714337 0 576.50881507 0 -105.03580117 0 4636
0.06650000 0.06648880 28991.36272249 0 395.56764014 0 13109.75783866 0 1470.06534856 0 2300.79561917 0 4653
0.06750000 0.06749660 28731.35788949 0 -192.51122523 0 12428.05526426 0 1883.88715142 0 1120.70101761 0 5220
0.06850000 0.06852730 28670.28366593 0 846.84134321 0 11327.95032024 0 902.54081540 0 3349.20716462 0 5029
0.06950000 0.06949320 27334.23010287 0 608.17074708 0 12532.29885805 0 -897.34401411 0 4967.37750530 0 5040
0.07050000 0.07048030 27022.26824156 0 -118.64876228 0 11343.98779620 0 1195.69269462 0 4101.29888012 0 5475
0.07150000 0.07148790 27015.01842365 0 -153.27762734 0 10437.94729598 0 719.28628949 0 2097.13065894 0 5509
0.07250000 0.07249820 26445.68802676 0 211.98028167 0 11013.13247005 0 141.99756976 0 2571.42253386 0 5916
0.07350000 0.07351270 26402.18911934 0 884.46679968 0 10552.74706403 0 873.04174574 0 3650.30528365 0 5721
0.07450000 0.07449140 26419.98412692 0 14.14878856 0 8662.43393765 0 549.09681420 0 1384.74817332 0 6028
0.07550000 0.07549160 25998.50607697 0 -98.02742417 0 8862.55088093 0 949.57126291 0 1129.40079910 0 6183
0.07650000 0.07648840 25806.16621108 0 -64.90564247 0 7424.85706777 0 615.68309627 0 660.64954259 0 6330
0.07750000 0.07749960 25403.47178024 0 541.80964875 0 7427.35056575 0 -743.98949476 0 -350.89777728 0 6583
0.07850000 0.07848650 24075.32710943 0 1002.23130386 0 8452.22217216 0 -719.72457393 0 -1325.06899049 0 6549
0.07950000 0.07947320 23544.77225375 0 831.62111945 0 7433.76555613 0 -378.82824998 0 -1582.37161863 0 6828
0.08050000 0.08048110 22969.18065049 0 169.30741411 0 7636.54076599 0 302.52611346 0 -2447.68132373 0 7147
0.08150000 0.08149960 22922.60606275 0 -0.91582995 0 7166.41204408 0 983.18844884 0 -3033.49956406 0 7386
0.08250000 0.08250610 22362.17316965 0 54.25533043 0 7130.90990549 0 -38.14107230 0 -1746.30537984 0 7227
0.08350000 0.08350160 21818.65651832 0 637.97958170 0 6459.08246185 0 -362.01196782 0 -3247.70971397 0 7798
0.08450000 0.08449610 21252.95103038 0 89.41189436 0 6627.21232978 0 572.64444244 0 -1409.29869304 0 7371
0.08550000 0.08548940 21511.74756040 0 23.24763957 0 6747.26272352 0 635.43885006 0 -2190.86201678 0 8256
0.08650000 0.08650700 21745.71895638 0 -84.96226370 0 5728.16900228 0 644.27484024 0 -2147.91233798 0 8037
0.08750000 0.08749060 21664.98234791 0 -56.35129673 0 4995.22339679 0 1246.83686456 0 -88.11538526 0 8155
0.08850000 0.08849210 21455.94593169 0 -65.57844754 0 4987.65502628 0 216.95958843 0 -1003.60876927 0 8718
0.08950000 0.08949900 20760.62248729 0 697.64997687 0 5557.67745125 0 -480.06756318 0 -259.89169190 0 8571
0.09050000 0.09049190 20171.95924265 0 707.11977689 0 6042.27285525 0 -430.49418712 0 -469.50260127 0 8932
0.09150000 0.09150830 20392.30976863 0 183.27869198 0 6035.82491114 0 179.92729888 0 -584.78569051 0 9285
0.09250000 0.09250820 19927.44265699 0 -218.76105833 0 5894.22278600 0 1088.10649539 0 -119.21666468 0 9204
0.09350000 0.09350330 19346.68830462 0 212.26148673 0 5277.85644931 0 -426.78359850 0 -660.60889967 0 9349
0.09450000 0.09448040 19443.90177196 0 476.56787836 0 5438.37400844 0 -36.90750480 0 -409.24013763 0 9564
0.09550000 0.09549270 18695.85237917 0 164.72245352 0 4972.93569903 0 381.55901473 0 -592.41667309 0 10155
0.09650000 0.09649430 18507.02757650 0 447.03255960 0 5126.55494658 0 763.94077394 0 268.88366302 0 9913
0.09750000 0.09749140 18004.92276381 0 241.40245933 0 5047.94934518 0 -363.21038469 0 -660.21565197 0 10476
0.09850000 0.09850240 17959.00725042 0 218.83355651 0 4261.30016434 0 680.97319878 0 -202.72797619 0 10575
0.09950000 0.09950330 17203.81788545 0 140.63767967 0 4589.12374846 0 240.36661414 0 -273.49169122 0 10882
0.10050000 0.10051200 16730.82219010 0 341.35547908 0 4260.94865802 0 -502.35196558 0 -553.20174897 0 10875
0.10150000 0.10150300 16808.04373534 0 441.61716532 0 4955.12970687 0 276.25321276 0 546.99876083 0 11118
0.10250000 0.10250800 15957.39843464 0 166.31741345 0 4788.95509286 0 -67.11914369 0 739.98232269 0 11575
0.10350000 0.10349800 16503.00215476 0 -65.09128175 0 5701.94882753 0 -164.94214497 0 -202.36878067 0 11364
0.10450000 0.10450100 16229.48629748 0 345.08474147 0 5129.01549083 0 -593.32619569 0 -769.33529754 0 12093
0.10550000 0.10551000 15638.62613833 0 527.44622164 0 5966.31453585 0 -444.14691238 0 -71.27109243 0 12067
0.10650000 0.10649700 15293.82040500 0 307.77014841 0 6900.49751103 0 -380.87797123 0 17.41131646 0 12054
0.10750000 0.10749900 15090.49596652 0 16.20619900 0 6733.14754775 0 582.16696841 0 -339.73195925 0 12807
0.10850000 0.10850100 15210.22780766 0 -34.20529994 0 6726.09545215 0 -179.76253029 0 -1030.91861362 0 12736
0.10950000 0.10950300 14812.80597167 0 520.11841327 0 6702.46763653 0 106.43073204 0 -41.16896973 0 12933
0.11050000 0.11050200 14950.88204901 0 -339.68802096 0 6236.26040703 0 615.59082586 0 -342.23204797 0 13428
0.11150000 0.11150900 14532.36983367 0 -255.51983202 0 5678.27707362 0 1103.60902267 0 23.98250747 0 13453
0.11250000 0.11250000 14726.13769400 0 283.09330611 0 5856.10631914 0 543.29586142 0 845.86481471 0 13668
0.11350000 0.11349100 14552.80113867 0 396.46617818 0 4673.73791106 0 -322.37853149 0 650.19222949 0 13791
0.11450000 0.11448600 14772.38274457 0 20.52170803 0 5079.76066738 0 585.58976123 0 549.65043665 0 14205
0.11550000 0.11549300 14378.03658890 0 87.70763792 0 5007.69088667 0 -36.29808071 0 239.38679027 0 14776
0.11650000 0.11649800 14131.43293445 0 84.70621331 0 4518.55885420 0 -64.31368385 0 362.61502085 0 14553
0.11750000 0.11747300 13693.25833418 0 123.73461939 0 5107.02437653 0 -318.32412575 0 -60.34133287 0 14568
0.11850000 0.11849100 13655.25171305 0 451.52305287 0 5035.87729992 0 -116.10693218 0 -390.62787785 0 16015
0.11950000 0.11950300 13252.66712794 0 108.77077554 0 4976.19811708 0 -32.71150792 0 -281.52141377 0 15270
0.12050000 0.12050700 12950.48153623 0 67.06477006 0 4562.13465363 0 440.50113274 0 -1013.17852890 0 15999
0.12150000 0.12150000 13293.63958367 0 -74.68180222 0 4914.55269576 0 496.64657858 0 -596.27665189 0 15670
0.12250000 0.12250700 13083.39486446 0 118.18960715 0 4053.60386598 0 -66.37076476 0 -1196.16503125 0 16887
0.12350000 0.12352200 12923.34964195 0 138.82302828 0 4145.47883105 0 152.12424722 0 -363.29935973 0 16407
0.12450000 0.12449800 12850.19238856 0 -63.12196757 0 3728.64725530 0 -10.64202967 0 -851.85360368 0 16306
0.12550000 0.12549900 13041.43379720 0 71.05118129 0 4100.70571320 0 253.55908581 0 -1017.49546592 0 17523
0.12650000 0.12650100 12861.61634404 0 281.31819918 0 3873.10536932 0 -60.53773703 0 -616.57504356 0 17154
0.12750000 0.12750600 12624.78895919 0 82.23776016 0 4192.59166285 0 -179.81635470 0 -633.17053582 0 18007
0.12850000 0.12850300 12394.77200934 0 183.55110938 0 4412.40394477 0 -14.54313471 0 -741.39274181 0 17496
0.12950000 0.12949900 12211.21980150 0 112.48202323 0 4180.17909583 0 209.29894751 0 -571.65473245 0 18405
0.13050000 0.13049000 12045.57244698 0 100.37054335 0 4225.10599769 0 460.65123269 0 355.47395022 0 18100
0.13150000 0.13148800 12349.62541603 0 -161.30295607 0 3960.07023045 0 669.89965116 0 -44.62614426 0 19059
0.13250000 0.13249300 12088.85166295 0 15.62160005 0 3194.87391986 0 312.87797466 0 492.85580258 0 18957
0.13350000 0.13349100 12166.51259110 0 61.14485435 0 3194.80801242 0 -2.45987420 0 359.40642720 0 19468
0.13450000 0.13450700 12011.30058052 0 26.25873060 0 2747.51621691 0 122.62627601 0 536.98083064 0 19953
0.13550000 0.13551000 12103.57099020 0 248.20190976 0 3182.42839912 0 505.58582374 0 26.03925884 0 19956
0.13650000 0.13649900 11887.06506463 0 78.78212347 0 2644.97523186 0 -50.12875605 0 895.34152653 0 19723
0.13750000 0.13749600 11615.63627614 0 18.11586695 0 2797.92442048 0 336.23666826 0 428.18303305 0 20946
0.13850000 0.13851100 11624.53377993 0 44.87835005 0 2499.83607434 0 162.64636930 0 735.20732898 0 20955
0.13950000 0.13949800 11645.40446784 0 211.38381938 0 2481.50282271 0 150.65560987 0 872.49251711 0 20506
0.14050000 0.14048300 11613.21967017 0 23.80027341 0 2480.62405690 0 -426.09266889 0 772.03530548 0 21447
0.14150000 0.14148400 11282.91357265 0 137.08087507 0 2926.90527173 0 11.74580346 0 624.04235600 0 21771
0.14250000 0.14249400 11074.53623078 0 139.40960446 0 3072.14329040 0 -292.28190107 0 756.40425869 0 22470
0.14350000 0.14350900 10981.99120679 0 306.60578372 0 3178.18835411 0 119.68241056 0 1008.72648163 0 22519
0.14450000 0.14449900 10612.15163255 0 132.15868810 0 3554.59670275 0 -53.75278624 0 1028.98752576 0 22218
0.14550000 0.14550500 10763.84857989 0 29.92208556 0 3468.45568457 0 371.30491622 0 1030.65937771 0 23559
0.14650000 0.14650700 10719.87733585 0 75.18687287 0 3207.19861029 0 87.36997216 0 1213.42179477 0 23044
0.14750000 0.14750500 10294.56567007 0 207.01964870 0 3379.33784721 0 -113.80676269 0 1092.67497913 0 23649
0.14850000 0.14849900 10237.28112406 0 246.30377562 0 3349.04239604 0 -33.21240443 0 1268.04807422 0 23640
0.14950000 0.14949500 10248.55129553 0 58.00392567 0 3611.84829504 0 -169.16241775 0 779.62015285 0 24457
0.15050000 0.15050000 9807.77335156 0 56.10414384 0 3268.42661786 0 203.38705054 0 935.14412528 0 24591
0.15150000 0.15149900 9758.66132755 0 51.77940777 0 3004.84081420 0 217.67907793 0 619.60898251 0 25020
0.15250000 0.15250500 9802.24811155 0 151.10927272 0 2887.85511621 0 142.44024803 0 612.69309561 0 25297
0.15350000 0.15350100 9498.53566425 0 111.01887817 0 2989.44044344 0 -178.74975270 0 681.59712250 0 25452
0.15450000 0.15450400 9381.70375027 0 119.33419961 0 2895.25871813 0 252.12669755 0 343.99507187 0 26061
0.15550000 0.15549900 9229.58938917 0 15.56338182 0 2789.35645387 0 208.68820527 0 379.83773220 0 26128
0.15650000 0.15649500 9174.88621771 0 159.89363541 0 2655.11399235 0 -308.72470777 0 94.78280112 0 26331
0.15750000 0.15749700 8937.88307970 0 242.77443245 0 2739.72815495 0 133.84811536 0 311.69054237 0 27345
0.15850000 0.15849900 8893.51639104 0 0.44959965 0 2915.11882535 0 111.21879739 0 206.44735247 0 26980
0.15950000 0.15949700 8783.46195835 0 7.64018764 0 2341.54838345 0 355.42561810 0 289.20841767 0 27777
0.16050000 0.16050000 8943.82573346 0 37.89490803 0 2657.64044405 0 -31.96356837 0 100.52927042 0 28224
0.16150000 0.16150500 8737.87598214 0 130.85701625 0 2546.04817119 0 -102.65148985 0 566.56777689 0 28075
0.16250000 0.16249700 8669.05763491 0 82.69318054 0 2693.29636665 0 -129.57841200 0 172.39517746 0 28590
0.16350000 0.16349900 8517.37167214 0 -48.55104189 0 2591.19476450 0 118.38403408 0 253.01425101 0 29163
0.16450000 0.16449100 8546.56866606 0 82.34914373 0 2581.80295495 0 306.97156999 0 -27.35674848 0 28996
0.16550000 0.16550500 8554.99383323 0 39.95890922 0 2529.68115805 0 88.38285960 0 447.65648332 0 30777
0.16650000 0.16650700 8664.10359268 0 63.47742834 0 2283.16538018 0 78.97786856 0 297.28757080 0 29211
0.16750000 0.16749900 8317.29866714 0 67.28105629 0 2524.51840893 0 -262.14682465 0 333.99361854 0 30922
0.16850000 0.16850800 8461.55905885 0 222.44308706 0 2746.89009627 0 -4.32894316 0 -307.09020337 0 30867
0.16950000 0.16949900 8156.10006451 0 -21.34939558 0 2690.00099487 0 -213.95860320 0 353.79440907 0 30852
0.17050000 0.17049200 8128.95718566 0 119.81971772 0 2675.43545163 0 11.04575665 0 91.13537380 0 31257
0.17150000 0.17149500 8055.82190142 0 48.22161456 0 2760.71967315 0 161.88513842 0 191.99385186 0 32608
0.17250000 0.17250900 8219.67877061 0 35.90494286 0 2728.18336917 0 189.72883300 0 43.14904879 0 32361
0.17350000 0.17350400 7889.80107142 0 97.72644688 0 2513.48989806 0 61.39530261 0 314.91451442 0 32508
0.17450000 0.17449800 7785.91996852 0 115.65107242 0 2608.06706799 0 213.53569715 0 605.22358626 0 32791
0.17550000 0.17549800 7844.30297179 0 57.61254535 0 2502.98864668 0 4.10101328 0 464.48484852 0 33633
0.17650000 0.17650100 7632.94881075 0 86.14464309 0 2446.50597446 0 152.77673083 0 360.56200424 0 33984
0.17750000 0.17750300 7710.77450749 0 33.62311760 0 2366.84585410 0 134.21390163 0 222.33653670 0 34069
0.17850000 0.17849800 7602.42268355 0 7.73112892 0 2244.11522465 0 -23.09704108 0 423.67716138 0 34536
