### header ###
fiducial parameters:
Omega_m = 0.31
Omega_nu = 0
Omega_de = 0.69
Omega_k = 0
H_0 = 100
w_de = -1
zeff = 0
beta = 0
fgrowth = 0
b_1 = 2
gamma = 0.55
Lx = 3500 Ly = 3500 Lz = 3500
nx = 700 ny = 700 nz = 700
xoffset = -983.599254 yoffset = -42.9823471 zoffset = 800.977702
bins = 400 dk = 0.001
kx_ny = 0.628318531 ky_ny = 0.628318531 kz_ny = 0.628318531
############################
A(data) = 9.14870483 (not used)
A(ran) = 9.16506744 (used)
Ngal = 508610
weighted Ngal = 0
Nran = 25229228
weighted Nran = 0
SN(data) = 6682.50185
SN(ran) = 136.049112
SN(data+ran) = 6818.55096
############################
13 columns: k_central k_mean P_0(k) sigma^{lin}_{P_0(k)} P^img_1(k) sigma^{lin}_{P_1(k)} P_2(k) sigma^{lin}_{P_2(k)} P^img_3(k) sigma^{lin}_{P_3(k)} P_4(k) sigma^{lin}_{P_4(k)} N_modes
### header ###
0.00050000 0 0 0 0 0 0 0 0 0 0 0 0
0.00150000 0.00179520 10427.41309087 0 -18275.14324931 0 -32120.97729664 0 45504.36083829 0 247.68124102 0 3
0.00250000 0.00253879 46513.18398417 0 -61549.08662496 0 -27509.65372699 0 5268.08017971 0 -21102.13284884 0 6
0.00350000 0.00331552 66387.57115559 0 -24892.68915521 0 -15729.90793648 0 -21200.22508199 0 -38548.70978834 0 7
0.00450000 0.00420575 79190.96926495 0 5071.54420709 0 -14038.06406751 0 -43273.50399275 0 33737.13746053 0 24
0.00550000 0.00557378 68422.90260919 0 7117.58561895 0 -4097.33344942 0 12400.70367853 0 15271.52172266 0 45
0.00650000 0.00659388 69953.93233557 0 2805.31703783 0 42747.12327465 0 -12888.08916396 0 -13446.32514255 0 40
0.00750000 0.00754703 48618.15762793 0 12829.43154638 0 8057.06315812 0 -15702.88588793 0 16527.16821444 0 57
0.00850000 0.00846663 61246.90103325 0 2658.92563904 0 29399.11005671 0 32592.10561465 0 12416.30177160 0 75
0.00950000 0.00948925 59666.55057597 0 -11565.87616235 0 7457.87669295 0 13971.38771194 0 -2402.62260700 0 112
0.01050000 0.01054430 66581.77839883 0 -2037.24276923 0 18302.71452649 0 -4085.93146308 0 7426.01044789 0 105
0.01150000 0.01145670 60794.99571725 0 4898.22962090 0 10075.82987626 0 -1987.09819539 0 16567.70128726 0 144
0.01250000 0.01249090 58921.68670923 0 1308.06487213 0 27566.66365869 0 -2178.40551147 0 10692.78937987 0 169
0.01350000 0.01339930 63574.09258033 0 -848.53845968 0 11493.70752049 0 14881.56939603 0 12140.91853698 0 180
0.01450000 0.01448870 73942.32079413 0 -56.07679226 0 31029.87970213 0 -3755.76816500 0 365.39082235 0 267
0.01550000 0.01550050 68285.48560619 0 1516.34335285 0 26859.25718445 0 -13559.90562304 0 9128.26769168 0 238
0.01650000 0.01653350 68585.91366629 0 5171.63563245 0 41319.67806771 0 14692.30521045 0 12771.87238605 0 315
0.01750000 0.01747870 69768.73244185 0 -4027.99882729 0 38710.73223391 0 3629.90693237 0 21445.29089628 0 297
0.01850000 0.01844180 71214.63173074 0 -1587.04006198 0 37870.85181434 0 8900.84310095 0 17682.74524999 0 388
0.01950000 0.01947590 72564.41600953 0 325.81230888 0 33061.36655533 0 12475.94800071 0 16295.61342442 0 399
0.02050000 0.02045430 76944.40448062 0 1912.79854645 0 44340.98475620 0 2732.30258388 0 28484.64438931 0 462
0.02150000 0.02154770 73364.42243063 0 2613.52640056 0 42286.86968349 0 -3609.19002848 0 25158.29612023 0 571
0.02250000 0.02255340 75210.05031575 0 -3493.55543292 0 38502.46473777 0 10961.13150345 0 27100.69808979 0 510
0.02350000 0.02348930 76304.88266493 0 -1894.81680114 0 43871.06474118 0 7126.16457014 0 16498.71817145 0 555
0.02450000 0.02439640 75547.38653972 0 5613.03969706 0 36813.03747476 0 3541.21749335 0 17716.02850492 0 592
0.02550000 0.02547300 71468.15566591 0 2753.52477811 0 40923.24484325 0 3422.32047973 0 17390.44577361 0 837
0.02650000 0.02652900 68828.01364599 0 1070.66738796 0 43036.23722499 0 1622.55318514 0 26069.13687867 0 723
0.02750000 0.02749970 67699.67835043 0 2985.54092017 0 43834.48611448 0 -34.55955241 0 688.02419592 0 826
0.02850000 0.02848090 67215.36854532 0 -237.04378093 0 38819.58934819 0 3067.78241509 0 13968.64156879 0 831
0.02950000 0.02946900 62271.10258073 0 164.01834241 0 31893.04741558 0 7721.35265089 0 6908.58215645 0 996
0.03050000 0.03053250 63122.62664724 0 1020.25149518 0 30851.27055196 0 -368.80482750 0 10498.36244518 0 1041
0.03150000 0.03150510 61909.27075990 0 2724.23990761 0 26370.77324176 0 4729.06720315 0 324.14594922 0 1036
0.03250000 0.03246190 60426.57315287 0 1279.72467487 0 27204.17276350 0 2192.37788779 0 -6423.97576788 0 1059
0.03350000 0.03345080 54708.66374138 0 1106.05858236 0 26175.02815836 0 1238.18102137 0 -833.75102807 0 1302
0.03450000 0.03451200 55106.96434318 0 4118.88518083 0 31473.98597160 0 -4467.24991567 0 -5188.21135247 0 1339
0.03550000 0.03553350 51032.23714413 0 322.69818255 0 24037.65002548 0 -1731.09174681 0 -2133.97291538 0 1365
0.03650000 0.03647120 53345.47828404 0 -1577.61529871 0 29128.34034258 0 3452.51706975 0 -14333.10968704 0 1308
0.03750000 0.03744890 51579.15901296 0 1.30695543 0 20427.35055517 0 3033.71925552 0 -7322.51380503 0 1579
0.03850000 0.03847530 53488.05803614 0 446.89635090 0 22265.94831383 0 6428.08399802 0 -2445.13290289 0 1662
0.03950000 0.03950240 50788.05009565 0 -928.85326056 0 18768.24071248 0 2675.22674475 0 -6230.51547557 0 1683
0.04050000 0.04050350 50961.49649671 0 1108.91457123 0 16327.24899346 0 5281.98664860 0 1084.61010594 0 1822
0.04150000 0.04152450 51073.97851994 0 1400.44512754 0 15447.71426687 0 3920.29509313 0 5353.58409269 0 1887
0.04250000 0.04250150 48767.98719794 0 912.35223563 0 11071.89993336 0 207.88193764 0 10012.71252221 0 1920
0.04350000 0.04349210 46805.26376910 0 1841.10224121 0 13926.24111863 0 3950.16214598 0 6334.49543963 0 2005
0.04450000 0.04448520 44846.71447785 0 629.93557919 0 9460.11162936 0 247.68453639 0 12074.24218141 0 2151
0.04550000 0.04548030 43459.03342365 0 1147.95374219 0 12956.63289687 0 1158.07053353 0 8509.71542505 0 2274
0.04650000 0.04648670 42634.31171424 0 2362.10051875 0 14074.20331130 0 -2858.51532284 0 6795.08955254 0 2311
0.04750000 0.04749250 38076.59285879 0 1913.00725333 0 16623.50291598 0 -3450.62772327 0 6697.55753259 0 2568
0.04850000 0.04851840 37756.17287659 0 1051.48612732 0 16273.09505063 0 722.68271933 0 4466.19539670 0 2493
0.04950000 0.04949480 37349.19446245 0 -756.74917427 0 18022.60792566 0 881.26589523 0 3121.20039155 0 2644
0.05050000 0.05050630 37280.43103809 0 643.23899505 0 17120.00559665 0 2663.48423666 0 2022.22685851 0 2829
0.05150000 0.05149060 36899.92544388 0 687.34534933 0 15955.20152013 0 -256.25030609 0 5609.05229721 0 2784
0.05250000 0.05249300 35861.55379776 0 188.40189663 0 16709.07273638 0 1305.58235873 0 4879.10548004 0 3055
0.05350000 0.05348950 37015.59299316 0 -11.49546505 0 14506.22655092 0 3223.23608626 0 6663.01105182 0 3009
0.05450000 0.05448610 36849.39641000 0 172.84884031 0 15829.42816407 0 732.08771037 0 6407.87238447 0 3336
0.05550000 0.05550870 35562.99311500 0 294.35908375 0 16504.75968637 0 -970.90879515 0 7176.83640346 0 3349
0.05650000 0.05647670 35297.16645853 0 1459.28948286 0 16306.26845983 0 -852.96194706 0 5744.75570688 0 3324
0.05750000 0.05747970 34032.84215442 0 -565.01236141 0 17023.56104939 0 1475.43680455 0 7357.36785383 0 3639
0.05850000 0.05849280 34853.49957197 0 721.60623121 0 17721.30109976 0 704.91956701 0 5348.04786811 0 3846
0.05950000 0.05951020 34054.04237950 0 1078.41151163 0 16457.41617855 0 1063.63067077 0 5794.81240413 0 3787
0.06050000 0.06049470 33913.87923336 0 -679.72644979 0 15345.99712477 0 2386.84876077 0 6917.29292250 0 3930
0.06150000 0.06148310 33482.40522237 0 287.72659882 0 15831.51523286 0 814.81142802 0 4432.82426520 0 4083
0.06250000 0.06249100 32325.94942101 0 519.32313021 0 13107.01169551 0 1516.62895173 0 6735.80581432 0 4303
0.06350000 0.06350600 33210.09766808 0 -527.88011226 0 12256.36639481 0 1966.97445842 0 5946.87184238 0 4470
0.06450000 0.06451750 32025.30166945 0 467.69014680 0 10026.11370076 0 1274.43011089 0 4920.50633409 0 4479
0.06550000 0.06550280 32121.08714236 0 1687.92237657 0 11438.23542895 0 -1633.57071143 0 529.03788621 0 4636
0.06650000 0.06648880 30849.40317462 0 697.45445148 0 11100.34997635 0 -1672.99434243 0 4317.96957429 0 4653
0.06750000 0.06749660 28820.99200175 0 90.76783000 0 10698.85286393 0 1536.31330580 0 509.56223902 0 5220
0.06850000 0.06852730 28854.05556522 0 402.20232198 0 10369.87589969 0 1378.31121379 0 2117.15553476 0 5029
0.06950000 0.06949320 29341.44105065 0 346.30512749 0 9535.16921381 0 682.66262604 0 -1951.70590254 0 5040
0.07050000 0.07048030 28696.53679440 0 -174.09229393 0 8750.39839488 0 72.96634152 0 511.54056054 0 5475
0.07150000 0.07148790 27528.21765465 0 690.86260947 0 7867.80995711 0 160.09135772 0 2285.58198615 0 5509
0.07250000 0.07249820 27009.30644591 0 107.39704489 0 9110.65942183 0 480.42236487 0 824.80629062 0 5916
0.07350000 0.07351270 26879.57864372 0 407.66824530 0 7725.95518680 0 -125.47347722 0 -445.26843724 0 5721
0.07450000 0.07449140 26799.17157243 0 266.40774036 0 8920.56040874 0 922.28997845 0 -475.99777904 0 6028
0.07550000 0.07549160 26286.41172433 0 61.82161387 0 8639.36633523 0 -428.50817640 0 453.28497831 0 6183
0.07650000 0.07648840 26349.02378805 0 -2.57633264 0 8111.46974611 0 640.52800253 0 504.63675667 0 6330
0.07750000 0.07749960 26442.83203789 0 480.62557947 0 8361.87406268 0 -782.86829096 0 -1365.58009417 0 6583
0.07850000 0.07848650 25288.68299677 0 891.35522514 0 8683.88680790 0 -434.85616089 0 -1352.64026767 0 6549
0.07950000 0.07947320 24206.26321460 0 611.22116289 0 8472.10424853 0 -605.55971418 0 -1089.51471760 0 6828
0.08050000 0.08048110 23614.08490674 0 507.64652956 0 9038.68850228 0 817.99805253 0 -1594.83910851 0 7147
0.08150000 0.08149960 23845.09046813 0 655.67792504 0 9676.62853951 0 1508.65415204 0 -1062.63986232 0 7386
0.08250000 0.08250610 22519.69194046 0 -143.32889996 0 7690.47501736 0 653.89512891 0 526.95630970 0 7227
0.08350000 0.08350160 22901.18614621 0 -974.30632345 0 6558.97616490 0 2326.52148816 0 1040.15224533 0 7798
0.08450000 0.08449610 22562.42192780 0 364.46592133 0 5419.43660531 0 516.73955874 0 590.64376307 0 7371
0.08550000 0.08548940 22526.28268401 0 1067.63784284 0 5527.81039840 0 -303.98706162 0 2011.56083853 0 8256
0.08650000 0.08650700 21528.88349363 0 478.27048711 0 5738.25283991 0 -93.82296917 0 2139.02581876 0 8037
0.08750000 0.08749060 21057.20594698 0 281.29842695 0 6214.11550871 0 856.32102935 0 2553.41881940 0 8155
0.08850000 0.08849210 20269.61209290 0 370.91166853 0 5264.89465367 0 292.43788200 0 2420.37367629 0 8718
0.08950000 0.08949900 20104.95334991 0 87.22200997 0 6324.01615739 0 637.21066161 0 3528.10191368 0 8571
0.09050000 0.09049190 19552.97857769 0 342.18261740 0 5979.60586867 0 -527.73401744 0 2801.42849914 0 8932
0.09150000 0.09150830 19286.82238405 0 342.16614054 0 5990.46961095 0 -50.56539281 0 2847.88225658 0 9285
0.09250000 0.09250820 19639.75670109 0 393.87272059 0 5963.68922300 0 -237.52600367 0 1197.17561192 0 9204
0.09350000 0.09350330 18522.95520674 0 377.19813941 0 6950.00497965 0 -11.47283683 0 2337.51704531 0 9349
0.09450000 0.09448040 18176.17225035 0 105.08709913 0 6491.48695096 0 -583.76412526 0 1521.82465456 0 9564
0.09550000 0.09549270 17886.83860856 0 366.94294245 0 6824.74789851 0 336.57828846 0 283.00982336 0 10155
0.09650000 0.09649430 17404.06664361 0 445.59577751 0 6780.73271617 0 -235.38181510 0 1139.61645160 0 9913
0.09750000 0.09749140 16623.61276170 0 451.38354880 0 6675.64331029 0 263.98893748 0 1579.30692288 0 10476
0.09850000 0.09850240 17024.65950665 0 -186.91897933 0 6396.97568847 0 1872.60599538 0 1166.61653100 0 10575
0.09950000 0.09950330 17191.95454706 0 -229.09973804 0 5697.80764367 0 37.04195597 0 236.48576465 0 10882
0.10050000 0.10051200 16577.36771113 0 436.03151016 0 5868.43100957 0 -361.61103092 0 1040.79484283 0 10875
0.10150000 0.10150300 16550.56535404 0 150.96647327 0 5564.52083997 0 -74.21144282 0 1464.89161488 0 11118
0.10250000 0.10250800 16429.73505564 0 2.44009098 0 6203.17487442 0 195.16949180 0 468.76773337 0 11575
0.10350000 0.10349800 16099.53880385 0 138.43966670 0 5557.84221984 0 -256.31731198 0 326.92065225 0 11364
0.10450000 0.10450100 15868.53324246 0 369.34636693 0 6360.78152182 0 -75.03385777 0 1233.43568601 0 12093
0.10550000 0.10551000 15762.53211705 0 14.86344485 0 5644.66428152 0 170.51352018 0 826.53416388 0 12067
0.10650000 0.10649700 15577.55191478 0 336.60355298 0 6270.05993687 0 557.18475499 0 -31.08370411 0 12054
0.10750000 0.10749900 15401.02983340 0 234.20646584 0 6308.95630838 0 -132.95287270 0 1094.35012645 0 12807
0.10850000 0.10850100 15499.89098663 0 -30.71363386 0 5850.61403285 0 934.85193565 0 1057.41779651 0 12736
0.10950000 0.10950300 15501.53867252 0 -353.49453024 0 5451.87404814 0 344.49377147 0 605.14998962 0 12933
0.11050000 0.11050200 15271.85125984 0 236.27376240 0 4947.66019752 0 -535.62862975 0 429.02115594 0 13428
0.11150000 0.11150900 14689.33937585 0 620.37680413 0 5465.46196443 0 -426.96484395 0 604.06800922 0 13453
0.11250000 0.11250000 14947.36698579 0 192.32229058 0 5805.25873266 0 6.06219887 0 15.72123012 0 13668
0.11350000 0.11349100 14014.33739073 0 -66.64790553 0 5937.43609453 0 103.72193645 0 -172.08211714 0 13791
0.11450000 0.11448600 14091.33924452 0 443.03417518 0 5609.29395781 0 131.38098036 0 -28.39281336 0 14205
0.11550000 0.11549300 13959.19483637 0 153.45557742 0 5689.29459992 0 241.84184224 0 457.89300651 0 14776
0.11650000 0.11649800 13800.02837967 0 74.43728563 0 5636.40388294 0 757.77403490 0 543.48699298 0 14553
0.11750000 0.11747300 13667.22489716 0 -32.96689923 0 5391.83237442 0 717.22228830 0 567.22355587 0 14568
0.11850000 0.11849100 13763.99898160 0 -130.24627401 0 4198.29265602 0 203.52325924 0 973.12658035 0 16015
0.11950000 0.11950300 13713.46994773 0 212.62837146 0 4893.96760674 0 69.34978084 0 1134.76127052 0 15270
0.12050000 0.12050700 13544.30752997 0 27.49229810 0 4652.32897909 0 -305.41944988 0 964.24445496 0 15999
0.12150000 0.12150000 13527.28144247 0 -82.30619405 0 4754.68322641 0 349.11717807 0 126.43792270 0 15670
0.12250000 0.12250700 13761.36268418 0 188.79294741 0 4832.05855567 0 -712.11885588 0 -813.06488098 0 16887
0.12350000 0.12352200 13510.91442933 0 97.10812529 0 4777.21258477 0 -495.94686130 0 -412.45971586 0 16407
0.12450000 0.12449800 13348.89198375 0 139.88743337 0 5122.34785528 0 -207.02953481 0 -1534.66561991 0 16306
0.12550000 0.12549900 13190.05506423 0 286.63143694 0 5175.55712486 0 -1.83044721 0 -1169.93387192 0 17523
0.12650000 0.12650100 13174.01758826 0 74.56250976 0 5007.36134950 0 594.21045379 0 -1560.79791808 0 17154
0.12750000 0.12750600 13030.00984172 0 -17.58805823 0 4731.06639536 0 472.12352029 0 -1064.97518245 0 18007
0.12850000 0.12850300 12838.10935872 0 107.28148719 0 4904.54575013 0 390.59602259 0 -90.10249444 0 17496
0.12950000 0.12949900 12940.48557518 0 -246.18184686 0 3989.83842214 0 524.74841061 0 -206.95483972 0 18405
0.13050000 0.13049000 12690.80624040 0 -60.37088137 0 3423.24318382 0 968.62510251 0 114.12421683 0 18100
0.13150000 0.13148800 12737.16113670 0 511.75475971 0 3702.38314226 0 -270.48850907 0 416.96668599 0 19059
0.13250000 0.13249300 12483.30766434 0 267.50290224 0 3658.84029655 0 273.93327103 0 1576.92327063 0 18957
0.13350000 0.13349100 12225.28005441 0 -89.60807883 0 3542.98600953 0 346.78295639 0 921.14758290 0 19468
0.13450000 0.13450700 12244.61290215 0 148.67179606 0 3474.67295265 0 -71.42114170 0 614.40229511 0 19953
0.13550000 0.13551000 11962.63892399 0 316.33262274 0 3688.67439568 0 -290.62542753 0 1340.78791385 0 19956
0.13650000 0.13649900 11762.93939446 0 -147.33057975 0 3572.12808059 0 245.00649760 0 927.47030288 0 19723
0.13750000 0.13749600 11787.87437422 0 30.65761254 0 3672.83464202 0 -134.97073868 0 751.32499233 0 20946
0.13850000 0.13851100 11565.43677944 0 421.32426593 0 3816.21626792 0 -217.21223360 0 397.64592127 0 20955
0.13950000 0.13949800 11246.88417459 0 267.36229972 0 4095.61985610 0 -82.21106765 0 838.73692556 0 20506
0.14050000 0.14048300 11206.68063894 0 -6.50720587 0 3776.92445180 0 451.38354880 0 997.59142041 0 21447
0.14150000 0.14148400 11095.95614732 0 93.53495368 0 3851.55363791 0 478.43196032 0 707.41855727 0 21771
0.14250000 0.14249400 11152.63654184 0 81.31703329 0 3669.00102618 0 -272.17134559 0 567.02693202 0 22470
0.14350000 0.14350900 10589.10599927 0 149.75707183 0 3480.58265270 0 260.43542825 0 981.70992537 0 22519
0.14450000 0.14449900 10757.46654322 0 6.66494434 0 3490.10627713 0 19.78870751 0 649.13990744 0 22218
0.14550000 0.14550500 10416.73608632 0 186.28187412 0 3339.66157105 0 25.11249045 0 590.21536474 0 23559
0.14650000 0.14650700 10452.67760781 0 149.08481599 0 3537.82326042 0 222.00919644 0 977.21503827 0 23044
0.14750000 0.14750500 10326.26714654 0 -164.13477888 0 3039.47517155 0 35.47698391 0 441.46338130 0 23649
0.14850000 0.14849900 10418.37278764 0 180.34910647 0 3385.01687124 0 -143.62877879 0 237.51392064 0 23640
0.14950000 0.14949500 10181.77607881 0 221.38966655 0 3192.31451444 0 -50.42995303 0 99.18849350 0 24457
0.15050000 0.15050000 9996.89473769 0 109.52838151 0 3495.74136286 0 -279.10480780 0 384.82143278 0 24591
0.15150000 0.15149900 9897.38549468 0 97.67536862 0 3373.10959456 0 17.09188509 0 147.77435648 0 25020
0.15250000 0.15250500 9899.86800808 0 91.35770155 0 3704.97550139 0 129.32796374 0 -58.43858521 0 25297
0.15350000 0.15350100 9531.61021229 0 170.10818945 0 3518.84191900 0 108.84327372 0 303.49275585 0 25452
0.15450000 0.15450400 9461.88014554 0 242.99192699 0 3935.30001927 0 240.02719085 0 570.03011416 0 26061
0.15550000 0.15549900 9440.33939871 0 8.93769634 0 3482.41707632 0 134.23587077 0 760.43449837 0 26128
0.15650000 0.15649500 9357.28504543 0 -155.22409360 0 3556.79361727 0 574.73700352 0 752.62886110 0 26331
0.15750000 0.15749700 9258.48979963 0 78.65887657 0 3203.45287104 0 -197.93650563 0 743.09535056 0 27345
0.15850000 0.15849900 9274.70302876 0 201.04953350 0 2995.28423605 0 117.42727781 0 820.20155779 0 26980
0.15950000 0.15949700 9293.95898449 0 -3.47990161 0 3210.23035232 0 -77.98727980 0 686.20734761 0 27777
0.16050000 0.16050000 9095.97304829 0 107.82742045 0 3064.35522844 0 254.19838793 0 609.01765763 0 28224
0.16150000 0.16150500 8892.11036575 0 160.67134315 0 3023.67935618 0 -197.43670758 0 631.59864348 0 28075
0.16250000 0.16249700 8739.60056003 0 165.66602830 0 3224.65309612 0 77.47287227 0 735.66318875 0 28590
0.16350000 0.16349900 8566.58255730 0 139.32172788 0 3222.54405819 0 52.25569884 0 430.22506509 0 29163
0.16450000 0.16449100 8404.06580596 0 79.25621763 0 3086.56603420 0 127.83406187 0 768.59383889 0 28996
0.16550000 0.16550500 8521.63368630 0 -4.69728883 0 3079.67870720 0 227.88264740 0 629.18423443 0 30777
0.16650000 0.16650700 8304.53459380 0 33.88103536 0 2851.43027353 0 276.37733843 0 969.72355977 0 29211
0.16750000 0.16749900 8291.88036619 0 44.46269382 0 2967.00994623 0 -84.09953537 0 600.60237657 0 30922
0.16850000 0.16850800 8128.62764848 0 207.81273484 0 2809.09573080 0 -57.47161328 0 839.76947539 0 30867
0.16950000 0.16949900 8055.39350308 0 183.01286532 0 2904.57363568 0 132.67825838 0 1040.86843946 0 30852
0.17050000 0.17049200 8009.64275828 0 -119.11890199 0 2774.08789798 0 350.75717475 0 1227.26235622 0 31257
0.17150000 0.17149500 8097.36555492 0 -74.63775408 0 2705.66499537 0 67.58060558 0 771.22025019 0 32608
0.17250000 0.17250900 7966.85784808 0 227.62341149 0 2541.24791298 0 -98.15319753 0 679.61111178 0 32361
0.17350000 0.17350400 7946.07503675 0 111.82404734 0 2639.48294557 0 -117.20758636 0 983.81676639 0 32508
0.17450000 0.17449800 7786.89759548 0 14.51029084 0 2827.89033449 0 -17.63309498 0 492.94367916 0 32791
0.17550000 0.17549800 7765.69737040 0 6.48474242 0 2631.68389904 0 56.78430858 0 441.32497569 0 33633
0.17650000 0.17650100 7688.60764002 0 76.13945500 0 2631.35436186 0 16.19719165 0 347.12677351 0 33984
0.17750000 0.17750300 7593.19564258 0 189.21036117 0 2402.06239380 0 -151.95398635 0 277.70866863 0 34069
0.17850000 0.17849800 7499.05785556 0 -24.03369558 0 2645.03015472 0 177.82924552 0 81.54891762 0 34536
