### header ###
fiducial parameters:
Omega_m = 0.31
Omega_nu = 0
Omega_de = 0.69
Omega_k = 0
H_0 = 100
w_de = -1
zeff = 0
beta = 0
fgrowth = 0
b_1 = 2
gamma = 0.55
Lx = 3500 Ly = 3500 Lz = 3500
nx = 700 ny = 700 nz = 700
xoffset = -983.599254 yoffset = -42.9823471 zoffset = 800.977702
bins = 400 dk = 0.001
kx_ny = 0.628318531 ky_ny = 0.628318531 kz_ny = 0.628318531
############################
A(data) = 9.0902187 (not used)
A(ran) = 9.09132391 (used)
Ngal = 504265
weighted Ngal = 0
Nran = 25229228
weighted Nran = 0
SN(data) = 6749.54021
SN(ran) = 134.95444
SN(data+ran) = 6884.49465
############################
13 columns: k_central k_mean P_0(k) sigma^{lin}_{P_0(k)} P^img_1(k) sigma^{lin}_{P_1(k)} P_2(k) sigma^{lin}_{P_2(k)} P^img_3(k) sigma^{lin}_{P_3(k)} P_4(k) sigma^{lin}_{P_4(k)} N_modes
### header ###
0.00050000 0 0 0 0 0 0 0 0 0 0 0 0
0.00150000 0.00179520 38179.62814960 0 -19856.81185529 0 -31103.47633843 0 27113.11065680 0 20956.47741641 0 3
0.00250000 0.00253879 65269.23182108 0 -17458.33043216 0 -5865.33336011 0 -52181.11359041 0 62312.51441936 0 6
0.00350000 0.00331552 49641.15087243 0 5066.35948883 0 -18746.71095022 0 -22207.18085052 0 9415.62411040 0 7
0.00450000 0.00420575 61864.45370377 0 -2535.68971925 0 2850.51855400 0 -31332.61452248 0 -9064.84276959 0 24
0.00550000 0.00557378 63050.67769683 0 -2116.74910557 0 21804.04703679 0 -19778.82138997 0 -21716.60983904 0 45
0.00650000 0.00659388 53280.77915153 0 4633.49043712 0 24871.48893013 0 -5086.21959606 0 11454.49259637 0 40
0.00750000 0.00754703 80735.61986134 0 -1670.62167475 0 44498.50352702 0 -32557.72390247 0 -18799.65659007 0 57
0.00850000 0.00846663 72869.01820721 0 -3689.81679123 0 37407.63238859 0 25069.54077377 0 -10659.95649242 0 75
0.00950000 0.00948925 83676.73917000 0 478.37154517 0 51361.33493867 0 22733.78126007 0 1445.87731974 0 112
0.01050000 0.01054430 77834.48439688 0 9639.09425500 0 67817.98219713 0 1930.08826370 0 24746.15495698 0 105
0.01150000 0.01145670 84466.20040142 0 9562.03747834 0 60140.97426576 0 15993.09829553 0 20319.92143532 0 144
0.01250000 0.01249090 74332.49281222 0 -3568.27249561 0 59230.35319876 0 24520.64168188 0 40724.86346243 0 169
0.01350000 0.01339930 70545.12203190 0 -1001.23170776 0 66803.00769062 0 19850.66049465 0 27353.45310488 0 180
0.01450000 0.01448870 72007.60802538 0 7293.21794996 0 57212.48721557 0 13894.16616669 0 46233.62661197 0 267
0.01550000 0.01550050 73020.16592593 0 962.36499460 0 58375.53376048 0 11422.08810726 0 54911.54879696 0 238
0.01650000 0.01653350 72272.33622459 0 -4914.02543627 0 52125.75134460 0 12625.55787927 0 34884.03668375 0 315
0.01750000 0.01747870 74866.12334823 0 -2617.56872327 0 39992.85154561 0 12946.30739865 0 40959.71362422 0 297
0.01850000 0.01844180 79948.68508161 0 5102.86122352 0 53501.67890614 0 6621.45641374 0 24304.02591058 0 388
0.01950000 0.01947590 79230.51372624 0 6277.38664678 0 63672.62419639 0 -19318.12841591 0 15170.13411774 0 399
0.02050000 0.02045430 71451.12957841 0 7169.48772440 0 66884.62306490 0 -140.10712482 0 22879.10715532 0 462
0.02150000 0.02154770 62916.99544851 0 737.86230018 0 74788.90180298 0 7651.35895440 0 17759.41756661 0 571
0.02250000 0.02255340 61513.05722689 0 213.63785368 0 61663.54587126 0 19477.29487261 0 15865.01817923 0 510
0.02350000 0.02348930 68040.74932908 0 -2481.83235988 0 63711.72927477 0 20644.95493801 0 21690.13701912 0 555
0.02450000 0.02439640 66691.29458746 0 1535.20386397 0 44875.27436656 0 14513.14683165 0 13733.13233265 0 592
0.02550000 0.02547300 67236.67861613 0 1914.50115520 0 48614.53271898 0 -1972.45576014 0 24625.98373294 0 837
0.02650000 0.02652900 62730.47740608 0 -2054.90596194 0 33919.48136538 0 13258.15941423 0 20406.91925017 0 723
0.02750000 0.02749970 65082.60393293 0 -4838.93489811 0 31326.90254473 0 14277.85728696 0 17902.54654735 0 826
0.02850000 0.02848090 67010.39642095 0 -533.95787626 0 17814.23058379 0 2163.20286302 0 1349.46572619 0 831
0.02950000 0.02946900 69454.24412885 0 3700.42788834 0 16748.72704340 0 7115.78414905 0 9339.62185271 0 996
0.03050000 0.03053250 61874.77920200 0 2181.88762098 0 14013.78816210 0 -6376.79702864 0 9980.03341878 0 1041
0.03150000 0.03150510 60828.05928072 0 1842.85977283 0 13544.96660433 0 3035.74041687 0 8037.41175777 0 1036
0.03250000 0.03246190 57085.17601935 0 2143.83706156 0 17437.67943570 0 -408.12190814 0 8687.84125403 0 1059
0.03350000 0.03345080 57782.03730391 0 1447.42614447 0 14009.06479589 0 212.76128479 0 -5238.77334007 0 1302
0.03450000 0.03451200 53809.24693842 0 2868.19273129 0 21371.80410571 0 -2022.67722598 0 -4059.98590265 0 1339
0.03550000 0.03553350 49517.90396807 0 2664.79140080 0 18139.81331510 0 -5408.64975504 0 3262.03359662 0 1365
0.03650000 0.03647120 47493.66693278 0 -388.22005954 0 23365.50402923 0 1489.82659463 0 2800.80237850 0 1308
0.03750000 0.03744890 48140.87794927 0 -1182.12674749 0 19460.26878511 0 7820.75204817 0 -2723.51492582 0 1579
0.03850000 0.03847530 50157.20609230 0 963.05592421 0 20078.91991289 0 6534.50253719 0 5007.31741121 0 1662
0.03950000 0.03950240 51630.01758401 0 407.60123940 0 17013.01585971 0 102.61436199 0 7759.08465770 0 1683
0.04050000 0.04050350 48719.43538713 0 504.75539006 0 18169.69135253 0 637.50834353 0 9974.71688565 0 1822
0.04150000 0.04152450 46663.34309135 0 1353.58494091 0 20027.40226748 0 -254.48728219 0 12927.41393381 0 1887
0.04250000 0.04250150 45910.57033235 0 727.64115539 0 22074.15767656 0 27.22559268 0 15494.28885461 0 1920
0.04350000 0.04349210 46602.15902207 0 799.84275097 0 18844.47364620 0 2045.41529123 0 10061.65977763 0 2005
0.04450000 0.04448520 44900.86842068 0 889.20883966 0 21793.17230993 0 850.77382020 0 6072.52436814 0 2151
0.04550000 0.04548030 43446.51101091 0 1568.39924231 0 20369.13232049 0 530.68227672 0 7504.90164817 0 2274
0.04650000 0.04648670 42800.72798885 0 1422.63396415 0 21881.92765639 0 3293.58128907 0 11023.67765973 0 2311
0.04750000 0.04749250 40568.00376597 0 618.19197265 0 18161.01354019 0 538.57798749 0 9251.54754976 0 2568
0.04850000 0.04851840 40700.91709420 0 2.02497300 0 18171.33903841 0 3133.60197400 0 5079.77165195 0 2493
0.04950000 0.04949480 39996.47645456 0 1148.88743086 0 14775.34857916 0 377.72100507 0 4919.67150658 0 2644
0.05050000 0.05050630 37321.29364810 0 1370.27050666 0 18507.13742222 0 -1712.52781915 0 6315.04176159 0 2829
0.05150000 0.05149060 34507.37568993 0 926.79145629 0 18522.73551529 0 -2344.38240317 0 6972.81993690 0 2784
0.05250000 0.05249300 34846.79898270 0 332.34483419 0 20080.45775305 0 3164.98489786 0 3722.82543183 0 3055
0.05350000 0.05348950 35812.12322115 0 801.28282843 0 19092.72498654 0 1096.36689397 0 3825.90466094 0 3009
0.05450000 0.05448610 34781.11123866 0 320.91868179 0 17853.55535363 0 1395.51305445 0 6852.97825004 0 3336
0.05550000 0.05550870 34192.22830258 0 -742.26271995 0 20187.66718144 0 2447.79116945 0 9140.85601186 0 3349
0.05650000 0.05647670 35149.09442014 0 -662.17310281 0 15826.02294657 0 4594.56111189 0 9903.82245421 0 3324
0.05750000 0.05747970 35377.35383838 0 449.87207161 0 15560.74551873 0 2420.14300027 0 10200.68052822 0 3639
0.05850000 0.05849280 34812.41727052 0 1075.14689666 0 13315.27919165 0 -1301.14459141 0 11042.90066175 0 3846
0.05950000 0.05951020 33930.57578369 0 318.09125281 0 15484.29289356 0 556.16318974 0 9930.44905815 0 3787
0.06050000 0.06049470 33157.15202824 0 895.89405053 0 13552.76565086 0 -576.96687175 0 6765.66188259 0 3930
0.06150000 0.06148310 31605.25161394 0 219.75626061 0 13176.65388568 0 2074.46948570 0 7398.61492387 0 4083
0.06250000 0.06249100 32112.62902148 0 -360.59276104 0 12523.51119999 0 2227.63836578 0 5926.38561451 0 4303
0.06350000 0.06350600 31758.92578436 0 213.35335325 0 9070.47785533 0 1718.33865804 0 5001.06718941 0 4470
0.06450000 0.06451750 31410.38529635 0 484.41086318 0 9284.02893088 0 413.08144266 0 1840.24544455 0 4479
0.06550000 0.06550280 29935.48673585 0 869.45198742 0 8441.62205962 0 -624.98812770 0 2036.40794171 0 4636
0.06650000 0.06648880 29377.69014017 0 562.85938518 0 9348.54132565 0 -1482.15936297 0 3885.32021403 0 4653
0.06750000 0.06749660 28756.07317780 0 -384.93896771 0 7245.52293581 0 1275.40773785 0 348.19996626 0 5220
0.06850000 0.06852730 29058.14892378 0 848.01669248 0 8514.49371412 0 431.08296021 0 -755.24428783 0 5029
0.06950000 0.06949320 28171.14468784 0 279.58153825 0 7617.57040914 0 -2215.99471884 0 155.70302097 0 5040
0.07050000 0.07048030 27422.21652924 0 1181.08321309 0 10098.62286437 0 -1021.66520968 0 -1833.70962387 0 5475
0.07150000 0.07148790 26486.99001967 0 731.81419451 0 10417.26334581 0 496.29946608 0 233.50784702 0 5509
0.07250000 0.07249820 27098.94055817 0 -470.40663160 0 11011.92416707 0 759.69523664 0 -652.11892352 0 5916
0.07350000 0.07351270 26583.43456693 0 -412.22025217 0 9641.29116952 0 2265.60104862 0 -882.31052808 0 5721
0.07450000 0.07449140 26849.48091485 0 322.81352056 0 9355.06616176 0 -1421.94193608 0 -99.12016945 0 6028
0.07550000 0.07549160 25899.09569511 0 1147.39352898 0 9461.47371636 0 167.49935346 0 -83.87149564 0 6183
0.07650000 0.07648840 25963.79482762 0 222.28600767 0 10542.24581264 0 -146.40348182 0 364.63068992 0 6330
0.07750000 0.07749960 25388.97214444 0 48.55466680 0 10471.97750183 0 651.25663457 0 -229.94664859 0 6583
0.07850000 0.07848650 24772.95731407 0 -26.08209867 0 9780.38881211 0 767.90071236 0 -168.42095910 0 6549
0.07950000 0.07947320 24584.24235713 0 483.40577479 0 9662.86487007 0 1685.41789402 0 1327.54051932 0 6828
0.08050000 0.08048110 24918.28320933 0 -541.75582434 0 8151.47555945 0 1100.86287953 0 709.93951668 0 7147
0.08150000 0.08149960 24988.25493667 0 558.91262825 0 7213.15140041 0 711.48175067 0 1959.72464052 0 7386
0.08250000 0.08250610 24547.66373043 0 281.88500313 0 7048.27296596 0 -363.80794544 0 1769.82334973 0 7227
0.08350000 0.08350160 23290.47939850 0 345.07705227 0 6472.35182552 0 293.60334515 0 1324.51976186 0 7798
0.08450000 0.08449610 23466.12271407 0 809.84530276 0 7858.52799328 0 -217.89767092 0 343.57326428 0 7371
0.08550000 0.08548940 21697.93606565 0 1007.67525804 0 8055.11888877 0 -1484.40021578 0 2013.45018502 0 8256
0.08650000 0.08650700 21468.90772733 0 82.67714307 0 8199.45617249 0 848.74826501 0 825.79600061 0 8037
0.08750000 0.08749060 20710.31314486 0 -147.67769224 0 7213.33813814 0 1123.57897563 0 1257.41500796 0 8155
0.08850000 0.08849210 21339.17992515 0 -6.71558322 0 6992.60315212 0 946.86466423 0 -83.18990291 0 8718
0.08950000 0.08949900 20601.23633913 0 477.58944361 0 6908.80184790 0 -176.31227605 0 2094.04399404 0 8571
0.09050000 0.09049190 20957.57587367 0 371.58612128 0 7504.67097215 0 -827.47004947 0 231.82610896 0 8932
0.09150000 0.09150830 19865.05028473 0 510.41793722 0 7893.50287238 0 -869.65849738 0 -133.34831731 0 9285
0.09250000 0.09250820 19961.49483199 0 452.42928011 0 8576.87510181 0 139.58535762 0 419.71722296 0 9204
0.09350000 0.09350330 19102.50125613 0 -11.57466382 0 8948.94454429 0 388.53971060 0 412.52891866 0 9349
0.09450000 0.09448040 19031.76060871 0 208.61131326 0 8492.74426041 0 788.87465525 0 852.60494845 0 9564
0.09550000 0.09549270 19028.35539121 0 341.26101176 0 8293.22048404 0 206.46163241 0 -25.95984038 0 10155
0.09650000 0.09649430 18620.49821126 0 264.05594337 0 8769.50056660 0 618.43033787 0 1760.92584594 0 9913
0.09750000 0.09749140 18230.87542180 0 40.23857643 0 7481.09807939 0 109.93250394 0 1297.69543561 0 10476
0.09850000 0.09850240 17902.76623880 0 98.30346648 0 7844.50069410 0 810.41210671 0 1300.09007244 0 10575
0.09950000 0.09950330 17739.53549024 0 272.87765361 0 7235.68075877 0 595.79882298 0 1112.97886309 0 10882
0.10050000 0.10051200 17452.39876296 0 348.65472756 0 7061.81694396 0 -936.63363332 0 907.45970700 0 10875
0.10150000 0.10150300 16754.76855832 0 388.33649601 0 7311.02394211 0 -239.13853892 0 242.44599373 0 11118
0.10250000 0.10250800 16578.02678549 0 396.32996948 0 7666.66046400 0 301.73961807 0 -84.81496058 0 11575
0.10350000 0.10349800 16579.56462565 0 -261.81289365 0 6681.28938059 0 539.15357910 0 -567.46961030 0 11364
0.10450000 0.10450100 16378.76663886 0 -93.80561355 0 6799.85685704 0 1247.18837089 0 -1.62179525 0 12093
0.10550000 0.10551000 16796.07055123 0 -217.70983473 0 4885.57539329 0 1139.74826647 0 133.88106908 0 12067
0.10650000 0.10649700 16594.50364436 0 -108.18233199 0 4872.59162850 0 359.83262862 0 475.59025140 0 12054
0.10750000 0.10749900 16513.43749871 0 753.01551805 0 4367.67476522 0 -265.94309294 0 -123.56106314 0 12807
0.10850000 0.10850100 15737.81682874 0 307.28463031 0 5204.51245819 0 -822.03817833 0 391.02002709 0 12736
0.10950000 0.10950300 15205.06505855 0 300.03481240 0 5345.15892552 0 -118.74322960 0 87.48904493 0 12933
0.11050000 0.11050200 15222.09114605 0 149.63843845 0 5281.89877202 0 744.51016350 0 36.24260862 0 13428
0.11150000 0.11150900 14888.92905966 0 -110.18295219 0 5079.17848503 0 515.29289053 0 722.99358273 0 13453
0.11250000 0.11250000 14802.91985634 0 57.46710961 0 4379.40628874 0 425.15019256 0 740.13940207 0 13668
0.11350000 0.11349100 14863.88423417 0 353.64831426 0 4010.02806655 0 659.62797734 0 1035.48819581 0 13791
0.11450000 0.11448600 14857.95256498 0 -104.70747230 0 4610.58760328 0 135.56061023 0 1589.01728504 0 14205
0.11550000 0.11549300 14416.70228438 0 -12.95223907 0 3715.09229274 0 297.93456212 0 1830.95249615 0 14776
0.11650000 0.11649800 14783.47716287 0 331.47265913 0 4332.23853407 0 -79.71042970 0 1318.32446292 0 14553
0.11750000 0.11747300 14248.19894099 0 281.25558712 0 4189.38416765 0 -678.27648621 0 2515.79665831 0 14568
0.11850000 0.11849100 14048.71910291 0 22.30768969 0 4578.58954336 0 554.79780737 0 1063.56586179 0 16015
0.11950000 0.11950300 14090.35063299 0 1.19739530 0 4504.48761672 0 280.79972735 0 1534.23722158 0 15270
0.12050000 0.12050700 13849.78849346 0 261.12965323 0 4570.07649960 0 -520.07227806 0 1361.62564804 0 15999
0.12150000 0.12150000 13399.86040053 0 334.26933131 0 4973.71560368 0 -531.43801531 0 990.01645915 0 15670
0.12250000 0.12250700 13377.01248956 0 153.18645539 0 4851.40238799 0 -85.70976386 0 579.39775766 0 16887
0.12350000 0.12352200 13206.31223165 0 13.61109373 0 5319.77357828 0 642.93142702 0 631.92818066 0 16407
0.12450000 0.12449800 13129.74976075 0 57.02509041 0 4739.19497907 0 126.79052748 0 -14.62727654 0 16306
0.12550000 0.12549900 13108.65938140 0 103.82167636 0 4797.42419832 0 -102.76221434 0 280.11538848 0 17523
0.12650000 0.12650100 12855.35513767 0 312.52097605 0 4487.68122067 0 -168.07384661 0 -389.41518104 0 17154
0.12750000 0.12750600 12534.49577257 0 204.62171650 0 4599.87764502 0 512.02168482 0 595.63185748 0 18007
0.12850000 0.12850300 12623.91019338 0 -268.63980551 0 4445.66523055 0 13.57583325 0 -219.06313408 0 17496
0.12950000 0.12949900 12487.04241902 0 10.35620011 0 3736.00691893 0 724.79834801 0 143.41348116 0 18405
0.13050000 0.13049000 12616.77022121 0 -8.86495650 0 3894.89876132 0 414.95980458 0 414.52701242 0 18100
0.13150000 0.13148800 12484.18643015 0 147.16800807 0 3207.44027089 0 119.23863383 0 227.75632482 0 19059
0.13250000 0.13249300 12488.79995063 0 197.99472386 0 3251.48840694 0 28.14203557 0 481.37912115 0 18957
0.13350000 0.13349100 12230.44280352 0 272.03843226 0 3556.43112637 0 -303.67729667 0 260.86712195 0 19468
0.13450000 0.13450700 11857.07718148 0 119.79555166 0 3739.04964554 0 -510.45528477 0 206.25512245 0 19953
0.13550000 0.13551000 11523.47571218 0 285.16170113 0 4235.36558848 0 199.09647649 0 338.69721252 0 19956
0.13650000 0.13649900 11333.77214370 0 62.19585826 0 4093.86232449 0 311.73887449 0 882.21386384 0 19723
0.13750000 0.13749600 11567.74353969 0 -48.68681121 0 3871.22700741 0 528.96428957 0 1067.73670400 0 20946
0.13850000 0.13851100 11521.38864339 0 29.81223983 0 3815.80983873 0 465.39876496 0 783.08798241 0 20955
0.13950000 0.13949800 11441.31110928 0 139.35797697 0 3974.36115937 0 -495.87216621 0 1304.09944143 0 20506
0.14050000 0.14048300 11070.69163038 0 256.74241494 0 3842.74401070 0 -63.64516276 0 1521.38527166 0 21447
0.14150000 0.14148400 11314.21960451 0 -35.17424909 0 4385.01940533 0 -16.28429931 0 1112.63834134 0 21771
0.14250000 0.14249400 10886.78791622 0 -21.10125408 0 3959.78463156 0 -34.46925922 0 845.93401752 0 22470
0.14350000 0.14350900 11038.28714127 0 78.35943712 0 3770.03712479 0 233.03880577 0 479.99726192 0 22519
0.14450000 0.14449900 11112.65269764 0 78.77553273 0 3575.47837523 0 312.25844477 0 284.60917713 0 22218
0.14550000 0.14550500 11090.13432385 0 158.00758430 0 3203.84831566 0 12.14893727 0 -57.28103095 0 23559
0.14650000 0.14650700 10668.84301164 0 167.74430943 0 3307.89418715 0 -216.89587790 0 68.29592095 0 23044
0.14750000 0.14750500 10368.49184355 0 120.78526165 0 3247.94039000 0 -18.32962673 0 -370.43164270 0 23649
0.14850000 0.14849900 10267.32393007 0 193.85244154 0 3107.28293809 0 578.51459803 0 522.29775247 0 23640
0.14950000 0.14949500 10216.50929731 0 -24.32940027 0 2625.84010642 0 248.27330948 0 -298.25750856 0 24457
0.15050000 0.15050000 10074.89618759 0 185.84468813 0 2890.20581474 0 -251.12929835 0 37.33930835 0 24591
0.15150000 0.15149900 9861.03754401 0 219.03347573 0 3021.04305876 0 -82.00236077 0 56.63953191 0 25020
0.15250000 0.15250500 9569.23237338 0 1.06109214 0 2928.25637416 0 16.83220980 0 531.53907338 0 25297
0.15350000 0.15350100 9643.94943608 0 25.43082337 0 3097.44076106 0 382.37846384 0 -141.72295544 0 25452
0.15450000 0.15450400 9541.78192650 0 217.70104708 0 2988.14426388 0 -89.83611855 0 407.61551935 0 26061
0.15550000 0.15549900 9514.56215564 0 48.17712704 0 3053.97480736 0 37.54021618 0 553.43681882 0 26128
0.15650000 0.15649500 9454.28980589 0 108.34852857 0 3163.65576458 0 73.31916599 0 232.50275863 0 26331
0.15750000 0.15749700 9290.14733781 0 62.97927798 0 3025.67854839 0 172.65880721 0 589.28936527 0 27345
0.15850000 0.15849900 9170.95374073 0 3.93109293 0 2910.77991918 0 199.24696514 0 470.02546693 0 26980
0.15950000 0.15949700 9114.02070104 0 11.30378426 0 2493.68471370 0 476.39432211 0 941.57010024 0 27777
0.16050000 0.16050000 9182.52049566 0 25.31251952 0 2594.19355282 0 -22.83088488 0 460.98845906 0 28224
0.16150000 0.16150500 9057.74673570 0 204.70849463 0 2597.66467775 0 60.93274226 0 824.08460420 0 28075
0.16250000 0.16249700 8861.82589914 0 220.74487214 0 2328.15818947 0 -293.15956842 0 616.96389743 0 28590
0.16350000 0.16349900 8819.52431013 0 12.93224715 0 2749.21882566 0 110.22359511 0 718.91610939 0 29163
0.16450000 0.16449100 8537.14390278 0 35.82321764 0 2717.11092000 0 24.52174014 0 523.34238532 0 28996
0.16550000 0.16550500 8474.10344074 0 126.17209604 0 2667.17505305 0 -70.66639171 0 519.35937930 0 30777
0.16650000 0.16650700 8576.84214809 0 239.50432519 0 2962.11082686 0 -75.28782109 0 390.32360519 0 29211
0.16750000 0.16749900 8279.85225921 0 91.56816596 0 2944.26089641 0 -149.67468754 0 624.90244804 0 30922
0.16850000 0.16850800 8227.41190971 0 -119.74392417 0 2692.39563170 0 324.37882216 0 820.94741027 0 30867
0.16950000 0.16949900 8301.40399062 0 48.10891284 0 2931.80439111 0 54.49655164 0 255.76698490 0 30852
0.17050000 0.17049200 8246.59097344 0 68.30954182 0 2674.33699437 0 108.22143707 0 428.80585832 0 31257
0.17150000 0.17149500 8137.75582830 0 -24.37817178 0 2548.28902400 0 261.00992139 0 966.85438941 0 32608
0.17250000 0.17250900 8223.22678755 0 -16.72280345 0 2338.19808881 0 233.01793508 0 463.04367259 0 32361
0.17350000 0.17350400 8201.43339555 0 87.35052947 0 2193.89375881 0 62.99872067 0 631.01646114 0 32508
0.17450000 0.17449800 8106.51570388 0 242.35811715 0 2316.45961967 0 -180.51387506 0 337.41750981 0 32791
0.17550000 0.17549800 7865.58008888 0 149.56264490 0 2329.77292164 0 -350.34415482 0 486.65061753 0 33633
0.17650000 0.17650100 7757.06349635 0 72.95887201 0 2579.80376274 0 243.49502041 0 370.31960006 0 33984
0.17750000 0.17750300 7645.21857832 0 -8.46191057 0 2469.24403971 0 247.51647243 0 351.96547774 0 34069
0.17850000 0.17849800 7616.07650727 0 32.81509244 0 2250.70596820 0 -58.18681880 0 495.76781277 0 34536
