### header ###
fiducial parameters:
Omega_m = 0.31
Omega_nu = 0
Omega_de = 0.69
Omega_k = 0
H_0 = 100
w_de = -1
zeff = 0
beta = 0
fgrowth = 0
b_1 = 2
gamma = 0.55
Lx = 3500 Ly = 3500 Lz = 3500
nx = 700 ny = 700 nz = 700
xoffset = -983.599254 yoffset = -42.9823471 zoffset = 800.977702
bins = 400 dk = 0.001
kx_ny = 0.628318531 ky_ny = 0.628318531 kz_ny = 0.628318531
############################
A(data) = 9.00286931 (not used)
A(ran) = 8.97638093 (used)
Ngal = 498284
weighted Ngal = 0
Nran = 25229228
weighted Nran = 0
SN(data) = 6809.18836
SN(ran) = 133.248191
SN(data+ran) = 6942.43655
############################
13 columns: k_central k_mean P_0(k) sigma^{lin}_{P_0(k)} P^img_1(k) sigma^{lin}_{P_1(k)} P_2(k) sigma^{lin}_{P_2(k)} P^img_3(k) sigma^{lin}_{P_3(k)} P_4(k) sigma^{lin}_{P_4(k)} N_modes
### header ###
0.00050000 0 0 0 0 0 0 0 0 0 0 0 0
0.00150000 0.00179520 95135.07636677 0 15999.46934763 0 28124.46025437 0 43593.48459204 0 -56023.95646227 0 3
0.00250000 0.00253879 96231.66624757 0 12280.64230022 0 68722.23221203 0 -31145.10786851 0 35311.99563152 0 6
0.00350000 0.00331552 56234.09133575 0 38450.06832656 0 30614.55301283 0 76197.78308226 0 -6843.30084160 0 7
0.00450000 0.00420575 63342.09840741 0 11764.69692607 0 74083.14301463 0 33078.39264283 0 -12986.73062574 0 24
0.00550000 0.00557378 48555.87510139 0 1997.89603024 0 49409.04685379 0 53904.48318270 0 22664.79814426 0 45
0.00650000 0.00659388 55676.84396870 0 -4152.25631233 0 39766.78904188 0 41651.08262249 0 44845.50617487 0 40
0.00750000 0.00754703 48467.00990921 0 -5169.93302370 0 15631.92554906 0 27100.58824406 0 31941.92876356 0 57
0.00850000 0.00846663 74374.34403376 0 -3447.18955205 0 11411.43307185 0 3233.91309081 0 7278.26794667 0 75
0.00950000 0.00948925 69940.53115703 0 -8352.75686743 0 -17118.24806504 0 19908.21965497 0 17836.85880331 0 112
0.01050000 0.01054430 79708.01309636 0 -10208.22692958 0 -4039.60952051 0 4747.85082226 0 20546.20363050 0 105
0.01150000 0.01145670 87479.48835193 0 -4867.69250912 0 -28727.18375191 0 -7804.89032537 0 -6885.86606035 0 144
0.01250000 0.01249090 94904.18065111 0 -3033.36774919 0 -21355.76662974 0 -14284.55787623 0 -10649.27948787 0 169
0.01350000 0.01339930 81180.27535943 0 3250.73047143 0 -21383.44775265 0 -8055.52531796 0 -1690.16322937 0 180
0.01450000 0.01448870 86559.85993542 0 14687.91138142 0 5967.23723994 0 -33687.70688392 0 -24153.53726621 0 267
0.01550000 0.01550050 69548.71145305 0 9330.62548777 0 16074.05459546 0 -11264.34964499 0 2829.53802037 0 238
0.01650000 0.01653350 57332.87813106 0 4.10486887 0 27362.13091722 0 12813.61376186 0 -11595.86404549 0 315
0.01750000 0.01747870 58799.86779930 0 -829.21330114 0 29157.01007701 0 8392.41117445 0 -4605.90817537 0 297
0.01850000 0.01844180 64314.12323514 0 1239.94953755 0 13567.92436102 0 17604.53509322 0 -6804.25068607 0 388
0.01950000 0.01947590 64317.52845264 0 -391.96030651 0 16726.09882389 0 -595.70106029 0 17835.76034605 0 399
0.02050000 0.02045430 60597.82263942 0 -1380.09071455 0 6665.84507154 0 6470.04506528 0 18793.72492087 0 462
0.02150000 0.02154770 63803.23076438 0 -805.75574639 0 9651.37500715 0 2096.09810912 0 6319.60035921 0 571
0.02250000 0.02255340 63218.08258297 0 4786.32978001 0 7368.68196359 0 -8025.58137310 0 9399.14725153 0 510
0.02350000 0.02348930 58515.14767799 0 2895.82991590 0 13586.48828869 0 456.59792540 0 4644.01365765 0 555
0.02450000 0.02439640 55056.10577213 0 -367.13846784 0 16705.00844453 0 3858.32013462 0 17750.41021710 0 592
0.02550000 0.02547300 57344.96116090 0 231.43066434 0 14641.55648512 0 3594.71236182 0 -325.67170635 0 837
0.02650000 0.02652900 55804.26501064 0 1800.94264386 0 18219.01208342 0 -3567.27289951 0 5299.83657905 0 723
0.02750000 0.02749970 58678.15873510 0 -748.86554653 0 13969.52033460 0 -1153.72064279 0 -978.83416427 0 826
0.02850000 0.02848090 55166.39088084 0 -404.73426596 0 17519.07511853 0 1034.97082244 0 3271.15079186 0 831
0.02950000 0.02946900 54858.38346566 0 465.52069371 0 13781.13491483 0 871.38197682 0 -5005.95532421 0 996
0.03050000 0.03053250 56453.34340447 0 4151.78397571 0 20703.61255559 0 -4680.24077802 0 -6987.55024873 0 1041
0.03150000 0.03150510 51853.66348176 0 1089.68497847 0 20916.93295512 0 -2569.57712566 0 -1721.13972405 0 1036
0.03250000 0.03246190 49238.89582450 0 1500.13012372 0 23453.49045560 0 -1639.51336520 0 -10925.77216432 0 1059
0.03350000 0.03345080 49880.06532607 0 142.47869404 0 23397.90851834 0 2987.96851071 0 -637.15903412 0 1302
0.03450000 0.03451200 51579.26885868 0 -248.01956586 0 21243.39445224 0 7652.10590533 0 -3771.67382610 0 1339
0.03550000 0.03553350 50105.68844689 0 -1901.89086588 0 17161.52728101 0 4231.66378752 0 6514.64242996 0 1365
0.03650000 0.03647120 52609.84145826 0 -2078.39097812 0 10264.38006462 0 3119.23415306 0 -6289.10718572 0 1308
0.03750000 0.03744890 52526.46855237 0 1912.24931782 0 14246.00202647 0 -5957.96626069 0 -3068.46345859 0 1579
0.03850000 0.03847530 48323.33169985 0 4139.00891780 0 14200.63574171 0 -1968.64411346 0 -462.08691632 0 1662
0.03950000 0.03950240 48014.88490176 0 197.08300434 0 16732.14033881 0 -159.87606009 0 -3968.12192215 0 1683
0.04050000 0.04050350 46103.67911833 0 -195.64292687 0 15872.48768859 0 6008.27560311 0 -5983.75803711 0 1822
0.04150000 0.04152450 48251.27290371 0 420.76624964 0 13257.61018560 0 2301.42173981 0 -8166.73313077 0 1887
0.04250000 0.04250150 45534.34872144 0 1263.69818348 0 11116.71698950 0 -3632.34550748 0 -6909.81242858 0 1920
0.04350000 0.04349210 42154.39573816 0 1885.10643897 0 12920.16411590 0 -839.45641507 0 -1469.63695023 0 2005
0.04450000 0.04448520 38995.12281804 0 83.21813326 0 10358.83640425 0 2752.41533628 0 -3846.53368824 0 2151
0.04550000 0.04548030 42037.62973162 0 82.99031323 0 11322.78757112 0 2411.58601823 0 -3550.87293265 0 2274
0.04650000 0.04648670 39020.38733498 0 1838.13640662 0 9682.45036298 0 -1274.96835494 0 -3097.03433187 0 2311
0.04750000 0.04749250 39110.57067587 0 1512.00444668 0 13053.40698131 0 -1517.07931921 0 -2231.64773477 0 2568
0.04850000 0.04851840 37240.77673108 0 1604.92294614 0 16027.15047053 0 -2973.65561264 0 -3232.45214266 0 2493
0.04950000 0.04949480 36085.85876987 0 284.74977965 0 17246.65771852 0 375.06493542 0 -4138.86611835 0 2644
0.05050000 0.05050630 35542.12242710 0 -408.59863859 0 16304.95031112 0 1085.82829504 0 -3167.06098208 0 2829
0.05150000 0.05149060 36467.79235853 0 -874.35659907 0 15707.93879132 0 3348.14166108 0 -3888.34097149 0 2784
0.05250000 0.05249300 37861.73461910 0 452.38314490 0 16570.22773896 0 -2080.14850973 0 -3487.19536539 0 3055
0.05350000 0.05348950 35225.32735385 0 1288.85285469 0 15789.11478270 0 -1988.18566808 0 -3323.67901795 0 3009
0.05450000 0.05448610 34867.55982488 0 970.37274801 0 17861.35440017 0 1160.79470753 0 -3998.07685158 0 3336
0.05550000 0.05550870 34425.54062420 0 -255.40998629 0 16336.91541733 0 2102.00780917 0 -3328.51222988 0 3349
0.05650000 0.05647670 33376.07455978 0 403.20960729 0 14017.30322533 0 3758.53627730 0 -2931.54076136 0 3324
0.05750000 0.05747970 34370.83745275 0 806.67295820 0 12631.59939419 0 2470.34249696 0 -1515.99184652 0 3639
0.05850000 0.05849280 32471.49500771 0 294.65786412 0 11441.09141782 0 145.56865431 0 -761.80756995 0 3846
0.05950000 0.05951020 32276.18930721 0 657.21796211 0 10535.14977875 0 75.11843898 0 -3619.28485068 0 3787
0.06050000 0.06049470 31233.53367779 0 -626.73247783 0 9385.93281072 0 382.97602459 0 -1372.90680408 0 3930
0.06150000 0.06148310 30947.05602487 0 589.89461522 0 8194.75477542 0 1557.71125319 0 -4490.14176493 0 4083
0.06250000 0.06249100 29727.76846834 0 339.27280412 0 7335.27787837 0 -32.17095710 0 -2391.78083386 0 4303
0.06350000 0.06350600 30320.27631338 0 1198.70246751 0 7535.02134619 0 227.97931164 0 -2613.10898680 0 4470
0.06450000 0.06451750 28369.96545156 0 -403.69183002 0 8015.28882859 0 275.13388482 0 -387.03592262 0 4479
0.06550000 0.06550280 28983.34398450 0 -88.53829130 0 5656.52761991 0 2614.49304295 0 -2305.45307794 0 4636
0.06650000 0.06648880 28750.91042868 0 611.34638701 0 6884.83351053 0 -313.54034439 0 -1112.07812814 0 4653
0.06750000 0.06749660 28344.26155172 0 522.24392806 0 7304.15858425 0 -2017.66826089 0 -1886.43557226 0 5220
0.06850000 0.06852730 28500.13263665 0 -149.80979778 0 8129.35263027 0 -421.44070240 0 -1551.82352228 0 5029
0.06950000 0.06949320 27663.32789740 0 34.88678283 0 8198.47854553 0 852.87846431 0 -1381.34295582 0 5040
0.07050000 0.07048030 29056.94062080 0 536.50629710 0 8529.53159399 0 -132.32016131 0 -3146.95921426 0 5475
0.07150000 0.07148790 28295.16051228 0 -716.51378337 0 8945.29766619 0 688.86122035 0 157.58467825 0 5509
0.07250000 0.07249820 28505.40523149 0 620.49763443 0 9096.20372431 0 355.03786269 0 -1020.06805282 0 5916
0.07350000 0.07351270 27783.49912144 0 946.84159662 0 9050.58479438 0 -593.03949835 0 1539.05944894 0 5721
0.07450000 0.07449140 26679.00034839 0 -36.87356247 0 9518.51660177 0 1157.70804264 0 596.78304069 0 6028
0.07550000 0.07549160 26815.09920267 0 230.25531508 0 9283.83120857 0 1094.35781565 0 909.04807620 0 6183
0.07650000 0.07648840 26766.65723759 0 559.06201844 0 8536.41892099 0 303.68388741 0 2503.91135077 0 6330
0.07750000 0.07749960 26058.37199754 0 292.95855074 0 9027.98952858 0 193.54377505 0 1720.99692461 0 6583
0.07850000 0.07848650 26027.17581141 0 -104.89948263 0 8437.83238208 0 -360.00838178 0 1381.60658556 0 6549
0.07950000 0.07947320 24500.97929696 0 967.77489659 0 9129.27827235 0 -1260.69939516 0 -678.95972662 0 6828
0.08050000 0.08048110 23653.51952231 0 1179.44651178 0 9409.76933322 0 -507.28403867 0 866.03578534 0 7147
0.08150000 0.08149960 23719.53680352 0 20.07320794 0 9890.69588998 0 595.52750404 0 -1252.07650568 0 7386
0.08250000 0.08250610 22966.98373598 0 141.55379303 0 10655.61758625 0 678.15126208 0 336.82324443 0 7227
0.08350000 0.08350160 22810.23388524 0 76.63024570 0 8363.55470228 0 1186.91602113 0 -1107.78316026 0 7798
0.08450000 0.08449610 22809.13542798 0 -30.39991446 0 8066.13641507 0 700.98818848 0 11.07673315 0 7371
0.08550000 0.08548940 22930.84449218 0 524.60451271 0 8562.35349686 0 -171.16160996 0 -106.88878872 0 8256
0.08650000 0.08650700 21888.18886276 0 581.88686181 0 8507.58441797 0 127.95379371 0 1087.91536383 0 8037
0.08750000 0.08749060 21342.58514265 0 495.20650111 0 9099.49909609 0 -524.71216152 0 888.25318185 0 8155
0.08850000 0.08849210 20569.16138719 0 94.95328169 0 8608.04931880 0 -479.92366528 0 -19.42347047 0 8718
0.08950000 0.08949900 19937.54846377 0 434.96161279 0 9974.16765702 0 -29.80136510 0 -1055.20989742 0 8571
0.09050000 0.09049190 19990.71379506 0 664.72152364 0 9321.82684513 0 -210.08763982 0 474.87076189 0 8932
0.09150000 0.09150830 19737.95877996 0 -226.31844427 0 9245.44012740 0 1647.67490263 0 -944.46123974 0 9285
0.09250000 0.09250820 19597.90547955 0 -265.98922814 0 7881.63953399 0 852.00409233 0 -605.68603676 0 9204
0.09350000 0.09350330 19964.57051232 0 295.54541759 0 8348.54977614 0 35.16798788 0 -983.67396695 0 9349
0.09450000 0.09448040 18987.60262693 0 542.16774581 0 7075.33895280 0 -319.26220825 0 -719.81464743 0 9564
0.09550000 0.09549270 18748.35863611 0 363.13349268 0 7672.25161145 0 491.23887350 0 -763.11143871 0 10155
0.09650000 0.09649430 18710.35201498 0 202.55222303 0 6963.16449760 0 985.40293867 0 -757.39396868 0 9913
0.09750000 0.09749140 17779.29964298 0 -71.22891168 0 6261.50295483 0 685.46918434 0 -308.94659614 0 10476
0.09850000 0.09850240 17702.73717209 0 242.05494295 0 6031.51895869 0 514.56900720 0 862.28675072 0 10575
0.09950000 0.09950330 17265.11180045 0 252.79346110 0 5220.65977988 0 240.62585005 0 219.19934278 0 10882
0.10050000 0.10051200 17381.87780699 0 305.67099659 0 5670.00569047 0 386.32961460 0 -490.15579464 0 10875
0.10150000 0.10150300 16254.86066015 0 365.82690988 0 5037.06363376 0 -73.86971277 0 279.74410993 0 11118
0.10250000 0.10250800 16486.85483306 0 132.21141405 0 5107.70542003 0 592.80882233 0 642.33057089 0 11575
0.10350000 0.10349800 16116.45504562 0 -213.56974933 0 4399.22245767 0 655.16494550 0 209.53841119 0 11364
0.10450000 0.10450100 16262.22032378 0 219.26525021 0 3985.22490166 0 196.75236871 0 296.82841566 0 12093
0.10550000 0.10551000 16197.30149982 0 218.18546673 0 4118.54465908 0 -272.47781517 0 320.45842820 0 12067
0.10650000 0.10649700 15405.86304533 0 292.50818327 0 4658.32655572 0 -477.01275355 0 87.53089615 0 12054
0.10750000 0.10749900 15381.80683138 0 363.92328345 0 5181.19221060 0 -88.69130640 0 -217.31768549 0 12807
0.10850000 0.10850100 15063.91330088 0 162.89352218 0 4680.75705293 0 -73.63112785 0 256.96540177 0 12736
0.10950000 0.10950300 14932.20827563 0 72.58155194 0 5313.06200443 0 273.39392852 0 895.57000564 0 12933
0.11050000 0.11050200 15016.56979305 0 -108.44211713 0 4998.83732117 0 807.59126847 0 273.80694845 0 13428
0.11150000 0.11150900 14865.09253715 0 -28.06118912 0 4827.86244894 0 -34.33063392 0 990.56129395 0 13453
0.11250000 0.11250000 15001.08154571 0 298.86275851 0 4764.75607946 0 226.90282353 0 766.01026742 0 13668
0.11350000 0.11349100 14544.89224641 0 346.27876451 0 5299.38621157 0 -688.46687419 0 401.09507706 0 13791
0.11450000 0.11448600 14432.84960608 0 198.63402599 0 4983.10741324 0 -27.38135392 0 928.79723924 0 14205
0.11550000 0.11549300 14043.22681662 0 -59.27154535 0 4954.28389478 0 592.38591628 0 531.57971630 0 14776
0.11650000 0.11649800 14154.83007404 0 38.76378772 0 4847.08545096 0 570.25419945 0 765.64997344 0 14553
0.11750000 0.11747300 14024.88258041 0 121.36744399 0 4531.82821788 0 29.94669100 0 441.85553054 0 14568
0.11850000 0.11849100 14016.75399670 0 213.52910641 0 4600.21816677 0 -148.03029702 0 297.20848188 0 16015
0.11950000 0.11950300 13786.95673830 0 -36.96034059 0 4383.80011777 0 261.42184286 0 531.07222905 0 15270
0.12050000 0.12050700 13965.67573419 0 7.59753455 0 4573.08627249 0 -137.47412277 0 3.29930425 0 15999
0.12150000 0.12150000 13694.68632861 0 50.50882226 0 4294.12206722 0 -130.43740557 0 516.35180333 0 15670
0.12250000 0.12250700 13581.98461393 0 124.78035070 0 4515.06576012 0 35.90604132 0 -83.72935527 0 16887
0.12350000 0.12352200 13351.85781835 0 84.79672619 0 3994.80344895 0 614.74281686 0 100.43414403 0 16407
0.12450000 0.12449800 13714.01917636 0 175.88717309 0 4089.38061887 0 339.97691522 0 377.55843339 0 16306
0.12550000 0.12549900 13177.53265148 0 127.24748570 0 4390.18215444 0 -379.81356615 0 646.23778336 0 17523
0.12650000 0.12650100 13097.67480882 0 310.55144219 0 4304.84301006 0 -13.37690264 0 153.01839143 0 17154
0.12750000 0.12750600 12725.51748976 0 57.72755382 0 4264.09024578 0 196.95558330 0 644.72410926 0 18007
0.12850000 0.12850300 12670.70447258 0 -27.88466703 0 4172.90730878 0 538.60544892 0 687.19376223 0 17496
0.12950000 0.12949900 12593.26323588 0 143.11909462 0 4074.00221726 0 -74.60172469 0 523.12049696 0 18405
0.13050000 0.13049000 12365.77273772 0 323.51653321 0 3902.57697755 0 91.13021105 0 1030.43309551 0 18100
0.13150000 0.13148800 12130.81273021 0 100.17271120 0 4094.32367653 0 -117.45144387 0 641.08272345 0 19059
0.13250000 0.13249300 12030.96296544 0 109.83847600 0 4163.58140666 0 138.23645211 0 617.41646182 0 18957
0.13350000 0.13349100 12039.20139488 0 197.33235414 0 4132.96740288 0 39.19460266 0 500.86026062 0 19468
0.13450000 0.13450700 11927.48829173 0 -144.50864305 0 3988.63011916 0 434.76389048 0 924.50446828 0 19953
0.13550000 0.13551000 11866.63375963 0 -73.35574462 0 3743.98171863 0 578.88367967 0 966.17554282 0 19956
0.13650000 0.13649900 11965.60475858 0 235.58722661 0 3416.77327057 0 -14.27049762 0 960.00001612 0 19723
0.13750000 0.13749600 11643.64693622 0 146.12337522 0 3212.73483487 0 257.96719479 0 1480.50069251 0 20946
0.13850000 0.13851100 11519.08188315 0 198.37259316 0 3633.71857905 0 -127.11567083 0 1481.67604178 0 20955
0.13950000 0.13949800 11397.81220185 0 150.50402277 0 3120.65116292 0 187.27048565 0 1129.20307679 0 20506
0.14050000 0.14048300 11034.99176949 0 -25.73663387 0 3297.94216439 0 283.69086686 0 949.86015717 0 21447
0.14150000 0.14148400 11225.79379523 0 130.51649450 0 3390.58604954 0 -72.43150268 0 1255.33892374 0 21771
0.14250000 0.14249400 10758.80666108 0 13.83539870 0 2881.34126467 0 24.30237822 0 983.07091391 0 22470
0.14350000 0.14350900 10835.66571543 0 171.48565485 0 2782.19451255 0 57.75490541 0 542.66754386 0 22519
0.14450000 0.14449900 10829.25072504 0 103.85144456 0 2632.88121745 0 104.41363498 0 430.56668530 0 22218
0.14550000 0.14550500 10808.78646632 0 -18.43705585 0 2777.32834689 0 -137.55431015 0 144.97878276 0 23559
0.14650000 0.14650700 10403.97201298 0 181.93418029 0 2901.71764681 0 -242.82386303 0 -286.58969556 0 23044
0.14750000 0.14750500 10142.59410841 0 321.18450845 0 3090.82804837 0 -291.99630219 0 -166.20317390 0 23649
0.14850000 0.14849900 10124.96386942 0 83.57106758 0 2851.44125810 0 157.30896548 0 -236.10350152 0 23640
0.14950000 0.14949500 10147.54815064 0 -64.80139887 0 2883.02190427 0 336.98471765 0 -813.55149755 0 24457
0.15050000 0.15050000 9903.66867019 0 111.93828689 0 2811.53430591 0 30.78898803 0 -701.99986761 0 24591
0.15150000 0.15149900 9872.79103667 0 165.25520529 0 2470.43037354 0 -12.75341830 0 -751.86543330 0 25020
0.15250000 0.15250500 9748.53355163 0 39.57510825 0 2510.69981663 0 116.14977202 0 -625.31327105 0 25297
0.15350000 0.15350100 9747.35820236 0 62.65940722 0 2630.08015144 0 19.34679815 0 -905.46710554 0 25452
0.15450000 0.15450400 9265.78355582 0 184.26181122 0 2205.04309998 0 243.15999095 0 -456.18161010 0 26061
0.15550000 0.15549900 9270.90236665 0 118.23684081 0 2340.06546615 0 160.32313220 0 33.75372417 0 26128
0.15650000 0.15649500 9145.51347063 0 45.77765700 0 2234.74538424 0 340.39652589 0 -13.50201693 0 26331
0.15750000 0.15749700 9095.19314363 0 103.57441364 0 2135.60961669 0 255.64176077 0 328.29042845 0 27345
0.15850000 0.15849900 8877.19331619 0 293.50338554 0 2263.23936551 0 -144.35156366 0 578.47615202 0 26980
0.15950000 0.15949700 8927.87613408 0 -38.23993345 0 2286.52665939 0 22.40028964 0 1049.56602403 0 27777
0.16050000 0.16050000 8818.08533112 0 -35.61220400 0 2352.82953949 0 158.49529932 0 554.86810863 0 28224
0.16150000 0.16150500 8788.09744798 0 151.16529404 0 2565.28215778 0 -22.43961441 0 972.23023923 0 28075
0.16250000 0.16249700 8741.53384481 0 24.63597969 0 2350.74247070 0 -174.63383336 0 733.50142486 0 28590
0.16350000 0.16349900 8499.56567998 0 134.26992295 0 2569.59909481 0 46.58612155 0 707.39988349 0 29163
0.16450000 0.16449100 8293.12162289 0 309.35632069 0 2758.45685120 0 -280.04508722 0 308.42812431 0 28996
0.16550000 0.16550500 8164.81083057 0 85.56224105 0 2834.34926316 0 3.54852223 0 762.16676547 0 30777
0.16650000 0.16650700 8317.59525060 0 -178.06980766 0 2642.70142534 0 259.78514155 0 235.86623475 0 29211
0.16750000 0.16749900 8178.20102454 0 -37.16904747 0 2204.60371708 0 337.49330336 0 256.14924802 0 30922
0.16850000 0.16850800 8310.23558697 0 88.59464216 0 2156.30455144 0 -127.99443663 0 142.94773529 0 30867
0.16950000 0.16949900 8186.13188595 0 133.51857818 0 1935.97599460 0 -183.08206813 0 -214.87911038 0 30852
0.17050000 0.17049200 8155.59477417 0 -28.29043715 0 2121.13195003 0 491.82984350 0 197.36750477 0 31257
0.17150000 0.17149500 8185.39591958 0 -51.02410856 0 2025.90669032 0 20.96383708 0 239.07153303 0 32608
0.17250000 0.17250900 8373.88020051 0 45.27434389 0 1794.26402373 0 177.91712210 0 -320.80004841 0 32361
0.17350000 0.17350400 8094.23495173 0 130.72190600 0 1892.81760893 0 -460.34476311 0 -340.15706221 0 32508
0.17450000 0.17449800 7976.00799704 0 218.46227796 0 2109.36747280 0 -228.95364323 0 -195.04866150 0 32791
0.17550000 0.17549800 7676.49165646 0 17.82785145 0 2147.58280081 0 168.92405253 0 -9.40532058 0 33633
0.17650000 0.17650100 7755.25104187 0 5.05969185 0 2043.49299103 0 263.10797475 0 -439.35983565 0 33984
0.17750000 0.17750300 7626.30314434 0 277.18031069 0 2107.85160178 0 59.72367035 0 -262.96078148 0 34069
0.17850000 0.17849800 7673.86634362 0 71.03832934 0 1924.90354544 0 -32.33045310 0 -34.76573284 0 34536
