### header ###
fiducial parameters:
Omega_m = 0.31
Omega_nu = 0
Omega_de = 0.69
Omega_k = 0
H_0 = 100
w_de = -1
zeff = 0
beta = 0
fgrowth = 0
b_1 = 2
gamma = 0.55
Lx = 3500 Ly = 3500 Lz = 3500
nx = 700 ny = 700 nz = 700
xoffset = -983.599254 yoffset = -42.9823471 zoffset = 800.977702
bins = 400 dk = 0.001
kx_ny = 0.628318531 ky_ny = 0.628318531 kz_ny = 0.628318531
############################
A(data) = 8.99636819 (not used)
A(ran) = 8.98974863 (used)
Ngal = 499835
weighted Ngal = 0
Nran = 25229228
weighted Nran = 0
SN(data) = 6767.22509
SN(ran) = 133.446625
SN(data+ran) = 6900.67172
############################
13 columns: k_central k_mean P_0(k) sigma^{lin}_{P_0(k)} P^img_1(k) sigma^{lin}_{P_1(k)} P_2(k) sigma^{lin}_{P_2(k)} P^img_3(k) sigma^{lin}_{P_3(k)} P_4(k) sigma^{lin}_{P_4(k)} N_modes
### header ###
0.00050000 0 0 0 0 0 0 0 0 0 0 0 0
0.00150000 0.00179520 25224.64293862 0 -9453.07051833 0 11792.70758615 0 8975.99954655 0 138965.82772657 0 3
0.00250000 0.00253879 24394.86832582 0 4317.36542280 0 -6331.10120670 0 30073.01358457 0 47392.16948212 0 6
0.00350000 0.00331552 38243.11897912 0 -18198.03154979 0 -20532.58276050 0 29146.35504161 0 11594.21635961 0 7
0.00450000 0.00420575 49040.29475223 0 -19552.42934907 0 -9115.00931257 0 10153.75443415 0 -10792.39748403 0 24
0.00550000 0.00557378 67032.91479474 0 -7149.36398743 0 -10070.72205001 0 -20708.77530470 0 -5765.71427137 0 45
0.00650000 0.00659388 73475.25676798 0 19754.65533029 0 -10242.16925886 0 -29212.70186000 0 -17492.71214434 0 40
0.00750000 0.00754703 64936.50911759 0 -2212.86411566 0 10912.33803205 0 -19182.02956162 0 3417.90468155 0 57
0.00850000 0.00846663 61218.01160736 0 -5037.52498580 0 4506.03644146 0 7228.59570946 0 -12143.33514295 0 75
0.00950000 0.00948925 63457.21672806 0 816.06806313 0 27668.05126361 0 -3923.64538777 0 -7394.66047774 0 112
0.01050000 0.01054430 76606.95841092 0 -5792.40678274 0 1288.60020952 0 -18945.31202249 0 -48401.10247372 0 105
0.01150000 0.01145670 76259.07699727 0 1454.36839434 0 24991.00107981 0 -14746.56899900 0 -51091.22429889 0 144
0.01250000 0.01249090 76629.25709326 0 1988.49323611 0 17438.77789296 0 -19831.65718408 0 -28053.82945267 0 169
0.01350000 0.01339930 69985.12852171 0 7080.55662478 0 32980.41025540 0 7510.13030472 0 -8707.02031775 0 180
0.01450000 0.01448870 88635.17523321 0 -13471.69950521 0 28463.66385568 0 20089.35525684 0 -39982.74573883 0 267
0.01550000 0.01550050 93594.59990796 0 2133.96193080 0 24100.48178064 0 -1337.11906661 0 -31097.98405214 0 238
0.01650000 0.01653350 81296.60198307 0 10144.38459374 0 28773.20911102 0 -10587.78785056 0 -6874.33225914 0 315
0.01750000 0.01747870 92054.12344916 0 -2745.54997842 0 28349.53414656 0 -7768.34465239 0 -20129.66863821 0 297
0.01850000 0.01844180 86672.23211293 0 -1154.72023890 0 35005.30636505 0 -1252.42801201 0 -20727.44907809 0 388
0.01950000 0.01947590 85633.64077536 0 -1695.80929968 0 37218.80758591 0 1009.84471112 0 -19423.58031269 0 399
0.02050000 0.02045430 86637.52086357 0 3917.82356430 0 41690.18770088 0 -946.66035118 0 -10818.23319874 0 462
0.02150000 0.02154770 75965.34952644 0 6052.38964659 0 45982.62912849 0 -6920.81897030 0 -9099.18054348 0 571
0.02250000 0.02255340 81175.88153040 0 1903.41772147 0 47536.61661157 0 10770.12077084 0 -15871.60892278 0 510
0.02350000 0.02348930 76582.46281406 0 1238.11511393 0 47058.89755001 0 12219.34838521 0 -15476.60369276 0 555
0.02450000 0.02439640 77554.48764178 0 -274.02883681 0 45688.79181194 0 1680.00249974 0 -1381.48575527 0 592
0.02550000 0.02547300 75621.31271319 0 3033.54350235 0 34082.82195967 0 4355.41598222 0 -4114.44741350 0 837
0.02650000 0.02652900 76026.75328717 0 -3755.73521129 0 29785.65716584 0 9873.92244764 0 -7370.03306602 0 723
0.02750000 0.02749970 71823.17705174 0 2506.97604652 0 34529.89406373 0 -478.34298529 0 -4937.24682271 0 826
0.02850000 0.02848090 67861.15156738 0 6086.57363647 0 25019.56096853 0 4562.15662277 0 2591.38150224 0 831
0.02950000 0.02946900 60629.45820845 0 1203.87620120 0 30156.60618192 0 3262.42904123 0 7402.56937000 0 996
0.03050000 0.03053250 63119.11158401 0 3481.24172705 0 26430.85885378 0 1586.16129617 0 -13264.09108342 0 1041
0.03150000 0.03150510 60218.52534818 0 3909.65104230 0 22643.59791918 0 7648.26130493 0 10115.96750447 0 1036
0.03250000 0.03246190 57468.64744817 0 -2996.20694015 0 25086.67670700 0 -580.21391140 0 2490.47721851 0 1059
0.03350000 0.03345080 55540.96480587 0 2337.82461334 0 27853.91023169 0 -974.12727492 0 2212.78722365 0 1302
0.03450000 0.03451200 51429.10975149 0 6045.04096754 0 29567.83309156 0 -7926.77514273 0 -71.82757088 0 1339
0.03550000 0.03553350 46599.52272465 0 389.03731174 0 28696.42694868 0 1521.24247222 0 5439.48345027 0 1365
0.03650000 0.03647120 48650.45227132 0 -3197.16969553 0 33104.86546275 0 13997.75068613 0 1572.69421019 0 1308
0.03750000 0.03744890 50746.63825702 0 358.59466729 0 24841.39120126 0 4352.24144074 0 799.56923511 0 1579
0.03850000 0.03847530 49841.83901349 0 1809.86211679 0 24888.62486336 0 335.84012519 0 5389.74530562 0 1662
0.03950000 0.03950240 47638.44359940 0 369.84067270 0 20779.73564358 0 4061.05140619 0 9767.80049194 0 1683
0.04050000 0.04050350 47566.27495754 0 196.75127025 0 20900.67578770 0 1629.66020360 0 7255.22231340 0 1822
0.04150000 0.04152450 43069.74017137 0 2502.17578830 0 20698.88918938 0 1880.22928875 0 6625.29002957 0 1887
0.04250000 0.04250150 43777.14664560 0 3268.32775671 0 23042.55759534 0 307.49773101 0 11181.74565918 0 1920
0.04350000 0.04349210 40892.04865711 0 -1078.53563730 0 20671.42775793 0 2773.94509854 0 12168.27012271 0 2005
0.04450000 0.04448520 40682.90239517 0 -148.58831331 0 17938.79563687 0 4301.45976170 0 10077.90596048 0 2151
0.04550000 0.04548030 40130.37839432 0 586.48170852 0 16291.10974966 0 1571.33212319 0 9361.55804416 0 2274
0.04650000 0.04648670 38467.75348841 0 2506.78930879 0 20000.59991038 0 -2273.93833921 0 11207.22986757 0 2311
0.04750000 0.04749250 36048.62106882 0 1363.64680939 0 19069.54753839 0 1072.94668677 0 9754.92657287 0 2568
0.04850000 0.04851840 36112.44143552 0 1184.98273636 0 21676.84568630 0 -275.49417880 0 8511.71461726 0 2493
0.04950000 0.04949480 35074.94855521 0 -1450.82037740 0 19398.42564147 0 3875.79658960 0 7616.76853534 0 2644
0.05050000 0.05050630 35468.96517371 0 -1390.41621277 0 16146.44292877 0 5102.76236236 0 10956.62782870 0 2829
0.05150000 0.05149060 36633.43971305 0 1179.90786382 0 15731.99500527 0 -97.53333810 0 6626.98165375 0 2784
0.05250000 0.05249300 35840.02403550 0 1849.67020783 0 14879.26263578 0 -1626.29892439 0 9478.76343360 0 3055
0.05350000 0.05348950 35975.24412398 0 50.36096991 0 14611.78829343 0 1101.06060184 0 5671.66436092 0 3009
0.05450000 0.05448610 35048.91511820 0 -1682.79258117 0 14702.08148005 0 1688.26289832 0 5240.34413395 0 3336
0.05550000 0.05550870 35299.47321878 0 -441.05695212 0 11638.81372429 0 1380.15662198 0 1947.82834841 0 3349
0.05650000 0.05647670 34638.86102373 0 2316.89900257 0 14025.87119194 0 -3646.68037470 0 1472.16340192 0 3324
0.05750000 0.05747970 34001.09673966 0 871.49401946 0 12451.78194103 0 323.75270152 0 2015.92171385 0 3639
0.05850000 0.05849280 34049.09932184 0 -357.08868239 0 14423.18318221 0 1421.73322920 0 -1288.92974669 0 3846
0.05950000 0.05951020 32905.38562467 0 -207.83250707 0 11977.46809697 0 -556.65969242 0 -1188.94816706 0 3787
0.06050000 0.06049470 32740.94657313 0 1040.91567312 0 11859.93317035 0 1025.73279690 0 -3319.79047925 0 3930
0.06150000 0.06148310 32715.57221047 0 649.80337562 0 13746.42366547 0 -1083.36775078 0 -2222.14607949 0 4083
0.06250000 0.06249100 30478.56400428 0 1116.73558691 0 13982.48213024 0 5.62407919 0 -1860.34721238 0 4303
0.06350000 0.06350600 29826.19023867 0 98.79348826 0 12473.09201184 0 834.77149486 0 -2299.86193050 0 4470
0.06450000 0.06451750 30823.36973760 0 98.92464406 0 12400.04460418 0 1561.91834449 0 -2817.83945057 0 4479
0.06550000 0.06550280 29761.71079762 0 275.80504220 0 12330.07287683 0 -789.47770828 0 -1929.80266481 0 4636
0.06650000 0.06648880 30258.76270692 0 -80.23329536 0 12850.19238856 0 492.65588336 0 -1997.67633879 0 4653
0.06750000 0.06749660 28990.70364813 0 289.49291810 0 11801.27555277 0 940.49471059 0 -652.33422114 0 5220
0.06850000 0.06852730 29638.02451035 0 282.32109066 0 11709.33468026 0 911.98315399 0 -3919.86669480 0 5029
0.06950000 0.06949320 29602.65418664 0 621.80479857 0 11419.12227266 0 -1161.55264304 0 -2450.35057487 0 5040
0.07050000 0.07048030 28737.50925013 0 44.02902289 0 12219.23853949 0 75.35955035 0 -2226.66073882 0 5475
0.07150000 0.07148790 27599.61737643 0 100.59946184 0 10851.02214790 0 1985.43952493 0 -1502.79937485 0 5509
0.07250000 0.07249820 28357.88242172 0 17.21007909 0 10849.70399919 0 222.51338832 0 -2189.59879093 0 5916
0.07350000 0.07351270 27570.50825909 0 581.50240177 0 9942.45519598 0 -687.61886519 0 -3103.33947654 0 5721
0.07450000 0.07449140 26951.63743986 0 770.70287682 0 9624.10031343 0 1727.48880700 0 -1135.24459171 0 6028
0.07550000 0.07549160 26809.60691638 0 -341.82122496 0 9791.52716871 0 473.45594894 0 -1510.11510019 0 6183
0.07650000 0.07648840 26389.11747797 0 842.65072877 0 9854.69944563 0 652.10134821 0 -3852.33354257 0 6330
0.07750000 0.07749960 25805.61698245 0 624.81017763 0 9437.07698066 0 -713.84233531 0 -1476.71101497 0 6583
0.07850000 0.07848650 25043.61718248 0 563.59315463 0 9461.55060837 0 -269.48122377 0 -1597.37654478 0 6549
0.07950000 0.07947320 23947.46668459 0 91.43832831 0 10756.52186998 0 -146.13985208 0 -1006.09897187 0 6828
0.08050000 0.08048110 24438.69677042 0 579.15280169 0 10568.27924966 0 592.70446889 0 -2477.38360799 0 7147
0.08150000 0.08149960 23483.80787593 0 -81.90767376 0 8918.86878456 0 1041.22763499 0 -1666.30473773 0 7386
0.08250000 0.08250610 23651.21276207 0 -66.30320964 0 9588.14780737 0 279.09492169 0 -1061.15364965 0 7227
0.08350000 0.08350160 23501.60288351 0 502.45192519 0 8377.04375741 0 666.75476803 0 -490.53805777 0 7798
0.08450000 0.08449610 23539.06027601 0 330.38518644 0 9089.19556701 0 355.54974377 0 -1843.26620201 0 7371
0.08550000 0.08548940 22172.03021826 0 238.24659163 0 8330.72181484 0 553.70484239 0 329.89637296 0 8256
0.08650000 0.08650700 21856.33360228 0 39.85257855 0 7785.04120271 0 1484.82861411 0 795.64005350 0 8037
0.08750000 0.08749060 21375.97824329 0 76.97977480 0 7022.81072672 0 1253.26283952 0 1831.17218760 0 8155
0.08850000 0.08849210 21079.72432078 0 998.46469393 0 7527.04654649 0 -560.72618119 0 1208.52267540 0 8718
0.08950000 0.08949900 20156.47099531 0 800.04157173 0 6903.13380845 0 -401.81896040 0 1585.67797498 0 8571
0.09050000 0.09049190 20279.60805395 0 173.42882574 0 7874.71925327 0 549.18908461 0 1302.69341614 0 8932
0.09150000 0.09150830 19431.37935922 0 -170.61018442 0 6792.45325512 0 -273.58176471 0 1068.43422435 0 9285
0.09250000 0.09250820 19296.37896219 0 289.73787406 0 7430.78873696 0 198.74387171 0 514.42730621 0 9204
0.09350000 0.09350330 18926.85794056 0 249.30805622 0 7120.92492902 0 -607.78409013 0 -416.64923184 0 9349
0.09450000 0.09448040 18655.64884352 0 304.42205069 0 7455.54796356 0 675.09974782 0 111.32315083 0 9564
0.09550000 0.09549270 18880.39319854 0 222.94068820 0 7062.26731143 0 392.83028465 0 988.40282544 0 10155
0.09650000 0.09649430 18089.39412696 0 -105.46255182 0 7262.76871476 0 401.74865913 0 325.41027352 0 9913
0.09750000 0.09749140 18148.82066462 0 919.97662746 0 7616.96625765 0 -701.85267434 0 530.53508345 0 10476
0.09850000 0.09850240 17360.78742764 0 352.33346092 0 7596.80956696 0 706.77705823 0 1495.29691178 0 10575
0.09950000 0.09950330 17269.83516666 0 -239.77784105 0 8240.19795219 0 426.93518560 0 980.66639097 0 10882
0.10050000 0.10051200 16948.86595584 0 65.78484766 0 6931.01265366 0 799.23969793 0 1746.09667296 0 10875
0.10150000 0.10150300 16508.38459532 0 335.99061383 0 6944.16118704 0 304.27595587 0 2050.83068551 0 11118
0.10250000 0.10250800 16297.26111031 0 480.09172924 0 6998.04051555 0 596.37880842 0 2506.73438593 0 11575
0.10350000 0.10349800 16287.04545781 0 -5.42674135 0 6343.00848338 0 637.25679682 0 2534.95375289 0 11364
0.10450000 0.10450100 16117.11411998 0 -68.02119679 0 5758.36559231 0 178.26313614 0 1967.42482590 0 12093
0.10550000 0.10551000 15446.06658098 0 340.59424820 0 5112.18712564 0 604.45906001 0 2828.52743970 0 12067
0.10650000 0.10649700 15658.50821470 0 -37.75320704 0 4943.13455361 0 793.84846971 0 2772.14362864 0 12054
0.10750000 0.10749900 15607.21026075 0 -202.46105108 0 4209.91433381 0 558.63691548 0 2175.05521683 0 12807
0.10850000 0.10850100 15477.37261284 0 -71.19562842 0 3854.32175020 0 160.74384133 0 1386.81327297 0 12736
0.10950000 0.10950300 15234.83325024 0 565.95154236 0 4058.82153795 0 -946.34948777 0 1673.15911102 0 12933
0.11050000 0.11050200 14738.76995247 0 456.92636412 0 5013.51271014 0 -1034.37545861 0 1317.72031143 0 13428
0.11150000 0.11150900 14571.69460351 0 36.38068470 0 4713.53501752 0 -110.03575892 0 305.03718675 0 13453
0.11250000 0.11250000 14685.93415835 0 141.68341098 0 5261.43451330 0 640.82129062 0 -403.86428781 0 13668
0.11350000 0.11349100 14532.04029649 0 127.73190535 0 5119.32709782 0 -460.04598274 0 -48.67033435 0 13791
0.11450000 0.11448600 14171.30693292 0 251.97730736 0 5531.72090624 0 -258.45600827 0 182.17364398 0 14205
0.11550000 0.11549300 13853.30355669 0 524.45841790 0 6106.22503682 0 -608.62880376 0 -63.05045801 0 14776
0.11650000 0.11649800 13389.31521085 0 65.58679581 0 5536.12571984 0 915.68165958 0 186.35656921 0 14553
0.11750000 0.11747300 13901.74552177 0 -532.32337186 0 5414.84505397 0 1187.76183322 0 967.70129996 0 14568
0.11850000 0.11849100 13933.16139935 0 -266.76693588 0 4850.67740620 0 1135.45329859 0 1090.05296165 0 16015
0.11950000 0.11950300 14483.59833140 0 74.29811110 0 3415.81761276 0 389.19439113 0 1502.20620793 0 15270
0.12050000 0.12050700 14368.48001075 0 -56.72455250 0 4114.27166034 0 -512.79719564 0 795.76857300 0 15999
0.12150000 0.12150000 13703.80352385 0 580.04145362 0 3720.03535040 0 -356.64929949 0 1112.37471159 0 15670
0.12250000 0.12250700 13780.36599475 0 231.81512438 0 4375.08935171 0 -173.53976993 0 1037.94544470 0 16887
0.12350000 0.12352200 13362.62269948 0 -102.46310443 0 4286.33400526 0 166.97758627 0 356.11544926 0 16407
0.12450000 0.12449800 13490.92250723 0 -26.44964247 0 3735.75427376 0 781.38427520 0 547.14705256 0 16306
0.12550000 0.12549900 13378.87986690 0 130.82186561 0 3552.47668024 0 398.89157180 0 878.14847353 0 17523
0.12650000 0.12650100 13379.31924980 0 108.25219387 0 2986.71626944 0 560.66027375 0 1041.17600749 0 17154
0.12750000 0.12750600 12987.38970010 0 275.85337432 0 3402.49332622 0 181.76282096 0 1163.72758841 0 18007
0.12850000 0.12850300 12577.77498854 0 136.54702484 0 2592.46897492 0 105.47529392 0 2005.05797156 0 17496
0.12950000 0.12949900 12258.89284650 0 155.38886219 0 2708.21341621 0 268.45636314 0 1497.47185715 0 18405
0.13050000 0.13049000 12251.53318288 0 318.33181495 0 2785.78646778 0 -134.66646602 0 1190.29926949 0 18100
0.13150000 0.13148800 11939.79101302 0 184.49468416 0 2841.74188051 0 -175.53346985 0 1447.37122161 0 19059
0.13250000 0.13249300 11611.02275566 0 -237.08552231 0 2880.08902339 0 257.40148930 0 1598.55189405 0 18957
0.13350000 0.13349100 11826.97945261 0 158.95994674 0 2680.97167621 0 14.09342631 0 460.28434796 0 19468
0.13450000 0.13450700 11539.51318815 0 375.71961594 0 2994.62516170 0 -552.36252762 0 859.91737842 0 19953
0.13550000 0.13551000 11232.27469305 0 325.70246315 0 3170.61998360 0 -424.01768313 0 489.52088634 0 19956
0.13650000 0.13649900 11222.60826918 0 -130.84053939 0 3431.25093723 0 133.68114986 0 268.84521701 0 19723
0.13750000 0.13749600 11332.56384072 0 -73.60476488 0 3351.09651111 0 185.59533833 0 5.91171023 0 20946
0.13850000 0.13851100 11184.05241942 0 165.79454780 0 3138.36927850 0 58.48867486 0 199.50620105 0 20955
0.13950000 0.13949800 11215.24860555 0 46.59556828 0 3598.63385423 0 -337.05831429 0 -349.73890487 0 20506
0.14050000 0.14048300 10795.93451640 0 172.70384395 0 3065.92602232 0 325.13785612 0 146.17390425 0 21447
0.14150000 0.14148400 11077.94144828 0 77.38159047 0 3172.81689811 0 203.41231506 0 -138.91420024 0 21771
0.14250000 0.14249400 10825.28529434 0 -14.26291827 0 3087.76335262 0 315.01776940 0 340.85677949 0 22470
0.14350000 0.14350900 10654.74980502 0 288.86020671 0 2932.49641918 0 163.01215556 0 171.49554097 0 22519
0.14450000 0.14449900 10516.77258882 0 105.05095988 0 2732.88476623 0 59.00967314 0 656.43476209 0 22218
0.14550000 0.14550500 10296.46600113 0 8.39450923 0 2566.07304701 0 517.28878737 0 442.58929999 0 23559
0.14650000 0.14650700 10375.03864880 0 -3.65876340 0 2365.90118086 0 11.13978459 0 818.08373220 0 23044
0.14750000 0.14750500 10149.02008337 0 51.73085596 0 2100.39307700 0 -148.02370628 0 176.70332683 0 23649
0.14850000 0.14849900 10121.71243593 0 187.98338441 0 2509.96385026 0 -207.84678701 0 254.64546004 0 23640
0.14950000 0.14949500 9959.73392865 0 -3.13587578 0 1967.80928594 0 24.50284667 0 -147.73261510 0 24457
0.15050000 0.15050000 10172.26343895 0 75.80420585 0 2240.01797908 0 122.64824516 0 -177.70402139 0 24591
0.15150000 0.15149900 9920.10159078 0 86.83106903 0 2212.32587160 0 39.94825418 0 -261.47456881 0 25020
0.15250000 0.15250500 9866.80444461 0 193.74589119 0 2454.38191300 0 -219.79141124 0 -4.20101683 0 25297
0.15350000 0.15350100 9715.99724764 0 76.71230046 0 2325.85142923 0 180.14699033 0 -10.19302428 0 25452
0.15450000 0.15450400 9590.37767560 0 -33.34191254 0 2682.45459351 0 187.16503376 0 236.90976915 0 26061
0.15550000 0.15549900 9634.21710477 0 83.19956934 0 2485.76483687 0 -169.91046715 0 792.36884778 0 26128
0.15650000 0.15649500 9581.59001754 0 290.76383314 0 2852.53971536 0 -31.30998630 0 383.09795335 0 26331
0.15750000 0.15749700 9325.74833754 0 124.48266878 0 3028.32583038 0 21.51075895 0 890.15461136 0 27345
0.15850000 0.15849900 9245.08862108 0 151.96826629 0 3403.86639779 0 -42.59883154 0 604.46455229 0 26980
0.15950000 0.15949700 9091.51331182 0 -9.85960955 0 3144.78426889 0 8.89336261 0 1123.52405276 0 27777
0.16050000 0.16050000 9137.84623897 0 40.42179910 0 3200.13553012 0 255.80872627 0 687.56064696 0 28224
0.16150000 0.16150500 8941.89244869 0 207.58315727 0 3123.96850384 0 39.61443302 0 1076.76821957 0 28075
0.16250000 0.16249700 8666.28952262 0 199.47764116 0 3186.83321273 0 2.73047914 0 1211.06011167 0 28590
0.16350000 0.16349900 8662.41196850 0 -98.33521190 0 2911.92231473 0 383.95914384 0 1188.53075330 0 29163
0.16450000 0.16449100 8615.32110585 0 31.35820858 0 2923.13756334 0 290.02347295 0 1427.81868241 0 28996
0.16550000 0.16550500 8562.71598775 0 115.43577480 0 2492.49837986 0 11.72767892 0 1252.41702743 0 30777
0.16650000 0.16650700 8453.45244429 0 141.38243369 0 2587.86643901 0 58.66574617 0 1205.97425456 0 29211
0.16750000 0.16749900 8368.48677537 0 131.20852257 0 2708.96036715 0 -80.98255305 0 1028.19993190 0 30922
0.16850000 0.16850800 8156.38566340 0 176.76703735 0 2820.15719539 0 -265.13902222 0 961.13691938 0 30867
0.16950000 0.16949900 8002.51377068 0 114.90741686 0 2953.64172140 0 -146.91755982 0 789.62380310 0 30852
0.17050000 0.17049200 7820.30168070 0 -91.69371962 0 2743.88032338 0 327.77854737 0 1237.56588530 0 31257
0.17150000 0.17149500 7911.57249428 0 -29.08396267 0 2420.05512369 0 605.41801319 0 1114.49473410 0 32608
0.17250000 0.17250900 8155.03456097 0 39.17021690 0 2044.85507803 0 252.30135225 0 603.68464764 0 32361
0.17350000 0.17350400 8041.94838624 0 15.89225992 0 2132.17144547 0 36.55017665 0 1206.97385067 0 32508
0.17450000 0.17449800 7929.09288754 0 44.36504097 0 1983.91266934 0 -137.64767902 0 598.25057958 0 32791
0.17550000 0.17549800 7839.31597584 0 28.08304842 0 1931.01096779 0 -156.74106308 0 743.52155197 0 33633
0.17650000 0.17650100 7750.58259852 0 68.31316673 0 2144.05675301 0 67.61246084 0 325.00054896 0 33984
0.17750000 0.17750300 7882.65011467 0 89.59028382 0 1834.22589878 0 -39.20185247 0 353.66369266 0 34069
0.17850000 0.17849800 7730.59067643 0 69.54596531 0 1859.12792482 0 -7.87858582 0 49.15815922 0 34536
