### header ###
fiducial parameters:
Omega_m = 0.31
Omega_nu = 0
Omega_de = 0.69
Omega_k = 0
H_0 = 100
w_de = -1
zeff = 0
beta = 0
fgrowth = 0
b_1 = 2
gamma = 0.55
Lx = 3500 Ly = 3500 Lz = 3500
nx = 700 ny = 700 nz = 700
xoffset = -983.599254 yoffset = -42.9823471 zoffset = 800.977702
bins = 400 dk = 0.001
kx_ny = 0.628318531 ky_ny = 0.628318531 kz_ny = 0.628318531
############################
A(data) = 9.00943196 (not used)
A(ran) = 9.02200421 (used)
Ngal = 501487
weighted Ngal = 0
Nran = 25229228
weighted Nran = 0
SN(data) = 6735.16018
SN(ran) = 133.925437
SN(data+ran) = 6869.08562
############################
13 columns: k_central k_mean P_0(k) sigma^{lin}_{P_0(k)} P^img_1(k) sigma^{lin}_{P_1(k)} P_2(k) sigma^{lin}_{P_2(k)} P^img_3(k) sigma^{lin}_{P_3(k)} P_4(k) sigma^{lin}_{P_4(k)} N_modes
### header ###
0.00050000 0 0 0 0 0 0 0 0 0 0 0 0
0.00150000 0.00179520 118198.39480429 0 -81089.32309846 0 15825.25402649 0 -125938.12464510 0 2557.36228095 0 3
0.00250000 0.00253879 105790.44130785 0 -6857.42700194 0 -60238.07788738 0 -10201.44944830 0 79913.86398653 0 6
0.00350000 0.00331552 84160.60959220 0 11911.89019866 0 -5095.71026677 0 19224.32016606 0 -2194.30018799 0 7
0.00450000 0.00420575 70393.31523883 0 -12565.91165015 0 -8881.68600637 0 -12623.14127330 0 -25881.84991616 0 24
0.00550000 0.00557378 87930.62474785 0 4399.54101028 0 -5723.77517325 0 -30378.71423951 0 -32490.38847255 0 45
0.00650000 0.00659388 110536.65542880 0 6051.39005049 0 -6265.97367587 0 -29065.83812459 0 10726.75367829 0 40
0.00750000 0.00754703 84942.16193137 0 -4002.75627950 0 -7660.67387195 0 -17808.95798895 0 -59634.25593258 0 57
0.00850000 0.00846663 106937.01099389 0 9234.51047768 0 39613.00502574 0 -34476.17950380 0 -27480.76430110 0 75
0.00950000 0.00948925 71866.23657626 0 18143.98745269 0 44210.37818821 0 -15277.12385468 0 -29563.65895398 0 112
0.01050000 0.01054430 63915.82263334 0 718.17574920 0 48939.67606738 0 4383.99784008 0 -1431.47654508 0 105
0.01150000 0.01145670 65745.52288821 0 402.63181877 0 47027.59151815 0 23848.38583990 0 -60346.05623585 0 144
0.01250000 0.01249090 75612.96443803 0 1527.32792543 0 41597.80744547 0 15456.17238776 0 -3485.26208062 0 169
0.01350000 0.01339930 77149.81598789 0 -2944.84307876 0 24589.84448914 0 8179.51917325 0 -12014.70579802 0 180
0.01450000 0.01448870 76387.59649647 0 -11101.99766224 0 13023.30925244 0 9873.25238872 0 -5333.93269234 0 267
0.01550000 0.01550050 74241.54055125 0 874.28849472 0 18261.30268785 0 3371.35206295 0 -5432.28855523 0 238
0.01650000 0.01653350 74649.50757692 0 9462.68201934 0 9000.81369602 0 -1267.45490730 0 1532.98498031 0 315
0.01750000 0.01747870 76188.33634984 0 4321.35282265 0 16606.69651993 0 -3022.88846695 0 -7474.71604272 0 297
0.01850000 0.01844180 74788.57226580 0 -803.98063946 0 11937.81378995 0 7219.55540622 0 4802.82860803 0 388
0.01950000 0.01947590 69087.68894181 0 -3791.01765842 0 12243.07506199 0 5185.27847160 0 24179.24116605 0 399
0.02050000 0.02045430 67203.94458984 0 3563.26353052 0 9412.42759978 0 4018.24452684 0 -5402.94876187 0 462
0.02150000 0.02154770 68025.37092747 0 5536.07079698 0 15913.56999004 0 -5026.57336694 0 12226.26866594 0 571
0.02250000 0.02255340 60894.18640766 0 1493.08901269 0 22877.89885234 0 -417.73011378 0 12667.29925508 0 510
0.02350000 0.02348930 58029.51972417 0 -1547.33083210 0 21556.45477081 0 6944.73238481 0 18862.15880805 0 555
0.02450000 0.02439640 63220.16965176 0 574.15372271 0 14477.44697076 0 5680.48497271 0 6576.14505185 0 592
0.02550000 0.02547300 62984.11118699 0 -970.93405967 0 13855.50047120 0 4116.11706854 0 10918.25871667 0 837
0.02650000 0.02652900 60054.74537099 0 3097.04531645 0 20299.81966750 0 -874.12043076 0 12107.85497351 0 723
0.02750000 0.02749970 58660.25388179 0 1794.58257633 0 16562.20900097 0 -2961.91310455 0 10212.15940657 0 826
0.02850000 0.02848090 58945.41338600 0 294.96982598 0 21192.31618973 0 3116.22438017 0 10745.69108142 0 831
0.02950000 0.02946900 57618.14748100 0 -1011.23425955 0 17254.01738214 0 628.35160383 0 3108.55714851 0 996
0.03050000 0.03053250 56301.75630285 0 4107.37334876 0 16313.51827773 0 -2487.62122963 0 1870.85944834 0 1041
0.03150000 0.03150510 51571.68950360 0 1558.85364874 0 21456.16562314 0 -5558.97363081 0 7582.36485401 0 1036
0.03250000 0.03246190 50842.42372992 0 1421.10710857 0 22523.53654087 0 3987.64150762 0 -3251.98271271 0 1059
0.03350000 0.03345080 50601.20251604 0 336.83093363 0 19280.34148623 0 3118.59704785 0 -2804.42728745 0 1302
0.03450000 0.03451200 48909.90787569 0 1854.96477181 0 17852.34705065 0 -1292.28004133 0 -6167.82651985 0 1339
0.03550000 0.03553350 45022.57748488 0 2530.79059988 0 14367.93078212 0 3162.07398613 0 -3661.45462482 0 1365
0.03650000 0.03647120 48828.84173004 0 -2676.59981632 0 15955.86059448 0 2737.03693467 0 -2436.98235003 0 1308
0.03750000 0.03744890 44958.97680963 0 -908.18249188 0 10456.91765283 0 2920.49028135 0 -11119.35328692 0 1579
0.03850000 0.03847530 47025.72414081 0 2649.03952372 0 12108.62389359 0 -5200.93148752 0 -10224.72575760 0 1662
0.03950000 0.03950240 42287.19922067 0 1044.56914196 0 13007.49146792 0 -1740.35174150 0 -5708.64941681 0 1683
0.04050000 0.04050350 43307.33647630 0 2031.93722067 0 17109.35056125 0 -1730.03722784 0 -9253.46984996 0 1822
0.04150000 0.04152450 42403.52584431 0 -503.63276674 0 16332.85112547 0 885.07424654 0 -16065.26693739 0 1887
0.04250000 0.04250150 43559.32257132 0 -38.77488214 0 15789.00493697 0 2296.19308326 0 -11081.89589441 0 1920
0.04350000 0.04349210 40481.00595112 0 -127.11127700 0 16481.03300960 0 26.57783243 0 -6378.79622085 0 2005
0.04450000 0.04448520 42597.07401319 0 1941.73191063 0 16417.65202580 0 1851.43872401 0 -3671.88996877 0 2151
0.04550000 0.04548030 37802.41792716 0 938.74047434 0 15880.50642657 0 310.32296308 0 -5236.32378038 0 2274
0.04650000 0.04648670 37345.78924495 0 2498.45201820 0 16336.36618870 0 -94.58958249 0 1383.02359543 0 2311
0.04750000 0.04749250 36000.72833237 0 1454.26953319 0 18333.36148399 0 2151.00998745 0 1141.33004492 0 2568
0.04850000 0.04851840 33829.18817876 0 -815.61000645 0 16004.52225102 0 5873.80246557 0 3493.58838663 0 2493
0.04950000 0.04949480 34632.48997164 0 -952.95341281 0 13099.98156906 0 3561.57190634 0 5519.29735465 0 2644
0.05050000 0.05050630 34330.63391710 0 1189.46444197 0 11967.03275302 0 -731.02220683 0 5143.44921921 0 2829
0.05150000 0.05149060 34477.38780679 0 951.41557265 0 11208.76770773 0 -1126.89631655 0 5824.80028728 0 2784
0.05250000 0.05249300 32910.54837378 0 -440.35833330 0 12338.86053490 0 823.63423672 0 4149.66395320 0 3055
0.05350000 0.05348950 33967.48394756 0 -63.74578145 0 13064.28170817 0 885.02920979 0 3449.75994203 0 3009
0.05450000 0.05448610 34179.81573556 0 275.13608173 0 12495.93992281 0 -249.29926856 0 67.05927777 0 3336
0.05550000 0.05550870 34956.31517133 0 -710.00322720 0 13790.25211007 0 -851.97443398 0 1503.52435664 0 3349
0.05650000 0.05647670 33590.38357084 0 -121.72444260 0 13111.18583309 0 -328.49144613 0 3117.58646717 0 3324
0.05750000 0.05747970 35605.94279379 0 538.94047839 0 14995.80895087 0 -903.03182580 0 29.34759241 0 3639
0.05850000 0.05849280 33886.30795619 0 864.93403271 0 15231.64772419 0 -755.63533861 0 -2701.23821262 0 3846
0.05950000 0.05951020 32931.52890742 0 2239.69942647 0 18257.01870455 0 -1449.37041382 0 -804.75175645 0 3787
0.06050000 0.06049470 31415.32835401 0 312.50230228 0 17388.13901336 0 1813.24536515 0 4103.11133460 0 3930
0.06150000 0.06148310 32705.35655797 0 -1772.11912540 0 15951.57661117 0 4620.00138199 0 -251.70488996 0 4083
0.06250000 0.06249100 33247.66490631 0 41.13063357 0 13634.71056232 0 3734.18347988 0 2188.14882735 0 4303
0.06350000 0.06350600 31664.67815161 0 1110.62816455 0 12051.39427044 0 703.40149908 0 3853.88236730 0 4470
0.06450000 0.06451750 30628.94280291 0 1070.29501095 0 11509.85484218 0 -396.51341184 0 7668.16535045 0 4479
0.06550000 0.06550280 29435.35914623 0 484.41745392 0 11932.76088656 0 1850.72472680 0 5445.28330460 0 4636
0.06650000 0.06648880 29709.20454068 0 -517.07898204 0 9345.66336763 0 2310.39613561 0 7881.21113566 0 4653
0.06750000 0.06749660 29188.09641742 0 30.93079886 0 9404.67249154 0 2677.30282897 0 6075.85269363 0 5220
0.06850000 0.06852730 29074.07655403 0 464.43871331 0 7666.27600396 0 -941.28450135 0 8224.47902883 0 5029
0.06950000 0.06949320 28185.31478647 0 1016.45083307 0 8202.44397623 0 -668.52218576 0 6004.74955531 0 5040
0.07050000 0.07048030 27155.73079842 0 888.11807160 0 8660.05028540 0 -731.12875719 0 3772.34388503 0 5475
0.07150000 0.07148790 26274.65823167 0 338.64228965 0 9288.43374449 0 -231.93265931 0 5655.14356376 0 5509
0.07250000 0.07249820 27284.03060617 0 -481.74710433 0 9700.97035235 0 962.56051999 0 4355.77847312 0 5916
0.07350000 0.07351270 26667.13701000 0 -854.32183714 0 8801.64142597 0 903.31083394 0 3622.52529959 0 5721
0.07450000 0.07449140 26883.31339840 0 474.22157365 0 7335.26689380 0 606.42749541 0 2967.53720571 0 6028
0.07550000 0.07549160 27671.12694394 0 641.44960817 0 7828.24352667 0 -278.84667035 0 2897.91698469 0 6183
0.07650000 0.07648840 26340.45582143 0 -173.04656262 0 7478.53867398 0 1533.12777975 0 4876.40327518 0 6330
0.07750000 0.07749960 26662.41364379 0 -379.60376081 0 7610.73800499 0 105.84151957 0 3414.24681888 0 6583
0.07850000 0.07848650 26071.22394746 0 541.83161789 0 6135.59778390 0 1422.63396415 0 2896.73065085 0 6549
0.07950000 0.07947320 26374.39815071 0 678.95313588 0 6702.01726905 0 -1398.30313589 0 2700.08483250 0 6828
0.08050000 0.08048110 25142.25864426 0 838.62158755 0 7575.16995897 0 -376.89716212 0 3187.19570362 0 7147
0.08150000 0.08149960 24625.10496713 0 707.76127593 0 8709.81039919 0 -512.89056451 0 2907.60537771 0 7386
0.08250000 0.08250610 23724.37001546 0 269.56031269 0 8195.01840517 0 -419.28662772 0 2729.89696249 0 7227
0.08350000 0.08350160 23427.45701859 0 27.93816190 0 8981.60167857 0 243.90364651 0 216.57073456 0 7798
0.08450000 0.08449610 22988.84303541 0 548.23342679 0 7985.31193002 0 217.48794637 0 1186.22399306 0 7371
0.08550000 0.08548940 22402.48655102 0 243.53676179 0 8982.68915126 0 426.46614436 0 1257.54682283 0 8256
0.08650000 0.08650700 22097.33512471 0 463.04806642 0 8645.24308156 0 137.85968127 0 1945.70832591 0 8037
0.08750000 0.08749060 21709.36002114 0 364.53732106 0 8365.68570936 0 -44.94909069 0 1023.62705434 0 8155
0.08850000 0.08849210 21239.22031466 0 347.61888237 0 8338.25723163 0 73.06696021 0 310.51079927 0 8718
0.08950000 0.08949900 21124.21183973 0 271.47162832 0 7648.28327407 0 507.21922969 0 134.38196559 0 8571
0.09050000 0.09049190 20320.80020113 0 165.51444120 0 8135.37217605 0 478.16173984 0 339.29477326 0 8932
0.09150000 0.09150830 20340.90196895 0 70.36607350 0 7328.35759764 0 437.77256491 0 1486.42137713 0 9285
0.09250000 0.09250820 19991.92209804 0 223.12852439 0 6990.48312961 0 666.63943002 0 767.31743155 0 9204
0.09350000 0.09350330 20260.82443484 0 -76.09178196 0 5391.86532813 0 1437.06769253 0 491.16088303 0 9349
0.09450000 0.09448040 19515.96056810 0 202.56210914 0 6327.71795835 0 -153.95867084 0 1475.43680455 0 9564
0.09550000 0.09549270 18634.00923554 0 572.69716839 0 5527.10738575 0 -296.69330542 0 1497.94419377 0 10155
0.09650000 0.09649430 18630.05478941 0 749.79813674 0 6978.21336204 0 -583.76192835 0 1087.85055485 0 9913
0.09750000 0.09749140 17672.74928895 0 251.18202430 0 6610.07639655 0 -173.95278986 0 520.04811200 0 10476
0.09850000 0.09850240 17485.02294353 0 102.15729393 0 6827.40616507 0 683.82918765 0 729.95560483 0 10575
0.09950000 0.09950330 17506.22316861 0 -49.15047002 0 5913.61055660 0 670.98053310 0 745.48559355 0 10882
0.10050000 0.10051200 17674.50682056 0 239.14952350 0 6010.07707301 0 415.14105002 0 -3.98497226 0 10875
0.10150000 0.10150300 17258.74074835 0 330.31488518 0 6216.57605297 0 -1174.99775988 0 120.47549670 0 11118
0.10250000 0.10250800 16600.76485073 0 578.43331219 0 6599.14674683 0 -534.99042609 0 -574.65132385 0 11575
0.10350000 0.10349800 16130.29560707 0 -241.64631685 0 6393.24093379 0 240.83126156 0 697.04143155 0 11364
0.10450000 0.10450100 16536.17556395 0 -55.77109160 0 5896.02425590 0 1609.09708372 0 -1078.38514866 0 12093
0.10550000 0.10551000 16416.66341427 0 -4.24427408 0 5728.69626177 0 325.53769456 0 -235.93653602 0 12067
0.10650000 0.10649700 16097.23204360 0 702.37444154 0 5228.14027381 0 -158.64249259 0 -303.58612472 0 12054
0.10750000 0.10749900 15835.35983326 0 236.81310491 0 5346.64184282 0 3.99912039 0 823.33325943 0 12807
0.10850000 0.10850100 15189.57681121 0 97.83091017 0 5998.16979633 0 433.89720771 0 479.52602375 0 12736
0.10950000 0.10950300 15230.00003831 0 117.76450419 0 5043.35779384 0 529.74309577 0 1348.54302209 0 12933
0.11050000 0.11050200 15046.33798475 0 -179.17485566 0 5225.64677583 0 291.20431450 0 757.59608482 0 13428
0.11150000 0.11150900 14784.13623723 0 395.98834927 0 4778.82731694 0 157.46274950 0 792.51164723 0 13453
0.11250000 0.11250000 14583.33825044 0 445.86050570 0 5728.32278630 0 -586.31144764 0 1386.40684378 0 13668
0.11350000 0.11349100 14249.07770679 0 126.98495441 0 4888.79387305 0 109.74192160 0 874.50708772 0 13791
0.11450000 0.11448600 14238.86205429 0 -27.52305491 0 5393.86452034 0 384.92249085 0 318.96342787 0 14205
0.11550000 0.11549300 13618.67308635 0 367.40099913 0 4941.60769802 0 -320.84398670 0 358.57489506 0 14776
0.11650000 0.11649800 13728.29912071 0 172.86751408 0 5254.10780339 0 297.57646506 0 453.84079769 0 14553
0.11750000 0.11747300 13399.53086335 0 -51.59277988 0 5093.30464537 0 273.10503426 0 -243.26983667 0 14568
0.11850000 0.11849100 13413.92065343 0 96.33151601 0 5032.38420584 0 -64.58280588 0 -107.47459598 0 16015
0.11950000 0.11950300 13119.97349116 0 279.15094301 0 4575.34909444 0 194.07432991 0 217.20783977 0 15270
0.12050000 0.12050700 13113.27290188 0 -32.07517163 0 4892.47370487 0 -35.53234616 0 -75.05099370 0 15999
0.12150000 0.12150000 13217.18695850 0 39.36112878 0 4282.62121972 0 526.81131334 0 17.67977942 0 15670
0.12250000 0.12250700 13036.71043099 0 146.21235026 0 5011.89797797 0 -110.47514182 0 -190.12427761 0 16887
0.12350000 0.12352200 12839.53735315 0 173.31019236 0 4891.95742996 0 -180.90163047 0 30.84775549 0 16407
0.12450000 0.12449800 12815.15160202 0 -54.60332169 0 4833.36571981 0 -230.44095435 0 -18.39795077 0 16306
0.12550000 0.12549900 12817.23867081 0 10.62644256 0 4669.04749856 0 198.14301559 0 -475.94395463 0 17523
0.12650000 0.12650100 12641.15597234 0 161.29856224 0 4518.10848672 0 165.86704598 0 138.01676066 0 17154
0.12750000 0.12750600 12628.41386814 0 125.88979253 0 4464.75641770 0 773.44682305 0 400.88307481 0 18007
0.12850000 0.12850300 12607.76287169 0 -79.57850499 0 4111.56945549 0 379.80587694 0 544.18451334 0 17496
0.12950000 0.12949900 12348.30726732 0 114.07039243 0 3812.81105042 0 755.06633775 0 762.04813209 0 18405
0.13050000 0.13049000 12702.66957879 0 82.11835786 0 3649.63522472 0 -110.23348123 0 1388.20831368 0 18100
0.13150000 0.13148800 12206.49643529 0 -229.81812909 0 2923.57694624 0 583.64219651 0 889.00123124 0 19059
0.13250000 0.13249300 12460.56959910 0 141.15834841 0 3083.13884756 0 247.54173695 0 1245.79333017 0 18957
0.13350000 0.13349100 12107.30574488 0 225.84500919 0 2626.37835048 0 26.66142503 0 1427.18157720 0 19468
0.13450000 0.13450700 11985.04745205 0 421.80868558 0 3178.21032325 0 -421.35062890 0 1361.68057090 0 19953
0.13550000 0.13551000 11572.46690590 0 205.36207669 0 3228.67344969 0 52.20857502 0 846.76774658 0 19956
0.13650000 0.13649900 11551.81590944 0 -170.67389494 0 3364.81624226 0 534.46426506 0 1190.20040833 0 19723
0.13750000 0.13749600 11526.22185533 0 -77.59567979 0 3095.10104710 0 -164.98168943 0 1304.64867006 0 20946
0.13850000 0.13851100 11583.56132420 0 327.20625114 0 2873.60812557 0 -214.10469801 0 881.70527813 0 20955
0.13950000 0.13949800 11485.02970815 0 -96.33536061 0 3208.63758930 0 -17.78391316 0 615.59521969 0 20506
0.14050000 0.14048300 11305.54179217 0 -3.61952651 0 2960.10065008 0 160.10673612 0 233.71325853 0 21447
0.14150000 0.14148400 11340.69242443 0 277.12538783 0 2978.36799428 0 -320.76489778 0 281.89269233 0 21771
0.14250000 0.14249400 11290.49292773 0 221.58299503 0 3431.98690360 0 -175.56752202 0 -264.13722921 0 22470
0.14350000 0.14350900 10971.30321766 0 48.12780631 0 3120.55230177 0 221.54784439 0 46.17738560 0 22519
0.14450000 0.14449900 10745.48237454 0 13.59692363 0 3452.49510061 0 19.66941505 0 -63.05188600 0 22218
0.14550000 0.14550500 10540.00495983 0 307.63284126 0 3366.85937276 0 -186.95193305 0 175.55434054 0 23559
0.14650000 0.14650700 10515.23474866 0 183.07767430 0 3361.81745395 0 127.06843716 0 -252.50127147 0 23044
0.14750000 0.14750500 10275.19986861 0 221.43360484 0 3560.73707882 0 48.02059688 0 -82.35892000 0 23649
0.14850000 0.14849900 10106.10335830 0 -131.63692090 0 3346.74662037 0 219.28172707 0 358.62322718 0 23640
0.14950000 0.14949500 10139.14495262 0 -106.97249116 0 3138.19352534 0 279.11359546 0 64.05203133 0 24457
0.15050000 0.15050000 9940.21434317 0 280.05277642 0 2978.40094800 0 102.32316097 0 -31.41335113 0 24591
0.15150000 0.15149900 9962.45810265 0 324.73582076 0 2995.91035669 0 -285.65600689 0 21.12904505 0 25020
0.15250000 0.15250500 9597.19909517 0 79.29971653 0 3183.35110322 0 144.48228008 0 341.12919689 0 25297
0.15350000 0.15350100 9450.01680716 0 -4.96688320 0 2904.63954311 0 220.08469933 0 151.40695463 0 25452
0.15450000 0.15450400 9382.62645437 0 1.44550384 0 2966.35087187 0 306.69585721 0 154.62213903 0 26061
0.15550000 0.15549900 9305.67952344 0 99.53198108 0 2626.51016535 0 52.28052397 0 239.54386965 0 26128
0.15650000 0.15649500 9224.55845492 0 96.53670783 0 2433.43433309 0 183.26001820 0 498.08885296 0 26331
0.15750000 0.15749700 9408.06672447 0 19.96072591 0 2445.37456349 0 197.08300434 0 322.17861227 0 27345
0.15850000 0.15849900 8979.29491833 0 187.43745116 0 2547.65191879 0 -394.31100504 0 -55.37476822 0 26980
0.15950000 0.15949700 8784.63730761 0 385.24983112 0 2919.01834862 0 -261.72172169 0 146.02671098 0 27777
0.16050000 0.16050000 8549.49056237 0 111.36708912 0 3114.67555544 0 -120.96321172 0 30.50349898 0 28224
0.16150000 0.16150500 8436.56915623 0 12.94806493 0 2765.80553026 0 554.47925476 0 76.41088379 0 28075
0.16250000 0.16249700 8469.30318252 0 -33.73516024 0 2687.26583630 0 262.45219577 0 56.69423508 0 28590
0.16350000 0.16349900 8474.88334539 0 124.96708843 0 2341.49346058 0 194.02929316 0 250.36916593 0 29163
0.16450000 0.16449100 8196.32556930 0 -65.66566505 0 2340.65863307 0 183.28967655 0 752.09061704 0 28996
0.16550000 0.16550500 8261.88149847 0 -13.16281332 0 2189.56583721 0 79.99416121 0 32.07044826 0 30777
0.16650000 0.16650700 8183.58346511 0 296.43736488 0 1935.73433400 0 -334.30448194 0 178.95626267 0 29211
0.16750000 0.16749900 8177.84951822 0 71.07908211 0 2152.86638022 0 -0.83040842 0 -66.90044085 0 30922
0.16850000 0.16850800 8067.79508553 0 -246.33343397 0 1863.70849159 0 472.56949394 0 363.26750447 0 30867
0.16950000 0.16949900 8245.52546989 0 -29.56948078 0 1542.43171273 0 517.43707910 0 -337.62841360 0 30852
0.17050000 0.17049200 8157.12162976 0 158.26901712 0 1613.29319045 0 -341.20499044 0 367.57345692 0 31257
0.17150000 0.17149500 8101.70446109 0 143.42885957 0 1293.60917461 0 -36.37398411 0 342.19799580 0 32608
0.17250000 0.17250900 8021.37428180 0 -83.41926079 0 1778.40230092 0 185.52613553 0 -155.30977327 0 32361
0.17350000 0.17350400 8020.29779369 0 97.37263380 0 1642.88562898 0 -183.93776633 0 77.21550373 0 32508
0.17450000 0.17449800 8022.23107846 0 122.41866759 0 1587.08400027 0 36.18537900 0 42.79512586 0 32791
0.17550000 0.17549800 8014.65172338 0 -119.89111744 0 1533.75390039 0 8.96747552 0 104.76448223 0 33633
0.17650000 0.17650100 7877.69607244 0 135.09925818 0 1573.23245425 0 -101.02544357 0 -478.36934826 0 33984
0.17750000 0.17750300 7930.40005168 0 93.75376636 0 1715.36183888 0 -380.72199030 0 -301.62757543 0 34069
0.17850000 0.17849800 7788.81989568 0 67.08014846 0 1810.09279282 0 189.11699230 0 -403.13051836 0 34536
