### header ###
fiducial parameters:
Omega_m = 0.31
Omega_nu = 0
Omega_de = 0.69
Omega_k = 0
H_0 = 100
w_de = -1
zeff = 0
beta = 0
fgrowth = 0
b_1 = 2
gamma = 0.55
Lx = 3500 Ly = 3500 Lz = 3500
nx = 700 ny = 700 nz = 700
xoffset = -983.599254 yoffset = -42.9823471 zoffset = 800.977702
bins = 400 dk = 0.001
kx_ny = 0.628318531 ky_ny = 0.628318531 kz_ny = 0.628318531
############################
A(data) = 9.05343477 (not used)
A(ran) = 9.0502591 (used)
Ngal = 502946
weighted Ngal = 0
Nran = 25229228
weighted Nran = 0
SN(data) = 6725.49
SN(ran) = 134.344861
SN(data+ran) = 6859.83486
############################
13 columns: k_central k_mean P_0(k) sigma^{lin}_{P_0(k)} P^img_1(k) sigma^{lin}_{P_1(k)} P_2(k) sigma^{lin}_{P_2(k)} P^img_3(k) sigma^{lin}_{P_3(k)} P_4(k) sigma^{lin}_{P_4(k)} N_modes
### header ###
0.00050000 0 0 0 0 0 0 0 0 0 0 0 0
0.00150000 0.00179520 19016.05266992 0 -26474.24791547 0 -36673.97278588 0 19921.73067925 0 15521.86013179 0 3
0.00250000 0.00253879 30579.95160920 0 -19174.12066936 0 -18008.43782703 0 -22328.99976045 0 1574.18811206 0 6
0.00350000 0.00331552 45221.50809433 0 -11292.03076790 0 -27345.87374980 0 -48810.27780238 0 -47555.72976786 0 7
0.00450000 0.00420575 63988.21096665 0 -1898.43072552 0 -21509.44080016 0 -49300.18973950 0 16837.92177276 0 24
0.00550000 0.00557378 44092.84326159 0 2833.08603732 0 -4201.60999694 0 -13999.94760065 0 2292.73294290 0 45
0.00650000 0.00659388 46685.75161942 0 -4183.48545218 0 -6658.07897873 0 -2226.21037134 0 7147.81516270 0 40
0.00750000 0.00754703 57849.37273384 0 -1161.58559676 0 -2251.50784200 0 -1389.95486073 0 -36680.01430080 0 57
0.00850000 0.00846663 73685.28179573 0 -7843.68783572 0 13233.11458874 0 -27367.40351206 0 -2935.22059318 0 75
0.00950000 0.00948925 54163.16986699 0 9270.17738486 0 16050.76730158 0 -7931.44358608 0 -4360.72153078 0 112
0.01050000 0.01054430 64913.33166945 0 -1074.46255779 0 26167.00942037 0 -5220.12153582 0 -10882.95430039 0 105
0.01150000 0.01145670 61567.87024407 0 1730.59744105 0 47481.69374866 0 10083.56301536 0 -9529.81972696 0 144
0.01250000 0.01249090 71352.81765381 0 -1475.84323374 0 44725.11525937 0 9600.82400413 0 181.29707508 0 169
0.01350000 0.01339930 81003.53358660 0 -7693.90220401 0 47275.62316704 0 4427.85923839 0 -8613.59652795 0 180
0.01450000 0.01448870 82240.28661353 0 -207.97750343 0 42294.44903857 0 4903.45827745 0 -1355.89170115 0 267
0.01550000 0.01550050 85119.78247001 0 6841.55429456 0 51627.27144086 0 -11478.54881033 0 13821.66798765 0 238
0.01650000 0.01653350 76021.37084661 0 3473.13511249 0 55065.77219600 0 8978.03169248 0 12392.79478627 0 315
0.01750000 0.01747870 83035.24013124 0 -738.61803877 0 66345.17070543 0 16584.72737476 0 7035.64070750 0 297
0.01850000 0.01844180 75885.60152950 0 -1367.29368749 0 52122.34612710 0 4515.50514302 0 12678.61336484 0 388
0.01950000 0.01947590 83591.38904104 0 1134.70634765 0 52704.96785682 0 17142.19443327 0 14207.11663953 0 399
0.02050000 0.02045430 78287.59801586 0 1982.91307324 0 38024.85552193 0 3945.39484148 0 10032.55066029 0 462
0.02150000 0.02154770 82462.50451685 0 1193.89122472 0 47127.44128291 0 1777.27088994 0 15123.88906717 0 571
0.02250000 0.02255340 76139.45500185 0 -146.37602039 0 33199.00324977 0 14358.92343261 0 11396.16451597 0 510
0.02350000 0.02348930 76782.71157222 0 -3129.06534552 0 29856.06827609 0 8204.23446156 0 11003.35620046 0 555
0.02450000 0.02439640 75321.21419027 0 3639.92486256 0 27900.15528226 0 16925.79835341 0 21564.47350879 0 592
0.02550000 0.02547300 76479.86690615 0 449.07788701 0 19359.32056309 0 -18.22439452 0 7842.90793107 0 837
0.02650000 0.02652900 67402.43581638 0 4770.57790293 0 19675.01717907 0 3275.23705286 0 19532.10788979 0 723
0.02750000 0.02749970 68614.03417210 0 5521.62608404 0 20704.49132140 0 2127.31626439 0 16453.57157814 0 826
0.02850000 0.02848090 60838.38477895 0 -285.69555135 0 22758.49654838 0 -4279.43569368 0 16743.23475711 0 831
0.02950000 0.02946900 61025.67174146 0 3241.61327619 0 21126.62844570 0 -2167.00352513 0 -747.54959474 0 996
0.03050000 0.03053250 53788.15655906 0 4643.37655244 0 22246.94500327 0 -510.62884102 0 3988.78390317 0 1041
0.03150000 0.03150510 51970.97871693 0 2086.39873153 0 27005.90122841 0 -5609.64546413 0 2880.44052972 0 1036
0.03250000 0.03246190 48272.69282025 0 533.49762267 0 27612.57917208 0 4293.82548376 0 -3525.15804823 0 1059
0.03350000 0.03345080 49936.19649196 0 -413.95032236 0 29853.54182440 0 -565.44844894 0 -4159.18757763 0 1302
0.03450000 0.03451200 47779.70520279 0 1095.69244122 0 20409.11616468 0 6977.63117969 0 130.14631440 0 1339
0.03550000 0.03553350 50212.23880093 0 -1601.89120411 0 21879.29135897 0 6575.10151745 0 -1462.34319404 0 1365
0.03650000 0.03647120 52303.81126615 0 44.83726775 0 21269.20819780 0 -1709.39721596 0 331.77253796 0 1308
0.03750000 0.03744890 48519.18662897 0 2347.15051546 0 19464.66261414 0 1898.10118834 0 3447.02478346 0 1579
0.03850000 0.03847530 45288.95336997 0 689.68066946 0 18142.77914970 0 -790.76180481 0 7274.34645426 0 1662
0.03950000 0.03950240 46742.65170539 0 -467.99771483 0 20049.59110410 0 5485.99213058 0 3655.21538760 0 1683
0.04050000 0.04050350 46648.62376409 0 -231.42517206 0 19153.79921009 0 3397.96768231 0 3018.29691561 0 1822
0.04150000 0.04152450 47398.76022567 0 2381.43336649 0 17325.19741247 0 -2255.90167103 0 3419.70615145 0 1887
0.04250000 0.04250150 44589.89517090 0 1438.06728863 0 20671.75729510 0 -4709.82223198 0 1107.61839167 0 1920
0.04350000 0.04349210 43077.75890935 0 -339.65616570 0 19163.02625106 0 1014.08585459 0 -1792.93489044 0 2005
0.04450000 0.04448520 44693.25999889 0 311.42801108 0 20222.04889362 0 2482.04106676 0 -3421.74928195 0 2151
0.04550000 0.04548030 41945.02978476 0 624.66408281 0 16065.92601175 0 40.23769767 0 -5512.55282708 0 2274
0.04650000 0.04648670 43220.00912428 0 1377.90478460 0 19407.65268244 0 78.30693086 0 -6592.06169752 0 2311
0.04750000 0.04749250 40571.18929201 0 758.49901669 0 18511.31155981 0 787.45984230 0 -1708.70518789 0 2568
0.04850000 0.04851840 39407.59351847 0 -711.54765810 0 13881.86344540 0 3860.45114171 0 -1098.04753358 0 2493
0.04950000 0.04949480 40546.91338661 0 330.55874269 0 14691.53629037 0 3441.02720683 0 -2889.65658611 0 2644
0.05050000 0.05050630 38540.69105035 0 1780.47838514 0 12610.50901483 0 -294.70290087 0 -1435.20031519 0 2829
0.05150000 0.05149060 38245.42573937 0 197.29061276 0 12399.38552982 0 578.93311024 0 1441.04410780 0 2784
0.05250000 0.05249300 34947.19797609 0 339.09814942 0 11989.77081826 0 1337.58041866 0 1082.13747865 0 3055
0.05350000 0.05348950 35993.14897729 0 1427.65391382 0 13872.85609588 0 -657.54310546 0 1713.63726098 0 3009
0.05450000 0.05448610 34051.51592781 0 1022.28803494 0 13531.12604288 0 549.93493708 0 1471.03199095 0 3336
0.05550000 0.05550870 33697.48315351 0 527.01342948 0 15258.34023557 0 -1455.14829900 0 -1100.39054291 0 3349
0.05650000 0.05647670 33042.69278194 0 -167.88710888 0 14024.00381460 0 1032.93208577 0 -160.62630640 0 3324
0.05750000 0.05747970 33511.95372261 0 -71.05601450 0 13560.67454312 0 2404.33620032 0 1658.57159863 0 3639
0.05850000 0.05849280 33015.01165903 0 -41.99984280 0 12922.25118469 0 238.61567327 0 1200.27326139 0 3846
0.05950000 0.05951020 34270.21876790 0 -282.59350806 0 11385.39963484 0 4008.09478177 0 605.58607715 0 3787
0.06050000 0.06049470 34352.49321654 0 -560.41202241 0 10911.94258744 0 610.57087619 0 2491.79536721 0 3930
0.06150000 0.06148310 33560.72522487 0 1686.02204551 0 10050.30172958 0 -654.09065430 0 3232.27638950 0 4083
0.06250000 0.06249100 31828.89751170 0 939.75654731 0 11732.95151131 0 -70.45581746 0 4373.60643442 0 4303
0.06350000 0.06350600 31237.37827819 0 180.55561643 0 10963.05380366 0 -553.01391278 0 1357.11098871 0 4470
0.06450000 0.06451750 30777.78376139 0 1397.81981469 0 12467.59972555 0 1481.43438118 0 5244.43039495 0 4479
0.06550000 0.06550280 29803.23248197 0 -431.33011309 0 10515.01505721 0 1544.26613635 0 4069.37771220 0 4636
0.06650000 0.06648880 30052.80197102 0 -692.75415287 0 8814.44943760 0 1151.47978998 0 5061.47135403 0 4653
0.06750000 0.06749660 30895.86791664 0 -110.77721757 0 8400.58369645 0 2802.32923409 0 2337.29735386 0 5220
0.06850000 0.06852730 29861.12117948 0 547.54249718 0 7368.57211786 0 -1779.84127993 0 3951.88672387 0 5029
0.06950000 0.06949320 29232.80362783 0 843.64263568 0 8220.82116616 0 -699.44265912 0 1618.59873901 0 5040
0.07050000 0.07048030 29088.46634411 0 1039.45252806 0 8983.57890164 0 -2676.66572376 0 -461.42894042 0 5475
0.07150000 0.07148790 27459.12469312 0 764.09345950 0 11102.76658232 0 189.84526947 0 646.41353652 0 5509
0.07250000 0.07249820 26849.59076058 0 254.67292147 0 11112.21331474 0 211.02132849 0 -160.45384861 0 5916
0.07350000 0.07351270 26251.15124635 0 116.38594033 0 10415.58270620 0 599.31168929 0 816.69857759 0 5721
0.07450000 0.07449140 26496.98598072 0 -38.90175395 0 10266.30236482 0 2163.18089387 0 1351.66264071 0 6028
0.07550000 0.07549160 26687.12893210 0 252.61111720 0 9098.82903716 0 803.48633369 0 698.05201223 0 6183
0.07650000 0.07648840 25808.58281704 0 123.97627998 0 9088.71224581 0 873.87986862 0 2783.31493895 0 6330
0.07750000 0.07749960 25453.78112267 0 898.39194234 0 9710.66972994 0 62.11325427 0 3700.60364150 0 6583
0.07850000 0.07848650 24830.51647440 0 419.76116125 0 9136.84664286 0 -348.25159375 0 3739.85151933 0 6549
0.07950000 0.07947320 24729.01902375 0 -259.92684254 0 8812.08775450 0 1589.13811534 0 3653.51277885 0 6828
0.08050000 0.08048110 24880.60612537 0 -274.89991342 0 7860.10977173 0 834.83410693 0 3926.87485210 0 7147
0.08150000 0.08149960 25187.73477475 0 -37.69751526 0 6914.78843996 0 1090.61427331 0 2968.25120293 0 7386
0.08250000 0.08250610 24199.78231678 0 543.16844037 0 6483.88562673 0 -260.36293007 0 2061.78230437 0 7227
0.08350000 0.08350160 23714.26420868 0 1187.61903378 0 7429.99784774 0 -1438.37485666 0 3357.88497696 0 7798
0.08450000 0.08449610 22487.17760562 0 587.07377698 0 7674.96480087 0 458.75309854 0 3083.10589384 0 7371
0.08550000 0.08548940 22413.14158642 0 -591.62248849 0 7141.12555799 0 1643.58864163 0 2879.89130109 0 8256
0.08650000 0.08650700 22392.49058997 0 410.55828634 0 6615.63459028 0 1033.49779126 0 1843.91429179 0 8037
0.08750000 0.08749060 21671.13370855 0 777.55175783 0 6646.78683812 0 -489.50880331 0 3393.48597670 0 8155
0.08850000 0.08849210 20579.92626832 0 557.06062932 0 6246.02569206 0 5.92717650 0 3395.51812263 0 8718
0.08950000 0.08949900 20286.96771758 0 657.40469985 0 7805.67023002 0 -567.75520918 0 4032.00819628 0 8571
0.09050000 0.09049190 19376.01711341 0 201.32744319 0 7000.98438100 0 956.91774505 0 3462.88650627 0 8932
0.09150000 0.09150830 19381.28970825 0 -355.28281866 0 7097.91224946 0 1150.46920931 0 4079.47253440 0 9285
0.09250000 0.09250820 19528.37313511 0 558.98073260 0 6612.60284824 0 73.99713381 0 2915.15177907 0 9204
0.09350000 0.09350330 18317.21416229 0 598.57901830 0 7149.10035769 0 -1179.07303631 0 3738.18186430 0 9349
0.09450000 0.09448040 18764.61580353 0 244.01678761 0 7454.18587656 0 -156.47523642 0 2371.82186548 0 9564
0.09550000 0.09549270 17978.66963534 0 117.41958861 0 7362.65143324 0 -403.41721571 0 1496.04386272 0 10155
0.09650000 0.09649430 17702.95686354 0 111.32315083 0 7038.46374265 0 418.79122349 0 1325.10194421 0 9913
0.09750000 0.09749140 17697.13504008 0 255.08594140 0 7246.11610273 0 539.62591572 0 1602.16581842 0 10476
0.09850000 0.09850240 17548.40392732 0 121.95511863 0 6905.07807779 0 367.12308944 0 963.93359156 0 10575
0.09950000 0.09950330 17195.46961029 0 161.71487754 0 6165.43188303 0 444.70492867 0 1066.95020860 0 10882
0.10050000 0.10051200 16947.32811567 0 338.70050789 0 6251.73766980 0 493.27980708 0 1590.88466238 0 10875
0.10150000 0.10150300 16695.34202066 0 -215.67219652 0 5710.22021069 0 -235.30162772 0 747.27168505 0 11118
0.10250000 0.10250800 16138.86357369 0 484.10439360 0 5731.38748205 0 461.67829022 0 414.84446656 0 11575
0.10350000 0.10349800 16064.93740021 0 482.77086649 0 5977.43092330 0 -628.90412783 0 1297.33294472 0 11364
0.10450000 0.10450100 15931.47484335 0 6.19872612 0 5743.33869702 0 357.62143416 0 587.64936858 0 12093
0.10550000 0.10551000 15973.21621916 0 -124.84735659 0 6194.63986152 0 240.55994262 0 -481.90198680 0 12067
0.10650000 0.10649700 15381.80683138 0 123.54678319 0 5235.60978316 0 -384.31833936 0 2.52764901 0 12054
0.10750000 0.10749900 15743.74849794 0 270.38086026 0 6043.73380340 0 644.39017825 0 -129.56193514 0 12807
0.10850000 0.10850100 15309.74803525 0 128.73479682 0 5789.07845725 0 -262.28083644 0 204.21638577 0 12736
0.10950000 0.10950300 15391.80279243 0 157.55831528 0 5565.46551321 0 484.00992628 0 -248.28209714 0 12933
0.11050000 0.11050200 15282.17675807 0 -252.36176740 0 4743.17139434 0 862.12967133 0 406.02495324 0 13428
0.11150000 0.11150900 15027.99374854 0 29.18930472 0 4919.64953743 0 532.15420945 0 1016.25091385 0 13453
0.11250000 0.11250000 14901.01208950 0 337.83931740 0 4190.85610038 0 -13.11349259 0 1120.79987876 0 13668
0.11350000 0.11349100 14865.75161151 0 305.19646306 0 4455.80399104 0 62.97982720 0 311.50710001 0 13791
0.11450000 0.11448600 14410.00169511 0 99.74694917 0 4811.70414268 0 -125.19776445 0 896.35759950 0 14205
0.11550000 0.11549300 14422.19457067 0 240.18976252 0 4433.15380238 0 -108.98750116 0 354.48533869 0 14776
0.11650000 0.11649800 14122.09604775 0 -64.47900167 0 4281.06141042 0 152.62843910 0 752.58711972 0 14553
0.11750000 0.11747300 14017.08353387 0 -17.81401089 0 4693.54309542 0 376.07441764 0 441.31618803 0 14568
0.11850000 0.11849100 14236.00606542 0 313.31406219 0 4048.43013229 0 -29.56113250 0 -15.17694455 0 16015
0.11950000 0.11950300 13672.71718345 0 28.75827009 0 4637.69752842 0 -353.98554063 0 846.47336003 0 15270
0.12050000 0.12050700 13568.25389820 0 296.88553544 0 4723.20144139 0 192.11687908 0 533.59758228 0 15999
0.12150000 0.12150000 13393.37950271 0 181.76941170 0 4658.82086149 0 145.22154181 0 1138.16648802 0 15670
0.12250000 0.12250700 13262.11386036 0 89.93036619 0 4905.71011483 0 59.02208570 0 662.02700799 0 16887
0.12350000 0.12352200 13365.25899690 0 41.48708295 0 4589.36540906 0 840.29453796 0 1100.89583325 0 16407
0.12450000 0.12449800 13446.10545110 0 -358.84182017 0 4354.72395415 0 689.22700662 0 1419.84388272 0 16306
0.12550000 0.12549900 13387.00845061 0 106.85891068 0 4200.86304600 0 200.38386840 0 1366.75544343 0 17523
0.12650000 0.12650100 13184.45293221 0 368.58733297 0 3741.92760355 0 -635.42896394 0 1300.97982282 0 17154
0.12750000 0.12750600 13005.18470768 0 130.97235426 0 4176.37843372 0 240.98065175 0 1664.62409812 0 18007
0.12850000 0.12850300 13069.88384019 0 -21.95497506 0 4329.66814409 0 -186.72565085 0 399.24417658 0 17496
0.12950000 0.12949900 12895.00944469 0 99.07886746 0 4129.19969448 0 111.79658590 0 1201.21793463 0 18405
0.13050000 0.13049000 12768.90655146 0 -177.23827551 0 3547.57756087 0 412.04449901 0 785.40902260 0 18100
0.13150000 0.13148800 13227.07307382 0 -22.13336452 0 3523.77399209 0 604.21410404 0 783.99970193 0 19059
0.13250000 0.13249300 12854.58621759 0 353.65600346 0 3589.25302924 0 -325.57394365 0 650.39873946 0 18957
0.13350000 0.13349100 12405.53689047 0 353.84274119 0 3867.78883619 0 -420.72450827 0 1094.10407202 0 19468
0.13450000 0.13450700 12069.95819811 0 49.92026886 0 3932.22433895 0 394.03089844 0 1040.21815277 0 19953
0.13550000 0.13551000 12030.74327399 0 320.79235921 0 3968.61622791 0 -322.19728604 0 359.23067404 0 19956
0.13650000 0.13649900 11611.68183001 0 160.50767302 0 4123.80626934 0 131.87638458 0 1093.34064423 0 19723
0.13750000 0.13749600 11668.25237881 0 59.40379960 0 4195.12909911 0 217.08041872 0 953.60040413 0 20946
0.13850000 0.13851100 11664.84716131 0 -146.97138422 0 3419.44252171 0 473.44386591 0 716.69393036 0 20955
0.13950000 0.13949800 11676.27111679 0 -25.37469220 0 3282.33308675 0 46.83667965 0 524.05857945 0 20506
0.14050000 0.14048300 11320.48081088 0 439.26976216 0 3119.80535084 0 -159.95734593 0 543.92857280 0 21447
0.14150000 0.14148400 11268.30409112 0 217.40995590 0 3410.98440082 0 -105.53010694 0 332.15699800 0 21771
0.14250000 0.14249400 11057.40029756 0 -83.94992549 0 3525.36675511 0 322.64325969 0 367.40209759 0 22470
0.14350000 0.14350900 10927.26606619 0 17.93780703 0 3176.45279164 0 -95.04071889 0 -164.43355926 0 22519
0.14450000 0.14449900 10732.19104171 0 267.12063912 0 3031.46741814 0 51.54829236 0 264.67657172 0 22218
0.14550000 0.14550500 10440.42980938 0 122.54499017 0 2915.49230082 0 -9.98860139 0 -35.75709051 0 23559
0.14650000 0.14650700 10580.91150812 0 107.15889936 0 3192.98457337 0 401.98482744 0 -60.10538425 0 23044
0.14750000 0.14750500 10476.20656228 0 128.27234632 0 2973.18327602 0 -136.97981700 0 -114.98980115 0 23649
0.14850000 0.14849900 10208.16102215 0 167.66741742 0 3108.87570112 0 -288.32306112 0 -123.81700368 0 23640
0.14950000 0.14949500 9897.46238669 0 147.67439687 0 3167.78596387 0 -230.25201971 0 -613.88162637 0 24457
0.15050000 0.15050000 9885.61003287 0 123.34576552 0 3017.30830408 0 3.88870346 0 -598.64822111 0 24591
0.15150000 0.15149900 9621.23333998 0 35.27871238 0 3249.30247700 0 235.06655787 0 -660.92745228 0 25020
0.15250000 0.15250500 9693.79742645 0 184.22446368 0 3040.88119684 0 72.73291935 0 -703.53001857 0 25297
0.15350000 0.15350100 9552.78846823 0 -7.55297014 0 2844.01568704 0 320.26729664 0 -679.86924923 0 25452
0.15450000 0.15450400 9453.61974696 0 -6.46148808 0 2518.47689401 0 138.53413402 0 -522.24063269 0 26061
0.15550000 0.15549900 9486.36475783 0 86.72232176 0 2705.89567140 0 169.40188143 0 -888.77385059 0 26128
0.15650000 0.15649500 9257.68792583 0 167.06546285 0 2561.00915905 0 5.59388260 0 -66.32331141 0 26331
0.15750000 0.15749700 9177.80811402 0 100.90252620 0 2601.03694154 0 -32.88781031 0 -369.94392768 0 27345
0.15850000 0.15849900 8981.00851165 0 21.83315615 0 2699.19508212 0 37.96147454 0 -278.44573345 0 26980
0.15950000 0.15949700 8941.71669553 0 52.94772691 0 2737.84979304 0 182.03194299 0 -15.15222926 0 27777
0.16050000 0.16050000 8792.27158556 0 163.02423859 0 2652.95003156 0 91.42503698 0 418.38699122 0 28224
0.16150000 0.16150500 9127.89421621 0 -96.46333088 0 2512.18273393 0 226.69851048 0 -102.42103351 0 28075
0.16250000 0.16249700 9012.95164872 0 76.85356207 0 2752.82176547 0 -322.38841760 0 -42.23974587 0 28590
0.16350000 0.16349900 8701.75870749 0 192.34975201 0 2784.50127279 0 -367.73053631 0 -424.86679059 0 29163
0.16450000 0.16449100 8747.84997404 0 76.96582440 0 2860.59140706 0 140.73214700 0 97.07055806 0 28996
0.16550000 0.16550500 8821.51251777 0 -122.28904963 0 2593.88598479 0 320.35517322 0 -299.65914002 0 30777
0.16650000 0.16650700 8930.18289432 0 -4.18675885 0 2562.48109178 0 369.48916638 0 -296.42198648 0 29211
0.16750000 0.16749900 8748.06966549 0 137.80695532 0 2278.79352029 0 29.84651170 0 -252.03442714 0 30922
0.16850000 0.16850800 8585.79457475 0 55.62983000 0 2282.05593835 0 42.12067310 0 128.37669976 0 30867
0.16950000 0.16949900 8636.59822294 0 129.39606809 0 2155.52464678 0 -68.60491698 0 -264.37120060 0 30852
0.17050000 0.17049200 8262.32088137 0 81.87373143 0 2348.46866417 0 -15.16530091 0 -120.61829614 0 31257
0.17150000 0.17149500 8343.11241271 0 189.11699230 0 2431.36923344 0 -121.94523251 0 121.37952702 0 32608
0.17250000 0.17250900 8246.07469852 0 53.08075008 0 2347.42512978 0 164.03811464 0 -270.28090065 0 32361
0.17350000 0.17350400 8195.39188063 0 4.32074867 0 2383.76209588 0 51.45327581 0 -29.64758109 0 32508
0.17450000 0.17449800 8102.71504176 0 82.36089722 0 2390.14413255 0 -112.90712619 0 -418.39907425 0 32791
0.17550000 0.17549800 7919.99766145 0 10.88465691 0 2314.14187486 0 223.12742593 0 209.59662942 0 33633
0.17650000 0.17650100 7912.30846064 0 205.13140067 0 2530.55992385 0 -163.64926077 0 -157.85160337 0 33984
0.17750000 0.17750300 7917.16364172 0 120.72924033 0 2323.80829873 0 139.96322692 0 11.54522517 0 34069
0.17850000 0.17849800 7831.71465161 0 -24.35125957 0 2382.77348434 0 177.14600510 0 -292.48950950 0 34536
