### header ###
fiducial parameters:
Omega_m = 0.31
Omega_nu = 0
Omega_de = 0.69
Omega_k = 0
H_0 = 100
w_de = -1
zeff = 0
beta = 0
fgrowth = 0
b_1 = 2
gamma = 0.55
Lx = 3500 Ly = 3500 Lz = 3500
nx = 700 ny = 700 nz = 700
xoffset = -983.599254 yoffset = -42.9823471 zoffset = 800.977702
bins = 400 dk = 0.001
kx_ny = 0.628318531 ky_ny = 0.628318531 kz_ny = 0.628318531
############################
A(data) = 9.05772428 (not used)
A(ran) = 9.03912256 (used)
Ngal = 501897
weighted Ngal = 0
Nran = 25229228
weighted Nran = 0
SN(data) = 6746.79174
SN(ran) = 134.179547
SN(data+ran) = 6880.97129
############################
13 columns: k_central k_mean P_0(k) sigma^{lin}_{P_0(k)} P^img_1(k) sigma^{lin}_{P_1(k)} P_2(k) sigma^{lin}_{P_2(k)} P^img_3(k) sigma^{lin}_{P_3(k)} P_4(k) sigma^{lin}_{P_4(k)} N_modes
### header ###
0.00050000 0 0 0 0 0 0 0 0 0 0 0 0
0.00150000 0.00179520 15914.88813875 0 18091.37135002 0 18072.58773091 0 16862.19767817 0 -66481.92863406 0 3
0.00250000 0.00253879 29071.98948523 0 15851.17761778 0 9773.63329998 0 1590.21460346 0 17231.16947118 0 6
0.00350000 0.00331552 33106.73284009 0 -4473.62096777 0 -403.69842077 0 18232.30341624 0 14389.02116148 0 7
0.00450000 0.00420575 43966.63052263 0 -10200.19720703 0 -6620.66552452 0 -11889.92105350 0 2066.69240832 0 24
0.00550000 0.00557378 44447.64495597 0 7156.70168191 0 831.78478958 0 -12253.29071449 0 10690.46065048 0 45
0.00650000 0.00659388 52844.25223715 0 -10848.96803283 0 -14103.64196582 0 24493.18025043 0 41253.22140359 0 40
0.00750000 0.00754703 59462.12768023 0 -22999.27837936 0 -25963.46529044 0 6233.65706333 0 -26994.47727293 0 57
0.00850000 0.00846663 77490.22789218 0 -16911.18887188 0 -27744.94327168 0 -1358.89048947 0 1503.15088118 0 75
0.00950000 0.00948925 85595.63415423 0 5581.72268063 0 -11266.32686805 0 -26420.86289273 0 -25805.83667390 0 112
0.01050000 0.01054430 66309.47084454 0 23607.16462602 0 1209.19273433 0 -44206.53358781 0 16863.84536406 0 105
0.01150000 0.01145670 64332.68716280 0 9185.16777765 0 35483.68450096 0 -4749.71819960 0 -16094.81543764 0 144
0.01250000 0.01249090 55446.49748167 0 -1399.53340802 0 38405.14142470 0 -1044.79762107 0 -11352.66560854 0 169
0.01350000 0.01339930 59383.69783200 0 951.33318835 0 38438.09514244 0 19243.54316808 0 -1362.81198188 0 180
0.01450000 0.01448870 75811.45566458 0 -10520.37552863 0 35299.03383587 0 7441.98201642 0 -17701.96825201 0 267
0.01550000 0.01550050 80919.61145208 0 -5255.49185954 0 18344.45590229 0 10899.72774272 0 -9996.18074047 0 238
0.01650000 0.01653350 86423.98077259 0 -4561.20096496 0 11034.33269514 0 -4628.20685771 0 -392.61279012 0 315
0.01750000 0.01747870 96433.45284589 0 -4441.08466378 0 30229.65358958 0 -5819.82427590 0 -29816.19427762 0 297
0.01850000 0.01844180 89864.56859652 0 8824.12684604 0 33411.11534632 0 -22226.40385254 0 -26093.85216698 0 388
0.01950000 0.01947590 82593.11108485 0 4568.26404513 0 29714.91651842 0 -36.17779964 0 -6481.40311333 0 399
0.02050000 0.02045430 85408.01765454 0 434.63097716 0 44968.64323350 0 18148.60097317 0 -13550.12935344 0 462
0.02150000 0.02154770 80979.80690982 0 58.41167300 0 26934.06212373 0 5535.88405925 0 -14019.28044839 0 571
0.02250000 0.02255340 82363.31382644 0 2175.40672315 0 40679.60702339 0 4843.18592769 0 -3133.53606656 0 510
0.02350000 0.02348930 74997.27914485 0 7092.62867005 0 33859.17606191 0 -6502.82302986 0 -8486.69176092 0 555
0.02450000 0.02439640 66282.11925881 0 8719.47682306 0 33049.94259984 0 -197.82226607 0 12173.98210045 0 592
0.02550000 0.02547300 64844.89778227 0 545.76629179 0 38408.10725930 0 9185.51928397 0 4630.51361795 0 837
0.02650000 0.02652900 62193.88103548 0 76.59432615 0 34974.43971609 0 8693.60815463 0 -70.70560664 0 723
0.02750000 0.02749970 63021.12919659 0 -1797.95484011 0 24359.49800211 0 4216.60393851 0 -572.63455632 0 826
0.02850000 0.02848090 58461.21342662 0 2771.84704518 0 25728.83482010 0 4326.85609351 0 8598.97606184 0 831
0.02950000 0.02946900 55040.28798761 0 2157.42497784 0 24753.95400351 0 -3432.76680825 0 4606.39149656 0 996
0.03050000 0.03053250 54637.92309396 0 2640.07611249 0 22609.65558990 0 4685.89783290 0 3063.88289182 0 1041
0.03150000 0.03150510 54351.55528676 0 -422.79510020 0 18761.43027748 0 5630.32941430 0 -390.71795135 0 1036
0.03250000 0.03246190 54813.56640953 0 -2134.81872747 0 18588.20356787 0 5151.08349715 0 551.87041877 0 1059
0.03350000 0.03345080 54575.75041315 0 1503.44746464 0 14865.64176578 0 1418.04241282 0 -644.88228711 0 1302
0.03450000 0.03451200 52994.41134434 0 1331.80253348 0 15383.56436299 0 -5127.11515978 0 -3763.71001098 0 1339
0.03550000 0.03553350 50096.79094310 0 783.45926096 0 14546.32024084 0 11.29236031 0 343.26569625 0 1365
0.03650000 0.03647120 46520.98303070 0 1413.17624716 0 14842.46431764 0 4543.53777225 0 -2311.99988320 0 1308
0.03750000 0.03744890 48328.05506606 0 1215.48689442 0 14443.61448721 0 478.31222848 0 103.20060863 0 1579
0.03850000 0.03847530 45649.13750492 0 1602.55027846 0 13379.53894125 0 981.74946983 0 -1165.24345943 0 1662
0.03950000 0.03950240 45015.43751270 0 345.70646828 0 13476.20317997 0 2985.93636479 0 2215.23678333 0 1683
0.04050000 0.04050350 45136.59734827 0 1426.97287032 0 12147.72897198 0 -240.54017039 0 1794.43977689 0 1822
0.04150000 0.04152450 43222.97495888 0 -1125.98459702 0 13775.31309136 0 651.00289095 0 -325.63875263 0 1887
0.04250000 0.04250150 41798.27589508 0 1793.39624249 0 11098.81213619 0 -2353.33482983 0 3514.57990484 0 1920
0.04350000 0.04349210 40922.47592317 0 639.74809788 0 14678.02526609 0 169.97417767 0 -2357.41010625 0 2005
0.04450000 0.04448520 41262.33859883 0 1014.03971939 0 18461.55144601 0 -1251.82386052 0 -2272.92775853 0 2151
0.04550000 0.04548030 40664.22862178 0 96.03152734 0 14178.88628800 0 -3.58055325 0 -7073.99883495 0 2274
0.04650000 0.04648670 39805.78427455 0 -425.32704418 0 15099.06393314 0 1079.14637954 0 -4301.85520631 0 2311
0.04750000 0.04749250 39620.14499792 0 1750.39164084 0 14974.05949716 0 -495.21419031 0 -6784.69814687 0 2568
0.04850000 0.04851840 39531.71918864 0 1118.20751964 0 16609.88204597 0 462.40986276 0 -2135.59863212 0 2493
0.04950000 0.04949480 37002.63119751 0 -556.87499004 0 14488.54138907 0 529.72991428 0 -5693.77630553 0 2644
0.05050000 0.05050630 36885.20611662 0 1124.72137118 0 14883.87615627 0 2625.45564638 0 -5924.23263829 0 2829
0.05150000 0.05149060 35652.73707299 0 1242.03660635 0 12080.06400488 0 -458.01603372 0 -762.65997278 0 2784
0.05250000 0.05249300 32882.31802225 0 311.42581417 0 12950.81107340 0 2166.14672847 0 -226.74354722 0 3055
0.05350000 0.05348950 34698.72694430 0 305.37221622 0 12391.25694611 0 2332.32134248 0 772.88990522 0 3009
0.05450000 0.05448610 33992.63861877 0 666.45269228 0 11524.90370662 0 872.95716453 0 -1107.71725282 0 3336
0.05550000 0.05550870 32307.49533907 0 41.03528748 0 9924.68215754 0 -870.57680765 0 -2290.44815180 0 3349
0.05650000 0.05647670 32353.52069819 0 345.16712577 0 9688.15135615 0 1263.48947660 0 -952.87212697 0 3324
0.05750000 0.05747970 33100.36178799 0 -466.12484520 0 10540.41138902 0 776.56973704 0 -2545.00463680 0 3639
0.05850000 0.05849280 31815.71602460 0 1257.62371484 0 10582.50427115 0 -3414.62029435 0 -3665.50793210 0 3846
0.05950000 0.05951020 31438.50580216 0 1168.19830945 0 11037.62806691 0 -1535.86293832 0 -3598.62286966 0 3787
0.06050000 0.06049470 30108.93313691 0 -176.68355460 0 12037.00448036 0 2148.03316828 0 -3204.34262142 0 3930
0.06150000 0.06148310 29940.97902214 0 -409.44225377 0 10251.53909927 0 2808.97490050 0 -3929.67591811 0 4083
0.06250000 0.06249100 30985.28233745 0 53.43741916 0 10068.50316635 0 1069.08341259 0 -1866.95992507 0 4303
0.06350000 0.06350600 31512.21228418 0 90.25320277 0 8174.18067098 0 442.86611122 0 -866.52350037 0 4470
0.06450000 0.06451750 29813.00875157 0 -354.91593393 0 7920.04159974 0 2078.36900897 0 -520.02614286 0 4479
0.06550000 0.06550280 31503.75416329 0 -681.57625181 0 7068.31981092 0 987.23077155 0 -13.17127145 0 4636
0.06650000 0.06648880 31581.52493717 0 307.11107406 0 5019.25764160 0 1104.27908160 0 811.79176902 0 4653
0.06750000 0.06749660 30257.44455821 0 821.58671239 0 6825.28614256 0 -1550.13189811 0 2402.84229845 0 5220
0.06850000 0.06852730 29987.44376416 0 555.37889126 0 6611.88885103 0 302.22843155 0 1241.06996396 0 5029
0.06950000 0.06949320 30001.17447989 0 647.70532226 0 7163.14962602 0 1969.36909525 0 1266.49924948 0 5040
0.07050000 0.07048030 29281.90466726 0 -495.89413536 0 6501.04352911 0 -509.56443593 0 1029.33024442 0 5475
0.07150000 0.07148790 29818.61088359 0 190.90637918 0 6169.23254514 0 452.62919933 0 2408.97168995 0 5509
0.07250000 0.07249820 28926.66358998 0 486.71432805 0 7437.21471192 0 -1412.23157392 0 536.36459612 0 5916
0.07350000 0.07351270 27895.32207032 0 823.80559605 0 8066.81745857 0 -1852.88868759 0 -459.01013754 0 5721
0.07450000 0.07449140 28071.07523162 0 495.40642033 0 8604.32554869 0 213.19737232 0 -2114.29954588 0 6028
0.07550000 0.07549160 27587.53434659 0 208.13677973 0 8911.48715178 0 376.44240082 0 -1495.24198892 0 6183
0.07650000 0.07648840 27385.08867392 0 197.30489271 0 8467.65549663 0 619.27395305 0 -17.88299401 0 6330
0.07750000 0.07749960 26400.87097063 0 474.61042752 0 8464.40406315 0 155.31306864 0 -1494.45109969 0 6583
0.07850000 0.07848650 25674.90056873 0 733.55634773 0 8500.89481327 0 2.67007498 0 -1051.38177388 0 6549
0.07950000 0.07947320 24719.24275415 0 1130.75190152 0 9960.71155561 0 -431.10053553 0 -836.59054008 0 6828
0.08050000 0.08048110 23875.51773418 0 168.80541914 0 9523.43769029 0 1078.18303252 0 1646.74121396 0 7147
0.08150000 0.08149960 23616.28182126 0 -464.52768835 0 7240.05261866 0 2496.05738138 0 401.75854525 0 7386
0.08250000 0.08250610 23931.75874580 0 50.55528700 0 7397.17594487 0 1312.35984001 0 1663.71237860 0 7227
0.08350000 0.08350160 23418.22997762 0 1039.67331797 0 5634.73422791 0 -85.41416902 0 2689.23207479 0 7798
0.08450000 0.08449610 22778.37862475 0 31.07689367 0 6958.01273306 0 -69.16820586 0 2614.05366005 0 7371
0.08550000 0.08548940 22360.85502094 0 57.62100347 0 6421.00993328 0 1113.31938484 0 2436.30130653 0 8256
0.08650000 0.08650700 21817.33836961 0 330.09409527 0 5562.07128028 0 -905.21446037 0 2056.65250898 0 8037
0.08750000 0.08749060 21287.33274256 0 656.14147400 0 6615.73345143 0 -1179.73211066 0 1355.56216397 0 8155
0.08850000 0.08849210 20913.96712052 0 773.59731170 0 7200.72784882 0 48.76414260 0 869.75845699 0 8718
0.08950000 0.08949900 20248.96109645 0 161.45014934 0 7210.21851953 0 -680.20757407 0 -174.63163644 0 8571
0.09050000 0.09049190 19709.61858270 0 421.14082357 0 7640.47324297 0 -77.51703025 0 -1054.50798324 0 8932
0.09150000 0.09150830 19328.12437695 0 387.45773020 0 7376.93137760 0 622.89007434 0 -103.49653302 0 9285
0.09250000 0.09250820 18663.88727296 0 77.32567899 0 7485.87636846 0 -81.87296251 0 -194.32477816 0 9204
0.09350000 0.09350330 18795.59229821 0 -194.59390019 0 6498.41821626 0 1341.72160252 0 -830.20520804 0 9349
0.09450000 0.09448040 18857.10590467 0 175.29620308 0 6037.75819592 0 916.70542175 0 -385.93746536 0 9564
0.09550000 0.09549270 18525.92104134 0 409.04900607 0 5690.62373320 0 -410.58794469 0 -848.64281312 0 10155
0.09650000 0.09649430 17789.29560403 0 631.01536268 0 5795.25178704 0 -116.23874706 0 -689.39507058 0 9913
0.09750000 0.09749140 17409.22939272 0 40.66829291 0 5616.90626661 0 454.41858620 0 -273.49828196 0 10476
0.09850000 0.09850240 17393.63129965 0 -340.03842883 0 5330.51649027 0 518.32243565 0 -1259.12860128 0 10575
0.09950000 0.09950330 17015.32261995 0 104.68319639 0 4251.71063248 0 297.92357755 0 -1411.53954585 0 10882
0.10050000 0.10051200 16823.09259978 0 463.04477105 0 4260.12481508 0 229.93566402 0 -572.91246601 0 10875
0.10150000 0.10150300 16913.38578640 0 242.19225010 0 4509.97990301 0 -77.57349095 0 -368.53680393 0 11118
0.10250000 0.10250800 16200.37718014 0 390.94093817 0 4492.07504970 0 396.43981520 0 -775.08791820 0 11575
0.10350000 0.10349800 16286.05684628 0 -50.62251259 0 4371.87087195 0 -15.99035215 0 -35.98930438 0 11364
0.10450000 0.10450100 16305.38969402 0 37.74727537 0 4536.76029097 0 -232.58624138 0 -970.87693989 0 12093
0.10550000 0.10551000 15402.67751929 0 517.54033408 0 5211.92704468 0 -548.33887869 0 -360.90142753 0 12067
0.10650000 0.10649700 15465.94865735 0 308.30619556 0 5342.03930690 0 -384.77419912 0 -240.70493897 0 12054
0.10750000 0.10749900 14957.14325539 0 142.08984017 0 5749.86353313 0 454.98868552 0 -353.89327022 0 12807
0.10850000 0.10850100 15053.14841975 0 307.97555992 0 5827.63430701 0 -10.45272155 0 -350.63854137 0 12736
0.10950000 0.10950300 14810.27951997 0 -112.22718115 0 5867.69504321 0 198.08040353 0 -693.27152624 0 12933
0.11050000 0.11050200 14756.89449723 0 38.47829868 0 5517.62769962 0 700.14017948 0 708.12047146 0 13428
0.11150000 0.11150900 14815.66196054 0 63.64164770 0 4892.56158145 0 384.82143278 0 -454.55589336 0 13453
0.11250000 0.11250000 14516.66189487 0 121.03790682 0 4795.29319124 0 67.32752103 0 134.77741020 0 13668
0.11350000 0.11349100 14650.78352609 0 224.64878923 0 4493.45910585 0 -206.55170591 0 -355.05104417 0 13791
0.11450000 0.11448600 14555.76697326 0 -24.92772994 0 4527.97263290 0 37.42531755 0 -561.75104181 0 14205
0.11550000 0.11549300 14230.62362486 0 188.00095973 0 4439.09645615 0 16.35130521 0 -1043.28284852 0 14776
0.11650000 0.11649800 13779.37738321 0 206.52644139 0 4545.99831651 0 -136.12411880 0 -621.26325914 0 14553
0.11750000 0.11747300 13531.12604288 0 214.42215216 0 4297.50531557 0 395.61816918 0 -951.59901501 0 14568
0.11850000 0.11849100 13796.07393354 0 47.96831031 0 4697.15701980 0 326.31650076 0 -416.97876902 0 16015
0.11950000 0.11950300 13186.21046382 0 3.53893270 0 3877.68593609 0 382.27850423 0 -48.70559483 0 15270
0.12050000 0.12050700 13442.91992505 0 310.89306240 0 4150.52074986 0 76.83203230 0 -51.15834004 0 15999
0.12150000 0.12150000 13290.45405762 0 -67.90816554 0 3953.06207314 0 702.22175598 0 889.11766771 0 15670
0.12250000 0.12250700 13060.21741631 0 30.32796551 0 3789.47981826 0 398.69055413 0 375.48784146 0 16887
0.12350000 0.12352200 13029.46061309 0 237.11298374 0 4045.84875773 0 -89.94541505 0 1443.94403496 0 16407
0.12450000 0.12449800 13025.61601268 0 109.81749546 0 3763.50130410 0 -69.63658803 0 1025.67677558 0 16306
0.12550000 0.12549900 12823.82941436 0 2.79110300 0 3938.28782302 0 364.35497715 0 1089.71683373 0 17523
0.12650000 0.12650100 12846.56747961 0 -153.37758695 0 3140.84080733 0 120.99287007 0 981.00581427 0 17154
0.12750000 0.12750600 12839.86689033 0 -24.65366486 0 3588.09964912 0 17.82587423 0 943.37047169 0 18007
0.12850000 0.12850300 12847.88562832 0 409.83220610 0 3394.93594028 0 -221.09308309 0 188.39530589 0 17496
0.12950000 0.12949900 12557.89291217 0 54.46985913 0 3619.03220551 0 -158.79627661 0 884.50963951 0 18405
0.13050000 0.13049000 12650.27316758 0 -74.08380209 0 3335.13592715 0 466.36321043 0 438.63155849 0 18100
0.13150000 0.13148800 12584.36573209 0 57.03277961 0 3256.92577037 0 381.54253787 0 -212.18679164 0 19059
0.13250000 0.13249300 12523.18166281 0 208.99797022 0 2794.48624927 0 16.61120019 0 625.45607050 0 18957
0.13350000 0.13349100 12361.92813732 0 20.39318853 0 3093.25563891 0 -38.76115142 0 34.70015494 0 19468
0.13450000 0.13450700 12152.12280101 0 273.48619893 0 3005.86237945 0 -473.10773799 0 -239.85473306 0 19953
0.13550000 0.13551000 11728.77737373 0 314.60365102 0 3099.13238524 0 -22.56121362 0 289.74446481 0 19956
0.13650000 0.13649900 11655.94965751 0 -10.61490876 0 3011.01414399 0 217.71642548 0 -674.15836995 0 19723
0.13750000 0.13749600 11467.12485484 0 89.34994137 0 2834.99735295 0 79.97131330 0 -611.75171774 0 20946
0.13850000 0.13851100 11150.54947305 0 188.36015525 0 3224.24666694 0 -324.28215792 0 -547.34038104 0 20955
0.13950000 0.13949800 11101.22874216 0 116.03333555 0 2845.37777404 0 330.98274719 0 91.97371638 0 20506
0.14050000 0.14048300 10952.14612308 0 -83.37180744 0 2594.51210542 0 673.61133823 0 -637.58853091 0 21447
0.14150000 0.14148400 11323.66633693 0 238.85953078 0 2643.82185174 0 284.66190307 0 -414.45671115 0 21771
0.14250000 0.14249400 10758.38924732 0 164.49397441 0 2241.47892723 0 -192.16740811 0 381.75014629 0 22470
0.14350000 0.14350900 10731.27932219 0 -14.76963660 0 2597.79649262 0 390.55867504 0 593.98966388 0 22519
0.14450000 0.14449900 10578.26422613 0 102.53516322 0 2401.74384119 0 -177.11524830 0 95.48680238 0 22218
0.14550000 0.14550500 10189.11377329 0 285.97675641 0 2515.21447596 0 -371.58721974 0 552.98205752 0 23559
0.14650000 0.14650700 10405.97120519 0 -18.82733771 0 2844.32325507 0 305.36782239 0 332.40854471 0 23044
0.14750000 0.14750500 10138.59572399 0 110.19613368 0 2812.99525407 0 89.76416960 0 220.58559583 0 23649
0.14850000 0.14849900 10256.19655805 0 139.60293294 0 2815.97207324 0 -344.51574061 0 107.79666364 0 23640
0.14950000 0.14949500 9933.25012416 0 72.00486188 0 2803.72427481 0 -314.02256713 0 79.39286571 0 24457
0.15050000 0.15050000 9971.11394584 0 48.59673771 0 3119.23415306 0 3.63297163 0 -58.91828149 0 24591
0.15150000 0.15149900 9787.52878429 0 120.02622768 0 2906.41904387 0 240.72471121 0 -207.79515952 0 25020
0.15250000 0.15250500 9876.59169878 0 79.68681287 0 2914.31695156 0 21.19088820 0 -235.15223754 0 25297
0.15350000 0.15350100 9759.82569224 0 -63.68910106 0 2865.38068071 0 326.26047944 0 -247.22867663 0 25452
0.15450000 0.15450400 9718.69945250 0 194.87180988 0 2693.77968784 0 -56.01978232 0 -153.40065456 0 26061
0.15550000 0.15549900 9709.25272008 0 -16.58956059 0 2511.62252072 0 160.56369434 0 19.87922038 0 26128
0.15650000 0.15649500 9391.46903530 0 38.31528762 0 2445.84690011 0 310.88647165 0 232.86744644 0 26331
0.15750000 0.15749700 9422.45651455 0 98.93002650 0 2284.54943632 0 177.55023738 0 62.42422752 0 27345
0.15850000 0.15849900 9416.86536711 0 171.90526553 0 2331.73916013 0 58.77295560 0 423.41572855 0 26980
0.15950000 0.15949700 9085.91117980 0 221.69943149 0 2384.50904681 0 -4.20141227 0 403.18104740 0 27777
0.16050000 0.16050000 8906.86264673 0 159.16535825 0 2512.00698076 0 -336.27072043 0 557.20233030 0 28224
0.16150000 0.16150500 8721.38813869 0 210.79175092 0 2843.55433499 0 -6.78731248 0 312.77581814 0 28075
0.16250000 0.16249700 8620.06644120 0 -8.32695411 0 2693.62590382 0 39.84774534 0 425.69173199 0 28590
0.16350000 0.16349900 8623.36181298 0 -76.79699152 0 2713.02465900 0 187.62089352 0 296.50876460 0 29163
0.16450000 0.16449100 8524.19309171 0 80.71947254 0 2568.21503866 0 6.58633874 0 392.76108185 0 28996
0.16550000 0.16550500 8535.03486485 0 162.65405850 0 2606.21067522 0 77.61292557 0 257.94852101 0 30777
0.16650000 0.16650700 8492.34881580 0 70.51139939 0 2788.09322802 0 -186.47410414 0 68.05129452 0 29211
0.16750000 0.16749900 8360.39114538 0 101.88806205 0 2670.63519341 0 -47.48553835 0 -79.50479850 0 30922
0.16850000 0.16850800 8372.69386667 0 -69.05034140 0 2561.55838768 0 480.89250458 0 302.90288430 0 30867
0.16950000 0.16949900 8421.59718380 0 -44.36570004 0 2437.15810320 0 254.19399410 0 307.96787072 0 30852
0.17050000 0.17049200 8393.74030774 0 13.07779273 0 2104.19373911 0 61.06016330 0 247.82953275 0 31257
0.17150000 0.17149500 8193.38170385 0 242.15709947 0 2145.47376287 0 -32.39921652 0 505.88899795 0 32608
0.17250000 0.17250900 8194.52409940 0 14.55367990 0 2354.63100939 0 -67.40089798 0 289.53356101 0 32361
0.17350000 0.17350400 8182.64977644 0 133.79758633 0 2363.83608121 0 -302.55577181 0 -51.15174929 0 32508
0.17450000 0.17449800 7718.49666201 0 194.87510525 0 2594.84164260 0 -343.82261408 0 -32.07484209 0 32791
0.17550000 0.17549800 7642.73606492 0 96.90513039 0 2530.57090843 0 115.57418041 0 193.87221377 0 33633
0.17650000 0.17650100 7693.77038913 0 -76.76535595 0 2780.12941290 0 374.55854662 0 -277.20337829 0 33984
0.17750000 0.17750300 7855.72692727 0 23.62144457 0 2380.17014064 0 236.04638174 0 -235.13466222 0 34069
0.17850000 0.17849800 7906.69534405 0 52.63906042 0 2339.93365128 0 27.76449581 0 -67.93540728 0 34536
