### header ###
fiducial parameters:
Omega_m = 0.31
Omega_nu = 0
Omega_de = 0.69
Omega_k = 0
H_0 = 100
w_de = -1
zeff = 0
beta = 0
fgrowth = 0
b_1 = 2
gamma = 0.55
Lx = 3500 Ly = 3500 Lz = 3500
nx = 700 ny = 700 nz = 700
xoffset = -983.599254 yoffset = -42.9823471 zoffset = 800.977702
bins = 400 dk = 0.001
kx_ny = 0.628318531 ky_ny = 0.628318531 kz_ny = 0.628318531
############################
A(data) = 9.00999171 (not used)
A(ran) = 8.99507647 (used)
Ngal = 499979
weighted Ngal = 0
Nran = 25229228
weighted Nran = 0
SN(data) = 6761.29249
SN(ran) = 133.525713
SN(data+ran) = 6894.81821
############################
13 columns: k_central k_mean P_0(k) sigma^{lin}_{P_0(k)} P^img_1(k) sigma^{lin}_{P_1(k)} P_2(k) sigma^{lin}_{P_2(k)} P^img_3(k) sigma^{lin}_{P_3(k)} P_4(k) sigma^{lin}_{P_4(k)} N_modes
### header ###
0.00050000 0 0 0 0 0 0 0 0 0 0 0 0
0.00150000 0.00179520 68472.44303153 0 -47108.87735525 0 -45489.31197386 0 33480.86738221 0 -66063.19672726 0 3
0.00250000 0.00253879 87282.09558264 0 -41449.73540707 0 -45967.79995550 0 -42682.86352505 0 -53427.97242412 0 6
0.00350000 0.00331552 119526.42962937 0 -26520.49296604 0 -35179.63153191 0 -52740.33818053 0 4873.25070285 0 7
0.00450000 0.00420575 102927.53215598 0 14128.02771695 0 -15373.67824767 0 -58017.98592296 0 33658.26822940 0 24
0.00550000 0.00557378 72258.27597169 0 10654.34337583 0 -8804.77202916 0 -8244.74556524 0 3784.38297658 0 45
0.00650000 0.00659388 69821.78792742 0 -8188.49356905 0 33244.69907171 0 2871.58696421 0 -6179.65690452 0 40
0.00750000 0.00754703 56655.34969425 0 19385.46384583 0 23354.18991947 0 4261.82742383 0 -36897.39899218 0 57
0.00850000 0.00846663 55433.86522320 0 19311.97705526 0 54949.88495527 0 -31276.92273949 0 22483.55269667 0 75
0.00950000 0.00948925 45724.60151855 0 -549.29673342 0 32803.00940821 0 34375.78051041 0 -9123.98370837 0 112
0.01050000 0.01054430 47170.83034461 0 -9885.70889402 0 48018.83934789 0 28519.02610149 0 27757.90506733 0 105
0.01150000 0.01145670 58650.80714937 0 -5437.64902665 0 41817.05951419 0 13740.38215055 0 15023.05069087 0 144
0.01250000 0.01249090 68249.23651668 0 1313.32648240 0 31270.88122457 0 24045.55891774 0 36665.95404789 0 169
0.01350000 0.01339930 67501.07727816 0 -7534.45014841 0 20072.32916934 0 -1166.52865442 0 21126.18906279 0 180
0.01450000 0.01448870 80670.92072884 0 -3025.26113463 0 21030.51343561 0 21790.09662961 0 38903.73117417 0 267
0.01550000 0.01550050 92563.80761693 0 -8366.28986085 0 38601.32589100 0 4457.80318325 0 50386.01473917 0 238
0.01650000 0.01653350 88045.52337705 0 2982.95954562 0 23157.67591599 0 -5426.96103753 0 30339.49931540 0 315
0.01750000 0.01747870 92398.16026240 0 143.76498749 0 25774.20110486 0 7907.38737212 0 36722.74428814 0 297
0.01850000 0.01844180 89510.86535940 0 -1419.37154610 0 19618.77616746 0 1558.30442011 0 11540.72149114 0 388
0.01950000 0.01947590 90208.60540976 0 6624.56504778 0 37484.74408811 0 3903.66445024 0 19702.91799343 0 399
0.02050000 0.02045430 87690.39214549 0 8261.92543676 0 37154.98721922 0 -118.98269329 0 27586.32604361 0 462
0.02150000 0.02154770 75221.36442551 0 628.89863554 0 35270.69363861 0 2703.09460539 0 12334.79624304 0 571
0.02250000 0.02255340 70929.03284362 0 1395.07367155 0 29830.80375915 0 6627.81648127 0 13822.76644491 0 510
0.02350000 0.02348930 69291.23307174 0 747.68250807 0 27896.09099040 0 7398.62590845 0 14278.95574421 0 555
0.02450000 0.02439640 65696.31200305 0 3284.95839960 0 20858.38518326 0 7748.17697713 0 16342.95693225 0 592
0.02550000 0.02547300 68501.66199460 0 -1784.57563071 0 18800.75504732 0 1161.56362761 0 4728.81455798 0 837
0.02650000 0.02652900 70989.99722145 0 2813.24789924 0 20578.93765679 0 -2232.38370113 0 4900.55835029 0 723
0.02750000 0.02749970 66831.45773360 0 410.18481088 0 18476.60031045 0 -5961.16277131 0 -7918.88821962 0 826
0.02850000 0.02848090 64729.77946161 0 -133.64050694 0 20809.17429810 0 -2312.36237410 0 2997.64591916 0 831
0.02950000 0.02946900 64091.46594891 0 4166.08588921 0 28725.64591174 0 -326.98985506 0 -4079.53844184 0 996
0.03050000 0.03053250 58468.57309025 0 4397.75052495 0 30896.30729954 0 3145.53121982 0 10792.44142232 0 1041
0.03150000 0.03150510 58566.44563195 0 4935.30255336 0 36938.04191073 0 1176.56855376 0 4710.49229091 0 1036
0.03250000 0.03246190 56151.70704139 0 -2721.99905480 0 34735.96464535 0 7229.46349069 0 8607.50009017 0 1059
0.03350000 0.03345080 54611.66996549 0 166.79414390 0 31525.83315418 0 6860.28299081 0 16718.51946880 0 1302
0.03450000 0.03451200 53558.68883784 0 1119.63551407 0 26840.25387388 0 3428.80137755 0 12747.70632637 0 1339
0.03550000 0.03553350 54321.89694079 0 424.49661049 0 27631.69232837 0 315.28908835 0 17438.33851006 0 1365
0.03650000 0.03647120 53884.49126060 0 750.82080045 0 25772.66326470 0 5846.93420103 0 10138.65064685 0 1308
0.03750000 0.03744890 51728.10981716 0 504.77516229 0 25654.57910945 0 1229.87668450 0 14902.33023821 0 1579
0.03850000 0.03847530 48866.84835117 0 2380.08226406 0 22378.97956570 0 964.64649032 0 9179.20315474 0 1662
0.03950000 0.03950240 48020.70672523 0 -149.69775514 0 21997.48535995 0 8305.13874529 0 16533.31957508 0 1683
0.04050000 0.04050350 47769.16001312 0 -523.55658449 0 17036.74253649 0 4441.83161472 0 13703.69367813 0 1822
0.04150000 0.04152450 47282.43360204 0 2516.42277894 0 15543.17020260 0 251.22925797 0 9721.88497855 0 1887
0.04250000 0.04250150 43575.57973874 0 1971.32434917 0 18873.14338063 0 -1695.47976250 0 12242.30614191 0 1920
0.04350000 0.04349210 43634.45704777 0 587.11661681 0 14484.25740576 0 1116.61475661 0 10127.30358338 0 2005
0.04450000 0.04448520 41414.69462054 0 379.41592462 0 14989.87728168 0 750.39679595 0 4874.73362015 0 2151
0.04550000 0.04548030 40910.94212195 0 1123.07368529 0 14628.70453520 0 -1217.25541060 0 5707.70474356 0 2274
0.04650000 0.04648670 38959.86234006 0 -211.79574086 0 12954.65567381 0 814.48738313 0 2680.92773792 0 2311
0.04750000 0.04749250 38418.43275752 0 1328.10073252 0 13800.35791684 0 -1305.58235873 0 -1473.17398260 0 2568
0.04850000 0.04851840 36551.71449305 0 1746.15159582 0 13575.06433320 0 -608.08067359 0 -2085.26732055 0 2493
0.04950000 0.04949480 36979.12421219 0 658.44933270 0 15026.89529128 0 -1418.83330204 0 -3760.61236151 0 2644
0.05050000 0.05050630 34565.04469599 0 -78.85945486 0 12587.88079532 0 4155.92515957 0 -2857.96609421 0 2829
0.05150000 0.05149060 35665.47917719 0 -910.18388100 0 11687.36553510 0 316.68303061 0 -3573.30342986 0 2784
0.05250000 0.05249300 34785.28537624 0 962.84392196 0 12771.21331170 0 316.67094758 0 -4985.68878779 0 3055
0.05350000 0.05348950 36480.97384562 0 601.81836876 0 13068.56569148 0 -804.96266025 0 -3617.71405680 0 3009
0.05450000 0.05448610 33886.19811046 0 398.86411037 0 12398.06738111 0 -1385.68186199 0 -2067.34049810 0 3336
0.05550000 0.05550870 34241.65887919 0 -157.48252173 0 15770.22131786 0 2998.14022492 0 -512.05354008 0 3349
0.05650000 0.05647670 35870.12176438 0 -874.96404594 0 11629.91622050 0 2871.70779451 0 1975.42159474 0 3324
0.05750000 0.05747970 35075.16824666 0 107.97296603 0 12290.96779844 0 2212.50162476 0 1122.65627153 0 3639
0.05850000 0.05849280 35488.18817572 0 349.63455144 0 12014.92548947 0 1455.34602130 0 4962.33558648 0 3846
0.05950000 0.05951020 35417.66721975 0 650.19442641 0 12062.26899730 0 -118.12040434 0 4667.32292067 0 3787
0.06050000 0.06049470 33983.19188635 0 1304.13239515 0 11677.36957405 0 -2526.55055486 0 4782.69388649 0 3930
0.06150000 0.06148310 32358.35391012 0 462.23850342 0 13755.76055216 0 -750.90538166 0 4126.84899595 0 4083
0.06250000 0.06249100 32142.50705890 0 651.53564272 0 14112.31977815 0 1785.76196455 0 2214.95118445 0 4303
0.06350000 0.06350600 31918.97100687 0 265.95078214 0 12624.23973056 0 812.21028124 0 -302.98417014 0 4470
0.06450000 0.06451750 31643.36808080 0 -48.61266534 0 11590.70129638 0 753.14952984 0 -240.50282284 0 4479
0.06550000 0.06550280 31289.11561505 0 -206.97790732 0 11398.91065911 0 -987.47023523 0 -2119.14374239 0 4636
0.06650000 0.06648880 29753.14283100 0 1190.00268603 0 10798.76853613 0 -499.33670040 0 -1561.03957868 0 4653
0.06750000 0.06749660 29788.51315472 0 711.17967492 0 11558.73619017 0 528.92474511 0 -3197.96058475 0 5220
0.06850000 0.06852730 28268.13846373 0 387.44454872 0 11628.70791751 0 -64.01567240 0 -2470.79286444 0 5029
0.06950000 0.06949320 28952.36748982 0 615.91377229 0 11982.96038326 0 375.82287093 0 -3127.64833566 0 5040
0.07050000 0.07048030 27991.76661759 0 -157.70441009 0 9840.00208751 0 2098.19616248 0 -2202.46172542 0 5475
0.07150000 0.07148790 28542.53308681 0 409.81023695 0 10482.43481493 0 1228.15210660 0 1118.29539622 0 5509
0.07250000 0.07249820 27313.13972351 0 294.37226524 0 10247.94714404 0 829.11773535 0 1594.09215758 0 5916
0.07350000 0.07351270 26718.98419259 0 463.45998789 0 10053.28953332 0 918.01368434 0 3184.64728278 0 5721
0.07450000 0.07449140 25715.76317873 0 617.13525677 0 9549.41620445 0 1050.07900357 0 3282.76148508 0 6028
0.07550000 0.07549160 25211.46145152 0 325.54648222 0 10282.66937797 0 -550.53359629 0 3798.67390551 0 6183
0.07650000 0.07648840 25610.20143622 0 478.73842990 0 10384.47439665 0 538.58018441 0 3167.92876331 0 6330
0.07750000 0.07749960 25231.45337362 0 -532.38159010 0 9190.23166561 0 -111.22209276 0 1738.49534873 0 6583
0.07850000 0.07848650 25253.97174741 0 66.59616819 0 8815.24032683 0 1006.76463697 0 2116.52941412 0 6549
0.07950000 0.07947320 24790.20309303 0 170.16750614 0 7115.28984328 0 535.60995598 0 1166.21010182 0 6828
0.08050000 0.08048110 24825.90295392 0 474.51376328 0 7714.59713875 0 558.96535420 0 1391.70140777 0 7147
0.08150000 0.08149960 23309.37286334 0 926.87603750 0 7432.63414516 0 -473.39443534 0 673.79258368 0 7386
0.08250000 0.08250610 22370.52144481 0 587.78228191 0 8016.23350183 0 858.43555957 0 2658.44231785 0 7227
0.08350000 0.08350160 21872.48092397 0 687.10918102 0 7804.39601960 0 325.57833748 0 2065.55001277 0 7798
0.08450000 0.08449610 21211.31950030 0 690.59458590 0 8535.43030946 0 228.03313605 0 1994.61164304 0 7371
0.08550000 0.08548940 20907.81575988 0 134.66756448 0 7742.36613823 0 -492.65478490 0 1999.24713267 0 8256
0.08650000 0.08650700 19820.45292005 0 137.76631240 0 8213.12098078 0 167.94752403 0 1755.85097341 0 8037
0.08750000 0.08749060 20666.04531736 0 -185.17902303 0 8064.36789888 0 1126.23724219 0 1611.25005995 0 8155
0.08850000 0.08849210 20235.45007217 0 -96.08150714 0 6952.82801480 0 339.87146332 0 2160.87413363 0 8718
0.08950000 0.08949900 20042.34128619 0 418.99004426 0 6723.81066106 0 402.35390908 0 1707.65066892 0 8571
0.09050000 0.09049190 20038.05730289 0 229.85657509 0 6812.15957833 0 -368.32040785 0 1068.48475339 0 8932
0.09150000 0.09150830 19744.98890642 0 180.72477885 0 7207.77994442 0 -459.98117376 0 677.38124354 0 9285
0.09250000 0.09250820 19357.56303147 0 627.55082849 0 7365.00213177 0 856.85597804 0 1290.29183369 0 9204
0.09350000 0.09350330 19164.12470831 0 175.88277926 0 7627.67621591 0 -90.32932586 0 577.15360948 0 9349
0.09450000 0.09448040 18408.16642327 0 190.78335196 0 6936.42804794 0 -661.99075890 0 364.66913593 0 9564
0.09550000 0.09549270 17934.18211638 0 232.94214153 0 7300.78632046 0 336.06530893 0 212.08243820 0 10155
0.09650000 0.09649430 17914.62957719 0 62.67401670 0 6918.34744147 0 19.43247782 0 301.94393112 0 9913
0.09750000 0.09749140 18014.25965050 0 140.42677588 0 6888.10691316 0 1463.66134275 0 789.31953043 0 10476
0.09850000 0.09850240 17496.55674474 0 149.17598794 0 6137.14660863 0 707.38999738 0 1134.50862535 0 10575
0.09950000 0.09950330 17387.15040183 0 -35.73545090 0 5580.23976333 0 770.73033826 0 1515.72821678 0 10882
0.10050000 0.10051200 17399.34327740 0 1.94912453 0 5328.50631348 0 152.76574626 0 2261.97613967 0 10875
0.10150000 0.10150300 17119.34652230 0 330.83555392 0 5341.58893943 0 329.15820969 0 1565.96066720 0 11118
0.10250000 0.10250800 16688.31189421 0 518.32023874 0 5511.20172466 0 -901.18422069 0 1682.27630626 0 11575
0.10350000 0.10349800 16286.16669200 0 283.06914005 0 5442.28451628 0 60.48116648 0 1494.51700713 0 11364
0.10450000 0.10450100 16440.82947395 0 307.12974783 0 6121.95494475 0 132.31027520 0 896.21370160 0 12093
0.10550000 0.10551000 15990.46199811 0 1.22679002 0 5505.53368520 0 336.44867051 0 811.78188291 0 12067
0.10650000 0.10649700 15744.95680092 0 -211.51233888 0 5707.86951215 0 -171.38679370 0 186.04460735 0 12054
0.10750000 0.10749900 15309.30865234 0 436.31381367 0 5252.28436434 0 -120.34807566 0 -195.69125899 0 12807
0.10850000 0.10850100 15467.59634324 0 225.01677241 0 5202.83181858 0 395.29412428 0 1021.07863350 0 12736
0.10950000 0.10950300 15187.05035951 0 -277.33079933 0 4670.57435415 0 671.80767142 0 197.34553562 0 12933
0.11050000 0.11050200 15186.28143943 0 222.23547864 0 5055.44082368 0 426.18384084 0 9.30575642 0 13428
0.11150000 0.11150900 14940.11716788 0 381.05042902 0 4446.40119691 0 -178.46854764 0 621.44889842 0 13453
0.11250000 0.11250000 15012.72519265 0 -102.35710330 0 5162.25480747 0 -203.29697705 0 205.99039425 0 13668
0.11350000 0.11349100 14470.63653576 0 217.47696179 0 4769.62224512 0 -405.57788113 0 -428.76301848 0 13791
0.11450000 0.11448600 14206.34771945 0 413.01333831 0 5255.65662812 0 -165.31012815 0 471.75553711 0 14205
0.11550000 0.11549300 14150.87562792 0 41.92723478 0 4936.07147344 0 433.38972045 0 -48.18547531 0 14776
0.11650000 0.11649800 14255.88814179 0 -17.44866401 0 5199.11903305 0 375.31318676 0 -371.93213532 0 14553
0.11750000 0.11747300 13965.67573419 0 214.44631822 0 5030.68159709 0 26.75116899 0 166.84357448 0 14568
0.11850000 0.11849100 13777.83954305 0 164.14686191 0 4797.68782806 0 -369.81211281 0 -582.68763715 0 16015
0.11950000 0.11950300 13681.94422442 0 251.23914408 0 5221.89005201 0 786.93477973 0 5.07993642 0 15270
0.12050000 0.12050700 13428.31044351 0 -143.27178018 0 4447.74131477 0 135.81545231 0 359.02086871 0 15999
0.12150000 0.12150000 13407.43975561 0 3.98216021 0 4381.29563522 0 291.63381129 0 -453.90670512 0 15670
0.12250000 0.12250700 13457.09002368 0 242.35482178 0 4120.89535761 0 439.39169091 0 359.03405019 0 16887
0.12350000 0.12352200 13034.29382502 0 -131.51279523 0 3480.04440864 0 679.27827923 0 1291.89558129 0 16407
0.12450000 0.12449800 13006.61270212 0 80.34358047 0 3776.55097633 0 213.98496617 0 957.66359753 0 16306
0.12550000 0.12549900 13234.87212036 0 322.48288493 0 3170.64195274 0 360.06330464 0 1096.31197111 0 17523
0.12650000 0.12650100 12754.40691565 0 363.12800039 0 3660.77358132 0 -203.31455237 0 1412.22058935 0 17154
0.12750000 0.12750600 12455.73638716 0 -38.33879461 0 3694.89166376 0 -456.76269399 0 1307.23004462 0 18007
0.12850000 0.12850300 12298.65699925 0 160.39672883 0 4012.29088850 0 -31.30053957 0 845.65171400 0 17496
0.12950000 0.12949900 12375.87854450 0 85.91198984 0 4030.61315556 0 43.17189670 0 845.19475578 0 18405
0.13050000 0.13049000 12267.90019602 0 3.16627009 0 3561.52796805 0 -32.17205556 0 313.85670008 0 18100
0.13150000 0.13148800 12481.87966991 0 168.69447496 0 4292.50733505 0 -318.02534538 0 102.31975576 0 19059
0.13250000 0.13249300 12034.91741157 0 43.67114552 0 4023.39629138 0 46.60809069 0 783.66796784 0 18957
0.13350000 0.13349100 11832.80127607 0 -1.43328900 0 4518.02061014 0 108.87018592 0 -88.10538930 0 19468
0.13450000 0.13450700 12075.12094722 0 253.16913348 0 4219.35008166 0 324.99176131 0 549.58452922 0 19953
0.13550000 0.13551000 11911.89019866 0 -113.26632172 0 3778.18767764 0 583.76522372 0 425.17655553 0 19956
0.13650000 0.13649900 11854.11134688 0 53.03889886 0 3239.06485535 0 253.15705045 0 607.84230836 0 19723
0.13750000 0.13749600 11780.29501914 0 191.65552703 0 3689.44331576 0 64.31401339 0 909.25348771 0 20946
0.13850000 0.13851100 11515.67666565 0 142.84338185 0 3414.26878802 0 225.74285266 0 1436.99080052 0 20955
0.13950000 0.13949800 11435.26959436 0 71.27834225 0 3328.66601390 0 470.83722684 0 1240.35596674 0 20506
0.14050000 0.14048300 11299.28058580 0 81.75960172 0 3153.85752584 0 -229.96642082 0 1282.33900315 0 21447
0.14150000 0.14148400 11273.02745733 0 239.15831116 0 3377.32767043 0 112.57539210 0 1244.22253629 0 21771
0.14250000 0.14249400 10993.03070223 0 -20.65593951 0 3224.26863608 0 -105.54032259 0 1408.07940548 0 22470
0.14350000 0.14350900 10971.01761878 0 -22.95819608 0 3289.56093551 0 285.02549243 0 1442.91148514 0 22519
0.14450000 0.14449900 11081.45651151 0 221.88616923 0 3272.61174001 0 -205.83221640 0 1175.90947941 0 22218
0.14550000 0.14550500 10748.81070003 0 103.52047938 0 3224.37848181 0 -337.10115412 0 945.07527735 0 23559
0.14650000 0.14650700 10571.23409968 0 92.56622422 0 3675.22927884 0 244.73408020 0 743.73025885 0 23044
0.14750000 0.14750500 10725.60029817 0 116.18162728 0 3499.50907125 0 -133.51418435 0 341.10393237 0 23649
0.14850000 0.14849900 10419.38336832 0 199.72918787 0 3415.53201387 0 -39.47756525 0 116.19041494 0 23640
0.14950000 0.14949500 10289.89722673 0 208.86066306 0 3796.44403727 0 -257.68379281 0 471.81924763 0 24457
0.15050000 0.15050000 9900.76874303 0 186.60372210 0 3591.15336030 0 181.76721479 0 195.71981888 0 24591
0.15150000 0.15149900 9880.05183914 0 42.04740600 0 3380.24956674 0 537.39055520 0 215.46568655 0 25020
0.15250000 0.15250500 9831.35722889 0 7.99383596 0 3119.25612221 0 411.50735341 0 -62.30229877 0 25297
0.15350000 0.15350100 9560.80720621 0 69.45006999 0 2793.67339090 0 -27.96705133 0 446.88976016 0 25452
0.15450000 0.15450400 9424.53259877 0 87.88031541 0 2679.29103661 0 123.81151139 0 419.86551469 0 26061
0.15550000 0.15549900 9363.06293060 0 96.30734995 0 2517.08185330 0 156.75644148 0 474.55111083 0 26128
0.15650000 0.15649500 9361.51410587 0 90.36480603 0 2230.57124666 0 335.84122364 0 447.57080366 0 26331
0.15750000 0.15749700 9389.61264253 0 -65.15400365 0 2317.47020035 0 -7.06850655 0 134.62252773 0 27345
0.15850000 0.15849900 9282.54601358 0 30.65937007 0 2137.48797860 0 -248.72148004 0 45.87498032 0 26980
0.15950000 0.15949700 9252.65699159 0 148.55316268 0 2503.84544334 0 45.30235455 0 -39.53830993 0 27777
0.16050000 0.16050000 9026.18805868 0 127.56493984 0 2367.64772790 0 -295.87825014 0 -125.20105982 0 28224
0.16150000 0.16150500 8945.39652734 0 165.48258594 0 2878.89170498 0 -145.00624419 0 -279.91217389 0 28075
0.16250000 0.16249700 8844.32747502 0 159.45644942 0 2964.90090829 0 -115.29736919 0 -454.80194779 0 28590
0.16350000 0.16349900 8703.06587163 0 102.10478767 0 2760.35718226 0 201.54164235 0 8.49818162 0 29163
0.16450000 0.16449100 8735.14082356 0 -14.68549478 0 2886.67976694 0 63.38570716 0 76.51534708 0 28996
0.16550000 0.16550500 8630.21618627 0 95.96583959 0 2912.53745080 0 -34.24242780 0 -6.78134785 0 30777
0.16650000 0.16650700 8356.07420835 0 128.26246020 0 3010.80543711 0 -60.19205253 0 64.67892089 0 29211
0.16750000 0.16749900 8328.81049921 0 0.51307730 0 2798.68235599 0 495.70959454 0 348.55916178 0 30922
0.16850000 0.16850800 8492.65638383 0 0.84619875 0 2801.81295918 0 314.33233207 0 426.52326413 0 30867
0.16950000 0.16949900 8388.40180546 0 131.68854839 0 2251.07944367 0 165.73852648 0 724.62149639 0 30852
0.17050000 0.17049200 8254.09343651 0 76.69549407 0 2570.17029258 0 -6.74135302 0 851.46365136 0 31257
0.17150000 0.17149500 8047.05621250 0 50.98346564 0 2491.02644713 0 52.92872360 0 658.80083902 0 32608
0.17250000 0.17250900 8161.93287255 0 71.26922506 0 2512.08387277 0 171.89757633 0 989.06739208 0 32361
0.17350000 0.17350400 8147.09271499 0 -63.85694532 0 2191.52109113 0 40.86887121 0 645.86540635 0 32508
0.17450000 0.17449800 8024.09845580 0 117.69749829 0 2241.69861868 0 -164.06008379 0 473.76241852 0 32791
0.17550000 0.17549800 7969.20854661 0 176.79120341 0 2402.21617781 0 -92.83413795 0 448.44188026 0 33633
0.17650000 0.17650100 7919.54729397 0 23.79840603 0 2400.84310624 0 66.87968001 0 673.23017357 0 33984
0.17750000 0.17750300 7738.35676924 0 -49.18309420 0 2504.54845598 0 234.02192502 0 355.54425148 0 34069
0.17850000 0.17849800 7936.69421177 0 16.40304254 0 2166.89367940 0 -27.50405159 0 381.50299341 0 34536
