### header ###
fiducial parameters:
Omega_m = 0.31
Omega_nu = 0
Omega_de = 0.69
Omega_k = 0
H_0 = 100
w_de = -1
zeff = 0
beta = 0
fgrowth = 0
b_1 = 2
gamma = 0.55
Lx = 3500 Ly = 3500 Lz = 3500
nx = 700 ny = 700 nz = 700
xoffset = -983.599254 yoffset = -42.9823471 zoffset = 800.977702
bins = 400 dk = 0.001
kx_ny = 0.628318531 ky_ny = 0.628318531 kz_ny = 0.628318531
############################
A(data) = 9.07388469 (not used)
A(ran) = 9.08139911 (used)
Ngal = 504383
weighted Ngal = 0
Nran = 25229228
weighted Nran = 0
SN(data) = 6720.64294
SN(ran) = 134.807113
SN(data+ran) = 6855.45006
############################
13 columns: k_central k_mean P_0(k) sigma^{lin}_{P_0(k)} P^img_1(k) sigma^{lin}_{P_1(k)} P_2(k) sigma^{lin}_{P_2(k)} P^img_3(k) sigma^{lin}_{P_3(k)} P_4(k) sigma^{lin}_{P_4(k)} N_modes
### header ###
0.00050000 0 0 0 0 0 0 0 0 0 0 0 0
0.00150000 0.00179520 33125.29676775 0 -7776.93458815 0 11139.45505474 0 -13680.73592143 0 -94844.97380490 0 3
0.00250000 0.00253879 55266.02095416 0 -1287.87522773 0 -6096.19612205 0 -10143.23121362 0 48719.43538713 0 6
0.00350000 0.00331552 45921.33521348 0 -4441.00777177 0 -6508.44713103 0 -14315.64421664 0 37877.11302071 0 7
0.00450000 0.00420575 31971.80680098 0 -5838.17949669 0 8307.43452096 0 9256.13910110 0 5785.88194663 0 24
0.00550000 0.00557378 53583.73366332 0 -4306.45774223 0 -1239.82870726 0 6370.17333137 0 -11186.46902539 0 45
0.00650000 0.00659388 65467.61320190 0 -11245.78571733 0 -28542.42324109 0 8814.21876158 0 1886.98480089 0 40
0.00750000 0.00754703 77554.37779606 0 57.57849317 0 -5333.10884940 0 -14295.32275736 0 14083.32050654 0 57
0.00850000 0.00846663 70965.61147032 0 3569.52473689 0 -11004.12512054 0 -590.41638242 0 3066.93660300 0 75
0.00950000 0.00948925 63300.57672305 0 -384.52045550 0 6882.49379657 0 -12397.29846103 0 5130.14690181 0 112
0.01050000 0.01054430 68029.76475650 0 2227.11110629 0 9863.47611912 0 9080.85827642 0 13919.97991226 0 105
0.01150000 0.01145670 64063.23559738 0 151.87379897 0 9058.02135002 0 -8345.80363299 0 -3550.49945718 0 144
0.01250000 0.01249090 67055.76270571 0 2710.39934616 0 17524.45755910 0 1756.92746152 0 11816.32441720 0 169
0.01350000 0.01339930 62320.75284880 0 -5356.45106613 0 2006.61778087 0 19078.11550500 0 146.62976402 0 180
0.01450000 0.01448870 84324.06003221 0 -9750.46683640 0 6697.37079485 0 8643.97985571 0 11835.76711067 0 267
0.01550000 0.01550050 72235.20836927 0 2588.32779106 0 -3589.70339672 0 -7904.82796671 0 8082.67918138 0 238
0.01650000 0.01653350 84338.99905092 0 5133.67294961 0 6687.25400351 0 -3323.99757055 0 20592.99790970 0 315
0.01750000 0.01747870 77452.88034541 0 -1078.78938093 0 13276.39380471 0 -9812.85920866 0 -452.57098109 0 297
0.01850000 0.01844180 79020.04931559 0 4115.85343879 0 21525.58812185 0 -7824.34400341 0 -15833.49245593 0 388
0.01950000 0.01947590 70296.76084584 0 8593.25309953 0 36730.43348895 0 -7319.74569274 0 12230.00342062 0 399
0.02050000 0.02045430 67997.36026739 0 2521.98097267 0 34119.18089491 0 3904.53223147 0 6996.29396851 0 462
0.02150000 0.02154770 66038.48143895 0 -3179.89096286 0 33797.22307255 0 9989.89756496 0 5262.82955402 0 571
0.02250000 0.02255340 67836.32643334 0 -825.14241854 0 20332.44384807 0 15773.40684391 0 -12041.83769230 0 510
0.02350000 0.02348930 66697.88533101 0 1989.55873965 0 25408.52468363 0 -1762.83716157 0 12847.33639969 0 555
0.02450000 0.02439640 60764.45860547 0 5333.50429401 0 17947.14391203 0 -1475.94209489 0 2904.81529627 0 592
0.02550000 0.02547300 61043.02736614 0 4083.13039707 0 29873.97312940 0 -2050.18259573 0 8025.22986678 0 837
0.02650000 0.02652900 56385.89812883 0 -2843.69713443 0 15752.75584745 0 3781.96637061 0 -2013.19753985 0 723
0.02750000 0.02749970 61625.53925013 0 -5094.98528498 0 20024.10689571 0 6577.81470688 0 -10382.42028158 0 826
0.02850000 0.02848090 62111.60658685 0 1021.97936845 0 13840.34176104 0 -1056.33252074 0 -7540.88710795 0 831
0.02950000 0.02946900 62715.97777028 0 2228.44023958 0 17484.25402345 0 -8951.33918111 0 -10321.23621230 0 996
0.03050000 0.03053250 57803.23752900 0 2693.32932036 0 19865.05028473 0 -3170.00484753 0 -8728.05577425 0 1041
0.03150000 0.03150510 61024.35359275 0 146.55397047 0 23358.80343995 0 4610.51071128 0 -11628.04884316 0 1036
0.03250000 0.03246190 56604.60096892 0 224.90912360 0 17343.21211151 0 907.44432860 0 -11940.23039592 0 1059
0.03350000 0.03345080 57860.35730642 0 2468.88154881 0 22022.09080253 0 6062.75908311 0 -2986.23294825 0 1302
0.03450000 0.03451200 55013.81516769 0 1585.06283892 0 20182.06504943 0 1563.79670640 0 -1866.95992507 0 1339
0.03550000 0.03553350 51826.42174176 0 265.00171507 0 22215.08974278 0 -1351.83839387 0 -1471.98764876 0 1365
0.03650000 0.03647120 48131.76075403 0 4761.48267683 0 19462.46569962 0 1305.82401932 0 -2122.45009874 0 1308
0.03750000 0.03744890 44451.05017347 0 3203.76043907 0 21422.44298531 0 -2758.09436030 0 3511.19665648 0 1579
0.03850000 0.03847530 41066.37382398 0 356.44608489 0 25392.92659057 0 -1560.91874838 0 -1163.70561927 0 1662
0.03950000 0.03950240 39986.37064778 0 728.01353240 0 24369.27427171 0 3015.15532785 0 -7243.18322185 0 1683
0.04050000 0.04050350 38878.79619441 0 2512.44636367 0 20619.58057534 0 3585.94667290 0 -5102.08131886 0 1822
0.04150000 0.04152450 37410.59822318 0 43.52812639 0 23138.01353107 0 889.99203969 0 -1220.30912178 0 1887
0.04250000 0.04250150 40291.96145700 0 -1068.87690263 0 17430.53946353 0 3837.89981420 0 -2787.07166277 0 1920
0.04350000 0.04349210 39522.16261050 0 -2162.12637490 0 14806.87430247 0 6026.38916329 0 -4809.29852128 0 2005
0.04450000 0.04448520 41898.12565984 0 -1544.21121349 0 8041.70672565 0 2507.66807459 0 758.71760968 0 2151
0.04550000 0.04548030 41033.20041479 0 365.03931602 0 9708.65955316 0 73.04092677 0 -51.01938519 0 2274
0.04650000 0.04648670 40093.79976763 0 1615.33632095 0 7708.98402216 0 2082.99351403 0 317.08506596 0 2311
0.04750000 0.04749250 41197.52962060 0 1105.16883198 0 12807.13286404 0 -2193.15779245 0 1015.51055366 0 2568
0.04850000 0.04851840 36666.06389362 0 2099.42643461 0 11699.22887349 0 -628.97113372 0 -561.43468612 0 2493
0.04950000 0.04949480 37495.17943206 0 951.00474963 0 14140.65997541 0 -2469.34290086 0 1950.70630643 0 2644
0.05050000 0.05050630 35161.94637006 0 -505.00473985 0 15886.87747867 0 2002.76219589 0 2853.68211091 0 2829
0.05150000 0.05149060 36134.41058068 0 1.86287366 0 11613.98859025 0 4174.37924151 0 967.42778410 0 2784
0.05250000 0.05249300 37189.36893140 0 -560.55592031 0 11190.42347152 0 1399.22583998 0 2923.25839364 0 3055
0.05350000 0.05348950 36158.13725746 0 1280.47162581 0 11614.20828171 0 -2478.97637101 0 27.10036855 0 3009
0.05450000 0.05448610 35423.26935177 0 1042.40298425 0 13508.93720626 0 -1115.84583653 0 1401.71933796 0 3336
0.05550000 0.05550870 33651.67748585 0 319.23254990 0 13376.46326093 0 -2996.84404536 0 -3391.15724731 0 3349
0.05650000 0.05647670 33314.01172470 0 1199.78994020 0 14191.95792937 0 1102.31284311 0 -797.42175117 0 3324
0.05750000 0.05747970 32551.02331320 0 561.41930772 0 16248.70929950 0 578.80459074 0 -3566.67973259 0 3639
0.05850000 0.05849280 31955.87917074 0 458.51363486 0 14190.20039776 0 1243.44263164 0 -1008.88356102 0 3846
0.05950000 0.05951020 31803.19361186 0 112.52376461 0 15910.05492682 0 1327.02424441 0 -1979.28816429 0 3787
0.06050000 0.06049470 30448.68596685 0 -262.94100925 0 12729.80147307 0 -124.54418238 0 801.64312241 0 3930
0.06150000 0.06148310 31610.41436306 0 -337.74045624 0 12966.51901219 0 3828.16748289 0 1421.82110578 0 4083
0.06250000 0.06249100 31720.26008887 0 -267.31945988 0 10027.16821973 0 326.54058604 0 -1415.96632860 0 4303
0.06350000 0.06350600 32316.28299713 0 651.28189909 0 10932.65949132 0 442.70353955 0 -803.51709050 0 4470
0.06450000 0.06451750 30980.11958834 0 787.90911132 0 10121.37191418 0 536.25035656 0 -666.61636241 0 4479
0.06550000 0.06550280 29977.44780311 0 386.32851614 0 10254.23031955 0 131.08769227 0 1089.17858967 0 4636
0.06650000 0.06648880 29614.51752503 0 346.92905121 0 10851.76909883 0 -1487.60771097 0 -2952.48834128 0 4653
0.06750000 0.06749660 28670.94274029 0 1282.14128084 0 10402.69780256 0 -175.53786368 0 -2348.41374131 0 5220
0.06850000 0.06852730 27671.23678966 0 281.33577450 0 11076.73314530 0 -272.48660282 0 -1712.74751060 0 5029
0.06950000 0.06949320 27379.81607908 0 -308.31168784 0 10070.16183681 0 1213.19111875 0 -1865.08156316 0 5040
0.07050000 0.07048030 28330.20129882 0 -907.74750281 0 8368.64055939 0 3015.04548213 0 -4018.25551141 0 5475
0.07150000 0.07148790 28684.56361029 0 -670.37198778 0 6389.12171908 0 1888.19310387 0 -2123.03228109 0 5509
0.07250000 0.07249820 27974.63068436 0 998.15822435 0 7447.58414844 0 -673.41581284 0 -268.41681868 0 5916
0.07350000 0.07351270 28056.79528727 0 792.87963041 0 5861.51072885 0 389.46900544 0 1572.71617933 0 5721
0.07450000 0.07449140 27660.25221708 0 -492.21210663 0 7120.23290094 0 474.40172064 0 -1099.96214458 0 6028
0.07550000 0.07549160 27610.27241184 0 549.36703468 0 6431.86269099 0 535.83953355 0 -705.83787727 0 6183
0.07650000 0.07648840 27032.92327696 0 998.76457276 0 7545.08321467 0 -939.18425108 0 1070.24887575 0 6330
0.07750000 0.07749960 25340.42033363 0 841.35345075 0 8072.88094263 0 -954.62965858 0 2093.89021003 0 6583
0.07850000 0.07848650 24990.89123409 0 422.49412291 0 9110.18708521 0 414.92465394 0 749.42795665 0 6549
0.07950000 0.07947320 24037.75987121 0 606.14848727 0 9271.80310160 0 -407.97581333 0 926.25540915 0 6828
0.08050000 0.08048110 23017.18323267 0 762.46993967 0 9343.27971538 0 738.62353106 0 583.61803045 0 7147
0.08150000 0.08149960 22641.84038757 0 554.04316723 0 9335.49165342 0 574.24928849 0 2727.07392733 0 7386
0.08250000 0.08250610 22560.77424192 0 -246.36199385 0 8714.03945963 0 363.83320995 0 1486.22365483 0 7227
0.08350000 0.08350160 22278.58057230 0 156.86079492 0 9170.52534240 0 461.29163327 0 872.38267138 0 7798
0.08450000 0.08449610 21539.20899185 0 188.86434713 0 8435.18510008 0 -413.81301520 0 755.83306092 0 7371
0.08550000 0.08548940 21650.48271210 0 214.87801192 0 8001.05282252 0 368.06556577 0 1051.32135873 0 8256
0.08650000 0.08650700 21680.03121235 0 47.51278009 0 8113.43598460 0 738.61034957 0 710.53488051 0 8037
0.08750000 0.08749060 21780.75974292 0 164.74332420 0 7181.68059996 0 620.52399741 0 615.43814030 0 8155
0.08850000 0.08849210 21075.66002892 0 252.27938310 0 7994.84653902 0 -381.59855919 0 -358.52107065 0 8718
0.08950000 0.08949900 21106.08729497 0 442.71452412 0 7823.71788277 0 -800.60068648 0 66.79817448 0 8571
0.09050000 0.09049190 20350.89793000 0 406.00188564 0 7579.25621997 0 776.18857237 0 118.37634488 0 8932
0.09150000 0.09150830 19734.88309964 0 57.34078702 0 8336.00539425 0 490.24476968 0 -225.96474103 0 9285
0.09250000 0.09250820 19854.50509505 0 421.86800227 0 7416.03645599 0 -385.35088918 0 -912.72021881 0 9204
0.09350000 0.09350330 19012.75729814 0 458.21705140 0 7665.36428444 0 978.86162570 0 639.73821177 0 9349
0.09450000 0.09448040 18965.52363604 0 145.04249328 0 8006.55609339 0 -106.24190724 0 -486.68796508 0 9564
0.09550000 0.09549270 18744.84357288 0 457.99186766 0 7562.66951538 0 -519.83501130 0 -770.52712366 0 10155
0.09650000 0.09649430 17634.74266781 0 230.60901832 0 7607.83807783 0 437.98017334 0 1022.55935388 0 9913
0.09750000 0.09749140 17624.96639822 0 -211.12787884 0 7017.59305474 0 519.81414061 0 517.12841261 0 10476
0.09850000 0.09850240 17582.78563950 0 426.51447647 0 7156.67971277 0 889.86352019 0 -266.76693588 0 10575
0.09950000 0.09950330 17153.50854303 0 628.29118868 0 7028.44581245 0 126.99374207 0 230.31243486 0 10882
0.10050000 0.10051200 16731.04188155 0 93.11644146 0 6829.65800245 0 201.24835426 0 1145.65796652 0 10875
0.10150000 0.10150300 16595.27256444 0 -170.28284416 0 6129.51233069 0 1018.07545136 0 1190.24434662 0 11118
0.10250000 0.10250800 16806.17635800 0 -71.80746911 0 6158.52258688 0 348.60639544 0 395.64782752 0 11575
0.10350000 0.10349800 16591.31811831 0 285.66918838 0 5572.69336197 0 -110.96065993 0 15.99441644 0 11364
0.10450000 0.10450100 16406.00837887 0 257.97817936 0 5707.02370006 0 -786.50308602 0 331.79121173 0 12093
0.10550000 0.10551000 15946.63355351 0 301.47488987 0 5299.82559447 0 645.78741589 0 367.24611665 0 12067
0.10650000 0.10649700 15803.06518988 0 -88.96471241 0 6197.26517437 0 446.42621119 0 -13.53354265 0 12054
0.10750000 0.10749900 15837.22721060 0 182.48231046 0 5554.45897148 0 -91.56432136 0 404.08397926 0 12807
0.10850000 0.10850100 15479.02029873 0 191.03819405 0 5656.89011080 0 294.63589498 0 421.56922190 0 12736
0.10950000 0.10950300 15175.40671258 0 242.88647509 0 6233.66804790 0 -343.34808055 0 348.41965771 0 12933
0.11050000 0.11050200 14960.43862716 0 504.32040098 0 6745.73586793 0 -1240.71845764 0 125.74259925 0 13428
0.11150000 0.11150900 14573.89151802 0 -25.11919104 0 6560.36022105 0 462.26376794 0 -380.63411372 0 13453
0.11250000 0.11250000 14632.21959843 0 79.34442374 0 7150.63819785 0 860.34357983 0 1055.22966965 0 13668
0.11350000 0.11349100 14919.57601716 0 -139.54910853 0 5970.76328774 0 709.00143418 0 293.11123630 0 13791
0.11450000 0.11448600 14786.88238038 0 -33.12518692 0 5658.09841379 0 802.34503660 0 439.99474395 0 14205
0.11550000 0.11549300 14562.24787109 0 267.87198388 0 5015.64371722 0 284.98045568 0 1437.47412171 0 14776
0.11650000 0.11649800 14534.23721100 0 -9.78755075 0 5069.05070911 0 45.02081995 0 885.53230322 0 14553
0.11750000 0.11747300 14054.32123493 0 299.86125615 0 5077.67359859 0 106.45654579 0 1432.88257037 0 14568
0.11850000 0.11849100 14061.02182420 0 130.70433069 0 4940.94862367 0 -94.08923521 0 700.40930150 0 16015
0.11950000 0.11950300 14117.48252727 0 -139.91159943 0 4322.01189700 0 -3.50069541 0 284.39497796 0 15270
0.12050000 0.12050700 13785.74843531 0 156.40603361 0 4792.74477040 0 44.23772977 0 -112.16017526 0 15999
0.12150000 0.12150000 13955.56992742 0 -32.14723043 0 4241.50596455 0 132.67825838 0 -150.95329178 0 15670
0.12250000 0.12250700 13826.83073677 0 43.51461536 0 4393.37866506 0 124.89898408 0 -431.34439304 0 16887
0.12350000 0.12352200 13835.17901193 0 348.88650204 0 4241.68171771 0 25.93292818 0 -547.54469409 0 16407
0.12450000 0.12449800 13500.69877683 0 45.83719339 0 4377.13248221 0 90.76003095 0 -100.55123957 0 16306
0.12550000 0.12549900 13509.15689771 0 -68.97059340 0 4009.45686877 0 434.19818500 0 -499.21806702 0 17523
0.12650000 0.12650100 13198.95256802 0 133.92061354 0 3588.98939950 0 632.03473101 0 138.72526559 0 17154
0.12750000 0.12750600 13118.21595954 0 227.02804765 0 3602.50042378 0 181.17514633 0 285.10018752 0 18007
0.12850000 0.12850300 12519.66659959 0 331.76924259 0 3559.68255986 0 -139.22286672 0 428.60703755 0 17496
0.12950000 0.12949900 12568.87748475 0 161.94115974 0 3279.33429843 0 539.77969973 0 272.21089005 0 18405
0.13050000 0.13049000 12027.33805649 0 97.98337604 0 3222.59898105 0 36.13463027 0 1097.72568560 0 18100
0.13150000 0.13148800 12301.18345094 0 64.72011304 0 3032.13747706 0 206.96802121 0 483.80671169 0 19059
0.13250000 0.13249300 11769.31044655 0 49.59666335 0 3177.32057287 0 60.69613456 0 1268.91585545 0 18957
0.13350000 0.13349100 12079.07539335 0 203.66496023 0 2644.10745063 0 12.47089510 0 704.44173810 0 19468
0.13450000 0.13450700 11849.71751785 0 14.13615630 0 3103.46030683 0 226.39643473 0 782.34981913 0 19953
0.13550000 0.13551000 11841.03970551 0 14.72328171 0 3123.40829064 0 166.08673743 0 1159.23489823 0 19956
0.13650000 0.13649900 11854.55072979 0 47.90932316 0 2909.12124873 0 17.37770367 0 751.44033035 0 19723
0.13750000 0.13749600 11777.43903026 0 179.62082931 0 2972.08481876 0 -490.95327461 0 807.47043817 0 20946
0.13850000 0.13851100 11428.78869653 0 306.40696296 0 3619.33977354 0 -166.30093660 0 1039.25480575 0 20955
0.13950000 0.13949800 11079.36944272 0 42.14615731 0 3558.58410260 0 -69.97590148 0 916.17376843 0 20506
0.14050000 0.14048300 11062.01381804 0 240.98724249 0 3712.78553249 0 329.42843017 0 553.13144771 0 21447
0.14150000 0.14148400 11020.38228796 0 130.37699043 0 3558.56213345 0 309.84183880 0 1070.59269287 0 21771
0.14250000 0.14249400 10802.64609025 0 4.81080341 0 3432.30545620 0 261.39438143 0 1530.08505315 0 22470
0.14350000 0.14350900 10755.54424302 0 114.34061291 0 3476.60623742 0 113.35639521 0 928.51493573 0 22519
0.14450000 0.14449900 10652.27827619 0 105.85536013 0 3144.05928709 0 -275.54910166 0 863.64005006 0 22218
0.14550000 0.14550500 10511.41211740 0 56.59691177 0 3288.18786393 0 131.11185833 0 685.44941211 0 23559
0.14650000 0.14650700 10516.14646818 0 62.70905749 0 3180.96745097 0 -88.59365355 0 1015.48199377 0 23044
0.14750000 0.14750500 10326.46486885 0 75.46346441 0 3197.67498586 0 23.24324574 0 347.03670002 0 23649
0.14850000 0.14849900 10190.86032033 0 59.77112371 0 3319.80146382 0 37.99596610 0 684.37072708 0 23640
0.14950000 0.14949500 9943.57562238 0 193.90626595 0 3246.52338013 0 302.97098865 0 901.63348971 0 24457
0.15050000 0.15050000 10065.65816205 0 120.40739235 0 3132.39367101 0 232.63567196 0 286.35901954 0 24591
0.15150000 0.15149900 10033.44041067 0 49.03062833 0 2922.13796723 0 -163.86455840 0 422.68964830 0 25020
0.15250000 0.15250500 9796.97551671 0 65.70477012 0 3039.23351095 0 14.08551742 0 410.85377135 0 25297
0.15350000 0.15350100 9742.32726812 0 146.19587340 0 2829.87854212 0 -104.79106489 0 309.78801440 0 25452
0.15450000 0.15450400 9630.60318039 0 58.57303638 0 2714.74923690 0 102.19156579 0 227.13899184 0 26061
0.15550000 0.15549900 9431.33204920 0 -25.82077569 0 2712.06900119 0 523.19958588 0 -18.72287443 0 26128
0.15650000 0.15649500 9495.74558281 0 76.50293451 0 2644.20631178 0 -161.15356588 0 69.05122016 0 26331
0.15750000 0.15749700 9338.23779657 0 226.33382267 0 2357.82752001 0 -30.74548912 0 299.14396356 0 27345
0.15850000 0.15849900 9148.89671898 0 125.52840009 0 2731.48972551 0 72.31847143 0 365.26230285 0 26980
0.15950000 0.15949700 9037.82072104 0 35.33462385 0 2669.26212184 0 -197.16758555 0 205.43237796 0 27777
0.16050000 0.16050000 8864.23152054 0 28.28044119 0 2682.89397641 0 222.24866012 0 25.90612582 0 28224
0.16150000 0.16150500 8925.44854353 0 132.46845304 0 2709.72928723 0 12.49286424 0 403.08548162 0 28075
0.16250000 0.16249700 8995.40928631 0 143.29814315 0 2561.00915905 0 104.38177972 0 233.08054715 0 28590
0.16350000 0.16349900 8827.59797098 0 93.36106789 0 2841.96157196 0 31.48475085 0 235.12807148 0 29163
0.16450000 0.16449100 8594.56026367 0 -34.73728279 0 2561.18491221 0 -46.60117041 0 -33.52656320 0 28996
0.16550000 0.16550500 8583.59766023 0 -24.44265122 0 2489.65337556 0 118.56967336 0 315.65816998 0 30777
0.16650000 0.16650700 8595.38410661 0 96.06481059 0 2347.19445375 0 118.61580856 0 429.95264769 0 29211
0.16750000 0.16749900 8346.77027538 0 142.98727975 0 2155.49169306 0 -18.54789019 0 -295.93866529 0 30922
0.16850000 0.16850800 8429.34130747 0 78.80079725 0 2244.06030179 0 244.86589507 0 -182.99858538 0 30867
0.16950000 0.16949900 8258.53120383 0 49.56085365 0 2193.72899022 0 -59.57274233 0 -219.64751334 0 30852
0.17050000 0.17049200 8126.73830200 0 181.61782460 0 2211.31529092 0 -95.10168327 0 -47.33702693 0 31257
0.17150000 0.17149500 8131.94498940 0 47.89734998 0 2237.64531140 0 -151.46846824 0 -331.61216320 0 32608
0.17250000 0.17250900 8043.91462474 0 32.85782243 0 2191.80669002 0 169.70835101 0 -558.20192641 0 32361
0.17350000 0.17350400 8030.52443076 0 -4.18407862 0 2299.59830076 0 197.39386774 0 -296.86905858 0 32508
0.17450000 0.17449800 8022.13221731 0 24.74681403 0 2131.43547911 0 44.05725325 0 -8.80484892 0 32791
0.17550000 0.17549800 7905.62984051 0 76.05256703 0 1999.20319438 0 146.74949586 0 -28.45136113 0 33633
0.17650000 0.17650100 7939.23164804 0 137.80036458 0 1909.55809754 0 144.76128822 0 244.36170319 0 33984
0.17750000 0.17750300 7779.49399356 0 32.90439701 0 1922.49792404 0 126.13035467 0 292.48291875 0 34069
0.17850000 0.17849800 7661.25605429 0 175.33025526 0 2178.68012578 0 48.40813260 0 482.25788695 0 34536
