### header ###
fiducial parameters:
Omega_m = 0.31
Omega_nu = 0
Omega_de = 0.69
Omega_k = 0
H_0 = 100
w_de = -1
zeff = 0
beta = 0
fgrowth = 0
b_1 = 2
gamma = 0.55
Lx = 3500 Ly = 3500 Lz = 3500
nx = 700 ny = 700 nz = 700
xoffset = -983.599254 yoffset = -42.9823471 zoffset = 800.977702
bins = 400 dk = 0.001
kx_ny = 0.628318531 ky_ny = 0.628318531 kz_ny = 0.628318531
############################
A(data) = 9.05376962 (not used)
A(ran) = 9.05406746 (used)
Ngal = 503322
weighted Ngal = 0
Nran = 25229228
weighted Nran = 0
SN(data) = 6743.81378
SN(ran) = 134.401394
SN(data+ran) = 6878.21517
############################
13 columns: k_central k_mean P_0(k) sigma^{lin}_{P_0(k)} P^img_1(k) sigma^{lin}_{P_1(k)} P_2(k) sigma^{lin}_{P_2(k)} P^img_3(k) sigma^{lin}_{P_3(k)} P_4(k) sigma^{lin}_{P_4(k)} N_modes
### header ###
0.00050000 0 0 0 0 0 0 0 0 0 0 0 0
0.00150000 0.00179520 38258.27768929 0 -43308.10539638 0 -1276.68194827 0 -62936.98737061 0 18219.45146632 0 3
0.00250000 0.00253879 51770.07088442 0 -35290.68556071 0 -67460.98358824 0 33062.68470404 0 46027.33633889 0 6
0.00350000 0.00331552 64948.59214743 0 -14929.35228676 0 -22859.88415331 0 -75129.97278163 0 -79109.35389067 0 7
0.00450000 0.00420575 93151.26255858 0 -14469.64792423 0 -44243.77128886 0 -38322.86697606 0 16689.95958009 0 24
0.00550000 0.00557378 90710.05114810 0 1180.42413874 0 -30438.14077718 0 -33362.45368978 0 -16320.32871273 0 45
0.00650000 0.00659388 81662.27840430 0 2555.28619673 0 -29271.57916904 0 -37801.97854426 0 28934.90201942 0 40
0.00750000 0.00754703 75090.42832034 0 16850.44418551 0 5936.30468355 0 -9539.20055194 0 -46887.09883483 0 57
0.00850000 0.00846663 74781.87167653 0 -4405.31889546 0 -10324.80619839 0 4110.31721421 0 4139.41534698 0 75
0.00950000 0.00948925 81455.21921114 0 -8005.74323502 0 -16370.85774660 0 1306.57097026 0 -38298.92060784 0 112
0.01050000 0.01054430 75774.32780925 0 1680.99111127 0 6240.47848290 0 -22922.38637130 0 -20551.25653389 0 105
0.01150000 0.01145670 76524.13473365 0 10056.47505937 0 -8601.16199179 0 -11073.76731070 0 -11867.84206261 0 144
0.01250000 0.01249090 76694.83499157 0 -3502.11241496 0 20772.37597995 0 -6243.88370040 0 -34644.57300148 0 169
0.01350000 0.01339930 68648.30603856 0 3250.62062571 0 20227.21164274 0 -23840.36710192 0 -36241.72985480 0 180
0.01450000 0.01448870 70308.51433850 0 8955.84285587 0 27391.02034311 0 -7416.60765376 0 -23073.42424429 0 267
0.01550000 0.01550050 69711.61266443 0 -814.28856237 0 52852.82020376 0 22897.89077444 0 8988.25832956 0 238
0.01650000 0.01653350 69739.73317024 0 -3624.87599813 0 32105.92843220 0 3290.47265503 0 -3047.13141864 0 315
0.01750000 0.01747870 71159.59902210 0 -375.21432561 0 33461.75422592 0 12858.43081799 0 12248.23781110 0 297
0.01850000 0.01844180 71046.78746169 0 5533.72009845 0 39022.47440377 0 5092.17323440 0 15741.99096632 0 388
0.01950000 0.01947590 74331.50420069 0 -2237.61235768 0 41557.27437264 0 8884.87153242 0 42115.18081405 0 399
0.02050000 0.02045430 74805.59835330 0 -4305.11762437 0 22984.77874356 0 30728.35318478 0 42872.89663071 0 462
0.02150000 0.02154770 74591.94841660 0 -2243.20350513 0 24427.38266067 0 6877.75944578 0 38084.94113395 0 571
0.02250000 0.02255340 85004.55430363 0 8587.50816807 0 29804.55063068 0 -2197.01337742 0 21511.52786895 0 510
0.02350000 0.02348930 70803.47917902 0 6429.53396160 0 34289.88115282 0 -12577.66514282 0 35376.80460975 0 555
0.02450000 0.02439640 68145.32246006 0 2276.84925094 0 42143.08162840 0 -8490.55833047 0 27891.25777847 0 592
0.02550000 0.02547300 63225.88162950 0 -882.48078895 0 35970.08137487 0 500.28357056 0 8397.15650981 0 837
0.02650000 0.02652900 66996.66570523 0 494.90662228 0 37574.04866319 0 8316.87026881 0 -1792.19892408 0 723
0.02750000 0.02749970 64096.62869802 0 2562.54699921 0 35836.39912655 0 -3491.78691673 0 -1769.32904397 0 826
0.02850000 0.02848090 64016.99054681 0 255.57145951 0 37427.07508206 0 8752.61727854 0 5861.46679056 0 831
0.02950000 0.02946900 61054.67101307 0 997.57384509 0 24266.12913517 0 2973.50182862 0 -4784.74800156 0 996
0.03050000 0.03053250 55962.44285581 0 2268.39113006 0 29637.47528172 0 7681.43471413 0 1318.62104638 0 1041
0.03150000 0.03150510 57997.66446369 0 2809.99646575 0 27609.72318321 0 2750.89946526 0 9629.15321681 0 1036
0.03250000 0.03246190 54811.91872364 0 522.58335136 0 21779.99082284 0 2807.04161573 0 816.60301181 0 1059
0.03350000 0.03345080 53504.97427792 0 1189.55231855 0 22136.87958600 0 4336.43464080 0 11265.99733088 0 1302
0.03450000 0.03451200 50596.03976693 0 -403.24365946 0 17869.15344670 0 4686.05161692 0 6337.75785769 0 1339
0.03550000 0.03553350 51115.50020430 0 -1870.52991116 0 17674.06743766 0 -615.00644660 0 6388.27590699 0 1365
0.03650000 0.03647120 51357.81987544 0 2519.26778324 0 15211.76564782 0 -2452.42665908 0 -3412.63208671 0 1308
0.03750000 0.03744890 47578.79737028 0 3289.14352175 0 19400.40286454 0 -3813.00877273 0 3036.09192319 0 1579
0.03850000 0.03847530 47611.97077948 0 83.30787722 0 21655.42576976 0 -553.64442724 0 -781.25685416 0 1662
0.03950000 0.03950240 44717.20636712 0 859.71306537 0 18819.31897499 0 4596.62621153 0 -3507.54977838 0 1683
0.04050000 0.04050350 45654.30025403 0 2399.85449471 0 22478.28010183 0 1078.70809509 0 306.81668751 0 1822
0.04150000 0.04152450 42859.27576071 0 594.06545743 0 17330.14047013 0 2254.03429369 0 303.57843552 0 1887
0.04250000 0.04250150 43091.70931653 0 1416.93297099 0 23589.69915561 0 576.23749613 0 4263.85956975 0 1920
0.04350000 0.04349210 38544.20611358 0 547.24371680 0 16195.65381393 0 1090.98115804 0 4414.97433476 0 2005
0.04450000 0.04448520 40209.90669981 0 321.43275979 0 18794.27414950 0 3492.05054647 0 7109.47900439 0 2151
0.04550000 0.04548030 38321.76851881 0 555.64471791 0 15874.79444883 0 2829.79066554 0 3070.78120340 0 2274
0.04650000 0.04648670 40077.32290876 0 804.70452279 0 17911.88343404 0 2489.66436013 0 7027.61098494 0 2311
0.04750000 0.04749250 36037.63649624 0 -668.74956641 0 12834.04506686 0 253.68870377 0 8395.53079307 0 2568
0.04850000 0.04851840 38821.01734263 0 365.13707872 0 14009.61402452 0 514.50859205 0 825.71910860 0 2493
0.04950000 0.04949480 37430.69999101 0 556.97824502 0 14205.90833655 0 -493.30726851 0 5064.10765145 0 2644
0.05050000 0.05050630 36850.27517581 0 493.94986601 0 13816.72492999 0 -978.35303999 0 975.73871171 0 2829
0.05150000 0.05149060 35686.78924799 0 -143.42776111 0 13118.65534245 0 1344.86319028 0 1723.84192891 0 2784
0.05250000 0.05249300 36125.73276834 0 1253.25185495 0 14795.23065554 0 135.98241781 0 -2370.92113053 0 3055
0.05350000 0.05348950 35281.01913684 0 1246.89178743 0 14316.74267389 0 -627.51457940 0 223.22189325 0 3009
0.05450000 0.05448610 33309.28835849 0 617.91735833 0 14755.02711989 0 1301.04573025 0 -8.50310271 0 3336
0.05550000 0.05550870 34310.64199500 0 -516.02885690 0 14100.67613122 0 1306.79066171 0 434.64306018 0 3349
0.05650000 0.05647670 32736.33305264 0 254.41588247 0 13695.12571152 0 994.42127276 0 1699.63193094 0 3324
0.05750000 0.05747970 33352.78726591 0 425.59396929 0 12814.05314477 0 -194.62795237 0 1845.92446858 0 3639
0.05850000 0.05849280 32855.18612798 0 -273.00068082 0 11957.03679197 0 1222.58292830 0 -447.52796382 0 3846
0.05950000 0.05951020 33207.46137066 0 74.28811514 0 10495.17691913 0 51.48644922 0 952.68099541 0 3787
0.06050000 0.06049470 31998.05992945 0 933.08781329 0 11634.52974098 0 -231.77777684 0 -1130.66402494 0 3930
0.06150000 0.06148310 32567.28048062 0 -232.99486748 0 11862.02023914 0 -461.03239735 0 -3067.91422996 0 4083
0.06250000 0.06249100 32956.79342435 0 1004.37329552 0 12240.65845602 0 29.82772808 0 -4842.77949851 0 4303
0.06350000 0.06350600 30188.13190522 0 1001.26026765 0 12637.97044629 0 -1454.36839434 0 -1523.14280327 0 4470
0.06450000 0.06451750 29625.28240616 0 310.73158918 0 14327.94693793 0 1680.77141982 0 -1558.30442011 0 4479
0.06550000 0.06550280 29506.86871373 0 -298.41239103 0 10558.76660980 0 1598.31023345 0 -2865.50151100 0 4636
0.06650000 0.06648880 30254.91810652 0 395.14802947 0 13004.74532478 0 1061.35027350 0 -5580.29468619 0 4653
0.06750000 0.06749660 28108.20308695 0 1434.44237968 0 11458.88642541 0 -793.75180547 0 449.79847498 0 5220
0.06850000 0.06852730 28241.22626091 0 379.95526713 0 11333.33276080 0 397.61186910 0 190.44722404 0 5029
0.06950000 0.06949320 28054.26883557 0 -1052.34292398 0 11433.07267984 0 1578.53800280 0 -1206.22689973 0 5040
0.07050000 0.07048030 28154.77767469 0 610.70049415 0 11004.67434917 0 357.55442827 0 -1941.43532717 0 5475
0.07150000 0.07148790 27020.40086422 0 594.39938844 0 10902.29813271 0 -642.82597512 0 303.40378081 0 5509
0.07250000 0.07249820 27166.82521673 0 396.87260736 0 12232.20033513 0 25.64634068 0 -674.62850966 0 5916
0.07350000 0.07351270 26555.75344403 0 -24.95310430 0 11884.20907576 0 -708.22921872 0 672.61723442 0 5721
0.07450000 0.07449140 26798.95188098 0 -162.18611571 0 11026.75334006 0 2054.49953275 0 -1143.23037598 0 6028
0.07550000 0.07549160 26686.57970347 0 211.51343734 0 12461.55821063 0 839.84966277 0 -483.77705334 0 6183
0.07650000 0.07648840 26560.91619314 0 406.00627947 0 10161.20197436 0 664.37660807 0 1117.15300067 0 6330
0.07750000 0.07749960 26192.49362876 0 182.07368436 0 9763.92293781 0 33.64201106 0 162.53762203 0 6583
0.07850000 0.07848650 25773.87156769 0 44.73258477 0 9414.53663772 0 1251.06592501 0 215.96658306 0 6549
0.07950000 0.07947320 25204.65101652 0 388.77587891 0 8254.99417146 0 1768.26354043 0 816.71066062 0 6828
0.08050000 0.08048110 24930.91546779 0 685.59880229 0 8938.14670944 0 -920.54782524 0 272.90950887 0 7147
0.08150000 0.08149960 23387.69286584 0 942.08198132 0 8243.87778401 0 -260.71333793 0 1970.01718503 0 7386
0.08250000 0.08250610 22967.86250178 0 -60.11713774 0 7301.28062623 0 2231.70265763 0 27.81908914 0 7227
0.08350000 0.08350160 22329.87852626 0 -136.58547085 0 6891.96249813 0 741.70470367 0 429.61981514 0 7798
0.08450000 0.08449610 22366.01777005 0 1016.50575593 0 6304.61740221 0 -296.52084763 0 505.24859737 0 7371
0.08550000 0.08548940 21479.01353411 0 502.87702815 0 7289.16464267 0 -1707.16734773 0 1095.06851749 0 8256
0.08650000 0.08650700 20521.70803364 0 124.90227945 0 7430.21753919 0 449.12072685 0 -700.17423165 0 8037
0.08750000 0.08749060 21373.45179160 0 91.66724680 0 8385.43597086 0 -72.35669774 0 -2298.44492064 0 8155
0.08850000 0.08849210 20391.65069428 0 354.15250614 0 7090.36584810 0 -533.75136630 0 -2214.80838500 0 8718
0.08950000 0.08949900 20703.72240132 0 321.15485010 0 8122.70696386 0 -462.87890401 0 -1625.40917401 0 8571
0.09050000 0.09049190 19774.64725239 0 -48.11528390 0 7426.66952225 0 406.16665423 0 -1555.12987863 0 8932
0.09150000 0.09150830 20062.55289974 0 353.45278886 0 8850.07240648 0 151.79251313 0 -2620.16108240 0 9285
0.09250000 0.09250820 19091.84622073 0 564.95304472 0 7745.82627860 0 229.30405109 0 -1997.92898396 0 9204
0.09350000 0.09350330 19243.21363090 0 69.25333630 0 8746.16933443 0 884.45032282 0 -1726.55511834 0 9349
0.09450000 0.09448040 19062.07802903 0 102.16718004 0 8152.37629441 0 -502.66612435 0 -993.74901692 0 9564
0.09550000 0.09549270 18901.81311507 0 -169.11298718 0 7724.23060890 0 554.99003739 0 -1339.87619433 0 10155
0.09650000 0.09649430 19247.93699711 0 -96.57833936 0 6862.83141165 0 819.71823660 0 -1022.87680803 0 9913
0.09750000 0.09749140 19243.10378517 0 95.14913662 0 6544.03714619 0 -4.40930630 0 -2549.77194130 0 10476
0.09850000 0.09850240 18700.24620820 0 312.38257044 0 6658.29867018 0 -67.35948614 0 -1360.91165082 0 10575
0.09950000 0.09950330 18510.10325682 0 454.30544511 0 6946.27022497 0 73.37595623 0 -1944.75266809 0 10882
0.10050000 0.10051200 17837.51787767 0 443.12974096 0 6482.06218769 0 169.97417767 0 -1708.37565071 0 10875
0.10150000 0.10150300 17502.15887676 0 213.09521579 0 6979.68529477 0 598.18577060 0 -1414.91180963 0 11118
0.10250000 0.10250800 16701.71307275 0 302.64804222 0 6433.20280884 0 561.01287853 0 -60.70876682 0 11575
0.10350000 0.10349800 16469.49920839 0 300.03151703 0 6453.57919098 0 774.81220543 0 735.54235845 0 11364
0.10450000 0.10450100 16272.65566773 0 29.08506113 0 5996.33537271 0 737.80627886 0 1744.00960417 0 12093
0.10550000 0.10551000 16405.45915024 0 27.51053249 0 5176.88625814 0 538.55931372 0 1284.11850390 0 12067
0.10650000 0.10649700 16218.50172490 0 125.78324217 0 5469.57019457 0 164.04031156 0 1687.06557991 0 12054
0.10750000 0.10749900 16208.83530103 0 292.82673587 0 5668.89624863 0 -165.44523839 0 2292.71097375 0 12807
0.10850000 0.10850100 15698.60190463 0 366.14106865 0 6299.59745254 0 -1222.41815971 0 1662.49309104 0 12736
0.10950000 0.10950300 15342.15252436 0 425.73457182 0 6982.67309851 0 337.82503745 0 2052.24769537 0 12933
0.11050000 0.11050200 14964.94230192 0 -73.44252274 0 7155.59224008 0 217.13863696 0 1243.43164706 0 13428
0.11150000 0.11150900 15169.36519766 0 332.06362913 0 7450.01173898 0 -32.65746382 0 621.31378817 0 13453
0.11250000 0.11250000 14692.63474763 0 387.95203597 0 6826.76905986 0 -459.94492467 0 1354.78225932 0 13668
0.11350000 0.11349100 14360.68096422 0 -54.88101169 0 7219.73115939 0 324.32389929 0 486.43422145 0 13791
0.11450000 0.11448600 14219.30951510 0 148.51251976 0 7079.77672013 0 225.02446162 0 842.48046790 0 14205
0.11550000 0.11549300 13820.89906757 0 225.38475560 0 6313.06453852 0 606.14738881 0 811.97850676 0 14776
0.11650000 0.11649800 13820.34983894 0 -75.79300158 0 6292.16089690 0 417.51152079 0 1093.16379261 0 14553
0.11750000 0.11747300 13511.68334941 0 205.81244417 0 5863.05955358 0 381.71279874 0 865.31409892 0 14568
0.11850000 0.11849100 13497.84278795 0 260.13335250 0 5609.08525093 0 563.28778351 0 1103.16963977 0 16015
0.11950000 0.11950300 13421.17047134 0 -116.73085591 0 5664.71112648 0 111.79878282 0 992.88892488 0 15270
0.12050000 0.12050700 13071.20198890 0 123.57973691 0 5051.14585580 0 -85.29872116 0 878.72626205 0 15999
0.12150000 0.12150000 13237.50841778 0 167.46639975 0 5166.74749765 0 208.29935140 0 905.24741409 0 15670
0.12250000 0.12250700 13158.52934092 0 -251.32152837 0 4688.20459314 0 443.29560801 0 619.89018757 0 16887
0.12350000 0.12352200 13203.67593423 0 197.53886410 0 4666.30135542 0 108.87150407 0 418.52429838 0 16407
0.12450000 0.12449800 12917.74750993 0 216.23021281 0 4515.20855956 0 -260.69027033 0 -160.07158548 0 16306
0.12550000 0.12549900 12647.74671588 0 297.26999548 0 4368.71829962 0 -213.33797485 0 190.45381479 0 17523
0.12650000 0.12650100 12582.71804620 0 -104.76832683 0 4628.29473429 0 474.26551194 0 -376.67747067 0 17154
0.12750000 0.12750600 12744.41095460 0 -224.36538726 0 3893.16319885 0 647.84262942 0 -265.34443373 0 18007
0.12850000 0.12850300 12774.28899202 0 114.63060563 0 3485.55866408 0 196.32506883 0 -591.19189324 0 17496
0.12950000 0.12949900 12534.93515547 0 208.75191579 0 3232.77069526 0 -256.44473303 0 -713.37329406 0 18405
0.13050000 0.13049000 12564.59350144 0 -31.00274781 0 3364.15716791 0 217.40775899 0 -394.14843336 0 18100
0.13150000 0.13148800 12640.38705225 0 -188.66223100 0 3426.96695393 0 242.72170650 0 -1016.24322465 0 19059
0.13250000 0.13249300 12371.37486974 0 209.82071471 0 2677.58842786 0 -108.94806654 0 -426.76382627 0 18957
0.13350000 0.13349100 12320.95568159 0 280.69537391 0 3162.11792442 0 3.65439154 0 -226.47662211 0 19468
0.13450000 0.13450700 12126.63859263 0 210.95761797 0 3363.91550731 0 -158.13500534 0 -443.84154126 0 19953
0.13550000 0.13551000 11946.49160229 0 171.29562175 0 3512.72351207 0 734.86790569 0 -178.31805900 0 19956
0.13650000 0.13649900 11736.68626599 0 11.14264058 0 3225.53186193 0 -78.46939269 0 256.27776752 0 19723
0.13750000 0.13749600 11631.67375211 0 116.37495576 0 3360.38945951 0 -102.41784799 0 222.65508931 0 20946
0.13850000 0.13851100 11541.92979412 0 200.55962156 0 3375.85573771 0 -431.57397061 0 -71.74002384 0 20955
0.13950000 0.13949800 11267.09578814 0 210.06786759 0 3451.96784112 0 -41.52025636 0 -59.49002849 0 20506
0.14050000 0.14048300 11269.29270265 0 35.52762279 0 3717.47594499 0 27.54623235 0 -401.89585241 0 21447
0.14150000 0.14148400 11232.38453878 0 -122.05068441 0 3310.79411431 0 498.40740556 0 -397.09998802 0 21771
0.14250000 0.14249400 11189.32501426 0 165.78795706 0 3588.51706288 0 -182.19231775 0 -934.09509860 0 22470
0.14350000 0.14350900 10885.28302978 0 340.24164342 0 3452.96743723 0 -414.87742028 0 -659.27207719 0 22519
0.14450000 0.14449900 10742.21995648 0 138.08816038 0 3897.12862955 0 -0.48171086 0 -609.07367895 0 22218
0.14550000 0.14550500 10558.36018061 0 120.77098170 0 3669.61616225 0 149.28034138 0 -726.68989141 0 23559
0.14650000 0.14650700 10609.76798030 0 -66.60429677 0 3760.76614553 0 234.41846809 0 -718.21309674 0 23044
0.14750000 0.14750500 10194.11175382 0 203.10584549 0 3685.74151480 0 177.24926009 0 -352.40595910 0 23649
0.14850000 0.14849900 10400.65467206 0 -36.84225644 0 3184.40562219 0 825.41154057 0 873.55033145 0 23640
0.14950000 0.14949500 10597.19064469 0 -319.98499312 0 2744.22084513 0 696.73166660 0 -273.67183821 0 24457
0.15050000 0.15050000 10321.66461063 0 351.95449316 0 2732.93968909 0 -113.88365469 0 319.40610615 0 24591
0.15150000 0.15149900 10098.53498779 0 248.72038159 0 2843.55433499 0 -447.37527826 0 510.60797033 0 25020
0.15250000 0.15250500 9975.99109607 0 144.92276144 0 3029.97351627 0 -224.36758417 0 259.78953538 0 25297
0.15350000 0.15350100 9815.28679920 0 112.42490346 0 2550.12344762 0 178.67835298 0 -69.18731902 0 25452
0.15450000 0.15450400 9688.36006303 0 31.58833537 0 2989.50635088 0 184.36396775 0 97.76972610 0 26061
0.15550000 0.15549900 9454.42162076 0 18.18935374 0 2471.11141704 0 238.30480987 0 -133.13851197 0 26128
0.15650000 0.15649500 9488.53970320 0 202.71040087 0 2536.78817651 0 29.74929823 0 -138.40561452 0 26331
0.15750000 0.15749700 9193.49408366 0 190.60210652 0 2350.57770211 0 -34.51561412 0 -347.74959878 0 27345
0.15850000 0.15849900 9063.86514263 0 73.39858445 0 2465.24565529 0 18.71002248 0 -99.95796280 0 26980
0.15950000 0.15949700 8973.74770918 0 28.33613297 0 2393.67018035 0 31.36501901 0 -311.35111907 0 27777
0.16050000 0.16050000 8864.47318114 0 168.47588197 0 2230.45041636 0 33.21240443 0 -220.67786624 0 28224
0.16150000 0.16150500 8891.22061537 0 -100.66547912 0 2197.93608152 0 466.56312965 0 -20.60266433 0 28075
0.16250000 0.16249700 8762.63520873 0 12.14871758 0 1896.83796249 0 93.03339809 0 -99.57306338 0 28590
0.16350000 0.16349900 8880.57656454 0 46.57151206 0 2074.94182233 0 46.35368799 0 -284.52459592 0 29163
0.16450000 0.16449100 8871.34952357 0 129.73219601 0 2067.17572951 0 -129.73329447 0 77.28580500 0 28996
0.16550000 0.16550500 8516.67964407 0 107.91419857 0 2182.01943585 0 -169.68088958 0 313.13721058 0 30777
0.16650000 0.16650700 8446.02687322 0 176.13762134 0 2418.25365378 0 -72.26684394 0 396.44201212 0 29211
0.16750000 0.16749900 8503.31141923 0 174.21751805 0 2696.53681556 0 156.60265746 0 254.41258710 0 30922
0.16850000 0.16850800 8372.81469697 0 119.48578671 0 2906.95728793 0 -44.92558371 0 245.44697896 0 30867
0.16950000 0.16949900 8165.40399749 0 99.75013469 0 2742.81481984 0 -170.10818945 0 568.68230711 0 30852
0.17050000 0.17049200 8066.42201396 0 -2.28853684 0 2697.99776371 0 205.85418555 0 979.32407620 0 31257
0.17150000 0.17149500 8182.46303871 0 -146.97467960 0 2544.65313048 0 434.14985288 0 769.66483472 0 32608
0.17250000 0.17250900 8184.34140062 0 18.56447689 0 2206.48207899 0 320.87474350 0 536.96435378 0 32361
0.17350000 0.17350400 8195.66649495 0 90.34712087 0 2050.69887064 0 -28.78584137 0 1005.67716428 0 32508
0.17450000 0.17449800 7892.21767739 0 176.09368305 0 1925.72738838 0 72.46885023 0 839.68599263 0 32791
0.17550000 0.17549800 8000.94297680 0 53.46488059 0 2171.82575249 0 40.78703614 0 778.39647146 0 33633
0.17650000 0.17650100 7989.72772819 0 28.03559506 0 1771.92140310 0 -59.62316151 0 251.36656512 0 33984
0.17750000 0.17750300 7757.76650899 0 64.67936027 0 2044.43766427 0 86.23878088 0 473.89533185 0 34069
0.17850000 0.17849800 7730.78839873 0 100.52059261 0 1892.75170149 0 -281.73012065 0 284.32028287 0 34536
