### header ###
fiducial parameters:
Omega_m = 0.31
Omega_nu = 0
Omega_de = 0.69
Omega_k = 0
H_0 = 100
w_de = -1
zeff = 0
beta = 0
fgrowth = 0
b_1 = 2
gamma = 0.55
Lx = 3500 Ly = 3500 Lz = 3500
nx = 700 ny = 700 nz = 700
xoffset = -983.599254 yoffset = -42.9823471 zoffset = 800.977702
bins = 400 dk = 0.001
kx_ny = 0.628318531 ky_ny = 0.628318531 kz_ny = 0.628318531
############################
A(data) = 9.13355537 (not used)
A(ran) = 9.11707836 (used)
Ngal = 506350
weighted Ngal = 0
Nran = 25229228
weighted Nran = 0
SN(data) = 6742.96914
SN(ran) = 135.336747
SN(data+ran) = 6878.30588
############################
13 columns: k_central k_mean P_0(k) sigma^{lin}_{P_0(k)} P^img_1(k) sigma^{lin}_{P_1(k)} P_2(k) sigma^{lin}_{P_2(k)} P^img_3(k) sigma^{lin}_{P_3(k)} P_4(k) sigma^{lin}_{P_4(k)} N_modes
### header ###
0.00050000 0 0 0 0 0 0 0 0 0 0 0 0
0.00150000 0.00179520 42034.22451412 0 -30774.48838962 0 34226.06078613 0 -76638.04475132 0 29320.35067130 0 3
0.00250000 0.00253879 29263.23089388 0 8503.86064786 0 -6686.28736112 0 11873.11465745 0 -8798.79642167 0 6
0.00350000 0.00331552 52146.62203251 0 1205.67767110 0 16705.22813598 0 15815.80729407 0 56879.76451208 0 7
0.00450000 0.00420575 31693.67742322 0 2570.03847771 0 23263.78688712 0 704.50325171 0 17823.78716194 0 24
0.00550000 0.00557378 37469.58537795 0 7320.37181338 0 35478.85128903 0 27241.52031028 0 8273.58006827 0 45
0.00650000 0.00659388 33246.45660332 0 -4299.97684440 0 27354.11217924 0 10637.87750153 0 17154.60700028 0 40
0.00750000 0.00754703 47835.39698578 0 -5372.60937240 0 32851.78091047 0 18255.59071011 0 22448.95129304 0 57
0.00850000 0.00846663 41739.50843177 0 976.93273475 0 38870.44791924 0 11906.83729527 0 7825.18981550 0 75
0.00950000 0.00948925 45597.40016806 0 -1540.55335082 0 22435.00088586 0 5576.30728635 0 16954.57793358 0 112
0.01050000 0.01054430 54615.84410307 0 -1920.64153128 0 35363.18373975 0 5757.42091907 0 4292.69407278 0 105
0.01150000 0.01145670 57519.61586495 0 -3984.31318213 0 37110.60954599 0 5660.72372663 0 1531.80963104 0 144
0.01250000 0.01249090 61116.07477380 0 5540.79416319 0 37903.14645773 0 -1802.03011654 0 10009.75767218 0 169
0.01350000 0.01339930 56792.76669724 0 -2442.06820714 0 20457.88766695 0 -6227.71440957 0 3425.94538868 0 180
0.01450000 0.01448870 73200.20307054 0 -750.65713032 0 37064.69403260 0 22860.21369049 0 2813.08313065 0 267
0.01550000 0.01550050 67169.34318620 0 -6317.34852183 0 27324.23414182 0 4287.58624653 0 23360.34128011 0 238
0.01650000 0.01653350 74355.78010610 0 -2227.13307544 0 15341.16391283 0 21391.90587354 0 -1272.15630436 0 315
0.01750000 0.01747870 74739.58107209 0 2380.10423321 0 19006.60593750 0 -7272.22643175 0 7497.28933937 0 297
0.01850000 0.01844180 69912.41065122 0 5571.13355266 0 19571.43265963 0 -11695.71381026 0 11393.19868137 0 388
0.01950000 0.01947590 66192.59499227 0 -132.17296804 0 22635.46933547 0 -1643.76439479 0 -5983.83492911 0 399
0.02050000 0.02045430 67425.28372735 0 479.44034409 0 27205.05152931 0 4319.39756873 0 -9443.99726138 0 462
0.02150000 0.02154770 64007.10443149 0 2804.52614861 0 20246.10510758 0 2348.77623221 0 -2344.42634146 0 571
0.02250000 0.02255340 69125.69556294 0 -3132.38268644 0 23295.86183906 0 1865.46602320 0 -7923.56764754 0 510
0.02350000 0.02348930 64308.08172022 0 468.83144389 0 20556.96851163 0 -1319.22519787 0 -16112.50059949 0 555
0.02450000 0.02439640 62824.28565593 0 5212.05885955 0 18702.22343127 0 1065.14104950 0 -4013.56509892 0 592
0.02550000 0.02547300 63710.63081752 0 413.27477114 0 18529.54595029 0 9088.05317146 0 2562.97539754 0 837
0.02650000 0.02652900 56949.73623943 0 -1577.07705465 0 17826.20376791 0 6106.15912938 0 5266.88286130 0 723
0.02750000 0.02749970 60067.15793801 0 3768.43337719 0 19346.02923026 0 933.28004331 0 -3621.86622524 0 826
0.02850000 0.02848090 56696.87137860 0 3847.36851576 0 15610.61547825 0 -6914.63465594 0 11775.35196147 0 831
0.02950000 0.02946900 50987.52993372 0 1060.43635706 0 22682.48330612 0 -1347.87296317 0 6394.35037562 0 996
0.03050000 0.03053250 51868.71234620 0 -1029.14460515 0 21775.48714808 0 6942.97485320 0 7632.12496781 0 1041
0.03150000 0.03150510 52608.08392665 0 259.79722458 0 20222.48827653 0 1339.79930232 0 3793.59903297 0 1036
0.03250000 0.03246190 53121.17331192 0 1293.65311290 0 19534.41465003 0 922.01536413 0 1554.63557286 0 1059
0.03350000 0.03345080 53953.03499351 0 345.25060852 0 21082.47046392 0 2573.80618611 0 5349.06943336 0 1302
0.03450000 0.03451200 50586.15365160 0 1586.35901848 0 19625.80629391 0 -3438.05038766 0 -775.85024754 0 1339
0.03550000 0.03553350 50599.66467588 0 859.40879270 0 26370.22401313 0 -1955.23195033 0 6462.43275648 0 1365
0.03650000 0.03647120 46837.33872104 0 492.15278993 0 24180.22977759 0 704.40439055 0 -444.60057523 0 1308
0.03750000 0.03744890 47696.77167981 0 2131.58926313 0 24425.95466623 0 296.62300416 0 1892.86154722 0 1579
0.03850000 0.03847530 46008.66256550 0 -332.58210096 0 22424.01631328 0 5150.38048450 0 -288.38127935 0 1662
0.03950000 0.03950240 46803.06685459 0 1.58686431 0 21686.62195589 0 3647.02089645 0 -740.43708399 0 1683
0.04050000 0.04050350 46575.46651070 0 1655.97923950 0 22158.51919399 0 -371.28953782 0 6651.13672886 0 1822
0.04150000 0.04152450 46302.39003633 0 -99.09171941 0 19124.47040130 0 1781.95031786 0 1751.36926780 0 1887
0.04250000 0.04250150 45955.16769703 0 567.13128546 0 18826.89833007 0 3132.31677901 0 -588.89062529 0 1920
0.04350000 0.04349210 44728.74016833 0 636.05288766 0 17988.66559639 0 -4459.97812862 0 -1640.89742135 0 2005
0.04450000 0.04448520 42187.45930163 0 585.37995589 0 18594.79431142 0 1214.64108233 0 -333.28840898 0 2151
0.04550000 0.04548030 41665.80194974 0 322.69928101 0 17588.82715442 0 3818.25939842 0 -523.31602235 0 2274
0.04650000 0.04648670 41297.59907682 0 782.69034088 0 12151.24403521 0 4663.80785744 0 -3688.86113341 0 2311
0.04750000 0.04749250 40417.51512160 0 741.93647815 0 14087.05526122 0 1788.22250881 0 2976.75326211 0 2568
0.04850000 0.04851840 37959.49731507 0 605.85190381 0 10460.42173148 0 990.22077220 0 1952.57368377 0 2493
0.04950000 0.04949480 38552.11500584 0 1463.77118847 0 12067.43174641 0 1919.76276547 0 3527.08034843 0 2644
0.05050000 0.05050630 37077.87551969 0 386.87005557 0 10858.71134871 0 -1354.84816676 0 -170.72222706 0 2829
0.05150000 0.05149060 35777.85135469 0 481.44612704 0 11456.25012799 0 -968.12640291 0 987.85469527 0 2784
0.05250000 0.05249300 35359.77852225 0 990.64587516 0 14022.57582017 0 -1171.88912584 0 905.48028703 0 3055
0.05350000 0.05348950 35065.72151424 0 796.20356207 0 13494.43757045 0 -762.57868694 0 1324.89323733 0 3009
0.05450000 0.05448610 35456.22306951 0 225.04643076 0 14721.19463634 0 631.77329819 0 139.37774920 0 3336
0.05550000 0.05550870 33140.45547791 0 564.50926799 0 15387.40896340 0 412.42456522 0 -717.82643979 0 3349
0.05650000 0.05647670 33670.79064214 0 952.98307115 0 17100.34321173 0 774.90557429 0 4090.69876758 0 3324
0.05750000 0.05747970 32355.82745843 0 919.28789476 0 17502.81795111 0 374.22900944 0 4244.66952146 0 3639
0.05850000 0.05849280 32039.91115099 0 113.16855902 0 17931.87535614 0 906.25360094 0 5193.14342556 0 3846
0.05950000 0.05951020 31659.95478540 0 -313.59416880 0 17480.73896022 0 2807.14047688 0 7241.46962852 0 3787
0.06050000 0.06049470 31725.86222089 0 -391.91307284 0 14338.93151051 0 1562.72021828 0 7100.08719483 0 3930
0.06150000 0.06148310 32402.62173762 0 -436.17980189 0 14305.86794704 0 4341.67428192 0 10302.61736178 0 4083
0.06250000 0.06249100 31980.70430477 0 -354.73468848 0 12011.84980915 0 1337.27285063 0 7500.88129461 0 4303
0.06350000 0.06350600 32435.13607246 0 1207.54504844 0 13106.46246688 0 -1671.23681082 0 7412.68616135 0 4470
0.06450000 0.06451750 30753.06847308 0 939.68734450 0 11986.03606358 0 -1690.51473570 0 6239.98417714 0 4479
0.06550000 0.06550280 30732.19778518 0 130.85042550 0 13156.77180930 0 -787.33242125 0 2863.24967363 0 4636
0.06650000 0.06648880 29351.32716598 0 305.85443895 0 13557.92839997 0 225.62531774 0 403.69073157 0 4653
0.06750000 0.06749660 30372.34318741 0 1375.44424035 0 13845.72420161 0 -1121.05252393 0 -1491.44132680 0 5220
0.06850000 0.06852730 29658.45581535 0 -432.19679587 0 13785.96812676 0 -527.02661097 0 -1251.21970902 0 5029
0.06950000 0.06949320 27966.94148355 0 -28.27220276 0 13758.83623249 0 862.03740092 0 -1847.89070707 0 5040
0.07050000 0.07048030 28558.90009996 0 860.32161069 0 12598.09644782 0 184.41229987 0 -2350.69853241 0 5475
0.07150000 0.07148790 27657.94545684 0 621.61915929 0 13352.07750980 0 3359.53266285 0 607.29857202 0 5509
0.07250000 0.07249820 27961.77873444 0 -304.43962601 0 11715.70573236 0 1004.96426552 0 -46.61874573 0 5916
0.07350000 0.07351270 27301.05669367 0 -142.55668450 0 11659.79425792 0 1992.67835826 0 1594.24594159 0 5721
0.07450000 0.07449140 27437.15554795 0 -236.17819661 0 9889.69629387 0 1420.87643254 0 2731.31397235 0 6028
0.07550000 0.07549160 27241.19077310 0 186.36425842 0 8999.82508448 0 -181.91990035 0 3481.61520252 0 6183
0.07650000 0.07648840 26748.53269283 0 741.98041644 0 9455.33334029 0 -1049.26944057 0 3617.34058133 0 6330
0.07750000 0.07749960 26415.37060644 0 714.21800770 0 10211.25867162 0 401.26643640 0 1565.65309916 0 6583
0.07850000 0.07848650 25834.94579124 0 597.27844491 0 10581.28498359 0 -142.70387778 0 1859.14989396 0 6549
0.07950000 0.07947320 25213.54852031 0 185.26360424 0 10074.09431379 0 -294.82043580 0 931.17210384 0 6828
0.08050000 0.08048110 24907.18879102 0 254.34448275 0 10630.48488418 0 1605.25248332 0 2218.99350716 0 7147
0.08150000 0.08149960 24327.75258735 0 -161.13049828 0 9468.88830285 0 1095.40135004 0 1235.89623027 0 7386
0.08250000 0.08250610 24107.84144427 0 793.87922651 0 8995.35436344 0 526.27197083 0 1838.75154268 0 7227
0.08350000 0.08350160 22856.58878153 0 777.20244842 0 8936.11456351 0 -1202.48116048 0 3096.97940901 0 7798
0.08450000 0.08449610 22476.74226167 0 539.23486493 0 9728.92608957 0 841.48087179 0 2018.21748952 0 7371
0.08550000 0.08548940 21909.38908784 0 164.45442994 0 9216.10033404 0 1752.09424959 0 2725.49214888 0 8256
0.08650000 0.08650700 22007.48132100 0 -145.04359174 0 8372.02380774 0 394.74928948 0 2725.97547008 0 8037
0.08750000 0.08749060 21563.37505153 0 403.75993437 0 7742.16841593 0 -47.85901382 0 2106.80806738 0 8155
0.08850000 0.08849210 21068.19051956 0 426.73636484 0 8106.18616670 0 -1060.69010069 0 1808.18147719 0 8718
0.08950000 0.08949900 20575.42259357 0 540.78368967 0 8917.22109867 0 -292.40932212 0 1885.58976017 0 8571
0.09050000 0.09049190 19964.35082087 0 331.33205660 0 9352.36395691 0 195.90435970 0 861.65733471 0 8932
0.09150000 0.09150830 19353.05935671 0 315.34510967 0 8648.23088530 0 212.87442588 0 143.97149745 0 9285
0.09250000 0.09250820 19350.97228792 0 255.79444633 0 9460.01276821 0 -58.85731711 0 229.21946988 0 9204
0.09350000 0.09350330 18763.29765482 0 389.50635299 0 8811.67034074 0 -366.50685492 0 -368.31930940 0 9349
0.09450000 0.09448040 18524.05366400 0 312.79009808 0 9267.76077889 0 553.76525754 0 383.39233989 0 9564
0.09550000 0.09549270 17866.73684073 0 214.96259313 0 8475.97081808 0 347.61119317 0 -31.75661902 0 10155
0.09650000 0.09649430 18195.39525237 0 22.51870333 0 8961.82944792 0 542.42258790 0 292.06989882 0 9913
0.09750000 0.09749140 17897.71333541 0 -229.57097621 0 7704.28262509 0 1292.12625732 0 -471.65667595 0 10476
0.09850000 0.09850240 18046.99367679 0 20.04322005 0 7361.24540795 0 199.35681086 0 832.42299324 0 10575
0.09950000 0.09950330 17666.59792830 0 -70.02489267 0 6365.87836349 0 864.58582176 0 538.97123519 0 10882
0.10050000 0.10051200 17938.46609969 0 444.37758841 0 6274.31096646 0 683.31401120 0 442.37180545 0 10875
0.10150000 0.10150300 17407.80139828 0 68.53406648 0 6391.79097021 0 9.51667119 0 835.64476838 0 11118
0.10250000 0.10250800 16979.84245051 0 730.16321326 0 6512.98375950 0 -685.09461041 0 673.13350933 0 11575
0.10350000 0.10349800 16300.88601926 0 317.52774424 0 6198.02310988 0 259.85434436 0 1560.61118035 0 11364
0.10450000 0.10450100 16305.38969402 0 -123.19088304 0 6152.41516452 0 157.13980306 0 1229.14071813 0 12093
0.10550000 0.10551000 15968.05347005 0 394.99424545 0 6668.16281636 0 397.71841945 0 -39.18889068 0 12067
0.10650000 0.10649700 16004.41240529 0 265.22360343 0 6532.04199293 0 -628.16047226 0 492.41532122 0 12054
0.10750000 0.10749900 15501.53867252 0 126.07213643 0 6623.42265224 0 -20.77874703 0 376.29850292 0 12807
0.10850000 0.10850100 15325.45597404 0 -240.04256925 0 6564.28171346 0 196.21302619 0 -195.84174764 0 12736
0.10950000 0.10950300 15587.10849293 0 90.68149126 0 6018.48027104 0 704.07924720 0 370.24929880 0 12933
0.11050000 0.11050200 15912.25184133 0 -122.68119887 0 5909.43641902 0 1100.10494402 0 471.43918142 0 13428
0.11150000 0.11150900 15299.53238275 0 179.74275806 0 4879.47895550 0 -156.28630177 0 273.49718350 0 13453
0.11250000 0.11250000 15491.65255719 0 320.93515865 0 5365.86484483 0 594.68388887 0 955.57323337 0 13668
0.11350000 0.11349100 14615.52304811 0 162.16963885 0 5476.79804333 0 -33.79315878 0 1269.79462126 0 13791
0.11450000 0.11448600 14949.01467168 0 216.52899318 0 5399.41172950 0 412.09173268 0 1677.66278578 0 14205
0.11550000 0.11549300 14476.34851350 0 141.72734927 0 5451.54451097 0 -539.30626465 0 725.20587565 0 14776
0.11650000 0.11649800 14259.40320502 0 334.53625642 0 5157.37765724 0 -146.29473455 0 826.54185308 0 14553
0.11750000 0.11747300 13870.54933564 0 -39.64409137 0 5379.48571483 0 253.47450460 0 1123.02974700 0 14568
0.11850000 0.11849100 13826.28150814 0 128.20973425 0 5188.50793593 0 647.60096882 0 455.16334022 0 16015
0.11950000 0.11950300 14036.96561025 0 79.69955498 0 4902.37080476 0 269.13740664 0 1026.18316438 0 15270
0.12050000 0.12050700 13829.24734273 0 32.82739516 0 4484.72637065 0 210.32270967 0 671.50559567 0 15999
0.12150000 0.12150000 13738.95415612 0 105.27405655 0 4057.99769501 0 224.97173567 0 552.14503309 0 15670
0.12250000 0.12250700 13692.59925982 0 134.65108762 0 4458.84671765 0 -249.39263743 0 792.32820486 0 16887
0.12350000 0.12352200 12998.04473550 0 368.88391643 0 4539.81400214 0 174.79201120 0 884.25150205 0 16407
0.12450000 0.12449800 13251.01944205 0 16.52760760 0 4404.42914508 0 -127.28483324 0 340.05820106 0 16306
0.12550000 0.12549900 13052.85775268 0 47.36306036 0 4410.30589141 0 338.15896846 0 441.14482870 0 17523
0.12650000 0.12650100 12850.96130864 0 225.62641619 0 4349.79188106 0 -87.63865481 0 444.79829754 0 17154
0.12750000 0.12750600 12746.60786912 0 152.21432072 0 4521.85422597 0 -187.88232635 0 685.39339079 0 18007
0.12850000 0.12850300 12612.15670072 0 78.03187717 0 4906.58888063 0 -36.36387830 0 317.40911085 0 17496
0.12950000 0.12949900 12550.42340281 0 73.66770648 0 4903.37040087 0 -135.00259394 0 -91.33738009 0 18405
0.13050000 0.13049000 12488.03103055 0 106.96820718 0 5214.92583299 0 -59.22332307 0 191.13595674 0 18100
0.13150000 0.13148800 12283.82782626 0 39.56159723 0 5021.91590817 0 124.85943962 0 -181.23006919 0 19059
0.13250000 0.13249300 12315.02401240 0 -47.32120914 0 4548.97513568 0 619.85393848 0 327.16780513 0 18957
0.13350000 0.13349100 12481.44028700 0 200.33004399 0 4518.50393134 0 457.94792937 0 171.34065850 0 19468
0.13450000 0.13450700 12198.14816013 0 59.57636724 0 4258.33432975 0 86.40640546 0 368.14026086 0 19953
0.13550000 0.13551000 12126.96812980 0 244.13871636 0 4255.06092712 0 60.40636154 0 87.61382967 0 19956
0.13650000 0.13649900 11847.74029479 0 -84.12007652 0 3679.86476847 0 -62.12006471 0 136.47232975 0 19723
0.13750000 0.13749600 11627.71930598 0 173.73529532 0 3715.42182991 0 57.06221826 0 -96.47178900 0 20946
0.13850000 0.13851100 11460.20457412 0 185.18012149 0 3820.59911238 0 256.33378884 0 251.09195081 0 20955
0.13950000 0.13949800 11230.18762426 0 -108.52241435 0 3101.75769808 0 860.26339245 0 -142.40070357 0 20506
0.14050000 0.14048300 11512.27144815 0 147.35913964 0 2971.96398846 0 183.81803449 0 -179.53295273 0 21447
0.14150000 0.14148400 11104.30442248 0 230.15096164 0 2674.55668582 0 -148.25548076 0 155.64040891 0 21771
0.14250000 0.14249400 10811.55457861 0 171.34944615 0 2913.14160229 0 -272.32073578 0 259.01182764 0 22470
0.14350000 0.14350900 10856.97578624 0 116.12560596 0 2922.93984103 0 -155.81726052 0 -262.93991079 0 22519
0.14450000 0.14449900 10634.52720689 0 68.26099001 0 3263.20894588 0 154.48373341 0 39.28324816 0 22218
0.14550000 0.14550500 10547.73809893 0 -9.25729248 0 2926.69656486 0 -16.36437685 0 -398.61366212 0 23559
0.14650000 0.14650700 10712.34191906 0 131.08439690 0 2944.99686278 0 220.70972151 0 -265.51798998 0 23044
0.14750000 0.14750500 10363.83438477 0 126.87840406 0 2909.95607624 0 136.67554434 0 -105.52703126 0 23649
0.14850000 0.14849900 10369.96377627 0 46.46298449 0 2740.81562763 0 187.23972885 0 489.15949391 0 23640
0.14950000 0.14949500 10243.69611445 0 -40.84195901 0 2567.12756598 0 654.60253538 0 353.53077933 0 24457
0.15050000 0.15050000 10213.89496904 0 250.34390142 0 2843.42252012 0 -62.09655772 0 546.80872773 0 24591
0.15150000 0.15149900 9971.57529789 0 213.06336053 0 2567.27036542 0 -329.54926047 0 603.15189587 0 25020
0.15250000 0.15250500 9564.58589918 0 285.14083044 0 2949.56644497 0 60.16129573 0 843.27245558 0 25297
0.15350000 0.15350100 9320.55263471 0 63.94526129 0 3188.37105289 0 -167.99915152 0 952.66232163 0 25452
0.15450000 0.15450400 9303.92199183 0 88.86892694 0 3060.19207544 0 -171.16600379 0 170.91116171 0 26061
0.15550000 0.15549900 9282.55699815 0 98.93288249 0 3078.90978712 0 24.95991474 0 -52.59380398 0 26128
0.15650000 0.15649500 9067.41315958 0 -86.56238639 0 2829.62589695 0 402.49231470 0 472.09715732 0 26331
0.15750000 0.15749700 9261.97190914 0 -68.37841509 0 2777.55902292 0 202.43688502 0 -201.51418092 0 27345
0.15850000 0.15849900 9197.31671492 0 318.91399730 0 2645.03015472 0 -358.15638284 0 -272.39872624 0 26980
0.15950000 0.15949700 9029.98872079 0 217.42313739 0 2851.03482892 0 -357.53904986 0 -399.53856313 0 27777
0.16050000 0.16050000 8615.54079730 0 119.07496370 0 3297.99708725 0 -173.62544959 0 -285.98444561 0 28224
0.16150000 0.16150500 8687.00642651 0 -10.95994517 0 3258.70527113 0 256.58423710 0 -428.86187964 0 28075
0.16250000 0.16249700 8714.36899681 0 -30.55809231 0 2991.86803398 0 283.96548117 0 -301.91537123 0 28590
0.16350000 0.16349900 8679.94334634 0 123.77086847 0 2942.96471685 0 42.85081764 0 -172.81918197 0 29163
0.16450000 0.16449100 8413.98487500 0 77.41388511 0 2932.68315691 0 164.02053933 0 388.16513668 0 28996
0.16550000 0.16550500 8667.68456334 0 27.44978781 0 2653.80682822 0 482.17330574 0 480.62008718 0 30777
0.16650000 0.16650700 8547.88681477 0 -24.85083793 0 2723.63575612 0 399.45068655 0 576.39567398 0 29211
0.16750000 0.16749900 8420.96007859 0 181.11033735 0 2706.36800802 0 -241.64961222 0 576.69665126 0 30922
0.16850000 0.16850800 8255.00515603 0 191.30511916 0 2619.13951715 0 -167.44333214 0 1201.87700899 0 30867
0.16950000 0.16949900 8183.64937254 0 -134.37317793 0 2608.81401892 0 454.49328130 0 373.40296959 0 30852
0.17050000 0.17049200 8222.65558978 0 23.40702571 0 2623.41251588 0 -214.06515355 0 1008.48042721 0 31257
0.17150000 0.17149500 8182.79257588 0 82.72009274 0 2323.29202382 0 128.64911716 0 604.73806815 0 32608
0.17250000 0.17250900 8188.77916794 0 3.33080801 0 2478.93243272 0 136.60743999 0 497.64507623 0 32361
0.17350000 0.17350400 8190.06436293 0 83.49900879 0 2268.34719177 0 -211.10041741 0 292.09845871 0 32508
0.17450000 0.17449800 8079.01033413 0 53.87361653 0 2416.15560042 0 212.43174761 0 346.80931937 0 32791
0.17550000 0.17549800 7975.05233922 0 140.07636801 0 2431.92944665 0 133.37577874 0 461.99903974 0 33633
0.17650000 0.17650100 7955.21420114 0 49.85161528 0 2269.69829419 0 -165.99776239 0 222.46725312 0 33984
0.17750000 0.17750300 7650.76578748 0 74.82646904 0 2393.78002607 0 239.94810192 0 527.95151198 0 34069
0.17850000 0.17849800 7692.70488559 0 169.70176027 0 2371.89875749 0 -171.24728963 0 397.62065676 0 34536
