### header ###
fiducial parameters:
Omega_m = 0.31
Omega_nu = 0
Omega_de = 0.69
Omega_k = 0
H_0 = 100
w_de = -1
zeff = 0
beta = 0
fgrowth = 0
b_1 = 2
gamma = 0.55
Lx = 3500 Ly = 3500 Lz = 3500
nx = 700 ny = 700 nz = 700
xoffset = -983.599254 yoffset = -42.9823471 zoffset = 800.977702
bins = 400 dk = 0.001
kx_ny = 0.628318531 ky_ny = 0.628318531 kz_ny = 0.628318531
############################
A(data) = 9.00613874 (not used)
A(ran) = 9.00467429 (used)
Ngal = 500053
weighted Ngal = 0
Nran = 25229228
weighted Nran = 0
SN(data) = 6759.11421
SN(ran) = 133.668186
SN(data+ran) = 6892.78239
############################
13 columns: k_central k_mean P_0(k) sigma^{lin}_{P_0(k)} P^img_1(k) sigma^{lin}_{P_1(k)} P_2(k) sigma^{lin}_{P_2(k)} P^img_3(k) sigma^{lin}_{P_3(k)} P_4(k) sigma^{lin}_{P_4(k)} N_modes
### header ###
0.00050000 0 0 0 0 0 0 0 0 0 0 0 0
0.00150000 0.00179520 34439.82056856 0 14136.04645493 0 21053.58103803 0 -18664.10696441 0 -83917.63084670 0 3
0.00250000 0.00253879 58179.56898563 0 27320.06000424 0 18071.26958220 0 -11935.83656689 0 45374.63303611 0 6
0.00350000 0.00331552 46730.78836700 0 14927.48490942 0 28025.37940968 0 -14335.41644728 0 62997.40251981 0 7
0.00450000 0.00420575 51084.85324679 0 -12240.76830175 0 12193.20510247 0 11657.59734340 0 -24745.71557407 0 24
0.00550000 0.00557378 52795.92011779 0 5100.62037071 0 11685.27846631 0 -22283.30393851 0 -20401.09742670 0 45
0.00650000 0.00659388 55510.31784837 0 -1141.72548953 0 19524.96791761 0 20759.96341293 0 40140.48420110 0 40
0.00750000 0.00754703 60587.38729546 0 -18892.14669120 0 29595.62406019 0 9861.64169550 0 7144.01450058 0 57
0.00850000 0.00846663 69899.22916412 0 -3249.70890618 0 -2631.36534643 0 11259.95581596 0 -18933.22899265 0 75
0.00950000 0.00948925 72491.58829332 0 9629.04337109 0 27908.61340314 0 -23949.22421620 0 -15616.10776454 0 112
0.01050000 0.01054430 69820.46977871 0 8710.31568953 0 31475.74350321 0 -10770.64803032 0 6648.13794054 0 105
0.01150000 0.01145670 68968.06694640 0 -4570.55982080 0 34814.17480213 0 11454.05321347 0 -17213.92369222 0 144
0.01250000 0.01249090 69537.72688047 0 -2693.71378041 0 33890.70178522 0 -2877.26598824 0 -11407.14908855 0 169
0.01350000 0.01339930 74899.40660315 0 1899.00192329 0 31168.61485384 0 -6520.24456198 0 -25187.40523757 0 180
0.01450000 0.01448870 67564.34841623 0 1404.14692850 0 32019.69953744 0 -1341.06252817 0 -24453.52594341 0 267
0.01550000 0.01550050 78142.27212061 0 -1949.70671033 0 36733.94855217 0 19863.40259884 0 -8687.11627224 0 238
0.01650000 0.01653350 80581.94569093 0 -8954.89818263 0 16493.55542234 0 5996.36832643 0 -4861.69493249 0 315
0.01750000 0.01747870 83917.41115525 0 -983.53336442 0 16974.78954713 0 18076.76186849 0 -16837.92177276 0 297
0.01850000 0.01844180 84539.02811763 0 -739.40123880 0 -1068.77254919 0 -8761.72348921 0 -19411.49728285 0 388
0.01950000 0.01947590 84763.88231837 0 7265.83341051 0 7460.68874353 0 -2557.65886441 0 -7181.46090851 0 399
0.02050000 0.02045430 79943.41248677 0 5188.31021363 0 25879.76284737 0 -9193.03273162 0 -15060.17854620 0 462
0.02150000 0.02154770 71969.93094143 0 3975.21795603 0 21735.72299533 0 -6906.30834992 0 -10766.19927843 0 571
0.02250000 0.02255340 68298.44740184 0 -1096.24606367 0 24157.71140379 0 5079.51900678 0 -13916.02546613 0 510
0.02350000 0.02348930 64654.42529371 0 806.91901262 0 22491.90097183 0 7124.82445228 0 -10462.32206254 0 555
0.02450000 0.02439640 68577.01616250 0 1668.51263682 0 13402.93608085 0 7986.04789638 0 -8144.89580048 0 592
0.02550000 0.02547300 68973.99861559 0 302.93583802 0 16632.72995694 0 1864.70808769 0 -9996.11483304 0 837
0.02650000 0.02652900 66145.03179299 0 2067.26360609 0 16484.10868992 0 -4420.46662105 0 -11197.56344370 0 723
0.02750000 0.02749970 61965.18223434 0 2663.30848350 0 19941.83244707 0 -7632.69616558 0 -962.96914609 0 826
0.02850000 0.02848090 58884.22931673 0 2699.66741874 0 17806.54138299 0 2836.05187191 0 -8291.17735354 0 831
0.02950000 0.02946900 58104.65420063 0 -1673.37880247 0 18359.06538383 0 2502.07692715 0 -11138.02706030 0 996
0.03050000 0.03053250 58401.01796887 0 1881.66826776 0 22105.79324560 0 1713.61529183 0 -5085.29689196 0 1041
0.03150000 0.03150510 54748.97712275 0 1795.91170961 0 15239.88615363 0 2396.47124635 0 2278.15641508 0 1036
0.03250000 0.03246190 56597.90037965 0 651.40272939 0 24049.51336387 0 4888.72796562 0 2795.25516935 0 1059
0.03350000 0.03345080 57415.26242542 0 2147.52787794 0 18177.27070761 0 1727.04942410 0 1540.58630453 0 1302
0.03450000 0.03451200 54146.58316239 0 -313.02406948 0 25216.95373781 0 -1303.82482712 0 11313.78022161 0 1339
0.03550000 0.03553350 52915.76180465 0 2634.40807304 0 24616.75669197 0 -3440.12647188 0 4870.51554428 0 1365
0.03650000 0.03647120 50551.66209370 0 737.33504069 0 27462.85944779 0 1202.17359245 0 10185.01652772 0 1308
0.03750000 0.03744890 50964.13279413 0 1887.83061297 0 30194.72264877 0 3300.07317147 0 11591.25052501 0 1579
0.03850000 0.03847530 47037.91701638 0 826.89665478 0 29024.31644023 0 -1498.54834526 0 6423.71213813 0 1662
0.03950000 0.03950240 48038.06234991 0 459.63076589 0 28797.92439933 0 6339.44948186 0 7044.59313415 0 1683
0.04050000 0.04050350 48771.17272399 0 64.41320408 0 26008.61188375 0 1700.74137277 0 4953.97632675 0 1822
0.04150000 0.04152450 46076.21768688 0 821.08252051 0 24117.39802242 0 3061.70794645 0 6445.91195932 0 1887
0.04250000 0.04250150 45661.11068903 0 770.84018398 0 23710.85899118 0 -2288.84440420 0 3892.80070796 0 1920
0.04350000 0.04349210 43406.63701244 0 3642.34146853 0 23844.98062240 0 -432.70208621 0 -650.99959558 0 2005
0.04450000 0.04448520 41505.64688151 0 1259.90850593 0 25651.50342913 0 367.25600277 0 3617.91177911 0 2151
0.04550000 0.04548030 38061.87353153 0 -8.62898591 0 25388.64260726 0 3646.49363697 0 1816.02446201 0 2274
0.04650000 0.04648670 40027.01356633 0 -328.68587307 0 22158.95857689 0 4164.98743195 0 2352.53295603 0 2311
0.04750000 0.04749250 39030.60298748 0 313.09217383 0 19514.64241939 0 3313.11185912 0 3133.19554481 0 2568
0.04850000 0.04851840 39358.16294186 0 860.79065194 0 18704.53019151 0 1957.20917340 0 7397.46154375 0 2493
0.04950000 0.04949480 37911.71442434 0 -239.87780066 0 18742.97619555 0 -499.83430154 0 7085.19211441 0 2644
0.05050000 0.05050630 37632.59643505 0 355.09168709 0 16464.99553363 0 3178.35312269 0 7111.11570570 0 2829
0.05150000 0.05149060 37466.61954335 0 -520.92248398 0 16197.63103700 0 3274.47911735 0 10239.09357854 0 2784
0.05250000 0.05249300 36985.05588138 0 485.30390893 0 15099.17377886 0 3018.87909796 0 10042.12920758 0 3055
0.05350000 0.05348950 37924.34668281 0 625.70761721 0 14664.95362472 0 1328.59503829 0 9228.06253358 0 3009
0.05450000 0.05448610 36891.79686017 0 397.99632914 0 15452.98686171 0 -904.31372542 0 11591.58006219 0 3336
0.05550000 0.05550870 35287.06065176 0 484.70524972 0 11304.44333491 0 814.82570797 0 8753.82558152 0 3349
0.05650000 0.05647670 34830.76150673 0 -172.38529135 0 13108.65938140 0 2742.54020553 0 12304.58866844 0 3324
0.05750000 0.05747970 36727.24796290 0 72.87956340 0 10293.06078363 0 2458.07272939 0 9018.38901215 0 3639
0.05850000 0.05849280 35977.99026713 0 -188.54469607 0 10883.16300727 0 1007.23697359 0 10643.93000102 0 3846
0.05950000 0.05951020 34121.37780943 0 689.74218307 0 7946.42654308 0 -227.07528132 0 6290.94160934 0 3787
0.06050000 0.06049470 34458.38449622 0 881.70747504 0 8404.68094203 0 -1454.80777725 0 4861.07979643 0 3930
0.06150000 0.06148310 32593.20407191 0 1611.64550456 0 10554.66936423 0 -2814.92853884 0 3309.53088846 0 4083
0.06250000 0.06249100 32296.95014939 0 167.72343874 0 12450.68348378 0 -623.34922947 0 3139.16016772 0 4303
0.06350000 0.06350600 31468.16414813 0 -102.35468670 0 10052.69636640 0 1881.22888485 0 -552.01651359 0 4470
0.06450000 0.06451750 32006.95743324 0 -426.20361307 0 10999.40175433 0 -480.92106447 0 -1795.45035757 0 4479
0.06550000 0.06550280 31874.15395074 0 727.83228695 0 10497.02232732 0 -322.09073569 0 -4040.72994691 0 4636
0.06650000 0.06648880 30391.12680653 0 800.03058716 0 10730.22480322 0 -377.14431501 0 1527.18512598 0 4653
0.06750000 0.06749660 30558.75138412 0 90.53363891 0 10171.69224118 0 2325.24727774 0 170.20924752 0 5220
0.06850000 0.06852730 30772.84070373 0 260.19486611 0 10682.49683536 0 1204.49133726 0 -934.48724784 0 5029
0.06950000 0.06949320 29666.69424479 0 497.04751548 0 9072.91643044 0 339.58037215 0 -976.75698159 0 5040
0.07050000 0.07048030 29027.83150346 0 -104.61322466 0 9592.90412730 0 -60.48698830 0 389.73043827 0 5475
0.07150000 0.07148790 29060.12614685 0 712.38907636 0 9729.94765482 0 -456.31122806 0 2332.72777166 0 5509
0.07250000 0.07249820 28325.25824115 0 -79.13648578 0 8879.06069352 0 1184.27972371 0 351.82048138 0 5916
0.07350000 0.07351270 28059.21189323 0 461.22792275 0 8553.86242225 0 381.83472750 0 701.59014306 0 5721
0.07450000 0.07449140 28086.67332469 0 918.08837943 0 9368.97263065 0 1.86044607 0 -434.39480884 0 6028
0.07550000 0.07549160 27140.13270535 0 -136.62171994 0 7922.05177652 0 373.02180492 0 2124.61405954 0 6183
0.07650000 0.07648840 27121.89831487 0 -313.20531493 0 9472.43631980 0 -543.81433324 0 -1195.09952770 0 6330
0.07750000 0.07749960 26090.11741230 0 1482.23625498 0 9076.71709255 0 -1250.09928262 0 -1991.10756438 0 6583
0.07850000 0.07848650 25911.61810786 0 1275.59447558 0 11113.09208054 0 -1804.76527511 0 -723.38243660 0 6549
0.07950000 0.07947320 24259.75808307 0 116.20359642 0 11214.80922265 0 64.33235763 0 -1111.79252925 0 6828
0.08050000 0.08048110 24807.66856343 0 -232.94433845 0 11972.52503931 0 2184.65573327 0 -740.70400910 0 7147
0.08150000 0.08149960 24567.76549825 0 -470.68783665 0 9794.36118844 0 2184.49096468 0 44.99797204 0 7386
0.08250000 0.08250610 24656.41099899 0 380.45067135 0 10238.29170474 0 1373.51095557 0 554.66818941 0 7227
0.08350000 0.08350160 24297.32532130 0 829.77461279 0 8813.49377979 0 -286.95548183 0 3728.42756385 0 7798
0.08450000 0.08449610 23585.52501803 0 431.67393022 0 8711.34823935 0 1279.64778286 0 3006.57637667 0 7371
0.08550000 0.08548940 22912.61010170 0 -133.56031956 0 9051.26583788 0 782.84412490 0 4795.99620389 0 8256
0.08650000 0.08650700 22647.88190249 0 440.28803203 0 9115.02029714 0 135.24205762 0 3568.01985044 0 8037
0.08750000 0.08749060 21933.66499325 0 620.88099602 0 7831.34117614 0 32.79378237 0 5365.24970877 0 8155
0.08850000 0.08849210 21514.27401209 0 71.46068616 0 8186.39551569 0 217.59889055 0 3454.08786363 0 8718
0.08950000 0.08949900 21432.32910064 0 302.95341334 0 7656.26905834 0 851.72178881 0 4030.92072359 0 8571
0.09050000 0.09049190 20969.21952061 0 768.64107255 0 9249.08700550 0 -200.45087429 0 3027.19441940 0 8932
0.09150000 0.09150830 19739.16708295 0 632.06109399 0 8490.40454645 0 -1104.99307882 0 3095.52944543 0 9285
0.09250000 0.09250820 19769.37465755 0 210.33808807 0 8802.47625349 0 959.49802115 0 2707.43351156 0 9204
0.09350000 0.09350330 19383.48662276 0 -163.56248265 0 8507.62835626 0 -746.96082165 0 1194.05599331 0 9349
0.09450000 0.09448040 19195.87012307 0 256.13606654 0 8330.62295368 0 847.41144253 0 1129.23603051 0 9564
0.09550000 0.09549270 19009.57177210 0 412.77717000 0 8668.55234458 0 -240.52369353 0 -517.83142526 0 10155
0.09650000 0.09649430 18246.58336060 0 460.10090560 0 8024.41700841 0 -1109.72742960 0 900.75692082 0 9913
0.09750000 0.09749140 18191.66049769 0 -86.79569871 0 8317.62820432 0 1141.68155124 0 -650.74585195 0 10476
0.09850000 0.09850240 17857.39995404 0 -8.96025865 0 7082.98421532 0 322.89151103 0 -356.06162485 0 10575
0.09950000 0.09950330 17747.88376540 0 441.85333363 0 7587.49464941 0 495.22737180 0 -1626.46369297 0 10882
0.10050000 0.10051200 17525.77570781 0 504.85315275 0 7081.85280435 0 56.47772916 0 -533.27134048 0 10875
0.10150000 0.10150300 16992.47470898 0 136.53933564 0 7249.33458249 0 -66.12438080 0 -528.88739756 0 11118
0.10250000 0.10250800 16762.78729631 0 203.24644802 0 7054.80878665 0 721.40301662 0 -39.15286128 0 11575
0.10350000 0.10349800 16331.31328531 0 -232.30943015 0 6450.17397348 0 1626.14514037 0 536.50300173 0 11364
0.10450000 0.10450100 16686.77405404 0 -135.96154713 0 5771.99744688 0 886.16721151 0 690.76924061 0 12093
0.10550000 0.10551000 16399.85701822 0 308.32926316 0 5323.57424039 0 -103.04166187 0 876.88744460 0 12067
0.10650000 0.10649700 16076.36135570 0 524.19149278 0 5006.92196659 0 -496.90801140 0 812.57277213 0 12054
0.10750000 0.10749900 15577.88145196 0 14.59366375 0 5478.39080636 0 -105.15498378 0 1859.96275234 0 12807
0.10850000 0.10850100 15446.39611816 0 209.29894751 0 5331.34033321 0 392.98956096 0 423.34432883 0 12736
0.10950000 0.10950300 15470.12279493 0 87.21629799 0 5461.01321253 0 -198.94928322 0 253.80184486 0 12933
0.11050000 0.11050200 15231.97726137 0 201.74156157 0 5404.45364831 0 -228.50766958 0 572.22373331 0 13428
0.11150000 0.11150900 14662.64686448 0 270.47532758 0 5783.25663378 0 -79.84180519 0 -485.68617206 0 13453
0.11250000 0.11250000 14848.61567828 0 62.77946860 0 5690.01958171 0 345.52302592 0 385.45963645 0 13668
0.11350000 0.11349100 14524.13140423 0 -20.06496951 0 5474.39242194 0 630.27500249 0 -297.46771779 0 13791
0.11450000 0.11448600 14791.38605513 0 83.96837957 0 5294.94844425 0 270.47422913 0 354.18545986 0 14205
0.11550000 0.11549300 14680.00248916 0 174.29111469 0 5297.40898851 0 -209.42417164 0 151.41354538 0 14776
0.11650000 0.11649800 14080.24482622 0 292.27311342 0 5372.92792500 0 -19.71423210 0 276.72115555 0 14553
0.11750000 0.11747300 14395.50205930 0 233.03331348 0 5537.59765257 0 -222.32005985 0 526.11049761 0 14568
0.11850000 0.11849100 13820.89906757 0 10.59479601 0 5200.70081150 0 696.89094291 0 543.20029563 0 16015
0.11950000 0.11950300 14005.87926984 0 18.54514404 0 5453.02742827 0 423.12024355 0 558.71820132 0 15270
0.12050000 0.12050700 13728.95819507 0 213.90697571 0 5291.43338102 0 -661.97977433 0 266.12653530 0 15999
0.12150000 0.12150000 13733.68156128 0 309.18605982 0 5391.44791437 0 413.66911730 0 976.96129464 0 15670
0.12250000 0.12250700 13303.30600754 0 -299.52842361 0 4774.46644163 0 539.72257996 0 509.22171727 0 16887
0.12350000 0.12352200 13667.55443434 0 -127.90106777 0 4664.34610150 0 429.69341178 0 726.56137191 0 16407
0.12450000 0.12449800 13444.78730239 0 203.61223428 0 3968.53933591 0 361.80545786 0 788.16065803 0 16306
0.12550000 0.12549900 13328.24098730 0 451.62850477 0 4124.16876024 0 0.24530747 0 1245.44182385 0 17523
0.12650000 0.12650100 13245.52715576 0 94.12131016 0 3818.88551906 0 -166.81611305 0 1069.59529368 0 17154
0.12750000 0.12750600 12784.28495307 0 32.14294644 0 4234.72848327 0 731.40996224 0 759.98083553 0 18007
0.12850000 0.12850300 12461.22867345 0 285.46707224 0 4069.90497169 0 -397.12305562 0 896.28070749 0 17496
0.12950000 0.12949900 12123.12352940 0 457.94243709 0 3994.79246437 0 -84.53221768 0 1445.61369000 0 18405
0.13050000 0.13049000 11980.10439439 0 -33.72406582 0 4216.76870710 0 447.72239076 0 1398.73153422 0 18100
0.13150000 0.13148800 11836.86556793 0 -24.12662506 0 4449.60869211 0 19.33790065 0 628.25823496 0 19059
0.13250000 0.13249300 11905.73883801 0 318.31863346 0 4149.12570914 0 -219.06423253 0 779.34114470 0 18957
0.13350000 0.13349100 11830.60436156 0 -115.27430158 0 3903.75232682 0 37.73332497 0 1054.55741381 0 19468
0.13450000 0.13450700 11510.73360799 0 -92.57017867 0 4180.53060215 0 552.97436832 0 776.85204056 0 19953
0.13550000 0.13551000 11909.03420979 0 155.97324145 0 4084.38263835 0 -189.14994602 0 453.72326276 0 19956
0.13650000 0.13649900 11617.94303638 0 94.68372028 0 3579.75137396 0 558.71161058 0 665.85732845 0 19723
0.13750000 0.13749600 11889.15213342 0 -15.69519669 0 3581.98124220 0 509.26126173 0 1417.93256709 0 20946
0.13850000 0.13851100 11386.38824637 0 -90.65754489 0 3152.86891431 0 -0.31910842 0 676.02245192 0 20955
0.13950000 0.13949800 11501.61641275 0 307.83385893 0 2997.60198087 0 307.76026230 0 1246.72701884 0 20506
0.14050000 0.14048300 11005.77280643 0 164.16224031 0 2894.24813745 0 -412.25759972 0 1360.90066625 0 21447
0.14150000 0.14148400 10902.11139498 0 263.39906593 0 3428.38396379 0 181.74854102 0 1080.73804410 0 21771
0.14250000 0.14249400 10956.72668985 0 248.28209714 0 3404.97583962 0 -134.23367386 0 1005.59368153 0 22470
0.14350000 0.14350900 10449.26140574 0 74.81779123 0 3478.40770733 0 -207.30854296 0 666.47246451 0 22519
0.14450000 0.14449900 10511.43408655 0 78.33988458 0 3470.04844759 0 78.13952598 0 446.11644625 0 22218
0.14550000 0.14550500 10433.01522289 0 -69.92658075 0 3527.38791647 0 175.54555288 0 741.49489833 0 23559
0.14650000 0.14650700 10550.62704152 0 -84.03780207 0 3060.71933492 0 250.39662736 0 304.06065825 0 23044
0.14750000 0.14750500 10450.70038474 0 108.85250076 0 3146.92626054 0 -235.28185549 0 -299.65804156 0 23649
0.14850000 0.14849900 10481.74278686 0 98.81655587 0 2930.60707269 0 162.28387840 0 87.65205599 0 23640
0.14950000 0.14949500 10395.40404637 0 -62.84219051 0 3003.72038780 0 -132.17406650 0 -733.97266303 0 24457
0.15050000 0.15050000 10291.02863770 0 266.16278439 0 2823.61733575 0 -183.88833576 0 -588.87414843 0 24591
0.15150000 0.15149900 10126.00740381 0 163.10662289 0 2957.44238351 0 -166.40089621 0 -1028.28121774 0 25020
0.15250000 0.15250500 9797.17323902 0 72.46445640 0 2709.39975005 0 354.83135272 0 -636.06167532 0 25297
0.15350000 0.15350100 9715.61278760 0 197.64651291 0 2720.17561575 0 672.68643722 0 -255.20347633 0 25452
0.15450000 0.15450400 9781.55317681 0 -88.53126118 0 2488.47802630 0 141.61530663 0 -19.95248748 0 26061
0.15550000 0.15549900 9472.84274898 0 68.31865902 0 2523.91425744 0 471.42599993 0 627.95615921 0 26128
0.15650000 0.15649500 9405.18876645 0 221.11944606 0 2441.84851569 0 -203.42879192 0 757.62134934 0 26331
0.15750000 0.15749700 9098.66426857 0 224.30716903 0 2277.07992697 0 -60.00103081 0 1311.86553424 0 27345
0.15850000 0.15849900 9119.96335481 0 -84.29143585 0 2735.91650826 0 186.92227470 0 931.27535882 0 26980
0.15950000 0.15949700 9136.68187427 0 32.52784587 0 2472.04510571 0 80.04304256 0 709.82527712 0 27777
0.16050000 0.16050000 9094.08370180 0 153.09198807 0 2333.35389230 0 -10.95300292 0 983.45207858 0 28224
0.16150000 0.16150500 8996.73841959 0 74.08654823 0 2525.95738794 0 70.10277329 0 692.70801767 0 28075
0.16250000 0.16249700 8851.77501523 0 93.86712715 0 2353.34581440 0 -141.91189009 0 405.21209487 0 28590
0.16350000 0.16349900 8674.52795206 0 177.55902503 0 2500.24250353 0 -186.80583823 0 216.28952950 0 29163
0.16450000 0.16449100 8536.04544553 0 61.69474206 0 2455.88679945 0 175.82236411 0 202.88725249 0 28996
0.16550000 0.16550500 8586.10214278 0 58.85402174 0 2391.41834297 0 126.30061554 0 69.77653149 0 30777
0.16650000 0.16650700 8413.29284693 0 82.07661648 0 2186.84166321 0 53.12062408 0 566.76769611 0 29211
0.16750000 0.16749900 8475.81703406 0 24.90422296 0 2340.30712675 0 202.82024660 0 468.31516898 0 30922
0.16850000 0.16850800 8291.88036619 0 96.57658183 0 2271.67551726 0 -73.37683500 0 352.75307159 0 30867
0.16950000 0.16949900 8062.21492266 0 188.29974010 0 2476.49385761 0 -124.37941380 0 320.75171629 0 30852
0.17050000 0.17049200 8150.89337711 0 70.01863147 0 2428.37044513 0 -14.56213803 0 947.93346314 0 31257
0.17150000 0.17149500 8206.93666642 0 -216.38509528 0 2200.04511945 0 422.03386932 0 413.87452881 0 32608
0.17250000 0.17250900 8205.15716566 0 -53.79233070 0 2120.81339743 0 178.41472324 0 370.62167581 0 32361
0.17350000 0.17350400 8224.36918310 0 205.52904220 0 2107.25843486 0 -327.27435549 0 293.36058610 0 32508
0.17450000 0.17449800 8083.97536094 0 139.70838483 0 2130.02945382 0 122.83827826 0 662.07424165 0 32791
0.17550000 0.17549800 8266.54994182 0 34.87997239 0 2187.76436731 0 66.43414574 0 289.33583871 0 33633
0.17650000 0.17650100 8074.71536626 0 -25.75146304 0 1988.52618983 0 -25.35239352 0 22.27847073 0 33984
0.17750000 0.17750300 7920.32719862 0 49.46122357 0 1919.98245692 0 -33.10827068 0 143.39370893 0 34069
0.17850000 0.17849800 7773.04604945 0 99.25319263 0 1906.18583376 0 141.79435517 0 82.77018239 0 34536
