### header ###
fiducial parameters:
Omega_m = 0.31
Omega_nu = 0
Omega_de = 0.69
Omega_k = 0
H_0 = 100
w_de = -1
zeff = 0
beta = 0
fgrowth = 0
b_1 = 2
gamma = 0.55
Lx = 3500 Ly = 3500 Lz = 3500
nx = 700 ny = 700 nz = 700
xoffset = -983.599254 yoffset = -42.9823471 zoffset = 800.977702
bins = 400 dk = 0.001
kx_ny = 0.628318531 ky_ny = 0.628318531 kz_ny = 0.628318531
############################
A(data) = 8.9813673 (not used)
A(ran) = 8.96843725 (used)
Ngal = 498406
weighted Ngal = 0
Nran = 25229228
weighted Nran = 0
SN(data) = 6798.36601
SN(ran) = 133.130272
SN(data+ran) = 6931.49629
############################
13 columns: k_central k_mean P_0(k) sigma^{lin}_{P_0(k)} P^img_1(k) sigma^{lin}_{P_1(k)} P_2(k) sigma^{lin}_{P_2(k)} P^img_3(k) sigma^{lin}_{P_3(k)} P_4(k) sigma^{lin}_{P_4(k)} N_modes
### header ###
0.00050000 0 0 0 0 0 0 0 0 0 0 0 0
0.00150000 0.00179520 46273.83014762 0 -9456.35490554 0 -28022.96280372 0 31285.71039755 0 -132667.27380843 0 3
0.00250000 0.00253879 51303.00685826 0 -4485.51725987 0 13544.85675860 0 19045.38147871 0 50702.69996669 0 6
0.00350000 0.00331552 67658.37635753 0 -12929.28131114 0 17435.48252119 0 -26206.22434449 0 -20305.42179952 0 7
0.00450000 0.00420575 48729.65103963 0 3482.23033858 0 2843.71910358 0 49213.96084474 0 46885.34130322 0 24
0.00550000 0.00557378 56387.87535189 0 -13278.70056496 0 -15618.63421623 0 21436.94262112 0 -18408.60580617 0 45
0.00650000 0.00659388 78926.57060292 0 227.13679492 0 8732.94390905 0 12704.75664758 0 31567.68437572 0 40
0.00750000 0.00754703 70648.15732272 0 15241.42399379 0 1154.78614633 0 -33655.30239480 0 -3108.97456227 0 57
0.00850000 0.00846663 66328.36430938 0 2876.78266705 0 1003.94489719 0 -15081.81815418 0 38522.56650559 0 75
0.00950000 0.00948925 55662.12464144 0 -5517.93526765 0 14298.61812913 0 -7273.43473474 0 -9053.17715351 0 112
0.01050000 0.01054430 55625.21647757 0 7562.27407076 0 38903.18194554 0 683.63366226 0 17110.66870996 0 105
0.01150000 0.01145670 56187.40690228 0 7160.22772971 0 20479.19773775 0 2239.21610528 0 10133.31214458 0 144
0.01250000 0.01249090 62397.97439405 0 -6458.11581946 0 35519.93359048 0 17671.32129451 0 -6819.07985905 0 169
0.01350000 0.01339930 65489.69219279 0 -910.83636462 0 25568.02067751 0 6985.81468627 0 4515.27446700 0 180
0.01450000 0.01448870 70306.42726971 0 -7987.23423022 0 14558.95249931 0 19571.10312245 0 8056.40408376 0 267
0.01550000 0.01550050 76051.13903830 0 -7418.72767627 0 21260.09100256 0 -5061.28461630 0 29990.18990731 0 238
0.01650000 0.01653350 73349.70310337 0 9680.31935590 0 19074.16105887 0 -3085.23690092 0 -908.48786300 0 315
0.01750000 0.01747870 70675.83844562 0 7678.98515444 0 22557.47887014 0 -15745.94541245 0 3729.60291312 0 297
0.01850000 0.01844180 84182.35904591 0 -3465.70954142 0 35211.59663812 0 1491.12277420 0 -22685.22944926 0 388
0.01950000 0.01947590 69636.47818797 0 1886.20489623 0 34862.50692149 0 279.06746026 0 -948.78696443 0 399
0.02050000 0.02045430 69481.70556030 0 -51.95801692 0 34895.13110206 0 -3366.90331105 0 -11645.40446784 0 462
0.02150000 0.02154770 74799.44699266 0 -494.72208146 0 34746.07045213 0 7791.50013139 0 -17563.12325458 0 571
0.02250000 0.02255340 74053.81420584 0 -2422.99898914 0 29824.54255278 0 1297.15719156 0 -19120.51595517 0 510
0.02350000 0.02348930 80591.06288617 0 476.79745592 0 27281.61400020 0 12223.63236852 0 -12531.74962943 0 555
0.02450000 0.02439640 74252.63496956 0 1437.68282859 0 20627.26977615 0 -2562.67881408 0 -9488.07835115 0 592
0.02550000 0.02547300 69751.59650863 0 4948.68176277 0 24884.12118860 0 -2149.35131699 0 -16067.13431473 0 837
0.02650000 0.02652900 68130.82282425 0 6171.07795334 0 28583.39569682 0 3628.56681451 0 -4750.78370314 0 723
0.02750000 0.02749970 62784.30181173 0 -826.52208085 0 27063.57023446 0 414.45451424 0 -4062.80893780 0 826
0.02850000 0.02848090 62837.24745157 0 -2955.81666677 0 21887.09040550 0 11890.47028213 0 -3398.37411150 0 831
0.02950000 0.02946900 61529.09470286 0 1874.98964763 0 19965.66896958 0 466.30059836 0 -5728.21294057 0 996
0.03050000 0.03053250 56226.07259777 0 5466.07710049 0 21661.24759323 0 -3026.08497757 0 9534.87263035 0 1041
0.03150000 0.03150510 53611.30494050 0 1461.15686020 0 25644.47330268 0 1985.16491062 0 7392.32076378 0 1036
0.03250000 0.03246190 54191.18052707 0 2381.96062597 0 26916.92619050 0 3408.07348909 0 59.44850681 0 1059
0.03350000 0.03345080 50537.38214934 0 1355.36444167 0 29292.66954839 0 -3038.67329775 0 5284.48014658 0 1302
0.03450000 0.03451200 49466.82570556 0 1975.86097764 0 30267.22082781 0 3358.48912846 0 5349.46487797 0 1339
0.03550000 0.03553350 51383.41392956 0 -2006.83747232 0 27448.79919489 0 2957.18973834 0 5666.07321348 0 1365
0.03650000 0.03647120 51854.65209330 0 -2361.72704328 0 24989.46323965 0 7761.38043337 0 3357.36870205 0 1308
0.03750000 0.03744890 53146.65752031 0 -1199.47138759 0 19048.89654194 0 3017.41814980 0 4361.23780569 0 1579
0.03850000 0.03847530 53409.73803364 0 1163.49691239 0 16301.76478507 0 1949.10255883 0 2450.13088341 0 1662
0.03950000 0.03950240 49472.75737476 0 2541.50055815 0 16650.30527307 0 -1866.65235704 0 3449.95766434 0 1683
0.04050000 0.04050350 50103.27184093 0 766.40790894 0 14768.31845271 0 2204.06547302 0 2583.97790032 0 1822
0.04150000 0.04152450 49194.62799700 0 1739.51691398 0 15359.28845759 0 3072.82433390 0 -1009.48771251 0 1887
0.04250000 0.04250150 46352.36984157 0 -931.77735379 0 12340.06883788 0 301.68359675 0 5770.84406676 0 1920
0.04350000 0.04349210 46760.88609587 0 955.51721205 0 15009.75935805 0 1828.01961527 0 -296.01445884 0 2005
0.04450000 0.04448520 42399.13201528 0 2962.68202463 0 11235.67991055 0 -2720.08773917 0 2362.90239255 0 2151
0.04550000 0.04548030 40034.48307569 0 2023.44614606 0 15300.41114855 0 -1081.61021917 0 4914.88223293 0 2274
0.04650000 0.04648670 40579.86710435 0 701.37594389 0 18711.67016369 0 829.66147170 0 850.99461011 0 2311
0.04750000 0.04749250 38205.33204944 0 634.67871763 0 17945.05684324 0 200.46405578 0 472.46404204 0 2568
0.04850000 0.04851840 37863.71184216 0 759.16797716 0 18846.23117781 0 1996.34720551 0 2214.85232329 0 2493
0.04950000 0.04949480 37769.57405514 0 558.24147087 0 18062.70161558 0 -821.58231856 0 3398.31918864 0 2644
0.05050000 0.05050630 37395.98874165 0 -362.38983712 0 19445.43961212 0 606.17375179 0 618.84994854 0 2829
0.05150000 0.05149060 37641.27424739 0 610.95094240 0 17572.24044983 0 1563.00581717 0 -1424.87481696 0 2784
0.05250000 0.05249300 36692.31702209 0 842.74409764 0 17882.11524235 0 -534.27093658 0 -683.93354109 0 3055
0.05350000 0.05348950 36002.59570971 0 124.21354675 0 17892.11120340 0 519.01446372 0 -2250.33249273 0 3009
0.05450000 0.05448610 34890.84711875 0 958.70713193 0 17172.73154504 0 370.16911142 0 -1510.00525447 0 3336
0.05550000 0.05550870 33414.95994672 0 365.85437131 0 17568.39584942 0 137.82782601 0 -709.60009338 0 3349
0.05650000 0.05647670 35173.69986272 0 -622.86261291 0 13992.58793702 0 4290.63995771 0 -3001.32575097 0 3324
0.05750000 0.05747970 34956.42501706 0 -1438.34190295 0 12069.84835238 0 3068.04604483 0 -856.53413006 0 3639
0.05850000 0.05849280 35932.18459946 0 426.11793340 0 9637.00718621 0 2704.62146098 0 -105.41971198 0 3846
0.05950000 0.05951020 34685.32576575 0 11.91079174 0 8894.03266595 0 -789.60622778 0 1741.82367422 0 3787
0.06050000 0.06049470 34711.13951132 0 427.61073682 0 6850.31998348 0 1606.87820006 0 -335.80826993 0 3930
0.06150000 0.06148310 34701.91247035 0 1297.82725049 0 10932.78032162 0 -1578.88950912 0 -606.48571365 0 4083
0.06250000 0.06249100 32380.87228391 0 2340.93324738 0 9800.73224053 0 -2821.89275786 0 3165.98449397 0 4303
0.06350000 0.06350600 31345.46647240 0 -860.06457169 0 12992.88198639 0 191.75768355 0 1522.61554379 0 4470
0.06450000 0.06451750 31441.25194530 0 434.82869946 0 12567.11995314 0 1538.27954429 0 -1534.73152735 0 4479
0.06550000 0.06550280 30915.31061011 0 288.11435424 0 12174.97071198 0 944.07348433 0 2214.27014095 0 4636
0.06650000 0.06648880 31215.29928731 0 505.43423664 0 13997.31130323 0 -463.26226559 0 718.59096604 0 4653
0.06750000 0.06749660 29699.20857963 0 1096.93150100 0 12323.92151619 0 -1538.88369578 0 2137.60880890 0 5220
0.06850000 0.06852730 28049.43562364 0 456.80004154 0 15462.10405695 0 1736.07874276 0 2584.72485125 0 5029
0.06950000 0.06949320 29558.49620486 0 230.62110135 0 14296.42121462 0 1902.34123335 0 4089.71015605 0 5040
0.07050000 0.07048030 28571.09297553 0 198.42641757 0 13401.06870351 0 918.59916206 0 2729.99582364 0 5475
0.07150000 0.07148790 28947.97366079 0 -313.96105352 0 11863.00885067 0 383.49449642 0 2960.01277349 0 5509
0.07250000 0.07249820 28310.97829680 0 122.93384404 0 12854.36652614 0 1062.59812094 0 3191.57854808 0 5916
0.07350000 0.07351270 28450.59221431 0 728.81870157 0 11994.05480157 0 414.49076333 0 3389.83909860 0 5721
0.07450000 0.07449140 27755.37861563 0 90.38150258 0 11686.81630647 0 308.86201493 0 3793.07177349 0 6028
0.07550000 0.07549160 27521.84660256 0 219.04006647 0 11679.67633429 0 1159.75117314 0 3637.53022574 0 6183
0.07650000 0.07648840 26942.73993607 0 2.86940103 0 9216.69350096 0 1822.74702043 0 4479.92611243 0 6330
0.07750000 0.07749960 26974.92473373 0 -233.07835023 0 8463.72301965 0 1631.07721346 0 3146.09143302 0 6583
0.07850000 0.07848650 25470.69736444 0 817.77286879 0 8536.93519591 0 -569.62258652 0 3966.74885057 0 6549
0.07950000 0.07947320 25257.81634781 0 1235.80835369 0 8102.26467429 0 -101.23085508 0 3586.02356491 0 6828
0.08050000 0.08048110 24150.02220299 0 390.22803941 0 8285.54226781 0 -885.86733268 0 3261.17679996 0 7147
0.08150000 0.08149960 23876.72603716 0 17.90924714 0 8328.88739121 0 1547.49560069 0 -223.65907924 0 7386
0.08250000 0.08250610 23894.30135329 0 122.67131276 0 7799.68363796 0 146.78354803 0 1973.47732539 0 7227
0.08350000 0.08350160 22909.31472992 0 467.25955155 0 7641.08837903 0 -637.68629361 0 799.13754141 0 7798
0.08450000 0.08449610 22251.77821520 0 637.97958170 0 7373.58108296 0 -830.81045799 0 -1482.88434476 0 7371
0.08550000 0.08548940 21401.35260596 0 958.76974399 0 8033.70995681 0 -582.11973475 0 -655.19789922 0 8256
0.08650000 0.08650700 20870.35836737 0 494.99779423 0 8536.10036839 0 539.61163577 0 -1228.99791869 0 8037
0.08750000 0.08749060 20667.80284897 0 -130.21771412 0 7832.46160255 0 477.79046128 0 -1193.53971840 0 8155
0.08850000 0.08849210 19867.68658215 0 558.34692277 0 7986.36644898 0 -87.78749577 0 -2257.37360376 0 8718
0.08950000 0.08949900 19304.72723736 0 555.18556278 0 7925.39108658 0 276.59593143 0 -790.80574311 0 8571
0.09050000 0.09049190 18727.26825675 0 -399.87249414 0 6886.53611928 0 1050.55353711 0 -846.47665540 0 8932
0.09150000 0.09150830 19201.03287219 0 132.20482330 0 6933.50615163 0 617.73171906 0 -1649.66311027 0 9285
0.09250000 0.09250820 18841.39796587 0 340.36027680 0 5149.83125588 0 522.68550788 0 -877.62450942 0 9204
0.09350000 0.09350330 18562.82920521 0 -353.45828115 0 5088.25174198 0 1393.90930685 0 339.50787397 0 9349
0.09450000 0.09448040 18756.70691127 0 262.12815088 0 5559.24824513 0 -125.92054933 0 -885.81240982 0 9564
0.09550000 0.09549270 18133.00288010 0 798.41805190 0 4442.53462736 0 -322.20936907 0 290.72099331 0 10155
0.09650000 0.09649430 17733.60382105 0 -77.14036926 0 5448.41390778 0 1023.84125350 0 620.09889445 0 9913
0.09750000 0.09749140 17423.72902853 0 24.83721706 0 4556.45562960 0 -504.12926942 0 99.40664711 0 10476
0.09850000 0.09850240 17317.61805739 0 458.53670246 0 5037.82156926 0 -153.58299846 0 13.79014226 0 10575
0.09950000 0.09950330 16833.85748091 0 264.28222556 0 5539.12450816 0 71.14927352 0 888.74858607 0 10882
0.10050000 0.10051200 16859.01215212 0 205.27639703 0 5746.67800708 0 12.13026350 0 54.97163441 0 10875
0.10150000 0.10150300 16228.60753168 0 479.56117438 0 5683.90117478 0 -403.78190352 0 558.52597130 0 11118
0.10250000 0.10250800 15814.70883681 0 171.97117296 0 6573.75041502 0 -55.34489019 0 245.00430068 0 11575
0.10350000 0.10349800 15902.69526319 0 16.13326144 0 6749.21797744 0 378.47894058 0 802.20992636 0 11364
0.10450000 0.10450100 16022.97633295 0 -159.42459416 0 5528.98574767 0 899.26631432 0 860.27108165 0 12093
0.10550000 0.10551000 15672.45862188 0 45.95593662 0 5499.26149426 0 399.88897099 0 1349.32292675 0 12067
0.10650000 0.10649700 16091.19052868 0 16.77838539 0 4894.02252960 0 -34.70015494 0 -24.08444430 0 12054
0.10750000 0.10749900 16002.21549077 0 290.63970747 0 5162.23283832 0 245.87867266 0 534.83993744 0 12807
0.10850000 0.10850100 15405.86304533 0 21.25053442 0 4521.43681221 0 62.71180363 0 -83.73473771 0 12736
0.10950000 0.10950300 15565.57873067 0 217.16719685 0 4455.15590126 0 -130.52308524 0 219.52338767 0 12933
0.11050000 0.11050200 15019.97501055 0 -58.79492474 0 4372.00268682 0 46.74045479 0 13.48927482 0 13428
0.11150000 0.11150900 15043.70168733 0 442.74637938 0 4342.42123286 0 590.71186742 0 -461.48496174 0 13453
0.11250000 0.11250000 14557.52450488 0 196.27344134 0 4179.00374656 0 -516.95265945 0 -98.10947893 0 13668
0.11350000 0.11349100 14427.90654842 0 149.14303422 0 4186.92362340 0 144.93923830 0 -1064.42046153 0 13791
0.11450000 0.11448600 14302.02334663 0 206.40561109 0 4208.43141651 0 -311.74876060 0 -1297.87118878 0 14205
0.11550000 0.11549300 13810.57356935 0 251.10842767 0 4507.14588329 0 -259.22382989 0 -672.35470313 0 14776
0.11650000 0.11649800 13745.21536249 0 -80.77714155 0 4627.67959822 0 583.73776229 0 -951.80882034 0 14553
0.11750000 0.11747300 13869.78041556 0 70.32213521 0 4473.54407576 0 82.05728363 0 -1170.03273307 0 14568
0.11850000 0.11849100 13734.99970999 0 130.99761878 0 4065.62098838 0 659.07545334 0 -900.82502517 0 16015
0.11950000 0.11950300 13499.60031957 0 -44.62065197 0 4176.81781662 0 -378.03626230 0 96.04569743 0 15270
0.12050000 0.12050700 13432.15504392 0 148.98156101 0 3982.27005163 0 370.84026880 0 -74.97080632 0 15999
0.12150000 0.12150000 13865.71612370 0 42.55038958 0 4130.58375063 0 469.12802735 0 84.73059906 0 15670
0.12250000 0.12250700 13543.20907272 0 0.97941195 0 3616.67052241 0 -19.89734493 0 -481.66252312 0 16887
0.12350000 0.12352200 13664.36890829 0 236.03100334 0 3940.38587638 0 -326.75258829 0 -36.84357459 0 16407
0.12450000 0.12449800 13273.64766157 0 -29.09626539 0 4087.31551923 0 -354.78741443 0 -144.41856956 0 16306
0.12550000 0.12549900 13097.56496309 0 131.09647993 0 4577.37025580 0 158.07349173 0 -30.71703908 0 17523
0.12650000 0.12650100 12862.82464703 0 292.35220234 0 4110.83348912 0 68.00406086 0 6.10802651 0 17154
0.12750000 0.12750600 12883.69533493 0 119.07276678 0 4004.20624308 0 568.40988971 0 -246.46305192 0 18007
0.12850000 0.12850300 12737.16113670 0 82.40637335 0 4010.35760372 0 336.75843546 0 -159.41031421 0 17496
0.12950000 0.12949900 12722.77134661 0 193.66570381 0 3908.69538448 0 275.41728679 0 611.16843694 0 18405
0.13050000 0.13049000 12136.74439940 0 264.15809989 0 3764.70960709 0 -180.50618586 0 720.04532345 0 18100
0.13150000 0.13148800 11876.41002922 0 232.10292019 0 3942.19833086 0 -163.64047312 0 803.62364085 0 19059
0.13250000 0.13249300 11904.64038076 0 -43.77945341 0 3603.48903531 0 792.84118440 0 735.77193602 0 18957
0.13350000 0.13349100 11647.49153663 0 -241.87040213 0 3108.17268847 0 534.47744655 0 1046.17838185 0 19468
0.13450000 0.13450700 11861.91039342 0 112.45346334 0 2914.03135267 0 319.28747276 0 748.61619673 0 19953
0.13550000 0.13551000 11605.53046937 0 424.21540543 0 2865.31477327 0 -629.27540638 0 566.40959904 0 19956
0.13650000 0.13649900 11465.14763178 0 224.60045711 0 3255.05839303 0 -238.11148139 0 954.23750934 0 19723
0.13750000 0.13749600 11112.43300619 0 -69.82123870 0 3553.23461575 0 345.99426408 0 893.61145635 0 20946
0.13850000 0.13851100 11405.72109411 0 -234.30203162 0 2908.61595839 0 394.02540615 0 78.75817711 0 20955
0.13950000 0.13949800 11364.52894693 0 147.83587009 0 2645.39264562 0 -177.17456499 0 -187.47040487 0 20506
0.14050000 0.14048300 11273.02745733 0 238.42564016 0 2886.56992122 0 -260.69905799 0 3.06096100 0 21447
0.14150000 0.14148400 10996.32607401 0 130.19684343 0 3049.67983948 0 166.96330632 0 42.01588028 0 21771
0.14250000 0.14249400 10806.51265980 0 28.25814250 0 2802.12052721 0 -159.49269851 0 -75.28243865 0 22470
0.14350000 0.14350900 10845.09047871 0 364.38573395 0 2957.50829095 0 205.78168737 0 -784.08648006 0 22519
0.14450000 0.14449900 10549.02329392 0 149.61097702 0 3124.44084046 0 -246.94307774 0 304.09580888 0 22218
0.14550000 0.14550500 10349.94988503 0 -30.25942178 0 3268.34972585 0 45.50765621 0 -447.99480816 0 23559
0.14650000 0.14650700 10038.49331406 0 326.90966768 0 3188.25022259 0 -107.61420989 0 -73.63585122 0 23044
0.14750000 0.14750500 10061.42910161 0 176.52208138 0 3436.72125438 0 74.15651996 0 179.72408429 0 23649
0.14850000 0.14849900 9890.64096711 0 -244.75604934 0 3161.11832831 0 580.94438548 0 347.79573399 0 23640
0.14950000 0.14949500 9934.98568662 0 50.53199971 0 2973.30410632 0 504.31820407 0 231.61740208 0 24457
0.15050000 0.15050000 10069.20617899 0 190.22423722 0 2563.82120963 0 -154.28051882 0 748.58434147 0 24591
0.15150000 0.15149900 9742.95338876 0 -18.31457786 0 2616.96457178 0 107.09859406 0 404.05981320 0 25020
0.15250000 0.15250500 9878.33824582 0 57.01762090 0 2723.40508009 0 48.51171712 0 719.57518374 0 25297
0.15350000 0.15350100 9806.30141883 0 83.63697502 0 2715.69391014 0 -137.51586415 0 557.40664335 0 25452
0.15450000 0.15450400 9704.45246186 0 317.34759725 0 2966.04330384 0 -198.84383132 0 114.07368780 0 26061
0.15550000 0.15549900 9451.68646219 0 55.47791336 0 3053.82102334 0 -455.51704346 0 -229.68741268 0 26128
0.15650000 0.15649500 9156.83856496 0 24.29326103 0 3003.31395861 0 377.55953185 0 294.46892947 0 26331
0.15750000 0.15749700 9238.00357176 0 22.19707504 0 3233.63847650 0 183.60932761 0 -42.66111407 0 27345
0.15850000 0.15849900 9140.41662895 0 171.77125374 0 2705.85173311 0 128.11966076 0 361.09255909 0 26980
0.15950000 0.15949700 9130.08014615 0 48.85201918 0 2795.13433905 0 335.35350862 0 196.18226939 0 27777
0.16050000 0.16050000 8916.74876205 0 30.34378330 0 2566.11698530 0 236.75159130 0 799.62855180 0 28224
0.16150000 0.16150500 8852.66476561 0 115.72906289 0 2694.27399361 0 105.26043568 0 623.29870044 0 28075
0.16250000 0.16249700 8673.08897305 0 161.94445511 0 2431.94043122 0 -211.52661883 0 811.81483662 0 28590
0.16350000 0.16349900 8616.61728541 0 97.23752356 0 2503.01061582 0 107.71504827 0 667.48194673 0 29163
0.16450000 0.16449100 8635.74142627 0 -20.92539108 0 2478.64683383 0 273.03033917 0 579.19783844 0 28996
0.16550000 0.16550500 8626.97573735 0 -58.05368578 0 2242.13800159 0 178.00939251 0 504.52581249 0 30777
0.16650000 0.16650700 8610.83940023 0 81.23563761 0 2259.99891660 0 -194.98385252 0 624.02587915 0 29211
0.16750000 0.16749900 8470.09407175 0 235.74650291 0 2365.00044591 0 -203.56719753 0 180.95106105 0 30922
0.16850000 0.16850800 8387.99537627 0 6.77196703 0 2289.17394138 0 -57.55048251 0 348.36693176 0 30867
0.16950000 0.16949900 8254.08245194 0 -9.16548342 0 2310.67074992 0 307.61526594 0 293.64398807 0 30852
0.17050000 0.17049200 8379.70202398 0 104.49525035 0 2126.69014376 0 281.01172960 0 337.75693310 0 31257
0.17150000 0.17149500 8204.27839985 0 109.92920857 0 2263.93139359 0 -44.21630986 0 428.62461287 0 32608
0.17250000 0.17250900 8065.57620187 0 145.99046189 0 2360.74941632 0 18.82590972 0 378.41193468 0 32361
0.17350000 0.17350400 7903.02649681 0 85.03629972 0 2000.69709625 0 206.64727169 0 714.85730982 0 32508
0.17450000 0.17449800 7947.59090777 0 -59.75014317 0 2168.60727273 0 77.76374375 0 559.31905744 0 32791
0.17550000 0.17549800 7834.09830386 0 25.83692301 0 1862.06080570 0 -6.64910458 0 662.74210367 0 33633
0.17650000 0.17650100 7784.54689695 0 155.96335534 0 2116.68319813 0 46.92488576 0 485.74768566 0 33984
0.17750000 0.17750300 7642.73606492 0 175.12484375 0 2113.64047153 0 -496.73775053 0 517.22837222 0 34069
0.17850000 0.17849800 7588.82378269 0 111.13201926 0 2252.86992900 0 -6.87238799 0 50.67479915 0 34536
