### header ###
fiducial parameters:
Omega_m = 0.31
Omega_nu = 0
Omega_de = 0.69
Omega_k = 0
H_0 = 100
w_de = -1
zeff = 0
beta = 0
fgrowth = 0
b_1 = 2
gamma = 0.55
Lx = 3500 Ly = 3500 Lz = 3500
nx = 700 ny = 700 nz = 700
xoffset = -983.599254 yoffset = -42.9823471 zoffset = 800.977702
bins = 400 dk = 0.001
kx_ny = 0.628318531 ky_ny = 0.628318531 kz_ny = 0.628318531
############################
A(data) = 9.0636191 (not used)
A(ran) = 9.07547501 (used)
Ngal = 504192
weighted Ngal = 0
Nran = 25229228
weighted Nran = 0
SN(data) = 6727.84363
SN(ran) = 134.719174
SN(data+ran) = 6862.5628
############################
13 columns: k_central k_mean P_0(k) sigma^{lin}_{P_0(k)} P^img_1(k) sigma^{lin}_{P_1(k)} P_2(k) sigma^{lin}_{P_2(k)} P^img_3(k) sigma^{lin}_{P_3(k)} P_4(k) sigma^{lin}_{P_4(k)} N_modes
### header ###
0.00050000 0 0 0 0 0 0 0 0 0 0 0 0
0.00150000 0.00179520 15126.96474749 0 -26971.95889913 0 -34240.34073048 0 36011.16367632 0 27993.08476630 0 3
0.00250000 0.00253879 46612.48452030 0 -41701.06242773 0 -7590.11996226 0 -93745.30824378 0 -33388.81666398 0 6
0.00350000 0.00331552 48881.12829553 0 -9033.96513607 0 -48920.56291109 0 -29867.05284867 0 -25877.56593285 0 7
0.00450000 0.00420575 56304.06306309 0 14228.97593897 0 -21178.25593683 0 -25190.04153499 0 34209.03469863 0 24
0.00550000 0.00557378 48862.56436786 0 2885.73509370 0 -1566.03755920 0 -17033.44716471 0 -1468.65932327 0 45
0.00650000 0.00659388 46964.43022581 0 -3406.87617068 0 -832.83711163 0 31344.14832369 0 -12226.81789457 0 40
0.00750000 0.00754703 50043.62561181 0 -9028.40694234 0 -13791.89979596 0 32081.43283535 0 18874.13199217 0 57
0.00850000 0.00846663 59843.84157743 0 -19788.81735102 0 -37758.36979111 0 -5617.38958780 0 -134.03045927 0 75
0.00950000 0.00948925 69642.19016572 0 -3722.26521863 0 -32684.70556151 0 -13211.14544358 0 -13470.05181932 0 112
0.01050000 0.01054430 78217.62628852 0 5997.56564484 0 -35076.26670392 0 -32964.81216234 0 -11321.46942241 0 105
0.01150000 0.01145670 69773.56565379 0 4299.74616838 0 -12756.60383017 0 -31278.24088820 0 -25994.11224794 0 144
0.01250000 0.01249090 72125.25279773 0 -2778.54763445 0 -1712.92326376 0 -12398.50676401 0 -18734.18853748 0 169
0.01350000 0.01339930 76666.82433149 0 -3326.74371370 0 15448.15364977 0 -10492.87015888 0 -43924.88914682 0 180
0.01450000 0.01448870 76487.77579841 0 -219.49812315 0 13821.33845048 0 -11969.55920471 0 -33761.19367448 0 267
0.01550000 0.01550050 78620.21087363 0 4373.30985096 0 15460.34652534 0 8425.50769164 0 -21907.08232760 0 238
0.01650000 0.01653350 87499.04089113 0 -7754.11963090 0 20065.84827152 0 6324.77409289 0 -24841.83058416 0 315
0.01750000 0.01747870 92853.91017880 0 6343.68952688 0 15586.99864720 0 -7356.85157892 0 -19851.86879763 0 297
0.01850000 0.01844180 78230.14870126 0 5506.96167964 0 30026.10945965 0 -638.69138200 0 -1745.26184544 0 388
0.01950000 0.01947590 80054.68620702 0 1239.48818551 0 29709.97346076 0 2633.25469292 0 4410.42672171 0 399
0.02050000 0.02045430 77260.97986241 0 3472.20142382 0 40907.31721300 0 487.79740691 0 -6212.67652970 0 462
0.02150000 0.02154770 67584.12064688 0 3077.14127093 0 36309.72435908 0 10226.74691896 0 15950.25846247 0 571
0.02250000 0.02255340 73162.96536949 0 -740.91930673 0 36260.95285682 0 11475.47313000 0 19655.79417706 0 510
0.02350000 0.02348930 74924.78096581 0 -752.92764147 0 35295.95815555 0 3809.92210783 0 12235.05632400 0 555
0.02450000 0.02439640 70070.36880494 0 3930.28006960 0 28559.99855722 0 1459.93757264 0 18869.95785459 0 592
0.02550000 0.02547300 64143.64266867 0 1055.17474679 0 30148.14806103 0 2867.94008612 0 13418.64401964 0 837
0.02650000 0.02652900 67008.30935216 0 3314.89135988 0 35337.04045700 0 4262.57437476 0 21636.97168783 0 723
0.02750000 0.02749970 62047.78622015 0 1700.97204879 0 32646.25955748 0 2450.41648230 0 12350.28449038 0 826
0.02850000 0.02848090 59777.16522186 0 157.06620643 0 29379.88705469 0 6499.91211813 0 12527.02626322 0 831
0.02950000 0.02946900 61912.67597740 0 -419.15700976 0 25607.89467598 0 -1309.74551174 0 1698.32476680 0 996
0.03050000 0.03053250 60167.55693140 0 501.01843846 0 27594.23493587 0 2600.32294432 0 7151.57188652 0 1041
0.03150000 0.03150510 59052.18343149 0 2380.18112522 0 23108.46503082 0 -110.91122935 0 -3575.26966835 0 1036
0.03250000 0.03246190 56409.95434278 0 2363.86903493 0 21361.80814466 0 -2496.07935052 0 -4754.70519555 0 1059
0.03350000 0.03345080 54274.33374151 0 770.45792086 0 24531.73610019 0 1148.10752620 0 -5185.19059501 0 1302
0.03450000 0.03451200 52029.19695161 0 1276.60505626 0 22289.34545343 0 262.89048022 0 -3895.10746820 0 1339
0.03550000 0.03553350 51159.21880317 0 2030.57513367 0 20946.59130109 0 1063.78775015 0 -7615.12084945 0 1365
0.03650000 0.03647120 47362.29144470 0 2370.80030023 0 19788.81735102 0 2948.20435797 0 -7476.03419143 0 1308
0.03750000 0.03744890 48421.09439582 0 -716.03265909 0 17995.25633993 0 436.74001509 0 -3731.14075328 0 1579
0.03850000 0.03847530 47354.93178107 0 -1407.23359340 0 17520.61295869 0 4371.03604443 0 -8262.76026428 0 1662
0.03950000 0.03950240 47761.58065804 0 963.96984065 0 12597.21768201 0 2125.02048872 0 -3151.22122842 0 1683
0.04050000 0.04050350 46812.62343273 0 931.51921633 0 13947.66103516 0 180.71599119 0 -6337.10976790 0 1822
0.04150000 0.04152450 46442.88271964 0 722.21917036 0 11671.76744203 0 -583.91461391 0 -6788.45487070 0 1887
0.04250000 0.04250150 44747.96317034 0 552.00223364 0 14855.42611328 0 -271.23436155 0 -3751.92356460 0 1920
0.04350000 0.04349210 42920.67952144 0 605.23566929 0 14003.46266387 0 744.18611861 0 -5643.59877798 0 2005
0.04450000 0.04448520 45324.65323086 0 2007.39768552 0 14800.61309610 0 792.36665087 0 -6352.26847806 0 2151
0.04550000 0.04548030 42760.85399038 0 233.47709022 0 12582.82789193 0 347.59691322 0 -4156.11189730 0 2274
0.04650000 0.04648670 40891.27973703 0 -420.59598877 0 15157.50185927 0 -1073.04884330 0 -3293.70211937 0 2311
0.04750000 0.04749250 40960.04316139 0 1093.49552670 0 13569.35235546 0 2154.75572670 0 -4469.72144450 0 2568
0.04850000 0.04851840 39965.60980560 0 1879.51529153 0 14970.43458821 0 -451.04192859 0 -4236.58487604 0 2493
0.04950000 0.04949480 38280.46652590 0 865.45140608 0 14732.61859182 0 -1836.65348932 0 -2335.84739028 0 2644
0.05050000 0.05050630 37474.30874416 0 579.21870913 0 16527.38790589 0 1103.68591468 0 -3708.75419436 0 2829
0.05150000 0.05149060 37953.67549161 0 840.76357921 0 15326.22489412 0 -198.31437493 0 -3549.69758338 0 2784
0.05250000 0.05249300 35466.43872201 0 -977.82468205 0 14500.95395608 0 2872.91609750 0 61.49745913 0 3055
0.05350000 0.05348950 36390.90035046 0 -335.39964383 0 13138.86695600 0 3114.23617254 0 -2020.98560181 0 3009
0.05450000 0.05448610 36852.36224460 0 1253.18594752 0 12859.19973808 0 442.76725007 0 -1504.74364420 0 3336
0.05550000 0.05550870 35627.69224751 0 1324.25613212 0 13688.31527652 0 -1018.77516863 0 2222.87106128 0 3349
0.05650000 0.05647670 34854.59802923 0 210.54240112 0 13721.04930281 0 145.67300774 0 3687.23541667 0 3324
0.05750000 0.05747970 34525.28054324 0 162.05979312 0 14423.51271938 0 2607.93525312 0 1921.90475712 0 3639
0.05850000 0.05849280 33105.52453710 0 137.26102206 0 12558.88152370 0 939.13042667 0 4667.20209037 0 3846
0.05950000 0.05951020 33305.77329526 0 -73.56005767 0 12067.54159214 0 1510.02722361 0 3820.96160328 0 3787
0.06050000 0.06049470 33183.07561953 0 460.26457573 0 11806.10876470 0 2120.93422772 0 5304.49403782 0 3930
0.06150000 0.06148310 32908.79084217 0 1197.74680970 0 11246.55463741 0 -808.58647074 0 3695.05643235 0 4083
0.06250000 0.06249100 32043.31636849 0 139.87315342 0 11032.24562635 0 1718.85493296 0 4952.85590035 0 4303
0.06350000 0.06350600 31345.46647240 0 -298.99237646 0 10185.18129631 0 -192.45630237 0 3287.36402099 0 4470
0.06450000 0.06451750 31266.70708699 0 730.10938885 0 8920.78010019 0 254.71466285 0 3177.26565001 0 4479
0.06550000 0.06550280 30884.88334406 0 900.20000299 0 10892.15937222 0 -1859.40253913 0 -460.46339649 0 4636
0.06650000 0.06648880 28274.50951583 0 992.35397620 0 10443.60435086 0 -150.53148420 0 2111.82801705 0 4653
0.06750000 0.06749660 28374.13958914 0 538.32863769 0 12027.88728512 0 1303.18772191 0 1605.91155767 0 5220
0.06850000 0.06852730 28210.79899486 0 499.89801206 0 11074.09684788 0 491.11694474 0 136.11313423 0 5029
0.06950000 0.06949320 27823.59281136 0 -335.97303852 0 10732.21301086 0 1284.22834963 0 1126.41299535 0 5040
0.07050000 0.07048030 27801.18428330 0 -287.38388016 0 10211.52230136 0 209.47689758 0 1057.51555921 0 5475
0.07150000 0.07148790 28032.84891904 0 -420.77064347 0 9045.53189099 0 586.14338368 0 201.77890912 0 5509
0.07250000 0.07249820 27984.18726250 0 -99.15477086 0 9284.19369947 0 239.33955660 0 -995.64824952 0 5916
0.07350000 0.07351270 28072.72291751 0 788.41550011 0 8240.73619625 0 -1714.85654854 0 -829.66147170 0 5721
0.07450000 0.07449140 27350.92665319 0 734.99862211 0 9724.74096742 0 -243.57410933 0 -1986.48305933 0 6028
0.07550000 0.07549160 26558.17004999 0 697.54232806 0 9518.65940122 0 292.19072912 0 -2359.33240646 0 6183
0.07650000 0.07648840 25605.25837856 0 703.98587834 0 10917.72047261 0 -866.84315143 0 -2262.18484655 0 6330
0.07750000 0.07749960 25063.16972167 0 751.95770371 0 9173.06277866 0 2590.84325818 0 -46.10642526 0 6583
0.07850000 0.07848650 25088.21454716 0 -745.33840028 0 9813.67206703 0 1584.87610118 0 1077.11752898 0 6549
0.07950000 0.07947320 24168.03690202 0 112.15578143 0 8046.62781416 0 933.95998836 0 487.16908935 0 6828
0.08050000 0.08048110 24277.88262783 0 1234.18263695 0 8499.88423259 0 -0.72497849 0 439.63005614 0 7147
0.08150000 0.08149960 22906.01935815 0 148.64213771 0 8112.33752735 0 -1312.70036176 0 2034.49662608 0 7386
0.08250000 0.08250610 23087.92388010 0 -69.33363352 0 9104.67282977 0 1250.08829805 0 1650.26726176 0 7227
0.08350000 0.08350160 22898.54984879 0 -351.93911476 0 7862.27373253 0 948.33440004 0 856.76151071 0 7798
0.08450000 0.08449610 23287.29387245 0 360.63010859 0 7118.96967510 0 364.31213732 0 435.06926160 0 7371
0.08550000 0.08548940 22954.02194033 0 547.63257067 0 7007.88269258 0 605.53225275 0 1654.72699823 0 8256
0.08650000 0.08650700 22644.47668499 0 282.17938967 0 7571.05074426 0 -270.56430262 0 675.38754362 0 8037
0.08750000 0.08749060 21948.49416623 0 183.29516884 0 7474.36453639 0 -493.66975941 0 1213.15816503 0 8155
0.08850000 0.08849210 21698.37544856 0 133.30328056 0 7006.13614554 0 524.82859799 0 581.81326517 0 8718
0.08950000 0.08949900 21612.47609097 0 257.61349155 0 7492.30234342 0 707.44382179 0 567.22904816 0 8571
0.09050000 0.09049190 20853.99135423 0 629.45006109 0 7035.93729096 0 -216.12915474 0 366.00705687 0 8932
0.09150000 0.09150830 20191.84131903 0 391.72084282 0 6920.12694223 0 -5.84279302 0 2075.13954463 0 9285
0.09250000 0.09250820 19775.96540110 0 502.77597008 0 7662.46435728 0 71.98937363 0 409.89921199 0 9204
0.09350000 0.09350330 19379.09279373 0 363.80794544 0 7207.08791635 0 923.50377372 0 1833.29221011 0 9349
0.09450000 0.09448040 18678.82629167 0 7.96583628 0 7088.94883823 0 776.78503466 0 2480.64602604 0 9564
0.09550000 0.09549270 18616.10438223 0 41.83760066 0 5819.80230676 0 944.91709951 0 1526.66885107 0 10155
0.09650000 0.09649430 18343.90667367 0 562.32114113 0 6517.97075545 0 -558.85660693 0 2057.99262683 0 9913
0.09750000 0.09749140 17612.44398547 0 313.67655309 0 5441.22999731 0 -168.59231844 0 1713.59332269 0 10476
0.09850000 0.09850240 17343.21211151 0 -6.92524575 0 6214.52193789 0 277.35386694 0 842.59141208 0 10575
0.09950000 0.09950330 17324.31864667 0 436.49725604 0 5830.20469699 0 -42.84686319 0 -65.46036338 0 10882
0.10050000 0.10051200 16877.24654260 0 144.31421612 0 5535.62042951 0 20.33903459 0 990.44156211 0 10875
0.10150000 0.10150300 16342.84708652 0 275.38872690 0 5487.77163134 0 191.20955338 0 825.08859413 0 11118
0.10250000 0.10250800 16211.69128990 0 255.77467410 0 5374.22410457 0 677.94694903 0 542.35777892 0 11575
0.10350000 0.10349800 16484.98745573 0 60.20666201 0 5238.22411144 0 223.82055246 0 174.19445045 0 11364
0.10450000 0.10450100 15560.63567300 0 77.25768449 0 5074.81760972 0 52.66663170 0 474.47531728 0 12093
0.10550000 0.10551000 15970.47007601 0 -52.53064269 0 4823.66634222 0 24.75109801 0 426.50019653 0 12067
0.10650000 0.10649700 15673.11769624 0 271.86267910 0 4550.44706840 0 79.02202654 0 -546.50335661 0 12054
0.10750000 0.10749900 15654.33407712 0 116.24753471 0 4740.78774209 0 41.20587790 0 521.69250252 0 12807
0.10850000 0.10850100 15461.44498260 0 112.82364344 0 5108.27661780 0 -530.86901445 0 -1027.76054900 0 12736
0.10950000 0.10950300 15232.85602718 0 437.06515844 0 4593.11114831 0 411.41178763 0 -201.06161653 0 12933
0.11050000 0.11050200 15050.07273942 0 -78.06065675 0 5192.52828950 0 575.92223890 0 410.41109307 0 13428
0.11150000 0.11150900 14688.13107287 0 72.56935907 0 4988.72052983 0 -723.82511488 0 -359.56240813 0 13453
0.11250000 0.11250000 14411.75922672 0 399.44629272 0 5148.75476776 0 280.54268836 0 754.24688864 0 13668
0.11350000 0.11349100 14628.26515230 0 73.87015215 0 5500.59062754 0 131.36779887 0 197.46636592 0 13791
0.11450000 0.11448600 14539.07042294 0 103.80574873 0 5008.47079133 0 420.59269340 0 49.90478061 0 14205
0.11550000 0.11549300 14633.53774714 0 -70.27731815 0 5262.97235346 0 141.66913104 0 63.78708344 0 14776
0.11650000 0.11649800 14307.62547865 0 25.01901174 0 4898.80081867 0 68.36819944 0 571.00664267 0 14553
0.11750000 0.11747300 14151.42485654 0 54.84531182 0 4593.01228715 0 261.05825351 0 -41.00793590 0 14568
0.11850000 0.11849100 14042.89727944 0 380.42760375 0 4867.56069425 0 -42.57180950 0 -24.41431102 0 16015
0.11950000 0.11950300 13760.48391837 0 335.92910023 0 5268.39873232 0 -989.49908579 0 -437.57154724 0 15270
0.12050000 0.12050700 13330.87728472 0 268.39045571 0 5071.17073162 0 112.95216294 0 -252.43865941 0 15999
0.12150000 0.12150000 13189.28614414 0 -114.38894503 0 4809.34245957 0 532.15970173 0 -818.35724805 0 15670
0.12250000 0.12250700 13442.15100497 0 -193.49544293 0 4172.78647848 0 826.41443204 0 -652.82193617 0 16887
0.12350000 0.12352200 13306.38168786 0 23.45546768 0 4217.44975060 0 508.44291107 0 -812.27509022 0 16407
0.12450000 0.12449800 13105.47385535 0 419.74138902 0 3875.12653067 0 -306.93532090 0 -565.33530784 0 16306
0.12550000 0.12549900 12844.04102791 0 31.16960347 0 3691.78302972 0 384.87306028 0 -251.13369218 0 17523
0.12650000 0.12650100 12966.18947502 0 34.99695809 0 3735.91904235 0 -86.21406559 0 -509.23270184 0 17154
0.12750000 0.12750600 12717.38890605 0 187.11340627 0 3577.82907376 0 450.15437513 0 -186.94094848 0 18007
0.12850000 0.12850300 12643.35288685 0 -82.12472891 0 3533.46238510 0 22.18433294 0 243.57850316 0 17496
0.12950000 0.12949900 12302.39175393 0 189.19388431 0 3518.72108870 0 -101.78107232 0 -162.04661163 0 18405
0.13050000 0.13049000 12228.13604328 0 358.87367543 0 3803.55105573 0 32.21895968 0 391.28585375 0 18100
0.13150000 0.13148800 12225.38990013 0 -27.94288527 0 4019.17821551 0 -3.47446425 0 378.22739386 0 19059
0.13250000 0.13249300 11926.60952592 0 46.28975778 0 3625.75476393 0 222.80557795 0 48.60310876 0 18957
0.13350000 0.13349100 12189.79988497 0 170.58931373 0 3808.58198998 0 123.54019245 0 474.90481407 0 19468
0.13450000 0.13450700 11833.02096753 0 95.60082224 0 3907.06966774 0 -148.32907739 0 652.15846798 0 19953
0.13550000 0.13551000 11716.14511526 0 102.59601776 0 4007.61146058 0 121.03241453 0 271.25633070 0 19956
0.13650000 0.13649900 11695.16458163 0 111.50439627 0 4083.60273369 0 -108.67872482 0 591.21386239 0 19723
0.13750000 0.13749600 11469.98084371 0 191.23811327 0 4005.37060777 0 139.42717977 0 488.71132334 0 20946
0.13850000 0.13851100 11468.99223218 0 -21.89708637 0 3822.14793711 0 17.39967281 0 -79.49952591 0 20955
0.13950000 0.13949800 11409.12631161 0 291.91062252 0 4098.01449292 0 -57.75259865 0 21.55140187 0 20506
0.14050000 0.14048300 11193.82868902 0 175.91243760 0 4068.08153264 0 -350.01132227 0 256.57874481 0 21447
0.14150000 0.14148400 10825.18643319 0 46.90522338 0 4205.17998303 0 315.73506199 0 314.51028215 0 21771
0.14250000 0.14249400 10771.51581156 0 -64.43077940 0 3722.88035470 0 600.08170783 0 372.63954179 0 22470
0.14350000 0.14350900 11050.80955401 0 -90.87723634 0 3502.56278243 0 241.80119932 0 155.71949783 0 22519
0.14450000 0.14449900 10714.43997242 0 154.92751014 0 3414.70817093 0 -177.00430412 0 -275.88083575 0 22218
0.14550000 0.14550500 10833.22714032 0 185.29765642 0 3057.11639511 0 -0.97632419 0 146.78354803 0 23559
0.14650000 0.14650700 10514.67453546 0 79.66110897 0 3099.37404583 0 260.89458338 0 -168.21554760 0 23044
0.14750000 0.14750500 10519.57365483 0 55.49856436 0 2884.21922268 0 321.55139317 0 -16.87120503 0 23649
0.14850000 0.14849900 10530.23967481 0 51.52346723 0 2937.63719915 0 150.79291702 0 -430.14817308 0 23640
0.14950000 0.14949500 10241.60904566 0 237.94341743 0 2877.95801631 0 -364.41209693 0 -153.08429887 0 24457
0.15050000 0.15050000 9830.47846308 0 100.14920421 0 2806.12989620 0 119.06837295 0 262.61806282 0 24591
0.15150000 0.15149900 10024.47699944 0 85.95153431 0 3039.28843381 0 -52.69288483 0 10.72387572 0 25020
0.15250000 0.15250500 9753.38873271 0 -16.13622728 0 2719.92297058 0 432.24732490 0 155.79968521 0 25297
0.15350000 0.15350100 9959.29454575 0 193.09999832 0 2903.29942526 0 283.76666041 0 -72.76697153 0 25452
0.15450000 0.15450400 9647.99175879 0 104.94462922 0 3034.00485440 0 -265.55423907 0 669.19883543 0 26061
0.15550000 0.15549900 9472.06284433 0 129.31258534 0 3100.00016647 0 -162.77928263 0 208.45423388 0 26128
0.15650000 0.15649500 9414.59156058 0 187.03980963 0 3305.40068917 0 -160.69001692 0 424.90303968 0 26331
0.15750000 0.15749700 9212.20081077 0 151.98254624 0 3380.77682622 0 100.24520938 0 587.94595204 0 27345
0.15850000 0.15849900 9069.64302781 0 128.98854045 0 3406.49171064 0 136.81724533 0 729.34046877 0 26980
0.15950000 0.15949700 9023.43093096 0 27.05632042 0 3418.25618787 0 254.70807210 0 724.90489836 0 27777
0.16050000 0.16050000 8915.57341278 0 193.79861714 0 3663.09132614 0 -368.29074951 0 537.80796895 0 28224
0.16150000 0.16150500 8790.73374540 0 60.15393606 0 3441.75218862 0 75.38206872 0 791.01774536 0 28075
0.16250000 0.16249700 8928.85376104 0 -137.32802795 0 3669.22071764 0 737.58548895 0 920.27980166 0 28590
0.16350000 0.16349900 8840.81241180 0 -231.27248650 0 3043.53946340 0 34.20683778 0 968.87664922 0 29163
0.16450000 0.16449100 8976.04348484 0 183.54561709 0 2673.83170403 0 381.28769579 0 1173.75650318 0 28996
0.16550000 0.16550500 8811.41769557 0 182.65476825 0 2841.42332791 0 -134.62802001 0 874.99919657 0 30777
0.16650000 0.16650700 8734.49273378 0 128.73809220 0 2863.19475076 0 -1.43759495 0 1100.61023436 0 29211
0.16750000 0.16749900 8645.88018677 0 150.66220061 0 3068.08998312 0 -105.72706032 0 788.54182270 0 30922
0.16850000 0.16850800 8435.41577611 0 34.56471516 0 2910.23069056 0 68.86470212 0 1111.00164002 0 30867
0.16950000 0.16949900 8464.63473918 0 -70.60487811 0 2569.45629536 0 380.19143544 0 845.86042088 0 30852
0.17050000 0.17049200 8322.54929284 0 63.25114615 0 2673.13967596 0 229.10193496 0 1182.14871663 0 31257
0.17150000 0.17149500 8541.96613015 0 88.76753933 0 2511.85319675 0 -31.61557711 0 810.94485848 0 32608
0.17250000 0.17250900 8216.02090794 0 61.60807378 0 2456.01861432 0 1.01266994 0 742.21438783 0 32361
0.17350000 0.17350400 8214.31829919 0 -7.22001676 0 2400.16206274 0 135.62212383 0 883.77806698 0 32508
0.17450000 0.17449800 8188.07615529 0 189.90458616 0 2244.90611388 0 6.34527131 0 653.51286578 0 32791
0.17550000 0.17549800 8013.08092950 0 -19.03923012 0 2215.85191940 0 47.61965998 0 591.18420404 0 33633
0.17650000 0.17650100 7920.90938097 0 165.50345663 0 2135.57666297 0 162.92098361 0 555.91823377 0 33984
0.17750000 0.17750300 7836.86641615 0 164.81142855 0 2483.69973722 0 -127.58141670 0 636.11110590 0 34069
0.17850000 0.17849800 7615.45038663 0 133.58668253 0 2189.06054687 0 -7.57853124 0 626.53475552 0 34536
