### header ###
fiducial parameters:
Omega_m = 0.31
Omega_nu = 0
Omega_de = 0.69
Omega_k = 0
H_0 = 100
w_de = -1
zeff = 0
beta = 0
fgrowth = 0
b_1 = 2
gamma = 0.55
Lx = 3500 Ly = 3500 Lz = 3500
nx = 700 ny = 700 nz = 700
xoffset = -983.599254 yoffset = -42.9823471 zoffset = 800.977702
bins = 400 dk = 0.001
kx_ny = 0.628318531 ky_ny = 0.628318531 kz_ny = 0.628318531
############################
A(data) = 9.14539664 (not used)
A(ran) = 9.14908391 (used)
Ngal = 508143
weighted Ngal = 0
Nran = 25229228
weighted Nran = 0
SN(data) = 6676.79784
SN(ran) = 135.811847
SN(data+ran) = 6812.60969
############################
13 columns: k_central k_mean P_0(k) sigma^{lin}_{P_0(k)} P^img_1(k) sigma^{lin}_{P_1(k)} P_2(k) sigma^{lin}_{P_2(k)} P^img_3(k) sigma^{lin}_{P_3(k)} P_4(k) sigma^{lin}_{P_4(k)} N_modes
### header ###
0.00050000 0 0 0 0 0 0 0 0 0 0 0 0
0.00150000 0.00179520 104658.81064052 0 -55561.06657369 0 -98163.30333600 0 165711.06504763 0 -99174.76277929 0 3
0.00250000 0.00253879 136272.41052963 0 -20057.82953353 0 38237.40700138 0 -104571.04390560 0 -32674.70960046 0 6
0.00350000 0.00331552 124090.51953692 0 17076.06730633 0 -21184.40729748 0 -153469.85736298 0 65298.56062988 0 7
0.00450000 0.00420575 95628.50336713 0 37840.42454829 0 19236.62288735 0 -19166.32162283 0 40903.80214978 0 24
0.00550000 0.00557378 61162.64936155 0 9059.31752958 0 38850.67568860 0 4032.43659461 0 -5815.33158572 0 45
0.00650000 0.00659388 77410.91927815 0 -5628.18742265 0 52430.79292519 0 49563.70963573 0 6121.93297561 0 40
0.00750000 0.00754703 59884.37465026 0 1813.25634972 0 35734.90167590 0 33149.35298170 0 -1298.56321685 0 57
0.00850000 0.00846663 70542.26604303 0 3760.73319181 0 35622.74918984 0 -5054.02381382 0 -5768.39450708 0 75
0.00950000 0.00948925 59511.99763975 0 2207.02032304 0 40967.73236220 0 -2553.85820230 0 14578.94442141 0 112
0.01050000 0.01054430 55682.77563789 0 4800.53283236 0 46120.70520583 0 -1631.00032145 0 5782.80626630 0 105
0.01150000 0.01145670 65541.42952965 0 4710.48130634 0 52474.51152406 0 22055.37405745 0 26412.51461757 0 144
0.01250000 0.01249090 65572.29617860 0 -6336.67038500 0 40614.46850798 0 7406.18329438 0 -495.31414992 0 169
0.01350000 0.01339930 79471.29555723 0 -6108.71853479 0 40408.72746354 0 21815.25130082 0 1325.57428083 0 180
0.01450000 0.01448870 74408.50605449 0 1836.63152017 0 35660.75581098 0 -7008.13533775 0 8270.04303590 0 267
0.01550000 0.01550050 78290.89338764 0 -6016.41517139 0 32466.11256714 0 13497.40340505 0 21887.96917131 0 238
0.01650000 0.01653350 81665.35408463 0 -5931.84494709 0 22827.69935564 0 16419.40955741 0 1047.49213673 0 315
0.01750000 0.01747870 86274.81027693 0 9116.42632243 0 25019.12158562 0 -79.98010096 0 2325.37909261 0 297
0.01850000 0.01844180 88511.15940877 0 1219.25460281 0 25525.07099872 0 -8160.17534094 0 -866.06434523 0 388
0.01950000 0.01947590 80780.32707175 0 -902.82751275 0 23377.25752189 0 8926.01974131 0 4894.42895879 0 399
0.02050000 0.02045430 81008.25695281 0 189.06426636 0 25579.11509582 0 -10238.88487166 0 -10058.12274526 0 462
0.02150000 0.02154770 74190.46228875 0 4389.25945034 0 20099.35121789 0 1202.59100621 0 -13185.77108092 0 571
0.02250000 0.02255340 73517.21783524 0 3447.87059555 0 23751.83144691 0 6587.30537759 0 -5485.47585567 0 510
0.02350000 0.02348930 71611.28464665 0 4064.06117907 0 24158.04094097 0 -2361.19978380 0 -14684.06678101 0 555
0.02450000 0.02439640 64461.31650773 0 4201.59901236 0 22855.27063282 0 -6309.14304611 0 2633.34256950 0 592
0.02550000 0.02547300 60144.48932898 0 1069.00761904 0 30820.07436583 0 7846.85139263 0 -4068.25728580 0 837
0.02650000 0.02652900 61379.92420721 0 -880.98029634 0 26653.51614000 0 10276.99035394 0 9137.51670179 0 723
0.02750000 0.02749970 59855.04584147 0 -1460.33301725 0 21006.12768448 0 7377.84309712 0 8323.99925642 0 826
0.02850000 0.02848090 65901.83335604 0 268.74525740 0 23390.21931753 0 1450.40296364 0 8278.87463225 0 831
0.02950000 0.02946900 60480.72709570 0 3020.73549072 0 19022.64341347 0 -2805.15226924 0 7868.99629095 0 996
0.03050000 0.03053250 56364.58805802 0 -59.89920382 0 20668.68161478 0 2518.55378602 0 5387.38362252 0 1041
0.03150000 0.03150510 59118.20071271 0 416.30102089 0 22011.43576712 0 1007.39515143 0 9444.07415339 0 1036
0.03250000 0.03246190 58524.48456469 0 2845.10315972 0 24775.48376577 0 -4063.85247219 0 -4356.23982516 0 1059
0.03350000 0.03345080 57155.69697533 0 615.36344521 0 24896.64360134 0 -713.40075550 0 7508.13111251 0 1302
0.03450000 0.03451200 57232.91852057 0 -200.98472452 0 26217.64829997 0 -835.99957008 0 -8000.41571731 0 1339
0.03550000 0.03553350 56040.32347542 0 616.62557260 0 25848.34696979 0 3391.15724731 0 -436.30722293 0 1365
0.03650000 0.03647120 57498.63533132 0 104.83588195 0 22729.93665967 0 2899.10331853 0 -8696.74974239 0 1308
0.03750000 0.03744890 55771.31129290 0 1300.57339363 0 26427.67332773 0 -6040.27366304 0 -6010.68122450 0 1579
0.03850000 0.03847530 54317.17357458 0 3492.76454369 0 26386.92056345 0 2206.59192471 0 -9106.96860544 0 1662
0.03950000 0.03950240 49483.30256443 0 1173.38302771 0 26463.37318862 0 -2238.16158631 0 -3951.74392443 0 1683
0.04050000 0.04050350 50792.33407895 0 139.24154050 0 26829.15945558 0 3709.38031499 0 -7709.20371361 0 1822
0.04150000 0.04152450 46562.50471506 0 26.10099214 0 25549.34690412 0 3016.71513716 0 -8587.17863089 0 1887
0.04250000 0.04250150 46555.69428006 0 1800.38243065 0 20257.30937161 0 4985.34826604 0 -2885.47146396 0 1920
0.04350000 0.04349210 47393.26793938 0 1027.79789655 0 20149.88025176 0 2447.38474027 0 -6431.32444693 0 2005
0.04450000 0.04448520 43823.83107908 0 1972.74135903 0 19616.13987004 0 47.68029482 0 -1635.64679565 0 2151
0.04550000 0.04548030 42564.33998690 0 281.39728810 0 19496.73756608 0 1191.06818957 0 1888.21507302 0 2274
0.04650000 0.04648670 39444.06229944 0 -198.53846021 0 15997.38227884 0 3410.10563502 0 -3246.35861155 0 2311
0.04750000 0.04749250 40965.97483059 0 709.88569227 0 14748.76591352 0 3383.95136770 0 1392.66805015 0 2568
0.04850000 0.04851840 40244.39825772 0 581.99670753 0 13402.71638940 0 -1112.36372702 0 98.89619402 0 2493
0.04950000 0.04949480 39072.67390047 0 1586.28212647 0 14196.35175840 0 -818.52641047 0 -254.61799861 0 2644
0.05050000 0.05050630 36244.14646077 0 1372.40151374 0 15613.80100430 0 396.87150891 0 1351.46491840 0 2829
0.05150000 0.05149060 35848.70184784 0 310.46246715 0 14157.68606292 0 233.09922092 0 1284.96431599 0 2784
0.05250000 0.05249300 36120.67986496 0 392.11189361 0 15526.80318945 0 531.94440411 0 -327.62915718 0 3055
0.05350000 0.05348950 35365.27080854 0 -514.75354802 0 11983.61945762 0 4183.88089679 0 2309.52835437 0 3009
0.05450000 0.05448610 35237.52022942 0 -956.82657310 0 11139.89443764 0 3186.91010473 0 526.27746312 0 3336
0.05550000 0.05550870 34837.79163318 0 836.43016532 0 8273.40431511 0 -327.43033642 0 1924.51908540 0 3349
0.05650000 0.05647670 35472.48023693 0 645.02838192 0 10768.44013123 0 216.62785433 0 1859.55632315 0 3324
0.05750000 0.05747970 34476.94842388 0 1223.24200266 0 10098.08462031 0 -1576.33010371 0 997.62657104 0 3639
0.05850000 0.05849280 33461.86407164 0 600.56832440 0 10898.37664030 0 -103.49389672 0 3.87041415 0 3846
0.05950000 0.05951020 32697.77720288 0 -675.13270154 0 9315.41185475 0 -310.23069267 0 -732.53697939 0 3787
0.06050000 0.06049470 32852.43998483 0 943.87246665 0 11458.33719678 0 1104.81732566 0 -837.03980910 0 3930
0.06150000 0.06148310 32578.92412755 0 228.54282021 0 10375.36818598 0 -632.03912484 0 -996.94223217 0 4083
0.06250000 0.06249100 31767.60359670 0 -644.75816144 0 9475.49003097 0 3206.69331995 0 328.25857319 0 4303
0.06350000 0.06350600 33356.74171204 0 249.74853758 0 10651.24572636 0 -399.92302317 0 -724.26559624 0 4470
0.06450000 0.06451750 31881.29392291 0 1348.99338957 0 10559.32682300 0 -643.99912747 0 1768.10975641 0 4479
0.06550000 0.06550280 31915.45594364 0 307.66140114 0 11457.67812242 0 -1317.37978968 0 186.79045983 0 4636
0.06650000 0.06648880 30761.52659397 0 351.70074954 0 12479.79260112 0 1379.89299224 0 2048.40309497 0 4653
0.06750000 0.06749660 30689.90718074 0 -76.09386903 0 12204.95859513 0 228.87016048 0 319.19739927 0 5220
0.06850000 0.06852730 30287.98166999 0 -5.89990181 0 11173.06784684 0 1744.15240361 0 1768.99950679 0 5029
0.06950000 0.06949320 31048.88301270 0 460.19756984 0 11435.81882298 0 1015.55119658 0 1696.76495749 0 5040
0.07050000 0.07048030 29274.43515791 0 286.49852361 0 10688.16487481 0 -581.87807415 0 2032.95878592 0 5475
0.07150000 0.07148790 29829.37576472 0 750.14415078 0 10748.81070003 0 245.66227658 0 1466.35256303 0 5509
0.07250000 0.07249820 28995.09747717 0 526.83767632 0 11135.72030006 0 115.46213777 0 378.16917563 0 5916
0.07350000 0.07351270 27832.05093225 0 242.32845880 0 9698.92722185 0 -210.65883759 0 1145.25153733 0 5721
0.07450000 0.07449140 28428.29353197 0 -152.14182254 0 9541.65011163 0 488.66408968 0 -686.03818520 0 6028
0.07550000 0.07549160 26728.21123355 0 166.16912172 0 9599.15434909 0 782.91991845 0 -621.82237389 0 6183
0.07650000 0.07648840 27227.35021165 0 1165.38625887 0 8812.10972364 0 -92.02292726 0 356.76793287 0 6330
0.07750000 0.07749960 26688.00769791 0 119.68570593 0 9134.80351236 0 795.48077720 0 -1954.07857021 0 6583
0.07850000 0.07848650 25008.68624167 0 466.69055069 0 8424.34332695 0 64.58038927 0 -938.31097756 0 6549
0.07950000 0.07947320 25298.67895782 0 687.00372913 0 8819.01901979 0 -43.98706183 0 -1482.26920870 0 6828
0.08050000 0.08048110 24388.05789082 0 50.19301580 0 7808.03191313 0 981.21232423 0 -595.72962018 0 7147
0.08150000 0.08149960 24852.04623666 0 216.96508071 0 7874.99386758 0 -125.89638327 0 -1945.66438762 0 7386
0.08250000 0.08250610 23927.91414539 0 237.56884350 0 7252.21254051 0 457.15264632 0 -1385.16558708 0 7227
0.08350000 0.08350160 23869.14668208 0 -105.31480932 0 6955.66203453 0 -664.21952868 0 -2355.18023802 0 7798
0.08450000 0.08449610 23523.13264577 0 595.65931891 0 6983.07952769 0 1015.30294524 0 -2747.72492379 0 7371
0.08550000 0.08548940 23509.18223859 0 -19.60526514 0 6402.16040673 0 800.53368058 0 -1206.28182259 0 8256
0.08650000 0.08650700 23215.34492204 0 32.07154672 0 5900.87943698 0 251.46982010 0 -1375.27947176 0 8037
0.08750000 0.08749060 22378.10079989 0 513.05533310 0 6334.08901044 0 557.19464110 0 -916.96685457 0 8155
0.08850000 0.08849210 22457.18972248 0 316.19970941 0 6104.75310409 0 -146.74180666 0 -1135.50822145 0 8718
0.08950000 0.08949900 21972.77007164 0 373.89178307 0 7071.87881244 0 -156.57519603 0 -1009.44926651 0 8571
0.09050000 0.09049190 21045.67214577 0 910.30361285 0 7033.29000896 0 -1007.86529114 0 -752.22902266 0 8932
0.09150000 0.09150830 20132.52462709 0 559.87377836 0 8216.20764568 0 -424.39445397 0 129.95298592 0 9285
0.09250000 0.09250820 19662.93414923 0 385.11911470 0 8366.47659859 0 480.43225099 0 -1198.38391491 0 9204
0.09350000 0.09350330 19363.38485494 0 735.81038202 0 8999.10010269 0 -179.69772132 0 -816.64035936 0 9349
0.09450000 0.09448040 18628.07756635 0 249.67603940 0 8519.16215747 0 -50.02758814 0 -151.80130079 0 9564
0.09550000 0.09549270 18627.08895481 0 -280.06705636 0 8386.72116586 0 944.39203694 0 -17.81324197 0 10155
0.09650000 0.09649430 18826.45894716 0 -202.25344265 0 8543.09754112 0 293.12222088 0 -898.42379760 0 9913
0.09750000 0.09749140 18302.27514358 0 334.71310804 0 7456.08620762 0 -69.36548878 0 -1558.76577216 0 10476
0.09850000 0.09850240 18140.91177236 0 446.89085861 0 7662.43140356 0 -80.60721021 0 -531.64452528 0 10575
0.09950000 0.09950330 17702.95686354 0 -28.68192731 0 7422.07797091 0 441.16899476 0 -986.21030475 0 10882
0.10050000 0.10051200 17910.45543961 0 232.29075638 0 7071.01103121 0 752.21364426 0 -1608.40505565 0 10875
0.10150000 0.10150300 17741.07333040 0 179.09576674 0 6918.03987344 0 422.59518098 0 -696.54602733 0 11118
0.10250000 0.10250800 17401.75988336 0 172.05904954 0 6691.60389425 0 406.71258748 0 -47.34109122 0 11575
0.10350000 0.10349800 17083.42696996 0 -38.35900622 0 5770.72323646 0 895.58867942 0 355.48713171 0 11364
0.10450000 0.10450100 16689.73988864 0 28.64974252 0 5930.58172124 0 432.47360710 0 262.58840447 0 12093
0.10550000 0.10551000 17183.38658045 0 379.69932659 0 5552.96506961 0 -365.26889359 0 146.95930119 0 12067
0.10650000 0.10649700 15900.38850295 0 554.43751339 0 5944.19160667 0 -417.02380576 0 235.33787681 0 12054
0.10750000 0.10749900 15840.41273665 0 418.37600665 0 6593.58855310 0 -416.24390111 0 49.02359820 0 12807
0.10850000 0.10850100 15329.84980307 0 268.74525740 0 6854.48313648 0 498.20968326 0 236.00244345 0 12736
0.10950000 0.10950300 15250.54118903 0 256.88960822 0 7008.25616805 0 135.65727447 0 172.68517018 0 12933
0.11050000 0.11050200 14970.43458821 0 -168.34187018 0 6152.66780969 0 691.05593795 0 307.62625051 0 13428
0.11150000 0.11150900 14982.18808087 0 -120.77976936 0 6087.24369539 0 715.29998810 0 1481.47831947 0 13453
0.11250000 0.11250000 14519.29819229 0 124.53429627 0 5278.81210713 0 653.41400463 0 2351.98372740 0 13668
0.11350000 0.11349100 14886.51245369 0 350.95489706 0 5291.81784106 0 630.74624065 0 1234.00688379 0 13791
0.11450000 0.11448600 14646.27985133 0 395.18427856 0 5701.75110523 0 -0.39311039 0 2591.82088514 0 14205
0.11550000 0.11549300 14312.67838204 0 -76.51512738 0 5416.15221811 0 -228.45274672 0 1870.11249740 0 14776
0.11650000 0.11649800 14068.93071646 0 -199.33264480 0 5802.74326554 0 -438.43823001 0 1449.10678408 0 14553
0.11750000 0.11747300 14119.45975033 0 448.23427184 0 5431.08025225 0 113.81555034 0 1683.63839326 0 14568
0.11850000 0.11849100 13831.44425725 0 -61.86785892 0 5901.68131078 0 223.02307249 0 1681.12292614 0 16015
0.11950000 0.11950300 14175.26137905 0 -64.07520878 0 4998.25513883 0 298.10372454 0 718.18124148 0 15270
0.12050000 0.12050700 14055.52953791 0 470.93718645 0 5881.05228347 0 -255.47589373 0 876.29317922 0 15999
0.12150000 0.12150000 13432.59442682 0 156.27312029 0 5858.11649592 0 -643.42463432 0 1480.11623247 0 15670
0.12250000 0.12250700 13466.09737319 0 -219.85512176 0 5364.07435950 0 1418.38293457 0 1779.57765019 0 16887
0.12350000 0.12352200 13982.92151315 0 -507.82118426 0 4394.44416860 0 1385.17657165 0 1267.50983016 0 16407
0.12450000 0.12449800 14205.90833655 0 189.29823775 0 3937.34314977 0 382.42130368 0 1800.63507582 0 16306
0.12550000 0.12549900 14264.78564558 0 340.04282266 0 3843.80951424 0 -202.97293216 0 2220.00408783 0 17523
0.12650000 0.12650100 13592.85934078 0 82.09485087 0 3972.29605973 0 -261.97546532 0 1855.04166382 0 17154
0.12750000 0.12750600 13633.61210506 0 306.54866394 0 4563.57363264 0 -372.64832945 0 1280.86707042 0 18007
0.12850000 0.12850300 13069.55430301 0 136.38115780 0 4340.65271667 0 47.78212181 0 2217.80717332 0 17496
0.12950000 0.12949900 13254.97388818 0 79.64616995 0 4458.64899534 0 295.66295251 0 1394.27179775 0 18405
0.13050000 0.13049000 12837.12074719 0 77.90753180 0 4305.33731582 0 -9.53258784 0 1500.88805922 0 18100
0.13150000 0.13148800 12527.13610894 0 426.07399511 0 4376.13288611 0 -347.52331658 0 927.92726110 0 19059
0.13250000 0.13249300 12117.08201448 0 464.85063478 0 4865.71528606 0 -380.95156786 0 1116.53786460 0 18957
0.13350000 0.13349100 12144.32375448 0 -90.74454271 0 5152.67626017 0 317.58266710 0 647.80857724 0 19468
0.13450000 0.13450700 11829.17636712 0 103.05473351 0 4505.11373736 0 77.73803985 0 -59.27044689 0 19953
0.13550000 0.13551000 11881.46293261 0 -23.66142841 0 4295.36332392 0 254.52023591 0 526.49605611 0 19956
0.13650000 0.13649900 11856.30826140 0 -186.35766767 0 4050.63803138 0 538.08587864 0 358.61883335 0 19723
0.13750000 0.13749600 11990.97912125 0 117.13289126 0 3526.68490382 0 586.77170124 0 233.78465825 0 20946
0.13850000 0.13851100 11748.11022147 0 307.17258766 0 3518.51238182 0 -299.82500707 0 392.78414945 0 20955
0.13950000 0.13949800 11408.68692871 0 187.50445705 0 3651.61244779 0 -313.28989614 0 -49.35258615 0 20506
0.14050000 0.14048300 11132.86431119 0 185.78207607 0 3651.65638608 0 171.26156957 0 166.65244292 0 21447
0.14150000 0.14148400 11008.95833247 0 147.92594358 0 3527.13527130 0 112.05692027 0 65.87404239 0 21771
0.14250000 0.14249400 10937.47073411 0 25.91535286 0 3777.17709697 0 191.71923755 0 -72.93305827 0 22470
0.14350000 0.14350900 10788.71765222 0 75.50520578 0 3043.92392344 0 237.43153635 0 57.93461302 0 22519
0.14450000 0.14449900 10748.90956118 0 -101.20251488 0 2889.64560154 0 532.47935280 0 355.39815667 0 22218
0.14550000 0.14550500 10784.82911352 0 -112.86758173 0 2699.05228268 0 143.72654148 0 -277.07266188 0 23559
0.14650000 0.14650700 10673.31373268 0 327.18318354 0 2627.56468432 0 -137.67404199 0 93.80792031 0 23044
0.14750000 0.14750500 10417.81257444 0 329.77993649 0 2644.07449691 0 -123.77196693 0 7.67526138 0 23649
0.14850000 0.14849900 10145.68077331 0 25.93787124 0 2682.24588663 0 25.29274729 0 376.35891807 0 23640
0.14950000 0.14949500 10193.99092352 0 26.37659507 0 2995.44900464 0 200.69802718 0 -17.23413531 0 24457
0.15050000 0.15050000 10003.17791321 0 104.55138152 0 2713.98031682 0 -102.06831889 0 109.64745428 0 24591
0.15150000 0.15149900 10002.52982343 0 66.18929962 0 2619.09557886 0 110.62123664 0 -97.28146185 0 25020
0.15250000 0.15250500 9859.46675013 0 148.89917671 0 3287.86931133 0 -196.16139870 0 378.93040651 0 25297
0.15350000 0.15350100 9607.32687109 0 228.22316915 0 3023.65738703 0 -35.04375237 0 150.32936806 0 25452
0.15450000 0.15450400 9780.79524130 0 -15.12828290 0 3049.09765713 0 61.89982403 0 94.75808584 0 26061
0.15550000 0.15549900 9533.33479019 0 19.97731262 0 3169.68629493 0 335.75334706 0 304.77904930 0 26128
0.15650000 0.15649500 9377.25499838 0 206.50447224 0 2907.52848570 0 -98.89201988 0 622.10357894 0 26331
0.15750000 0.15749700 9353.97868908 0 -54.31695388 0 2627.85028321 0 488.26754661 0 603.54074974 0 27345
0.15850000 0.15849900 9349.02464684 0 21.85886005 0 2622.69851867 0 256.02841773 0 112.65118565 0 26980
0.15950000 0.15949700 9011.17214796 0 248.74564610 0 2495.51913732 0 -149.02879467 0 492.92939922 0 27777
0.16050000 0.16050000 9025.21043172 0 215.35913620 0 2456.49095094 0 125.46468957 0 542.62140866 0 28224
0.16150000 0.16150500 8820.46898338 0 -89.28403394 0 2474.51663454 0 223.78979566 0 506.88639714 0 28075
0.16250000 0.16249700 8865.46179267 0 -29.15008980 0 2197.70540549 0 20.44338803 0 416.99524588 0 28590
0.16350000 0.16349900 8862.80352610 0 41.09866847 0 1862.68692634 0 114.63719637 0 35.11361425 0 29163
0.16450000 0.16449100 8719.66356080 0 76.76865132 0 1806.66560617 0 106.21224889 0 227.61901766 0 28996
0.16550000 0.16550500 8850.81935742 0 -35.35615361 0 1833.79750045 0 -37.05942144 0 204.53054455 0 30777
0.16650000 0.16650700 8745.77388982 0 116.34310050 0 2057.73998166 0 -10.35080668 0 122.32859409 0 29211
0.16750000 0.16749900 8584.93777809 0 270.68403446 0 1868.22315092 0 -225.93288577 0 36.87191478 0 30922
0.16850000 0.16850800 8453.71607403 0 -3.79738871 0 2036.77043261 0 107.37200007 0 123.52151868 0 30867
0.16950000 0.16949900 8449.25633756 0 111.02327199 0 2000.93875684 0 70.40539827 0 -102.47639576 0 30852
0.17050000 0.17049200 8217.41594866 0 92.77778709 0 2121.15391918 0 57.19018853 0 -39.40144216 0 31257
0.17150000 0.17149500 8047.13310450 0 112.49959855 0 1990.39356717 0 218.40186281 0 412.36085470 0 32608
0.17250000 0.17250900 8025.12002105 0 -7.60813466 0 1838.98221871 0 248.06460260 0 339.21348743 0 32361
0.17350000 0.17350400 8012.03739511 0 92.87587932 0 1792.98981331 0 -135.96044867 0 325.29713242 0 32508
0.17450000 0.17449800 7885.60496469 0 218.94120532 0 1882.63491014 0 -92.40255409 0 305.09430653 0 32791
0.17550000 0.17549800 7692.70488559 0 79.90375818 0 1785.59719596 0 2.96272596 0 375.19894720 0 33633
0.17650000 0.17650100 7765.41177151 0 -35.06671013 0 1841.48670125 0 14.18119305 0 -184.11132258 0 33984
0.17750000 0.17750300 7630.34546705 0 90.23386993 0 1748.68903209 0 -92.56512577 0 1.79885558 0 34069
0.17850000 0.17849800 7507.74665247 0 84.02736673 0 1886.22686538 0 63.26300948 0 -266.10676307 0 34536
