### header ###
fiducial parameters:
Omega_m = 0.31
Omega_nu = 0
Omega_de = 0.69
Omega_k = 0
H_0 = 100
w_de = -1
zeff = 0
beta = 0
fgrowth = 0
b_1 = 2
gamma = 0.55
Lx = 3500 Ly = 3500 Lz = 3500
nx = 700 ny = 700 nz = 700
xoffset = -983.599254 yoffset = -42.9823471 zoffset = 800.977702
bins = 400 dk = 0.001
kx_ny = 0.628318531 ky_ny = 0.628318531 kz_ny = 0.628318531
############################
A(data) = 9.08383983 (not used)
A(ran) = 9.08993905 (used)
Ngal = 504655
weighted Ngal = 0
Nran = 25229228
weighted Nran = 0
SN(data) = 6747.4712
SN(ran) = 134.933883
SN(data+ran) = 6882.40508
############################
13 columns: k_central k_mean P_0(k) sigma^{lin}_{P_0(k)} P^img_1(k) sigma^{lin}_{P_1(k)} P_2(k) sigma^{lin}_{P_2(k)} P^img_3(k) sigma^{lin}_{P_3(k)} P_4(k) sigma^{lin}_{P_4(k)} N_modes
### header ###
0.00050000 0 0 0 0 0 0 0 0 0 0 0 0
0.00150000 0.00179520 -5718.29387153 0 -3167.87384045 0 -586.27849393 0 1580.15273497 0 5809.71846913 0 3
0.00250000 0.00253879 7599.88524728 0 -14779.63256247 0 -9067.62186646 0 -14973.29057708 0 -9765.59259285 0 6
0.00350000 0.00331552 16299.67771628 0 -11006.21218933 0 -11413.84967782 0 -7270.72154531 0 -541.12421142 0 7
0.00450000 0.00420575 22384.36200626 0 561.43468612 0 -5729.82767274 0 -18574.58269787 0 11519.08188315 0 24
0.00550000 0.00557378 26110.87825448 0 471.35899404 0 -6841.41149511 0 -2621.52316940 0 14423.07333648 0 45
0.00650000 0.00659388 36714.61570443 0 -13517.06578997 0 -14287.74340228 0 982.59088809 0 -2616.41534315 0 40
0.00750000 0.00754703 58841.71902084 0 -7955.07140170 0 -6268.88458760 0 7019.43846294 0 7252.98146059 0 57
0.00850000 0.00846663 57312.55667179 0 -6154.48026417 0 -8829.81685464 0 -25969.17726818 0 1755.79605055 0 75
0.00950000 0.00948925 48853.99640125 0 7381.87443526 0 11110.78532030 0 1979.23324142 0 31953.57241050 0 112
0.01050000 0.01054430 52929.27282893 0 -6299.28988451 0 9392.80915315 0 29777.08919923 0 35222.69105643 0 105
0.01150000 0.01145670 64814.58036194 0 -2286.96604229 0 20587.39577768 0 18892.36638265 0 33385.52129220 0 144
0.01250000 0.01249090 68404.22883580 0 -20.38758640 0 11590.92098783 0 13864.06843782 0 39459.98992969 0 169
0.01350000 0.01339930 69510.81467764 0 -3419.09101539 0 12179.03500384 0 4879.29221777 0 62139.17786403 0 180
0.01450000 0.01448870 70396.83030205 0 691.17676825 0 16736.20463066 0 -4607.05057091 0 28596.79687537 0 267
0.01550000 0.01550050 80650.59926956 0 -2910.41742829 0 28893.27048934 0 -3351.18438769 0 19252.11113469 0 238
0.01650000 0.01653350 79287.52365794 0 1728.25772709 0 27184.18084140 0 -7645.69091495 0 14110.23270936 0 315
0.01750000 0.01747870 71837.01761319 0 3174.69526002 0 25972.69233141 0 -5358.83471838 0 18902.03280652 0 297
0.01850000 0.01844180 80177.27403703 0 98.87147873 0 39403.08984371 0 5736.94567578 0 -4566.48454437 0 388
0.01950000 0.01947590 75568.69661053 0 764.63939276 0 26315.74053312 0 12892.59283872 0 -2370.72340822 0 399
0.02050000 0.02045430 76280.82645098 0 412.60581067 0 29165.13866072 0 1454.73088524 0 13836.82669781 0 462
0.02150000 0.02154770 72156.11944668 0 -737.75794674 0 19413.03512301 0 12449.47518079 0 3752.86823784 0 571
0.02250000 0.02255340 75750.60113248 0 -315.39014641 0 7652.76497969 0 -972.20497471 0 7710.36807830 0 510
0.02350000 0.02348930 78062.41427794 0 2891.13950341 0 19097.00896984 0 6148.60351783 0 1535.87392290 0 555
0.02450000 0.02439640 68856.35384325 0 3817.46850919 0 16257.27726611 0 -8775.67389639 0 10291.84149607 0 592
0.02550000 0.02547300 66822.88976699 0 552.93372540 0 20717.67280849 0 -4524.24886280 0 3960.47665963 0 837
0.02650000 0.02652900 65497.82077650 0 4105.93436975 0 26262.24566465 0 309.00920820 0 -3749.85846496 0 723
0.02750000 0.02749970 62504.19521091 0 5230.84247866 0 23463.81595383 0 -5568.26657922 0 -10408.35485744 0 826
0.02850000 0.02848090 59949.95254857 0 1028.35261746 0 33415.39932962 0 2103.13922014 0 2696.89930645 0 831
0.02950000 0.02946900 61427.15786931 0 -4489.18610712 0 26200.51236675 0 13555.51179401 0 -4554.15985393 0 996
0.03050000 0.03053250 66540.36656020 0 -3048.57039765 0 21417.60977338 0 4115.04058042 0 -4365.52178900 0 1041
0.03150000 0.03150510 66375.04874285 0 1114.76934842 0 15423.76789864 0 -1918.78513851 0 -6211.51216501 0 1036
0.03250000 0.03246190 61749.00584594 0 4085.38223445 0 21089.50059037 0 -6620.02841931 0 4011.26932325 0 1059
0.03350000 0.03345080 57315.19296921 0 4435.06511801 0 24274.58725606 0 71.24846421 0 1355.45231825 0 1302
0.03450000 0.03451200 56800.12636087 0 323.02662127 0 25791.11734664 0 2341.43853772 0 855.95634154 0 1339
0.03550000 0.03553350 55427.27447965 0 1207.91852391 0 24010.29843975 0 9791.72489102 0 1007.00190374 0 1365
0.03650000 0.03647120 53059.76955119 0 -569.94882833 0 22944.35551646 0 4158.02321293 0 4381.06495920 0 1308
0.03750000 0.03744890 51562.02307973 0 2485.69892943 0 19356.79411139 0 7.85563905 0 12341.60667804 0 1579
0.03850000 0.03847530 49996.50179544 0 -145.14135443 0 17531.04830265 0 4569.24167209 0 9306.62419668 0 1662
0.03950000 0.03950240 49364.33964338 0 1150.12868756 0 18108.72697470 0 4654.98724566 0 9922.67198076 0 1683
0.04050000 0.04050350 48397.25787332 0 977.20844752 0 13540.35308384 0 -50.50343982 0 9957.97639704 0 1822
0.04150000 0.04152450 45646.94059040 0 1871.85904444 0 17753.81543460 0 -1922.06952571 0 5726.78494614 0 1887
0.04250000 0.04250150 42864.21881837 0 2165.86112958 0 12753.30845839 0 -865.64363610 0 6224.36411493 0 1920
0.04350000 0.04349210 42294.99826720 0 1394.89791839 0 18158.81662567 0 1477.40304305 0 3204.81495804 0 2005
0.04450000 0.04448520 40453.76421112 0 -724.84558167 0 15093.35195539 0 -1143.45006743 0 3727.28516830 0 2151
0.04550000 0.04548030 39353.98880428 0 1884.26062689 0 17015.87184858 0 563.62061606 0 -1310.72313870 0 2274
0.04650000 0.04648670 39298.51671274 0 1058.45144479 0 16848.79649962 0 -3827.42053195 0 -1032.76512027 0 2311
0.04750000 0.04749250 38347.91180155 0 47.42929734 0 17900.23978711 0 1424.83087867 0 -3756.72382282 0 2568
0.04850000 0.04851840 37752.87750482 0 554.07831786 0 17081.66943834 0 1233.13910255 0 -3232.13359005 0 2493
0.04950000 0.04949480 37465.85062327 0 -229.76650160 0 18121.02969599 0 405.53833667 0 -3904.83979951 0 2644
0.05050000 0.05050630 37808.12990490 0 751.90278085 0 17441.96341901 0 1150.84268477 0 -2386.34347043 0 2829
0.05150000 0.05149060 36067.18499649 0 395.82248223 0 16328.12775926 0 1348.38923808 0 -2267.53433339 0 2784
0.05250000 0.05249300 35657.78997638 0 595.38690151 0 16231.13398337 0 -408.30205513 0 -2209.98615764 0 3055
0.05350000 0.05348950 36869.05879492 0 498.16574497 0 16660.74061703 0 562.14648642 0 -2296.16012954 0 3009
0.05450000 0.05448610 34674.23134745 0 -113.01477500 0 15820.31096883 0 2389.36422789 0 -397.83595438 0 3336
0.05550000 0.05550870 35281.34867402 0 -343.59083960 0 12007.23628867 0 2269.31383415 0 -790.86286288 0 3349
0.05650000 0.05647670 36270.50943497 0 -519.17374003 0 13614.05956587 0 3490.05135426 0 937.16638509 0 3324
0.05750000 0.05747970 36427.47897715 0 939.50390214 0 10449.22845202 0 293.61872356 0 -577.95877865 0 3639
0.05850000 0.05849280 35329.68079337 0 -368.75869230 0 9724.31256909 0 -815.04430096 0 1858.67755734 0 3846
0.05950000 0.05951020 34280.21472895 0 845.18596813 0 11500.95733839 0 1202.31639189 0 1207.49012558 0 3787
0.06050000 0.06049470 33573.68702052 0 1149.20598346 0 9946.46456497 0 -216.04677044 0 3164.36976180 0 3930
0.06150000 0.06148310 33141.00470654 0 -19.90075015 0 11673.74466510 0 1238.33480539 0 1079.96363174 0 4083
0.06250000 0.06249100 32952.50944105 0 410.38363164 0 12201.66322336 0 161.96422734 0 1416.05420518 0 4303
0.06350000 0.06350600 32916.48004298 0 1265.75229855 0 11068.38487014 0 -2550.26624707 0 882.01064925 0 4470
0.06450000 0.06451750 31389.62445417 0 -98.19318137 0 13462.14292707 0 909.00084254 0 4042.16892592 0 4479
0.06550000 0.06550280 31811.87142420 0 -201.97113914 0 13350.31997819 0 618.76426888 0 -641.41665446 0 4636
0.06650000 0.06648880 31489.80375611 0 940.27501913 0 13034.07413357 0 665.14662660 0 -71.80571158 0 4653
0.06750000 0.06749660 31314.59982344 0 584.26282486 0 14061.68089855 0 -992.91309094 0 1263.55538403 0 5220
0.06850000 0.06852730 29469.74085841 0 -176.17936272 0 13242.67116689 0 1152.58923182 0 2239.17216699 0 5029
0.06950000 0.06949320 29863.75747690 0 668.78801241 0 13355.92211020 0 1094.51928886 0 1283.34958382 0 5040
0.07050000 0.07048030 29074.62578265 0 693.01229033 0 11542.91840565 0 830.64349249 0 1282.92118549 0 5475
0.07150000 0.07148790 29070.12210790 0 363.75741640 0 12474.41016055 0 2182.14026615 0 2622.10535175 0 5509
0.07250000 0.07249820 27930.36285686 0 636.95801645 0 11833.78988761 0 -1187.38835775 0 668.67706823 0 5916
0.07350000 0.07351270 26591.67299637 0 697.13809579 0 11701.42578800 0 -784.99819958 0 2907.53947027 0 5721
0.07450000 0.07449140 26154.37716190 0 -57.37835426 0 11394.29713863 0 840.42854974 0 832.56908806 0 6028
0.07550000 0.07549160 26057.60307746 0 -147.36792729 0 10275.77106639 0 1428.43381848 0 -389.82270868 0 6183
0.07650000 0.07648840 26898.91149147 0 346.87412835 0 10687.13232499 0 -301.12558046 0 -206.39682343 0 6330
0.07750000 0.07749960 25277.58857846 0 621.31708355 0 10755.51128930 0 -488.22470678 0 -615.62817341 0 6583
0.07850000 0.07848650 24708.91725593 0 657.85836270 0 10848.45175792 0 142.63467497 0 -615.86324326 0 6549
0.07950000 0.07947320 24772.51793117 0 770.32500753 0 11144.50795813 0 -228.64717365 0 -2449.13128731 0 6828
0.08050000 0.08048110 24199.78231678 0 92.82161554 0 11128.47048216 0 915.22140599 0 -764.75033694 0 7147
0.08150000 0.08149960 23684.82555417 0 -398.01610137 0 9782.90427923 0 2079.08300619 0 194.65431534 0 7386
0.08250000 0.08250610 23827.07576909 0 -310.03187191 0 8629.84271080 0 956.17189257 0 728.73521882 0 7227
0.08350000 0.08350160 23296.41106769 0 311.24566718 0 7798.29958182 0 1182.17068578 0 1007.30178257 0 7798
0.08450000 0.08449610 23842.78370789 0 770.47000389 0 7061.79497481 0 728.51882274 0 245.30967180 0 7371
0.08550000 0.08548940 22521.44947208 0 354.99392440 0 6734.04828270 0 -33.73428147 0 1605.18657588 0 8256
0.08650000 0.08650700 21692.88316227 0 526.95301433 0 6847.34316431 0 227.53553491 0 712.87679138 0 8037
0.08750000 0.08749060 21024.80145787 0 252.34858591 0 6847.84845464 0 108.34270675 0 1323.17964400 0 8155
0.08850000 0.08849210 20526.87078276 0 212.33618183 0 6572.57506576 0 266.93609830 0 -19.72049331 0 8718
0.08950000 0.08949900 20547.74147066 0 445.92970851 0 6146.35168046 0 -377.28162217 0 -520.55889463 0 8571
0.09050000 0.09049190 19813.64248505 0 367.12968019 0 6280.89072543 0 -750.14415078 0 -424.81736001 0 8932
0.09150000 0.09150830 19333.61666324 0 -98.36366194 0 6787.22459857 0 323.17381454 0 -1598.26629516 0 9285
0.09250000 0.09250820 19694.24018109 0 261.29222491 0 5877.68001969 0 177.07570384 0 -1808.81858240 0 9204
0.09350000 0.09350330 19392.60381801 0 252.49138535 0 6749.67932949 0 19.29143590 0 -1942.66559930 0 9349
0.09450000 0.09448040 18908.84324152 0 362.91380123 0 5870.92450755 0 465.95568279 0 -1139.85811219 0 9564
0.09550000 0.09549270 18975.62944282 0 260.70674719 0 6568.02745271 0 511.02428563 0 -717.49470570 0 10155
0.09650000 0.09649430 18288.21489068 0 308.69065560 0 6104.74211952 0 235.74650291 0 413.64824661 0 9913
0.09750000 0.09749140 17738.76657016 0 280.61298962 0 5968.13797490 0 667.34793495 0 613.63227657 0 10476
0.09850000 0.09850240 17276.09637303 0 222.55183433 0 6063.25338888 0 631.11642075 0 1940.86412940 0 10575
0.09950000 0.09950330 17528.19231378 0 86.91477148 0 5575.83494973 0 336.77601077 0 826.89226095 0 10882
0.10050000 0.10051200 16974.89939285 0 407.71218359 0 6139.87078263 0 -1369.45764829 0 900.88653877 0 10875
0.10150000 0.10150300 15965.41717263 0 409.86625827 0 6122.69091111 0 -7.84931194 0 987.59765627 0 11118
0.10250000 0.10250800 16095.80404917 0 249.65516871 0 6506.73353770 0 181.03344534 0 342.45723171 0 11575
0.10350000 0.10349800 16191.69936780 0 -40.40334502 0 6524.49559157 0 385.59145132 0 -450.93208287 0 11364
0.10450000 0.10450100 16224.65308555 0 209.61750011 0 6081.19119590 0 -41.15600794 0 -535.94937927 0 12093
0.10550000 0.10551000 15788.56555407 0 -209.92506814 0 5540.71727118 0 231.29555410 0 -103.63735524 0 12067
0.10650000 0.10649700 15612.04347269 0 211.08503901 0 5968.35766635 0 219.40145891 0 -540.31354996 0 12054
0.10750000 0.10749900 15228.90158105 0 690.77033906 0 6568.14828301 0 -564.39612689 0 -453.57826640 0 12807
0.10850000 0.10850100 14940.55655079 0 548.57724391 0 6593.97301314 0 -656.17992001 0 -0.84649753 0 12736
0.10950000 0.10950300 14674.40035714 0 -30.45472748 0 6956.05747914 0 635.29934599 0 265.46636249 0 12933
0.11050000 0.11050200 14482.60971987 0 -46.42915200 0 6979.25689644 0 693.07490239 0 109.17588658 0 13428
0.11150000 0.11150900 14431.53145737 0 -109.81387055 0 6229.30717259 0 522.14506691 0 310.81836730 0 13453
0.11250000 0.11250000 14583.44809617 0 80.45540341 0 6032.72726167 0 641.15302471 0 1145.91061169 0 13668
0.11350000 0.11349100 14432.52006890 0 116.43866628 0 5700.86135485 0 -181.32343806 0 21.45122257 0 13791
0.11450000 0.11448600 14113.63792686 0 195.52649041 0 5736.34152428 0 -55.75977749 0 632.21377955 0 14205
0.11550000 0.11549300 14077.93806598 0 242.29989891 0 5795.22981789 0 -245.90723255 0 -803.10516902 0 14776
0.11650000 0.11649800 13978.08830121 0 -71.08105933 0 5072.04949743 0 83.47923655 0 -783.20991117 0 14553
0.11750000 0.11747300 13723.79544595 0 -403.22388723 0 4701.51789511 0 1258.95284812 0 -236.36273743 0 14568
0.11850000 0.11849100 14305.09902696 0 -70.94331279 0 4065.64295752 0 809.24664355 0 -899.57278389 0 16015
0.11950000 0.11950300 14097.05122227 0 192.16960502 0 2909.43980133 0 375.97665494 0 -1063.91846657 0 15270
0.12050000 0.12050700 14060.69228702 0 265.08300090 0 3307.41086595 0 -517.24375062 0 -409.33460496 0 15999
0.12150000 0.12150000 13483.34315215 0 309.85282337 0 3400.38428828 0 -406.86197767 0 -328.29921611 0 15670
0.12250000 0.12250700 12811.96607598 0 565.66814039 0 4100.42011432 0 -456.88572120 0 -748.03730976 0 16887
0.12350000 0.12352200 12620.17543871 0 202.86198797 0 4121.80707713 0 356.77891744 0 -241.89566664 0 16407
0.12450000 0.12449800 12516.48107354 0 -84.96841506 0 4136.14194435 0 669.33394567 0 -49.93180266 0 16306
0.12550000 0.12549900 12673.45061572 0 -146.72752671 0 4023.75878227 0 670.30278497 0 -189.14005991 0 17523
0.12650000 0.12650100 12499.78452321 0 230.71776558 0 3696.75904110 0 -190.73501985 0 327.57093895 0 17154
0.12750000 0.12750600 12571.84331935 0 67.15341556 0 3697.98931323 0 -143.31901384 0 524.48038704 0 18007
0.12850000 0.12850300 12398.50676401 0 -163.93046583 0 3651.94198497 0 96.36842418 0 329.92603131 0 17496
0.12950000 0.12949900 12497.47776297 0 160.09575154 0 3759.83245686 0 261.48445493 0 151.68596278 0 18405
0.13050000 0.13049000 12548.99540838 0 66.84771490 0 3651.75524723 0 94.69909868 0 606.96354255 0 18100
0.13150000 0.13148800 12322.49352175 0 35.31869622 0 3888.65952409 0 164.63677385 0 792.91038721 0 19059
0.13250000 0.13249300 12297.44869627 0 266.26494091 0 3607.87187977 0 -156.73666925 0 379.39066010 0 18957
0.13350000 0.13349100 11963.95707270 0 9.57071529 0 3949.52504077 0 -117.15046658 0 738.74765673 0 19468
0.13450000 0.13450700 12062.26899730 0 106.76356459 0 3658.84029655 0 -32.90571516 0 338.62032051 0 19953
0.13550000 0.13551000 11801.71493567 0 212.86783514 0 4034.23806451 0 313.08997691 0 407.20799171 0 19956
0.13650000 0.13649900 11860.26270753 0 227.53773182 0 3720.09027326 0 -185.53712010 0 359.30207376 0 19723
0.13750000 0.13749600 11561.48233332 0 3.01757193 0 3968.93478052 0 261.83376434 0 596.09540644 0 20946
0.13850000 0.13851100 11205.25264450 0 208.65635001 0 3982.09429847 0 -56.51562593 0 286.89506668 0 20955
0.13950000 0.13949800 11112.10346901 0 322.88711720 0 4042.67421626 0 -149.82847155 0 459.28914569 0 20506
0.14050000 0.14048300 10899.80463473 0 49.62357556 0 3983.81887637 0 72.82848513 0 564.31044722 0 21447
0.14150000 0.14148400 10771.24119724 0 -84.85802011 0 3930.63157593 0 838.61719372 0 1388.87837261 0 21771
0.14250000 0.14249400 10949.38899537 0 -149.37480870 0 3291.84572660 0 415.93303771 0 575.97276793 0 22470
0.14350000 0.14350900 11311.58330709 0 103.80201398 0 3289.98933384 0 91.84014398 0 787.09405603 0 22519
0.14450000 0.14449900 10927.37591191 0 185.78317453 0 3122.51854026 0 -349.72792030 0 670.21820376 0 22218
0.14550000 0.14550500 10825.43907836 0 204.74364526 0 3579.11426875 0 -444.41493595 0 805.02087848 0 23559
0.14650000 0.14650700 10693.17383991 0 -45.32465323 0 3751.89061088 0 -173.43761340 0 167.85195824 0 23044
0.14750000 0.14750500 10472.51574589 0 182.05610905 0 3898.02936451 0 59.58910934 0 151.17957398 0 23649
0.14850000 0.14849900 10451.18370594 0 245.88306649 0 3981.53408527 0 -226.74354722 0 -236.43413716 0 23640
0.14950000 0.14949500 9944.58620306 0 282.54627439 0 4290.48617369 0 -346.43694236 0 -62.33118819 0 24457
0.15050000 0.15050000 9847.42765858 0 200.79029759 0 4432.91214178 0 380.89994037 0 -27.26733406 0 24591
0.15150000 0.15149900 9621.95832177 0 -184.16404853 0 4128.34289782 0 466.73119361 0 301.42436083 0 25020
0.15250000 0.15250500 9761.86882274 0 72.14425611 0 3712.39008788 0 468.32944892 0 121.56406784 0 25297
0.15350000 0.15350100 9769.74476128 0 187.56157683 0 3400.88957862 0 279.84187263 0 421.93940199 0 25452
0.15450000 0.15450400 9558.68718370 0 86.17518020 0 3572.54549435 0 9.62147500 0 881.49986662 0 26061
0.15550000 0.15549900 9470.15152870 0 70.81819851 0 3297.72247294 0 195.56713332 0 1115.29660790 0 26128
0.15650000 0.15649500 9289.59810918 0 -78.50069872 0 3139.39084375 0 356.10556314 0 1005.83204676 0 26331
0.15750000 0.15749700 9365.08409196 0 35.12218222 0 2796.96876267 0 323.82629816 0 1150.99646879 0 27345
0.15850000 0.15849900 9316.81788004 0 156.10285941 0 2919.49068524 0 -156.72788159 0 922.19221575 0 26980
0.15950000 0.15949700 9281.83201636 0 94.96789117 0 2867.32495005 0 277.03311742 0 1346.93927450 0 27777
0.16050000 0.16050000 9215.21058366 0 -147.96768496 0 2382.46591631 0 213.97508006 0 719.53893465 0 28224
0.16150000 0.16150500 9081.03402958 0 45.72569998 0 2466.95924861 0 -1.96938008 0 680.98198644 0 28075
0.16250000 0.16249700 9016.87314113 0 237.56994196 0 2388.90287585 0 -138.84939126 0 778.53597553 0 28590
0.16350000 0.16349900 8915.49652078 0 105.28009807 0 2281.12224968 0 -69.62516408 0 239.38679027 0 29163
0.16450000 0.16449100 8690.51050517 0 117.67992298 0 2358.89302355 0 -56.41478755 0 89.68167546 0 28996
0.16550000 0.16550500 8716.96135594 0 53.14457045 0 2098.39388479 0 39.43373680 0 -35.17501801 0 30777
0.16650000 0.16650700 8561.69442250 0 74.27449427 0 2368.12006452 0 -5.85327230 0 -310.25705565 0 29211
0.16750000 0.16749900 8411.74402220 0 184.96482387 0 2255.23161210 0 50.40556728 0 -301.92306043 0 30922
0.16850000 0.16850800 8341.76131028 0 45.40407169 0 2267.57827168 0 61.36311781 0 -15.76000567 0 30867
0.16950000 0.16949900 8270.39454222 0 10.90047469 0 2339.87872841 0 -106.22114640 0 -113.99679579 0 30852
0.17050000 0.17049200 8245.49251618 0 30.50624513 0 2424.29516870 0 78.11733714 0 168.07604352 0 31257
0.17150000 0.17149500 8223.27072585 0 82.95615121 0 2400.63439936 0 -133.63281774 0 -95.91135611 0 32608
0.17250000 0.17250900 8186.96671346 0 123.70166567 0 2508.74456271 0 48.60464660 0 122.06166898 0 32361
0.17350000 0.17350400 8097.69509210 0 70.94529001 0 2548.44280802 0 114.17474587 0 258.77346241 0 32508
0.17450000 0.17449800 7959.46523073 0 18.00151755 0 2833.63526595 0 41.08559683 0 300.35226655 0 32791
0.17550000 0.17549800 7995.45069051 0 215.55246468 0 2710.21260842 0 50.22366276 0 453.25092614 0 33633
0.17650000 0.17650100 7928.44479776 0 -33.12156201 0 2617.26115524 0 29.03079734 0 556.17307585 0 33984
0.17750000 0.17750300 7832.42864883 0 -34.41027207 0 2494.11311203 0 196.80070082 0 385.93197307 0 34069
0.17850000 0.17849800 7866.51377755 0 37.03481600 0 2445.38554806 0 454.89641511 0 669.44928368 0 34536
