### header ###
fiducial parameters:
Omega_m = 0.31
Omega_nu = 0
Omega_de = 0.69
Omega_k = 0
H_0 = 100
w_de = -1
zeff = 0
beta = 0
fgrowth = 0
b_1 = 2
gamma = 0.55
Lx = 3500 Ly = 3500 Lz = 3500
nx = 700 ny = 700 nz = 700
xoffset = -983.599254 yoffset = -42.9823471 zoffset = 800.977702
bins = 400 dk = 0.001
kx_ny = 0.628318531 ky_ny = 0.628318531 kz_ny = 0.628318531
############################
A(data) = 9.16828327 (not used)
A(ran) = 9.17070303 (used)
Ngal = 509820
weighted Ngal = 0
Nran = 25229228
weighted Nran = 0
SN(data) = 6705.12746
SN(ran) = 136.132768
SN(data+ran) = 6841.26022
############################
13 columns: k_central k_mean P_0(k) sigma^{lin}_{P_0(k)} P^img_1(k) sigma^{lin}_{P_1(k)} P_2(k) sigma^{lin}_{P_2(k)} P^img_3(k) sigma^{lin}_{P_3(k)} P_4(k) sigma^{lin}_{P_4(k)} N_modes
### header ###
0.00050000 0 0 0 0 0 0 0 0 0 0 0 0
0.00150000 0.00179520 28881.51699667 0 -29101.31829403 0 17662.42379072 0 -63613.96657880 0 -863.88500603 0 3
0.00250000 0.00253879 33603.45521222 0 -8501.60881048 0 -1180.22641643 0 -28273.19136712 0 30046.32107320 0 6
0.00350000 0.00331552 34069.97000975 0 -9877.66818689 0 5407.43046748 0 -12934.33421453 0 42278.52140833 0 7
0.00450000 0.00420575 33445.60690422 0 -22376.01373110 0 -3188.25022259 0 -4761.70236829 0 -3123.27647577 0 24
0.00550000 0.00557378 61780.86110643 0 5246.70420147 0 11053.44585143 0 3166.96212093 0 -17504.90501990 0 45
0.00650000 0.00659388 73583.01542500 0 14541.26733746 0 16320.32871273 0 -1380.35434429 0 56289.01419866 0 40
0.00750000 0.00754703 80069.62522573 0 -10589.73211991 0 19260.12987268 0 24227.02405678 0 20744.91454850 0 57
0.00850000 0.00846663 82321.24291346 0 -12320.84583586 0 43869.41705529 0 -7514.97450123 0 1412.35240422 0 75
0.00950000 0.00948925 90789.90899077 0 -1379.35474818 0 694.27881155 0 8288.82665501 0 -12522.74227991 0 112
0.01050000 0.01054430 90161.37174767 0 6144.16575051 0 43492.75606147 0 -1529.95323827 0 11041.69235877 0 105
0.01150000 0.01145670 74693.33602152 0 17180.20105440 0 45684.50782863 0 -31629.19798217 0 -12928.95177397 0 144
0.01250000 0.01249090 68920.61359285 0 12235.93508981 0 64322.69120175 0 6608.00031233 0 13077.57304099 0 169
0.01350000 0.01339930 73147.58696787 0 -7047.42715388 0 62709.60671818 0 25042.40887949 0 16683.69837372 0 180
0.01450000 0.01448870 74051.39759987 0 -12019.97839286 0 40498.36157580 0 22816.27540016 0 -10165.69466455 0 267
0.01550000 0.01550050 85611.23224730 0 940.49251367 0 48081.34156588 0 3938.26585387 0 -240.99053786 0 238
0.01650000 0.01653350 83074.34520963 0 6840.32402243 0 33777.01145900 0 -3242.39318084 0 15595.45676809 0 315
0.01750000 0.01747870 80109.93860711 0 -2672.86506165 0 40123.34826787 0 13089.98560801 0 17744.36870218 0 297
0.01850000 0.01844180 80047.65608057 0 333.12144347 0 27975.17991299 0 118.06987531 0 -6737.38759277 0 388
0.01950000 0.01947590 83449.02898038 0 1260.89711747 0 43670.04706294 0 1381.11227980 0 -2197.16716144 0 399
0.02050000 0.02045430 76742.17849939 0 2542.32440109 0 32315.84361423 0 2589.07474200 0 -5485.76145456 0 462
0.02150000 0.02154770 79943.63217823 0 -2149.83463819 0 36893.77408323 0 6860.17314508 0 -7477.01181839 0 571
0.02250000 0.02255340 83428.81736683 0 2222.26690979 0 24061.26685653 0 1609.74517351 0 -11281.26588677 0 510
0.02350000 0.02348930 83283.38162586 0 2672.31583302 0 33302.25823204 0 -701.82960674 0 -16122.27686909 0 555
0.02450000 0.02439640 71408.61928252 0 2763.27907856 0 36057.51857261 0 -7149.63860174 0 -4143.85311430 0 592
0.02550000 0.02547300 70586.75356199 0 4930.93069347 0 34957.63332004 0 -2317.92056782 0 -13404.91330392 0 837
0.02650000 0.02652900 62339.31677646 0 3606.91622196 0 35223.67966796 0 2155.76630738 0 -623.72490186 0 723
0.02750000 0.02749970 64228.44356900 0 3050.84420417 0 37207.71316761 0 9969.75185884 0 -10606.20897878 0 826
0.02850000 0.02848090 60423.93685545 0 -604.71829592 0 31707.07860177 0 7367.14412343 0 147.32838283 0 831
0.02950000 0.02946900 59645.02081371 0 443.06603044 0 24965.62671715 0 7231.75926636 0 -174.19554891 0 996
0.03050000 0.03053250 56394.13655826 0 1654.48533763 0 26067.37934706 0 2640.52647997 0 9279.84380873 0 1041
0.03150000 0.03150510 54992.94447979 0 1448.55755545 0 20800.38664003 0 6038.25250168 0 10662.79051215 0 1036
0.03250000 0.03246190 53591.75240131 0 2285.65887815 0 21808.88024872 0 4138.11916742 0 12530.43148072 0 1059
0.03350000 0.03345080 51620.13146868 0 993.86325647 0 15889.29408464 0 5808.44425871 0 15433.65401396 0 1302
0.03450000 0.03451200 49674.32428162 0 -1776.52393901 0 16368.77067781 0 2728.22730746 0 11323.00726257 0 1339
0.03550000 0.03553350 48763.59336891 0 1292.37890249 0 14117.92191017 0 -1219.16672623 0 7348.70102606 0 1365
0.03650000 0.03647120 46746.49630579 0 4791.54745199 0 15444.52874082 0 -1328.22156282 0 13938.65368564 0 1308
0.03750000 0.03744890 45479.86524144 0 851.39225163 0 14157.02698856 0 -719.35988612 0 5794.58172811 0 1579
0.03850000 0.03847530 47007.48975033 0 -1495.23100435 0 16788.82073332 0 1548.85768769 0 -268.60026105 0 1662
0.03950000 0.03950240 44382.06705766 0 470.90972502 0 12857.77174364 0 -2200.71517838 0 -4794.86479291 0 1683
0.04050000 0.04050350 44601.20928066 0 32.66108873 0 11579.49703235 0 1608.58080881 0 -2574.90464337 0 1822
0.04150000 0.04152450 44236.30177950 0 -36.47130742 0 12803.94733799 0 -666.78222946 0 -5929.61507885 0 1887
0.04250000 0.04250150 43817.78956416 0 933.99953282 0 8920.82403848 0 691.98193742 0 -399.03766662 0 1920
0.04350000 0.04349210 44469.61410113 0 456.34418178 0 13431.38612384 0 3089.63072995 0 -5026.17792233 0 2005
0.04450000 0.04448520 42095.62827485 0 1488.10201674 0 10552.46146514 0 1912.10651838 0 1196.30783069 0 2151
0.04550000 0.04548030 41201.70375818 0 496.92668518 0 11485.35924533 0 605.92220507 0 3876.20301879 0 2274
0.04650000 0.04648670 39732.84671261 0 981.41773574 0 12203.64044642 0 -548.18399621 0 3023.25095785 0 2311
0.04750000 0.04749250 38137.00800799 0 1782.81809910 0 15537.67791631 0 -697.55880492 0 3513.67916988 0 2568
0.04850000 0.04851840 37673.45904506 0 1368.10654586 0 16096.13358635 0 -3443.71842711 0 3479.49518001 0 2493
0.04950000 0.04949480 36916.29245702 0 -708.11058534 0 16989.28918293 0 2141.72802362 0 3911.72712651 0 2644
0.05050000 0.05050630 36720.43752790 0 -567.49597327 0 16741.80676268 0 -58.57094931 0 598.28353330 0 2829
0.05150000 0.05149060 38796.85128295 0 -101.73548634 0 15382.79544291 0 3335.75106321 0 4225.21584341 0 2784
0.05250000 0.05249300 37960.37608088 0 0.79245782 0 16542.10723315 0 -953.82668633 0 1830.46917496 0 3055
0.05350000 0.05348950 37226.16724954 0 1553.69089962 0 14791.93528376 0 685.59111309 0 1323.11373657 0 3009
0.05450000 0.05448610 37285.15440430 0 697.91031124 0 17767.98553323 0 -802.86240997 0 2134.69789717 0 3336
0.05550000 0.05550870 35493.79030774 0 498.10862519 0 17662.09425354 0 811.98509750 0 1988.51520526 0 3349
0.05650000 0.05647670 35872.53837034 0 -69.47335729 0 15818.33374576 0 2219.67455066 0 2523.61767398 0 3324
0.05750000 0.05747970 36318.40217142 0 -519.80864832 0 14744.59177594 0 1756.37823289 0 1062.60581014 0 3639
0.05850000 0.05849280 35584.08349436 0 -9.40959358 0 13694.13709998 0 1744.07551160 0 2103.39186531 0 3846
0.05950000 0.05951020 35253.88724256 0 1052.08039270 0 14042.56774226 0 -1420.97529370 0 -652.74614262 0 3787
0.06050000 0.06049470 33082.45693468 0 1884.17275031 0 15562.06366744 0 -1245.38690098 0 3038.43163715 0 3930
0.06150000 0.06148310 32664.49394796 0 373.02510029 0 14930.45074401 0 -119.82301309 0 -254.69818599 0 4083
0.06250000 0.06249100 32368.56956262 0 -528.71493977 0 13961.94097952 0 3501.49727889 0 776.28853198 0 4303
0.06350000 0.06350600 33036.10203839 0 -87.23156655 0 12721.89258081 0 1129.13716935 0 -1019.38920624 0 4470
0.06450000 0.06451750 32706.12547805 0 194.26985530 0 10195.99011573 0 742.80206247 0 1992.20602164 0 4479
0.06550000 0.06550280 31976.74985864 0 481.93823589 0 10941.07367392 0 566.27229188 0 -734.92173010 0 4636
0.06650000 0.06648880 31350.07999288 0 479.42935951 0 11813.90781123 0 259.06894742 0 1655.55084117 0 4653
0.06750000 0.06749660 30414.08456322 0 859.78666200 0 10706.15760470 0 -509.54356525 0 -261.59979294 0 5220
0.06850000 0.06852730 30240.96769934 0 13.92074883 0 11294.11783669 0 -440.78233780 0 -1152.44643237 0 5029
0.06950000 0.06949320 30144.96253498 0 109.45401596 0 10772.86691398 0 1457.37816723 0 -198.48683272 0 5040
0.07050000 0.07048030 29931.86182690 0 804.88796515 0 11229.19901273 0 -188.57984670 0 -774.78584245 0 5475
0.07150000 0.07148790 29384.28088372 0 -226.52824960 0 9551.74493383 0 635.32351205 0 -755.19705417 0 5509
0.07250000 0.07249820 29647.80077995 0 -79.37507070 0 10276.36423331 0 1874.31958870 0 -860.46990242 0 5916
0.07350000 0.07351270 28544.51030988 0 542.70928524 0 9209.67435908 0 -1702.47693524 0 159.68492853 0 5721
0.07450000 0.07449140 28780.78846610 0 544.90180593 0 8590.04560434 0 2172.39695027 0 813.56358058 0 6028
0.07550000 0.07549160 27901.36358524 0 98.65354481 0 8874.66686449 0 1329.13328234 0 569.18649899 0 6183
0.07650000 0.07648840 26836.84865638 0 1480.62152281 0 9421.28116528 0 -1318.39037036 0 1073.25535326 0 6330
0.07750000 0.07749960 25561.21024251 0 1050.63482294 0 9472.00792146 0 -445.22669587 0 2298.31310577 0 6583
0.07850000 0.07848650 24776.69206875 0 -510.65081016 0 9237.33351284 0 1611.09627593 0 847.62783861 0 6549
0.07950000 0.07947320 24774.82469141 0 -202.13151390 0 8191.29463506 0 1583.67878277 0 666.42962468 0 6828
0.08050000 0.08048110 24882.47350271 0 421.83065473 0 6562.74387330 0 538.17705059 0 938.09128610 0 7147
0.08150000 0.08149960 24096.08795161 0 585.07788014 0 7206.64853344 0 -606.52086428 0 597.35863229 0 7386
0.08250000 0.08250610 23449.86554665 0 820.72332499 0 7226.40977952 0 -794.46909806 0 336.95725622 0 7227
0.08350000 0.08350160 22195.42735786 0 337.31535329 0 7140.09300817 0 861.30363147 0 2116.95781245 0 7798
0.08450000 0.08449610 22550.66843514 0 -625.11664720 0 5953.91295340 0 2649.94025867 0 754.36112819 0 7371
0.08550000 0.08548940 22826.93043556 0 -248.80825817 0 4684.57968419 0 1120.11883526 0 1874.14383554 0 8256
0.08650000 0.08650700 22584.39107297 0 1025.61636043 0 5138.00087121 0 -601.49322541 0 390.20936564 0 8037
0.08750000 0.08749060 21359.06200152 0 730.92334568 0 5815.30961657 0 -1639.51336520 0 2287.19671831 0 8155
0.08850000 0.08849210 20688.67353688 0 451.64388317 0 7185.05286375 0 -1389.94387615 0 -188.43155497 0 8718
0.08950000 0.08949900 20416.03644541 0 474.43906819 0 6864.67681984 0 -762.81155988 0 -715.44059062 0 8571
0.09050000 0.09049190 20059.80675660 0 117.46132998 0 7382.21495701 0 1005.56841701 0 -800.80829490 0 8932
0.09150000 0.09150830 19989.06610917 0 -245.49201571 0 7458.11835355 0 22.73081543 0 -1414.85688677 0 9285
0.09250000 0.09250820 20230.72670596 0 540.71778223 0 7614.29700651 0 81.38766409 0 -2307.21060956 0 9204
0.09350000 0.09350330 19359.65010026 0 331.83734694 0 7414.18006322 0 567.97599909 0 265.70582617 0 9349
0.09450000 0.09448040 18999.68565677 0 -106.69392240 0 7105.74424971 0 409.88273513 0 452.98400102 0 9564
0.09550000 0.09549270 19273.64089695 0 227.53553491 0 6888.46940405 0 1094.00301395 0 -510.34434059 0 10155
0.09650000 0.09649430 18861.71942515 0 611.19260300 0 6663.10991297 0 -153.29300574 0 611.52543555 0 9913
0.09750000 0.09749140 18141.13146381 0 366.61889756 0 7526.20073441 0 -442.80349916 0 1219.55118627 0 10476
0.09850000 0.09850240 17824.55608202 0 64.12947257 0 6826.17589294 0 289.91692260 0 967.27180317 0 10575
0.09950000 0.09950330 17899.36102130 0 -215.23281362 0 6997.93066982 0 664.13165210 0 815.23103870 0 10882
0.10050000 0.10051200 17550.38115039 0 285.51869974 0 6449.88837460 0 103.70095591 0 1237.80754590 0 10875
0.10150000 0.10150300 17337.60997949 0 272.45914139 0 6525.03383562 0 270.57528720 0 1147.09694552 0 11118
0.10250000 0.10250800 17585.09239975 0 249.03893419 0 6944.77632310 0 -272.66455290 0 729.36463483 0 11575
0.10350000 0.10349800 17194.37115303 0 233.14755304 0 7056.54434912 0 129.99033347 0 519.56698773 0 11364
0.10450000 0.10450100 16781.02168679 0 157.40453126 0 6758.82947845 0 -455.01395004 0 -60.42975868 0 12093
0.10550000 0.10551000 16212.46020998 0 181.68702741 0 7070.27506484 0 363.71128120 0 1056.18203210 0 12067
0.10650000 0.10649700 16639.43054622 0 -23.33705399 0 7069.82469737 0 473.70090491 0 -149.10568668 0 12054
0.10750000 0.10749900 16349.43783007 0 121.14885100 0 6650.45568536 0 -162.17513113 0 -239.44061467 0 12807
0.10850000 0.10850100 16035.27905424 0 180.73576342 0 6243.26856434 0 904.64765642 0 -161.96422734 0 12736
0.10950000 0.10950300 16071.19860659 0 139.33271245 0 6675.07211251 0 -600.77483436 0 -97.33308934 0 12933
0.11050000 0.11050200 15536.79915050 0 692.77502356 0 6379.23560375 0 -46.25581545 0 -289.81366761 0 13428
0.11150000 0.11150900 15177.16424419 0 220.33734449 0 6942.63433145 0 539.44576873 0 226.49419743 0 13453
0.11250000 0.11250000 14521.05572391 0 106.05220367 0 6577.15563252 0 74.46342892 0 344.91667751 0 13668
0.11350000 0.11349100 14579.16411286 0 311.16987363 0 6138.48672649 0 605.59486481 0 95.71780794 0 13791
0.11450000 0.11448600 14424.39148519 0 -229.89831647 0 5286.44638507 0 946.42308441 0 389.93035749 0 14205
0.11550000 0.11549300 14291.25846550 0 -19.17148437 0 5484.53118243 0 -6.47576803 0 918.13561310 0 14776
0.11650000 0.11649800 13718.52285111 0 523.47639711 0 5237.90555883 0 -51.74392760 0 671.56051853 0 14553
0.11750000 0.11747300 13599.01070143 0 386.56248754 0 5425.75273455 0 -269.48891297 0 923.47850920 0 14568
0.11850000 0.11849100 13442.91992505 0 -79.00543983 0 5145.29462740 0 802.34283969 0 372.79003044 0 16015
0.11950000 0.11950300 13683.15252740 0 -171.04407504 0 5090.55850223 0 477.24233111 0 815.97798963 0 15270
0.12050000 0.12050700 13707.53827853 0 4.59156232 0 4109.36155640 0 135.52545959 0 419.63483867 0 15999
0.12150000 0.12150000 13533.65249457 0 -112.92579997 0 4437.38286282 0 32.10428075 0 401.57839826 0 15670
0.12250000 0.12250700 13467.52536763 0 148.52460279 0 4081.70240264 0 -87.06295336 0 111.08698252 0 16887
0.12350000 0.12352200 13263.54185479 0 474.11172793 0 4593.72628437 0 -228.41430071 0 -247.31984858 0 16407
0.12450000 0.12449800 13080.20933841 0 261.41744903 0 4272.14193748 0 -350.52649873 0 98.50020018 0 16306
0.12550000 0.12549900 12678.39367339 0 -56.10491276 0 4708.64688272 0 417.19077127 0 -158.10864236 0 17523
0.12650000 0.12650100 12711.34739113 0 117.54041891 0 4604.26048948 0 86.85336771 0 -166.67880589 0 17154
0.12750000 0.12750600 12649.61409322 0 216.14782851 0 4325.27431506 0 470.99540469 0 240.99273478 0 18007
0.12850000 0.12850300 12413.88516563 0 -81.93810102 0 4225.30371999 0 304.09910426 0 616.38391200 0 17496
0.12950000 0.12949900 12734.52483928 0 16.33405943 0 4055.80078049 0 528.97197877 0 640.60818991 0 18405
0.13050000 0.13049000 12445.85027184 0 267.71600295 0 4183.33166816 0 -139.30854639 0 987.47572752 0 18100
0.13150000 0.13148800 12065.67421480 0 98.22163142 0 4195.45863629 0 -125.97657065 0 1469.27445934 0 19059
0.13250000 0.13249300 12187.71281618 0 -76.91112123 0 4335.01763094 0 89.39552735 0 889.28023938 0 18957
0.13350000 0.13349100 12084.23814246 0 119.66813062 0 4274.39377486 0 179.07819142 0 892.05274550 0 19468
0.13450000 0.13450700 11884.31892148 0 170.20265678 0 4281.64359276 0 -123.13376327 0 1131.91626622 0 19953
0.13550000 0.13551000 11817.75241164 0 248.60943740 0 4369.83872602 0 -62.24386084 0 923.64108087 0 19956
0.13650000 0.13649900 11600.69725743 0 281.35115290 0 4439.10744072 0 -238.56953807 0 356.89864928 0 19723
0.13750000 0.13749600 11367.93416443 0 169.92474709 0 4933.92948179 0 -239.26815688 0 397.79640992 0 20946
0.13850000 0.13851100 11103.53550240 0 -35.45281785 0 4475.75197485 0 37.98421260 0 159.83322026 0 20955
0.13950000 0.13949800 11257.09982709 0 -151.07522054 0 4372.71668404 0 355.64750647 0 -387.41598883 0 20506
0.14050000 0.14048300 11277.64097781 0 2.49446462 0 3674.21869816 0 220.81407494 0 -524.51663613 0 21447
0.14150000 0.14148400 11356.07082604 0 153.61045989 0 3949.67882478 0 192.24759549 0 64.50305788 0 21771
0.14250000 0.14249400 11273.57668596 0 -53.25716232 0 3568.60203279 0 247.48022334 0 -415.42664891 0 22470
0.14350000 0.14350900 11224.69533797 0 112.94776911 0 3170.04878582 0 427.40093148 0 -645.26784560 0 22519
0.14450000 0.14449900 11101.22874216 0 -10.11332022 0 3099.60472186 0 69.86056347 0 -677.45484018 0 22218
0.14550000 0.14550500 11000.06082868 0 269.12422516 0 3019.53817231 0 -57.32013603 0 -403.60505190 0 23559
0.14650000 0.14650700 10420.93219305 0 351.01641067 0 3414.67521721 0 -268.22788403 0 -60.65659010 0 23044
0.14750000 0.14750500 10364.65822772 0 222.51009295 0 3493.67626321 0 -168.30452263 0 -482.68848220 0 23649
0.14850000 0.14849900 10057.15610287 0 142.94004609 0 3596.05247967 0 141.18910522 0 -525.69637923 0 23640
0.14950000 0.14949500 9956.14197341 0 -60.36044603 0 3479.39631886 0 242.04835220 0 83.53404957 0 24457
0.15050000 0.15050000 9967.47805232 0 -74.55196457 0 2900.99266502 0 525.44263560 0 85.68197289 0 24591
0.15150000 0.15149900 10125.20553001 0 1.09169735 0 3020.26315410 0 564.07867274 0 -192.27615538 0 25020
0.15250000 0.15250500 9861.56480349 0 334.04414757 0 2906.68267361 0 -119.48139288 0 713.04595380 0 25297
0.15350000 0.15350100 9762.08851419 0 37.99431841 0 2842.73049204 0 -71.97860875 0 975.22573217 0 25452
0.15450000 0.15450400 9717.56804152 0 47.71874082 0 3435.83150400 0 -158.20970043 0 570.09931697 0 26061
0.15550000 0.15549900 9437.64817843 0 168.12986793 0 2833.02012988 0 50.44906619 0 793.43215441 0 26128
0.15650000 0.15649500 9622.87004130 0 -211.02023003 0 3162.98570565 0 341.27748862 0 756.92492744 0 26331
0.15750000 0.15749700 9539.39827425 0 196.37559787 0 2992.43923175 0 -92.99176656 0 247.25174423 0 27345
0.15850000 0.15849900 9553.74412604 0 165.86375061 0 3045.40684074 0 -22.65941570 0 534.42142523 0 26980
0.15950000 0.15949700 9290.02650751 0 106.31220851 0 2970.23941057 0 -100.66009668 0 710.73150436 0 27777
0.16050000 0.16050000 9105.36485784 0 95.57775464 0 3219.08391783 0 -151.25426907 0 499.39821401 0 28224
0.16150000 0.16150500 9004.19694437 0 121.00824847 0 3085.03917862 0 297.89062383 0 364.85587366 0 28075
0.16250000 0.16249700 9029.04404755 0 80.99924960 0 3235.01154807 0 33.83742661 0 61.67035631 0 28590
0.16350000 0.16349900 8831.90392343 0 64.07048542 0 2901.64075480 0 97.12438246 0 247.96574145 0 29163
0.16450000 0.16449100 8725.95772089 0 126.75757376 0 3081.39230052 0 82.69944175 0 418.14313371 0 28996
0.16550000 0.16550500 8658.22684635 0 119.32760887 0 2935.44028463 0 -78.24003482 0 159.27300706 0 30777
0.16650000 0.16650700 8533.78262357 0 135.56170868 0 3053.66723932 0 143.11579925 0 470.53844647 0 29211
0.16750000 0.16749900 8451.23356063 0 -40.99189842 0 3098.62709490 0 -21.27503002 0 142.56766908 0 30922
0.16850000 0.16850800 8110.78870261 0 101.90750475 0 2773.15420931 0 100.94986971 0 404.40363033 0 30867
0.16950000 0.16949900 8237.14424102 0 160.19571115 0 3012.94742876 0 375.94919351 0 518.33232177 0 30852
0.17050000 0.17049200 8270.49340337 0 -59.08502730 0 2733.53285601 0 51.34870268 0 510.16089822 0 31257
0.17150000 0.17149500 8233.55228578 0 -51.07540651 0 2510.48012518 0 344.13677286 0 627.15538387 0 32608
0.17250000 0.17250900 8268.92260949 0 15.11751802 0 2323.35793125 0 302.72383577 0 825.14791082 0 32361
0.17350000 0.17350400 8256.03770586 0 -9.12614767 0 2197.34291460 0 -8.95356905 0 677.24942867 0 32508
0.17450000 0.17449800 8260.51941147 0 184.64517281 0 2280.29840673 0 -140.61900590 0 613.73882692 0 32791
0.17550000 0.17549800 7930.27922138 0 216.71243554 0 2324.37949650 0 -281.54997366 0 636.73722654 0 33633
0.17650000 0.17650100 7670.49407983 0 190.77017048 0 2548.82726806 0 -334.39126006 0 369.03001124 0 33984
0.17750000 0.17750300 7593.62404091 0 183.58406309 0 2773.03337901 0 97.14690084 0 360.64878236 0 34069
0.17850000 0.17849800 7561.95551816 0 -140.22685666 0 2397.05342870 0 542.11172449 0 534.02488216 0 34536
