### header ###
fiducial parameters:
Omega_m = 0.31
Omega_nu = 0
Omega_de = 0.69
Omega_k = 0
H_0 = 100
w_de = -1
zeff = 0
beta = 0
fgrowth = 0
b_1 = 2
gamma = 0.55
Lx = 3500 Ly = 3500 Lz = 3500
nx = 700 ny = 700 nz = 700
xoffset = -983.599254 yoffset = -42.9823471 zoffset = 800.977702
bins = 400 dk = 0.001
kx_ny = 0.628318531 ky_ny = 0.628318531 kz_ny = 0.628318531
############################
A(data) = 9.02101617 (not used)
A(ran) = 9.00434731 (used)
Ngal = 500133
weighted Ngal = 0
Nran = 25229228
weighted Nran = 0
SN(data) = 6774.56245
SN(ran) = 133.663332
SN(data+ran) = 6908.22579
############################
13 columns: k_central k_mean P_0(k) sigma^{lin}_{P_0(k)} P^img_1(k) sigma^{lin}_{P_1(k)} P_2(k) sigma^{lin}_{P_2(k)} P^img_3(k) sigma^{lin}_{P_3(k)} P_4(k) sigma^{lin}_{P_4(k)} N_modes
### header ###
0.00050000 0 0 0 0 0 0 0 0 0 0 0 0
0.00150000 0.00179520 59311.52919014 0 7318.99874180 0 -44534.31323364 0 103413.59949270 0 -49902.36400841 0 3
0.00250000 0.00253879 62103.80754032 0 22125.56547624 0 24849.95916787 0 19037.14304927 0 8193.93093248 0 6
0.00350000 0.00331552 62470.03319018 0 -3371.36304752 0 54879.47384502 0 -68078.31656731 0 53058.56124821 0 7
0.00450000 0.00420575 35086.59220215 0 9706.28688548 0 21436.39339249 0 42014.23259202 0 1876.13204318 0 24
0.00550000 0.00557378 35443.26127387 0 2846.26752441 0 24662.45251391 0 13000.02195857 0 8574.41455755 0 45
0.00650000 0.00659388 34480.68317856 0 -8749.48667535 0 690.23209501 0 43660.16094761 0 14466.02301527 0 40
0.00750000 0.00754703 53392.93163759 0 -3643.85733955 0 29382.08396921 0 15477.92184147 0 10112.59524069 0 57
0.00850000 0.00846663 58432.76338363 0 -6477.27291404 0 -5902.83469090 0 -17930.33751598 0 7147.39774894 0 75
0.00950000 0.00948925 52765.49285174 0 1162.25565569 0 7543.61128195 0 129.83215563 0 10535.61113080 0 112
0.01050000 0.01054430 54136.80689280 0 -441.80170614 0 12586.01341798 0 -8568.82341011 0 11621.12856243 0 105
0.01150000 0.01145670 56517.71299980 0 -516.29138818 0 19132.81867646 0 1509.02762751 0 -7804.01155956 0 144
0.01250000 0.01249090 68691.91479170 0 -5969.11560186 0 10032.06733910 0 13190.05506423 0 -17199.20436496 0 169
0.01350000 0.01339930 79634.08692288 0 -11007.85987522 0 12996.28720389 0 -6334.00113386 0 -28844.49898707 0 180
0.01450000 0.01448870 83590.72996668 0 2341.47149144 0 13334.61203940 0 -12084.34798819 0 -10609.62518085 0 267
0.01550000 0.01550050 81174.34369024 0 4838.62733007 0 21194.51310425 0 -10389.04397885 0 979.51740468 0 238
0.01650000 0.01653350 78468.73361773 0 4144.91861784 0 31244.07886747 0 -7609.09031910 0 -15674.10630777 0 315
0.01750000 0.01747870 69676.57187790 0 6333.52879724 0 43703.98939221 0 12083.24953093 0 -10767.31970483 0 297
0.01850000 0.01844180 73470.09401886 0 -2891.39214858 0 33968.25286764 0 13157.87026656 0 1715.75728349 0 388
0.01950000 0.01947590 77486.60298323 0 -5945.96012285 0 27549.52772546 0 15577.77160623 0 15089.39750927 0 399
0.02050000 0.02045430 77639.61807929 0 3471.87188664 0 21702.11020323 0 1406.31088930 0 -1352.18990019 0 462
0.02150000 0.02154770 72997.31801496 0 9155.53140082 0 27450.99610941 0 -9742.49203671 0 9126.72985152 0 571
0.02250000 0.02255340 63644.17415340 0 1168.70359979 0 35338.35860571 0 2934.04524391 0 14501.39333899 0 510
0.02350000 0.02348930 61571.82469020 0 -1939.02970578 0 33763.93981763 0 2979.69712756 0 5280.55865417 0 555
0.02450000 0.02439640 63190.40146006 0 -410.23533991 0 33017.75780218 0 15462.32374840 0 16570.77696759 0 592
0.02550000 0.02547300 65355.57056157 0 -127.13873843 0 20945.16330665 0 5554.67866293 0 378.74366878 0 837
0.02650000 0.02652900 65511.66133795 0 1276.27551908 0 20722.17648325 0 3534.63773437 0 17051.46186374 0 723
0.02750000 0.02749970 60147.34531785 0 1844.54041243 0 18584.90819610 0 -174.91393996 0 10443.45056684 0 826
0.02850000 0.02848090 64209.22056698 0 2013.31837014 0 23095.72292663 0 1606.87820006 0 15222.53052895 0 831
0.02950000 0.02946900 59921.94188849 0 2045.54710610 0 19990.82364079 0 -1857.05184060 0 4972.73797672 0 996
0.03050000 0.03053250 59988.28870688 0 978.02020744 0 27604.56043409 0 -2845.77321865 0 -3551.16951610 0 1041
0.03150000 0.03150510 55454.95560256 0 2466.32214340 0 25291.31929419 0 -2163.31270874 0 7068.29784178 0 1036
0.03250000 0.03246190 52525.15040366 0 -2145.00142625 0 22778.26877903 0 4149.10374000 0 -855.87395725 0 1059
0.03350000 0.03345080 54945.82066341 0 -1392.86577246 0 25801.00346196 0 -790.44544912 0 1772.94296835 0 1302
0.03450000 0.03451200 56819.01982571 0 3138.80866140 0 22652.93480588 0 7257.24347475 0 -4307.38044632 0 1339
0.03550000 0.03553350 54190.19191554 0 -1007.80597445 0 19571.10312245 0 4773.99410500 0 5399.35680663 0 1365
0.03650000 0.03647120 55698.04419378 0 688.99523213 0 20068.04518603 0 -1512.07035411 0 427.74474860 0 1308
0.03750000 0.03744890 53925.24402488 0 3799.83827020 0 19972.47940458 0 902.46721877 0 -653.03174150 0 1579
0.03850000 0.03847530 47746.97117650 0 2906.03458383 0 19060.86972605 0 -2990.02262579 0 2203.13178435 0 1662
0.03950000 0.03950240 46290.08731504 0 1311.53599707 0 21929.05147276 0 -591.42476618 0 -520.72366322 0 1683
0.04050000 0.04050350 44825.84378995 0 -371.65532409 0 20071.56024926 0 4667.71836528 0 1995.83093059 0 1822
0.04150000 0.04152450 44671.07116227 0 -893.45218005 0 16457.19648709 0 6564.85291123 0 5435.91346418 0 1887
0.04250000 0.04250150 43165.85518145 0 337.14069858 0 12117.08201448 0 3163.40311941 0 2832.33908638 0 1920
0.04350000 0.04349210 45039.16418948 0 1455.54374361 0 13894.71539532 0 1439.78088195 0 4258.57599034 0 2005
0.04450000 0.04448520 42021.48240993 0 1856.31587424 0 11934.29872673 0 -1670.59970561 0 5588.30243961 0 2151
0.04550000 0.04548030 40436.95781507 0 142.55338913 0 14253.69122728 0 -1815.80477056 0 2933.94638276 0 2274
0.04650000 0.04648670 38936.02581755 0 525.09112928 0 15173.09995234 0 1415.35119253 0 2815.01641542 0 2311
0.04750000 0.04749250 39720.54399131 0 432.59443740 0 13183.24462922 0 1931.94465646 0 5528.67817963 0 2568
0.04850000 0.04851840 40070.40262803 0 -448.67914703 0 13221.58078753 0 1849.39559351 0 1439.33051448 0 2493
0.04950000 0.04949480 40347.65323998 0 -406.62471090 0 10429.39031394 0 2248.67382227 0 2379.03872967 0 2644
0.05050000 0.05050630 40522.96701838 0 793.76608542 0 12913.24383518 0 -1483.91689459 0 -325.24440648 0 2829
0.05150000 0.05149060 38315.83684961 0 2084.93778337 0 13046.70639204 0 -3112.45667178 0 3172.77295982 0 2784
0.05250000 0.05249300 38323.63589615 0 1605.63694336 0 16078.88780739 0 -1476.67806126 0 -727.95970800 0 3055
0.05350000 0.05348950 34872.72257399 0 -175.87289314 0 18159.91508293 0 -2099.16280487 0 -3145.16872893 0 3009
0.05450000 0.05448610 35157.44269530 0 631.53383450 0 17952.96573550 0 661.75788596 0 -3550.33468859 0 3336
0.05550000 0.05550870 35030.35119053 0 877.64208473 0 18212.86072277 0 228.49338964 0 -4314.88290940 0 3349
0.05650000 0.05647670 35214.12308982 0 -656.38642997 0 14995.58925942 0 2118.67140577 0 -1119.19613117 0 3324
0.05750000 0.05747970 34208.48547000 0 828.05552719 0 16676.11901864 0 4571.93289237 0 -2329.30058502 0 3639
0.05850000 0.05849280 34281.20334048 0 373.01191880 0 13947.99057234 0 -1201.66830211 0 930.27466426 0 3846
0.05950000 0.05951020 33827.65033860 0 660.11129853 0 15787.68678826 0 1619.12599849 0 -806.96295091 0 3787
0.06050000 0.06049470 31879.31669985 0 163.45373538 0 13892.07909790 0 -525.60410882 0 1839.71818507 0 3930
0.06150000 0.06148310 31600.96763064 0 298.90669680 0 13447.97282844 0 2099.02000542 0 -839.18948995 0 4083
0.06250000 0.06249100 31694.55618903 0 581.84621889 0 12001.41446520 0 296.01445884 0 969.36875807 0 4303
0.06350000 0.06350600 31406.32100450 0 -116.96702422 0 13244.53854423 0 1165.29838229 0 -36.76613335 0 4470
0.06450000 0.06451750 31399.94995240 0 86.31182829 0 11428.67885081 0 -1557.44762345 0 -3456.72416105 0 4479
0.06550000 0.06550280 30295.89056225 0 1212.52105982 0 11787.76452849 0 -825.88717256 0 -1141.08838432 0 4636
0.06650000 0.06648880 29638.57373898 0 -237.44032400 0 13108.65938140 0 1540.24578278 0 -1888.00636614 0 4653
0.06750000 0.06749660 30228.22559515 0 337.71189636 0 12398.28707256 0 1061.34807658 0 -3502.44195213 0 5220
0.06850000 0.06852730 30385.63452024 0 367.56247235 0 12562.83596983 0 109.52003324 0 -787.27859685 0 5029
0.06950000 0.06949320 29141.41198395 0 -302.96110254 0 11691.97905558 0 433.99387195 0 -187.93615075 0 5040
0.07050000 0.07048030 28663.80276811 0 737.57230746 0 12199.35646311 0 -542.74882970 0 -2574.34443016 0 5475
0.07150000 0.07148790 27603.46197683 0 1562.90695602 0 12598.53583072 0 -493.44787104 0 -166.20646927 0 5509
0.07250000 0.07249820 28212.88606365 0 -0.97685255 0 12695.09022371 0 -315.39563870 0 -1381.88119988 0 5916
0.07350000 0.07351270 27399.80800118 0 -276.10492103 0 13573.08711014 0 1926.72698449 0 -1135.14573056 0 5721
0.07450000 0.07449140 27109.26605640 0 -271.11572817 0 10682.24419019 0 1358.03369280 0 -1742.25207255 0 6028
0.07550000 0.07549160 27029.95744236 0 741.04672777 0 11121.44035571 0 -609.72067027 0 -2261.20721959 0 6183
0.07650000 0.07648840 26043.32313311 0 431.15435993 0 10269.97121206 0 1107.39870022 0 -321.05269358 0 6330
0.07750000 0.07749960 26738.09734888 0 -475.04651505 0 9881.31506499 0 1826.05337678 0 -1480.73136854 0 6583
0.07850000 0.07848650 26192.71332021 0 120.46561059 0 8070.88175042 0 971.06697299 0 -1198.31800747 0 6549
0.07950000 0.07947320 25936.66293334 0 822.64892056 0 8444.71970909 0 -394.77675092 0 -369.83518041 0 6828
0.08050000 0.08048110 24757.68875819 0 530.47137293 0 9109.04468966 0 263.46387491 0 2118.16611543 0 7147
0.08150000 0.08149960 24393.44033139 0 93.68873769 0 8225.18204147 0 489.05184509 0 -397.17907694 0 7386
0.08250000 0.08250610 24155.40464355 0 554.37160595 0 9065.42495194 0 -394.88110435 0 301.09921748 0 7227
0.08350000 0.08350160 23339.14105503 0 660.79893278 0 9154.85035732 0 610.40720606 0 1672.43412923 0 7798
0.08450000 0.08449610 22316.80688489 0 -16.72313299 0 8453.92478091 0 657.68260953 0 1495.56054152 0 7371
0.08550000 0.08548940 22703.24414830 0 579.27253353 0 8671.45227174 0 705.88620939 0 1219.95761546 0 8256
0.08650000 0.08650700 22286.59931029 0 387.96192209 0 8896.53714850 0 300.91028284 0 1302.25403324 0 8037
0.08750000 0.08749060 21837.76967461 0 55.94739399 0 8604.32554869 0 169.50074259 0 1871.43064611 0 8155
0.08850000 0.08849210 20978.00717867 0 308.05794421 0 7983.30175323 0 -621.70593742 0 621.27863754 0 8718
0.08950000 0.08949900 20813.45828140 0 403.07998933 0 7683.15929202 0 386.01216045 0 1187.86069437 0 8571
0.09050000 0.09049190 21194.73279570 0 -210.58633941 0 7780.85608056 0 697.16226185 0 244.88456884 0 8932
0.09150000 0.09150830 20393.84760880 0 -15.42816173 0 6503.38324307 0 1006.83493823 0 -860.94553441 0 9285
0.09250000 0.09250820 20568.28262139 0 86.46044955 0 6114.55134283 0 765.48630331 0 1112.88000193 0 9204
0.09350000 0.09350330 20163.50112177 0 320.92417408 0 4999.11193549 0 -244.41442914 0 -525.38771274 0 9349
0.09450000 0.09448040 20010.37617998 0 600.49692468 0 6017.29393720 0 18.82096666 0 -399.17607223 0 9564
0.09550000 0.09549270 19209.82053025 0 790.63328532 0 5764.48399924 0 -313.26902545 0 -1348.69680611 0 10155
0.09650000 0.09649430 18408.93534335 0 -205.03144106 0 5960.04234490 0 468.81277011 0 -5.76832860 0 9913
0.09750000 0.09749140 18227.68989576 0 48.65242949 0 5230.88641695 0 162.15755582 0 -1133.89348928 0 10476
0.09850000 0.09850240 17975.92349219 0 580.60496219 0 5370.67608762 0 -4.85930030 0 -276.67062652 0 10575
0.09950000 0.09950330 17231.27931690 0 398.38078918 0 4887.60753921 0 -69.93822440 0 -986.47503295 0 10882
0.10050000 0.10051200 17484.69340635 0 -74.81691246 0 5003.35198050 0 665.80130713 0 -1433.77232075 0 10875
0.10150000 0.10150300 17098.36598867 0 100.67272894 0 4766.04127446 0 560.46035453 0 -697.94985570 0 11118
0.10250000 0.10250800 17164.82265278 0 111.16497298 0 4524.30378566 0 147.96548804 0 -1183.76344880 0 11575
0.10350000 0.10349800 16622.95368735 0 353.06393500 0 4127.03573368 0 -248.06020878 0 -939.05683003 0 11364
0.10450000 0.10450100 16254.20158579 0 576.80649699 0 4588.62944269 0 -797.61947348 0 -941.96664331 0 12093
0.10550000 0.10551000 15675.64414793 0 -17.27543730 0 4374.13369390 0 698.93736878 0 -985.36229575 0 12067
0.10650000 0.10649700 16074.93336126 0 -182.09345660 0 4066.88421423 0 1078.06000531 0 -806.26103673 0 12054
0.10750000 0.10749900 15655.10299720 0 -45.53511764 0 3939.34234198 0 400.76883526 0 -301.09042983 0 12807
0.10850000 0.10850100 15808.33778471 0 349.59500697 0 3212.18560624 0 -107.31553937 0 -358.93409058 0 12736
0.10950000 0.10950300 15544.59819704 0 411.91048723 0 4218.77888388 0 -478.48908010 0 10.68954893 0 12933
0.11050000 0.11050200 15024.14914813 0 353.22870358 0 4517.76796497 0 -147.29542912 0 399.35292385 0 13428
0.11150000 0.11150900 14324.10233752 0 223.18454571 0 4851.52321828 0 -115.91909599 0 474.99049373 0 13453
0.11250000 0.11250000 14395.50205930 0 203.58806822 0 5276.21974800 0 411.65894052 0 1403.32308556 0 13668
0.11350000 0.11349100 14451.63322519 0 166.60960308 0 5453.95013236 0 16.12535255 0 1835.12663373 0 13791
0.11450000 0.11448600 14110.01301791 0 -48.53577333 0 5295.09124369 0 688.14832159 0 2016.67964935 0 14205
0.11550000 0.11549300 14420.98626769 0 -308.63024045 0 4971.33195143 0 862.52731286 0 2535.17344434 0 14776
0.11650000 0.11649800 14511.49914576 0 80.28931668 0 5021.72917043 0 265.19724046 0 2498.01263530 0 14553
0.11750000 0.11747300 14349.47670019 0 299.16483425 0 4430.53947410 0 -392.54688268 0 2946.29304234 0 14568
0.11850000 0.11849100 14239.74082010 0 -9.64435587 0 4815.69154252 0 287.04335841 0 2924.52161948 0 16015
0.11950000 0.11950300 14130.66401437 0 275.33380404 0 4966.50972407 0 186.99257597 0 3364.19012163 0 15270
0.12050000 0.12050700 13590.99196344 0 188.81052273 0 5105.40964436 0 -599.49403320 0 2329.64110677 0 15999
0.12150000 0.12150000 13797.28223652 0 52.65059422 0 5185.01484185 0 174.83375258 0 2676.53390889 0 15670
0.12250000 0.12250700 13601.97653603 0 137.60593764 0 5058.03318281 0 60.32595447 0 965.70320620 0 16887
0.12350000 0.12352200 13462.47246424 0 167.41257534 0 5188.87042683 0 -201.52846086 0 2101.96387088 0 16407
0.12450000 0.12449800 13505.64183449 0 5.77262357 0 4857.70753265 0 172.18537213 0 840.22972898 0 16306
0.12550000 0.12549900 13499.92985675 0 -211.55408026 0 4738.40408984 0 769.48908155 0 1598.12349571 0 17523
0.12650000 0.12650100 13366.35745416 0 179.19243098 0 4393.26881934 0 -102.72662432 0 686.27435351 0 17154
0.12750000 0.12750600 13372.94819770 0 312.41003187 0 3967.16626433 0 -29.72820785 0 838.80502991 0 18007
0.12850000 0.12850300 12934.55390598 0 72.07340562 0 3965.01328811 0 169.59630837 0 359.86668079 0 17496
0.12950000 0.12949900 12871.28276791 0 -17.03234871 0 4019.88122815 0 -106.94140482 0 741.55860885 0 18405
0.13050000 0.13049000 12656.20483677 0 206.31114377 0 3984.97225649 0 68.53307787 0 16.89405294 0 18100
0.13150000 0.13148800 12536.58284136 0 195.36721410 0 3789.08437364 0 17.42713425 0 2.02182043 0 19059
0.13250000 0.13249300 12255.37778328 0 259.71813566 0 4114.94171927 0 -232.19958443 0 -448.71210075 0 18957
0.13350000 0.13349100 12154.97878989 0 162.73973816 0 4075.35331969 0 -599.55115298 0 -892.88427765 0 19468
0.13450000 0.13450700 11821.81670349 0 123.00963759 0 4445.14895564 0 278.52482237 0 -1146.27310258 0 19953
0.13550000 0.13551000 11939.90085874 0 8.83325503 0 3877.22458404 0 116.88134455 0 -1027.80119192 0 19956
0.13650000 0.13649900 11510.18437936 0 57.70130070 0 4047.07902986 0 155.77661761 0 -1300.63930107 0 19723
0.13750000 0.13749600 11542.47902275 0 172.76755447 0 3400.26345798 0 486.22221920 0 -1084.43435278 0 20946
0.13850000 0.13851100 11257.75890144 0 110.28291180 0 3659.38952518 0 119.35726721 0 -841.39409367 0 20955
0.13950000 0.13949800 11004.34481199 0 251.70708687 0 3588.47312459 0 -27.33796486 0 -819.78414403 0 20506
0.14050000 0.14048300 10855.00954775 0 319.46102901 0 3523.59823893 0 84.77201090 0 -708.94431440 0 21447
0.14150000 0.14148400 10838.07133683 0 -197.15440406 0 3210.03263002 0 558.65229388 0 -43.62259371 0 21771
0.14250000 0.14249400 10784.53253006 0 -64.66672801 0 2623.20380901 0 527.27266539 0 -531.18207477 0 22470
0.14350000 0.14350900 10859.59011451 0 42.72141937 0 2650.08305811 0 156.55102997 0 -262.32477473 0 22519
0.14450000 0.14449900 10623.23506628 0 140.81123592 0 2451.37214012 0 -304.32538645 0 -238.34655124 0 22218
0.14550000 0.14550500 10592.41235562 0 181.49260048 0 2611.93363754 0 98.64310947 0 -94.35659971 0 23559
0.14650000 0.14650700 10531.76653040 0 -7.65335815 0 2731.27003406 0 26.98228440 0 -235.66631553 0 23044
0.14750000 0.14750500 10339.72324796 0 96.83713589 0 2633.22173920 0 -85.00916782 0 -302.38551093 0 23649
0.14850000 0.14849900 10142.96758388 0 210.12169199 0 2876.04670068 0 -112.57429364 0 -164.08864368 0 23640
0.14950000 0.14949500 10371.04026438 0 38.71688359 0 2787.81861371 0 54.73953039 0 -142.48967861 0 24457
0.15050000 0.15050000 9980.95612288 0 14.75030375 0 2934.39675023 0 186.70368171 0 -86.26206817 0 24591
0.15150000 0.15149900 9992.32515550 0 133.47793526 0 2875.33270346 0 -38.47500331 0 -329.81069330 0 25020
0.15250000 0.15250500 9988.77713855 0 73.42857233 0 2777.52606920 0 223.86558921 0 290.35960087 0 25297
0.15350000 0.15350100 9908.12840666 0 108.22659981 0 2876.59592931 0 -76.60761749 0 106.88450474 0 25452
0.15450000 0.15450400 9698.80639155 0 247.58018295 0 3061.71893103 0 -170.44541583 0 190.68558927 0 26061
0.15550000 0.15549900 9436.92319664 0 160.89872380 0 3059.47807822 0 203.80775967 0 332.33275116 0 26128
0.15650000 0.15649500 9610.33664398 0 34.48068318 0 3278.25781032 0 -79.10605852 0 140.86396187 0 26331
0.15750000 0.15749700 9109.50604171 0 44.80123835 0 3223.01639481 0 -77.42629768 0 403.61823339 0 27345
0.15850000 0.15849900 9245.06665193 0 36.36739337 0 2758.23715975 0 608.52664723 0 494.36947668 0 26980
0.15950000 0.15949700 9178.82967927 0 -6.70850915 0 2794.17868123 0 159.74314676 0 425.03375609 0 27777
0.16050000 0.16050000 9040.22634244 0 357.38306893 0 3022.04265486 0 -166.33059494 0 664.60398872 0 28224
0.16150000 0.16150500 8792.63407645 0 172.12715389 0 3099.64866015 0 -171.82068432 0 628.36588377 0 28075
0.16250000 0.16249700 8731.24130030 0 -34.69521188 0 2884.15331525 0 311.21491037 0 529.26746377 0 28590
0.16350000 0.16349900 8593.90118931 0 100.29551872 0 3074.88943355 0 -148.52350433 0 402.54174527 0 29163
0.16450000 0.16449100 8455.72625081 0 189.07854630 0 3151.93522564 0 -183.15127094 0 845.12774989 0 28996
0.16550000 0.16550500 8449.90442734 0 -60.38966499 0 3104.35005721 0 182.67234357 0 499.77059102 0 30777
0.16650000 0.16650700 8455.34179077 0 -84.61020815 0 2892.92998874 0 214.50673337 0 480.57395198 0 29211
0.16750000 0.16749900 8458.51633225 0 130.87678848 0 2848.73905325 0 293.34520770 0 285.95149189 0 30922
0.16850000 0.16850800 8383.84320784 0 121.41138228 0 2807.28327632 0 -21.25932208 0 683.38211555 0 30867
0.16950000 0.16949900 8291.68264388 0 99.03591778 0 2617.72250729 0 7.62813757 0 437.34965887 0 30852
0.17050000 0.17049200 8394.88270328 0 -70.53886083 0 2594.13862996 0 52.75967103 0 202.43358964 0 31257
0.17150000 0.17149500 8140.07357311 0 97.65768346 0 2542.79673771 0 175.81687182 0 -2.42143918 0 32608
0.17250000 0.17250900 8110.19553569 0 184.38923226 0 2452.62438139 0 6.42373411 0 502.64964749 0 32361
0.17350000 0.17350400 8199.31337305 0 -208.07856149 0 1922.30020174 0 341.96622132 0 468.42171933 0 32508
0.17450000 0.17449800 8073.80364673 0 -67.11991261 0 1976.91549661 0 497.72416515 0 -83.42112817 0 32791
0.17550000 0.17549800 8210.73732853 0 223.34601892 0 1538.46628203 0 -411.44254444 0 327.41605647 0 33633
0.17650000 0.17650100 7746.38649180 0 210.27657447 0 2144.21053702 0 -261.96448075 0 192.81330098 0 33984
0.17750000 0.17750300 7665.08967012 0 168.77576080 0 2397.85530250 0 -107.26929431 0 703.21695826 0 34069
0.17850000 0.17849800 7640.75884186 0 85.98613571 0 2292.17272969 0 -51.18008949 0 -196.04166686 0 34536
