### header ###
fiducial parameters:
Omega_m = 0.31
Omega_nu = 0
Omega_de = 0.69
Omega_k = 0
H_0 = 100
w_de = -1
zeff = 0
beta = 0
fgrowth = 0
b_1 = 2
gamma = 0.55
Lx = 3500 Ly = 3500 Lz = 3500
nx = 700 ny = 700 nz = 700
xoffset = -983.599254 yoffset = -42.9823471 zoffset = 800.977702
bins = 400 dk = 0.001
kx_ny = 0.628318531 ky_ny = 0.628318531 kz_ny = 0.628318531
############################
A(data) = 8.99960316 (not used)
A(ran) = 8.98530555 (used)
Ngal = 499269
weighted Ngal = 0
Nran = 25229228
weighted Nran = 0
SN(data) = 6758.92553
SN(ran) = 133.380671
SN(data+ran) = 6892.3062
############################
13 columns: k_central k_mean P_0(k) sigma^{lin}_{P_0(k)} P^img_1(k) sigma^{lin}_{P_1(k)} P_2(k) sigma^{lin}_{P_2(k)} P^img_3(k) sigma^{lin}_{P_3(k)} P_4(k) sigma^{lin}_{P_4(k)} N_modes
### header ###
0.00050000 0 0 0 0 0 0 0 0 0 0 0 0
0.00150000 0.00179520 14248.63832389 0 -3308.65212265 0 27367.40351206 0 -41345.16227610 0 14497.43889286 0 3
0.00250000 0.00253879 19853.84602070 0 -12127.62720416 0 -21878.41259316 0 35942.40025196 0 -5912.91852853 0 6
0.00350000 0.00331552 26095.93923577 0 -15040.51616128 0 -9380.38560156 0 40161.13519755 0 11276.10313765 0 7
0.00450000 0.00420575 46430.03076972 0 -19529.91097527 0 -2919.09524063 0 -19171.04498904 0 -28118.08920227 0 24
0.00550000 0.00557378 58287.32764266 0 8690.74118119 0 21252.95103038 0 -22034.39352382 0 -440.45719445 0 45
0.00650000 0.00659388 54001.58680432 0 5627.97871577 0 6340.49301626 0 -5772.29403034 0 26064.85289537 0 40
0.00750000 0.00754703 64471.75185168 0 -15757.69890511 0 26976.35272817 0 15777.47113576 0 6054.21308564 0 57
0.00850000 0.00846663 71554.16486922 0 -332.26794218 0 32435.68530109 0 5149.54565699 0 -7097.43991284 0 75
0.00950000 0.00948925 75911.08573789 0 6401.95169985 0 20637.26573720 0 11429.77730807 0 22544.95645740 0 112
0.01050000 0.01054430 78090.20524658 0 -4833.79411814 0 26213.91354529 0 10376.24695179 0 46420.80372876 0 105
0.01150000 0.01145670 73773.59775929 0 942.86957518 0 30883.01596672 0 15914.99798448 0 8140.80953948 0 144
0.01250000 0.01249090 84606.47339328 0 -1518.72700510 0 26871.88944292 0 5832.22585835 0 37732.55604554 0 169
0.01350000 0.01339930 84157.31422043 0 7261.00019857 0 22578.23971232 0 4081.29597345 0 39229.31390548 0 180
0.01450000 0.01448870 77783.18644293 0 -455.75540869 0 42233.26496930 0 4569.98862302 0 25448.17899065 0 267
0.01550000 0.01550050 73995.92550833 0 -1039.29325175 0 32718.53804506 0 17061.89720770 0 45631.12280588 0 238
0.01650000 0.01653350 77509.78043138 0 725.10262067 0 42476.79294343 0 21975.84575196 0 32890.22691451 0 315
0.01750000 0.01747870 75245.96986809 0 5049.90459910 0 22860.43338194 0 -4278.93040334 0 36835.99523145 0 297
0.01850000 0.01844180 82082.10876836 0 1598.47500204 0 26996.89387889 0 9792.15328935 0 38574.85307108 0 388
0.01950000 0.01947590 67638.60412688 0 -4357.23942127 0 25581.31201034 0 19990.49410361 0 33956.93875788 0 399
0.02050000 0.02045430 70283.68920447 0 1196.14306210 0 18398.28030794 0 -6994.90991236 0 17900.02009565 0 462
0.02150000 0.02154770 70808.97146531 0 4231.12554346 0 18507.90634231 0 -7175.04591813 0 9202.87490865 0 571
0.02250000 0.02255340 66522.02232399 0 4770.01768973 0 29875.51096956 0 -375.51420444 0 12706.73387065 0 510
0.02350000 0.02348930 69954.48156420 0 -891.82206948 0 18252.29533834 0 -3335.34463403 0 -7219.23685362 0 555
0.02450000 0.02439640 68834.16500663 0 43.15783644 0 23612.98644948 0 4170.46873367 0 -12955.53443961 0 592
0.02550000 0.02547300 62091.61466475 0 3245.18326228 0 20227.65102564 0 2190.15900413 0 -5140.02203256 0 837
0.02650000 0.02652900 62274.17826105 0 -894.18155567 0 21241.74676635 0 3088.42242697 0 5483.38878688 0 723
0.02750000 0.02749970 61305.77834228 0 706.75399063 0 16889.10988099 0 9788.40755010 0 -3477.75961754 0 826
0.02850000 0.02848090 59887.67002203 0 534.93879860 0 17365.29110239 0 4693.98247832 0 7246.46760905 0 831
0.02950000 0.02946900 59617.55938226 0 925.31622819 0 10414.37440322 0 -3186.26201495 0 9399.31202012 0 996
0.03050000 0.03053250 58527.77993646 0 1055.67234793 0 15556.57138115 0 3168.98328228 0 -19.24771731 0 1041
0.03150000 0.03150510 54380.55455838 0 1923.57441215 0 13849.34911056 0 -4638.33463363 0 264.10098012 0 1036
0.03250000 0.03246190 57691.30473439 0 4736.87723425 0 20103.08597257 0 -4939.50964466 0 -528.69406908 0 1059
0.03350000 0.03345080 49298.87159079 0 1370.85268901 0 20559.05558042 0 -3702.61381828 0 5155.40043417 0 1302
0.03450000 0.03451200 50573.85093031 0 -3283.49745144 0 18481.54336811 0 10509.03944972 0 2408.67510649 0 1339
0.03550000 0.03553350 50794.75068492 0 1381.54067813 0 19348.88521913 0 5867.51929005 0 7073.55945205 0 1365
0.03650000 0.03647120 51583.44299626 0 1637.63500329 0 14689.55906730 0 1165.19952114 0 8130.91243958 0 1308
0.03750000 0.03744890 49018.65514424 0 454.12310120 0 14330.25369817 0 4116.75417375 0 10936.80067519 0 1579
0.03850000 0.03847530 49118.39506328 0 665.94081120 0 15492.20178582 0 -1597.84888140 0 8087.42451673 0 1662
0.03950000 0.03950240 45130.77552480 0 2140.53070521 0 17146.69810803 0 -1603.41805970 0 10490.78309009 0 1683
0.04050000 0.04050350 43711.67859302 0 630.02565269 0 14972.08227410 0 -546.46491061 0 6915.03010055 0 1822
0.04150000 0.04152450 44898.01243180 0 1615.83062672 0 21268.98850635 0 -893.87728301 0 -835.78097708 0 1887
0.04250000 0.04250150 40867.22352308 0 2819.97045766 0 17214.58276658 0 -4455.02408639 0 -1468.40667810 0 1920
0.04350000 0.04349210 40567.01515443 0 -1202.14063873 0 21527.45549919 0 2727.18377306 0 -2075.39218980 0 2005
0.04450000 0.04448520 40469.14261273 0 -580.73567860 0 19328.23422268 0 1425.77555191 0 -3581.47595186 0 2151
0.04550000 0.04548030 39351.13281540 0 2580.61662111 0 18298.76008036 0 294.87645712 0 -5572.69336197 0 2274
0.04650000 0.04648670 38052.53664484 0 124.83527356 0 17306.52363908 0 -82.62068236 0 -1652.65091401 0 2311
0.04750000 0.04749250 37993.54949008 0 113.69472005 0 18932.24038112 0 3363.05871065 0 -2059.62932815 0 2568
0.04850000 0.04851840 38181.71521839 0 456.21346536 0 16595.49225589 0 2166.92663312 0 453.14437578 0 2493
0.04950000 0.04949480 37894.46864539 0 -29.68646648 0 15725.18457027 0 1958.09892378 0 221.68844692 0 2644
0.05050000 0.05050630 37848.00390337 0 137.71688182 0 16935.79431446 0 -258.25059676 0 -144.43394796 0 2829
0.05150000 0.05149060 36043.23862826 0 1011.70879309 0 14655.83642948 0 -300.53351200 0 1069.68976100 0 2784
0.05250000 0.05249300 36080.80586649 0 695.05651929 0 18532.18224771 0 96.80066711 0 4254.33594533 0 3055
0.05350000 0.05348950 36473.39449054 0 -146.72642826 0 15252.40856637 0 3277.66464340 0 2719.20897337 0 3009
0.05450000 0.05448610 36799.85598766 0 -496.91460215 0 16750.81411219 0 1361.69155547 0 1018.35665641 0 3336
0.05550000 0.05550870 35559.14851460 0 1133.97038129 0 13069.00507438 0 -238.04447550 0 1093.97884789 0 3349
0.05650000 0.05647670 34981.03045964 0 1071.25066876 0 14719.98633335 0 117.93915889 0 5851.34999921 0 3324
0.05750000 0.05747970 34919.29716174 0 -142.35786374 0 14619.36764851 0 2462.40065099 0 3059.80761540 0 3639
0.05850000 0.05849280 33311.81481018 0 651.44556922 0 14075.74115146 0 1042.04598564 0 4204.46598581 0 3846
0.05950000 0.05951020 32816.95981539 0 971.37344257 0 14023.23489452 0 -1156.21414077 0 1173.00955224 0 3787
0.06050000 0.06049470 32684.15633288 0 -191.51821987 0 13155.01427769 0 963.66666645 0 5032.51602071 0 3930
0.06150000 0.06148310 32438.10190706 0 -871.14690697 0 11764.36738889 0 3667.11167970 0 3543.04093239 0 4083
0.06250000 0.06249100 31937.97431743 0 -555.19764581 0 10616.88598333 0 2475.21964719 0 4732.27469834 0 4303
0.06350000 0.06350600 33636.95815859 0 286.05914071 0 7703.27204442 0 795.53240469 0 3513.44849386 0 4470
0.06450000 0.06451750 32466.55195005 0 1020.36243937 0 7990.96898489 0 -761.69662576 0 4078.84641377 0 4479
0.06550000 0.06550280 32456.22645182 0 399.87469105 0 8689.64272393 0 -1006.23957440 0 2302.99253369 0 4636
0.06650000 0.06648880 31726.19175806 0 3.25199370 0 8693.53126263 0 401.89145858 0 -471.61273766 0 4653
0.06750000 0.06749660 29942.51686231 0 1574.00137433 0 9306.77798070 0 -2238.19454003 0 1297.42082130 0 5220
0.06850000 0.06852730 29034.97147564 0 641.67259500 0 9184.06932039 0 -73.89717420 0 -1229.00890326 0 5029
0.06950000 0.06949320 28500.90155673 0 16.66348676 0 10491.67284047 0 2084.15787872 0 1211.57638658 0 5040
0.07050000 0.07048030 28689.06728505 0 -410.82301454 0 8251.98439857 0 2129.79877780 0 -1945.48863445 0 5475
0.07150000 0.07148790 28410.82806156 0 177.28990301 0 7315.50564772 0 -513.65618922 0 148.37631106 0 5509
0.07250000 0.07249820 28822.85937909 0 938.75475429 0 7617.09807252 0 -68.77089387 0 -1884.88674752 0 5916
0.07350000 0.07351270 27379.15700472 0 806.67845049 0 8550.51212762 0 -1583.34924559 0 -414.25349656 0 5721
0.07450000 0.07449140 26066.50058125 0 784.98172272 0 9384.53777000 0 -259.79392921 0 -1411.86908303 0 6028
0.07550000 0.07549160 25719.93731631 0 -138.79007457 0 8979.91005439 0 1276.78080942 0 152.01110612 0 6183
0.07650000 0.07648840 25544.62353791 0 -525.05158482 0 7597.24894986 0 2598.79608873 0 -266.64281021 0 6330
0.07750000 0.07749960 25546.82045243 0 522.38123522 0 7749.40724926 0 -942.05891372 0 -664.57982266 0 6583
0.07850000 0.07848650 24402.99690953 0 1271.20064655 0 7509.06480118 0 -521.25861190 0 469.12033815 0 6549
0.07950000 0.07947320 23996.89726120 0 494.37387051 0 7751.27462660 0 12.25559747 0 1084.31022711 0 6828
0.08050000 0.08048110 23530.05292650 0 46.28964793 0 8489.59168808 0 843.09560396 0 1140.45127911 0 7147
0.08150000 0.08149960 23217.65168228 0 4.89917429 0 6548.04651518 0 757.32147051 0 -876.23056716 0 7386
0.08250000 0.08250610 23469.74762302 0 208.53881509 0 7166.59878181 0 248.13490387 0 1114.73639470 0 7227
0.08350000 0.08350160 22974.12370815 0 426.97802544 0 8165.52482779 0 -877.04781936 0 -394.77894783 0 7798
0.08450000 0.08449610 22074.04783084 0 348.61628156 0 7886.48373050 0 -521.40031289 0 53.32515682 0 7371
0.08550000 0.08548940 22256.50158141 0 602.61914410 0 8768.19340246 0 -66.02112581 0 -818.89109828 0 8256
0.08650000 0.08650700 21394.32247950 0 196.83145763 0 8465.33775182 0 -737.34492681 0 -1274.74866349 0 8037
0.08750000 0.08749060 20877.93772246 0 457.88971114 0 9667.50035970 0 273.00397619 0 -937.37069814 0 8155
0.08850000 0.08849210 20464.80794767 0 436.81910401 0 8661.04988150 0 972.71685580 0 -472.13889869 0 8718
0.08950000 0.08949900 20249.83986225 0 -275.96651542 0 8623.55953528 0 1218.25500671 0 521.87374797 0 8571
0.09050000 0.09049190 20500.39796284 0 38.72731894 0 7818.22559648 0 764.13520088 0 -789.97311250 0 8932
0.09150000 0.09150830 20170.86078539 0 582.17795298 0 7540.38181761 0 -706.91216847 0 -217.86142183 0 9285
0.09250000 0.09250820 19389.30844623 0 583.65318108 0 8450.36577939 0 -474.22377057 0 -5.25427257 0 9204
0.09350000 0.09350330 19003.20072000 0 12.12345307 0 7984.38922592 0 103.51158188 0 75.07724683 0 9349
0.09450000 0.09448040 18782.74034829 0 137.48840271 0 7686.31186435 0 740.09985761 0 -292.19072912 0 9564
0.09550000 0.09549270 18498.67930134 0 342.23204797 0 7755.77830136 0 145.66422009 0 -558.52487284 0 10155
0.09650000 0.09649430 18459.13484004 0 -79.09803978 0 7579.73954117 0 369.25189961 0 -527.75049430 0 9913
0.09750000 0.09749140 18051.49735155 0 284.72561359 0 6680.22387705 0 845.75716590 0 -1130.30153405 0 10476
0.09850000 0.09850240 18205.28136769 0 -95.60038286 0 6243.09281118 0 673.50698480 0 536.03725585 0 10575
0.09950000 0.09950330 17698.12365161 0 -169.95111006 0 5498.15205243 0 84.83506235 0 -533.53057639 0 10882
0.10050000 0.10051200 17521.60157023 0 895.80397704 0 5490.88026538 0 477.13248539 0 -1103.08176319 0 10875
0.10150000 0.10150300 16833.41809801 0 472.73316407 0 5391.94222014 0 -669.92052185 0 -279.32120388 0 11118
0.10250000 0.10250800 16498.05909710 0 37.62347924 0 5333.81186204 0 1057.30795079 0 -604.21190712 0 11575
0.10350000 0.10349800 16264.19754684 0 -201.13191779 0 4894.30812849 0 503.82939059 0 -132.93090355 0 11364
0.10450000 0.10450100 16111.07260506 0 87.83000606 0 4209.87039552 0 632.30604996 0 -667.18536327 0 12093
0.10550000 0.10551000 16074.82351554 0 250.99968040 0 4253.88557785 0 -333.93540030 0 -120.01194774 0 12067
0.10650000 0.10649700 15523.72750913 0 570.94842443 0 4319.69415219 0 -342.97570354 0 -215.71613481 0 12054
0.10750000 0.10749900 15188.80789113 0 318.97660936 0 5072.11540486 0 19.47696534 0 1010.91131312 0 12807
0.10850000 0.10850100 15008.00182644 0 -6.77339502 0 4840.99999775 0 121.09502659 0 47.20422345 0 12736
0.10950000 0.10950300 15035.57310362 0 367.56686617 0 5638.60079746 0 355.29050786 0 277.86684647 0 12933
0.11050000 0.11050200 14673.96097424 0 173.80120275 0 5371.14842424 0 -171.47247337 0 950.84986716 0 13428
0.11150000 0.11150900 14671.10498537 0 -165.64296070 0 5297.50784966 0 120.76658787 0 1161.71741163 0 13453
0.11250000 0.11250000 14331.68169260 0 195.32657118 0 5044.98351059 0 663.20675109 0 672.87976570 0 13668
0.11350000 0.11349100 14566.97123730 0 92.32258640 0 5476.94084278 0 -148.10609057 0 1500.09717000 0 13791
0.11450000 0.11448600 14288.29263091 0 -105.43234424 0 4967.14682928 0 170.62446436 0 956.42124237 0 14205
0.11550000 0.11549300 14517.21112350 0 -143.02243038 0 4335.40209098 0 397.73489631 0 -316.65556917 0 14776
0.11650000 0.11649800 14551.59283568 0 198.28471658 0 4232.61944533 0 41.03770409 0 33.52810104 0 14553
0.11750000 0.11747300 14092.65739323 0 321.97869305 0 4516.95510660 0 -706.10809776 0 -479.21406189 0 14568
0.11850000 0.11849100 14135.60707203 0 280.40208583 0 4331.31582998 0 -144.01104191 0 -776.74988403 0 16015
0.11950000 0.11950300 13681.17530434 0 -77.16783069 0 4876.93053466 0 433.67422088 0 -1219.19967995 0 15270
0.12050000 0.12050700 13741.59045353 0 150.26895291 0 4096.26794588 0 220.92831450 0 -1120.40443415 0 15999
0.12150000 0.12150000 13749.38950007 0 183.41819605 0 4137.37221648 0 -225.04643076 0 -659.61699277 0 15670
0.12250000 0.12250700 13081.41764140 0 44.48828787 0 4255.67606318 0 -0.67489983 0 -1100.45645034 0 16887
0.12350000 0.12352200 12957.40181695 0 198.44948517 0 4351.74713498 0 196.71611962 0 -713.53476728 0 16407
0.12450000 0.12449800 13015.94958881 0 358.15857976 0 4285.98249893 0 108.20342237 0 -596.31290098 0 16306
0.12550000 0.12549900 13133.92389833 0 -178.36199729 0 4550.10654665 0 31.34612555 0 -96.36425004 0 17523
0.12650000 0.12650100 12783.95541589 0 130.34293825 0 4707.57039461 0 124.47937341 0 -788.62420699 0 17154
0.12750000 0.12750600 12735.62329654 0 252.04431325 0 4660.25984050 0 -143.16303291 0 -122.64934361 0 18007
0.12850000 0.12850300 12812.95468751 0 204.75902366 0 4734.70228888 0 130.15729897 0 38.81980904 0 17496
0.12950000 0.12949900 12529.44286918 0 -187.61649969 0 4953.27331411 0 560.66796295 0 216.05116427 0 18405
0.13050000 0.13049000 12805.81471533 0 -136.22407841 0 4146.74205689 0 576.14961955 0 327.28094623 0 18100
0.13150000 0.13148800 12903.02818267 0 -147.96988187 0 3983.96167581 0 165.89340895 0 486.14972102 0 19059
0.13250000 0.13249300 12543.94250499 0 398.68286493 0 3907.57495808 0 -198.98663077 0 558.94777889 0 18957
0.13350000 0.13349100 12310.95972054 0 194.60378631 0 4017.54151419 0 -315.43957699 0 474.46543116 0 19468
0.13450000 0.13450700 12308.32342312 0 116.69131145 0 4044.83817706 0 283.15701663 0 58.40002936 0 19953
0.13550000 0.13551000 12394.77200934 0 66.29453183 0 3923.44766546 0 193.40317253 0 -523.01614352 0 19956
0.13650000 0.13649900 11924.19291995 0 106.60472767 0 3866.19607317 0 -259.49734575 0 -194.95858800 0 19723
0.13750000 0.13749600 11859.82332462 0 261.10329026 0 3852.90474034 0 89.37289913 0 -410.52313571 0 20946
0.13850000 0.13851100 11507.76777339 0 65.01889341 0 3773.58514173 0 -99.34073967 0 -767.31853001 0 20955
0.13950000 0.13949800 11499.85888113 0 168.12986793 0 3715.77333624 0 401.98812282 0 -817.44443007 0 20506
0.14050000 0.14048300 11111.11485748 0 172.48634942 0 3575.64314382 0 -147.94901118 0 -952.85455165 0 21447
0.14150000 0.14148400 10995.11777102 0 118.39831403 0 3374.75728045 0 140.04341430 0 -542.33031749 0 21771
0.14250000 0.14249400 10940.99678191 0 119.98228939 0 3249.20361584 0 34.52363286 0 -935.42862571 0 22470
0.14350000 0.14350900 10676.82879590 0 134.86418832 0 3384.90702551 0 332.58979016 0 -738.41592264 0 22519
0.14450000 0.14449900 10581.86716594 0 14.97285119 0 3074.27429749 0 190.27256934 0 -98.01512145 0 22218
0.14550000 0.14550500 10543.73971451 0 61.04709166 0 3005.88434859 0 398.88827643 0 -485.67299057 0 23559
0.14650000 0.14650700 10423.41470645 0 248.60064975 0 2921.28117057 0 113.20370965 0 -122.21764991 0 23044
0.14750000 0.14750500 10406.42157267 0 -128.65790482 0 2664.12134187 0 27.61565485 0 27.32346522 0 23649
0.14850000 0.14849900 10059.93519974 0 145.51373144 0 3166.03941683 0 -96.29614569 0 -11.27797051 0 23640
0.14950000 0.14949500 10035.62634061 0 245.74575933 0 3009.48728840 0 -212.24061604 0 -40.86173124 0 24457
0.15050000 0.15050000 9871.46190339 0 3.59439381 0 2761.10413319 0 439.03359385 0 290.95386625 0 24591
0.15150000 0.15149900 9993.96185681 0 -79.37419194 0 2701.52381151 0 614.72853691 0 248.90492241 0 25020
0.15250000 0.15250500 9827.64444336 0 201.65588191 0 2652.64246352 0 198.98333540 0 517.00538540 0 25297
0.15350000 0.15350100 9729.55221021 0 140.53112932 0 2582.22036870 0 -224.54992808 0 701.85487126 0 25452
0.15450000 0.15450400 9429.23399583 0 107.07234093 0 2347.27134576 0 176.57370887 0 883.26508744 0 26061
0.15550000 0.15549900 9408.16558562 0 73.57214070 0 2322.58901117 0 138.88673880 0 718.49759717 0 26128
0.15650000 0.15649500 9211.82733530 0 77.99485916 0 2423.62510977 0 -19.38359647 0 576.39567398 0 26331
0.15750000 0.15749700 9029.08798584 0 156.15228999 0 2220.81694621 0 -57.32969261 0 686.49624187 0 27345
0.15850000 0.15849900 8912.73939306 0 146.22553175 0 2013.66987647 0 30.39222526 0 608.17074708 0 26980
0.15950000 0.15949700 8996.17820639 0 -12.29503209 0 2137.58683976 0 263.67697561 0 569.67860784 0 27777
0.16050000 0.16050000 8939.71750332 0 -51.80675936 0 1950.09117037 0 -22.90437167 0 89.00502579 0 28224
0.16150000 0.16150500 8963.31236522 0 112.09097245 0 1868.03641318 0 -82.21655994 0 208.11810596 0 28075
0.16250000 0.16249700 8755.68197429 0 55.70265771 0 1835.21451031 0 -129.70363613 0 -5.78663988 0 28590
0.16350000 0.16349900 8710.65621128 0 151.13124186 0 2109.42239566 0 79.30367098 0 96.08216621 0 29163
0.16450000 0.16449100 8640.36593133 0 114.44936018 0 2092.36335444 0 -26.73732843 0 84.69127429 0 28996
0.16550000 0.16550500 8552.51131983 0 33.12474754 0 2278.89238144 0 -154.44309049 0 170.11697711 0 30777
0.16650000 0.16650700 8644.94649810 0 -24.28128785 0 2061.32095232 0 238.17079808 0 -132.60026792 0 29211
0.16750000 0.16749900 8572.95360940 0 -13.40392469 0 2290.03073804 0 97.41481456 0 173.16739292 0 30922
0.16850000 0.16850800 8648.26383902 0 229.66544353 0 2279.91394669 0 72.29046077 0 132.02467631 0 30867
0.16950000 0.16949900 8374.02299995 0 154.10586412 0 2401.07378227 0 -350.66051051 0 190.51532839 0 30852
0.17050000 0.17049200 8168.75429212 0 220.78881043 0 2416.55104503 0 152.40984611 0 524.24861256 0 31257
0.17150000 0.17149500 7921.21694900 0 -20.09254078 0 2733.99420806 0 16.70292138 0 526.39389959 0 32608
0.17250000 0.17250900 7966.22074287 0 37.94389922 0 2536.88703766 0 391.55497578 0 788.56489030 0 32361
0.17350000 0.17350400 7943.54858506 0 137.01057381 0 2548.65151490 0 -206.65935472 0 613.94423843 0 32508
0.17450000 0.17449800 7886.86819054 0 68.12247455 0 2503.49393701 0 -121.37293628 0 451.70100295 0 32791
0.17550000 0.17549800 7854.93603805 0 11.27808036 0 2508.39305639 0 -29.31266147 0 636.47030142 0 33633
0.17650000 0.17650100 7704.01899535 0 30.25403934 0 2637.01141674 0 110.76952837 0 363.70139508 0 33984
0.17750000 0.17750300 7719.84776444 0 53.13281696 0 2494.51954121 0 176.29140536 0 287.96935788 0 34069
0.17850000 0.17849800 7866.73346900 0 59.24386422 0 2290.77768898 0 154.14321166 0 423.25645225 0 34536
