### header ###
fiducial parameters:
Omega_m = 0.31
Omega_nu = 0
Omega_de = 0.69
Omega_k = 0
H_0 = 100
w_de = -1
zeff = 0
beta = 0
fgrowth = 0
b_1 = 2
gamma = 0.55
Lx = 3500 Ly = 3500 Lz = 3500
nx = 700 ny = 700 nz = 700
xoffset = -983.599254 yoffset = -42.9823471 zoffset = 800.977702
bins = 400 dk = 0.001
kx_ny = 0.628318531 ky_ny = 0.628318531 kz_ny = 0.628318531
############################
A(data) = 9.09827413 (not used)
A(ran) = 9.09299727 (used)
Ngal = 505003
weighted Ngal = 0
Nran = 25229228
weighted Nran = 0
SN(data) = 6740.00139
SN(ran) = 134.97928
SN(data+ran) = 6874.98067
############################
13 columns: k_central k_mean P_0(k) sigma^{lin}_{P_0(k)} P^img_1(k) sigma^{lin}_{P_1(k)} P_2(k) sigma^{lin}_{P_2(k)} P^img_3(k) sigma^{lin}_{P_3(k)} P_4(k) sigma^{lin}_{P_4(k)} N_modes
### header ###
0.00050000 0 0 0 0 0 0 0 0 0 0 0 0
0.00150000 0.00179520 79121.76645769 0 -16055.71035925 0 16686.44451687 0 42613.55087206 0 -8588.46382588 0 3
0.00250000 0.00253879 96042.07252481 0 37279.33258084 0 32678.55420087 0 -23622.10364473 0 59084.03869198 0 6
0.00350000 0.00331552 74252.30543238 0 29185.78965718 0 20393.73776307 0 -62502.76721647 0 33329.06058913 0 7
0.00450000 0.00420575 44289.02772790 0 918.15208996 0 8281.98326629 0 44699.41135953 0 10826.69131963 0 24
0.00550000 0.00557378 62818.90321536 0 -19224.86939469 0 -9589.79549325 0 9353.35256844 0 -27326.76059351 0 45
0.00650000 0.00659388 82305.64482039 0 10253.27466174 0 2350.32505694 0 -12239.23046158 0 2295.13856429 0 40
0.00750000 0.00754703 61355.75814753 0 -3919.60306506 0 -6970.07379376 0 -27246.35352222 0 -7127.80127145 0 57
0.00850000 0.00846663 77908.41057035 0 10433.13605319 0 19717.08809206 0 -5751.68697218 0 -12614.68315241 0 75
0.00950000 0.00948925 60883.64121798 0 5597.34274284 0 29918.68033980 0 -3272.53484801 0 -7532.75852424 0 112
0.01050000 0.01054430 68852.06985994 0 117.37125649 0 39320.15632072 0 2581.00108115 0 -3265.65850557 0 105
0.01150000 0.01145670 58522.83687880 0 1194.61620651 0 28717.51732803 0 694.74785280 0 -8284.26805739 0 144
0.01250000 0.01249090 63058.91612627 0 -140.13129088 0 33325.32583446 0 17173.50046512 0 4755.15556303 0 169
0.01350000 0.01339930 75977.10301910 0 -5282.76655326 0 41189.51088262 0 15484.29289356 0 7360.34467300 0 180
0.01450000 0.01448870 73889.48500002 0 1334.07634000 0 25618.43986566 0 -7061.20180789 0 9894.00224632 0 267
0.01550000 0.01550050 70035.98709276 0 1142.78000850 0 45105.07162496 0 10390.80151046 0 30408.81196838 0 238
0.01650000 0.01653350 67385.84911178 0 -3873.45687564 0 38835.29728698 0 21056.87640981 0 19743.23137480 0 315
0.01750000 0.01747870 92539.20217435 0 2626.96053283 0 26877.93095784 0 15938.94435271 0 -4187.93420407 0 297
0.01850000 0.01844180 86024.58171353 0 1147.11891467 0 32451.61293134 0 -20730.41491269 0 7118.92573681 0 388
0.01950000 0.01947590 74518.24193457 0 5485.32207166 0 41196.10162617 0 -3136.61174688 0 32344.29365722 0 399
0.02050000 0.02045430 66492.80336092 0 -2740.39821388 0 31592.94889265 0 -2340.10940444 0 11808.08598777 0 462
0.02150000 0.02154770 67278.20030049 0 6038.01084109 0 43595.46181511 0 8439.46908339 0 5139.51674222 0 571
0.02250000 0.02255340 65559.66392013 0 5726.19177922 0 42285.55153478 0 16174.67328030 0 10653.62937861 0 510
0.02350000 0.02348930 70148.13957881 0 -4872.60261307 0 35065.50182279 0 11372.65753064 0 8616.62826998 0 555
0.02450000 0.02439640 69331.32676166 0 -3281.33349064 0 29007.94942709 0 8032.05128635 0 988.62361535 0 592
0.02550000 0.02547300 72179.51658628 0 -169.12067638 0 22300.87925464 0 -4357.86554191 0 1802.55737603 0 837
0.02650000 0.02652900 66881.87692175 0 4411.92062358 0 21396.18985684 0 -15411.13564017 0 -8665.25697280 0 723
0.02750000 0.02749970 59772.33200993 0 7602.06019265 0 31282.30518005 0 1532.06227621 0 662.69377155 0 826
0.02850000 0.02848090 60146.57639777 0 747.61220680 0 31940.17123195 0 6151.90987418 0 -583.57958444 0 831
0.02950000 0.02946900 57582.33777439 0 -998.31969757 0 27099.27009535 0 6853.08809577 0 -9914.47748961 0 996
0.03050000 0.03053250 59893.38199977 0 2641.29540005 0 28809.78773772 0 7199.04720922 0 -1509.85147045 0 1041
0.03150000 0.03150510 52815.91203989 0 1428.32397275 0 26519.94373741 0 -3347.49357130 0 12354.67831941 0 1036
0.03250000 0.03246190 53396.00731791 0 1819.46263323 0 29308.81687009 0 1695.07333332 0 2412.35493831 0 1059
0.03350000 0.03345080 49780.54509849 0 -823.57821540 0 22941.49952759 0 7343.37350836 0 14842.79385481 0 1302
0.03450000 0.03451200 52815.47265699 0 -2174.44008077 0 21861.49635139 0 11323.44664548 0 8586.01426620 0 1339
0.03550000 0.03553350 54614.96533726 0 899.07737967 0 18454.63116529 0 -1912.79854645 0 6413.74913080 0 1365
0.03650000 0.03647120 52079.28660258 0 3515.65639295 0 21356.75524128 0 -6267.99483722 0 2446.27529844 0 1308
0.03750000 0.03744890 49305.02295144 0 2929.16809369 0 24376.08470671 0 -4461.59286079 0 10981.87037649 0 1579
0.03850000 0.03847530 46534.82359215 0 -427.86557890 0 23070.34856397 0 3159.71230302 0 3675.89933777 0 1662
0.03950000 0.03950240 48503.69838163 0 -162.04111935 0 24983.97095336 0 2088.02444827 0 -3325.78805588 0 1683
0.04050000 0.04050350 46428.60277529 0 1010.41261352 0 23413.50661141 0 1428.22511160 0 185.03182976 0 1822
0.04150000 0.04152450 45699.99607597 0 535.25625274 0 20570.04015300 0 4337.64294378 0 175.92671755 0 1887
0.04250000 0.04250150 44686.44956389 0 366.26629278 0 20055.85231047 0 2777.92151381 0 3791.24833444 0 1920
0.04350000 0.04349210 45101.66640746 0 1834.55543596 0 19805.07451844 0 -592.35625794 0 230.65954735 0 2005
0.04450000 0.04448520 41590.99701047 0 839.50145182 0 16021.76802997 0 2620.02926753 0 4674.92424489 0 2151
0.04550000 0.04548030 41024.63244817 0 -933.56014991 0 15655.65222583 0 6430.75324916 0 8051.88942443 0 2274
0.04650000 0.04648670 41716.77036652 0 829.84381560 0 13796.73300789 0 1843.65066205 0 4540.86852111 0 2311
0.04750000 0.04749250 40091.49300739 0 1612.72199268 0 14725.91800255 0 -2792.49804163 0 6746.48281886 0 2568
0.04850000 0.04851840 38394.59623502 0 1734.20038085 0 15551.95786067 0 -1542.87109563 0 4341.54246705 0 2493
0.04950000 0.04949480 37897.32463426 0 -247.20890440 0 15259.10915565 0 -432.20668199 0 2525.80360393 0 2644
0.05050000 0.05050630 37060.95927792 0 614.70437085 0 14695.49073650 0 891.70343609 0 296.67463165 0 2829
0.05150000 0.05149060 36054.22320084 0 13.18093787 0 14533.35844520 0 1069.45578961 0 4108.82331234 0 2784
0.05250000 0.05249300 36432.75157199 0 1390.97642598 0 16147.54138603 0 186.12479473 0 -1210.17036129 0 3055
0.05350000 0.05348950 34494.52374001 0 996.42705571 0 15847.11332593 0 386.60203200 0 1822.76898958 0 3009
0.05450000 0.05448610 34063.15957475 0 514.06811069 0 15950.03877101 0 852.28090356 0 -446.62503196 0 3336
0.05550000 0.05550870 32628.68424135 0 -612.32511243 0 13722.03791434 0 2773.47276192 0 5805.53334697 0 3349
0.05650000 0.05647670 34753.32027003 0 47.92887570 0 12690.91608613 0 2915.62411569 0 2170.76024895 0 3324
0.05750000 0.05747970 33306.43236962 0 85.25324503 0 12601.61151104 0 89.42024264 0 5222.86767897 0 3639
0.05850000 0.05849280 32201.49421366 0 1117.74616759 0 11118.47452111 0 949.70747161 0 5485.44290195 0 3846
0.05950000 0.05951020 33336.63994422 0 -208.55089811 0 12387.41234571 0 987.70860045 0 5624.27691481 0 3787
0.06050000 0.06049470 32846.83785281 0 -591.56756562 0 10002.62868458 0 1696.25966716 0 2977.03886100 0 3930
0.06150000 0.06148310 33042.58293621 0 573.63964471 0 11165.26880031 0 -2591.67808570 0 78.69194013 0 4083
0.06250000 0.06249100 32238.84176044 0 632.31264070 0 12030.74327399 0 -882.29844505 0 2118.56156005 0 4303
0.06350000 0.06350600 31433.78243595 0 394.30551275 0 11525.56278097 0 -1271.57412202 0 912.25447294 0 4470
0.06450000 0.06451750 31155.32352101 0 -366.62988213 0 12439.91860265 0 1760.21184872 0 900.33840860 0 4479
0.06550000 0.06550280 31545.82507628 0 163.49987059 0 10405.00456281 0 2131.13889565 0 81.51277837 0 4636
0.06650000 0.06648880 30917.17798745 0 919.42300500 0 10758.83961480 0 1330.46241562 0 2410.57543755 0 4653
0.06750000 0.06749660 31006.81209971 0 713.67866518 0 11333.55245225 0 516.95265945 0 4202.52171646 0 5220
0.06850000 0.06852730 29865.73469996 0 191.07883697 0 10447.93227245 0 1283.04201579 0 3005.25822796 0 5029
0.06950000 0.06949320 29286.18865057 0 83.54525384 0 10734.70650884 0 212.70196809 0 5176.49081353 0 5040
0.07050000 0.07048030 29067.92519338 0 439.15662106 0 10443.78010402 0 -411.86545048 0 4115.96328452 0 5475
0.07150000 0.07148790 28008.13363073 0 779.37190151 0 11590.92098783 0 -250.45374714 0 4758.69259540 0 5509
0.07250000 0.07249820 27238.55447568 0 558.05912697 0 10767.79204145 0 84.56044803 0 2895.17084155 0 5916
0.07350000 0.07351270 27628.39695659 0 241.84733452 0 11545.00547444 0 1069.93361851 0 4645.11211491 0 5721
0.07450000 0.07449140 26791.37252590 0 -191.47318312 0 9290.20226067 0 1934.76769161 0 4495.29352947 0 6028
0.07550000 0.07549160 26969.54229317 0 -2.81857542 0 9973.45365980 0 1151.95212661 0 3254.54211812 0 6183
0.07650000 0.07648840 26393.18176982 0 865.51511660 0 8369.91476981 0 -603.52207596 0 3535.21991672 0 6330
0.07750000 0.07749960 25744.54275889 0 858.52673153 0 9746.20482224 0 -384.23265969 0 3437.65494305 0 6583
0.07850000 0.07848650 24706.50064996 0 89.15101076 0 9596.43017509 0 -517.60514306 0 3097.82522110 0 6549
0.07950000 0.07947320 24009.63936540 0 684.60469847 0 10231.30551658 0 218.64242495 0 2313.05440217 0 6828
0.08050000 0.08048110 24033.69557935 0 157.42430349 0 9019.88291402 0 764.27140958 0 3080.18399753 0 7147
0.08150000 0.08149960 23773.91043780 0 -214.37382004 0 9657.11993861 0 1221.08902643 0 1766.80259227 0 7386
0.08250000 0.08250610 23549.60546569 0 381.12841948 0 8242.39486671 0 -46.86172447 0 544.36026650 0 7227
0.08350000 0.08350160 22742.56891814 0 650.57229570 0 8351.27395014 0 -141.06168418 0 2588.82209683 0 7798
0.08450000 0.08449610 22198.39319246 0 528.50842981 0 8691.93849960 0 303.79812697 0 2563.37084215 0 7371
0.08550000 0.08548940 21972.66022591 0 -230.39481915 0 8269.74645244 0 373.56554126 0 1951.79377912 0 8256
0.08650000 0.08650700 21902.02942421 0 -59.49310417 0 7685.32325282 0 1353.61789463 0 657.74192623 0 8037
0.08750000 0.08749060 21888.62824567 0 676.13669147 0 7125.69223352 0 -328.81658948 0 709.72861288 0 8155
0.08850000 0.08849210 20564.43802098 0 793.68260266 0 6976.77438303 0 -1007.56870768 0 317.56399333 0 8718
0.08950000 0.08949900 20418.34320565 0 435.82390174 0 8641.40946573 0 -313.86219237 0 602.47195083 0 8571
0.09050000 0.09049190 19640.30592972 0 149.61976467 0 8027.55859616 0 780.37589144 0 115.18093272 0 8932
0.09150000 0.09150830 19521.45285439 0 -120.58534243 0 7270.38102356 0 1244.00284484 0 -977.64123968 0 9285
0.09250000 0.09250820 19303.73862582 0 121.30593039 0 6107.27955578 0 337.26043042 0 243.43680218 0 9204
0.09350000 0.09350330 18940.69850201 0 426.51887030 0 6663.87883305 0 605.36418879 0 1661.17494233 0 9349
0.09450000 0.09448040 18921.69519144 0 184.03333211 0 6085.27745690 0 -607.75223487 0 1312.73331548 0 9564
0.09550000 0.09549270 18191.77034341 0 210.60721010 0 6181.20572926 0 364.71856650 0 -753.72072761 0 10155
0.09650000 0.09649430 18071.92865655 0 584.67584479 0 6574.17881335 0 -156.19842519 0 712.61206318 0 9913
0.09750000 0.09749140 17687.90799911 0 294.68862093 0 7196.54272667 0 -171.24399426 0 1130.10381174 0 10476
0.09850000 0.09850240 17159.55005795 0 56.10480292 0 7156.35017559 0 -240.07442451 0 245.93139861 0 10575
0.09950000 0.09950330 17484.80325208 0 187.71755776 0 6857.64669339 0 634.59633334 0 -816.69747914 0 10882
0.10050000 0.10051200 17285.43325973 0 228.64058291 0 6770.35229508 0 -32.05594863 0 -35.77938919 0 10875
0.10150000 0.10150300 17102.97950915 0 155.68324874 0 7653.41306947 0 -290.60675375 0 -180.03714461 0 11118
0.10250000 0.10250800 16000.78749634 0 307.93381854 0 7300.30299927 0 -116.52654286 0 -396.82537370 0 11575
0.10350000 0.10349800 16109.09538199 0 344.41248563 0 6358.66149931 0 805.68214975 0 -200.63980894 0 11364
0.10450000 0.10450100 16042.41902642 0 30.53008165 0 6883.25173207 0 630.59794892 0 -40.62940753 0 12093
0.10550000 0.10551000 15300.30130283 0 12.33358794 0 5733.03516794 0 908.16491656 0 102.09764770 0 12067
0.10650000 0.10649700 15567.44610801 0 110.00719903 0 5863.16939931 0 72.54640131 0 113.52226226 0 12054
0.10750000 0.10749900 15144.21052645 0 470.24405992 0 5472.28338400 0 -383.04303048 0 -17.38715040 0 12807
0.10850000 0.10850100 14893.87211732 0 218.31398623 0 5619.22401142 0 271.51666507 0 627.70900633 0 12736
0.10950000 0.10950300 14716.14173295 0 -179.83173310 0 5673.63059942 0 762.43698596 0 251.40061730 0 12933
0.11050000 0.11050200 14749.31514215 0 -14.69252490 0 4978.75752249 0 497.41440020 0 796.44961650 0 13428
0.11150000 0.11150900 14611.12921907 0 87.24551696 0 4813.53856630 0 -109.22026425 0 444.80708519 0 13453
0.11250000 0.11250000 14277.41790405 0 130.73508749 0 5124.34704749 0 321.63487593 0 1585.51320639 0 13668
0.11350000 0.11349100 14647.92753722 0 -4.95326233 0 5223.27410815 0 449.94017596 0 1085.95351916 0 13791
0.11450000 0.11448600 14414.83490705 0 303.63775221 0 4806.71714672 0 -349.02051383 0 969.29516144 0 14205
0.11550000 0.11549300 14842.24462619 0 58.54700294 0 5148.77673691 0 203.36947523 0 897.44287527 0 14776
0.11650000 0.11649800 14392.20668753 0 -44.85033939 0 5217.17767037 0 -643.85413111 0 429.93177700 0 14553
0.11750000 0.11747300 14173.61369316 0 102.74112396 0 5065.29398529 0 80.45760033 0 822.33695870 0 14568
0.11850000 0.11849100 14166.69341243 0 52.49538221 0 5094.89740840 0 311.04904333 0 -9.95908584 0 16015
0.11950000 0.11950300 14017.19337960 0 150.73250188 0 5030.67061251 0 279.66721792 0 657.12788862 0 15270
0.12050000 0.12050700 13852.09525370 0 348.03409921 0 5168.17549209 0 -69.10866948 0 9.48465116 0 15999
0.12150000 0.12150000 13657.00924466 0 277.92945854 0 4862.76043603 0 -47.22970765 0 1219.71595486 0 15670
0.12250000 0.12250700 13476.64256287 0 39.45889147 0 5012.48016032 0 215.27125962 0 -287.28282209 0 16887
0.12350000 0.12352200 12936.31143760 0 123.43364210 0 5083.19883860 0 46.99672487 0 196.31078889 0 16407
0.12450000 0.12449800 12996.50689534 0 182.23845295 0 5082.63862540 0 491.55742610 0 625.16168395 0 16306
0.12550000 0.12549900 13018.36619478 0 -134.90483124 0 4528.60973811 0 622.63852763 0 1418.59164144 0 17523
0.12650000 0.12650100 12944.44002131 0 -16.82891442 0 4599.11970951 0 383.31654634 0 1237.00567210 0 17154
0.12750000 0.12750600 13011.99514268 0 47.74455457 0 3867.01991611 0 145.89928994 0 1354.71635188 0 18007
0.12850000 0.12850300 13126.67408043 0 -41.21224895 0 4369.97054089 0 229.90930104 0 952.97098812 0 17496
0.12950000 0.12949900 13019.90403494 0 92.38431970 0 3744.73965413 0 -240.21832241 0 859.18251051 0 18405
0.13050000 0.13049000 13021.99110373 0 174.75686057 0 4162.27424252 0 -53.15335811 0 1254.35031221 0 18100
0.13150000 0.13148800 12812.51530460 0 43.04052121 0 3928.98389004 0 -325.55636834 0 456.63307604 0 19059
0.13250000 0.13249300 12717.93813468 0 143.04659644 0 4170.82023999 0 189.71235614 0 158.16795906 0 18957
0.13350000 0.13349100 12404.32858748 0 283.95559506 0 3938.73819049 0 75.86363238 0 491.23667658 0 19468
0.13450000 0.13450700 12440.68752273 0 15.27997984 0 3742.47683218 0 665.23670010 0 740.05591932 0 19953
0.13550000 0.13551000 12194.74294263 0 38.81947950 0 3687.43313898 0 255.13427352 0 726.31202211 0 19956
0.13650000 0.13649900 11753.27297059 0 392.77096796 0 3652.67795133 0 -211.07954672 0 1159.68526570 0 19723
0.13750000 0.13749600 11668.36222453 0 145.77516427 0 3553.27855404 0 -12.71156708 0 1015.34358815 0 20946
0.13850000 0.13851100 11549.94853210 0 31.18212588 0 3591.31812889 0 450.44656476 0 1063.78994707 0 20955
0.13950000 0.13949800 11552.58482952 0 92.15375352 0 3529.38710868 0 -44.55232793 0 633.56048815 0 20506
0.14050000 0.14048300 11018.51491062 0 142.96531060 0 3229.60713836 0 -2.76832100 0 968.47351541 0 21447
0.14150000 0.14148400 11111.33454893 0 74.17134913 0 3331.65381764 0 233.45731799 0 893.19074722 0 21771
0.14250000 0.14249400 11074.09684788 0 182.95574554 0 3125.33059084 0 88.16426661 0 813.36915364 0 22470
0.14350000 0.14350900 11046.96495361 0 -48.89178333 0 2964.47250996 0 212.95571172 0 440.99983234 0 22519
0.14450000 0.14449900 10817.92563071 0 96.32953879 0 2972.00792675 0 41.70963039 0 393.20595704 0 22218
0.14550000 0.14550500 10598.46485511 0 162.69140605 0 2777.97643668 0 146.91316599 0 438.96658795 0 23559
0.14650000 0.14650700 10442.82444620 0 186.62788816 0 3071.94556810 0 -96.26494950 0 643.58610754 0 23044
0.14750000 0.14750500 10251.70386786 0 334.07600283 0 3211.63637762 0 -406.15347274 0 334.18584856 0 23649
0.14850000 0.14849900 9876.26216160 0 145.74550592 0 3105.33866875 0 -67.66837232 0 314.53664512 0 23640
0.14950000 0.14949500 9714.00904000 0 15.27569586 0 3234.42936572 0 82.52654458 0 17.74195210 0 24457
0.15050000 0.15050000 9727.28938826 0 192.65951696 0 3270.94208498 0 224.24455696 0 320.87364505 0 24591
0.15150000 0.15149900 9647.39859187 0 -76.89881850 0 2837.45789720 0 536.94568001 0 482.12936745 0 25020
0.15250000 0.15250500 9704.93578305 0 89.45308651 0 2922.77507244 0 -130.29240922 0 264.41404043 0 25297
0.15350000 0.15350100 9461.71537696 0 116.72096979 0 2556.83502147 0 208.89910907 0 550.40837216 0 25452
0.15450000 0.15450400 9468.99814858 0 -65.44762128 0 2649.17133859 0 396.61227299 0 919.81844962 0 26061
0.15550000 0.15549900 9526.05201857 0 36.65178395 0 2652.32391092 0 -74.67740839 0 499.44984150 0 26128
0.15650000 0.15649500 9492.85664022 0 52.23054417 0 2189.17039260 0 118.33789888 0 805.88097052 0 26331
0.15750000 0.15749700 9420.61110636 0 -54.70833420 0 2215.18186047 0 227.32572957 0 489.25725660 0 27345
0.15850000 0.15849900 9542.40804714 0 212.02861379 0 2267.34759566 0 -274.38913080 0 419.82706869 0 26980
0.15950000 0.15949700 9160.49642763 0 107.57532451 0 2303.69554633 0 -14.57993303 0 369.71874394 0 27777
0.16050000 0.16050000 9195.59213703 0 7.33785925 0 2358.06918061 0 105.54306873 0 191.19087961 0 28224
0.16150000 0.16150500 9124.62081358 0 114.82722948 0 2228.26448642 0 148.96178878 0 203.30356779 0 28075
0.16250000 0.16249700 8999.30880957 0 157.58797362 0 2170.77123353 0 -193.94361350 0 68.38368769 0 28590
0.16350000 0.16349900 8744.29097252 0 131.76653886 0 2066.17613341 0 208.11261367 0 289.86859048 0 29163
0.16450000 0.16449100 8630.87526062 0 -4.63397376 0 2319.60120743 0 120.14046724 0 297.03272871 0 28996
0.16550000 0.16550500 8547.61220045 0 145.27097239 0 2010.94570247 0 152.51090418 0 127.16729832 0 30777
0.16650000 0.16650700 8315.58507382 0 155.77002686 0 1744.91033912 0 157.39684206 0 696.66466071 0 29211
0.16750000 0.16749900 8251.08366362 0 31.20288672 0 1844.65025816 0 117.55909268 0 448.11893383 0 30922
0.16850000 0.16850800 8148.63055515 0 112.53474918 0 2006.29922826 0 -18.25218549 0 626.62812439 0 30867
0.16950000 0.16949900 8144.87383133 0 163.05938923 0 1828.82148907 0 -108.35457009 0 475.75282307 0 30852
0.17050000 0.17049200 7907.22260353 0 3.41053403 0 1947.67456440 0 -174.13073993 0 606.28140060 0 31257
0.17150000 0.17149500 7906.75026691 0 25.13819435 0 2001.48798547 0 22.76860236 0 702.50186258 0 32608
0.17250000 0.17250900 8090.08278330 0 -42.32432708 0 2147.15440248 0 228.67243817 0 608.02575072 0 32361
0.17350000 0.17350400 8068.43219074 0 60.84069154 0 2110.26820775 0 -260.99564145 0 711.99363175 0 32508
0.17450000 0.17449800 8088.78660373 0 146.98236880 0 2257.81298666 0 -273.44445755 0 219.91553691 0 32791
0.17550000 0.17549800 8017.83724943 0 30.38310807 0 2423.07588115 0 149.10348976 0 799.56813665 0 33633
0.17650000 0.17650100 8105.42823119 0 -88.38912081 0 2627.43286945 0 12.87073354 0 266.19573811 0 33984
0.17750000 0.17750300 7994.11057265 0 148.82448162 0 2496.50774885 0 -75.85901886 0 350.53199102 0 34069
0.17850000 0.17849800 7879.26686632 0 188.96760212 0 2462.12603667 0 -60.76522753 0 425.10076198 0 34536
0.17950000 0.17950400 7829.59462910 0 3.34546143 0 2502.84584723 0 100.10262963 0 367.18570151 0 35343
