### header ###
fiducial parameters:
Omega_m = 0.31
Omega_nu = 0
Omega_de = 0.69
Omega_k = 0
H_0 = 100
w_de = -1
zeff = 0
beta = 0
fgrowth = 0
b_1 = 2
gamma = 0.55
Lx = 3500 Ly = 3500 Lz = 3500
nx = 700 ny = 700 nz = 700
xoffset = -983.599254 yoffset = -42.9823471 zoffset = 800.977702
bins = 400 dk = 0.001
kx_ny = 0.628318531 ky_ny = 0.628318531 kz_ny = 0.628318531
############################
A(data) = 9.07875817 (not used)
A(ran) = 9.07814855 (used)
Ngal = 504563
weighted Ngal = 0
Nran = 25229228
weighted Nran = 0
SN(data) = 6728.75421
SN(ran) = 134.758861
SN(data+ran) = 6863.51307
############################
13 columns: k_central k_mean P_0(k) sigma^{lin}_{P_0(k)} P^img_1(k) sigma^{lin}_{P_1(k)} P_2(k) sigma^{lin}_{P_2(k)} P^img_3(k) sigma^{lin}_{P_3(k)} P_4(k) sigma^{lin}_{P_4(k)} N_modes
### header ###
0.00050000 0 0 0 0 0 0 0 0 0 0 0 0
0.00150000 0.00179520 20588.05485203 0 -17475.68605684 0 7122.80329093 0 -21261.73868845 0 -41797.83651217 0 3
0.00250000 0.00253879 40980.36462067 0 -13544.30752997 0 7627.19289472 0 -31665.33722596 0 35181.60875498 0 6
0.00350000 0.00331552 63371.75675338 0 -21277.11709006 0 -23798.84541756 0 18068.63328478 0 80210.11790905 0 7
0.00450000 0.00420575 69861.77177162 0 -1598.72764721 0 2076.84215338 0 -24916.74536916 0 19393.70227526 0 24
0.00550000 0.00557378 70482.07058529 0 11264.67918217 0 28706.75244690 0 5587.50056581 0 9538.55246216 0 45
0.00650000 0.00659388 60451.28844118 0 4711.60173274 0 39124.74077450 0 3354.54566690 0 190.18798813 0 40
0.00750000 0.00754703 51341.89224520 0 3942.39605316 0 22871.30810879 0 39346.95867782 0 54691.30811670 0 57
0.00850000 0.00846663 52137.28514581 0 -6169.16663771 0 34321.29703041 0 15446.28627243 0 4498.76465441 0 75
0.00950000 0.00948925 60629.01882555 0 -976.14404244 0 11104.41426821 0 22974.78278251 0 34019.33113015 0 112
0.01050000 0.01054430 66501.59101898 0 -2639.01060895 0 14053.44246912 0 6398.14005316 0 12636.65229758 0 105
0.01150000 0.01145670 64819.96280251 0 -3023.31686528 0 12842.72287920 0 -10180.58974497 0 12034.14849149 0 144
0.01250000 0.01249090 69516.08727248 0 2486.07240490 0 20892.21766681 0 -9091.61217297 0 7284.03484728 0 169
0.01350000 0.01339930 63480.83355911 0 3877.09276917 0 17032.12901600 0 -3889.34056759 0 6765.58499058 0 180
0.01450000 0.01448870 80816.13677836 0 -6502.26281666 0 28847.57466740 0 9721.10507389 0 -22650.95758281 0 267
0.01550000 0.01550050 73050.70303771 0 -1636.78919120 0 18289.31334794 0 -8713.99552134 0 -1627.73790339 0 238
0.01650000 0.01653350 76708.78539875 0 5888.88428372 0 22984.77874356 0 1890.68660185 0 8503.95950902 0 315
0.01750000 0.01747870 65520.00961312 0 2364.14364925 0 32247.62941850 0 -8376.45059049 0 13071.09214317 0 297
0.01850000 0.01844180 77244.94238644 0 2515.44515198 0 35303.20797345 0 11785.89715115 0 -21624.33942936 0 388
0.01950000 0.01947590 70582.46957868 0 251.60273343 0 24747.58295141 0 2676.45701688 0 -1125.17173865 0 399
0.02050000 0.02045430 66119.87712178 0 5146.05256291 0 28453.22851173 0 2210.93083088 0 2267.09495049 0 462
0.02150000 0.02154770 57813.78271867 0 1709.70478400 0 33600.81891480 0 -540.19601503 0 12008.88397455 0 571
0.02250000 0.02255340 59930.07047220 0 -1793.41821164 0 20929.45536786 0 9012.12780577 0 4437.53664684 0 510
0.02350000 0.02348930 67957.04688601 0 -3789.02945078 0 21880.60950768 0 9960.42595672 0 -12395.21139224 0 555
0.02450000 0.02439640 62617.22646277 0 4577.61191640 0 16893.39386430 0 -2675.23772932 0 -1307.25201376 0 592
0.02550000 0.02547300 61566.66194109 0 2724.43762992 0 24779.87759480 0 -4824.89661435 0 5884.10599465 0 837
0.02650000 0.02652900 57744.14052851 0 1590.57709435 0 23420.31704641 0 454.08465520 0 6261.89839944 0 723
0.02750000 0.02749970 53328.23250508 0 -2114.36545332 0 29246.97372646 0 4147.82952958 0 -943.67144898 0 826
0.02850000 0.02848090 60445.57646344 0 2498.52891021 0 30509.21096178 0 -110.81456512 0 -1267.75149076 0 831
0.02950000 0.02946900 54773.91210251 0 4818.16307135 0 30441.87553185 0 -3821.40098618 0 7197.11392444 0 996
0.03050000 0.03053250 56408.63619407 0 721.54471761 0 38181.82506412 0 812.17842598 0 4449.23521664 0 1041
0.03150000 0.03150510 55028.09511205 0 -1641.82012544 0 36823.25312726 0 9154.75149617 0 12372.58317272 0 1036
0.03250000 0.03246190 54968.11934575 0 -2205.07605370 0 32678.44435514 0 6587.86559079 0 8413.73222983 0 1059
0.03350000 0.03345080 55141.78543826 0 2076.06224873 0 30917.61737035 0 3234.06687483 0 8568.20827404 0 1302
0.03450000 0.03451200 53957.97805117 0 3636.91508967 0 32562.99649731 0 -677.49987693 0 8942.73826078 0 1339
0.03550000 0.03553350 49871.71705091 0 429.00797445 0 31332.94405965 0 1774.46982394 0 13589.89350619 0 1365
0.03650000 0.03647120 50783.54642089 0 -1135.07982312 0 33609.49672714 0 6279.48470014 0 13813.53940394 0 1308
0.03750000 0.03744890 52420.46742696 0 571.62507410 0 25345.69292847 0 6196.50723886 0 -271.07618371 0 1579
0.03850000 0.03847530 50570.22602136 0 6.70999207 0 24593.90878100 0 -3763.07290577 0 6197.59471155 0 1662
0.03950000 0.03950240 49025.35573352 0 330.06883075 0 21006.23753021 0 2187.12726210 0 4230.00511706 0 1683
0.04050000 0.04050350 48667.14882164 0 -367.82500363 0 22184.66247673 0 3882.23354913 0 3498.07009225 0 1822
0.04150000 0.04152450 47525.52219326 0 3014.89169811 0 18766.37333514 0 -1374.91698086 0 -1490.85914446 0 1887
0.04250000 0.04250150 47562.75989431 0 2825.47372852 0 22067.45708729 0 3.16981811 0 -641.39029148 0 1920
0.04350000 0.04349210 43632.58967043 0 514.86888603 0 24261.62546041 0 -3640.92445867 0 -7700.52590127 0 2005
0.04450000 0.04448520 40884.90868494 0 1531.35926357 0 25956.87454689 0 218.99063590 0 -2985.49698188 0 2151
0.04550000 0.04548030 40485.50962588 0 830.53913905 0 24007.66214233 0 2019.49169993 0 -2674.85326928 0 2274
0.04650000 0.04648670 41045.50313608 0 -1023.08002262 0 21709.79940404 0 4974.78110722 0 -5486.66218951 0 2311
0.04750000 0.04749250 42617.28562674 0 481.41537024 0 20607.16800833 0 1386.41782835 0 -6285.02092472 0 2568
0.04850000 0.04851840 38179.95768678 0 646.73648296 0 17896.06564952 0 -334.57689934 0 -3742.86129222 0 2493
0.04950000 0.04949480 38626.48056221 0 1790.44139247 0 20278.50959669 0 -532.57931241 0 -1168.26421689 0 2644
0.05050000 0.05050630 38391.30086325 0 -235.29503698 0 19057.46450855 0 3207.94556123 0 -3282.67360850 0 2829
0.05150000 0.05149060 37434.87412859 0 212.30103119 0 15741.99096632 0 3359.23607939 0 -596.18767685 0 2784
0.05250000 0.05249300 37838.11778805 0 -437.64294696 0 14601.68248665 0 3354.87520408 0 -2395.29589709 0 3055
0.05350000 0.05348950 36967.04118235 0 1419.48139182 0 16426.00030096 0 -2615.20704017 0 1509.51094870 0 3009
0.05450000 0.05448610 35089.44819102 0 1392.64608101 0 14154.28084542 0 -115.79057649 0 1472.89936829 0 3336
0.05550000 0.05550870 35581.88657984 0 -233.39800129 0 18635.87661288 0 1462.21137917 0 1993.77681552 0 3349
0.05650000 0.05647670 33772.28809279 0 168.25399360 0 14592.01606278 0 1884.93068581 0 225.31665125 0 3324
0.05750000 0.05747970 33959.46520958 0 313.94128129 0 15003.93753458 0 671.29579033 0 3161.48081921 0 3639
0.05850000 0.05849280 33430.77773124 0 413.15723622 0 13962.38036242 0 651.24345309 0 2545.34515855 0 3846
0.05950000 0.05951020 33527.66166140 0 205.68062930 0 14396.38082511 0 1949.68474118 0 1826.08633050 0 3787
0.06050000 0.06049470 32972.94074605 0 1244.24450543 0 12546.13941951 0 -639.15163559 0 3347.75720104 0 3930
0.06150000 0.06148310 31772.21711718 0 466.16768504 0 13599.01070143 0 -949.82061271 0 987.48231826 0 4083
0.06250000 0.06249100 31022.52003850 0 899.34430478 0 14206.45756518 0 -291.59426683 0 1882.53604899 0 4303
0.06350000 0.06350600 30625.09820251 0 -41.82551764 0 13020.34341784 0 1895.28913776 0 -788.72306814 0 4470
0.06450000 0.06451750 30114.86480611 0 170.79142987 0 14734.81550634 0 706.25748795 0 1362.99871961 0 4479
0.06550000 0.06550280 29821.24718101 0 -120.55348717 0 11548.19100049 0 1495.05525118 0 1847.87972250 0 4636
0.06650000 0.06648880 30054.44965691 0 173.56283753 0 12394.00308926 0 1849.83497642 0 2938.51596495 0 4653
0.06750000 0.06749660 29774.01351891 0 416.22412888 0 10040.36069140 0 224.15118809 0 1444.17471099 0 5220
0.06850000 0.06852730 29211.38371129 0 -352.81678211 0 11966.04414149 0 690.86370793 0 2655.72912842 0 5029
0.06950000 0.06949320 29322.76727727 0 -41.06747228 0 8208.15595397 0 1109.80432161 0 3150.61707693 0 5040
0.07050000 0.07048030 29783.24055988 0 172.46108490 0 10854.83379458 0 536.75454844 0 3302.02842539 0 5475
0.07150000 0.07148790 29345.50534251 0 622.31887657 0 9521.58129752 0 -769.04310791 0 1937.22823587 0 5509
0.07250000 0.07249820 28637.54963964 0 973.98557393 0 10181.42457249 0 535.33314475 0 -878.78667720 0 5916
0.07350000 0.07351270 27176.05225769 0 626.41392522 0 10772.60328424 0 -3625.63393363 0 224.39614406 0 5721
0.07450000 0.07449140 26228.08364392 0 1199.51532588 0 12433.65739627 0 1615.83062672 0 920.11832845 0 6028
0.07550000 0.07549160 25839.55931172 0 -932.01462055 0 10813.49884796 0 2484.18305842 0 1313.07383723 0 6183
0.07650000 0.07648840 26465.35041168 0 -579.82395908 0 9436.37396801 0 2060.87058485 0 554.80110274 0 6330
0.07750000 0.07749960 26259.06013860 0 1054.01257901 0 7984.22445733 0 -13.91218087 0 1416.81214069 0 6583
0.07850000 0.07848650 24666.73649721 0 1152.22674092 0 8988.70869703 0 -870.42522055 0 2687.68325006 0 6549
0.07950000 0.07947320 24397.39477752 0 87.31493945 0 8412.85346403 0 1346.32413843 0 2475.08783232 0 6828
0.08050000 0.08048110 24654.10423874 0 -23.95383774 0 9022.43133486 0 1543.83773802 0 3272.13940339 0 7147
0.08150000 0.08149960 23678.89388497 0 223.76672805 0 7095.28693661 0 -178.31146826 0 3314.17736266 0 7386
0.08250000 0.08250610 22723.12622467 0 832.07917612 0 7768.25677581 0 523.78506360 0 3491.21571896 0 7227
0.08350000 0.08350160 23087.26480574 0 290.18165080 0 7964.26548895 0 236.73401599 0 2845.05922143 0 7798
0.08450000 0.08449610 22978.84707436 0 -469.65089300 0 6536.77634371 0 406.65436925 0 2483.91942867 0 7371
0.08550000 0.08548940 22009.67823551 0 12.15871354 0 7116.57503827 0 69.96996981 0 3136.58977774 0 8256
0.08650000 0.08650700 21730.12086332 0 1040.88491632 0 6969.76622573 0 -1468.25289409 0 747.26179894 0 8037
0.08750000 0.08749060 20927.14860762 0 659.59062979 0 7438.76353666 0 33.93639761 0 1803.11758923 0 8155
0.08850000 0.08849210 20610.68307155 0 466.95857426 0 8377.42821745 0 94.12570399 0 -292.54223544 0 8718
0.08950000 0.08949900 20487.21647574 0 284.80580097 0 8062.34673753 0 796.17500218 0 411.82151219 0 8571
0.09050000 0.09049190 20264.33949806 0 -474.30835178 0 6990.43919132 0 1297.34392929 0 705.70825932 0 8932
0.09150000 0.09150830 20092.54078289 0 -74.14916030 0 6490.04797195 0 -53.97324661 0 2053.43402921 0 9285
0.09250000 0.09250820 20068.92395184 0 674.24185270 0 7133.48029548 0 -91.85760945 0 1132.11398852 0 9204
0.09350000 0.09350330 19282.75809219 0 369.95820763 0 6948.40123205 0 -21.82733433 0 1532.25999852 0 9349
0.09450000 0.09448040 19410.83820849 0 17.02180352 0 7481.99881434 0 -13.55045889 0 789.20419242 0 9564
0.09550000 0.09549270 18965.96301895 0 290.67266119 0 7709.10485246 0 -199.06681815 0 1229.44828617 0 10155
0.09650000 0.09649430 18611.60070747 0 668.01579696 0 8587.70589038 0 -463.68297472 0 957.42523231 0 9913
0.09750000 0.09749140 18394.32586181 0 417.15562064 0 7772.51878997 0 -224.66965992 0 247.76362532 0 10476
0.09850000 0.09850240 17768.86429903 0 -198.12104645 0 8361.21498832 0 1213.11422674 0 1582.61327923 0 10575
0.09950000 0.09950330 18271.95772326 0 -282.89558380 0 7722.56095387 0 968.61741331 0 1211.60934029 0 10882
0.10050000 0.10051200 17728.11153476 0 338.49289947 0 6786.21401789 0 512.89715525 0 1583.92044337 0 10875
0.10150000 0.10150300 17607.61077354 0 267.13931289 0 6692.53758292 0 232.81801586 0 1900.52877888 0 11118
0.10250000 0.10250800 17218.42736698 0 268.06641082 0 6243.19167233 0 -25.04460579 0 1331.98927121 0 11575
0.10350000 0.10349800 16605.48821694 0 300.72903739 0 6555.26337937 0 145.06556088 0 1998.03882968 0 11364
0.10450000 0.10450100 16491.68804500 0 392.03610006 0 5950.62856620 0 336.04773361 0 1326.57387693 0 12093
0.10550000 0.10551000 16271.22767329 0 -19.08866069 0 6211.46822672 0 747.78686150 0 1573.91349775 0 12067
0.10650000 0.10649700 16178.29818925 0 24.25646271 0 5464.19873858 0 -203.25084184 0 331.48803753 0 12054
0.10750000 0.10749900 15492.97070590 0 440.24958603 0 5707.90246587 0 426.72208490 0 1649.71803313 0 12807
0.10850000 0.10850100 15509.55741050 0 41.41425524 0 5282.25027834 0 -75.60483585 0 1332.39570040 0 12736
0.10950000 0.10950300 15768.90316915 0 -15.36071645 0 5238.58660233 0 404.55082360 0 815.18600195 0 12933
0.11050000 0.11050200 15089.83689217 0 201.79758289 0 5156.54282972 0 75.96414122 0 1345.09386630 0 13428
0.11150000 0.11150900 15079.29170249 0 236.62636718 0 5718.68931615 0 -312.26174014 0 1079.92298882 0 13453
0.11250000 0.11250000 14640.56787359 0 171.01331823 0 5338.85378086 0 114.92609063 0 1044.86352851 0 13668
0.11350000 0.11349100 14491.61706939 0 248.56440066 0 6132.79671789 0 -472.02026531 0 668.36181100 0 13791
0.11450000 0.11448600 14432.84960608 0 420.23459633 0 5893.98112540 0 355.42012581 0 1370.92958101 0 14205
0.11550000 0.11549300 14046.74187984 0 26.89056322 0 6328.24521783 0 77.32578884 0 861.11469683 0 14776
0.11650000 0.11649800 14049.26833154 0 54.56388707 0 5767.18620409 0 577.08770205 0 145.33578137 0 14553
0.11750000 0.11747300 14165.92449235 0 -132.44868081 0 5278.07614076 0 271.96483563 0 718.82823281 0 14568
0.11850000 0.11849100 13806.94866039 0 56.88591587 0 5424.31375554 0 -131.47544768 0 1221.04508814 0 16015
0.11950000 0.11950300 13818.26277015 0 460.43813198 0 5380.22168120 0 -161.94555357 0 889.46697712 0 15270
0.12050000 0.12050700 13639.32408280 0 125.88320178 0 5356.57189643 0 271.02895004 0 168.83947132 0 15999
0.12150000 0.12150000 13244.42869850 0 -62.91655607 0 4938.10361937 0 563.86447357 0 704.60321132 0 15670
0.12250000 0.12250700 13054.83497575 0 198.10786496 0 5100.15901866 0 501.22275151 0 1099.18223992 0 16887
0.12350000 0.12352200 13056.37281591 0 34.34238741 0 4659.82045759 0 -21.20022508 0 1081.69589883 0 16407
0.12450000 0.12449800 12985.74201421 0 194.73340426 0 4190.48262491 0 333.88706818 0 1289.46799075 0 16306
0.12550000 0.12549900 12925.76624792 0 -87.26935348 0 4203.04897594 0 456.94064407 0 1166.15517895 0 17523
0.12650000 0.12650100 13168.19576479 0 -20.61793289 0 4071.56364215 0 417.39837969 0 908.10669833 0 17154
0.12750000 0.12750600 12667.29925508 0 167.56635936 0 3587.66026622 0 -289.85431053 0 1410.24336628 0 18007
0.12850000 0.12850300 12650.71255048 0 145.18529272 0 3938.87000536 0 156.68943559 0 1312.41476287 0 17496
0.12950000 0.12949900 12551.52186007 0 142.74561915 0 3922.03065560 0 7.66569382 0 1047.63054234 0 18405
0.13050000 0.13049000 12498.35652878 0 143.68480011 0 4248.11867725 0 314.11044371 0 1788.12364765 0 18100
0.13150000 0.13148800 12383.34805385 0 -39.82874203 0 3493.88497009 0 99.20540974 0 589.07736302 0 19059
0.13250000 0.13249300 12275.04016820 0 -9.29233327 0 3785.62423328 0 349.27425745 0 1193.24313494 0 18957
0.13350000 0.13349100 12428.60449289 0 93.92084171 0 3274.49010193 0 399.70113480 0 1645.70866414 0 19468
0.13450000 0.13450700 12098.29839537 0 91.51620893 0 3336.24536898 0 32.14459413 0 1822.83489701 0 19953
0.13550000 0.13551000 11881.57277834 0 109.25091121 0 3158.41612346 0 -167.65423594 0 1416.25192749 0 19956
0.13650000 0.13649900 11785.78730543 0 297.23374639 0 3263.79112823 0 236.36932818 0 1595.46522915 0 19723
0.13750000 0.13749600 11781.28363067 0 111.62522657 0 3399.08810872 0 -163.99197944 0 1295.88298114 0 20946
0.13850000 0.13851100 11577.62965501 0 -78.03484300 0 3383.84152197 0 104.46361479 0 1275.29789212 0 20955
0.13950000 0.13949800 11296.64428838 0 64.05928115 0 3080.74421074 0 35.12470867 0 899.31025261 0 20506
0.14050000 0.14048300 11486.78723976 0 135.14649184 0 3076.99847149 0 418.99993037 0 1242.92635672 0 21447
0.14150000 0.14148400 11574.88351186 0 -59.45180218 0 3148.13456352 0 0.39993840 0 948.41788279 0 21771
0.14250000 0.14249400 11478.87834750 0 222.08828536 0 2890.63421307 0 -108.81010031 0 857.25471802 0 22470
0.14350000 0.14350900 10964.06438433 0 306.72112173 0 3235.48388469 0 -545.72564887 0 765.54671845 0 22519
0.14450000 0.14449900 10602.50717782 0 357.32704761 0 3933.10310476 0 -110.57619989 0 1118.04275105 0 22218
0.14550000 0.14550500 10479.07353572 0 113.73536296 0 3809.16417232 0 354.34363770 0 1124.82023233 0 23559
0.14650000 0.14650700 10185.55477178 0 99.86140841 0 3434.37055585 0 411.95222860 0 1152.51233981 0 23044
0.14750000 0.14750500 10286.76662354 0 -24.80437319 0 3109.12834629 0 514.92820272 0 1443.13117659 0 23649
0.14850000 0.14849900 10289.93018044 0 -94.78653588 0 2903.85963846 0 241.37609636 0 1471.78992646 0 23640
0.14950000 0.14949500 9925.31926275 0 157.50888470 0 2728.83145895 0 -198.36819933 0 1315.05106029 0 24457
0.15050000 0.15050000 9894.90298127 0 414.82579279 0 3013.46370368 0 -531.16449946 0 1171.27398978 0 24591
0.15150000 0.15149900 9452.40045941 0 132.84961771 0 3224.37848181 0 -124.65512657 0 850.63761150 0 25020
0.15250000 0.15250500 9425.26856513 0 -8.18121080 0 2958.03555043 0 306.17189310 0 587.46153239 0 25297
0.15350000 0.15350100 9591.75074717 0 -37.30811216 0 3283.04708397 0 474.97841070 0 811.22057125 0 25452
0.15450000 0.15450400 9495.03158560 0 8.68027288 0 2468.50807334 0 83.07522398 0 522.46801334 0 26061
0.15550000 0.15549900 9480.07059774 0 131.62264096 0 2850.69430717 0 112.46554637 0 618.78184419 0 26128
0.15650000 0.15649500 9457.57419309 0 62.75079887 0 2573.52058722 0 -347.64963917 0 932.96698300 0 26331
0.15750000 0.15749700 9098.75214515 0 122.06166898 0 2941.59164528 0 171.45379959 0 879.53252967 0 27345
0.15850000 0.15849900 9185.46436111 0 111.11334549 0 2720.03281631 0 44.17885246 0 754.08871079 0 26980
0.15950000 0.15949700 9043.32399191 0 224.18084644 0 3097.44076106 0 -106.10547885 0 645.70942542 0 27777
0.16050000 0.16050000 8713.97355220 0 181.15976793 0 3145.44334324 0 -149.37920253 0 1115.52728393 0 28224
0.16150000 0.16150500 8651.95465540 0 6.57120199 0 3332.09320054 0 160.62410949 0 1041.21445350 0 28075
0.16250000 0.16249700 8524.61050547 0 15.32281968 0 2827.58276645 0 342.11780842 0 877.65416776 0 28590
0.16350000 0.16349900 8751.32109898 0 9.44521655 0 3006.32373150 0 144.48447699 0 611.25521506 0 29163
0.16450000 0.16449100 8736.85441689 0 -27.40343291 0 2764.02602950 0 48.56367415 0 682.90208972 0 28996
0.16550000 0.16550500 8663.04907371 0 39.79820492 0 2596.11585302 0 91.10472684 0 777.74179093 0 30777
0.16650000 0.16650700 8450.61842456 0 -32.35121394 0 2649.11641572 0 -71.44036470 0 1158.90536105 0 29211
0.16750000 0.16749900 8682.29404487 0 -17.34189396 0 2409.47698029 0 316.10194672 0 434.92316679 0 30922
0.16850000 0.16850800 8723.71686808 0 140.69150408 0 2364.93453847 0 55.95574227 0 271.33322270 0 30867
0.16950000 0.16949900 8443.92881986 0 188.56336985 0 2468.26641275 0 -180.48751208 0 642.85892884 0 30852
0.17050000 0.17049200 8398.89207228 0 77.03140230 0 2581.11092687 0 -205.93986521 0 560.46914219 0 31257
0.17150000 0.17149500 8150.38808677 0 148.46199072 0 2678.44522452 0 -6.39399887 0 602.14900439 0 32608
0.17250000 0.17250900 7995.61545910 0 203.14209458 0 2771.33077026 0 84.37700567 0 205.30385846 0 32361
0.17350000 0.17350400 7997.13133011 0 50.33746293 0 2470.28757410 0 205.34010755 0 679.94943661 0 32508
0.17450000 0.17449800 7871.62160380 0 -42.52413645 0 2418.62712925 0 525.94792594 0 498.18002491 0 32791
0.17550000 0.17549800 7823.02585470 0 -79.09463456 0 1883.06330847 0 227.63000223 0 825.12704014 0 33633
0.17650000 0.17650100 7822.63041009 0 25.30691739 0 1784.39987755 0 199.97084847 0 842.40577281 0 33984
0.17750000 0.17750300 7782.88822649 0 89.67058104 0 1611.56861255 0 5.79748166 0 697.24025231 0 34069
0.17850000 0.17849800 7793.31258587 0 165.25630374 0 1717.25118536 0 -133.60425785 0 556.63332944 0 34536
