### header ###
fiducial parameters:
Omega_m = 0.31
Omega_nu = 0
Omega_de = 0.69
Omega_k = 0
H_0 = 100
w_de = -1
zeff = 0
beta = 0
fgrowth = 0
b_1 = 2
gamma = 0.55
Lx = 3500 Ly = 3500 Lz = 3500
nx = 700 ny = 700 nz = 700
xoffset = -983.599254 yoffset = -42.9823471 zoffset = 800.977702
bins = 400 dk = 0.001
kx_ny = 0.628318531 ky_ny = 0.628318531 kz_ny = 0.628318531
############################
A(data) = 9.03558569 (not used)
A(ran) = 9.02121561 (used)
Ngal = 500726
weighted Ngal = 0
Nran = 25229228
weighted Nran = 0
SN(data) = 6792.77924
SN(ran) = 133.913731
SN(data+ran) = 6926.69297
############################
13 columns: k_central k_mean P_0(k) sigma^{lin}_{P_0(k)} P^img_1(k) sigma^{lin}_{P_1(k)} P_2(k) sigma^{lin}_{P_2(k)} P^img_3(k) sigma^{lin}_{P_3(k)} P_4(k) sigma^{lin}_{P_4(k)} N_modes
### header ###
0.00050000 0 0 0 0 0 0 0 0 0 0 0 0
0.00150000 0.00179520 57587.06114060 0 -24131.67796678 0 -12025.69037060 0 14691.09690747 0 -59930.83939228 0 3
0.00250000 0.00253879 99838.67034610 0 -34265.16586452 0 28597.01656682 0 -148154.42269087 0 50222.34460771 0 6
0.00350000 0.00331552 102322.94128110 0 14956.92356393 0 -39996.47645456 0 44762.68249760 0 -4901.03068691 0 7
0.00450000 0.00420575 95768.99605044 0 26548.17408895 0 34376.76912194 0 -57073.97175532 0 62827.25149052 0 24
0.00550000 0.00557378 61537.33313230 0 -1514.62975952 0 37104.67787679 0 30216.36225676 0 13420.18185980 0 45
0.00650000 0.00659388 94624.40358746 0 -9191.93427436 0 62418.62539050 0 27204.17276350 0 28513.53381520 0 40
0.00750000 0.00754703 64198.34584013 0 10731.41113706 0 33045.65861654 0 15696.29514438 0 5473.82122416 0 57
0.00850000 0.00846663 88083.42015245 0 6388.28689156 0 28799.24254804 0 23454.03968423 0 9300.07739142 0 75
0.00950000 0.00948925 88574.32070111 0 11412.86106629 0 53509.25826122 0 -19421.71293535 0 -9426.04846978 0 112
0.01050000 0.01054430 82024.65945376 0 -671.08598500 0 47192.57979832 0 7249.35655164 0 22414.13019796 0 105
0.01150000 0.01145670 64623.33895330 0 -10848.53963450 0 38275.30377679 0 25054.93129224 0 6036.61580037 0 144
0.01250000 0.01249090 81806.39599657 0 -1158.50991644 0 49544.70632516 0 17642.65156007 0 15639.28521269 0 169
0.01350000 0.01339930 85808.62501658 0 8537.42950167 0 29372.52739106 0 7534.42817927 0 6032.67233881 0 180
0.01450000 0.01448870 76257.09977420 0 -1218.82620448 0 29767.75231254 0 7987.58573654 0 8409.99747516 0 267
0.01550000 0.01550050 80808.22788610 0 -3103.94362803 0 26806.75092751 0 5235.41206086 0 4939.13616919 0 238
0.01650000 0.01653350 78152.59761884 0 3826.01450666 0 28330.86037317 0 2958.15638073 0 6432.93917910 0 315
0.01750000 0.01747870 88125.16152826 0 5406.35397937 0 23577.28658860 0 -5546.17660376 0 -13515.96733271 0 297
0.01850000 0.01844180 81176.76029621 0 -4394.42219946 0 35831.56591462 0 4058.57987735 0 -6950.80685345 0 388
0.01950000 0.01947590 75071.75454695 0 -1115.08790102 0 25294.61466596 0 -8362.14867699 0 -4999.96873215 0 399
0.02050000 0.02045430 77157.06580579 0 6139.33253858 0 29979.64471763 0 1012.59195272 0 -17092.21462802 0 462
0.02150000 0.02154770 75064.28503759 0 2672.08515699 0 29472.48700155 0 -6125.78856058 0 -18358.29646375 0 571
0.02250000 0.02255340 70704.50818006 0 -958.90265732 0 33657.93869222 0 8412.96330975 0 -28254.18805655 0 510
0.02350000 0.02348930 74436.07733167 0 2784.27059677 0 29165.46819790 0 -1606.46078630 0 -23828.50376353 0 555
0.02450000 0.02439640 70044.77475082 0 4309.92886716 0 33681.11614037 0 -6952.05909472 0 -19712.03518867 0 592
0.02550000 0.02547300 70039.72184743 0 -1174.60231527 0 31703.56353855 0 -2009.04537141 0 -26426.79456192 0 837
0.02650000 0.02652900 63546.63114888 0 2291.77728508 0 37917.64609354 0 26.44546834 0 -21599.51429532 0 723
0.02750000 0.02749970 64905.42277719 0 3058.52242040 0 29751.27545366 0 -1149.24992175 0 -25528.69590767 0 826
0.02850000 0.02848090 63705.57791413 0 369.17830297 0 37684.55346336 0 8769.11610656 0 -23625.50886223 0 831
0.02950000 0.02946900 60786.31790491 0 1007.02497134 0 32141.62829309 0 4007.58949143 0 -19300.44325405 0 996
0.03050000 0.03053250 55253.05915851 0 4355.18530620 0 29454.03291961 0 532.39806696 0 -9919.15691753 0 1041
0.03150000 0.03150510 56514.41762803 0 -1167.64908082 0 26880.78694671 0 7077.15140728 0 1010.95964524 0 1036
0.03250000 0.03246190 56455.32062754 0 -263.87909175 0 20430.75577267 0 12360.71983433 0 -6896.21352772 0 1059
0.03350000 0.03345080 55970.57143952 0 1103.68591468 0 18350.27772576 0 3899.34751322 0 3553.60809122 0 1302
0.03450000 0.03451200 52997.48702466 0 1516.96947348 0 17902.10716444 0 167.07425050 0 1503.05202002 0 1339
0.03550000 0.03553350 50140.50954198 0 2665.57130545 0 17618.04611749 0 -4300.95447136 0 4825.74242644 0 1365
0.03650000 0.03647120 48793.36156060 0 2202.45074085 0 17125.49788294 0 5483.03728056 0 4972.54025441 0 1308
0.03750000 0.03744890 49754.29197002 0 -1488.23383161 0 18552.61355271 0 1123.04073157 0 1566.27921980 0 1579
0.03850000 0.03847530 46104.33819269 0 89.61049543 0 13587.47690022 0 3440.62077765 0 2026.04948977 0 1662
0.03950000 0.03950240 46479.57119207 0 1186.55353024 0 15335.12239791 0 3369.30893245 0 1432.11365029 0 1683
0.04050000 0.04050350 46415.75082537 0 1102.46662713 0 13197.52457358 0 -2229.54968141 0 5115.32871340 0 1822
0.04150000 0.04152450 44008.15220699 0 744.31463811 0 11514.13882549 0 1515.70624764 0 -928.12388494 0 1887
0.04250000 0.04250150 42401.32892979 0 1449.64502813 0 13008.48007946 0 27.82480111 0 5750.32488518 0 1920
0.04350000 0.04349210 41643.28357595 0 660.24201495 0 12979.37096212 0 1258.24983548 0 881.68989973 0 2005
0.04450000 0.04448520 42856.85915474 0 271.55840644 0 12789.11816501 0 1377.98167661 0 2861.94250949 0 2151
0.04550000 0.04548030 42277.53279680 0 -84.49871474 0 13580.22708231 0 -882.16223635 0 -814.44344484 0 2274
0.04650000 0.04648670 39191.96635870 0 1727.71948303 0 12983.10571679 0 -5042.14949086 0 -585.58207203 0 2311
0.04750000 0.04749250 37558.23087868 0 790.79366008 0 15943.55787319 0 1896.58531732 0 580.78950301 0 2568
0.04850000 0.04851840 39242.93477548 0 -273.96842167 0 19667.32797827 0 855.32253170 0 -307.84044968 0 2493
0.04950000 0.04949480 39839.39706664 0 174.30319772 0 13762.02175854 0 2218.74086199 0 -1809.82916307 0 2644
0.05050000 0.05050630 40321.18042006 0 -712.93500962 0 14128.02771695 0 1557.72223776 0 -3706.54629527 0 2829
0.05150000 0.05149060 39308.51267379 0 712.42971928 0 12750.23277807 0 -1699.07171774 0 -4054.04324888 0 2784
0.05250000 0.05249300 36948.03787178 0 2022.94085573 0 15391.91263816 0 -3026.59026791 0 -187.11889855 0 3055
0.05350000 0.05348950 36740.09991282 0 1451.32566774 0 16068.12292626 0 1126.17133476 0 -2408.34556931 0 3009
0.05450000 0.05448610 35040.34715158 0 232.91028627 0 15857.10928698 0 2652.71935553 0 -2631.07974755 0 3336
0.05550000 0.05550870 33933.54161829 0 100.70293652 0 15698.27236745 0 785.83742093 0 -3400.47216486 0 3349
0.05650000 0.05647670 33269.96358865 0 673.27960414 0 12430.36202450 0 3442.74080015 0 914.27892966 0 3324
0.05750000 0.05747970 34196.40244016 0 -440.01451618 0 13012.87390849 0 2400.64538393 0 2233.93252587 0 3639
0.05850000 0.05849280 33511.95372261 0 111.68014943 0 11908.04559826 0 -485.64443068 0 1802.10700855 0 3846
0.05950000 0.05951020 33504.15467608 0 1160.61895437 0 12535.26469265 0 242.38557858 0 709.77474809 0 3787
0.06050000 0.06049470 30101.24393611 0 517.10754192 0 11189.43485999 0 -1130.86174725 0 2722.04299309 0 3930
0.06150000 0.06148310 32135.14739527 0 -449.08887159 0 12218.90900231 0 3364.54162795 0 3597.72213470 0 4083
0.06250000 0.06249100 31372.59836667 0 -155.49980638 0 10110.73884792 0 520.72695859 0 3408.87536289 0 4303
0.06350000 0.06350600 32690.85692216 0 676.54531757 0 10062.23097541 0 885.62567208 0 3112.87408554 0 4470
0.06450000 0.06451750 31545.49553910 0 490.86759494 0 9626.42904281 0 224.38515949 0 582.41961358 0 4479
0.06550000 0.06550280 31126.65378657 0 419.00871803 0 10394.47035770 0 -467.22000709 0 3015.57274161 0 4636
0.06650000 0.06648880 30266.89129063 0 711.82996162 0 10272.91507752 0 -715.25055752 0 966.83132181 0 4653
0.06750000 0.06749660 28572.41112424 0 478.84827562 0 12095.00302359 0 -779.84643504 0 2444.84730400 0 5220
0.06850000 0.06852730 27921.79489024 0 884.46789813 0 11069.81286457 0 654.50037886 0 963.67106027 0 5029
0.06950000 0.06949320 28158.51242937 0 108.07677024 0 12430.58171595 0 1959.47199535 0 3545.18292405 0 5040
0.07050000 0.07048030 27858.85328935 0 93.10073352 0 10589.38061358 0 853.30356726 0 2509.30477591 0 5475
0.07150000 0.07148790 27653.11224490 0 249.80346044 0 9905.12961835 0 1716.86672532 0 4278.76563475 0 5509
0.07250000 0.07249820 27263.05007254 0 124.65183120 0 9834.54275494 0 948.38163370 0 4539.83597129 0 5916
0.07350000 0.07351270 26834.43205041 0 -15.17233103 0 8936.56493099 0 973.97019553 0 4177.54279841 0 5721
0.07450000 0.07449140 26805.32293307 0 -15.11806724 0 8322.95572202 0 456.69678656 0 4446.21445918 0 6028
0.07550000 0.07549160 26789.83468573 0 380.46385284 0 8134.35061080 0 227.59265468 0 3508.15392988 0 6183
0.07650000 0.07648840 25714.77456720 0 499.37734332 0 8622.54895460 0 -1662.35029160 0 3585.29858311 0 6330
0.07750000 0.07749960 25262.32002257 0 1012.55460518 0 8161.99877999 0 -329.84913930 0 1695.67748481 0 6583
0.07850000 0.07848650 25246.72192951 0 -49.61929157 0 9692.85275321 0 -131.56442272 0 946.56588385 0 6549
0.07950000 0.07947320 25153.68259974 0 219.75076832 0 9071.41154400 0 -0.37565920 0 93.25144186 0 6828
0.08050000 0.08048110 24194.07033904 0 172.60278589 0 9223.24030622 0 -91.12889290 0 735.30179631 0 7147
0.08150000 0.08149960 24510.64572083 0 180.00638780 0 8010.41167836 0 1128.00575838 0 73.18284745 0 7386
0.08250000 0.08250610 24007.55229661 0 -228.09355119 0 7806.43915010 0 1333.80172569 0 945.57178003 0 7227
0.08350000 0.08350160 24027.76391016 0 301.36394568 0 7106.23855548 0 1160.24547890 0 999.24789395 0 7798
0.08450000 0.08449610 23855.19627490 0 86.91334348 0 6705.74103916 0 913.60118153 0 2216.76363892 0 7371
0.08550000 0.08548940 23218.85998527 0 568.77238060 0 6180.32696345 0 -267.22609102 0 2199.80345886 0 8256
0.08650000 0.08650700 22465.75768909 0 766.31893391 0 6553.50584776 0 -133.93709040 0 1834.32475993 0 8037
0.08750000 0.08749060 22157.09119955 0 273.70808730 0 7385.32359105 0 -336.09057344 0 1210.53285218 0 8155
0.08850000 0.08849210 20944.06484940 0 354.33704696 0 6759.73021340 0 -592.74071798 0 453.71667202 0 8718
0.08950000 0.08949900 20641.87925768 0 626.94338162 0 6967.98672497 0 462.87670709 0 1819.28688007 0 8571
0.09050000 0.09049190 20321.23958403 0 -194.45769149 0 7144.22320746 0 364.62739455 0 357.62033570 0 8932
0.09150000 0.09150830 20440.75173372 0 101.06773417 0 6630.74936215 0 647.69763306 0 -844.32477764 0 9285
0.09250000 0.09250820 20266.20687540 0 81.73895072 0 6180.04136456 0 668.64631143 0 -274.74283403 0 9204
0.09350000 0.09350330 20473.15622283 0 -72.31001331 0 5248.42877937 0 39.23392743 0 -523.85316795 0 9349
0.09450000 0.09448040 20178.65983193 0 -173.47935478 0 5148.18356999 0 230.00926065 0 252.16184818 0 9564
0.09550000 0.09549270 20328.26971049 0 445.58479293 0 4793.45876762 0 -217.52529391 0 -1441.40659870 0 10155
0.09650000 0.09649430 19838.46761908 0 760.76623247 0 5441.54854992 0 -499.06977529 0 -249.13999226 0 9913
0.09750000 0.09749140 18974.75067701 0 616.70466152 0 6187.10444473 0 -722.79256505 0 -1254.53704994 0 10476
0.09850000 0.09850240 18458.03638279 0 368.85865191 0 6792.71688486 0 -573.44961161 0 -962.45177272 0 10575
0.09950000 0.09950330 17519.40465571 0 219.98803509 0 6593.16015477 0 646.85621480 0 -870.44609123 0 10882
0.10050000 0.10051200 17450.42153990 0 -80.21341328 0 6796.49557783 0 835.03182923 0 -713.33924189 0 10875
0.10150000 0.10150300 17677.58250088 0 -175.92342218 0 5840.01392031 0 497.18701955 0 -899.94625936 0 11118
0.10250000 0.10250800 17466.34917014 0 257.93424107 0 5288.54443843 0 957.43951225 0 -480.21475645 0 11575
0.10350000 0.10349800 17720.42233395 0 480.96939659 0 5455.18040449 0 74.07710150 0 206.37924812 0 11364
0.10450000 0.10450100 16804.19913494 0 212.97438549 0 5096.41327941 0 -683.01193545 0 -813.35487370 0 12093
0.10550000 0.10551000 16573.08372783 0 501.18430551 0 5864.57542460 0 -412.49816186 0 -506.86442799 0 12067
0.10650000 0.10649700 15733.64269116 0 175.72240450 0 6047.10606718 0 -274.19690078 0 -1165.23247486 0 12054
0.10750000 0.10749900 15582.16543526 0 524.47269784 0 6034.53971615 0 -41.05374157 0 -802.79760099 0 12807
0.10850000 0.10850100 15205.50444145 0 39.16801999 0 6244.19126844 0 503.13846097 0 -1145.33941391 0 12736
0.10950000 0.10950300 15447.60442114 0 -221.34462980 0 6143.47372244 0 895.17456103 0 -362.04382308 0 12933
0.11050000 0.11050200 15339.40638122 0 43.21297900 0 4875.45860194 0 857.49857553 0 -967.06968703 0 13428
0.11150000 0.11150900 15283.27521533 0 -248.47213025 0 5161.82640913 0 107.24919255 0 112.88515705 0 13453
0.11250000 0.11250000 15041.72446426 0 318.32412575 0 4451.86052948 0 234.05048491 0 511.55484048 0 13668
0.11350000 0.11349100 15040.29646983 0 344.96061580 0 4814.85671501 0 -151.21801998 0 195.51001355 0 13791
0.11450000 0.11448600 14721.52417352 0 158.65128025 0 4232.30089273 0 369.64295039 0 353.13972855 0 14205
0.11550000 0.11549300 14946.92760289 0 22.77167804 0 4704.34093027 0 261.82387822 0 -605.60145555 0 14776
0.11650000 0.11649800 14550.49437842 0 242.12414575 0 4480.98063140 0 -549.39669303 0 72.48587632 0 14553
0.11750000 0.11747300 14084.96819243 0 334.94707944 0 4630.07423504 0 -474.20509679 0 -639.08133433 0 14568
0.11850000 0.11849100 13885.81789153 0 287.70792505 0 5054.02381382 0 -390.73442821 0 -114.20660113 0 16015
0.11950000 0.11950300 13696.88324313 0 -199.27991886 0 4913.89362140 0 887.84235883 0 -218.86980560 0 15270
0.12050000 0.12050700 13550.89827352 0 -73.68627041 0 4536.03530918 0 884.60520529 0 -1052.86249426 0 15999
0.12150000 0.12150000 13741.59045353 0 392.34916037 0 4056.06441023 0 -309.43431116 0 -603.43200247 0 15670
0.12250000 0.12250700 13329.33944456 0 283.39867723 0 4305.37026954 0 130.82625944 0 364.39012778 0 16887
0.12350000 0.12352200 13388.98567367 0 -293.43967502 0 4224.54578449 0 794.92166245 0 680.95232809 0 16407
0.12450000 0.12449800 13525.52391086 0 -86.97101249 0 3441.27985200 0 337.90412638 0 -297.70278764 0 16306
0.12550000 0.12549900 13504.32368578 0 115.53902978 0 3173.73960221 0 103.00486355 0 27.98956970 0 17523
0.12650000 0.12650100 13156.33242640 0 30.10135378 0 3352.30481409 0 -132.63981238 0 795.90148633 0 17154
0.12750000 0.12750600 12814.82206485 0 360.89593525 0 3460.72254547 0 -299.47020537 0 658.65474421 0 18007
0.12850000 0.12850300 12747.70632637 0 256.28985055 0 3731.83278135 0 368.38521683 0 582.58877600 0 17496
0.12950000 0.12949900 12652.03069919 0 -20.80291309 0 3394.83707913 0 349.38190627 0 567.33230314 0 18405
0.13050000 0.13049000 12634.12584588 0 77.09434390 0 3186.04232350 0 200.79578987 0 331.72420584 0 18100
0.13150000 0.13148800 12504.39804370 0 86.95211902 0 3271.27162216 0 7.72196779 0 1149.83210410 0 19059
0.13250000 0.13249300 12215.39393908 0 58.49735267 0 3166.72046033 0 193.47676916 0 1104.72944908 0 18957
0.13350000 0.13349100 12337.10300328 0 112.23706726 0 3266.31757993 0 -60.77423488 0 164.93884960 0 19468
0.13450000 0.13450700 12292.28594715 0 246.04673662 0 3184.21888445 0 -422.01519555 0 -68.36776005 0 19953
0.13550000 0.13551000 11818.96071462 0 211.93854030 0 3556.24438864 0 -421.06612847 0 68.23913071 0 19956
0.13650000 0.13649900 11597.07234848 0 0.75335165 0 3518.34761323 0 151.28063205 0 56.51024349 0 19723
0.13750000 0.13749600 11671.54775058 0 14.81181736 0 3590.65905453 0 152.73608791 0 -333.81676692 0 20946
0.13850000 0.13851100 11651.66567421 0 241.50132049 0 3555.38759198 0 10.52806473 0 -673.83212814 0 20955
0.13950000 0.13949800 11264.45949072 0 184.84619048 0 3440.45600906 0 -124.91106711 0 -232.60161978 0 20506
0.14050000 0.14048300 11252.92568951 0 6.90929615 0 3526.95951814 0 -18.25009842 0 -567.54540385 0 21447
0.14150000 0.14148400 11285.44002435 0 129.44220330 0 3332.99393549 0 192.75288583 0 -704.94702844 0 21771
0.14250000 0.14249400 11037.29852973 0 112.29858087 0 3467.39018103 0 170.24329969 0 -371.91236309 0 22470
0.14350000 0.14350900 11252.81584378 0 -132.75185502 0 3375.40537023 0 99.27637008 0 -558.66767229 0 22519
0.14450000 0.14449900 10918.48939269 0 70.50414958 0 2646.94147035 0 86.60182100 0 -772.29344293 0 22218
0.14550000 0.14550500 10846.25484340 0 107.53731789 0 3104.81140926 0 397.42293445 0 -186.17532377 0 23559
0.14650000 0.14650700 10820.84752702 0 287.62114693 0 3061.80680761 0 -0.21907851 0 68.17443158 0 23044
0.14750000 0.14750500 10354.13500718 0 77.61468310 0 3080.04119809 0 -177.45137622 0 -61.07180695 0 23649
0.14850000 0.14849900 10394.15180510 0 252.52873290 0 3169.52152634 0 -51.43196574 0 -323.40778594 0 23640
0.14950000 0.14949500 10184.31351507 0 164.20837552 0 3041.43042547 0 499.67502524 0 202.01068360 0 24457
0.15050000 0.15050000 10131.43378267 0 -59.23419780 0 3236.74711054 0 183.79716380 0 101.89344449 0 24591
0.15150000 0.15149900 10016.99650552 0 167.06216748 0 3099.43995327 0 -349.66311132 0 80.68640898 0 25020
0.15250000 0.15250500 9618.30045910 0 50.34042876 0 2850.78218375 0 308.43251814 0 315.29238372 0 25297
0.15350000 0.15350100 9601.26338703 0 160.89872380 0 3107.41475296 0 82.18690159 0 719.61362975 0 25452
0.15450000 0.15450400 9507.18052287 0 258.87232357 0 2856.16462431 0 90.60119403 0 437.97577951 0 26061
0.15550000 0.15549900 9470.16251327 0 19.26562216 0 3118.31144896 0 22.57340650 0 862.68219533 0 26128
0.15650000 0.15649500 9374.05848776 0 51.90836665 0 3018.64842193 0 140.52783395 0 544.18341488 0 26331
0.15750000 0.15749700 9260.47800727 0 44.67096132 0 2995.22931319 0 120.58534243 0 425.64889216 0 27345
0.15850000 0.15849900 9088.21794005 0 166.52172650 0 2772.14362864 0 -197.67067897 0 861.40578800 0 26980
0.15950000 0.15949700 8911.89358097 0 67.00743059 0 3071.13270973 0 155.87328184 0 721.98739588 0 27777
0.16050000 0.16050000 9136.61596684 0 74.57437310 0 2925.98256764 0 128.54915755 0 94.61221071 0 28224
0.16150000 0.16150500 8819.07394266 0 138.88673880 0 2965.68081295 0 -316.88954057 0 515.14789418 0 28075
0.16250000 0.16249700 8684.35914452 0 6.24527874 0 3016.74809088 0 -67.09750408 0 83.08653809 0 28590
0.16350000 0.16349900 8671.34242601 0 25.74223600 0 2871.26841161 0 141.01445051 0 -374.10598223 0 29163
0.16450000 0.16449100 8567.31852367 0 -20.51973081 0 2541.75320331 0 186.22914817 0 47.39766177 0 28996
0.16550000 0.16550500 8826.86200462 0 -29.39537530 0 2420.80207462 0 422.07231532 0 -471.58637469 0 30777
0.16650000 0.16650700 8677.06538833 0 153.92461867 0 2195.16796923 0 -175.06552706 0 -53.58702904 0 29211
0.16750000 0.16749900 8631.66614985 0 157.92300309 0 2341.73512118 0 -51.49963071 0 -426.59246694 0 30922
0.16850000 0.16850800 8446.31247211 0 122.50434726 0 2411.92653998 0 -115.71258603 0 -214.06625201 0 30867
0.16950000 0.16949900 8248.72198052 0 3.16458945 0 2350.23718036 0 245.00100531 0 -290.47274197 0 30852
0.17050000 0.17049200 8319.53951995 0 -19.39018721 0 2428.82081261 0 150.26675600 0 50.98478379 0 31257
0.17150000 0.17149500 8283.02680069 0 128.81827958 0 2246.79546036 0 59.20201300 0 -156.12482856 0 32608
0.17250000 0.17250900 8132.04385056 0 13.81266064 0 2038.18744247 0 350.69895652 0 285.44400464 0 32361
0.17350000 0.17350400 8175.01549850 0 86.36059979 0 2234.10827903 0 42.22491669 0 121.84197753 0 32508
0.17450000 0.17449800 7986.59712501 0 173.40575814 0 2261.10835843 0 -181.45085910 0 488.62454522 0 32791
0.17550000 0.17549800 7866.62362327 0 62.38182707 0 2188.26965765 0 157.16177221 0 262.09849253 0 33633
0.17650000 0.17650100 7935.02455674 0 -69.23180653 0 2007.23291693 0 139.55130545 0 251.43137410 0 33984
0.17750000 0.17750300 7708.94008387 0 99.10094645 0 2018.11862836 0 10.08744057 0 207.56118813 0 34069
0.17850000 0.17849800 7859.70334255 0 53.43357456 0 1779.86324907 0 195.92303348 0 393.29603053 0 34536
