### header ###
fiducial parameters:
Omega_m = 0.31
Omega_nu = 0
Omega_de = 0.69
Omega_k = 0
H_0 = 100
w_de = -1
zeff = 0
beta = 0
fgrowth = 0
b_1 = 2
gamma = 0.55
Lx = 3500 Ly = 3500 Lz = 3500
nx = 700 ny = 700 nz = 700
xoffset = -983.599254 yoffset = -42.9823471 zoffset = 800.977702
bins = 400 dk = 0.001
kx_ny = 0.628318531 ky_ny = 0.628318531 kz_ny = 0.628318531
############################
A(data) = 9.02593003 (not used)
A(ran) = 9.02725512 (used)
Ngal = 501318
weighted Ngal = 0
Nran = 25229228
weighted Nran = 0
SN(data) = 6759.16998
SN(ran) = 134.003383
SN(data+ran) = 6893.17336
############################
13 columns: k_central k_mean P_0(k) sigma^{lin}_{P_0(k)} P^img_1(k) sigma^{lin}_{P_1(k)} P_2(k) sigma^{lin}_{P_2(k)} P^img_3(k) sigma^{lin}_{P_3(k)} P_4(k) sigma^{lin}_{P_4(k)} N_modes
### header ###
0.00050000 0 0 0 0 0 0 0 0 0 0 0 0
0.00150000 0.00179520 109590.44434664 0 -21397.50800555 0 -2772.64891897 0 -3427.17566081 0 -81715.00435269 0 3
0.00250000 0.00253879 107760.19486314 0 -2496.37593398 0 -686.93562478 0 -92321.15840861 0 -10175.38305757 0 6
0.00350000 0.00331552 49411.24376830 0 6923.99351178 0 -12146.19113182 0 7445.54101794 0 24478.79046035 0 7
0.00450000 0.00420575 71598.43269673 0 -15305.46405194 0 -25172.68591031 0 26257.41245272 0 -16138.09465361 0 24
0.00550000 0.00557378 85592.88801108 0 8867.06554027 0 -21847.65578994 0 -3039.31040296 0 12978.71188776 0 45
0.00650000 0.00659388 96649.29969711 0 -1190.92539012 0 2876.02473154 0 -27952.88123065 0 -24301.16992171 0 40
0.00750000 0.00754703 92117.39458722 0 -4364.95059122 0 -13094.92866567 0 2121.25278033 0 -6238.56716728 0 57
0.00850000 0.00846663 74276.80102924 0 7120.61736098 0 7905.99233141 0 -29044.30836233 0 -18511.75094271 0 75
0.00950000 0.00948925 78155.89299061 0 8661.52221812 0 24362.68352816 0 -15352.69771404 0 26249.83309764 0 112
0.01050000 0.01054430 71340.62477824 0 -2347.95238926 0 20074.74577531 0 38170.84049154 0 4005.01910145 0 105
0.01150000 0.01145670 84301.65150415 0 -11386.38824637 0 22913.26917605 0 5524.49305748 0 17750.30037137 0 144
0.01250000 0.01249090 86642.90330414 0 8625.35002061 0 34734.97603382 0 -23765.34247119 0 -17879.80848210 0 169
0.01350000 0.01339930 84937.32871943 0 10313.59094978 0 64251.07178852 0 -12783.51603299 0 10060.87987298 0 180
0.01450000 0.01448870 68137.63325925 0 2828.58236256 0 62242.87222920 0 -4827.51094262 0 7443.44296458 0 267
0.01550000 0.01550050 74407.51744295 0 119.14306805 0 64399.58320982 0 38963.92663191 0 13929.20695322 0 238
0.01650000 0.01653350 78702.59516799 0 272.29107743 0 67737.79481729 0 4400.74931326 0 18483.19105400 0 315
0.01750000 0.01747870 73851.58822461 0 814.77847431 0 59070.30797625 0 30716.81938356 0 30467.46958597 0 297
0.01850000 0.01844180 81103.27350564 0 508.13094921 0 54530.38412838 0 10573.71661308 0 35879.12911389 0 388
0.01950000 0.01947590 76092.22133975 0 -4958.42507865 0 30643.11290154 0 7568.42543141 0 30550.18341751 0 399
0.02050000 0.02045430 78048.13433359 0 1602.19877214 0 43026.13141822 0 15855.79113827 0 25467.62168412 0 462
0.02150000 0.02154770 80546.90490439 0 3307.18018993 0 27493.83594247 0 -7162.41365966 0 12061.60992294 0 571
0.02250000 0.02255340 71258.78971251 0 7252.23450965 0 42545.99575069 0 356.98652586 0 18735.39684046 0 510
0.02350000 0.02348930 64818.09542517 0 5335.15197990 0 31866.24505848 0 -5135.07897490 0 9992.06152576 0 555
0.02450000 0.02439640 62443.34067881 0 -458.14894705 0 35712.49314783 0 9370.26881022 0 1315.44650491 0 592
0.02550000 0.02547300 63260.26334168 0 -1742.23010341 0 31260.00649771 0 9392.82013773 0 3777.04528209 0 837
0.02650000 0.02652900 60014.10245244 0 1556.14045931 0 24859.62559174 0 4302.90972528 0 5990.64536411 0 723
0.02750000 0.02749970 63352.09436846 0 1881.08608541 0 25324.38285766 0 -1168.49489291 0 -3001.00719837 0 826
0.02850000 0.02848090 61635.64505690 0 675.95654448 0 23861.01809837 0 556.64211710 0 1914.35835576 0 831
0.02950000 0.02946900 57391.86528582 0 722.29386546 0 28269.34676672 0 3504.52902092 0 -256.11519585 0 996
0.03050000 0.03053250 59106.11768287 0 2855.84607171 0 26561.79495895 0 -4833.36571981 0 3054.74372744 0 1041
0.03150000 0.03150510 57100.66426669 0 1554.37194312 0 27934.75668589 0 6269.53267738 0 5980.02328243 0 1036
0.03250000 0.03246190 54010.81384529 0 -2021.09544753 0 28309.87983954 0 6307.91277398 0 13105.69354680 0 1059
0.03350000 0.03345080 57181.18118371 0 -601.16808206 0 24091.14489395 0 7598.64399058 0 12179.25469529 0 1302
0.03450000 0.03451200 55789.43583766 0 2638.98863980 0 25074.26413998 0 226.77759940 0 12510.98878725 0 1339
0.03550000 0.03553350 52902.14093465 0 1039.04609887 0 22220.25249190 0 -3361.40004019 0 12117.08201448 0 1365
0.03650000 0.03647120 53014.07372926 0 1901.61625156 0 28268.90738381 0 274.44625057 0 8524.68739748 0 1308
0.03750000 0.03744890 49016.23853828 0 1371.84130054 0 26284.43450127 0 -1440.12140370 0 6184.54503932 0 1579
0.03850000 0.03847530 49689.26330034 0 1078.82563002 0 27277.11032544 0 3601.17129049 0 2207.72333569 0 1662
0.03950000 0.03950240 46603.58701651 0 -329.17029272 0 21225.70929038 0 3990.98081769 0 4312.26858112 0 1683
0.04050000 0.04050350 47822.65488159 0 792.33369715 0 18738.69221224 0 5748.86393703 0 4352.92248424 0 1822
0.04150000 0.04152450 46363.68395133 0 271.27829984 0 18429.25680262 0 2166.98155598 0 4448.76288002 0 1887
0.04250000 0.04250150 45422.41592684 0 1830.30440637 0 14430.65269156 0 2574.66298277 0 4192.95415374 0 1920
0.04350000 0.04349210 41178.19677286 0 2015.32854693 0 14361.99911293 0 -1404.93781773 0 4267.66023187 0 2005
0.04450000 0.04448520 39468.44805057 0 2223.39832076 0 16941.28660075 0 -3206.56150508 0 2719.12109679 0 2151
0.04550000 0.04548030 37192.33476599 0 1998.88464177 0 16172.69605724 0 -679.62978555 0 -1300.47453248 0 2274
0.04650000 0.04648670 36427.80851433 0 -227.83541374 0 18638.29321885 0 2789.25759272 0 -1020.66561357 0 2311
0.04750000 0.04749250 35087.03158505 0 -271.24644458 0 16530.57343194 0 2452.60241224 0 2431.58892490 0 2568
0.04850000 0.04851840 35347.14626378 0 1041.47368941 0 14318.28051406 0 2899.99306891 0 1552.85607211 0 2493
0.04950000 0.04949480 35730.72753832 0 -1678.03626124 0 10121.22911474 0 4825.78636473 0 7649.73323766 0 2644
0.05050000 0.05050630 38772.35568609 0 -2090.60582283 0 7595.80997085 0 5755.32286570 0 1522.02237687 0 2829
0.05150000 0.05149060 37606.45315231 0 1706.06889047 0 9474.81997205 0 -5007.89959355 0 4769.28172337 0 2784
0.05250000 0.05249300 35474.67715145 0 3804.40785239 0 12914.12260098 0 -4003.41535385 0 5566.14655671 0 3055
0.05350000 0.05348950 32145.36304777 0 846.99512723 0 13152.92720890 0 -1313.61208129 0 5902.07675539 0 3009
0.05450000 0.05448610 32235.98577156 0 77.69926431 0 17878.71002485 0 951.84177406 0 1616.34690163 0 3336
0.05550000 0.05550870 33256.34271865 0 161.45564163 0 15236.70062758 0 -411.54689788 0 997.67490316 0 3349
0.05650000 0.05647670 32377.13752923 0 -653.02624922 0 14067.94210493 0 4000.74610271 0 5032.62586643 0 3324
0.05750000 0.05747970 33379.36993156 0 -1617.40142059 0 14051.68493751 0 1618.12640239 0 1683.47362467 0 3639
0.05850000 0.05849280 34085.45825709 0 349.38739855 0 10494.50686020 0 116.20799025 0 1029.96515272 0 3846
0.05950000 0.05951020 34791.87611979 0 757.29181216 0 13184.45293221 0 -32.23301994 0 1991.18445639 0 3787
0.06050000 0.06049470 33939.03390458 0 374.10598223 0 12445.96011757 0 -2524.27674834 0 -999.93003591 0 3930
0.06150000 0.06148310 32446.45018222 0 796.23322042 0 12292.72533006 0 -1103.32342379 0 -3508.45051334 0 4083
0.06250000 0.06249100 31298.45250175 0 651.90142898 0 13399.86040053 0 215.20645064 0 -1210.29119158 0 4303
0.06350000 0.06350600 30697.37669010 0 190.95361284 0 12455.84623289 0 2140.32199833 0 -2308.89124916 0 4470
0.06450000 0.06451750 31760.79316170 0 511.41204104 0 13030.44922462 0 1113.82467518 0 -3018.87909796 0 4479
0.06550000 0.06550280 30714.07324042 0 164.24572307 0 9946.88197873 0 1617.17074457 0 -3476.06799337 0 4636
0.06650000 0.06648880 29896.93088609 0 26.22599658 0 10759.46573543 0 1066.46798586 0 2744.70416633 0 4653
0.06750000 0.06749660 28939.51553990 0 333.48063900 0 9131.49715602 0 357.73018143 0 439.16431026 0 5220
0.06850000 0.06852730 29796.86142988 0 501.22934226 0 8570.52601886 0 1759.47588236 0 -1649.54227997 0 5029
0.06950000 0.06949320 29276.52222670 0 23.14119906 0 8396.87091092 0 495.81944026 0 -267.56221894 0 5040
0.07050000 0.07048030 27949.14647597 0 634.56777345 0 8546.66752721 0 -1208.52267540 0 193.54267660 0 5475
0.07150000 0.07148790 26858.26857292 0 1283.52533698 0 10228.93284890 0 -661.66122172 0 1.52275834 0 5509
0.07250000 0.07249820 26423.27949870 0 1.15582968 0 9798.97470892 0 79.23358941 0 212.37243092 0 5916
0.07350000 0.07351270 27641.13906079 0 -261.96887458 0 8427.17734667 0 1522.14320717 0 -2570.03847771 0 5721
0.07450000 0.07449140 26936.14919252 0 -557.16717967 0 9646.72853294 0 151.20483850 0 -1585.22760750 0 6028
0.07550000 0.07549160 26768.41476920 0 426.71769107 0 7404.16213303 0 -201.10445636 0 -2491.42189175 0 6183
0.07650000 0.07648840 26090.88633238 0 797.60299662 0 8175.67457285 0 -1112.33077330 0 -2315.61380758 0 6330
0.07750000 0.07749960 25274.62274386 0 855.42358977 0 9004.36171296 0 -282.63854480 0 -2580.01246962 0 6583
0.07850000 0.07848650 24538.98591809 0 728.40018936 0 8632.69869967 0 216.56304536 0 -3239.54817654 0 6549
0.07950000 0.07947320 24211.31611799 0 115.17104660 0 8801.42173452 0 1120.74495590 0 -3059.24740219 0 6828
0.08050000 0.08048110 24051.49058693 0 -267.16677432 0 7975.66747529 0 1029.82015636 0 -2220.01507241 0 7147
0.08150000 0.08149960 23904.18746862 0 471.90492730 0 7674.14095793 0 237.25907856 0 -2483.95238239 0 7386
0.08250000 0.08250610 22985.54766364 0 566.96651687 0 7926.73120444 0 -504.83118361 0 -2028.30132715 0 7227
0.08350000 0.08350160 23165.80449970 0 282.15522361 0 7946.69017282 0 -392.37991718 0 -3318.26362366 0 7798
0.08450000 0.08449610 21681.67889823 0 535.87468418 0 7872.20378615 0 -375.14292588 0 -2474.65943399 0 7371
0.08550000 0.08548940 21612.25639952 0 539.38645203 0 8187.69169525 0 -122.95141936 0 -1664.93166615 0 8256
0.08650000 0.08650700 20532.47291477 0 87.75684881 0 8055.93174714 0 1651.87100935 0 -1947.00450547 0 8037
0.08750000 0.08749060 21018.10086859 0 265.73438606 0 8217.16330349 0 1078.79926704 0 -1488.09103217 0 8155
0.08850000 0.08849210 20244.34757596 0 522.71077240 0 7014.36359041 0 288.88547123 0 -1545.71609993 0 8718
0.08950000 0.08949900 19734.00433383 0 234.71615000 0 6950.51026999 0 -487.25257211 0 -503.06376588 0 8571
0.09050000 0.09049190 19389.85767486 0 -39.17867503 0 6690.94481989 0 401.69813010 0 -1799.89910946 0 8932
0.09150000 0.09150830 19154.45828444 0 372.53848372 0 6443.38550763 0 408.76230873 0 -1322.25693991 0 9285
0.09250000 0.09250820 18800.86489305 0 274.48140121 0 6443.40747677 0 -275.37115158 0 -856.90101478 0 9204
0.09350000 0.09350330 18590.07094521 0 192.33766898 0 6522.24375419 0 726.09013374 0 -1156.10429504 0 9349
0.09450000 0.09448040 18322.59660286 0 74.45244434 0 6734.18009757 0 517.04492986 0 -439.34445725 0 9564
0.09550000 0.09549270 17786.65930661 0 638.76717555 0 7068.61639438 0 -392.33378197 0 -64.15275986 0 10155
0.09650000 0.09649430 17271.48285255 0 446.76563449 0 7132.39282279 0 -240.60388091 0 408.19440632 0 9913
0.09750000 0.09749140 16666.01321187 0 293.55501304 0 7355.57736850 0 438.53818962 0 1061.05478849 0 10476
0.09850000 0.09850240 16820.12676518 0 187.79005594 0 7376.61282499 0 1096.52287490 0 1587.36959916 0 10575
0.09950000 0.09950330 16906.13596849 0 43.80977083 0 6948.57698522 0 485.51151735 0 2098.28403906 0 10882
0.10050000 0.10051200 16528.26667170 0 50.27847577 0 6669.10748960 0 403.45126788 0 2159.39121633 0 10875
0.10150000 0.10150300 16214.32758732 0 18.92180504 0 6181.50231272 0 -434.80343494 0 2016.71260307 0 11118
0.10250000 0.10250800 16069.99030360 0 76.47173832 0 6190.41080108 0 615.64135489 0 1756.77367751 0 11575
0.10350000 0.10349800 15693.54900124 0 315.75373577 0 6048.66587649 0 15.63686861 0 1647.23551973 0 11364
0.10450000 0.10450100 15454.85423905 0 178.46854764 0 5207.31352419 0 441.06134594 0 815.65504320 0 12093
0.10550000 0.10551000 15701.01851059 0 -102.69114415 0 5583.54611968 0 840.81300978 0 1054.99020597 0 12067
0.10650000 0.10649700 15316.33877880 0 110.60695669 0 4857.94919324 0 123.98836301 0 431.33340847 0 12054
0.10750000 0.10749900 15146.73697814 0 270.13260892 0 4337.92854267 0 -438.01422551 0 519.13090019 0 12807
0.10850000 0.10850100 14937.81040764 0 134.16886488 0 4204.00463376 0 536.95227075 0 -116.02454789 0 12736
0.10950000 0.10950300 14936.27256748 0 -256.60730470 0 4196.31543295 0 276.35317237 0 -23.99546927 0 12933
0.11050000 0.11050200 14651.99182908 0 301.04209771 0 4216.75772253 0 -273.56089402 0 -543.17722803 0 13428
0.11150000 0.11150900 14573.34228939 0 431.02364352 0 4354.69100043 0 -687.89238105 0 -796.64184652 0 13453
0.11250000 0.11250000 14362.21880438 0 396.97805926 0 4920.06695119 0 -738.32804605 0 -1022.50772639 0 13668
0.11350000 0.11349100 13969.08095169 0 -37.35809197 0 5222.69192581 0 579.07261431 0 -193.81070017 0 13791
0.11450000 0.11448600 14060.91197847 0 -341.94644909 0 4926.52587987 0 1092.84743692 0 -770.37553656 0 14205
0.11550000 0.11549300 14458.22396874 0 100.75203756 0 4441.17254036 0 136.72497492 0 -85.01487980 0 14776
0.11650000 0.11649800 14142.96673566 0 377.19374558 0 4761.18609338 0 -673.14010007 0 -275.46012662 0 14553
0.11750000 0.11747300 14050.25694307 0 56.51969022 0 5051.20077867 0 185.57556610 0 685.39009541 0 14568
0.11850000 0.11849100 13789.70288144 0 -4.30208588 0 5069.34729257 0 21.16880920 0 -17.57817212 0 16015
0.11950000 0.11950300 13960.62283081 0 153.74117631 0 4953.17445295 0 -130.35392282 0 -448.08927548 0 15270
0.12050000 0.12050700 13772.34725676 0 215.71174098 0 5129.55373489 0 122.22094528 0 -453.11581589 0 15999
0.12150000 0.12150000 13461.81338989 0 76.22216883 0 5138.28647009 0 278.79064903 0 80.87666177 0 15670
0.12250000 0.12250700 13313.85119722 0 -69.25004092 0 4375.97910209 0 575.29831517 0 -446.54704149 0 16887
0.12350000 0.12352200 13120.41287406 0 309.78691594 0 4150.67453388 0 273.76191170 0 -317.79686627 0 16407
0.12450000 0.12449800 13081.63733285 0 375.23849166 0 4118.08330703 0 397.78322843 0 -97.95415707 0 16306
0.12550000 0.12549900 12528.78379483 0 67.56588626 0 4140.18426706 0 -229.04701209 0 452.01626018 0 17523
0.12650000 0.12650100 12448.04718636 0 76.07255895 0 3961.28951800 0 312.09807001 0 508.71203310 0 17154
0.12750000 0.12750600 12441.01705990 0 -188.91817154 0 3524.23534414 0 460.15143463 0 255.56706568 0 18007
0.12850000 0.12850300 12511.97739878 0 -53.08690145 0 3409.69920583 0 -112.57868747 0 186.61031284 0 17496
0.12950000 0.12949900 12609.19086612 0 358.34971132 0 3529.37612410 0 -274.12879643 0 -124.30252179 0 18405
0.13050000 0.13049000 12252.63164013 0 196.09439281 0 3872.16069608 0 -50.08031408 0 285.93611349 0 18100
0.13150000 0.13148800 12159.48246464 0 -98.88762605 0 3686.75209548 0 344.82330864 0 136.36358248 0 19059
0.13250000 0.13249300 12525.92780596 0 -52.61390575 0 3558.65001003 0 608.37176476 0 167.67181125 0 18957
0.13350000 0.13349100 12203.64044642 0 80.18935707 0 3433.18422201 0 2.31729445 0 495.50637994 0 19468
0.13450000 0.13450700 11918.48094221 0 195.38588788 0 3699.13170878 0 -107.01060763 0 761.48791889 0 19953
0.13550000 0.13551000 11752.94343341 0 190.74380750 0 3396.47378044 0 -92.11893243 0 950.23253418 0 19956
0.13650000 0.13649900 11802.04447285 0 86.82799335 0 3503.99077687 0 327.57533278 0 662.18298892 0 19723
0.13750000 0.13749600 11693.40705002 0 10.99918206 0 3364.06929133 0 240.89936591 0 616.17300821 0 20946
0.13850000 0.13851100 11632.44267219 0 303.82448994 0 3578.40027153 0 13.06131587 0 925.79295864 0 20955
0.13950000 0.13949800 11405.61124839 0 126.45769493 0 3350.40448304 0 -28.11248707 0 984.14630357 0 20506
0.14050000 0.14048300 11231.94515588 0 -143.22674343 0 3039.49714069 0 123.43144518 0 707.86892474 0 21447
0.14150000 0.14148400 10978.70681958 0 80.62149015 0 3376.84434924 0 317.12900425 0 849.09977134 0 21771
0.14250000 0.14249400 11025.98441997 0 124.55516696 0 2768.87022601 0 188.92695920 0 1073.36849436 0 22470
0.14350000 0.14350900 11081.12697433 0 -89.17671466 0 2600.88315752 0 319.57636702 0 628.14729078 0 22519
0.14450000 0.14449900 11073.98700216 0 166.71175961 0 2520.60790110 0 110.80797437 0 394.83606761 0 22218
0.14550000 0.14550500 10802.45935252 0 328.85613394 0 2603.76111554 0 -125.03629124 0 836.15774792 0 23559
0.14650000 0.14650700 10759.97102577 0 69.81453811 0 2617.25017067 0 -256.38651479 0 613.49277250 0 23044
0.14750000 0.14750500 10349.34573354 0 82.27280095 0 2509.52446736 0 197.49382735 0 486.96148093 0 23649
0.14850000 0.14849900 10331.50678766 0 158.37886285 0 2581.05600401 0 100.49499856 0 385.65516184 0 23640
0.14950000 0.14949500 9920.40915881 0 227.67174361 0 2675.12788360 0 -224.45875613 0 1011.25732715 0 24457
0.15050000 0.15050000 9887.57627136 0 197.08080743 0 3249.33543071 0 -195.89667050 0 355.50360857 0 24591
0.15150000 0.15149900 9563.64122594 0 197.41583689 0 3116.88345453 0 -84.29330323 0 491.02577279 0 25020
0.15250000 0.15250500 9511.71715135 0 46.52142241 0 3449.01299110 0 32.96876661 0 393.65961988 0 25297
0.15350000 0.15350100 9699.00411386 0 -98.44714469 0 3132.25087157 0 55.13783099 0 639.76567320 0 25452
0.15450000 0.15450400 9517.73669712 0 -13.77761985 0 3042.15540726 0 424.44058917 0 509.88628391 0 26061
0.15550000 0.15549900 9664.13908049 0 112.45456180 0 2980.40014021 0 -35.30957903 0 964.08627712 0 26128
0.15650000 0.15649500 9422.80802087 0 160.79656727 0 2801.09896196 0 6.15964301 0 492.59436975 0 26331
0.15750000 0.15749700 9353.69309019 0 61.98440524 0 3075.59244620 0 260.98355842 0 732.05475665 0 27345
0.15850000 0.15849900 9390.46943919 0 96.87986588 0 3000.40304688 0 49.70848630 0 589.73094509 0 26980
0.15950000 0.15949700 9138.58220533 0 175.29730154 0 3194.77505870 0 -327.36772436 0 967.35748283 0 27777
0.16050000 0.16050000 8929.45791253 0 77.13619512 0 2934.96794801 0 135.50568736 0 569.32160923 0 28224
0.16150000 0.16150500 8852.33522843 0 36.01237198 0 2921.34707801 0 305.15362322 0 1007.22269365 0 28075
0.16250000 0.16249700 8799.46648060 0 -198.08809273 0 2518.26818714 0 481.17370964 0 602.62683330 0 28590
0.16350000 0.16349900 9151.97239931 0 106.79509032 0 2270.23653825 0 441.13274567 0 468.27452606 0 29163
0.16450000 0.16449100 9019.28974710 0 200.98252761 0 2155.60153879 0 -268.60026105 0 604.19433181 0 28996
0.16550000 0.16550500 8682.16223000 0 164.23913232 0 2355.49879063 0 -397.18676614 0 673.65417807 0 30777
0.16650000 0.16650700 8538.39614406 0 119.61760158 0 2301.48764724 0 -56.82451211 0 228.94595403 0 29211
0.16750000 0.16749900 8321.13228297 0 13.93601739 0 2546.75118384 0 58.35092832 0 136.79967001 0 30922
0.16850000 0.16850800 8333.46795798 0 10.56822433 0 2255.19865839 0 281.88610158 0 290.55512626 0 30867
0.16950000 0.16949900 8238.00103768 0 93.26066890 0 2201.74772820 0 145.18309581 0 -74.71772177 0 30852
0.17050000 0.17049200 8218.21782246 0 229.80604606 0 2264.43668393 0 14.20272281 0 422.07011841 0 31257
0.17150000 0.17149500 8012.56465459 0 32.37570953 0 2207.96499629 0 -103.97271424 0 419.96876967 0 32608
0.17250000 0.17250900 7975.96405875 0 51.98602758 0 2271.28007264 0 77.91214533 0 224.60594940 0 32361
0.17350000 0.17350400 7860.24158660 0 166.72603955 0 2463.70781512 0 -142.84997259 0 275.37444696 0 32508
0.17450000 0.17449800 7609.63954773 0 125.23730891 0 2551.89196381 0 -377.72649735 0 207.47001617 0 32791
0.17550000 0.17549800 7682.36840279 0 71.17036390 0 2811.49036762 0 58.82502247 0 147.97427570 0 33633
0.17650000 0.17650100 7572.32495467 0 70.53303900 0 2687.66128091 0 40.77857802 0 157.04753265 0 33984
0.17750000 0.17750300 7744.65092933 0 -39.52930258 0 2554.74795268 0 264.91274003 0 193.23401011 0 34069
0.17850000 0.17849800 7763.08304212 0 2.95591553 0 2539.05099846 0 -185.62609514 0 -164.18201254 0 34536
