### header ###
fiducial parameters:
Omega_m = 0.31
Omega_nu = 0
Omega_de = 0.69
Omega_k = 0
H_0 = 100
w_de = -1
zeff = 0
beta = 0
fgrowth = 0
b_1 = 2
gamma = 0.55
Lx = 3500 Ly = 3500 Lz = 3500
nx = 700 ny = 700 nz = 700
xoffset = -983.599254 yoffset = -42.9823471 zoffset = 800.977702
bins = 400 dk = 0.001
kx_ny = 0.628318531 ky_ny = 0.628318531 kz_ny = 0.628318531
############################
A(data) = 9.03482698 (not used)
A(ran) = 9.02423537 (used)
Ngal = 501595
weighted Ngal = 0
Nran = 25229228
weighted Nran = 0
SN(data) = 6738.70445
SN(ran) = 133.958557
SN(data+ran) = 6872.66301
############################
13 columns: k_central k_mean P_0(k) sigma^{lin}_{P_0(k)} P^img_1(k) sigma^{lin}_{P_1(k)} P_2(k) sigma^{lin}_{P_2(k)} P^img_3(k) sigma^{lin}_{P_3(k)} P_4(k) sigma^{lin}_{P_4(k)} N_modes
### header ###
0.00050000 0 0 0 0 0 0 0 0 0 0 0 0
0.00150000 0.00179520 7264.02095603 0 6982.93672825 0 7265.72356478 0 -9356.59301735 0 -13506.52060029 0 3
0.00250000 0.00253879 32023.87367502 0 1182.14871663 0 24372.89918066 0 -66537.40072560 0 -8276.60082573 0 6
0.00350000 0.00331552 50147.97905133 0 -4525.19353604 0 -2502.71403236 0 3185.15257312 0 9756.01404556 0 7
0.00450000 0.00420575 59812.64539130 0 -1448.87610805 0 -1319.58768877 0 -2551.30978146 0 39472.73203388 0 24
0.00550000 0.00557378 60825.42298330 0 -17368.91601135 0 -6753.86445164 0 39306.86498790 0 30950.35139664 0 45
0.00650000 0.00659388 87903.60269930 0 -7415.41033535 0 8956.41405364 0 23543.89348795 0 19995.43716127 0 40
0.00750000 0.00754703 107070.91293366 0 -10878.39570277 0 -20960.21217109 0 7090.92606130 0 9545.91212579 0 57
0.00850000 0.00846663 105207.81957814 0 8883.83898260 0 4139.97556018 0 -7667.72596754 0 425.26882594 0 75
0.00950000 0.00948925 83637.74393733 0 18138.60501212 0 16830.45226341 0 -54669.77835444 0 33576.21347221 0 112
0.01050000 0.01054430 67260.84467581 0 12216.05301344 0 44711.27469792 0 24808.32763779 0 50033.84934221 0 105
0.01150000 0.01145670 58190.22402104 0 -10468.85788322 0 34826.80706060 0 16507.39598379 0 24830.18693722 0 144
0.01250000 0.01249090 73592.02277452 0 2356.54232502 0 32157.44607761 0 22430.71690255 0 -2905.57323178 0 169
0.01350000 0.01339930 69318.14527457 0 269.49989754 0 29125.92373661 0 2856.48317692 0 19918.10577030 0 180
0.01450000 0.01448870 71273.06965687 0 2579.52914842 0 24619.61268084 0 2833.17391390 0 10636.92184372 0 267
0.01550000 0.01550050 81261.23165936 0 -3214.14086016 0 36335.53810465 0 4981.19609761 0 18703.21204280 0 238
0.01650000 0.01653350 75946.12652442 0 3151.66061132 0 29513.45945728 0 -1689.19658699 0 6217.00445130 0 315
0.01750000 0.01747870 77353.46996354 0 -463.11397386 0 36688.14288451 0 -8091.65357718 0 15340.61468420 0 297
0.01850000 0.01844180 71831.52532690 0 68.42158446 0 32882.42786798 0 17210.40862900 0 824.55474390 0 388
0.01950000 0.01947590 77394.99164790 0 1197.52711825 0 37020.20651364 0 7772.17826822 0 9365.49052114 0 399
0.02050000 0.02045430 73819.29358122 0 -1710.38582750 0 26770.06245509 0 7206.89019404 0 24343.89990905 0 462
0.02150000 0.02154770 76699.99774068 0 2902.96988808 0 29648.24016285 0 -7037.71679171 0 12222.09452836 0 571
0.02250000 0.02255340 65816.70291854 0 4873.36054858 0 37523.95901222 0 5182.10393012 0 12281.74075747 0 510
0.02350000 0.02348930 75058.24352267 0 4607.50093839 0 39775.13731704 0 4521.07432132 0 -1346.59875275 0 555
0.02450000 0.02439640 67695.50421285 0 -536.12403398 0 37767.15744917 0 -2198.74893989 0 18348.08081125 0 592
0.02550000 0.02547300 65716.41377087 0 -1118.07570476 0 31479.25856644 0 8173.23599774 0 6164.05881146 0 837
0.02650000 0.02652900 64682.98518242 0 -138.15846164 0 28043.72364590 0 2807.30524547 0 11017.19676191 0 723
0.02750000 0.02749970 63655.26857171 0 2737.00398095 0 27206.91890665 0 7772.11236078 0 9055.11043829 0 826
0.02850000 0.02848090 63840.02908252 0 3091.17955469 0 25357.88580403 0 -71.86590704 0 9325.07827862 0 831
0.02950000 0.02946900 61297.10052994 0 480.90458761 0 28257.26373688 0 4935.07187734 0 5803.88566109 0 996
0.03050000 0.03053250 61969.90560055 0 -474.78068840 0 19987.74796046 0 1724.78660215 0 5553.25066850 0 1041
0.03150000 0.03150510 62663.69120479 0 -1160.61895437 0 24171.55196525 0 5115.02114537 0 7847.85098873 0 1036
0.03250000 0.03246190 59297.46893724 0 -1081.29825731 0 21610.82840508 0 -2446.39612874 0 2785.54480719 0 1059
0.03350000 0.03345080 60313.32220956 0 3374.54857357 0 18143.65791551 0 2.80676700 0 -4681.05363639 0 1302
0.03450000 0.03451200 55966.72683912 0 4677.07722112 0 22020.55296237 0 -6080.31243010 0 -1338.43721532 0 1339
0.03550000 0.03553350 53423.46874936 0 2487.65418335 0 28524.40854205 0 1481.65407263 0 -4106.51655210 0 1365
0.03650000 0.03647120 51847.29242967 0 60.33397321 0 26297.61598836 0 3456.50446960 0 695.42669938 0 1308
0.03750000 0.03744890 50290.66864916 0 -551.65841652 0 22750.14827322 0 1880.80048652 0 -4610.15920495 0 1579
0.03850000 0.03847530 48196.13034935 0 2186.57803347 0 23160.75159631 0 2059.95886532 0 895.00649707 0 1662
0.03950000 0.03950240 46329.52193061 0 1228.62444322 0 21969.80423704 0 1053.75114619 0 1186.34482336 0 1683
0.04050000 0.04050350 45744.04421202 0 1185.99331704 0 21167.38120997 0 3135.96365710 0 -1190.71668325 0 1822
0.04150000 0.04152450 44118.54716143 0 928.10740809 0 19318.23826163 0 1720.55754171 0 -2768.47478139 0 1887
0.04250000 0.04250150 42328.39136785 0 861.42885560 0 19040.43842105 0 1338.42623075 0 3958.07103824 0 1920
0.04350000 0.04349210 42592.89987561 0 342.24413100 0 14392.42637898 0 3522.11532163 0 -2648.06189676 0 2005
0.04450000 0.04448520 39777.11454011 0 809.70250332 0 14797.42757005 0 964.35979298 0 936.23049951 0 2151
0.04550000 0.04548030 39093.87412555 0 1359.16510378 0 14033.88992992 0 1882.70081758 0 -75.02177474 0 2274
0.04650000 0.04648670 36817.76084097 0 925.59413788 0 15368.62534428 0 107.32267934 0 3587.01217644 0 2311
0.04750000 0.04749250 37249.56438914 0 235.06655787 0 14438.89112100 0 -450.74424667 0 -221.52697371 0 2568
0.04850000 0.04851840 36360.80262158 0 781.80388587 0 14539.18026867 0 -1187.76183322 0 -1612.78790011 0 2493
0.04950000 0.04949480 34810.11051028 0 694.58637958 0 14905.29607280 0 730.01821690 0 614.09582553 0 2644
0.05050000 0.05050630 37123.79103308 0 -1129.33489166 0 15055.01579709 0 1327.47461188 0 -3395.02381686 0 2829
0.05150000 0.05149060 36006.55015584 0 -1065.79353311 0 12688.60932589 0 711.20274252 0 -3415.21346127 0 2784
0.05250000 0.05249300 37761.88485434 0 359.76562273 0 14699.11564545 0 894.22110013 0 -3870.85353194 0 3055
0.05350000 0.05348950 36433.08110917 0 1134.84914710 0 14260.72135373 0 -1276.61604083 0 -1612.62313152 0 3009
0.05450000 0.05448610 36021.48917455 0 1269.03668575 0 15002.18000297 0 -857.56667988 0 -3401.19714665 0 3336
0.05550000 0.05550870 35175.67708578 0 1078.25113687 0 17786.00023226 0 15.25812054 0 -1260.78727174 0 3349
0.05650000 0.05647670 34799.67516632 0 121.01154384 0 14844.33169498 0 2538.41389325 0 -980.60927120 0 3324
0.05750000 0.05747970 34288.89254129 0 -1587.69913633 0 13937.55522839 0 4368.82814534 0 2819.94848851 0 3639
0.05850000 0.05849280 34136.97590249 0 -82.09748717 0 11599.37910872 0 2579.34241069 0 2591.77694685 0 3846
0.05950000 0.05951020 35381.19843878 0 1691.21774834 0 11589.38314767 0 -976.23191902 0 2911.05453350 0 3787
0.06050000 0.06049470 32411.73893287 0 992.77029150 0 10914.42510084 0 -1143.79058918 0 4826.12688648 0 3930
0.06150000 0.06148310 32407.01556666 0 58.40497242 0 12676.41645032 0 1906.04303431 0 2073.83238049 0 4083
0.06250000 0.06249100 31663.14031145 0 -304.15842095 0 10534.16116722 0 237.08222694 0 3040.96907342 0 4303
0.06350000 0.06350600 32796.96789329 0 -224.83223159 0 10757.10405233 0 1751.55600553 0 2620.96295620 0 4470
0.06450000 0.06451750 31581.30524572 0 1511.00485057 0 11026.31395715 0 -2280.21053015 0 2469.38683915 0 4479
0.06550000 0.06550280 30098.93717586 0 1007.96085692 0 10717.52663732 0 -503.35266014 0 2634.22133530 0 4636
0.06650000 0.06648880 30214.38503369 0 -375.79760641 0 12748.91462936 0 1992.06322220 0 2426.18451519 0 4653
0.06750000 0.06749660 30010.07198368 0 136.76561784 0 10210.09430692 0 2970.18448770 0 3385.91760619 0 5220
0.06850000 0.06852730 30306.98498056 0 511.28791537 0 10983.00178746 0 570.16522441 0 5403.27829904 0 5029
0.06950000 0.06949320 29724.80263374 0 -120.36015869 0 9750.44486726 0 -649.35081123 0 3125.97868063 0 5040
0.07050000 0.07048030 28383.91585874 0 1075.49950144 0 10104.17007352 0 -271.16625720 0 3319.41700378 0 5475
0.07150000 0.07148790 27256.89871189 0 1163.23328265 0 11289.06493330 0 -2063.61672799 0 3555.04707023 0 5509
0.07250000 0.07249820 26074.73901069 0 323.53630544 0 11386.71778355 0 679.20797796 0 1844.29875183 0 5916
0.07350000 0.07351270 26116.26069505 0 75.25750367 0 11266.32686805 0 756.98753950 0 60.79027235 0 5721
0.07450000 0.07449140 25955.55639818 0 416.36912524 0 10527.63633110 0 691.28222015 0 1668.74331284 0 6028
0.07550000 0.07549160 25426.09999976 0 51.15109022 0 9335.77725231 0 1405.82756811 0 211.62218461 0 6183
0.07650000 0.07648840 25191.79906660 0 271.55511107 0 9199.57953687 0 222.32225676 0 1038.89780714 0 6330
0.07750000 0.07749960 24724.29565754 0 192.37611499 0 7955.19223200 0 642.70075099 0 1382.63913539 0 6583
0.07850000 0.07848650 24375.75516953 0 -167.16322554 0 9011.72137659 0 392.05587229 0 949.81731734 0 6549
0.07950000 0.07947320 24461.98406430 0 779.27743418 0 7908.61764425 0 -320.33979482 0 881.10332355 0 6828
0.08050000 0.08048110 23738.43026836 0 476.75461609 0 9408.31936964 0 -674.03094891 0 -385.08286561 0 7147
0.08150000 0.08149960 23393.62453504 0 253.17792114 0 8938.94858324 0 -168.37592236 0 182.70310037 0 7386
0.08250000 0.08250610 23605.95632303 0 -251.67413315 0 8654.33830765 0 1147.32762155 0 -762.98621459 0 7227
0.08350000 0.08350160 23083.42020534 0 83.70376122 0 8335.36828904 0 -383.60763751 0 -1220.42995208 0 7798
0.08450000 0.08449610 22858.01677597 0 970.72095896 0 8883.43255341 0 32.29881753 0 -1732.35497266 0 7371
0.08550000 0.08548940 21979.03127801 0 441.33046797 0 9453.44399380 0 66.67382912 0 646.45637636 0 8256
0.08650000 0.08650700 21560.84859984 0 21.57018549 0 8817.28345733 0 1104.89421767 0 -665.93092509 0 8037
0.08750000 0.08749060 21719.35598219 0 316.15686958 0 8848.53456632 0 464.20693883 0 -228.83500984 0 8155
0.08850000 0.08849210 20628.36823341 0 804.82425463 0 8577.36940758 0 -678.87844079 0 -347.71664506 0 8718
0.08950000 0.08949900 19811.44557053 0 535.95157619 0 9210.19063399 0 -322.09293260 0 1251.23069360 0 8571
0.09050000 0.09049190 19816.05909102 0 36.17033013 0 9512.13456510 0 916.77242764 0 -912.80919385 0 8932
0.09150000 0.09150830 19027.36677968 0 216.87390876 0 9174.28206622 0 647.12423837 0 642.86002729 0 9285
0.09250000 0.09250820 19083.16840839 0 308.82247047 0 8286.61875592 0 560.27471525 0 1230.38197484 0 9204
0.09350000 0.09350330 18786.03572006 0 -34.24770039 0 8261.73869903 0 864.03769159 0 61.62499002 0 9349
0.09450000 0.09448040 18781.64189103 0 154.59138222 0 7745.03538937 0 -124.16960846 0 1257.90931373 0 9564
0.09550000 0.09549270 18023.37684574 0 387.65545251 0 7025.30422470 0 327.66320936 0 730.38180625 0 10155
0.09650000 0.09649430 17935.82980227 0 61.05533009 0 7018.10932966 0 521.82980968 0 2300.57592772 0 9913
0.09750000 0.09749140 18152.33572785 0 -42.25259782 0 6886.98648675 0 1141.89025812 0 822.26116515 0 10476
0.09850000 0.09850240 17826.42345936 0 192.70894754 0 6450.08609690 0 -206.63738557 0 910.40137554 0 10575
0.09950000 0.09950330 17274.44868715 0 529.25318383 0 6302.43147226 0 -323.78126141 0 1234.60005071 0 10882
0.10050000 0.10051200 17168.66725319 0 221.89275997 0 7049.71194497 0 -949.48228787 0 -512.77083267 0 10875
0.10150000 0.10150300 16572.97388210 0 268.37617576 0 7062.66275605 0 484.14943035 0 272.00108472 0 11118
0.10250000 0.10250800 16339.33202330 0 -203.06410411 0 6442.21015836 0 1116.48294174 0 547.05148678 0 11575
0.10350000 0.10349800 16496.08187403 0 167.84866287 0 6237.90809292 0 198.62084450 0 39.52886320 0 11364
0.10450000 0.10450100 16440.17039959 0 345.45602003 0 6136.74017945 0 -107.44471794 0 -588.03822245 0 12093
0.10550000 0.10551000 16182.91170974 0 -9.07256492 0 5370.67608762 0 409.40930005 0 690.25296570 0 12067
0.10650000 0.10649700 15951.46676545 0 -224.91241897 0 5603.86757895 0 588.19420338 0 98.71187289 0 12054
0.10750000 0.10749900 15945.53509626 0 327.55885592 0 4982.19569371 0 405.91400906 0 462.93382687 0 12807
0.10850000 0.10850100 15761.43365979 0 98.44044410 0 4566.10008433 0 314.73985972 0 187.45392802 0 12736
0.10950000 0.10950300 15624.67573115 0 107.81171251 0 4554.11591564 0 406.95864191 0 535.29140338 0 12933
0.11050000 0.11050200 15356.54231444 0 223.92710281 0 4869.77957791 0 -146.92195365 0 350.49134810 0 13428
0.11150000 0.11150900 14873.22112086 0 310.63272803 0 4540.38519992 0 -275.44145285 0 451.33082285 0 13453
0.11250000 0.11250000 14559.94111084 0 63.25597936 0 3942.78051320 0 589.31682670 0 331.09369138 0 13668
0.11350000 0.11349100 14695.05135360 0 171.43951965 0 4378.70327609 0 384.90491554 0 283.15481972 0 13791
0.11450000 0.11448600 14356.28713519 0 364.65815135 0 3939.25446540 0 429.21448442 0 402.96355286 0 14205
0.11550000 0.11549300 14215.57476042 0 195.11786431 0 3902.36827068 0 0.65292739 0 521.39152523 0 14776
0.11650000 0.11649800 13613.29064578 0 69.19237192 0 3856.54063387 0 -965.08477477 0 -328.65072243 0 14553
0.11750000 0.11747300 13173.68805108 0 424.43949071 0 4010.72009462 0 -44.77344738 0 288.41752844 0 14568
0.11850000 0.11849100 13122.28025140 0 -15.64192151 0 3748.01305676 0 300.61699475 0 -319.65765286 0 16015
0.11950000 0.11950300 13195.32765906 0 -70.58752248 0 3993.30954708 0 698.55400720 0 -383.86907034 0 15270
0.12050000 0.12050700 13472.90780819 0 -31.25835881 0 3078.38252763 0 700.40820305 0 0.54924511 0 15999
0.12150000 0.12150000 13613.51033724 0 -228.12430800 0 3158.98732123 0 -105.44091221 0 142.78736053 0 15670
0.12250000 0.12250700 13587.14736304 0 -144.94363213 0 2639.72460617 0 103.33110535 0 -68.96718818 0 16887
0.12350000 0.12352200 13339.77478851 0 341.39831891 0 3411.64347518 0 -296.58126278 0 -1.37080875 0 16407
0.12450000 0.12449800 13337.68771972 0 510.30699304 0 3665.62876240 0 -1018.87732515 0 174.22520726 0 16306
0.12550000 0.12549900 12910.16815485 0 232.27098415 0 4382.39409248 0 -243.46426361 0 422.32276358 0 17523
0.12650000 0.12650100 12832.61707243 0 -95.07059693 0 4251.91933936 0 855.50817098 0 169.61937597 0 17154
0.12750000 0.12750600 12927.52377953 0 -19.28638300 0 4311.65344506 0 670.04025369 0 686.58631537 0 18007
0.12850000 0.12850300 13227.73214818 0 10.47525090 0 3864.18589638 0 175.30389228 0 1249.00082536 0 17496
0.12950000 0.12949900 12881.05903751 0 -38.67865728 0 3884.34258707 0 126.08202255 0 1038.03661665 0 18405
0.13050000 0.13049000 12816.79928791 0 200.77382073 0 4003.83276761 0 -205.88933618 0 1686.54930499 0 18100
0.13150000 0.13148800 12495.28084846 0 336.10155801 0 4230.52139197 0 -491.79029904 0 719.92778852 0 19059
0.13250000 0.13249300 12182.65991279 0 224.97503104 0 4290.92555660 0 255.51543819 0 844.46208479 0 18957
0.13350000 0.13349100 12056.55701956 0 120.97968858 0 4092.87371295 0 284.80360406 0 932.68797485 0 19468
0.13450000 0.13450700 11852.90304390 0 261.88539183 0 4024.11028859 0 174.56353209 0 1069.07023111 0 19953
0.13550000 0.13551000 11420.11088419 0 159.86727243 0 4198.12788743 0 -138.08156963 0 664.82697554 0 19956
0.13650000 0.13649900 11411.98230048 0 185.55469542 0 3996.93445603 0 126.24459422 0 932.20685057 0 19723
0.13750000 0.13749600 11024.55642554 0 -20.38626825 0 3922.68972995 0 353.41983515 0 1273.96875884 0 20946
0.13850000 0.13851100 11119.90251555 0 -21.72847318 0 3592.61430845 0 291.27571422 0 424.69872663 0 20955
0.13950000 0.13949800 10983.48510866 0 236.85155091 0 3635.99238558 0 -7.08670799 0 665.99793098 0 20506
0.14050000 0.14048300 10745.85585001 0 290.55402781 0 3499.78368557 0 -303.51472500 0 446.95237222 0 21447
0.14150000 0.14148400 10723.93064313 0 -122.73282637 0 3611.45285043 0 91.87002201 0 681.58503947 0 21771
0.14250000 0.14249400 10560.23854253 0 51.88409075 0 3349.96510013 0 7.67824919 0 5.79728393 0 22470
0.14350000 0.14350900 10601.37576684 0 51.89881008 0 3296.03084876 0 -31.84910913 0 -174.61625804 0 22519
0.14450000 0.14449900 10453.72114220 0 113.43438568 0 2998.84323757 0 408.62060774 0 -277.45931883 0 22218
0.14550000 0.14550500 10661.32956399 0 -22.16554932 0 2917.48050846 0 309.55623991 0 -189.92985067 0 23559
0.14650000 0.14650700 10563.19339255 0 -66.13086169 0 2763.03741797 0 -28.57977079 0 -106.23861187 0 23044
0.14750000 0.14750500 10305.30858206 0 141.69329710 0 2632.52971113 0 -79.90057265 0 -448.16177366 0 23649
0.14850000 0.14849900 10496.81362044 0 136.73595949 0 2528.00051844 0 405.72946824 0 200.72219324 0 23640
0.14950000 0.14949500 10260.65629451 0 -80.66641705 0 2560.59174529 0 220.41423650 0 305.66220893 0 24457
0.15050000 0.15050000 10141.69337346 0 255.96470720 0 2740.43116759 0 39.32312216 0 218.22610964 0 24591
0.15150000 0.15149900 10019.00668230 0 283.22841635 0 2962.66005549 0 -257.23232688 0 516.86917670 0 25020
0.15250000 0.15250500 9480.70770295 0 228.67024125 0 2855.81311799 0 -292.63011202 0 513.36729496 0 25297
0.15350000 0.15350100 9494.64712555 0 116.92638130 0 3191.35885663 0 180.30626664 0 600.05644332 0 25452
0.15450000 0.15450400 9304.13069870 0 -77.89182387 0 3046.58219001 0 149.47366986 0 204.42179728 0 26061
0.15550000 0.15549900 9432.47444474 0 95.10245219 0 2638.02199742 0 92.00842763 0 -181.36627789 0 26128
0.15650000 0.15649500 9303.01027230 0 172.34135306 0 2824.91351532 0 -160.70759224 0 -349.49285045 0 26331
0.15750000 0.15749700 9148.44635151 0 40.01152532 0 2495.79375163 0 -76.08200569 0 -52.80240102 0 27345
0.15850000 0.15849900 8982.60127468 0 152.05943824 0 2654.89430090 0 -72.76510415 0 -1223.82418501 0 26980
0.15950000 0.15949700 8894.55992544 0 167.99256077 0 2782.85358690 0 -304.55276710 0 -987.48231826 0 27777
0.16050000 0.16050000 8578.68755629 0 160.20120344 0 2889.14031120 0 -83.31238090 0 -958.04036837 0 28224
0.16150000 0.16150500 8418.37870403 0 64.83215568 0 2908.76974240 0 -29.91977880 0 -1165.41921259 0 28075
0.16250000 0.16249700 8538.35220577 0 10.61265692 0 2811.58922878 0 555.97864892 0 -708.44122098 0 28590
0.16350000 0.16349900 8474.90531454 0 -155.68434720 0 2559.19670457 0 453.13229275 0 -497.07168154 0 29163
0.16450000 0.16449100 8595.76856665 0 81.02473381 0 2377.03953746 0 363.31583659 0 -344.30483682 0 28996
0.16550000 0.16550500 8706.77865716 0 145.18199735 0 2345.04147753 0 51.00082127 0 275.84238975 0 30777
0.16650000 0.16650700 8441.00692355 0 -101.51843119 0 2042.09795031 0 249.09495551 0 308.04695964 0 29211
0.16750000 0.16749900 8384.32652903 0 89.05028223 0 2192.59757924 0 -18.30524098 0 79.89804620 0 30922
0.16850000 0.16850800 8216.37241426 0 254.16872959 0 2271.42287209 0 -165.60561315 0 715.79429386 0 30867
0.16950000 0.16949900 8153.85921170 0 47.87977466 0 2205.48248288 0 42.61970223 0 731.95040321 0 30852
0.17050000 0.17049200 7969.53808379 0 -58.98902214 0 2100.41504614 0 332.16139183 0 564.45983741 0 31257
0.17150000 0.17149500 8125.67279846 0 149.64502919 0 2117.96839313 0 42.89673315 0 311.66857322 0 32608
0.17250000 0.17250900 8141.73224357 0 111.73287538 0 2180.42667282 0 24.87478430 0 337.39993449 0 32361
0.17350000 0.17350400 7889.96584001 0 -76.46965125 0 1796.84539828 0 -84.48893847 0 712.75925646 0 32508
0.17450000 0.17449800 7878.73960683 0 1.06563536 0 2073.63465819 0 63.32221633 0 311.44338948 0 32791
0.17550000 0.17549800 7955.87327550 0 146.49685069 0 1741.02180043 0 36.87367232 0 186.53671620 0 33633
0.17650000 0.17650100 7867.24974391 0 45.06102349 0 1852.69096529 0 144.61299649 0 208.79036180 0 33984
0.17750000 0.17750300 7811.88749810 0 90.90305009 0 1906.09795718 0 -30.37486964 0 36.86378620 0 34069
0.17850000 0.17849800 7678.85333957 0 116.58366263 0 1805.47927233 0 -219.73209455 0 270.54782576 0 34536
