### header ###
fiducial parameters:
Omega_m = 0.31
Omega_nu = 0
Omega_de = 0.69
Omega_k = 0
H_0 = 100
w_de = -1
zeff = 0
beta = 0
fgrowth = 0
b_1 = 2
gamma = 0.55
Lx = 3500 Ly = 3500 Lz = 3500
nx = 700 ny = 700 nz = 700
xoffset = -983.599254 yoffset = -42.9823471 zoffset = 800.977702
bins = 400 dk = 0.001
kx_ny = 0.628318531 ky_ny = 0.628318531 kz_ny = 0.628318531
############################
A(data) = 9.05302528 (not used)
A(ran) = 9.04618148 (used)
Ngal = 502547
weighted Ngal = 0
Nran = 25229228
weighted Nran = 0
SN(data) = 6733.83349
SN(ran) = 134.284332
SN(data+ran) = 6868.11783
############################
13 columns: k_central k_mean P_0(k) sigma^{lin}_{P_0(k)} P^img_1(k) sigma^{lin}_{P_1(k)} P_2(k) sigma^{lin}_{P_2(k)} P^img_3(k) sigma^{lin}_{P_3(k)} P_4(k) sigma^{lin}_{P_4(k)} N_modes
### header ###
0.00050000 0 0 0 0 0 0 0 0 0 0 0 0
0.00150000 0.00179520 -6060.78186005 0 -3246.96276304 0 531.11287197 0 3244.53517250 0 3272.39204856 0 3
0.00250000 0.00253879 3220.47895854 0 -17770.73167637 0 -19868.56534796 0 18010.63474155 0 6682.33291499 0 6
0.00350000 0.00331552 17106.60441810 0 -18662.67896998 0 -6556.95500355 0 -4612.53187263 0 -5742.93226783 0 7
0.00450000 0.00420575 49164.42042240 0 -23446.68002060 0 -32083.41005841 0 -11564.22847646 0 -17979.10901824 0 24
0.00550000 0.00557378 62238.25870871 0 -1152.17181806 0 -21378.17515781 0 -25401.49455718 0 -11403.52417960 0 45
0.00650000 0.00659388 63975.46886245 0 9124.17044610 0 2898.27947559 0 -10910.33883984 0 25976.31724036 0 40
0.00750000 0.00754703 69197.86420480 0 4424.99226495 0 2482.09598963 0 10564.72024814 0 -2337.33030758 0 57
0.00850000 0.00846663 69125.25618004 0 -386.56578291 0 193.26476691 0 -10076.06055229 0 2801.78000546 0 75
0.00950000 0.00948925 58012.82317385 0 463.04037722 0 30799.42336938 0 2720.45023007 0 17876.18357315 0 112
0.01050000 0.01054430 58731.32406639 0 4386.66709121 0 15686.29918334 0 6492.90396082 0 18639.72121328 0 105
0.01150000 0.01145670 58805.03054841 0 -5684.96667832 0 19008.47331484 0 10208.63335877 0 25779.36385398 0 144
0.01250000 0.01249090 69153.81606875 0 -3552.24600422 0 15474.29693252 0 29932.85043843 0 32729.52261764 0 169
0.01350000 0.01339930 68099.62663812 0 -2012.19794374 0 6956.45292376 0 10818.21122960 0 34067.77309523 0 180
0.01450000 0.01448870 75908.11990329 0 -2257.06603572 0 12566.13134161 0 -272.72167268 0 22447.63314433 0 267
0.01550000 0.01550050 73305.21558442 0 11066.73718425 0 26224.12919780 0 -14468.98884987 0 42115.94973413 0 238
0.01650000 0.01653350 61012.27056291 0 8025.15297477 0 31455.64173539 0 -7926.76415816 0 22964.12774710 0 315
0.01750000 0.01747870 68525.16897992 0 -4010.18185056 0 47157.09962888 0 14931.98858417 0 39083.10924442 0 297
0.01850000 0.01844180 63973.16210221 0 -1049.76264788 0 44683.81326647 0 8516.25124573 0 5404.03623455 0 388
0.01950000 0.01947590 64844.23870791 0 5682.39628834 0 44957.43896947 0 1629.74808018 0 24303.14714477 0 399
0.02050000 0.02045430 62294.60956606 0 3756.62496167 0 53409.73803364 0 -7430.18458547 0 22616.24633345 0 462
0.02150000 0.02154770 57259.50118622 0 -575.47187142 0 47965.23463369 0 10964.96511929 0 19663.15384069 0 571
0.02250000 0.02255340 59953.79714897 0 -2696.14137095 0 35403.16758394 0 19172.36313775 0 13025.72585841 0 510
0.02350000 0.02348930 64585.77171507 0 -2250.67301448 0 38017.60570403 0 12897.20635921 0 19545.72875979 0 555
0.02450000 0.02439640 69209.50785174 0 -3618.23033171 0 22636.12840983 0 13568.80312683 0 33646.40489101 0 592
0.02550000 0.02547300 70095.85301333 0 -1271.02489339 0 19124.90978420 0 -1795.77989474 0 8773.68568875 0 837
0.02650000 0.02652900 68066.34338320 0 2235.06393684 0 19183.67724751 0 -6982.59620650 0 16587.69320936 0 723
0.02750000 0.02749970 68858.77044921 0 1945.74127962 0 18174.96394736 0 -1160.78372296 0 5317.47780261 0 826
0.02850000 0.02848090 65259.34570576 0 1884.84280923 0 23650.88322489 0 -233.07505486 0 5086.27451892 0 831
0.02950000 0.02946900 66870.01358336 0 2886.91044297 0 27970.45654678 0 -2246.23524716 0 -7686.54254038 0 996
0.03050000 0.03053250 60222.80933149 0 1681.97972280 0 26139.98737182 0 948.61450664 0 2807.33819919 0 1041
0.03150000 0.03150510 59217.28155739 0 622.71871501 0 30262.38761587 0 8172.03867933 0 8967.98080857 0 1036
0.03250000 0.03246190 54914.18509438 0 1238.77418829 0 27531.95240933 0 5044.34640538 0 3949.37125675 0 1059
0.03350000 0.03345080 60948.99942484 0 539.18872973 0 19319.88594752 0 5638.12846083 0 6967.78900266 0 1302
0.03450000 0.03451200 56526.06127496 0 732.22721444 0 17135.71353544 0 4034.44677139 0 8413.99585958 0 1339
0.03550000 0.03553350 53499.37214590 0 1442.86754685 0 18126.85151946 0 -561.25673604 0 11903.43207777 0 1365
0.03650000 0.03647120 49388.83524024 0 2370.54765506 0 15664.11034672 0 -1207.96246220 0 10495.38562601 0 1308
0.03750000 0.03744890 49942.34785261 0 1710.50665779 0 17457.12212917 0 4462.59245690 0 6326.25701019 0 1579
0.03850000 0.03847530 46449.25377174 0 689.04905654 0 16392.38750886 0 -368.81800899 0 6032.84809197 0 1662
0.03950000 0.03950240 47479.16729697 0 1576.81342491 0 17732.72505524 0 166.64035989 0 7238.02047273 0 1683
0.04050000 0.04050350 44614.93999638 0 816.95781351 0 18628.62679497 0 -2545.57583457 0 4798.77530075 0 1822
0.04150000 0.04152450 43912.58642553 0 1166.51766985 0 19811.11603336 0 -1781.46699667 0 -4630.46967966 0 1887
0.04250000 0.04250150 44315.06116491 0 662.28844082 0 23211.82985881 0 -428.57518229 0 780.53516774 0 1920
0.04350000 0.04349210 42502.27715181 0 -500.88222976 0 18395.42431907 0 3618.47199231 0 2374.85360751 0 2005
0.04450000 0.04448520 43456.28728050 0 -246.37187997 0 22595.48549127 0 -526.56525892 0 55.60258826 0 2151
0.04550000 0.04548030 41669.20716724 0 2768.33198195 0 20595.08497849 0 1522.87917353 0 1939.31530466 0 2274
0.04650000 0.04648670 40744.63569307 0 196.58100937 0 20313.66022895 0 2315.71266874 0 554.72311227 0 2311
0.04750000 0.04749250 41619.88643635 0 -29.05584216 0 23592.66499021 0 2124.84473556 0 4322.62703307 0 2568
0.04850000 0.04851840 41297.70892254 0 1022.60988292 0 21125.52998844 0 210.34358036 0 6027.12512966 0 2493
0.04950000 0.04949480 38101.96722145 0 908.84596006 0 20863.54793237 0 -865.47227677 0 5224.10893567 0 2644
0.05050000 0.05050630 37482.76686504 0 432.95802675 0 20042.56097764 0 1711.04490185 0 5813.21156321 0 2829
0.05150000 0.05149060 36766.13334984 0 1345.12682002 0 20806.42815495 0 4959.99587252 0 7393.60595878 0 2784
0.05250000 0.05249300 36125.73276834 0 414.48417258 0 20113.85085370 0 1117.09807780 0 11313.89006733 0 3055
0.05350000 0.05348950 34291.19930153 0 1208.81925886 0 17641.55310281 0 3239.10879364 0 9617.11412526 0 3009
0.05450000 0.05448610 34509.46275873 0 -131.67756382 0 16819.13815365 0 2951.76335949 0 10732.79519321 0 3336
0.05550000 0.05550870 33989.45309272 0 -220.48124240 0 13817.49385007 0 1452.46806329 0 9177.69826829 0 3349
0.05650000 0.05647670 33545.89605189 0 -56.85362123 0 13320.88132367 0 -2037.37458410 0 7426.15324733 0 3324
0.05750000 0.05747970 32832.22837128 0 448.97023820 0 15042.16384717 0 -1260.75431802 0 4772.57709514 0 3639
0.05850000 0.05849280 33781.29544231 0 466.38737649 0 12858.21112654 0 1907.97631909 0 3824.10319103 0 3846
0.05950000 0.05951020 33444.06906406 0 -773.11508896 0 10845.27721644 0 1994.40293616 0 -1426.97287032 0 3787
0.06050000 0.06049470 33674.63524254 0 -105.53373185 0 11909.69328414 0 -590.56577261 0 1445.64664371 0 3930
0.06150000 0.06148310 33399.80123656 0 1068.60009140 0 9479.01607877 0 -80.30897906 0 -1506.03982377 0 4083
0.06250000 0.06249100 32220.49752423 0 -21.85951913 0 10844.62912666 0 239.93821581 0 -76.88124319 0 4303
0.06350000 0.06350600 33020.72363678 0 707.30981000 0 10843.54165397 0 20.54191965 0 -1089.18957425 0 4470
0.06450000 0.06451750 31795.06502815 0 580.96855154 0 11084.75188329 0 228.78667772 0 466.20173721 0 4479
0.06550000 0.06550280 29988.32252997 0 -197.73988178 0 10419.20761515 0 956.13124966 0 693.91851757 0 4636
0.06650000 0.06648880 30919.15521051 0 1855.64581531 0 11830.49451583 0 -62.10281893 0 -1294.89436961 0 4653
0.06750000 0.06749660 28637.76933109 0 1133.04767719 0 12252.41194868 0 -1696.86381865 0 1206.65529806 0 5220
0.06850000 0.06852730 28185.31478647 0 237.75887661 0 13461.48385271 0 1892.01573513 0 2236.87639132 0 5029
0.06950000 0.06949320 27981.99034799 0 -386.94584912 0 12404.10889603 0 502.85396054 0 781.85111954 0 5040
0.07050000 0.07048030 28055.80667573 0 -39.65804177 0 11361.67295806 0 2057.31158333 0 2287.27361032 0 5475
0.07150000 0.07148790 27339.39285198 0 -259.19087617 0 9908.35908269 0 348.02201618 0 2717.27568859 0 5509
0.07250000 0.07249820 27061.15362849 0 639.72722719 0 9764.26345956 0 881.54600183 0 1978.01395387 0 5916
0.07350000 0.07351270 28237.38166050 0 461.89029247 0 8911.08072260 0 381.39973843 0 18.70167420 0 5721
0.07450000 0.07449140 26306.07410925 0 478.10242315 0 10122.37151029 0 -549.49225881 0 1434.12382708 0 6028
0.07550000 0.07549160 26104.50720238 0 166.37233632 0 8756.37400236 0 -385.91439776 0 439.78713552 0 6183
0.07650000 0.07648840 26095.39000714 0 -493.85210331 0 9385.70213469 0 1828.87641193 0 2012.41763519 0 6330
0.07750000 0.07749960 26515.65975410 0 151.92982029 0 7511.73405232 0 1018.56865866 0 -1136.45289469 0 6583
0.07850000 0.07848650 26184.03550787 0 840.13526165 0 8216.35044512 0 -1772.83312262 0 -416.06595104 0 6549
0.07950000 0.07947320 25185.97724313 0 562.18493243 0 8873.08508604 0 -407.35188961 0 -940.01358631 0 6828
0.08050000 0.08048110 24566.44734955 0 98.15012185 0 10195.62762483 0 291.13181632 0 1511.66392493 0 7147
0.08150000 0.08149960 24622.02928681 0 398.25666351 0 10022.60962210 0 -357.23807258 0 -2433.63205540 0 7386
0.08250000 0.08250610 24311.93480284 0 1160.94849155 0 10765.61709608 0 294.48650479 0 6.92722298 0 7227
0.08350000 0.08350160 22819.90030911 0 -66.89989162 0 9950.29818080 0 -71.95576084 0 244.81536603 0 7798
0.08450000 0.08449610 22719.72100717 0 257.12028424 0 10131.65347412 0 1435.88135869 0 -296.50876460 0 7371
0.08550000 0.08548940 23020.03922154 0 -116.30685141 0 10116.22014964 0 832.48560531 0 -20.26719549 0 8256
0.08650000 0.08650700 22609.54574418 0 146.66491465 0 8670.88107396 0 194.30830131 0 45.77447148 0 8037
0.08750000 0.08749060 22384.69154344 0 486.69235890 0 8626.41552415 0 453.79905631 0 -580.53685784 0 8155
0.08850000 0.08849210 21510.64910314 0 359.83592399 0 8168.62247725 0 -513.54414658 0 -1356.92425097 0 8718
0.08950000 0.08949900 20728.21799817 0 956.63873691 0 7860.76884609 0 -444.74337467 0 -1766.56093168 0 8571
0.09050000 0.09049190 19974.78616482 0 540.74963749 0 9192.68122529 0 204.07578325 0 -1882.61294100 0 8932
0.09150000 0.09150830 19102.50125613 0 403.10415539 0 8341.72835656 0 696.05062310 0 -569.54679297 0 9285
0.09250000 0.09250820 19263.09570727 0 83.21846280 0 8733.13064678 0 173.12015925 0 -2572.75166714 0 9204
0.09350000 0.09350330 18374.88316835 0 -18.94959601 0 7863.53695838 0 285.03537854 0 -1389.18594064 0 9349
0.09450000 0.09448040 18713.09815812 0 -50.31131965 0 7354.28118894 0 307.48454953 0 -1459.59705089 0 9564
0.09550000 0.09549270 18226.26190132 0 346.07664838 0 7131.01975122 0 453.13229275 0 -407.80225708 0 10155
0.09650000 0.09649430 18456.16900545 0 24.71309139 0 6739.52958442 0 945.95514162 0 -55.71364229 0 9913
0.09750000 0.09749140 18700.90528256 0 -267.49850842 0 6185.27002111 0 1053.72917704 0 -101.65694665 0 10476
0.09850000 0.09850240 18301.61606923 0 472.10924035 0 6597.72973697 0 -93.98477193 0 784.46544781 0 10575
0.09950000 0.09950330 17962.96169654 0 471.69402350 0 6599.88271319 0 -51.29048445 0 260.06085432 0 10882
0.10050000 0.10051200 17433.94468103 0 71.69938092 0 6404.42322868 0 227.27739745 0 826.43969656 0 10875
0.10150000 0.10150300 17138.67937004 0 403.99170885 0 6353.98207139 0 233.15743915 0 1113.63793744 0 11118
0.10250000 0.10250800 16650.41511880 0 355.33334769 0 6967.36060433 0 -40.69850049 0 671.96145543 0 11575
0.10350000 0.10349800 16260.90217507 0 -130.78781344 0 5954.94550323 0 483.64194310 0 1204.39247611 0 11364
0.10450000 0.10450100 15981.78418577 0 397.97545845 0 6247.83814653 0 632.78168195 0 1201.87700899 0 12093
0.10550000 0.10551000 16129.96606990 0 25.12105842 0 5212.83876420 0 28.43367597 0 1098.27381577 0 12067
0.10650000 0.10649700 16165.44623933 0 149.56374335 0 5603.57099549 0 457.96989852 0 -607.48311284 0 12054
0.10750000 0.10749900 15444.74843227 0 320.89231882 0 5454.75200616 0 -901.69060948 0 -487.32067646 0 12807
0.10850000 0.10850100 15214.40194524 0 71.16212547 0 5084.29729586 0 269.42520245 0 -63.48610615 0 12736
0.10950000 0.10950300 15392.46186678 0 -402.05073488 0 4306.86417141 0 1131.32309930 0 -854.62171597 0 12933
0.11050000 0.11050200 15490.22456276 0 197.93870254 0 4236.78259834 0 -21.89005624 0 -1717.96518258 0 13428
0.11150000 0.11150900 15059.40962612 0 609.39333001 0 4223.37043522 0 -701.58794614 0 -1764.82536921 0 13453
0.11250000 0.11250000 14745.80007892 0 153.27872580 0 5096.31441826 0 -324.60290744 0 -1117.42761498 0 13668
0.11350000 0.11349100 14090.79001590 0 299.79095489 0 4772.19263510 0 -139.59194836 0 -1334.35095432 0 13791
0.11450000 0.11448600 14136.37599211 0 -31.55680965 0 4838.71520665 0 932.61657513 0 -643.63883349 0 14205
0.11550000 0.11549300 14163.17834921 0 -6.25339634 0 4617.60674516 0 1011.18482898 0 -312.95047284 0 14776
0.11650000 0.11649800 14326.18940631 0 -25.91842854 0 4045.04688393 0 599.81917655 0 671.35840240 0 14553
0.11750000 0.11747300 14228.42671034 0 74.70849473 0 4113.39289454 0 12.89984266 0 1687.65874682 0 14568
0.11850000 0.11849100 14015.10631081 0 213.66421665 0 4283.44506267 0 -443.47136117 0 1500.05323171 0 16015
0.11950000 0.11950300 13712.48133619 0 379.73337877 0 4496.68857019 0 5.93458011 0 2048.72164757 0 15270
0.12050000 0.12050700 13770.69957088 0 39.13023306 0 4978.09844814 0 173.76385521 0 1650.33316919 0 15999
0.12150000 0.12150000 13913.49901443 0 -34.18420956 0 4950.72489327 0 -53.01154728 0 806.66197363 0 15670
0.12250000 0.12250700 13442.59038787 0 194.34894422 0 5323.43144095 0 -442.16859086 0 518.19171924 0 16887
0.12350000 0.12352200 13185.77108092 0 34.45311190 0 4459.15428568 0 408.11861277 0 1644.62119145 0 16407
0.12450000 0.12449800 13637.12716829 0 -284.32467670 0 4469.40289190 0 1053.47433496 0 735.89166786 0 16306
0.12550000 0.12549900 13663.59998821 0 5.13594676 0 3794.26909190 0 276.31252945 0 310.92821303 0 17523
0.12650000 0.12650100 13311.54443697 0 451.64388317 0 3767.17015134 0 -136.44047449 0 1011.13320148 0 17154
0.12750000 0.12750600 12844.04102791 0 250.58775893 0 3686.68618804 0 -78.61460874 0 1134.37681048 0 18007
0.12850000 0.12850300 12767.14901984 0 145.79054267 0 3760.65629980 0 300.28855603 0 817.76408113 0 17496
0.12950000 0.12949900 12720.35474065 0 160.85808088 0 3613.92437926 0 -101.03038663 0 222.88576533 0 18405
0.13050000 0.13049000 12078.30647327 0 -6.18702755 0 3499.97042330 0 401.54434608 0 658.07146340 0 18100
0.13150000 0.13148800 12041.28846367 0 202.41930970 0 3362.60834317 0 -24.44298075 0 386.24173802 0 19059
0.13250000 0.13249300 12107.63528206 0 138.03653289 0 3218.71044236 0 -4.07140986 0 205.28188931 0 18957
0.13350000 0.13349100 11552.03560090 0 174.48554163 0 3225.74056881 0 -17.86882391 0 402.34951525 0 19468
0.13450000 0.13450700 11632.00328929 0 120.74791410 0 3249.44527644 0 321.40529836 0 403.55891669 0 19953
0.13550000 0.13551000 11480.74572484 0 175.82346257 0 3126.45101725 0 -131.47654614 0 -152.73828483 0 19956
0.13650000 0.13649900 11414.94813508 0 163.19669638 0 3320.03213985 0 -89.33335467 0 -121.44323754 0 19723
0.13750000 0.13749600 11089.91463240 0 -87.78848438 0 3482.07655457 0 -98.01753806 0 771.43005553 0 20946
0.13850000 0.13851100 11342.88933895 0 -168.36274087 0 3252.75163279 0 520.15685927 0 169.58861917 0 20955
0.13950000 0.13949800 11543.90701719 0 -17.52171142 0 3135.71101193 0 30.34784759 0 -112.47653095 0 20506
0.14050000 0.14048300 11278.51974362 0 361.63080315 0 2931.01350188 0 -7.50849360 0 546.80543236 0 21447
0.14150000 0.14148400 11251.60754080 0 114.97002892 0 3363.94846103 0 119.67801673 0 1097.27312121 0 21771
0.14250000 0.14249400 11009.61740683 0 227.35099409 0 3559.66059071 0 -275.10642339 0 383.52635168 0 22470
0.14350000 0.14350900 10725.78703590 0 271.27829984 0 3836.32902032 0 39.43516480 0 805.36359715 0 22519
0.14450000 0.14449900 10358.48489792 0 129.14342292 0 3755.32878210 0 -129.88048774 0 983.46855544 0 22218
0.14550000 0.14550500 10360.57196671 0 52.35247292 0 3941.18775018 0 95.26546324 0 604.20202101 0 23559
0.14650000 0.14650700 10119.95490432 0 -38.76609448 0 3774.69458356 0 426.14978866 0 801.74198357 0 23044
0.14750000 0.14750500 10411.23281546 0 -2.74277088 0 3574.68748600 0 97.39009927 0 246.28510185 0 23649
0.14850000 0.14849900 10236.25955881 0 95.79601810 0 3112.99491583 0 57.52214232 0 918.87487483 0 23640
0.14950000 0.14949500 10486.31236905 0 105.69520506 0 3227.56400786 0 35.54937225 0 -41.80904078 0 24457
0.15050000 0.15050000 10006.57214614 0 44.72401680 0 3287.41894385 0 -71.98519950 0 386.14287687 0 24591
0.15150000 0.15149900 9960.94223163 0 120.20307930 0 3061.63105444 0 -94.13229474 0 21.84106505 0 25020
0.15250000 0.15250500 9802.01743553 0 137.19841000 0 3294.05362569 0 378.59757396 0 367.82500363 0 25297
0.15350000 0.15350100 9664.04021933 0 309.10367552 0 3148.28834754 0 -19.76234453 0 302.13066885 0 25452
0.15450000 0.15450400 9459.40861671 0 50.17423218 0 3165.05080530 0 54.80137353 0 513.70452134 0 26061
0.15550000 0.15549900 9315.73040735 0 -54.01971135 0 3102.65843304 0 363.03463153 0 611.49028492 0 26128
0.15650000 0.15649500 9180.37850400 0 314.12801902 0 3322.62449898 0 -61.68101134 0 905.38911507 0 26331
0.15750000 0.15749700 9088.32778577 0 0.78607908 0 2904.41985166 0 -12.73133931 0 1210.77451278 0 27345
0.15850000 0.15849900 9139.94429233 0 -121.62997528 0 3138.76472311 0 631.34160448 0 849.72479352 0 26980
0.15950000 0.15949700 9222.77895417 0 -58.42760063 0 2609.11060238 0 13.85989430 0 589.14546737 0 27777
0.16050000 0.16050000 9345.86108994 0 111.58568211 0 2615.13014816 0 -56.68248159 0 456.10581655 0 28224
0.16150000 0.16150500 8941.67275724 0 255.10351671 0 2751.16309501 0 -319.72685567 0 1012.08226856 0 28075
0.16250000 0.16249700 8871.04195554 0 67.96144072 0 2865.30378870 0 109.25541488 0 1127.48948347 0 28590
0.16350000 0.16349900 8856.79496490 0 -54.88914027 0 2865.02917438 0 396.69465729 0 528.85664076 0 29163
0.16450000 0.16449100 8923.88873423 0 27.43155342 0 2311.50557744 0 498.90061287 0 803.82356007 0 28996
0.16550000 0.16550500 8913.36551370 0 66.57441874 0 2227.06716800 0 173.76385521 0 1014.07487002 0 30777
0.16650000 0.16650700 8676.68092829 0 28.15444814 0 2042.99868526 0 -194.76635798 0 905.53191452 0 29211
0.16750000 0.16749900 8532.68416632 0 243.72459798 0 2085.98131777 0 -189.07305401 0 607.63360148 0 30922
0.16850000 0.16850800 8330.37030851 0 171.27255415 0 2098.67948367 0 -201.21649900 0 793.44204052 0 30867
0.16950000 0.16949900 8213.14294993 0 102.07941331 0 2686.46396250 0 64.62004358 0 167.62128222 0 30852
0.17050000 0.17049200 8222.24916060 0 51.99931891 0 2220.87186907 0 2.70231470 0 186.51474706 0 31257
0.17150000 0.17149500 7991.49624438 0 47.89416445 0 2448.42827466 0 -15.31611909 0 297.81153491 0 32608
0.17250000 0.17250900 8041.08060501 0 0.18751654 0 2021.65566073 0 120.73143724 0 193.53388894 0 32361
0.17350000 0.17350400 8029.15135919 0 30.78360558 0 2392.41793907 0 95.19340445 0 46.65730158 0 32508
0.17450000 0.17449800 8026.25143203 0 207.08665459 0 2271.88422414 0 -84.57714458 0 112.01408044 0 32791
0.17550000 0.17549800 7891.36088073 0 67.63069523 0 2302.59708907 0 26.92055110 0 177.23607860 0 33633
0.17650000 0.17650100 7739.86165569 0 -11.91705295 0 2399.73366441 0 32.45534769 0 460.66221726 0 33984
0.17750000 0.17750300 7964.07875122 0 6.99732652 0 2236.85442217 0 289.90813494 0 200.23447821 0 34069
0.17850000 0.17849800 7910.21040728 0 -44.74851240 0 2054.09310357 0 214.80002146 0 320.77698081 0 34536
