### header ###
fiducial parameters:
Omega_m = 0.31
Omega_nu = 0
Omega_de = 0.69
Omega_k = 0
H_0 = 100
w_de = -1
zeff = 0
beta = 0
fgrowth = 0
b_1 = 2
gamma = 0.55
Lx = 3500 Ly = 3500 Lz = 3500
nx = 700 ny = 700 nz = 700
xoffset = -983.599254 yoffset = -42.9823471 zoffset = 800.977702
bins = 400 dk = 0.001
kx_ny = 0.628318531 ky_ny = 0.628318531 kz_ny = 0.628318531
############################
A(data) = 9.10657032 (not used)
A(ran) = 9.1112889 (used)
Ngal = 506408
weighted Ngal = 0
Nran = 25229228
weighted Nran = 0
SN(data) = 6695.37376
SN(ran) = 135.250807
SN(data+ran) = 6830.62456
############################
13 columns: k_central k_mean P_0(k) sigma^{lin}_{P_0(k)} P^img_1(k) sigma^{lin}_{P_1(k)} P_2(k) sigma^{lin}_{P_2(k)} P^img_3(k) sigma^{lin}_{P_3(k)} P_4(k) sigma^{lin}_{P_4(k)} N_modes
### header ###
0.00050000 0 0 0 0 0 0 0 0 0 0 0 0
0.00150000 0.00179520 13855.61031693 0 -4434.66967339 0 15242.30275960 0 -36780.74283137 0 -62463.66213808 0 3
0.00250000 0.00253879 46611.27621732 0 -18005.14245526 0 -17688.12769056 0 2183.55727601 0 22831.87349323 0 6
0.00350000 0.00331552 71529.55942664 0 -39761.95582995 0 -43732.87881810 0 6911.66882134 0 -24477.14277446 0 7
0.00450000 0.00420575 96554.83237291 0 -32083.73959559 0 -64438.90797966 0 -7885.81367157 0 -1019.07394900 0 24
0.00550000 0.00557378 100101.20163080 0 11884.75830438 0 -33061.91578396 0 -45124.95370134 0 -16273.20489636 0 45
0.00650000 0.00659388 89512.95242819 0 11580.92502678 0 -6202.40595434 0 -39338.72024839 0 35450.29140032 0 40
0.00750000 0.00754703 66432.38821172 0 9477.93959066 0 13425.56430037 0 7578.33351588 0 -15004.70645466 0 57
0.00850000 0.00846663 96004.94466949 0 -7442.00398557 0 -9849.76737254 0 27533.05086659 0 -2076.66640022 0 75
0.00950000 0.00948925 78692.59920694 0 -6495.63911940 0 4670.58533872 0 -22079.10073423 0 -13931.62355919 0 112
0.01050000 0.01054430 84455.32567456 0 15870.40061980 0 14623.98116899 0 -24164.85137597 0 -16099.75849530 0 105
0.01150000 0.01145670 68838.55883566 0 13966.44465427 0 17175.03830529 0 -24881.92427408 0 3349.20716462 0 144
0.01250000 0.01249090 65341.83984585 0 -4276.95318027 0 41235.64608746 0 5044.04982192 0 -2453.19557916 0 169
0.01350000 0.01339930 68532.19910637 0 5275.46181249 0 60475.23480941 0 -394.48456128 0 -24411.89441333 0 180
0.01450000 0.01448870 62281.75761614 0 6259.60262377 0 49447.38301209 0 9403.58501886 0 730.18408394 0 267
0.01550000 0.01550050 62957.52852134 0 -6139.91472092 0 53083.38638224 0 20393.62791734 0 12403.01043877 0 238
0.01650000 0.01653350 68882.05774309 0 -2232.70225374 0 48886.73042754 0 6276.61772670 0 -4032.53545576 0 315
0.01750000 0.01747870 70325.86996318 0 8690.07112226 0 44441.93297823 0 -4631.35943004 0 4975.20950555 0 297
0.01850000 0.01844180 63430.96359960 0 1081.67173277 0 56216.18648244 0 2845.36678946 0 15925.76286561 0 388
0.01950000 0.01947590 68346.23029257 0 -5339.60073179 0 53557.70022631 0 19538.36909616 0 12388.73049442 0 399
0.02050000 0.02045430 65915.12468887 0 -1264.07165894 0 36919.36813735 0 314.36748271 0 -8093.42209336 0 462
0.02150000 0.02154770 66340.66703067 0 5963.56839270 0 38582.54227189 0 2919.82022242 0 6811.98382517 0 571
0.02250000 0.02255340 66802.23877054 0 306.57392846 0 35452.37846911 0 5621.13532705 0 -2064.96783042 0 510
0.02350000 0.02348930 64653.87606508 0 -1699.44519320 0 36391.77911626 0 4605.51273075 0 -5357.86807599 0 555
0.02450000 0.02439640 64409.57917087 0 1665.18431132 0 30072.46435594 0 739.54403824 0 -11774.03381276 0 592
0.02550000 0.02547300 64350.92155328 0 718.80296829 0 29204.79296774 0 -1370.58905926 0 4170.83122456 0 837
0.02650000 0.02652900 61129.47595235 0 -1831.71043166 0 26336.28168385 0 6811.54444226 0 -11005.44326925 0 723
0.02750000 0.02749970 62895.24599480 0 1236.52235091 0 28787.37920965 0 4214.38505485 0 1289.74260507 0 826
0.02850000 0.02848090 61224.27281373 0 2106.67625251 0 23574.97982835 0 7530.60554801 0 3443.47676652 0 831
0.02950000 0.02946900 62440.81422711 0 1595.35538342 0 26212.15601368 0 -4499.52258991 0 -359.87327154 0 996
0.03050000 0.03053250 56842.63665676 0 1677.67377035 0 28063.60572227 0 3379.94199871 0 2857.29603529 0 1041
0.03150000 0.03150510 57982.28606207 0 1089.75418128 0 28195.20090179 0 5189.38670174 0 6680.05910846 0 1036
0.03250000 0.03246190 56577.46907464 0 352.51910019 0 24720.12151996 0 1824.06516914 0 9012.44635838 0 1059
0.03350000 0.03345080 54534.66811169 0 2584.09873062 0 25999.82422568 0 2308.32005139 0 9424.90607424 0 1302
0.03450000 0.03451200 52533.49867882 0 -321.50635643 0 24168.03690202 0 1178.19427050 0 9336.49124953 0 1339
0.03550000 0.03553350 52722.10379004 0 935.44510257 0 23404.71895334 0 1378.81650413 0 1828.83247364 0 1365
0.03650000 0.03647120 51446.02599327 0 1237.43407043 0 23140.97936566 0 692.09288160 0 4719.95000790 0 1308
0.03750000 0.03744890 48905.84358383 0 1303.59415109 0 20442.39941961 0 4728.02366875 0 5655.13257919 0 1579
0.03850000 0.03847530 49990.46028052 0 -737.74915908 0 16517.06240766 0 711.18297029 0 -951.52651683 0 1662
0.03950000 0.03950240 44996.43420213 0 3435.97430344 0 18008.43782703 0 1587.50141403 0 1411.92400589 0 1683
0.04050000 0.04050350 44091.08572998 0 801.25317009 0 15517.02691986 0 559.53545352 0 5155.87277080 0 1822
0.04150000 0.04152450 42278.41156261 0 417.47966553 0 16396.34195499 0 2560.38303841 0 5773.29362645 0 1887
0.04250000 0.04250150 41179.95430447 0 1527.60253974 0 14536.43412552 0 2556.97782091 0 414.14365083 0 1920
0.04350000 0.04349210 41750.49300435 0 509.25906482 0 14383.96825809 0 -1032.50808127 0 2441.27731791 0 2005
0.04450000 0.04448520 39675.83678091 0 8.67915246 0 12883.91502638 0 2587.81151615 0 -1149.59044350 0 2151
0.04550000 0.04548030 39153.74004612 0 800.10198688 0 14430.32315438 0 -5658.73551900 0 -3245.21621600 0 2274
0.04650000 0.04648670 38752.58345545 0 1101.77459905 0 15399.93137614 0 -1818.80355887 0 -6357.54107290 0 2311
0.04750000 0.04749250 37587.77937892 0 383.72407398 0 15540.53390518 0 619.62326245 0 -3696.74805653 0 2568
0.04850000 0.04851840 37989.81473540 0 -1071.18915516 0 13847.92111612 0 307.63613663 0 -7941.98877575 0 2493
0.04950000 0.04949480 39385.62437331 0 423.94738186 0 13891.85940645 0 3577.21393770 0 -10721.23942285 0 2644
0.05050000 0.05050630 38238.50545864 0 510.47615546 0 13575.61356183 0 -85.31552755 0 -4917.89200582 0 2829
0.05150000 0.05149060 36401.11600296 0 247.77790526 0 12788.23939920 0 1019.78465085 0 -2320.28225093 0 2784
0.05250000 0.05249300 37283.50671842 0 423.04115462 0 12095.77194367 0 227.83431528 0 -5947.54190131 0 3055
0.05350000 0.05348950 35512.90346403 0 1572.38664216 0 12054.36010504 0 1381.56264727 0 -3064.55295075 0 3009
0.05450000 0.05448610 35250.37217934 0 1059.63228635 0 14668.02930505 0 -810.72077320 0 -3177.05694313 0 3336
0.05550000 0.05550870 32887.70046282 0 1528.21767581 0 15558.87814139 0 -903.91828080 0 -157.02007122 0 3349
0.05650000 0.05647670 31865.91552130 0 490.36999380 0 15648.73194511 0 1369.50158658 0 -289.52367490 0 3324
0.05750000 0.05747970 30679.80137397 0 -121.93974023 0 16031.32460812 0 1434.46434883 0 1904.82374676 0 3639
0.05850000 0.05849280 31960.38284550 0 275.55459395 0 15377.96223098 0 1442.10961134 0 1971.59896348 0 3846
0.05950000 0.05951020 32837.50096612 0 -1127.07206971 0 14380.34334914 0 2691.37406645 0 4277.99671467 0 3787
0.06050000 0.06049470 32786.64239507 0 -247.05512038 0 12909.72877195 0 642.81718746 0 2029.53159927 0 3930
0.06150000 0.06148310 31936.87586017 0 952.26687702 0 12751.55092678 0 -2147.82446140 0 1247.00163315 0 4083
0.06250000 0.06249100 31795.61425678 0 1173.60271916 0 13938.32414847 0 399.29909945 0 1624.29973218 0 4303
0.06350000 0.06350600 31680.16639895 0 123.21504910 0 13252.00805358 0 -283.61946714 0 -647.36699742 0 4470
0.06450000 0.06451750 29971.29644247 0 -47.09690417 0 13804.53205443 0 351.51950409 0 -2220.13590271 0 4479
0.06550000 0.06550280 29283.22281597 0 1489.54099575 0 14221.50642961 0 -908.35494967 0 -1642.05080147 0 4636
0.06650000 0.06648880 28969.06404015 0 187.02223431 0 13491.80127303 0 1117.13103152 0 -1007.69612872 0 4653
0.06750000 0.06749660 28423.46032003 0 -206.84938782 0 12416.41161732 0 2371.45937459 0 -1031.27121840 0 5220
0.06850000 0.06852730 28715.97948787 0 -436.30722293 0 10274.48587139 0 1182.24757778 0 -2790.58672600 0 5029
0.06950000 0.06949320 29341.22135920 0 734.46147651 0 11157.90913668 0 510.53437369 0 -1373.31323326 0 5040
0.07050000 0.07048030 28135.11528977 0 -205.37635664 0 9427.08101961 0 -331.85382380 0 -1646.59841452 0 5475
0.07150000 0.07148790 27274.36418230 0 315.45056156 0 9475.54495384 0 1533.05088774 0 -158.29208473 0 5509
0.07250000 0.07249820 27425.40205529 0 580.14800397 0 10123.94230417 0 -380.04204525 0 -1267.85035191 0 5916
0.07350000 0.07351270 26945.26638776 0 875.87906083 0 10783.35718080 0 -391.27267226 0 -244.37598313 0 5721
0.07450000 0.07449140 25869.43734914 0 492.86129487 0 10985.56119288 0 1125.08386207 0 648.59617110 0 6028
0.07550000 0.07549160 26252.79893223 0 -213.89489268 0 9603.06485693 0 645.73578840 0 1527.54761688 0 6183
0.07650000 0.07648840 26127.57480481 0 -73.26127729 0 9542.83644547 0 991.74433242 0 1002.03907384 0 6330
0.07750000 0.07749960 25823.30214430 0 55.99012398 0 9466.55957346 0 603.92630824 0 -11.42856901 0 6583
0.07850000 0.07848650 26092.09463537 0 619.43103243 0 9813.04594640 0 -1618.28018640 0 1130.29054948 0 6549
0.07950000 0.07947320 25081.84349506 0 494.27500936 0 9999.32232823 0 412.46630660 0 -19.71642902 0 6828
0.08050000 0.08048110 25272.75536653 0 -60.91890170 0 9438.54891338 0 -733.00382372 0 -129.55644285 0 7147
0.08150000 0.08149960 24751.75708899 0 506.94022154 0 10276.52900190 0 1279.48301427 0 -1360.18666903 0 7386
0.08250000 0.08250610 23975.47734467 0 616.80462113 0 9881.94118563 0 -380.70441498 0 268.86828462 0 7227
0.08350000 0.08350160 23490.39861948 0 235.20606194 0 10237.42392351 0 274.74722786 0 -64.36542119 0 7798
0.08450000 0.08449610 23265.87395591 0 -291.10325644 0 7915.57087870 0 1946.03786308 0 -1019.89010275 0 7371
0.08550000 0.08548940 22882.84191000 0 -285.40885401 0 8162.19650229 0 1392.10783695 0 930.19337842 0 8256
0.08650000 0.08650700 22638.21547862 0 950.20067892 0 7304.52107514 0 -676.33001995 0 -236.17599970 0 8037
0.08750000 0.08749060 21253.82979619 0 1429.51030659 0 7655.00583249 0 -625.39016306 0 349.08312589 0 8155
0.08850000 0.08849210 20546.64301340 0 414.31610862 0 7921.96389994 0 -21.84930348 0 -263.69455093 0 8718
0.08950000 0.08949900 20162.95189314 0 -37.44508978 0 8231.87164618 0 1781.69767269 0 -293.84720267 0 8571
0.09050000 0.09049190 19657.33201722 0 506.72492392 0 8268.37338086 0 -1561.72062218 0 -1752.74233937 0 8932
0.09150000 0.09150830 18907.08570991 0 457.30093805 0 7451.39579513 0 -228.80315458 0 -1254.86658712 0 9285
0.09250000 0.09250820 18879.40458701 0 68.63885931 0 8216.37241426 0 556.66957853 0 -1457.72967355 0 9204
0.09350000 0.09350330 18651.69439739 0 358.41452030 0 7541.00793825 0 477.82121809 0 -1058.71617299 0 9349
0.09450000 0.09448040 17882.55462525 0 236.28474697 0 7623.85358465 0 371.21923656 0 -267.69842764 0 9564
0.09550000 0.09549270 18065.88714163 0 -79.22688882 0 6838.24793821 0 1486.65205316 0 -122.11549339 0 10155
0.09650000 0.09649430 17967.57521703 0 -32.20687665 0 6294.61045659 0 883.34637327 0 420.92662440 0 9913
0.09750000 0.09749140 17485.90170934 0 547.72593954 0 6243.94960784 0 822.16889474 0 1419.90979015 0 10476
0.09850000 0.09850240 17305.97441045 0 73.46943494 0 5588.71985336 0 -430.66554645 0 2199.97921202 0 10575
0.09950000 0.09950330 16358.11564241 0 440.33636415 0 6526.85727467 0 -525.59422270 0 1273.61725252 0 10882
0.10050000 0.10051200 16250.57667684 0 408.29875976 0 6438.57426484 0 -179.75923492 0 1077.03514469 0 10875
0.10150000 0.10150300 16093.49728893 0 -223.14609970 0 6576.45261988 0 407.51995357 0 544.02194166 0 11118
0.10250000 0.10250800 16464.44630500 0 147.49424988 0 5703.51962141 0 578.78701543 0 -189.97159205 0 11575
0.10350000 0.10349800 16863.84536406 0 -136.67883972 0 6282.21985871 0 -566.06028963 0 35.12075422 0 11364
0.10450000 0.10450100 16029.23753933 0 -9.83481737 0 5657.96659892 0 -243.05234214 0 -498.54910655 0 12093
0.10550000 0.10551000 16437.75379363 0 252.68581229 0 6093.87837723 0 -46.32040474 0 -625.34402786 0 12067
0.10650000 0.10649700 16124.47378361 0 -94.99535260 0 5983.82394454 0 762.52266562 0 -919.13960303 0 12054
0.10750000 0.10749900 16560.56131508 0 237.03169790 0 5858.44603310 0 549.68668574 0 -15.50769003 0 12807
0.10850000 0.10850100 15836.34844480 0 311.63671796 0 5766.12070055 0 -248.54682534 0 -525.61289647 0 12736
0.10950000 0.10950300 15566.45749647 0 313.08997691 0 5822.63632648 0 328.81768794 0 1117.65829101 0 12933
0.11050000 0.11050200 15203.63706411 0 159.22357648 0 5760.06820106 0 309.98903207 0 954.66151384 0 13428
0.11150000 0.11150900 14980.97977789 0 24.01864671 0 4974.40763175 0 321.44813819 0 331.35622266 0 13453
0.11250000 0.11250000 14597.06896617 0 384.04262659 0 5551.63593633 0 42.65232641 0 1439.18771504 0 13668
0.11350000 0.11349100 14363.97633599 0 145.25559399 0 5304.51600697 0 250.55700212 0 437.19697331 0 13791
0.11450000 0.11448600 14291.25846550 0 124.68917874 0 4976.47273140 0 649.39694644 0 537.17745449 0 14205
0.11550000 0.11549300 14235.67652824 0 27.08828552 0 4589.22260961 0 -52.56744101 0 366.80673375 0 14776
0.11650000 0.11649800 13965.89542565 0 146.39469416 0 4512.00106437 0 -256.84676838 0 162.63208935 0 14553
0.11750000 0.11747300 13761.36268418 0 257.26967443 0 4531.04831322 0 -334.00570157 0 -482.29523450 0 14568
0.11850000 0.11849100 13502.67599989 0 173.98354666 0 5075.07025489 0 -496.68831995 0 -828.77831206 0 16015
0.11950000 0.11950300 13366.24760843 0 83.31655504 0 4530.89452921 0 223.74475891 0 -449.07898547 0 15270
0.12050000 0.12050700 13497.62309650 0 -255.06726763 0 4878.40246739 0 585.85119405 0 -1228.91004211 0 15999
0.12150000 0.12150000 13682.27376160 0 203.61772657 0 4484.28698774 0 540.40691883 0 -743.42708465 0 15670
0.12250000 0.12250700 13281.44670810 0 255.90868588 0 4317.99154344 0 -323.48138258 0 -248.51497008 0 16887
0.12350000 0.12352200 13276.50365044 0 -78.28759802 0 4519.86601834 0 528.36782728 0 376.91583590 0 16407
0.12450000 0.12449800 13175.22589124 0 83.72518114 0 4240.94575135 0 508.22431808 0 -638.47718283 0 16306
0.12550000 0.12549900 13281.33686238 0 127.53967533 0 4201.70885809 0 -31.25835881 0 316.87965445 0 17523
0.12650000 0.12650100 12790.10677654 0 100.23960725 0 4190.30687175 0 -271.29807207 0 272.71837731 0 17154
0.12750000 0.12750600 12607.21364306 0 238.21253946 0 4216.82362996 0 145.63016791 0 319.36326632 0 18007
0.12850000 0.12850300 12538.12068152 0 118.97939791 0 4184.78163174 0 -61.57896466 0 106.82200252 0 17496
0.12950000 0.12949900 12500.55344329 0 165.17282099 0 4165.26204626 0 459.69777179 0 450.18842730 0 18405
0.13050000 0.13049000 12469.13756571 0 -222.38267191 0 4136.80101871 0 102.57284031 0 326.48895855 0 18100
0.13150000 0.13148800 12336.88331183 0 204.22407498 0 4367.24636689 0 -304.58791774 0 -63.23038530 0 19059
0.13250000 0.13249300 12073.14372415 0 382.43228825 0 4235.62921822 0 -105.36511866 0 428.33901398 0 18957
0.13350000 0.13349100 12154.97878989 0 47.42138845 0 4359.59011980 0 35.56760664 0 393.76507178 0 19468
0.13450000 0.13450700 12014.70579802 0 -90.00077730 0 4364.66499233 0 351.36132624 0 267.93679286 0 19953
0.13550000 0.13551000 12004.38029980 0 161.99168877 0 4449.20226292 0 62.60832896 0 92.93442710 0 19956
0.13650000 0.13649900 11494.25674912 0 345.08364301 0 4365.62065015 0 -31.26165418 0 1110.61717998 0 19723
0.13750000 0.13749600 11331.13584628 0 175.82456102 0 4694.52072238 0 -108.82657717 0 976.24949434 0 20946
0.13850000 0.13851100 11419.56165556 0 33.75921645 0 4601.51434633 0 643.69815018 0 742.30885516 0 20955
0.13950000 0.13949800 11222.60826918 0 -132.15649118 0 4077.64909536 0 285.29351600 0 1367.67814753 0 20506
0.14050000 0.14048300 11008.51894957 0 185.28557339 0 4053.09857564 0 137.25223440 0 703.68160568 0 21447
0.14150000 0.14148400 10998.85252570 0 315.64498850 0 4245.52631812 0 46.68992576 0 1009.49100788 0 21771
0.14250000 0.14249400 10745.76797342 0 80.28349485 0 3980.97387207 0 -35.97238814 0 912.70264350 0 22470
0.14350000 0.14350900 10572.01400433 0 16.75542763 0 3709.23751555 0 472.56400165 0 1150.32640986 0 22519
0.14450000 0.14449900 10666.20671422 0 -38.32077991 0 3492.84143570 0 202.04693269 0 794.10880408 0 22218
0.14550000 0.14550500 10361.73633141 0 32.68701232 0 3219.41345500 0 308.35452767 0 1218.71635875 0 23559
0.14650000 0.14650700 10622.66386851 0 99.68960970 0 2982.55311643 0 297.41499184 0 816.33828361 0 23044
0.14750000 0.14750500 10283.91063467 0 142.90160008 0 2806.47041795 0 21.55722369 0 1216.77208941 0 23649
0.14850000 0.14849900 10195.33104137 0 41.95711281 0 2861.05275911 0 120.99726390 0 1409.91382911 0 23640
0.14950000 0.14949500 10099.87510564 0 91.31398295 0 2801.39554542 0 -162.69140605 0 955.85114305 0 24457
0.15050000 0.15050000 9963.56754448 0 189.65633482 0 2922.80802616 0 98.41891434 0 1073.08179701 0 24591
0.15150000 0.15149900 9961.38161454 0 189.31141924 0 2944.27188099 0 -89.75087827 0 884.23832057 0 25020
0.15250000 0.15250500 9766.40545122 0 -30.92640503 0 2941.39392297 0 170.93093394 0 1137.12295362 0 25297
0.15350000 0.15350100 9688.78846136 0 25.57812648 0 3041.34254889 0 32.15546885 0 574.03289241 0 25452
0.15450000 0.15450400 9578.38252234 0 181.18942627 0 2815.13724572 0 -260.81659291 0 449.81495183 0 26061
0.15550000 0.15549900 9431.57370979 0 246.22468670 0 3219.89677620 0 -16.51277842 0 671.49131573 0 26128
0.15650000 0.15649500 9062.12958016 0 -91.62352820 0 2969.60230536 0 182.88434582 0 827.67216560 0 26331
0.15750000 0.15749700 9510.36604892 0 -54.80829381 0 2889.63461697 0 452.65556230 0 239.27584608 0 27345
0.15850000 0.15849900 9507.05969257 0 89.01161654 0 2638.09888943 0 -259.69177268 0 -19.49366189 0 26980
0.15950000 0.15949700 9317.98224473 0 119.82960383 0 2563.16213528 0 -32.47709714 0 468.10096981 0 27777
0.16050000 0.16050000 9147.41380169 0 36.86686188 0 2486.20421977 0 244.32325718 0 470.59117241 0 28224
0.16150000 0.16150500 9260.22536210 0 1.24093815 0 2597.03855712 0 -28.20772331 0 152.26814512 0 28075
0.16250000 0.16249700 9100.28998531 0 181.88145434 0 2449.18621017 0 -201.33952622 0 -90.80034433 0 28590
0.16350000 0.16349900 8821.74319379 0 170.07303882 0 2769.63914609 0 19.84868327 0 -20.31234208 0 29163
0.16450000 0.16449100 8764.76621582 0 164.72465043 0 2830.95503024 0 -95.05851390 0 20.81290905 0 28996
0.16550000 0.16550500 8765.18362957 0 -80.38696953 0 2711.10235880 0 211.44313608 0 -125.34385927 0 30777
0.16650000 0.16650700 8771.65354282 0 25.89261480 0 2622.48981179 0 258.77675779 0 -107.82511369 0 29211
0.16750000 0.16749900 8619.38539770 0 128.10538082 0 2509.85400454 0 -52.33599606 0 -68.58723182 0 30922
0.16850000 0.16850800 8544.19599838 0 29.61407814 0 2422.28499192 0 -166.65903366 0 85.05475380 0 30867
0.16950000 0.16949900 8376.70323566 0 107.86949136 0 2352.00569654 0 381.20531149 0 -132.23448165 0 30852
0.17050000 0.17049200 8366.45462944 0 123.33807632 0 2470.88074102 0 -123.42375598 0 6.35138971 0 31257
0.17150000 0.17149500 8134.70211712 0 65.14851137 0 2243.84061034 0 218.11736238 0 -33.89026240 0 32608
0.17250000 0.17250900 8319.79216512 0 185.97210917 0 2436.40016769 0 -19.72378868 0 -130.70762606 0 32361
0.17350000 0.17350400 7918.74542017 0 46.55415644 0 2131.81993915 0 -138.89332955 0 263.69894476 0 32508
0.17450000 0.17449800 7982.17034226 0 -79.19734032 0 2223.78278080 0 244.95157473 0 -137.30056652 0 32791
0.17550000 0.17549800 7991.04587690 0 96.95609881 0 2294.14995276 0 172.98724593 0 227.28728357 0 33633
0.17650000 0.17650100 7891.09725099 0 191.06565548 0 2015.03196347 0 35.41492108 0 118.84099230 0 33984
0.17750000 0.17750300 7874.96091386 0 31.39017368 0 2212.66639335 0 -4.37394696 0 -186.73004468 0 34069
0.17850000 0.17849800 7495.70756092 0 101.78821229 0 2241.69861868 0 -197.37958780 0 -44.33615154 0 34536
