### header ###
fiducial parameters:
Omega_m = 0.31
Omega_nu = 0
Omega_de = 0.69
Omega_k = 0
H_0 = 100
w_de = -1
zeff = 0
beta = 0
fgrowth = 0
b_1 = 2
gamma = 0.55
Lx = 3500 Ly = 3500 Lz = 3500
nx = 700 ny = 700 nz = 700
xoffset = -983.599254 yoffset = -42.9823471 zoffset = 800.977702
bins = 400 dk = 0.001
kx_ny = 0.628318531 ky_ny = 0.628318531 kz_ny = 0.628318531
############################
A(data) = 9.11822396 (not used)
A(ran) = 9.13298496 (used)
Ngal = 507503
weighted Ngal = 0
Nran = 25229228
weighted Nran = 0
SN(data) = 6702.40494
SN(ran) = 135.57287
SN(data+ran) = 6837.97781
############################
13 columns: k_central k_mean P_0(k) sigma^{lin}_{P_0(k)} P^img_1(k) sigma^{lin}_{P_1(k)} P_2(k) sigma^{lin}_{P_2(k)} P^img_3(k) sigma^{lin}_{P_3(k)} P_4(k) sigma^{lin}_{P_4(k)} N_modes
### header ###
0.00050000 0 0 0 0 0 0 0 0 0 0 0 0
0.00150000 0.00179520 24327.31320445 0 -11717.02388107 0 10619.18175900 0 -26592.55176217 0 28248.36623309 0 3
0.00250000 0.00253879 16093.60713465 0 243.66967511 0 -9924.34163579 0 21468.35849870 0 22819.57077193 0 6
0.00350000 0.00331552 16844.95189922 0 1059.82341791 0 6279.74832988 0 15877.65043770 0 7619.53664763 0 7
0.00450000 0.00420575 16706.10690179 0 -8834.67203572 0 357.39185659 0 12635.99322322 0 -853.17724468 0 24
0.00550000 0.00557378 40896.88186905 0 -15572.49901139 0 -6316.56861718 0 1689.65793903 0 -8381.19592585 0 45
0.00650000 0.00659388 66955.36371232 0 -378.29989204 0 -16645.14252396 0 -3569.76639748 0 33741.97067247 0 40
0.00750000 0.00754703 59286.48436465 0 5516.51825779 0 -9001.18717148 0 -15002.50954015 0 843.71513386 0 57
0.00850000 0.00846663 73291.48486869 0 -1328.08974795 0 24015.90057177 0 -4155.58463782 0 11108.91794296 0 75
0.00950000 0.00948925 57826.63466859 0 8573.44791517 0 31329.42899643 0 -6521.31006552 0 32854.41720789 0 112
0.01050000 0.01054430 49920.15901599 0 -2406.51114569 0 35387.34979943 0 11988.45266955 0 18317.10431657 0 105
0.01150000 0.01145670 52286.45564147 0 3216.88700331 0 36124.74415681 0 23803.89832095 0 30078.72556231 0 144
0.01250000 0.01249090 63698.98717058 0 -7152.03323857 0 25442.79655008 0 19248.92560864 0 39050.15552668 0 169
0.01350000 0.01339930 69302.98656440 0 -4847.19529669 0 23226.43934035 0 33106.18361146 0 28738.71755312 0 180
0.01450000 0.01448870 69957.55724453 0 -2793.17908513 0 7599.19321921 0 1632.91163708 0 27701.55420999 0 267
0.01550000 0.01550050 79974.16929000 0 4196.46921697 0 13800.24807112 0 -19968.85449562 0 18721.11689611 0 238
0.01650000 0.01653350 74103.57431963 0 693.48682386 0 16268.26183870 0 -10332.47343005 0 7797.97004464 0 315
0.01750000 0.01747870 73144.95067045 0 2936.68154133 0 27576.33008256 0 -2777.80068352 0 -5035.99813022 0 297
0.01850000 0.01844180 65603.82190191 0 519.06828813 0 28958.95823337 0 -10746.37212492 0 -11328.93893177 0 388
0.01950000 0.01947590 68422.02384338 0 5894.61823061 0 36401.33569441 0 406.91470362 0 -9784.02470564 0 399
0.02050000 0.02045430 70706.04602022 0 -2949.87401300 0 29908.24499585 0 7578.05890156 0 -20795.77311955 0 462
0.02150000 0.02154770 68814.72231316 0 473.77779692 0 41339.12076118 0 1494.64882200 0 -20681.20402752 0 571
0.02250000 0.02255340 69460.06595232 0 3642.69297485 0 29022.88844580 0 5153.25844252 0 -417.56973902 0 510
0.02350000 0.02348930 68020.09833263 0 -2206.47109441 0 30382.00961129 0 3332.30190742 0 -4804.71795452 0 555
0.02450000 0.02439640 71898.97060255 0 -6291.39197682 0 21438.59030701 0 15494.28885461 0 3337.51957940 0 592
0.02550000 0.02547300 70609.71131868 0 459.87791878 0 19473.12073503 0 -1055.14728536 0 -8719.68552994 0 837
0.02650000 0.02652900 73375.84638611 0 5208.73053406 0 20133.51323862 0 -3805.37449478 0 5055.60559227 0 723
0.02750000 0.02749970 70301.70390350 0 5374.65250290 0 29013.99094201 0 -5024.84878905 0 -6834.37038409 0 826
0.02850000 0.02848090 63225.00286370 0 -7.34632836 0 27602.14382813 0 2649.75352093 0 8345.17751235 0 831
0.02950000 0.02946900 63940.64776737 0 1729.41110721 0 34604.36946583 0 3715.86121282 0 -1573.25442339 0 996
0.03050000 0.03053250 60497.09410884 0 -440.91085730 0 22366.12761578 0 4390.13821615 0 556.05663938 0 1041
0.03150000 0.03150510 63612.64843009 0 1675.83934673 0 31624.47461596 0 6882.72447259 0 2077.23759799 0 1036
0.03250000 0.03246190 60480.72709570 0 1582.83297068 0 30177.03748692 0 -12686.41241137 0 -4536.82619840 0 1059
0.03350000 0.03345080 58424.63479992 0 2777.25145489 0 29808.06569391 0 3654.17185320 0 2840.05025633 0 1302
0.03450000 0.03451200 55170.89455560 0 -45.87168495 0 30270.51619958 0 3470.69653737 0 2070.28436355 0 1339
0.03550000 0.03553350 55576.66466676 0 -454.49987204 0 28764.75099013 0 4568.68145889 0 3170.36733843 0 1365
0.03650000 0.03647120 57094.51290605 0 1256.00898267 0 22392.27089852 0 16055.16113062 0 3746.24454058 0 1308
0.03750000 0.03744890 55365.54118174 0 -986.09716366 0 23532.57937819 0 -2377.06150660 0 9501.33673026 0 1579
0.03850000 0.03847530 52407.17609414 0 2136.83988882 0 18926.19886620 0 -2019.66745310 0 3724.59394802 0 1662
0.03950000 0.03950240 51369.57336810 0 5562.82921579 0 24929.59731908 0 -4127.11262569 0 1637.14069752 0 1683
0.04050000 0.04050350 44569.68355735 0 1481.39044289 0 25141.59956990 0 -628.37357297 0 8482.45171590 0 1822
0.04150000 0.04152450 46109.83047898 0 115.70929066 0 27403.43291013 0 7671.21906162 0 2273.19138827 0 1887
0.04250000 0.04250150 45709.00342549 0 -1938.17290912 0 21111.68942699 0 1288.52331751 0 2116.81501301 0 1920
0.04350000 0.04349210 45321.68739627 0 940.84292154 0 20504.79179187 0 -748.82380516 0 -5329.62673989 0 2005
0.04450000 0.04448520 43645.88100326 0 3169.41168061 0 22534.19157627 0 -1672.95040414 0 3355.83086189 0 2151
0.04550000 0.04548030 40344.35786821 0 811.31833394 0 21011.51012504 0 586.30485690 0 -1004.66328823 0 2274
0.04650000 0.04648670 42544.12837335 0 -1068.31778789 0 22359.86640940 0 5278.61438482 0 882.78945544 0 2311
0.04750000 0.04749250 43046.78241467 0 -465.61845641 0 19349.32460204 0 1571.99119754 0 -5635.14065709 0 2568
0.04850000 0.04851840 41461.15936255 0 865.23940383 0 15683.55304019 0 1899.51819820 0 159.35648981 0 2493
0.04950000 0.04949480 40656.64926670 0 748.94793083 0 17790.06452411 0 377.73748193 0 838.04819286 0 2644
0.05050000 0.05050630 39119.57802539 0 1529.78846969 0 17624.08763241 0 195.67478214 0 2471.58375367 0 2829
0.05150000 0.05149060 39604.21736768 0 492.26593103 0 15717.71506092 0 1805.20465802 0 1464.57306227 0 2784
0.05250000 0.05249300 38308.69687743 0 521.09054794 0 17630.56853023 0 291.78210302 0 -1544.33204378 0 3055
0.05350000 0.05348950 37058.54267195 0 585.02295728 0 17047.83695479 0 1334.99904410 0 2451.46001670 0 3009
0.05450000 0.05448610 35720.40204009 0 798.36862133 0 14680.55171779 0 1562.62135713 0 4509.01326063 0 3336
0.05550000 0.05550870 36325.87168078 0 -311.78171432 0 16896.90892753 0 2509.79908168 0 4873.05298054 0 3349
0.05650000 0.05647670 35182.04813788 0 1126.13838104 0 14522.04433544 0 -1326.89242954 0 2461.63173091 0 3324
0.05750000 0.05747970 34036.02768047 0 2064.55041666 0 16313.40843200 0 -1218.60651303 0 2778.39385043 0 3639
0.05850000 0.05849280 33336.53009849 0 -32.34033921 0 17070.68486576 0 -393.42455003 0 2337.67082933 0 3846
0.05950000 0.05951020 32476.32821964 0 -5.71064861 0 19304.28785445 0 2037.67116756 0 4061.49078909 0 3787
0.06050000 0.06049470 31989.27227139 0 956.12795428 0 16255.51973450 0 710.40855792 0 4190.86708495 0 3930
0.06150000 0.06148310 31978.83692744 0 -415.20695746 0 16908.55257446 0 635.10601751 0 4275.07481836 0 4083
0.06250000 0.06249100 32616.27167433 0 -109.00430755 0 15851.61700068 0 3720.51867159 0 3638.20028467 0 4303
0.06350000 0.06350600 32366.04311093 0 -417.28963242 0 15110.81742580 0 1234.20460609 0 4234.76143699 0 4470
0.06450000 0.06451750 32286.07542254 0 294.61172892 0 12270.75618489 0 431.46522334 0 5387.36165337 0 4479
0.06550000 0.06550280 32138.77230422 0 163.84258925 0 12563.49504419 0 206.87025851 0 4357.64585045 0 4636
0.06650000 0.06648880 31188.82646739 0 -26.30299843 0 11851.80458664 0 1435.35409920 0 3319.20829690 0 4653
0.06750000 0.06749660 31629.30782790 0 1139.26494527 0 11751.40559325 0 -148.96288723 0 808.59196303 0 5220
0.06850000 0.06852730 29905.16931553 0 986.43768541 0 11522.59694638 0 450.87606155 0 1111.51791493 0 5029
0.06950000 0.06949320 29850.46614407 0 238.45200314 0 12117.08201448 0 -786.71838365 0 1840.81664233 0 5040
0.07050000 0.07048030 29021.02106846 0 -475.52434396 0 10398.89714045 0 2085.25633598 0 -452.96972108 0 5475
0.07150000 0.07148790 29272.34808912 0 363.19720320 0 10868.61943317 0 -372.21334038 0 672.15148854 0 5509
0.07250000 0.07249820 27720.99690346 0 1741.74678222 0 11864.54669083 0 -2607.60571594 0 -1331.49496545 0 5916
0.07350000 0.07351270 26733.48382839 0 651.32254201 0 12773.95945484 0 -534.82895287 0 54.48743445 0 5721
0.07450000 0.07449140 26429.10132216 0 -578.84633212 0 12731.22946750 0 1596.78337786 0 -777.44191210 0 6028
0.07550000 0.07549160 27365.31644327 0 544.41518936 0 12792.30369105 0 2144.61696621 0 -137.15996399 0 6183
0.07650000 0.07648840 25539.02140590 0 274.87794428 0 11804.13154164 0 -1194.69309852 0 812.59364282 0 6330
0.07750000 0.07749960 25372.60513129 0 972.54769338 0 12681.46935371 0 849.47764063 0 1204.40346068 0 6583
0.07850000 0.07848650 25042.73841667 0 -77.08731377 0 12109.94204230 0 1478.00719454 0 3350.83288137 0 6549
0.07950000 0.07947320 25016.81482538 0 -414.70496249 0 11429.99699952 0 2015.02097889 0 1751.54502096 0 6828
0.08050000 0.08048110 25077.77920321 0 284.40047025 0 10230.05327530 0 544.66124379 0 2618.96376399 0 7147
0.08150000 0.08149960 24479.22984325 0 1098.57808843 0 8811.74723275 0 -1201.42664151 0 676.84190103 0 7386
0.08250000 0.08250610 23129.11602728 0 782.97154594 0 10493.52923324 0 -709.66819773 0 3383.23737048 0 7227
0.08350000 0.08350160 22711.04319483 0 -26.39592791 0 10482.45678408 0 1288.45741007 0 52.29787960 0 7798
0.08450000 0.08449610 22459.82601990 0 -591.56097488 0 9508.82820876 0 1899.67198222 0 948.11800396 0 7371
0.08550000 0.08548940 22637.55640426 0 231.05389351 0 7239.92080379 0 646.12354381 0 -475.85717651 0 8256
0.08650000 0.08650700 21884.56395381 0 653.39203548 0 7160.32659087 0 -103.44875012 0 1466.57225448 0 8037
0.08750000 0.08749060 21503.50913096 0 430.59414673 0 7265.13039786 0 -89.65575187 0 -466.47085924 0 8155
0.08850000 0.08849210 20722.17648325 0 432.03971648 0 6986.00142400 0 -138.73954553 0 -1849.58233125 0 8718
0.08950000 0.08949900 20262.91150363 0 348.73161957 0 6330.36524034 0 821.17479092 0 -2221.05860680 0 8571
0.09050000 0.09049190 20052.33724724 0 -130.09139154 0 6175.04338404 0 230.88692800 0 -914.81717372 0 8932
0.09150000 0.09150830 19782.44629892 0 175.99592036 0 5878.54780092 0 31.12950978 0 -3345.34059508 0 9285
0.09250000 0.09250820 19313.51489542 0 582.78539985 0 5724.78575393 0 -1217.02473458 0 -2292.21666798 0 9204
0.09350000 0.09350330 18613.79762199 0 741.62451629 0 6113.87029933 0 222.45736700 0 -2547.83865652 0 9349
0.09450000 0.09448040 18753.41153950 0 -153.76644082 0 6371.42557265 0 793.44863127 0 -1836.17016812 0 9564
0.09550000 0.09549270 18788.23263458 0 -347.54967956 0 5694.31454959 0 1076.28489838 0 -2031.37700747 0 10155
0.09650000 0.09649430 18567.55257142 0 317.17733637 0 5289.37926595 0 417.31160157 0 -1035.38164546 0 9913
0.09750000 0.09749140 18086.75782954 0 453.24653231 0 6003.93669694 0 -393.87491751 0 -103.82530127 0 10476
0.09850000 0.09850240 18115.09802680 0 306.83755820 0 6086.60659019 0 -282.04647634 0 -237.42274869 0 10575
0.09950000 0.09950330 17362.65480497 0 109.50300715 0 6176.72402364 0 474.15566622 0 428.75972311 0 10882
0.10050000 0.10051200 17395.27898554 0 125.27355800 0 6361.57241104 0 492.42850271 0 296.53952141 0 10875
0.10150000 0.10150300 16774.98017187 0 487.34484252 0 5531.87469025 0 -388.76050051 0 -446.09777247 0 11118
0.10250000 0.10250800 16491.24866210 0 545.33349963 0 6380.35603016 0 -159.73326065 0 218.20194358 0 11575
0.10350000 0.10349800 15912.03214988 0 264.95777678 0 6677.60954878 0 -409.62459767 0 -40.28646917 0 11364
0.10450000 0.10450100 15600.72936293 0 70.02763882 0 5837.05907028 0 992.55169851 0 -643.71682395 0 12093
0.10550000 0.10551000 15870.62031125 0 -231.58884219 0 5769.08653515 0 767.07137713 0 -602.77512503 0 12067
0.10650000 0.10649700 15545.03757994 0 -7.32600690 0 4973.83643398 0 180.42050619 0 -512.78181724 0 12054
0.10750000 0.10749900 15422.77928711 0 268.49041532 0 4781.71625953 0 95.63421534 0 -594.06326052 0 12807
0.10850000 0.10850100 15419.37406961 0 158.96324211 0 5290.88415239 0 -292.86847725 0 -412.17960926 0 12736
0.10950000 0.10950300 15057.54224878 0 207.72266134 0 5150.78691369 0 -62.14071570 0 22.96610497 0 12933
0.11050000 0.11050200 14976.58594885 0 94.47029003 0 5341.50106285 0 424.21101160 0 -364.73614182 0 13428
0.11150000 0.11150900 15129.38135346 0 91.55685185 0 5548.67010173 0 37.70487492 0 -328.21243799 0 13453
0.11250000 0.11250000 15015.80087297 0 138.51985408 0 5437.24259747 0 -264.50740930 0 11.51249114 0 13668
0.11350000 0.11349100 14737.01242086 0 7.44743036 0 5548.93373147 0 -276.57066691 0 -583.55322147 0 13791
0.11450000 0.11448600 14694.17258779 0 316.38644715 0 5680.29823497 0 -70.86905708 0 -428.77949534 0 14205
0.11550000 0.11549300 14281.15265873 0 172.32267928 0 5880.20647138 0 101.42671000 0 -60.76259123 0 14776
0.11650000 0.11649800 14633.31805569 0 -102.02591844 0 5577.64740420 0 693.81745950 0 1.72473168 0 14553
0.11750000 0.11747300 14185.25734010 0 -4.96691615 0 5173.64580923 0 870.71521326 0 -285.63623466 0 14568
0.11850000 0.11849100 14094.85430775 0 321.60631604 0 4515.47218930 0 667.03048080 0 575.87830061 0 16015
0.11950000 0.11950300 13661.95230232 0 140.59374138 0 4956.43687101 0 24.76394996 0 1043.86612932 0 15270
0.12050000 0.12050700 13641.19146014 0 28.94039431 0 4270.52720531 0 572.79932491 0 1613.97423395 0 15999
0.12150000 0.12150000 13754.66209491 0 -48.77864223 0 4058.73366137 0 497.86037385 0 1370.91859644 0 15670
0.12250000 0.12250700 13981.82305589 0 -86.62554768 0 3157.91083312 0 192.20036183 0 1007.24246588 0 16887
0.12350000 0.12352200 13676.89132103 0 137.99149614 0 3782.36181522 0 -334.95257172 0 1387.65908506 0 16407
0.12450000 0.12449800 13512.56211521 0 76.64869979 0 3504.43015977 0 -191.49844764 0 1382.32058278 0 16306
0.12550000 0.12549900 13505.75168021 0 366.03012447 0 4151.22376251 0 -288.23408608 0 389.49976225 0 17523
0.12650000 0.12650100 13160.28687253 0 282.64513555 0 4159.11068562 0 -533.31198340 0 332.55573799 0 17154
0.12750000 0.12750600 12930.70930558 0 45.53731456 0 4697.73920215 0 461.87491407 0 610.22925598 0 18007
0.12850000 0.12850300 12997.16596970 0 3.55535464 0 4478.09168881 0 243.08968968 0 257.13566264 0 17496
0.12950000 0.12949900 12837.45028436 0 -62.68873603 0 4394.63090634 0 97.56079953 0 149.77464715 0 18405
0.13050000 0.13049000 12867.54801324 0 223.77881108 0 4104.94575822 0 -128.53268069 0 -55.25020317 0 18100
0.13150000 0.13148800 12581.61958894 0 146.87471999 0 3840.11869786 0 -143.96270979 0 -307.92503089 0 19059
0.13250000 0.13249300 12320.40645296 0 341.08745551 0 4380.80132946 0 -82.19074619 0 -298.11910294 0 18957
0.13350000 0.13349100 12054.36010504 0 224.77621027 0 4163.97685127 0 103.16864352 0 279.94183224 0 19468
0.13450000 0.13450700 12026.67898214 0 -177.22948786 0 3908.27797072 0 725.75180891 0 -97.57343179 0 19953
0.13550000 0.13551000 12018.33070697 0 -28.57801326 0 3550.91687094 0 671.20461838 0 111.56590988 0 19956
0.13650000 0.13649900 11708.78545163 0 210.20407629 0 3496.26862234 0 -9.19257138 0 556.14231905 0 19723
0.13750000 0.13749600 11856.08856995 0 142.64236417 0 3422.06783456 0 -397.52948480 0 489.27922575 0 20946
0.13850000 0.13851100 11412.86106629 0 297.26010937 0 4095.97136242 0 -349.82238763 0 570.72873298 0 20955
0.13950000 0.13949800 11339.59396717 0 182.75692478 0 3753.40648190 0 202.68953019 0 321.79964451 0 20506
0.14050000 0.14048300 11556.75896711 0 -192.33217670 0 4002.70135663 0 289.36330014 0 248.98401133 0 21447
0.14150000 0.14148400 11210.52523934 0 20.32717125 0 3636.67342908 0 -1.07031698 0 214.40457684 0 21771
0.14250000 0.14249400 11153.73499910 0 145.25010170 0 3543.79886790 0 279.13226924 0 457.15704015 0 22470
0.14350000 0.14350900 11081.89589441 0 202.35779609 0 3716.33354944 0 45.87454093 0 254.09623141 0 22519
0.14450000 0.14449900 11060.58582361 0 31.31492936 0 3378.10757509 0 106.65756347 0 59.63271809 0 22218
0.14550000 0.14550500 10912.84332239 0 59.90908994 0 3421.68337452 0 -10.15573166 0 279.72323924 0 23559
0.14650000 0.14650700 10650.59763658 0 76.95297245 0 2995.87740297 0 315.81195400 0 539.74784447 0 23044
0.14750000 0.14750500 10642.84252834 0 85.25544194 0 2836.71094627 0 303.16541559 0 -56.83198162 0 23649
0.14850000 0.14849900 10721.54699088 0 54.01487814 0 2742.13377634 0 -113.30586618 0 11.49711274 0 23640
0.14950000 0.14949500 10319.35785039 0 288.90084963 0 2758.30306718 0 247.13091394 0 85.54224913 0 24457
0.15050000 0.15050000 10171.32975028 0 67.92914607 0 2684.68446174 0 122.68119887 0 776.81359455 0 24591
0.15150000 0.15149900 9955.38403791 0 58.95222382 0 2706.74148349 0 27.75175371 0 -147.87102072 0 25020
0.15250000 0.15250500 9851.97527163 0 243.16987706 0 2605.51864715 0 -107.06783725 0 210.68190520 0 25297
0.15350000 0.15350100 9745.44688673 0 29.22083044 0 2659.98015801 0 -75.53156876 0 415.37392296 0 25452
0.15450000 0.15450400 9448.83047332 0 169.18658381 0 2874.76150569 0 144.92495835 0 84.37250200 0 26061
0.15550000 0.15549900 9762.11048334 0 35.71809528 0 2720.24152319 0 39.31784956 0 155.35920385 0 26128
0.15650000 0.15649500 9337.91924396 0 -42.15505481 0 2746.03329961 0 35.20171052 0 53.13226773 0 26331
0.15750000 0.15749700 9415.63509498 0 129.65091018 0 2614.48205838 0 188.57545288 0 501.36445250 0 27345
0.15850000 0.15849900 9363.11785347 0 -30.33301842 0 2423.18572687 0 310.72829381 0 227.39383392 0 26980
0.15950000 0.15949700 9269.46338764 0 218.67428021 0 2692.14298653 0 -284.16759731 0 187.37593755 0 27777
0.16050000 0.16050000 8991.16924129 0 299.99307103 0 2655.26777637 0 -68.13247051 0 517.40412538 0 28224
0.16150000 0.16150500 8923.98759538 0 -55.72111180 0 2726.72242101 0 95.55578550 0 325.47618096 0 28075
0.16250000 0.16249700 8867.65870718 0 55.35631414 0 2517.24662189 0 287.10816739 0 80.04875454 0 28590
0.16350000 0.16349900 8810.08856229 0 77.45661510 0 2532.50419320 0 133.00120481 0 428.31265101 0 29163
0.16450000 0.16449100 8797.79682557 0 -84.71730773 0 2213.83075804 0 164.98608326 0 702.15804546 0 28996
0.16550000 0.16550500 8566.91209448 0 258.22643070 0 2298.38999778 0 191.77086504 0 624.10386961 0 30777
0.16650000 0.16650700 8518.10763850 0 90.62470102 0 2194.30018799 0 -167.06875822 0 736.00700587 0 29211
0.16750000 0.16749900 8440.39178749 0 58.55831705 0 2177.79037540 0 276.21147139 0 727.62248162 0 30922
0.16850000 0.16850800 8397.99133732 0 58.34818217 0 2183.59022973 0 -215.99074912 0 852.63790217 0 30867
0.16950000 0.16949900 8172.36821650 0 126.44890727 0 2294.67721224 0 282.51112376 0 813.61081424 0 30852
0.17050000 0.17049200 8204.80565934 0 34.53000391 0 2348.85312421 0 -246.82114899 0 318.04841298 0 31257
0.17150000 0.17149500 8008.97269936 0 252.12230372 0 2601.04792611 0 -401.92001847 0 412.55308472 0 32608
0.17250000 0.17250900 7958.19102031 0 14.40198296 0 2368.81209259 0 164.18091409 0 449.89953304 0 32361
0.17350000 0.17350400 7820.23577326 0 -146.46829080 0 2387.03549851 0 171.22641894 0 234.07465096 0 32508
0.17450000 0.17449800 8091.13730226 0 129.41803724 0 2169.00271734 0 192.25748160 0 -310.91173617 0 32791
0.17550000 0.17549800 7871.58865008 0 133.62183317 0 2150.81226514 0 -93.57768367 0 274.66154820 0 33633
0.17650000 0.17650100 7749.47315669 0 34.83032212 0 2282.70402813 0 79.89617882 0 -163.86565685 0 33984
0.17750000 0.17750300 7789.22632487 0 101.15692890 0 2180.15205851 0 -336.73097402 0 -242.82715840 0 34069
0.17850000 0.17849800 7702.30540203 0 24.98089527 0 2237.83204913 0 55.49197361 0 -426.03225374 0 34536
