### header ###
fiducial parameters:
Omega_m = 0.31
Omega_nu = 0
Omega_de = 0.69
Omega_k = 0
H_0 = 100
w_de = -1
zeff = 0
beta = 0
fgrowth = 0
b_1 = 2
gamma = 0.55
Lx = 3500 Ly = 3500 Lz = 3500
nx = 700 ny = 700 nz = 700
xoffset = -983.599254 yoffset = -42.9823471 zoffset = 800.977702
bins = 400 dk = 0.001
kx_ny = 0.628318531 ky_ny = 0.628318531 kz_ny = 0.628318531
############################
A(data) = 8.98205894 (not used)
A(ran) = 8.97005291 (used)
Ngal = 498010
weighted Ngal = 0
Nran = 25229228
weighted Nran = 0
SN(data) = 6796.81741
SN(ran) = 133.154256
SN(data+ran) = 6929.97167
############################
13 columns: k_central k_mean P_0(k) sigma^{lin}_{P_0(k)} P^img_1(k) sigma^{lin}_{P_1(k)} P_2(k) sigma^{lin}_{P_2(k)} P^img_3(k) sigma^{lin}_{P_3(k)} P_4(k) sigma^{lin}_{P_4(k)} N_modes
### header ###
0.00050000 0 0 0 0 0 0 0 0 0 0 0 0
0.00150000 0.00179520 47162.48206945 0 6542.65309004 0 -20196.56468524 0 89708.80735731 0 -43792.52504722 0 3
0.00250000 0.00253879 109398.65370937 0 -56506.94811867 0 -35910.87452865 0 5953.86901511 0 -23195.02346276 0 6
0.00350000 0.00331552 93266.27103351 0 -31427.30153813 0 -9.12856428 0 -83975.62938993 0 -22224.31678375 0 7
0.00450000 0.00420575 118646.56536560 0 376.08320530 0 -30921.57181648 0 -22089.86561536 0 42391.44281447 0 24
0.00550000 0.00557378 103565.29644005 0 18344.01651939 0 20292.46000387 0 -43967.28959699 0 -3048.82304281 0 45
0.00650000 0.00659388 71402.68761333 0 7077.67866676 0 3751.26449025 0 20733.16105583 0 29770.05907278 0 40
0.00750000 0.00754703 101045.87487279 0 -5366.89739466 0 24479.88891760 0 55590.61507394 0 -12838.87827880 0 57
0.00850000 0.00846663 85700.75651383 0 -9399.94912533 0 10689.76862241 0 -9128.82790488 0 18263.27991092 0 75
0.00950000 0.00948925 99152.24440549 0 16875.04962809 0 24537.66776938 0 -1028.02747411 0 -16057.24819941 0 112
0.01050000 0.01054430 79582.56927748 0 16745.32182590 0 21182.75961159 0 -26568.49554822 0 17742.83086201 0 105
0.01150000 0.01145670 63827.17713260 0 9502.56700239 0 58834.79874011 0 7818.56611823 0 23700.53349296 0 144
0.01250000 0.01249090 62115.01180435 0 -3322.41579210 0 33419.02423858 0 31466.29677079 0 26136.91169150 0 169
0.01350000 0.01339930 65908.64379104 0 -14859.16086796 0 19479.93117003 0 25850.32419285 0 10553.97733615 0 180
0.01450000 0.01448870 76967.36223731 0 -4559.80592424 0 4723.89346946 0 15571.29070841 0 322.86624651 0 267
0.01550000 0.01550050 71356.88194566 0 8308.62085480 0 8114.56739558 0 -20245.44603322 0 19680.72915682 0 238
0.01650000 0.01653350 77346.32999137 0 -1409.60626107 0 1875.91235172 0 -2216.46705546 0 11033.45392933 0 315
0.01750000 0.01747870 83980.57244759 0 -8596.49354844 0 13123.48855438 0 -12818.11743662 0 -25671.27565978 0 297
0.01850000 0.01844180 77810.20849148 0 -2354.92759285 0 11707.13776574 0 4811.37460550 0 -18673.55369683 0 388
0.01950000 0.01947590 85359.68553518 0 3884.04600361 0 3394.27686593 0 -9699.17986702 0 -11206.35110176 0 399
0.02050000 0.02045430 89572.26912013 0 266.33524218 0 13622.40784103 0 -6499.26402835 0 -26961.41370946 0 462
0.02150000 0.02154770 81806.28615084 0 3794.70847481 0 16906.35565995 0 -10785.44424959 0 -29942.95624521 0 571
0.02250000 0.02255340 82743.16034631 0 5178.06160741 0 27254.81164310 0 -3439.95071872 0 -27810.74086144 0 510
0.02350000 0.02348930 76083.54352742 0 3100.43954937 0 30277.87586321 0 -362.55899953 0 -31324.37609304 0 555
0.02450000 0.02439640 73780.18850283 0 4134.31850530 0 33932.00377812 0 -7453.36203362 0 -26821.03087187 0 592
0.02550000 0.02547300 68871.18301623 0 -3313.22170485 0 27344.22606392 0 5773.78793221 0 -31696.20387492 0 837
0.02650000 0.02652900 69127.89247746 0 2123.14212681 0 33882.35351006 0 3991.96942922 0 -22835.71809363 0 723
0.02750000 0.02749970 71293.06157897 0 4119.02798027 0 23982.06808822 0 -8182.22137811 0 -32138.99199567 0 826
0.02850000 0.02848090 64112.77601972 0 3721.92469688 0 27786.57480177 0 36.62849666 0 -25034.06060433 0 831
0.02950000 0.02946900 63210.17369071 0 2967.60311315 0 30621.58313928 0 274.97021469 0 -17821.59024742 0 996
0.03050000 0.03053250 59421.15522450 0 695.10375295 0 27513.60817312 0 8643.91394828 0 -17954.06419275 0 1041
0.03150000 0.03150510 58780.31526011 0 -283.87321076 0 28191.24645566 0 800.06244242 0 -18961.45934419 0 1036
0.03250000 0.03246190 58102.23759466 0 2855.27487393 0 24254.26579678 0 -186.79924749 0 -18167.60428374 0 1059
0.03350000 0.03345080 53530.45848631 0 456.79235234 0 23889.46814136 0 1132.76207831 0 -10174.51527633 0 1302
0.03450000 0.03451200 52027.65911145 0 1031.61503552 0 24717.81475972 0 2510.91950808 0 -11298.73135717 0 1339
0.03550000 0.03553350 52474.62136979 0 1571.98021297 0 24280.29923380 0 6272.94887946 0 -7680.46807174 0 1365
0.03650000 0.03647120 50238.16239222 0 125.02530666 0 17766.00831016 0 2350.86330100 0 -4607.84146014 0 1308
0.03750000 0.03744890 50575.60846192 0 275.67762116 0 18947.83847419 0 5692.19452708 0 2989.34158229 0 1579
0.03850000 0.03847530 50115.57456222 0 -1221.64923963 0 16452.47312088 0 3040.92513513 0 297.49408076 0 1662
0.03950000 0.03950240 50448.40711143 0 1356.62766751 0 14026.85980347 0 1421.71126006 0 -40.03865721 0 1683
0.04050000 0.04050350 47155.34209727 0 3784.28411543 0 16269.90952458 0 -5392.35963390 0 4599.14167866 0 1822
0.04150000 0.04152450 43751.22305431 0 2252.28774665 0 18763.40750055 0 -3526.45422780 0 4117.64392412 0 1887
0.04250000 0.04250150 42697.14346941 0 66.37889334 0 21412.44702426 0 7183.97637563 0 4978.71358420 0 1920
0.04350000 0.04349210 42741.41129691 0 -818.47368452 0 20152.29685773 0 1665.41498735 0 -570.37063591 0 2005
0.04450000 0.04448520 41860.11903871 0 1478.21590142 0 18995.62136492 0 -147.94242044 0 6224.96826642 0 2151
0.04550000 0.04548030 40256.37144183 0 1126.89631655 0 20895.40319286 0 -349.74549562 0 4022.44063356 0 2274
0.04650000 0.04648670 39119.24848821 0 1073.92651065 0 19144.68201485 0 1520.80308931 0 6604.74887885 0 2311
0.04750000 0.04749250 39659.14023058 0 49.87819795 0 19112.60706291 0 2721.97708566 0 1513.86083944 0 2568
0.04850000 0.04851840 39220.41640169 0 376.94549424 0 18939.38035330 0 -701.60552146 0 3909.20067482 0 2493
0.04950000 0.04949480 38274.20531953 0 457.93694480 0 17214.80245803 0 2736.37786031 0 4853.03908930 0 2644
0.05050000 0.05050630 36744.27405040 0 238.98145954 0 16983.02797656 0 1191.61741820 0 4358.29394024 0 2829
0.05150000 0.05149060 36263.91869142 0 840.47688186 0 16456.31772129 0 621.24458537 0 250.15276985 0 2784
0.05250000 0.05249300 35987.10746237 0 -7.12551648 0 15876.77167190 0 1518.13383818 0 3448.16717901 0 3055
0.05350000 0.05348950 35890.22353220 0 729.50963119 0 13221.03155890 0 1506.53412953 0 3272.90832347 0 3009
0.05450000 0.05448610 35314.41223749 0 337.42629747 0 14677.25634601 0 152.82725987 0 2785.57776090 0 3336
0.05550000 0.05550870 35521.47143064 0 -578.20263616 0 12524.71950297 0 527.23641630 0 1871.06815522 0 3349
0.05650000 0.05647670 33329.06058913 0 742.25283384 0 13999.83775492 0 286.40185937 0 1403.76246846 0 3324
0.05750000 0.05747970 33876.64153231 0 2179.41609215 0 13673.48610353 0 -1170.57097713 0 -299.59323258 0 3639
0.05850000 0.05849280 32965.80077387 0 383.85259348 0 13806.83881467 0 964.60145357 0 2827.39602872 0 3846
0.05950000 0.05951020 32516.09237239 0 -464.68696465 0 14346.07148269 0 1862.82972578 0 1103.20259349 0 3787
0.06050000 0.06049470 32387.46302746 0 324.72703311 0 13774.87370846 0 1431.41063765 0 2863.99662456 0 3930
0.06150000 0.06148310 30522.06291170 0 402.02437190 0 12294.04347877 0 358.51997220 0 3063.01511059 0 4083
0.06250000 0.06249100 30788.32895107 0 227.98809930 0 13107.12154124 0 -823.10807570 0 3044.80268925 0 4303
0.06350000 0.06350600 31235.51090086 0 297.51934528 0 12535.92376701 0 1661.39463378 0 1204.10687722 0 4470
0.06450000 0.06451750 30290.72781313 0 339.54961535 0 12672.35215847 0 344.93974511 0 2765.61879252 0 4479
0.06550000 0.06550280 30210.86997047 0 -188.25580181 0 10907.63663498 0 1204.02998521 0 1878.26305026 0 4636
0.06650000 0.06648880 30750.98140429 0 569.32600306 0 12601.72135677 0 63.01684521 0 1532.54559740 0 4653
0.06750000 0.06749660 29015.30909071 0 1382.15581419 0 12794.06122267 0 -2625.56549211 0 1893.03730038 0 5220
0.06850000 0.06852730 27650.69563893 0 436.47308998 0 13616.80570901 0 346.33368737 0 609.12201107 0 5029
0.06950000 0.06949320 28402.26009495 0 645.07561558 0 13398.98163472 0 983.95736892 0 -305.20305380 0 5040
0.07050000 0.07048030 28061.95803638 0 -295.49818393 0 13884.93912572 0 309.58699672 0 72.83628418 0 5475
0.07150000 0.07148790 27667.50203498 0 -764.97112685 0 12472.54278321 0 1886.68821743 0 516.54183644 0 5509
0.07250000 0.07249820 28402.47978640 0 159.19721351 0 11257.42936426 0 878.47141996 0 -1205.68865567 0 5916
0.07350000 0.07351270 27635.42708305 0 337.29887643 0 9946.22290437 0 -2090.53991539 0 -254.90249904 0 5721
0.07450000 0.07449140 27646.74119281 0 807.34191867 0 10985.89073005 0 1625.98037178 0 -2373.19493705 0 6028
0.07550000 0.07549160 26939.22487284 0 -139.75452004 0 9590.79508936 0 446.69753014 0 -1073.70242537 0 6183
0.07650000 0.07648840 26998.43171905 0 34.35479998 0 8963.22448864 0 1672.33526807 0 -3457.78966459 0 6330
0.07750000 0.07749960 26098.46568746 0 647.18794889 0 7963.30983114 0 133.99311172 0 -2614.13055205 0 6583
0.07850000 0.07848650 25217.06358354 0 676.85618098 0 8725.90279802 0 -624.47954199 0 -878.21108559 0 6549
0.07950000 0.07947320 24116.84879379 0 729.29213665 0 8547.52432387 0 144.70306999 0 -3744.81654614 0 6828
0.08050000 0.08048110 23901.55117120 0 626.42600825 0 8390.40099767 0 705.10630474 0 -1618.06049495 0 7147
0.08150000 0.08149960 22696.98294193 0 -6.81198383 0 7806.21945865 0 436.13256823 0 -1894.76187827 0 7386
0.08250000 0.08250610 22636.34810128 0 78.08471296 0 7444.72815957 0 807.78569540 0 -1004.08549972 0 7227
0.08350000 0.08350160 22411.05451763 0 272.78098937 0 7033.42182383 0 1234.27051353 0 -39.05608720 0 7798
0.08450000 0.08449610 21772.63115921 0 445.54744539 0 6493.94749522 0 422.05474001 0 64.32510781 0 7371
0.08550000 0.08548940 21942.89203422 0 96.37325739 0 6922.49960991 0 -118.04570925 0 -109.50575329 0 8256
0.08650000 0.08650700 21387.73173596 0 429.61542131 0 6553.19827972 0 -217.23639965 0 -146.07943693 0 8037
0.08750000 0.08749060 21088.51197884 0 358.17066279 0 7272.42415406 0 -812.08835248 0 482.34246816 0 8155
0.08850000 0.08849210 20834.10927786 0 308.75436612 0 6781.11717621 0 766.41010586 0 -1258.17294347 0 8718
0.08950000 0.08949900 20481.61434372 0 51.72053046 0 6938.15262584 0 209.39561175 0 -608.47392128 0 8571
0.09050000 0.09049190 19866.58812489 0 413.83608280 0 7138.17070797 0 -610.23255135 0 -662.99365038 0 8932
0.09150000 0.09150830 19153.46967291 0 -61.75779350 0 6827.36222678 0 523.99596739 0 -204.05381410 0 9285
0.09250000 0.09250820 19090.19853484 0 136.93697717 0 6257.37275553 0 1035.32013185 0 -324.82259889 0 9204
0.09350000 0.09350330 19767.28758876 0 303.74979485 0 6414.30934400 0 226.30636124 0 -848.11665209 0 9349
0.09450000 0.09448040 19307.80291768 0 162.59144643 0 5201.62351560 0 618.89608375 0 -654.38504085 0 9564
0.09550000 0.09549270 18519.76968069 0 318.71078270 0 5219.22080087 0 762.26452817 0 -139.83800279 0 10155
0.09650000 0.09649430 18385.97758665 0 117.61181863 0 4932.18293475 0 28.97730247 0 834.56388644 0 9913
0.09750000 0.09749140 17616.39843160 0 540.15427366 0 5178.10554570 0 -226.71169196 0 -629.28309558 0 10476
0.09850000 0.09850240 17474.14821667 0 412.25100898 0 5102.83925437 0 157.11344009 0 889.55595215 0 10575
0.09950000 0.09950330 16978.19476463 0 -2.99203280 0 4786.73620920 0 494.70999843 0 -345.20007948 0 10882
0.10050000 0.10051200 17233.69592287 0 267.23048484 0 4636.75285517 0 -449.17235434 0 -1126.91828569 0 10875
0.10150000 0.10150300 16790.68811066 0 367.97659073 0 5221.63740684 0 -679.36835272 0 -749.53890083 0 11118
0.10250000 0.10250800 15698.93144180 0 177.32285672 0 6303.09054662 0 -861.61339642 0 -224.19402793 0 11575
0.10350000 0.10349800 15688.82563503 0 271.52325581 0 5739.77969550 0 167.19508080 0 -687.87919956 0 11364
0.10450000 0.10450100 16117.88304006 0 47.16830389 0 5801.44708597 0 1079.17054560 0 -1113.23150826 0 12093
0.10550000 0.10551000 15718.04459810 0 89.72056085 0 5536.25753471 0 720.34300537 0 264.61835348 0 12067
0.10650000 0.10649700 15692.56038971 0 223.11424444 0 5832.29176578 0 -510.30369767 0 -669.00880232 0 12054
0.10750000 0.10749900 15074.56833628 0 273.62899837 0 5574.52778559 0 538.01887275 0 631.61072651 0 12807
0.10850000 0.10850100 15458.47914800 0 -295.10933006 0 5499.53610858 0 525.53161064 0 728.26947294 0 12736
0.10950000 0.10950300 15327.65288855 0 325.81011196 0 5111.52805128 0 87.52188880 0 -21.98463341 0 12933
0.11050000 0.11050200 15129.49119919 0 239.08032069 0 5318.02703124 0 -221.49401999 0 446.79529283 0 13428
0.11150000 0.11150900 14588.83053673 0 128.02299652 0 5228.19519667 0 22.34218125 0 636.07925064 0 13453
0.11250000 0.11250000 14392.42637898 0 106.65437794 0 5329.91233877 0 89.95277471 0 21.01008213 0 13668
0.11350000 0.11349100 14406.15709471 0 167.01932764 0 4768.78741760 0 587.92947519 0 388.88682310 0 13791
0.11450000 0.11448600 14202.39327332 0 330.08091378 0 5238.60857148 0 -98.24393010 0 696.86567839 0 14205
0.11550000 0.11549300 13709.07611869 0 205.32143378 0 4866.23156097 0 -18.95750490 0 536.49860790 0 14776
0.11650000 0.11649800 13571.10988707 0 -12.80768209 0 5218.69354139 0 586.52784372 0 700.06658284 0 14553
0.11750000 0.11747300 13624.27521837 0 70.15154480 0 4651.09870696 0 556.81896872 0 794.01213984 0 14568
0.11850000 0.11849100 13439.51470755 0 -51.16976399 0 4703.53905647 0 126.60049437 0 1686.38453641 0 16015
0.11950000 0.11950300 13780.91522338 0 136.51956341 0 3868.70055571 0 229.45453974 0 840.93933237 0 15270
0.12050000 0.12050700 13315.27919165 0 182.02535225 0 4465.44844577 0 178.27412071 0 1333.94452513 0 15999
0.12150000 0.12150000 13381.51616432 0 -1.84661650 0 4442.33690506 0 -366.04110904 0 1192.45224571 0 15670
0.12250000 0.12250700 13534.09187747 0 77.37104528 0 4350.12141824 0 189.65084253 0 1134.51960992 0 16887
0.12350000 0.12352200 13199.28210519 0 89.06401295 0 4601.21776287 0 80.34676599 0 958.11945729 0 16407
0.12450000 0.12449800 13188.73691552 0 -19.15588628 0 4412.09637674 0 -280.49435624 0 735.30399322 0 16306
0.12550000 0.12549900 12684.65487976 0 233.53311154 0 4823.85307995 0 76.87531152 0 1522.18714546 0 17523
0.12650000 0.12650100 12796.69752009 0 217.98225213 0 4452.02529807 0 545.63447692 0 1094.44898760 0 17154
0.12750000 0.12750600 12723.54026670 0 250.32522764 0 5311.75484030 0 -309.21242279 0 1039.43605120 0 18007
0.12850000 0.12850300 12590.95647564 0 121.04339910 0 4654.20734101 0 32.65153215 0 1038.28047416 0 17496
0.12950000 0.12949900 12367.96965224 0 15.77692191 0 5352.04625253 0 344.59702645 0 1653.36491123 0 18405
0.13050000 0.13049000 12351.71248482 0 -104.55116183 0 4525.55602693 0 -6.55591147 0 1141.68155124 0 18100
0.13150000 0.13148800 12294.04347877 0 217.54945997 0 4705.96664701 0 219.80678964 0 932.87251567 0 19059
0.13250000 0.13249300 11908.15544398 0 127.22991038 0 4619.81464425 0 -21.78932771 0 1678.59647445 0 18957
0.13350000 0.13349100 12085.77598262 0 122.15943168 0 4434.52687395 0 285.40555864 0 963.50299631 0 19468
0.13450000 0.13450700 11887.28475608 0 38.32781003 0 4523.31517413 0 517.56340169 0 1600.95751544 0 19953
0.13550000 0.13551000 11875.64110914 0 -118.73883578 0 3575.40148322 0 885.87062805 0 1735.30982268 0 19956
0.13650000 0.13649900 12142.01699424 0 -131.95437505 0 3216.86503416 0 61.61477437 0 1029.25335241 0 19723
0.13750000 0.13749600 11757.88649107 0 221.98393192 0 3137.60035842 0 -394.16381177 0 1022.34295780 0 20946
0.13850000 0.13851100 11654.52166308 0 377.86380451 0 3387.69710695 0 -390.76298809 0 562.25962752 0 20955
0.13950000 0.13949800 11348.93085387 0 40.95971362 0 3475.41990358 0 67.50711879 0 777.53857634 0 20506
0.14050000 0.14048300 11250.17954636 0 -43.08643672 0 3055.31492521 0 301.65393840 0 114.93597675 0 21447
0.14150000 0.14148400 11340.25304153 0 28.38325678 0 3247.46805338 0 331.49462827 0 97.28893136 0 21771
0.14250000 0.14249400 11118.69421256 0 175.33025526 0 2610.63745797 0 -192.42884094 0 190.93603752 0 22470
0.14350000 0.14350900 10945.50045667 0 200.71999632 0 3350.34956017 0 96.15894838 0 86.61379419 0 22519
0.14450000 0.14449900 10851.51645367 0 209.40220249 0 3104.73451725 0 -237.49085304 0 157.06950180 0 22218
0.14550000 0.14550500 10420.65757873 0 263.58690212 0 3352.61238212 0 -177.51508674 0 -21.48988826 0 23559
0.14650000 0.14650700 10203.05319590 0 70.03807416 0 3269.76673572 0 -134.87187753 0 423.97704021 0 23044
0.14750000 0.14750500 10241.44427707 0 -112.97632900 0 3131.19635260 0 832.03963166 0 -124.89459025 0 23649
0.14850000 0.14849900 10185.53280263 0 23.34968624 0 2716.52873766 0 470.33633033 0 448.70111617 0 23640
0.14950000 0.14949500 10239.53296144 0 128.94679908 0 2517.70797393 0 22.58735691 0 437.06845381 0 24457
0.15050000 0.15050000 10039.62472503 0 138.72087176 0 2474.22005108 0 106.80695365 0 298.58594728 0 24591
0.15150000 0.15149900 9722.76374435 0 180.68743131 0 2304.35462069 0 -206.07387700 0 244.04974133 0 25020
0.15250000 0.15250500 9538.82707648 0 190.50544228 0 2387.43094312 0 250.38674125 0 654.91779262 0 25297
0.15350000 0.15350100 9543.15499807 0 -90.66073042 0 2499.47358345 0 212.42295995 0 233.36944141 0 25452
0.15450000 0.15450400 9410.94468249 0 161.81593561 0 2049.20496877 0 -74.01086453 0 216.02809667 0 26061
0.15550000 0.15549900 9420.70996751 0 122.26708049 0 2282.11086121 0 -37.24813639 0 143.62987724 0 26128
0.15650000 0.15649500 9105.02433609 0 107.96297007 0 2228.01184125 0 -288.12204344 0 178.36089883 0 26331
0.15750000 0.15749700 8892.16528861 0 247.89544019 0 2743.25420275 0 105.14531736 0 69.18028889 0 27345
0.15850000 0.15849900 8738.23847303 0 206.65825626 0 2485.13871623 0 -315.72627433 0 76.03389326 0 26980
0.15950000 0.15949700 8644.89157523 0 170.46848343 0 3057.55577802 0 -0.74317334 0 -37.12642733 0 27777
0.16050000 0.16050000 8253.75291476 0 38.93262060 0 2826.27560232 0 27.03731711 0 44.21971507 0 28224
0.16150000 0.16150500 8306.03948025 0 157.03764654 0 2915.00897963 0 148.19396715 0 63.56036186 0 28075
0.16250000 0.16249700 8318.59484671 0 127.74728375 0 2852.73743767 0 -142.12499080 0 75.27222300 0 28590
0.16350000 0.16349900 8166.16193299 0 1.88587536 0 2887.49262531 0 89.31281352 0 -255.89220903 0 29163
0.16450000 0.16449100 8037.06025145 0 -11.24732356 0 2753.14031807 0 274.16724243 0 -2.75660046 0 28996
0.16550000 0.16550500 8258.67400327 0 -166.13067572 0 2420.57139860 0 323.08154413 0 -34.03284215 0 30777
0.16650000 0.16650700 8337.21369723 0 -112.51278004 0 2076.60049279 0 288.65809058 0 -20.07024210 0 29211
0.16750000 0.16749900 8383.54662438 0 159.38285278 0 2040.71389416 0 18.81679252 0 210.04370153 0 30922
0.16850000 0.16850800 8174.30150128 0 8.15176116 0 1962.83327456 0 70.99065630 0 370.98965899 0 30867
0.16950000 0.16949900 8460.10909527 0 77.57415003 0 2129.43628690 0 131.78191726 0 -124.09601182 0 30852
0.17050000 0.17049200 8172.52200052 0 188.25250644 0 2376.31455567 0 -409.03802150 0 212.56575939 0 31257
0.17150000 0.17149500 7873.43405827 0 231.25271427 0 2462.02717552 0 -371.52790305 0 417.46428712 0 32608
0.17250000 0.17250900 7818.10476618 0 48.08485663 0 2987.00186833 0 28.02548926 0 224.19842176 0 32361
0.17350000 0.17350400 7796.42121991 0 169.51941636 0 2728.18336917 0 28.63359519 0 -116.66165310 0 32508
0.17450000 0.17449800 7682.29151079 0 28.59339166 0 2901.44303249 0 218.57761597 0 110.74096848 0 32791
0.17550000 0.17549800 7664.44158034 0 26.29629784 0 2771.45160056 0 35.80388479 0 358.80227571 0 33633
0.17650000 0.17650100 7575.38965042 0 16.39513365 0 2666.76862386 0 45.82368236 0 285.18147336 0 33984
0.17750000 0.17750300 7551.61903536 0 29.74303702 0 2462.48852757 0 217.18806754 0 314.20381257 0 34069
0.17850000 0.17849800 7522.07053512 0 26.09506047 0 2492.44345700 0 96.12533558 0 145.69387843 0 34536
