### header ###
fiducial parameters:
Omega_m = 0.31
Omega_nu = 0
Omega_de = 0.69
Omega_k = 0
H_0 = 100
w_de = -1
zeff = 0
beta = 0
fgrowth = 0
b_1 = 2
gamma = 0.55
Lx = 3500 Ly = 3500 Lz = 3500
nx = 700 ny = 700 nz = 700
xoffset = -983.599254 yoffset = -42.9823471 zoffset = 800.977702
bins = 400 dk = 0.001
kx_ny = 0.628318531 ky_ny = 0.628318531 kz_ny = 0.628318531
############################
A(data) = 9.07433799 (not used)
A(ran) = 9.07385934 (used)
Ngal = 504223
weighted Ngal = 0
Nran = 25229228
weighted Nran = 0
SN(data) = 6725.05672
SN(ran) = 134.695191
SN(data+ran) = 6859.75191
############################
13 columns: k_central k_mean P_0(k) sigma^{lin}_{P_0(k)} P^img_1(k) sigma^{lin}_{P_1(k)} P_2(k) sigma^{lin}_{P_2(k)} P^img_3(k) sigma^{lin}_{P_3(k)} P_4(k) sigma^{lin}_{P_4(k)} N_modes
### header ###
0.00050000 0 0 0 0 0 0 0 0 0 0 0 0
0.00150000 0.00179520 23167.12264841 0 -20261.15397201 0 12133.77856480 0 -45298.61979385 0 4512.49537013 0 3
0.00250000 0.00253879 23836.96188442 0 -4275.50321669 0 -6916.88649332 0 -25479.37517678 0 14477.77650794 0 6
0.00350000 0.00331552 27313.79879786 0 3642.06685422 0 -13540.90231247 0 17042.01513132 0 -5397.17087669 0 7
0.00450000 0.00420575 30722.64120703 0 -1016.08504680 0 18294.03671415 0 -14750.85298231 0 15009.21012942 0 24
0.00550000 0.00557378 34513.74674203 0 421.80648867 0 31927.09959058 0 2763.32301685 0 -5221.89005201 0 45
0.00650000 0.00659388 41092.62695245 0 -6852.50591342 0 36588.40296547 0 4791.74517430 0 9308.38172829 0 40
0.00750000 0.00754703 41067.91166414 0 -3490.29301486 0 29813.66782593 0 -3316.41821547 0 -3844.60040347 0 57
0.00850000 0.00846663 57418.33810575 0 168.55277397 0 34350.73568492 0 30025.99961392 0 10710.12303540 0 75
0.00950000 0.00948925 59969.83462494 0 -6420.07624461 0 33374.31702817 0 5767.07635837 0 14864.10392562 0 112
0.01050000 0.01054430 71719.92206948 0 5467.81266296 0 28695.32849142 0 4296.32996631 0 31226.72324279 0 105
0.01150000 0.01145670 60512.03312756 0 171.23520660 0 41984.90378323 0 5232.41327254 0 16105.03109014 0 144
0.01250000 0.01249090 59415.22355531 0 122.15064402 0 28669.95412876 0 18033.48265252 0 38880.55372602 0 169
0.01350000 0.01339930 67651.23638535 0 -6861.06289546 0 17885.30076839 0 22726.75113362 0 10609.16382880 0 180
0.01450000 0.01448870 74947.62887678 0 5155.13680443 0 30598.62538259 0 -681.07535530 0 13933.93031943 0 267
0.01550000 0.01550050 70487.78256303 0 2955.52008331 0 14883.54661909 0 1099.51177710 0 22517.27533450 0 238
0.01650000 0.01653350 70643.54380223 0 -7539.85455812 0 28621.07278077 0 2755.77661549 0 371.15223066 0 315
0.01750000 0.01747870 71570.75157382 0 1298.10186480 0 17696.25627427 0 -5633.77857009 0 1906.10894175 0 297
0.01850000 0.01844180 69748.63067403 0 3123.73782782 0 14754.69758271 0 -4346.72718531 0 -17061.78736197 0 388
0.01950000 0.01947590 75949.20220475 0 742.49229752 0 33685.07058650 0 -4957.05200707 0 -2514.91789250 0 399
0.02050000 0.02045430 67079.92876539 0 -456.01244768 0 20433.72160727 0 -662.75418670 0 -22516.50641441 0 462
0.02150000 0.02154770 72613.95643187 0 1988.62505098 0 27899.93559081 0 2649.62170606 0 -23776.32704377 0 571
0.02250000 0.02255340 72779.93332358 0 343.65125475 0 22943.14721347 0 867.00023082 0 -12776.04652363 0 510
0.02350000 0.02348930 74382.36277174 0 -5303.01112052 0 17596.40650951 0 4513.90139542 0 -23481.94049859 0 555
0.02450000 0.02439640 75409.31046237 0 -510.39816499 0 30764.27273712 0 -1360.26356104 0 -10319.58852641 0 592
0.02550000 0.02547300 68236.38456676 0 5296.18970095 0 18823.71280402 0 -7450.02272355 0 -21480.66121999 0 837
0.02650000 0.02652900 74343.25769335 0 5899.53931912 0 33060.70748097 0 3011.61829548 0 -7789.92933751 0 723
0.02750000 0.02749970 66788.28836336 0 1125.38044553 0 28918.97438918 0 128.11087310 0 -24895.54514408 0 826
0.02850000 0.02848090 62484.31313454 0 460.61608205 0 29501.37642744 0 4156.07894359 0 -1747.74435884 0 831
0.02950000 0.02946900 63107.68762853 0 -840.97448300 0 27424.52328948 0 3175.34334981 0 -12192.43618239 0 996
0.03050000 0.03053250 60457.32995610 0 2535.22836720 0 23605.40709440 0 10484.26923855 0 2313.64756909 0 1041
0.03150000 0.03150510 60438.87587416 0 -2835.49165871 0 21315.67293982 0 2841.77483423 0 -759.25036145 0 1036
0.03250000 0.03246190 60734.69041378 0 1325.23375908 0 16755.42763268 0 3686.92784864 0 -5789.93525391 0 1059
0.03350000 0.03345080 61053.46271009 0 2173.98971329 0 18663.33804433 0 -2064.87995384 0 1871.27686209 0 1302
0.03450000 0.03451200 58341.92096838 0 2409.48796486 0 15537.67791631 0 -1737.11129259 0 1835.40124804 0 1339
0.03550000 0.03553350 55132.66824302 0 355.06642258 0 21786.69141211 0 1571.03553973 0 3173.82747879 0 1365
0.03650000 0.03647120 56153.57441873 0 409.63777916 0 20003.56574498 0 919.13520920 0 -5424.23686353 0 1308
0.03750000 0.03744890 52938.17033272 0 2861.74478718 0 22045.37809640 0 -2380.66444641 0 1802.16193141 0 1579
0.03850000 0.03847530 51237.75849713 0 1088.82159107 0 24661.02451947 0 -3189.53541758 0 -4053.21940593 0 1662
0.03950000 0.03950240 48707.68189447 0 1032.62122237 0 21200.33492772 0 2810.35895665 0 480.40588802 0 1683
0.04050000 0.04050350 48614.64256470 0 2176.29647353 0 27688.48256861 0 365.52483413 0 -3033.98288526 0 1822
0.04150000 0.04152450 47485.97773197 0 487.33166103 0 24708.69756447 0 2158.66623454 0 -2586.03201539 0 1887
0.04250000 0.04250150 47203.34467945 0 6.36153946 0 24726.38272633 0 1832.09489170 0 439.63005614 0 1920
0.04350000 0.04349210 44530.68832468 0 1475.30498968 0 21331.27103289 0 538.72627922 0 -1033.51866195 0 2005
0.04450000 0.04448520 44162.70514321 0 1807.58831027 0 24577.21223067 0 767.19110897 0 807.68024350 0 2151
0.04550000 0.04548030 41478.29529578 0 439.03579076 0 20316.40637210 0 3041.96866952 0 -1531.90849219 0 2274
0.04650000 0.04648670 42772.38779159 0 -1207.50111015 0 19083.60779129 0 3950.11820769 0 -2960.15557294 0 2311
0.04750000 0.04749250 41297.59907682 0 606.78449402 0 13923.49497548 0 2934.51758053 0 230.39811452 0 2568
0.04850000 0.04851840 39207.23491459 0 1011.26391790 0 14087.16510694 0 1404.88289486 0 787.59495254 0 2493
0.04950000 0.04949480 37675.76580530 0 2171.40833873 0 15255.81378387 0 -1057.11901614 0 -1253.77911443 0 2644
0.05050000 0.05050630 37750.02151595 0 223.67885147 0 11135.83014579 0 517.95884630 0 -2513.84140439 0 2829
0.05150000 0.05149060 36701.76375451 0 -116.66824384 0 9551.81084127 0 743.63249615 0 -4791.78911259 0 2784
0.05250000 0.05249300 35063.41475400 0 617.67899311 0 8632.61082309 0 1714.35125820 0 -2463.13661735 0 3055
0.05350000 0.05348950 35267.06872966 0 895.86109682 0 9879.77722483 0 -1266.31251175 0 -6942.51350115 0 3009
0.05450000 0.05448610 33635.20062698 0 1999.13728694 0 11587.29607888 0 -2363.27586801 0 -7577.66345695 0 3336
0.05550000 0.05550870 32679.43296667 0 116.30685141 0 11046.19603352 0 -553.37969905 0 -8010.45561665 0 3349
0.05650000 0.05647670 31483.76224119 0 -712.98553865 0 11707.90668582 0 2373.77711940 0 -5371.33516198 0 3324
0.05750000 0.05747970 32157.33623188 0 401.24117188 0 11290.82246491 0 -745.36366479 0 -7183.91046820 0 3639
0.05850000 0.05849280 31671.15904943 0 1046.51341131 0 11904.31084358 0 -1082.60651990 0 -4243.80174022 0 3846
0.05950000 0.05951020 31991.46918590 0 160.35059363 0 12553.49908314 0 854.32732943 0 -4671.87053372 0 3787
0.06050000 0.06049470 31073.04907238 0 -427.40532531 0 11896.84133422 0 1331.47299630 0 -2614.35024350 0 3930
0.06150000 0.06148310 31279.44919118 0 259.01841838 0 11815.11611422 0 1912.94134590 0 -4430.70424269 0 4083
0.06250000 0.06249100 31938.08416316 0 499.98369173 0 12241.31753037 0 285.55275191 0 -1348.76271355 0 4303
0.06350000 0.06350600 29991.94743892 0 -85.78918232 0 10199.90062357 0 2436.75167401 0 1200.22932310 0 4470
0.06450000 0.06451750 31551.09767112 0 -298.13448134 0 10126.53466330 0 793.31132411 0 -737.06921404 0 4479
0.06550000 0.06550280 30815.68053680 0 987.99419934 0 9528.54551654 0 -1557.31580857 0 -1602.27566415 0 4636
0.06650000 0.06648880 29534.22029946 0 859.10122467 0 9433.02367337 0 -523.84987258 0 221.52477679 0 4653
0.06750000 0.06749660 29145.36643008 0 -133.15828420 0 10158.12629404 0 873.74475838 0 673.25324117 0 5220
0.06850000 0.06852730 29706.67808898 0 -408.82821616 0 9076.35460166 0 2331.46454582 0 -1012.31953532 0 5029
0.06950000 0.06949320 29134.49170322 0 348.92604650 0 9110.48366867 0 1218.78226619 0 539.23156956 0 5040
0.07050000 0.07048030 29128.34034258 0 1300.32074846 0 8321.01145267 0 -761.44947288 0 136.40093003 0 5475
0.07150000 0.07148790 27460.55268755 0 823.89127572 0 9365.29279884 0 -1629.83595676 0 877.38724265 0 5509
0.07250000 0.07249820 26367.14833280 0 212.20326850 0 11178.23059595 0 216.74429080 0 412.95512008 0 5916
0.07350000 0.07351270 25294.83435741 0 1135.56314431 0 10735.28869118 0 769.07935700 0 1090.84604779 0 5721
0.07450000 0.07449140 25397.75980250 0 -380.40014232 0 10592.65401621 0 842.50133859 0 1849.48347009 0 6028
0.07550000 0.07549160 25686.87375284 0 -444.19304759 0 9327.08845540 0 701.05739129 0 109.26123671 0 6183
0.07650000 0.07648840 25740.58831276 0 139.64687123 0 9630.55924210 0 227.71348498 0 -182.83052142 0 6330
0.07750000 0.07749960 25058.66604692 0 788.25073152 0 9376.03571082 0 -1107.66232996 0 -525.12188608 0 6583
0.07850000 0.07848650 24566.44734955 0 874.97063668 0 10210.69845842 0 -642.54586852 0 -964.96943675 0 6549
0.07950000 0.07947320 24083.34584742 0 412.99576300 0 10474.20737007 0 746.10841881 0 333.12583730 0 6828
0.08050000 0.08048110 23614.63413537 0 -400.23059120 0 9164.90124124 0 1512.36693757 0 -18.65553900 0 7147
0.08150000 0.08149960 23364.51541769 0 -58.20472366 0 9088.04218688 0 889.79212046 0 -553.61037507 0 7386
0.08250000 0.08250610 22985.10828073 0 625.18804692 0 8187.64775696 0 105.06875489 0 276.42127672 0 7227
0.08350000 0.08350160 21975.95559769 0 1081.63108985 0 8811.54951044 0 -298.44204938 0 599.61376504 0 7798
0.08450000 0.08449610 21801.19104792 0 543.00147487 0 9371.21348346 0 -602.64331016 0 670.71910027 0 7371
0.08550000 0.08548940 21067.42159948 0 135.60674543 0 9377.96899560 0 521.14107698 0 864.62097239 0 8256
0.08650000 0.08650700 20591.02068663 0 -311.35661136 0 9152.45572050 0 698.04761840 0 -482.58852259 0 8037
0.08750000 0.08749060 21307.98373902 0 83.32622146 0 8127.81479011 0 723.71966298 0 194.52250047 0 8155
0.08850000 0.08849210 21122.67399957 0 -124.81440287 0 8488.93261372 0 174.05274947 0 394.01991386 0 8718
0.08950000 0.08949900 20647.81092688 0 396.08611197 0 8431.75791344 0 -552.14942692 0 501.09313356 0 8571
0.09050000 0.09049190 20420.97950307 0 516.50998118 0 8533.94739216 0 -168.78015463 0 -534.87508808 0 8932
0.09150000 0.09150830 20797.42080543 0 663.97786808 0 8635.62059598 0 283.52170444 0 -599.61376504 0 9285
0.09250000 0.09250820 19144.24263194 0 244.90983336 0 8971.81442440 0 296.88333853 0 628.21209976 0 9204
0.09350000 0.09350330 18986.94355258 0 282.83516865 0 9509.52023683 0 789.00207629 0 643.45099730 0 9349
0.09450000 0.09448040 18627.96772062 0 276.66074041 0 8439.13954621 0 881.63387841 0 2018.79967186 0 9564
0.09550000 0.09549270 18071.81881083 0 -111.49560862 0 7817.98393588 0 1089.91345758 0 1916.52231656 0 10155
0.09650000 0.09649430 17874.75557872 0 256.90828199 0 7502.50701135 0 252.72206138 0 1278.13191185 0 9913
0.09750000 0.09749140 17451.51999716 0 733.16749386 0 6092.82385827 0 -103.55431187 0 1254.84461797 0 10476
0.09850000 0.09850240 16818.25938784 0 189.67610705 0 6947.68723484 0 535.97354533 0 2561.06408191 0 10575
0.09950000 0.09950330 16497.50986847 0 18.38905327 0 6021.85253482 0 1405.59689208 0 1395.72176133 0 10882
0.10050000 0.10051200 16499.37724581 0 208.02913092 0 5995.01722400 0 7.64347203 0 1590.14869602 0 10875
0.10150000 0.10150300 16011.66222319 0 302.67660211 0 5815.79293776 0 -575.49933285 0 1996.55591238 0 11118
0.10250000 0.10250800 15890.94177053 0 -18.99639028 0 5916.43359176 0 -652.66595524 0 361.84610077 0 11575
0.10350000 0.10349800 15639.83444132 0 427.52505715 0 5737.19832095 0 735.98064289 0 1096.93479637 0 11364
0.10450000 0.10450100 15705.52218535 0 -167.57185164 0 5570.89189206 0 630.60453966 0 988.43248379 0 12093
0.10550000 0.10551000 15864.57879633 0 -115.89163456 0 5399.26893005 0 255.84607382 0 1280.43867209 0 12067
0.10650000 0.10649700 16094.48590046 0 160.40112266 0 5129.70751891 0 -122.78665077 0 -549.50983413 0 12054
0.10750000 0.10749900 15155.08525330 0 316.53913270 0 5221.14310107 0 -524.27607399 0 889.49224163 0 12807
0.10850000 0.10850100 15028.43313144 0 201.19452986 0 5366.34816603 0 4.60806115 0 163.84258925 0 12736
0.10950000 0.10950300 14939.78763071 0 123.90268335 0 5856.83130093 0 625.34073248 0 845.73629521 0 12933
0.11050000 0.11050200 14790.61713505 0 -48.50534607 0 4219.38303537 0 871.93230390 0 79.97482836 0 13428
0.11150000 0.11150900 14979.00255482 0 -47.08229469 0 4517.61418096 0 84.10261105 0 279.44642801 0 13453
0.11250000 0.11250000 14834.66527110 0 59.53330771 0 3904.20269430 0 395.05026677 0 967.46073782 0 13668
0.11350000 0.11349100 14860.58886240 0 64.05301994 0 3675.93229148 0 191.97298118 0 156.17096376 0 13791
0.11450000 0.11448600 14809.94998280 0 154.58369302 0 4257.11504219 0 -557.12763521 0 -284.63993393 0 14205
0.11550000 0.11549300 14155.48914840 0 444.24797045 0 4241.68171771 0 -534.27642887 0 -215.23610899 0 14776
0.11650000 0.11649800 14090.02109581 0 197.68276200 0 4844.20749294 0 -158.94346988 0 -534.93001094 0 14553
0.11750000 0.11747300 13968.53172307 0 -63.02332611 0 4296.27504344 0 886.60988979 0 -136.97762009 0 14568
0.11850000 0.11849100 14324.21218325 0 -184.82641825 0 4148.66435709 0 470.63181533 0 -333.55313718 0 16015
0.11950000 0.11950300 13846.05373878 0 -25.94490136 0 3812.48151324 0 26.92263817 0 528.96428957 0 15270
0.12050000 0.12050700 14114.18715549 0 345.24401777 0 3895.86540371 0 378.96555714 0 91.70854880 0 15999
0.12150000 0.12150000 13657.33878184 0 166.61509537 0 3534.71462638 0 5.89904501 0 975.76287777 0 15670
0.12250000 0.12250700 13779.59707467 0 138.37815309 0 3918.65839181 0 169.21624216 0 525.24491329 0 16887
0.12350000 0.12352200 13350.64951536 0 161.05031090 0 3518.16087550 0 -188.59192973 0 851.21979385 0 16407
0.12450000 0.12449800 13473.56688255 0 114.45924630 0 3929.08275119 0 578.38827544 0 444.84992503 0 16306
0.12550000 0.12549900 12828.88231775 0 94.20841782 0 3798.69587465 0 -266.67905930 0 789.79186706 0 17523
0.12650000 0.12650100 13015.29051446 0 94.19007359 0 3532.01242152 0 422.49631982 0 1058.61841030 0 17154
0.12750000 0.12750600 12943.67110123 0 69.65954579 0 3505.95701536 0 97.22093685 0 370.79523206 0 18007
0.12850000 0.12850300 12515.60230773 0 377.42881544 0 3285.82618083 0 -321.96001927 0 718.05821427 0 17496
0.12950000 0.12949900 12277.67646562 0 318.36367021 0 3988.43239685 0 -124.55516696 0 479.94124060 0 18405
0.13050000 0.13049000 11961.65031245 0 164.92237274 0 4201.39030548 0 -391.48028068 0 838.42716062 0 18100
0.13150000 0.13148800 11877.72817793 0 -9.41790890 0 4033.50209815 0 111.19572978 0 -656.18211692 0 19059
0.13250000 0.13249300 11856.52795285 0 70.75833259 0 3785.77801730 0 271.99998626 0 785.39144728 0 18957
0.13350000 0.13349100 12010.20212326 0 -162.87924224 0 3803.52908659 0 485.89268202 0 -291.67994650 0 19468
0.13450000 0.13450700 11801.05586131 0 39.04312540 0 3537.17517064 0 257.64314990 0 424.60096393 0 19953
0.13550000 0.13551000 11863.55807930 0 162.78147954 0 3039.70584757 0 302.93034573 0 404.25424014 0 19956
0.13650000 0.13649900 11484.26078807 0 199.17995925 0 3230.13439784 0 -62.20146039 0 746.58405081 0 19723
0.13750000 0.13749600 11259.62627878 0 166.60520926 0 3326.01873190 0 -35.65976720 0 928.27766896 0 20946
0.13850000 0.13851100 11314.98852459 0 130.54395593 0 3408.62271772 0 141.20558208 0 206.39572497 0 20955
0.13950000 0.13949800 11004.78419489 0 169.07563963 0 3150.49624663 0 66.55135113 0 974.98736695 0 20506
0.14050000 0.14048300 10931.73678723 0 20.96713245 0 3653.19422624 0 -310.13952072 0 210.19638709 0 21447
0.14150000 0.14148400 10753.49012795 0 21.41409471 0 3165.97350939 0 276.04889971 0 733.67498111 0 21771
0.14250000 0.14249400 10840.57581937 0 92.88840174 0 3568.34938762 0 274.59893613 0 347.54858110 0 22470
0.14350000 0.14350900 10701.43423849 0 102.98728823 0 2803.33981477 0 25.78990904 0 217.31329166 0 22519
0.14450000 0.14449900 10747.54747418 0 182.10553963 0 3508.92284996 0 -234.96330289 0 -21.60632473 0 22218
0.14550000 0.14550500 10404.88373251 0 177.39755182 0 3199.78402380 0 -53.96830355 0 355.76394294 0 23559
0.14650000 0.14650700 10521.70466191 0 -23.81598135 0 3301.51215048 0 511.56252969 0 464.86491473 0 23044
0.14750000 0.14750500 10413.07822365 0 -248.15687301 0 2862.14023179 0 -19.25584589 0 338.21828515 0 23649
0.14850000 0.14849900 10118.09851155 0 261.55475619 0 2783.65546070 0 481.87891920 0 242.29770200 0 23640
0.14950000 0.14949500 10237.50081551 0 137.90581647 0 2428.65604402 0 -31.41466928 0 686.99933530 0 24457
0.15050000 0.15050000 10064.75742710 0 179.22538469 0 2634.72662564 0 135.28709437 0 783.54494063 0 24591
0.15150000 0.15149900 9991.96266460 0 82.96416995 0 2618.54635023 0 219.23229649 0 658.45372653 0 25020
0.15250000 0.15250500 9866.88133662 0 66.02980363 0 2559.69101034 0 145.62467563 0 810.06499421 0 25297
0.15350000 0.15350100 9631.48194620 0 96.45003955 0 2565.53480295 0 -257.53440263 0 921.37606201 0 25452
0.15450000 0.15450400 9370.01616505 0 294.51726159 0 2917.29377073 0 -332.13173348 0 646.80898114 0 26061
0.15550000 0.15549900 9144.15138363 0 275.42058216 0 3158.24037030 0 -217.22321817 0 1191.84809422 0 26128
0.15650000 0.15649500 9074.65199291 0 54.64066924 0 3384.22598201 0 -85.06837467 0 525.45252171 0 26331
0.15750000 0.15749700 9000.52809713 0 -74.03360259 0 3164.94095957 0 328.46068933 0 795.22703357 0 27345
0.15850000 0.15849900 9180.90576349 0 -34.55373059 0 3005.15936680 0 399.73408852 0 552.29222636 0 26980
0.15950000 0.15949700 9094.30339326 0 -25.43203167 0 2734.57639041 0 369.23212738 0 838.06466972 0 27777
0.16050000 0.16050000 9096.20372431 0 49.96552530 0 2461.07151770 0 -123.90817563 0 736.00700587 0 28224
0.16150000 0.16150500 9070.00551871 0 193.22522245 0 2406.92855945 0 285.88778137 0 730.07533667 0 28075
0.16250000 0.16249700 9108.69318334 0 -98.47185998 0 2217.87308075 0 -281.55656440 0 135.50239199 0 28590
0.16350000 0.16349900 8938.92661409 0 93.90348609 0 2356.88284677 0 128.84464255 0 -151.30150274 0 29163
0.16450000 0.16449100 8709.23920142 0 201.49990097 0 2317.83269124 0 -76.68714579 0 152.37799085 0 28996
0.16550000 0.16550500 8587.59604465 0 59.93303631 0 2182.88721708 0 -74.66697305 0 55.01205764 0 30777
0.16650000 0.16650700 8516.03155428 0 25.77848509 0 2092.56107675 0 173.48924089 0 -121.19938003 0 29211
0.16750000 0.16749900 8323.20836719 0 289.01508919 0 2084.15787872 0 -10.21995845 0 160.05840400 0 30922
0.16850000 0.16850800 8206.98060471 0 203.18054058 0 2132.13849176 0 52.87522873 0 145.48187618 0 30867
0.16950000 0.16949900 8055.08593505 0 92.06741478 0 2560.81143674 0 -50.43379763 0 136.66565823 0 30852
0.17050000 0.17049200 7864.73427679 0 -59.92446834 0 2263.83253243 0 49.60358363 0 402.31985691 0 31257
0.17150000 0.17149500 7948.15112097 0 -14.88486477 0 2028.43314202 0 484.28014677 0 519.88663879 0 32608
0.17250000 0.17250900 7932.10266043 0 -13.44061316 0 1848.52781228 0 200.46844961 0 157.61323814 0 32361
0.17350000 0.17350400 8079.51562447 0 189.88481393 0 2011.73659169 0 -232.58074909 0 366.02243527 0 32508
0.17450000 0.17449800 7836.37211039 0 60.37505551 0 1957.83529404 0 -44.99127145 0 63.46194009 0 32791
0.17550000 0.17549800 7739.56507223 0 -38.65262384 0 1841.55260869 0 88.59277478 0 286.97745097 0 33633
0.17650000 0.17650100 7829.83628970 0 -5.01609408 0 1735.68329815 0 2.19249872 0 -542.49069225 0 33984
0.17750000 0.17750300 7652.06196704 0 165.87693209 0 1816.74944380 0 -164.05678842 0 68.77210217 0 34069
0.17850000 0.17849800 7421.99009433 0 191.14913823 0 1823.03261932 0 -175.65539861 0 -347.10150900 0 34536
