### header ###
fiducial parameters:
Omega_m = 0.31
Omega_nu = 0
Omega_de = 0.69
Omega_k = 0
H_0 = 100
w_de = -1
zeff = 0
beta = 0
fgrowth = 0
b_1 = 2
gamma = 0.55
Lx = 3500 Ly = 3500 Lz = 3500
nx = 700 ny = 700 nz = 700
xoffset = -983.599254 yoffset = -42.9823471 zoffset = 800.977702
bins = 400 dk = 0.001
kx_ny = 0.628318531 ky_ny = 0.628318531 kz_ny = 0.628318531
############################
A(data) = 8.97752925 (not used)
A(ran) = 8.97840051 (used)
Ngal = 499501
weighted Ngal = 0
Nran = 25229228
weighted Nran = 0
SN(data) = 6776.76237
SN(ran) = 133.27817
SN(data+ran) = 6910.04054
############################
13 columns: k_central k_mean P_0(k) sigma^{lin}_{P_0(k)} P^img_1(k) sigma^{lin}_{P_1(k)} P_2(k) sigma^{lin}_{P_2(k)} P^img_3(k) sigma^{lin}_{P_3(k)} P_4(k) sigma^{lin}_{P_4(k)} N_modes
### header ###
0.00050000 0 0 0 0 0 0 0 0 0 0 0 0
0.00150000 0.00179520 1021.93433170 0 -3296.05281790 0 6656.90362946 0 -6519.06921271 0 -36456.14871159 0 3
0.00250000 0.00253879 14681.54032932 0 -13517.50517288 0 260.46508659 0 22170.60222383 0 34438.17288267 0 6
0.00350000 0.00331552 23928.13383684 0 -14710.97898384 0 3412.99457760 0 3833.93438349 0 3024.01987793 0 7
0.00450000 0.00420575 27022.48793301 0 -8869.66888397 0 -4599.49318498 0 -15385.32189461 0 -11650.78690840 0 24
0.00550000 0.00557378 50224.43167650 0 6352.47718494 0 2319.91976003 0 11082.33527732 0 6604.32048052 0 45
0.00650000 0.00659388 53008.47159724 0 -2519.13596837 0 2397.11933614 0 10457.70854205 0 50301.76306747 0 40
0.00750000 0.00754703 41814.42321677 0 -11286.42863588 0 13955.46008169 0 -14241.16881453 0 -9967.28033001 0 57
0.00850000 0.00846663 65362.05145940 0 -1087.12667152 0 3894.22870239 0 45932.97886042 0 16469.05982548 0 75
0.00950000 0.00948925 65292.84865213 0 -10905.78024222 0 6285.30652361 0 -4194.01965728 0 14205.13941647 0 112
0.01050000 0.01054430 74186.06845971 0 -7104.96434506 0 5065.04134012 0 -12843.38195356 0 10699.06157081 0 105
0.01150000 0.01145670 75530.68998940 0 7064.01385847 0 -1824.14206115 0 -8933.80780327 0 -666.34614193 0 144
0.01250000 0.01249090 72415.24551388 0 5612.99575877 0 14926.60614361 0 -14693.95289634 0 9899.05514971 0 169
0.01350000 0.01339930 84594.50020917 0 8064.82925093 0 27248.66028246 0 -3492.95128142 0 -13882.52251975 0 180
0.01450000 0.01448870 73360.46798450 0 -1683.28688694 0 28588.88798311 0 7578.88274451 0 -11745.03454115 0 267
0.01550000 0.01550050 71891.94047610 0 -3441.27985200 0 39692.20379405 0 2299.89488422 0 18739.13159514 0 238
0.01650000 0.01653350 75853.52657756 0 1645.89540187 0 32245.54234971 0 1208.32495309 0 -7180.48328155 0 315
0.01750000 0.01747870 69561.89294015 0 10844.79389525 0 36525.79090176 0 -13073.61859486 0 -8348.05547037 0 297
0.01850000 0.01844180 67642.11919011 0 5474.87574313 0 51186.89992608 0 -10593.36801343 0 -21088.62182457 0 388
0.01950000 0.01947590 71738.15645996 0 -1677.57490920 0 57421.08424889 0 17129.01294617 0 4691.82950210 0 399
0.02050000 0.02045430 69362.08356489 0 -10151.17305960 0 47622.29627770 0 7131.90950160 0 -12763.85364807 0 462
0.02150000 0.02154770 74960.48082670 0 1803.31531153 0 42280.16909422 0 6791.44267444 0 -15140.91515467 0 571
0.02250000 0.02255340 75451.16168391 0 3387.83990639 0 44537.16922251 0 -5295.38782715 0 -8775.68488096 0 510
0.02350000 0.02348930 75740.27563425 0 291.45366430 0 44707.43009752 0 3343.63798633 0 -3804.80329701 0 555
0.02450000 0.02439640 76461.96205284 0 -51.25126952 0 42085.52246808 0 11690.66090687 0 -1855.08560211 0 592
0.02550000 0.02547300 76354.86247017 0 -2990.46200869 0 29488.08509462 0 13985.33811911 0 -4079.72517957 0 837
0.02650000 0.02652900 74000.20949164 0 2060.69483169 0 27735.49653926 0 9505.84040502 0 9690.69977699 0 723
0.02750000 0.02749970 71610.07634366 0 3629.59936434 0 25838.13131729 0 4219.47091195 0 15914.33891012 0 826
0.02850000 0.02848090 71913.58008409 0 528.78963487 0 17685.38154741 0 3615.52812686 0 19268.03876493 0 831
0.02950000 0.02946900 64577.86282281 0 4704.74735945 0 24219.22501025 0 5352.90304919 0 12706.51417919 0 996
0.03050000 0.03053250 60377.58195916 0 4318.46388006 0 27172.75688592 0 -3101.36225347 0 14169.54940130 0 1041
0.03150000 0.03150510 57269.71683872 0 2450.66912747 0 28289.44853454 0 -4493.07464581 0 13697.98170039 0 1036
0.03250000 0.03246190 54083.42187005 0 86.03479737 0 26828.61022695 0 1487.82740243 0 13005.51424486 0 1059
0.03350000 0.03345080 53074.04949555 0 674.89433631 0 25545.94168662 0 2279.71622439 0 5950.76038107 0 1302
0.03450000 0.03451200 53639.75498349 0 864.04647925 0 22884.92897879 0 1015.37544342 0 6435.86107541 0 1339
0.03550000 0.03553350 53038.34963466 0 1058.68541619 0 23779.84210700 0 6260.74501932 0 5057.11047872 0 1365
0.03650000 0.03647120 54299.70810418 0 -1051.41472760 0 23244.89342228 0 3249.52216845 0 4362.62186183 0 1308
0.03750000 0.03744890 50535.62461773 0 1617.25862115 0 20534.12060066 0 -407.29476983 0 2571.88388591 0 1579
0.03850000 0.03847530 50974.56813808 0 154.02567674 0 19298.46603098 0 -635.02253476 0 890.79720886 0 1662
0.03950000 0.03950240 49615.00758969 0 257.86393980 0 22791.88964903 0 -2445.19881032 0 -2319.31560854 0 1683
0.04050000 0.04050350 46811.63482120 0 3613.21038204 0 22184.22309383 0 -2332.77170995 0 -5390.40437998 0 1822
0.04150000 0.04152450 45114.95774029 0 2574.03686213 0 23827.95453490 0 694.39634647 0 -3840.56906533 0 1887
0.04250000 0.04250150 45881.79075219 0 -274.31663262 0 23112.96870558 0 3290.06622585 0 -5338.71098141 0 1920
0.04350000 0.04349210 44248.27496362 0 -1733.87084367 0 19630.74935157 0 4080.91151341 0 -5657.19767884 0 2005
0.04450000 0.04448520 43578.87511051 0 1251.06592501 0 19850.33095747 0 1305.64826616 0 -4024.62656351 0 2151
0.04550000 0.04548030 41877.47466339 0 2104.52327629 0 16498.38863427 0 -1846.90209554 0 -2373.21690620 0 2274
0.04650000 0.04648670 41868.02793097 0 -138.72416713 0 16602.63222807 0 4881.06073396 0 -930.43833439 0 2311
0.04750000 0.04749250 41198.29854068 0 -1076.11903133 0 15933.89144932 0 4099.10196561 0 737.78540817 0 2568
0.04850000 0.04851840 40594.58643161 0 1502.09636221 0 12917.74750993 0 -405.68443149 0 -4101.78220132 0 2493
0.04950000 0.04949480 38841.77818481 0 2574.00390841 0 15214.07240806 0 -6043.17359020 0 -2458.35832828 0 2644
0.05050000 0.05050630 35166.34019909 0 2340.42795704 0 17082.98758705 0 648.55442972 0 -2907.61636228 0 2829
0.05150000 0.05149060 35276.18592490 0 -1081.51135801 0 16137.10604207 0 2480.00892084 0 -2553.62752628 0 2784
0.05250000 0.05249300 35355.82407612 0 -1000.40896327 0 14377.92674317 0 746.38193467 0 -7931.71820039 0 3055
0.05350000 0.05348950 35692.17168856 0 422.54135657 0 14429.66408003 0 2649.31413803 0 -4555.31323406 0 3009
0.05450000 0.05448610 34428.72615025 0 1128.60990987 0 11832.69143035 0 -1287.75439743 0 -5352.56252744 0 3336
0.05550000 0.05550870 34391.15891202 0 730.48506123 0 12756.49398444 0 727.55218035 0 -1948.84991366 0 3349
0.05650000 0.05647670 34658.41356293 0 -693.30777533 0 10255.59240655 0 4406.53818301 0 -5771.18458851 0 3324
0.05750000 0.05747970 33865.43726828 0 -317.71338351 0 9832.77423875 0 -997.63865407 0 -4308.46791901 0 3639
0.05850000 0.05849280 33651.56764012 0 1320.58728487 0 10069.81033049 0 -820.88479820 0 -4222.51363856 0 3846
0.05950000 0.05951020 32636.48328788 0 154.28051882 0 11457.01904807 0 872.39036058 0 -2686.18934819 0 3787
0.06050000 0.06049470 32749.95392265 0 -87.60152695 0 8055.18479621 0 2568.81919016 0 -1347.42259569 0 3930
0.06150000 0.06148310 33658.04853795 0 440.99214314 0 10287.57948191 0 264.74028224 0 -2901.47598621 0 4083
0.06250000 0.06249100 32112.73886720 0 143.18500206 0 9181.81748301 0 -838.45352359 0 -2592.60078979 0 4303
0.06350000 0.06350600 31575.15388507 0 1044.00453493 0 10472.30703901 0 -535.34522778 0 -1936.67900724 0 4470
0.06450000 0.06451750 30452.75025871 0 1000.86921686 0 11687.69507228 0 -409.06108910 0 2736.94905809 0 4479
0.06550000 0.06550280 30556.66431533 0 -296.59554273 0 11034.11300369 0 2134.20359140 0 1662.59195219 0 4636
0.06650000 0.06648880 30187.69252232 0 -258.65702594 0 11274.89483467 0 1967.38088761 0 180.04263689 0 4653
0.06750000 0.06749660 29617.81289680 0 1101.01666355 0 11684.94892913 0 207.17892500 0 3265.39487583 0 5220
0.06850000 0.06852730 28904.47475337 0 623.57001938 0 10976.91633425 0 -129.10278001 0 3616.04440177 0 5029
0.06950000 0.06949320 28482.22778334 0 127.88568936 0 12045.35275552 0 -255.50665053 0 3568.65695565 0 5040
0.07050000 0.07048030 28340.52679704 0 -98.85642987 0 9813.97963507 0 2238.23847832 0 2343.64643681 0 5475
0.07150000 0.07148790 28329.21268728 0 -283.86222619 0 9256.12811652 0 1046.75726882 0 1805.36942661 0 5509
0.07250000 0.07249820 27981.22142791 0 787.45325155 0 8698.78188832 0 -654.58166469 0 2738.62969769 0 5916
0.07350000 0.07351270 26832.78436453 0 1126.29216506 0 9432.44149103 0 -245.09217726 0 1508.48938345 0 5721
0.07450000 0.07449140 26067.70888424 0 154.18165767 0 8972.69319021 0 -196.98524164 0 731.65052438 0 6028
0.07550000 0.07549160 25180.26526539 0 165.73303419 0 9336.41435752 0 566.93795698 0 -605.62672007 0 6183
0.07650000 0.07648840 25346.57169427 0 154.34972163 0 7257.33135133 0 284.64982004 0 1114.74737927 0 6330
0.07750000 0.07749960 25250.67637564 0 297.98179579 0 7772.14531450 0 1273.79300568 0 -458.32250330 0 6583
0.07850000 0.07848650 24296.88593840 0 179.05622228 0 7471.21196406 0 171.49444251 0 837.10022425 0 6549
0.07950000 0.07947320 24381.68683873 0 981.95488134 0 7949.85372972 0 190.11109612 0 362.84569688 0 6828
0.08050000 0.08048110 23807.19369272 0 -333.07970210 0 7702.68986207 0 495.37346662 0 2088.39792374 0 7147
0.08150000 0.08149960 24229.44066275 0 -296.21987034 0 6472.43970210 0 1771.08657558 0 2381.99357969 0 7386
0.08250000 0.08250610 23654.83767102 0 -107.59597550 0 6345.00767559 0 343.28546848 0 2877.15614251 0 7227
0.08350000 0.08350160 23616.39166698 0 878.08036918 0 5773.46937961 0 468.55463266 0 3163.19441253 0 7798
0.08450000 0.08449610 23248.95771414 0 404.46734085 0 6064.76925989 0 -1125.92967416 0 4479.50869867 0 7371
0.08550000 0.08548940 23187.88349059 0 -187.20128285 0 7762.44593691 0 326.07593862 0 2389.86951823 0 8256
0.08650000 0.08650700 22940.07153315 0 464.13444065 0 7061.87186682 0 -536.96215687 0 1632.95557537 0 8037
0.08750000 0.08749060 21538.33022605 0 522.10881782 0 7254.93671451 0 612.29545409 0 2709.50959578 0 8155
0.08850000 0.08849210 21709.14032969 0 491.52776775 0 7588.63704496 0 32.88605278 0 3931.53231088 0 8718
0.08950000 0.08949900 21486.04366056 0 209.98438484 0 7205.69287563 0 1687.34019422 0 2669.77839675 0 8571
0.09050000 0.09049190 20634.62943978 0 591.65873758 0 7130.77809062 0 -166.85016522 0 1863.71947616 0 8932
0.09150000 0.09150830 20001.36883046 0 400.74027537 0 7193.50000006 0 -339.43867117 0 2986.37574769 0 9285
0.09250000 0.09250820 19943.37028724 0 100.85012979 0 6586.49251922 0 374.86501620 0 2852.30903933 0 9204
0.09350000 0.09350330 19334.82496623 0 -140.60582441 0 6613.31684546 0 113.08837164 0 2356.78398562 0 9349
0.09450000 0.09448040 18391.90925585 0 684.07743899 0 5989.96432061 0 194.29731673 0 1594.77320108 0 9564
0.09550000 0.09549270 18303.59329229 0 409.19180551 0 5475.68860150 0 93.17180371 0 631.55800056 0 10155
0.09650000 0.09649430 17984.71115026 0 296.35498059 0 5877.05389905 0 -73.34706681 0 677.55699671 0 9913
0.09750000 0.09749140 17874.75557872 0 225.04643076 0 5435.85854132 0 405.65037931 0 380.35290866 0 10476
0.09850000 0.09850240 17449.98215700 0 88.86189681 0 5042.81954979 0 98.38112741 0 577.19974469 0 10575
0.09950000 0.09950330 17041.90528560 0 118.13138891 0 4823.63338850 0 1.13011480 0 -118.54880267 0 10882
0.10050000 0.10051200 16860.76968373 0 76.19613540 0 4880.80808879 0 502.83968060 0 -119.33090424 0 10875
0.10150000 0.10150300 16846.81927655 0 85.22490483 0 5274.70387698 0 -141.06058572 0 319.76749859 0 11118
0.10250000 0.10250800 16504.75968637 0 203.07399023 0 4859.82755516 0 -146.60449950 0 352.47955573 0 11575
0.10350000 0.10349800 16549.35705105 0 146.14644282 0 5433.43095078 0 -327.61048341 0 -139.53482859 0 11364
0.10450000 0.10450100 16622.95368735 0 235.19947120 0 5600.31956201 0 308.94110385 0 330.91574130 0 12093
0.10550000 0.10551000 16423.80338645 0 168.18588925 0 6120.93337950 0 -154.78690762 0 232.35556536 0 12067
0.10650000 0.10649700 16073.83490401 0 179.99430478 0 5925.12238867 0 -59.71609100 0 654.91230033 0 12054
0.10750000 0.10749900 16262.33016950 0 103.52992612 0 6359.62814169 0 -102.50089136 0 -774.28824131 0 12807
0.10850000 0.10850100 15633.02400632 0 390.98158109 0 6700.96275009 0 -357.80817189 0 366.03122293 0 12736
0.10950000 0.10950300 15127.95335903 0 243.85751131 0 6262.64535037 0 324.10201093 0 935.30669696 0 12933
0.11050000 0.11050200 14979.11240055 0 -55.60181934 0 6291.35902310 0 561.34351417 0 706.71115079 0 13428
0.11150000 0.11150900 15330.94826033 0 284.82447475 0 6095.48212483 0 630.53863223 0 10.26657698 0 13453
0.11250000 0.11250000 14773.37135610 0 -12.14805851 0 5900.56088437 0 234.08234017 0 -308.08101182 0 13668
0.11350000 0.11349100 14545.00209213 0 386.06049257 0 5175.23857226 0 -515.11274354 0 -382.51686946 0 13791
0.11450000 0.11448600 14323.11372599 0 279.61668889 0 5761.96853212 0 -235.88820390 0 340.80625045 0 14205
0.11550000 0.11549300 13825.29289660 0 98.67122997 0 5322.15723053 0 399.48473872 0 -188.28546016 0 14776
0.11650000 0.11649800 13962.49020815 0 -15.59523708 0 5506.39048187 0 942.35659564 0 -530.64383072 0 14553
0.11750000 0.11747300 14140.11074679 0 48.27401097 0 4634.55594066 0 76.48228351 0 -618.32488598 0 14568
0.11850000 0.11849100 13513.00149812 0 144.86674012 0 5458.14623909 0 -184.08935343 0 327.49185003 0 16015
0.11950000 0.11950300 13414.90926497 0 -127.62205962 0 4649.35215992 0 304.46379207 0 841.41935819 0 15270
0.12050000 0.12050700 13828.91780556 0 2.39739395 0 4505.63001227 0 1048.36101642 0 600.60237657 0 15999
0.12150000 0.12150000 13651.51695837 0 92.71792117 0 3895.23928307 0 245.42171444 0 907.29383996 0 15670
0.12250000 0.12250700 13841.55006402 0 342.82741181 0 4647.69348946 0 -66.91779647 0 1008.66826340 0 16887
0.12350000 0.12352200 13341.86185730 0 67.83423936 0 4230.44449996 0 -142.64565954 0 1260.94105576 0 16407
0.12450000 0.12449800 13129.53006930 0 38.40272482 0 4633.55634455 0 137.15886554 0 819.73471346 0 16306
0.12550000 0.12549900 13117.88642237 0 30.34180608 0 4073.95827897 0 107.61124406 0 1286.08474240 0 17523
0.12650000 0.12650100 12771.65269460 0 251.79496345 0 4013.75183665 0 4.81167119 0 665.11916517 0 17154
0.12750000 0.12750600 12660.70851153 0 248.01736894 0 4331.75521288 0 296.49009083 0 1100.87386410 0 18007
0.12850000 0.12850300 12667.18940935 0 103.71743277 0 4200.99486087 0 -115.72137369 0 223.96225345 0 17496
0.12950000 0.12949900 12191.55741658 0 209.41099015 0 3965.17805670 0 -17.18953794 0 324.27227180 0 18405
0.13050000 0.13049000 12357.31461683 0 -159.14338910 0 4087.82080957 0 137.84759824 0 32.41042078 0 18100
0.13150000 0.13148800 12168.70950561 0 95.62432923 0 3437.83069621 0 -60.18743901 0 -592.75280101 0 19059
0.13250000 0.13249300 11884.86815011 0 293.45395497 0 3722.85838555 0 35.56562941 0 -334.44837984 0 18957
0.13350000 0.13349100 11914.52649608 0 145.64334940 0 3307.34495852 0 304.88230428 0 -289.10955651 0 19468
0.13450000 0.13450700 11863.66792503 0 -166.17900784 0 3002.46814652 0 613.96071529 0 -632.15226594 0 19953
0.13550000 0.13551000 11954.51034028 0 -36.01929226 0 3020.08740094 0 317.19710860 0 -288.10996041 0 19956
0.13650000 0.13649900 11513.91913404 0 154.05533508 0 2648.28158821 0 -372.52640069 0 -266.82954795 0 19723
0.13750000 0.13749600 11411.98230048 0 343.83359865 0 2781.18393187 0 -73.56697795 0 480.76947737 0 20946
0.13850000 0.13851100 11303.56456911 0 -106.09394505 0 2843.32365896 0 275.66004584 0 -10.34743442 0 20955
0.13950000 0.13949800 11575.32289477 0 123.79283762 0 3276.37944841 0 173.55844370 0 -54.65516887 0 20506
0.14050000 0.14048300 11224.03626362 0 43.54976599 0 2600.92709581 0 13.39986040 0 477.67512327 0 21447
0.14150000 0.14148400 11281.59542394 0 181.87815897 0 3302.05039453 0 -79.55741461 0 741.30266831 0 21771
0.14250000 0.14249400 10998.30329707 0 234.19438281 0 3302.80833004 0 -416.97986747 0 553.29841321 0 22470
0.14350000 0.14350900 10776.46985379 0 167.86294282 0 3591.83440380 0 235.54328832 0 825.04465584 0 22519
0.14450000 0.14449900 10651.16883435 0 -119.84937606 0 3541.55801510 0 260.09930032 0 1012.99069271 0 22218
0.14550000 0.14550500 10883.36072958 0 92.43265182 0 3530.92494884 0 147.38220724 0 443.79430760 0 23559
0.14650000 0.14650700 10677.85036115 0 308.17438068 0 3450.75953814 0 -117.56678188 0 763.46843732 0 23044
0.14750000 0.14750500 10402.95044773 0 154.70012949 0 3713.08211595 0 10.97464253 0 1060.06727542 0 23649
0.14850000 0.14849900 10270.36665668 0 -50.53935937 0 3456.06508670 0 34.13368053 0 797.89408779 0 23640
0.14950000 0.14949500 10136.92606896 0 201.80307518 0 3765.22588200 0 -82.11638063 0 527.95590581 0 24457
0.15050000 0.15050000 9976.90281559 0 186.44444579 0 3577.54347487 0 81.85780380 0 1082.95473085 0 24591
0.15150000 0.15149900 9935.53491525 0 52.91169751 0 3471.22379686 0 503.75799087 0 991.14677167 0 25020
0.15250000 0.15250500 9796.98650128 0 -105.17530524 0 3466.98375184 0 313.03066022 0 1117.82305960 0 25297
0.15350000 0.15350100 9714.83288295 0 131.26454389 0 3156.37299296 0 288.97993856 0 1121.74455201 0 25452
0.15450000 0.15450400 9709.35158123 0 115.08646539 0 3207.72586978 0 -227.81344459 0 1186.49860737 0 26061
0.15550000 0.15549900 9480.29028919 0 92.92937419 0 3306.29043955 0 207.15695585 0 1568.48711889 0 26128
0.15650000 0.15649500 9542.56183115 0 14.77139413 0 3207.86866922 0 -119.94274493 0 1192.73784460 0 26331
0.15750000 0.15749700 9388.26154010 0 104.45922096 0 3029.85268597 0 230.38053921 0 1197.96650115 0 27345
0.15850000 0.15849900 9278.25104570 0 166.41407769 0 2879.61668677 0 -4.27116431 0 1291.48915211 0 26980
0.15950000 0.15949700 9127.24612643 0 44.16962542 0 3058.32469810 0 277.43515277 0 1253.44957726 0 27777
0.16050000 0.16050000 9081.02304500 0 84.61844658 0 2772.20953607 0 270.67744372 0 1143.40612914 0 28224
0.16150000 0.16150500 8893.52737561 0 139.15366392 0 2512.96263858 0 148.76626338 0 1215.88233903 0 28075
0.16250000 0.16249700 8787.77889537 0 -41.71797867 0 2145.96806864 0 85.54851034 0 1371.75342396 0 28590
0.16350000 0.16349900 8739.66646747 0 20.24160143 0 2079.64321939 0 374.11367143 0 972.34447879 0 29163
0.16450000 0.16449100 8647.07750518 0 107.40912792 0 1770.07599490 0 31.36534855 0 1034.32383112 0 28996
0.16550000 0.16550500 8642.92533674 0 146.46279851 0 1518.27663762 0 188.76438752 0 1150.78776191 0 30777
0.16650000 0.16650700 8558.38806616 0 -28.05086362 0 1620.29036318 0 -64.09937484 0 662.55207056 0 29211
0.16750000 0.16749900 8417.75258340 0 62.57987892 0 1563.13763204 0 -182.44056909 0 239.90855746 0 30922
0.16850000 0.16850800 8287.14601541 0 254.10172370 0 1771.96534139 0 -295.98370203 0 597.16859918 0 30867
0.16950000 0.16949900 8151.90395778 0 153.50171262 0 2096.55946117 0 -294.75342990 0 319.72685567 0 30852
0.17050000 0.17049200 8027.39382757 0 142.91038774 0 2399.73366441 0 -164.69389363 0 -107.90694875 0 31257
0.17150000 0.17149500 7936.38664374 0 101.05971543 0 2459.52269297 0 -383.78339068 0 -220.17257591 0 32608
0.17250000 0.17250900 7778.26372143 0 112.07559405 0 2651.50006797 0 7.54083219 0 -61.57193454 0 32361
0.17350000 0.17350400 7817.07221636 0 -50.59779730 0 2942.98668599 0 307.84704042 0 85.17393641 0 32508
0.17450000 0.17449800 7883.15540501 0 -62.16400300 0 2405.14905869 0 381.06031513 0 7.00794860 0 32791
0.17550000 0.17549800 7771.60707045 0 20.00521343 0 2364.65992416 0 192.33657053 0 422.22829625 0 33633
0.17650000 0.17650100 7862.35062454 0 28.25100253 0 2308.46285083 0 58.27337724 0 595.02331216 0 33984
0.17750000 0.17750300 7691.01326142 0 186.73224160 0 2290.08566090 0 278.34138001 0 808.02076525 0 34069
0.17850000 0.17849800 7630.56515850 0 28.37007530 0 2262.84392090 0 73.41824684 0 798.39059047 0 34536
