### header ###
fiducial parameters:
Omega_m = 0.31
Omega_nu = 0
Omega_de = 0.69
Omega_k = 0
H_0 = 100
w_de = -1
zeff = 0
beta = 0
fgrowth = 0
b_1 = 2
gamma = 0.55
Lx = 3500 Ly = 3500 Lz = 3500
nx = 700 ny = 700 nz = 700
xoffset = -983.599254 yoffset = -42.9823471 zoffset = 800.977702
bins = 400 dk = 0.001
kx_ny = 0.628318531 ky_ny = 0.628318531 kz_ny = 0.628318531
############################
A(data) = 9.05261419 (not used)
A(ran) = 9.06022237 (used)
Ngal = 503435
weighted Ngal = 0
Nran = 25229228
weighted Nran = 0
SN(data) = 6707.04916
SN(ran) = 134.492759
SN(data+ran) = 6841.54192
############################
13 columns: k_central k_mean P_0(k) sigma^{lin}_{P_0(k)} P^img_1(k) sigma^{lin}_{P_1(k)} P_2(k) sigma^{lin}_{P_2(k)} P^img_3(k) sigma^{lin}_{P_3(k)} P_4(k) sigma^{lin}_{P_4(k)} N_modes
### header ###
0.00050000 0 0 0 0 0 0 0 0 0 0 0 0
0.00150000 0.00179520 17424.82748578 0 -17439.54681304 0 -27926.84779363 0 21768.45702163 0 -29223.57658686 0 3
0.00250000 0.00253879 25938.53031068 0 -17148.34579391 0 -20858.60487471 0 2845.11414429 0 7887.03295913 0 6
0.00350000 0.00331552 28143.13402776 0 -9787.94619805 0 -7934.68403499 0 -43556.24689099 0 -16692.04664888 0 7
0.00450000 0.00420575 36274.24418964 0 -8529.02630365 0 -27237.12648125 0 -2808.73323990 0 8034.08343228 0 24
0.00550000 0.00557378 51895.07532039 0 -6943.21651380 0 -43398.28873727 0 -15517.13676558 0 -4317.68397540 0 45
0.00650000 0.00659388 44440.72467524 0 -13553.53457094 0 -39257.43441129 0 21233.61818264 0 24224.71729654 0 40
0.00750000 0.00754703 79292.46671560 0 -14547.19900665 0 -70070.03926776 0 4270.45031330 0 346.48088065 0 57
0.00850000 0.00846663 63151.18653595 0 -11741.73916938 0 -77286.24437935 0 -7448.36405309 0 11452.51537331 0 75
0.00950000 0.00948925 90999.05525272 0 -1914.16063345 0 -71050.19267919 0 -10051.30132569 0 2837.88629554 0 112
0.01050000 0.01054430 76422.63728300 0 2723.17440407 0 -64334.11515723 0 -34942.25491843 0 28753.10734320 0 105
0.01150000 0.01145670 74649.83711410 0 1576.94523978 0 -53736.52906793 0 -4542.51620700 0 19060.75988032 0 144
0.01250000 0.01249090 79600.25443933 0 -7913.93417738 0 -51382.31547230 0 -7949.94160630 0 16585.60614057 0 169
0.01350000 0.01339930 85963.83702716 0 4636.22559569 0 -41007.82605212 0 -15223.07975758 0 11599.81849162 0 180
0.01450000 0.01448870 79408.24411061 0 1271.77184432 0 -12963.55317760 0 -23265.65426446 0 595.56155622 0 267
0.01550000 0.01550050 81075.92191991 0 -3577.20295312 0 -5041.92979941 0 -12676.63614177 0 4198.27068687 0 238
0.01650000 0.01653350 87485.20032967 0 2041.23016907 0 4823.43566619 0 -3837.81193761 0 -16334.27911991 0 315
0.01750000 0.01747870 86034.13829168 0 3826.81638046 0 18508.89495384 0 -29027.28227483 0 575.86621758 0 297
0.01850000 0.01844180 85554.66169850 0 5196.92211853 0 30493.50302299 0 2990.05557950 0 -7380.51234826 0 388
0.01950000 0.01947590 76011.70442273 0 -684.30921347 0 29740.84010971 0 -1477.34812018 0 -19232.11921259 0 399
0.02050000 0.02045430 80168.48637897 0 1890.74152471 0 41458.52306513 0 8622.99932208 0 -11487.99554275 0 462
0.02150000 0.02154770 83488.02421305 0 1792.81406015 0 33561.60399068 0 1355.32050338 0 -7629.59851611 0 571
0.02250000 0.02255340 77010.86114473 0 437.89559213 0 31031.08800512 0 4531.20209724 0 -7441.60854096 0 510
0.02350000 0.02348930 70248.86810938 0 3753.72503450 0 29404.38265155 0 2739.60732465 0 280.98756355 0 555
0.02450000 0.02439640 69187.42886085 0 5782.16916109 0 23428.66532157 0 8261.56294586 0 3475.94716307 0 592
0.02550000 0.02547300 65203.65392277 0 2888.32745283 0 30829.52109825 0 2623.63220734 0 80.93026649 0 837
0.02650000 0.02652900 63858.26347301 0 3362.70720433 0 29364.72834453 0 -3883.27708353 0 817.63666009 0 723
0.02750000 0.02749970 54364.40723668 0 27.45374225 0 26446.12740966 0 1332.21994724 0 6258.07576818 0 826
0.02850000 0.02848090 53166.53959669 0 -262.58730601 0 23505.22779246 0 5098.81890081 0 1685.35198658 0 831
0.02950000 0.02946900 57146.03055145 0 3151.88030277 0 30392.33510951 0 4614.95946317 0 1544.03546032 0 996
0.03050000 0.03053250 55820.41233234 0 1001.70404438 0 27020.73040139 0 533.46466896 0 7090.14615664 0 1041
0.03150000 0.03150510 54479.52555733 0 -4383.42664230 0 19627.78351697 0 9941.86202906 0 12691.79485194 0 1036
0.03250000 0.03246190 55522.95010683 0 -622.00581625 0 14583.33825044 0 3814.72236605 0 -4908.95056374 0 1059
0.03350000 0.03345080 56559.89375851 0 5479.64304763 0 19941.61275562 0 -2292.37045200 0 5712.71370866 0 1302
0.03450000 0.03451200 49627.63984815 0 1585.37040695 0 20892.76689544 0 -3429.38355990 0 8723.72785265 0 1339
0.03550000 0.03553350 49703.10386179 0 -2435.27974128 0 19722.14099545 0 9643.69679091 0 9885.20360368 0 1365
0.03650000 0.03647120 52266.35387364 0 -1583.96438166 0 15913.67983577 0 5239.41044528 0 -2886.92142754 0 1308
0.03750000 0.03744890 52549.86569197 0 2833.74511167 0 13907.34765379 0 -2818.75117010 0 2932.22180486 0 1579
0.03850000 0.03847530 49017.99606989 0 2642.69044076 0 14878.05433280 0 -4080.28539278 0 2214.46786325 0 1662
0.03950000 0.03950240 44464.67104347 0 1438.26501094 0 18588.31341360 0 -239.20884019 0 3288.06703364 0 1683
0.04050000 0.04050350 44142.93291256 0 326.47358015 0 19664.14245222 0 1467.49495858 0 -402.23417724 0 1822
0.04150000 0.04152450 43559.65210849 0 -39.79622770 0 17843.12000968 0 3591.52683577 0 2364.07774181 0 1887
0.04250000 0.04250150 44748.40255325 0 2124.95458129 0 20946.15191819 0 -235.55537135 0 3261.78095145 0 1920
0.04350000 0.04349210 43425.42063155 0 942.05451989 0 19893.28063626 0 2608.85795721 0 6486.69767732 0 2005
0.04450000 0.04448520 41362.84743795 0 528.03060090 0 20630.01591929 0 -1342.40264602 0 6443.41846134 0 2151
0.04550000 0.04548030 40332.05514692 0 257.77935860 0 18190.67188616 0 4689.94015561 0 9131.48617144 0 2274
0.04650000 0.04648670 40425.09447668 0 349.66970207 0 19028.79477411 0 3501.71697034 0 8230.87205007 0 2311
0.04750000 0.04749250 38401.29682430 0 1626.80421472 0 19482.89700463 0 -3081.42525424 0 9572.49479144 0 2568
0.04850000 0.04851840 36748.11865080 0 2540.50096204 0 19728.29235609 0 4029.44879087 0 9478.41192728 0 2493
0.04950000 0.04949480 36284.02045924 0 -1800.28356950 0 17971.09028025 0 3050.32792926 0 14732.94812900 0 2644
0.05050000 0.05050630 36752.18294266 0 12.56008983 0 15597.32414543 0 1760.78304650 0 5415.84465008 0 2829
0.05150000 0.05149060 35762.03357018 0 1816.95815068 0 11764.91661752 0 -343.91268758 0 10765.08983660 0 2784
0.05250000 0.05249300 35232.46732603 0 -1627.13375190 0 11837.52464228 0 3370.53920458 0 6913.90967415 0 3055
0.05350000 0.05348950 37907.43044104 0 -1043.14993519 0 10315.11780537 0 3608.84950673 0 6619.29245294 0 3009
0.05450000 0.05448610 36283.36138489 0 1071.55054760 0 8401.89086059 0 -1495.63743353 0 5576.26334806 0 3336
0.05550000 0.05550870 35415.58015096 0 755.21792486 0 9251.13013600 0 -1399.90688348 0 5261.63223561 0 3349
0.05650000 0.05647670 35753.46560356 0 1124.15017340 0 12041.06877222 0 -2698.47010033 0 773.28425138 0 3324
0.05750000 0.05747970 32599.68496973 0 1172.58115391 0 13653.38433571 0 -1964.71163647 0 593.48107817 0 3639
0.05850000 0.05849280 34058.32636281 0 605.39933942 0 14754.25819981 0 1610.37129414 0 -726.68989141 0 3846
0.05950000 0.05951020 33902.34543215 0 -380.28919814 0 13923.16543830 0 110.23897351 0 -1134.46468706 0 3787
0.06050000 0.06049470 32798.50573346 0 749.61359593 0 13770.58972515 0 -1624.93683739 0 -2120.09940021 0 3930
0.06150000 0.06148310 31831.53380912 0 364.41649076 0 14702.63070868 0 265.35322139 0 -2841.25855932 0 4083
0.06250000 0.06249100 31574.27511926 0 -367.93265244 0 13150.73029438 0 2086.27790123 0 204.70959308 0 4303
0.06350000 0.06350600 31185.09171271 0 471.77640780 0 12946.30739865 0 1040.46420719 0 -2631.91457506 0 4470
0.06450000 0.06451750 31822.63630533 0 1115.94469768 0 13404.58376674 0 1587.27073800 0 1702.19133635 0 4479
0.06550000 0.06550280 29590.79084825 0 1165.03475255 0 11003.90542909 0 672.21080523 0 1993.59007779 0 4636
0.06650000 0.06648880 29912.19944198 0 -657.99896522 0 13245.52715576 0 2066.48370144 0 3129.20814496 0 4653
0.06750000 0.06749660 29648.67954576 0 -265.55863290 0 10576.01238875 0 1754.63168585 0 3718.14600391 0 5220
0.06850000 0.06852730 29463.80918921 0 -103.59616309 0 10137.62908160 0 257.27077288 0 4266.93525008 0 5029
0.06950000 0.06949320 28723.33915150 0 870.90634483 0 9846.57086192 0 141.47909793 0 4276.42592079 0 5040
0.07050000 0.07048030 28617.00848892 0 308.05794421 0 9618.52015055 0 1944.62085322 0 5909.51331103 0 5475
0.07150000 0.07148790 28538.24910351 0 240.61486548 0 9058.52664036 0 -32.52916401 0 4865.73725520 0 5509
0.07250000 0.07249820 27468.79111699 0 844.64333024 0 10005.13316713 0 -946.31104177 0 2584.92257356 0 5916
0.07350000 0.07351270 26998.87110196 0 244.81756295 0 10798.24127665 0 -938.92501516 0 4456.17746651 0 5721
0.07450000 0.07449140 26088.90910932 0 468.51508820 0 10768.53899239 0 393.50913124 0 2394.03267124 0 6028
0.07550000 0.07549160 25899.97446092 0 600.78691739 0 10687.00051011 0 -511.02867946 0 921.51227071 0 6183
0.07650000 0.07648840 25473.88289049 0 601.13293143 0 11291.26184781 0 -654.17303859 0 223.41961556 0 6330
0.07750000 0.07749960 24932.34346223 0 301.93953729 0 11054.10492578 0 1705.14618637 0 193.18238262 0 6583
0.07850000 0.07848650 24780.31697770 0 -213.75978243 0 10340.88761265 0 75.23333761 0 484.39218941 0 6549
0.07950000 0.07947320 24300.95023025 0 -20.26137366 0 9191.78049034 0 1661.12001947 0 -196.07352212 0 6828
0.08050000 0.08048110 24218.12655299 0 547.15254485 0 10209.53409372 0 -480.06207089 0 931.20945138 0 7147
0.08150000 0.08149960 23392.19654060 0 128.66449556 0 7844.12721863 0 979.80849585 0 268.27731461 0 7386
0.08250000 0.08250610 22895.14463129 0 480.03241255 0 8645.74837190 0 1062.43664773 0 1137.91384285 0 7227
0.08350000 0.08350160 22349.76060263 0 442.31688259 0 7974.75575576 0 -233.39141055 0 329.65141700 0 7798
0.08450000 0.08449610 22624.70445434 0 203.77810133 0 6936.76856969 0 857.77868213 0 887.56664606 0 7371
0.08550000 0.08548940 21985.73186728 0 27.76295797 0 7428.64674531 0 247.87127413 0 -132.48273299 0 8256
0.08650000 0.08650700 21745.38941920 0 154.26733733 0 6258.48219737 0 114.51416916 0 114.06599860 0 8037
0.08750000 0.08749060 21207.14536272 0 271.74624263 0 6169.46322117 0 600.46946324 0 286.10966974 0 8155
0.08850000 0.08849210 21208.90289433 0 729.28444745 0 6357.43122718 0 -514.26912837 0 -1084.51563861 0 8718
0.08950000 0.08949900 20216.55660733 0 261.29771719 0 6577.07874051 0 -297.79615651 0 -770.66223391 0 8571
0.09050000 0.09049190 20128.13079805 0 2.97388629 0 6315.32736047 0 428.20390374 0 -1398.19329016 0 8932
0.09150000 0.09150830 19727.74312746 0 247.79657903 0 6496.51788520 0 229.42707831 0 -387.78287355 0 9285
0.09250000 0.09250820 19913.82178699 0 148.95080420 0 5277.16442124 0 410.38692701 0 -338.03264587 0 9204
0.09350000 0.09350330 19438.07994849 0 -196.04825760 0 5748.54538442 0 973.07824823 0 -589.95283346 0 9349
0.09450000 0.09448040 19199.38518630 0 521.37834374 0 5406.70548569 0 187.97679367 0 288.63392452 0 9564
0.09550000 0.09549270 18515.37585166 0 735.08210486 0 5949.03580318 0 -737.06042638 0 50.01956940 0 10155
0.09650000 0.09649430 17952.08696969 0 487.09439426 0 6315.66788222 0 252.11351606 0 902.20358902 0 9913
0.09750000 0.09749140 17359.13974175 0 39.54292345 0 6469.75946640 0 205.66854627 0 813.84588409 0 10476
0.09850000 0.09850240 17745.24746798 0 -143.18500206 0 6186.70900012 0 303.33128263 0 751.25908490 0 10575
0.09950000 0.09950330 17190.52655262 0 92.65662726 0 5394.85313188 0 342.40560422 0 157.34191920 0 10882
0.10050000 0.10051200 17177.67460270 0 20.70811623 0 5470.47092953 0 730.89368733 0 588.51495290 0 10875
0.10150000 0.10150300 17282.46742513 0 267.64350477 0 4839.00080554 0 187.54729688 0 1591.73047447 0 11118
0.10250000 0.10250800 17015.43246568 0 288.58449394 0 5091.63499034 0 389.44483938 0 276.68710338 0 11575
0.10350000 0.10349800 16694.35340913 0 124.01033216 0 4141.42552376 0 -308.95428534 0 436.18858955 0 11364
0.10450000 0.10450100 16661.07015420 0 235.48067626 0 5015.00661201 0 619.91545209 0 979.52509388 0 12093
0.10550000 0.10551000 16107.77723328 0 -22.00473518 0 4447.59851532 0 -138.20349839 0 481.53510208 0 12067
0.10650000 0.10649700 15954.54244577 0 452.67203916 0 4670.40958556 0 -273.45434367 0 688.64482427 0 12054
0.10750000 0.10749900 15698.05267600 0 314.45096546 0 5086.68094811 0 -613.67841177 0 -328.55295974 0 12807
0.10850000 0.10850100 15238.34831347 0 195.75716643 0 5629.85707768 0 -8.47754161 0 -661.89079929 0 12736
0.10950000 0.10950300 15057.87178596 0 121.98258006 0 5434.26577830 0 150.69076050 0 -92.04489641 0 12933
0.11050000 0.11050200 14821.59362973 0 66.08033266 0 5503.05117180 0 235.52461455 0 -284.37410727 0 13428
0.11150000 0.11150900 15184.74359927 0 134.16996334 0 5163.24341900 0 610.50387030 0 -319.21936841 0 13453
0.11250000 0.11250000 14921.00401159 0 -78.74818114 0 4767.83175979 0 449.64469096 0 504.64224896 0 13668
0.11350000 0.11349100 15024.14914813 0 -50.00012670 0 4588.16809065 0 344.28726150 0 97.32957428 0 13791
0.11450000 0.11448600 15114.77187193 0 13.23926595 0 4469.21615416 0 -90.32482219 0 193.16480730 0 14205
0.11550000 0.11549300 14766.89045828 0 114.90631840 0 4261.65167067 0 4.45347526 0 20.59838035 0 14776
0.11650000 0.11649800 14359.47266124 0 281.61148727 0 4917.10111659 0 -686.37980540 0 -83.55876486 0 14553
0.11750000 0.11747300 14162.07989195 0 535.55283620 0 4780.55189484 0 -202.47423256 0 -374.75297356 0 14568
0.11850000 0.11849100 13981.49351871 0 315.26162691 0 5192.46238206 0 541.48230848 0 141.15065921 0 16015
0.11950000 0.11950300 13926.79034726 0 29.89572258 0 5217.47425383 0 564.13798943 0 722.29386546 0 15270
0.12050000 0.12050700 13505.31229731 0 -191.54897667 0 4895.38461660 0 117.72495973 0 424.81516310 0 15999
0.12150000 0.12150000 13593.29872369 0 197.67946663 0 4812.64881592 0 -73.57598530 0 1111.40806921 0 15670
0.12250000 0.12250700 13344.82769190 0 226.16246333 0 4707.57039461 0 0.52971234 0 632.40710802 0 16887
0.12350000 0.12352200 13340.32401714 0 -126.17319450 0 5077.53079915 0 -43.77055590 0 730.47297820 0 16407
0.12450000 0.12449800 13475.76379707 0 189.60031350 0 4712.42557569 0 237.82807942 0 -491.65958263 0 16306
0.12550000 0.12549900 13230.36844560 0 300.64555464 0 5345.19187923 0 -564.51036644 0 -177.92371284 0 17523
0.12650000 0.12650100 13018.14650333 0 151.12355266 0 5082.27613450 0 147.22073402 0 -18.38191329 0 17154
0.12750000 0.12750600 13120.41287406 0 -275.31732718 0 4575.56878590 0 463.43142801 0 -259.16011937 0 18007
0.12850000 0.12850300 12640.93628088 0 86.30985106 0 4171.80885152 0 289.69173886 0 -678.60272802 0 17496
0.12950000 0.12949900 12519.66659959 0 545.80803317 0 4261.31114892 0 234.71285463 0 91.39537863 0 18405
0.13050000 0.13049000 12030.52358254 0 174.40425579 0 4407.99913117 0 66.04441311 0 582.45366575 0 18100
0.13150000 0.13148800 11972.96442221 0 58.84226825 0 4079.12102808 0 556.92881445 0 445.61225436 0 19059
0.13250000 0.13249300 12007.01659721 0 -64.01149826 0 3530.59541166 0 686.56983851 0 973.09582355 0 18957
0.13350000 0.13349100 11882.78108132 0 -103.42260684 0 3410.31434189 0 275.52273869 0 585.70180387 0 19468
0.13450000 0.13450700 11976.25979399 0 410.58355086 0 3714.93850872 0 -562.72976723 0 700.67293125 0 19953
0.13550000 0.13551000 11566.75492815 0 101.54852891 0 3716.76194777 0 -114.03084797 0 954.60219715 0 19956
0.13650000 0.13649900 11694.06612437 0 -147.28554300 0 3749.71566551 0 230.45523430 0 865.33606807 0 19723
0.13750000 0.13749600 11709.00514308 0 -17.72470632 0 3867.27256128 0 -45.78523636 0 318.55260486 0 20946
0.13850000 0.13851100 11486.23801113 0 141.01445051 0 3689.01491743 0 15.19638725 0 424.09787051 0 20955
0.13950000 0.13949800 11619.48087654 0 -9.29407981 0 3503.66123969 0 501.61929459 0 878.10563370 0 20506
0.14050000 0.14048300 11749.09883300 0 138.46712813 0 3447.57401209 0 155.22189669 0 152.04076447 0 21447
0.14150000 0.14148400 11417.25489532 0 185.68541183 0 3146.65164622 0 20.73777458 0 583.54333535 0 21771
0.14250000 0.14249400 11346.62409362 0 156.75973685 0 3661.60840884 0 97.89835545 0 822.16559937 0 22470
0.14350000 0.14350900 10877.37413752 0 151.89796503 0 3342.88005082 0 42.74415744 0 823.36401624 0 22519
0.14450000 0.14449900 10919.39012765 0 144.13736450 0 3237.09861686 0 125.58112604 0 844.81029574 0 22218
0.14550000 0.14550500 10513.52115534 0 153.79170534 0 3411.70938261 0 -29.66427764 0 549.65702740 0 23559
0.14650000 0.14650700 10445.87815738 0 247.46594340 0 3443.67448882 0 -182.18902238 0 779.74318006 0 23044
0.14750000 0.14750500 10126.68844731 0 202.64009961 0 3568.19560361 0 -181.90232503 0 300.22374705 0 23649
0.14850000 0.14849900 9756.34358273 0 186.40380288 0 3673.98802214 0 56.93523660 0 458.12368253 0 23640
0.14950000 0.14949500 9703.01348285 0 64.44549872 0 3760.99682155 0 17.59728528 0 531.84554296 0 24457
0.15050000 0.15050000 9832.15910269 0 23.87112391 0 3306.23551669 0 366.10152419 0 55.63400414 0 24591
0.15150000 0.15149900 9720.47895325 0 -141.36485838 0 3205.43009411 0 342.73074757 0 593.75459403 0 25020
0.15250000 0.15250500 9675.80469657 0 102.52802325 0 3110.55634072 0 173.65181257 0 382.37626693 0 25297
0.15350000 0.15350100 9649.67239840 0 363.96172945 0 3025.49181065 0 -243.55653402 0 446.42071891 0 25452
0.15450000 0.15450400 9495.11946218 0 35.09186480 0 3388.47701160 0 -244.00799995 0 342.00247041 0 26061
0.15550000 0.15549900 9092.83146053 0 80.52581453 0 3203.84831566 0 -39.51227650 0 285.89766749 0 26128
0.15650000 0.15649500 9305.38293998 0 -68.34996505 0 3197.05984980 0 342.89222078 0 277.47909106 0 26331
0.15750000 0.15749700 9332.92126344 0 -121.16203249 0 2742.02393062 0 527.35614814 0 131.07780616 0 27345
0.15850000 0.15849900 9416.62370651 0 75.86978374 0 2550.01360190 0 -131.34363281 0 -273.00507465 0 26980
0.15950000 0.15949700 9130.35476047 0 168.49235883 0 2572.34523795 0 14.16054205 0 111.99870204 0 27777
0.16050000 0.16050000 9172.30484316 0 167.58942696 0 2628.08095923 0 -31.84647283 0 330.97505799 0 28224
0.16150000 0.16150500 8950.04300154 0 -82.50479512 0 2610.83518028 0 57.57937194 0 -83.77032773 0 28075
0.16250000 0.16249700 8919.43998233 0 90.56626309 0 2520.41017879 0 273.12260958 0 56.26089369 0 28590
0.16350000 0.16349900 9105.97999391 0 69.91241065 0 2352.13751142 0 207.23934015 0 -64.04291414 0 29163
0.16450000 0.16449100 8904.85246994 0 140.03572510 0 2538.66653842 0 48.07442129 0 247.32424241 0 28996
0.16550000 0.16550500 8769.34678258 0 52.25207393 0 2502.80190894 0 -117.25811539 0 613.97279832 0 30777
0.16650000 0.16650700 8524.80822778 0 133.70970975 0 2574.99251995 0 115.37206428 0 551.03778817 0 29211
0.16750000 0.16749900 8518.76671286 0 95.58511431 0 2292.32651371 0 246.01927519 0 583.43678500 0 30922
0.16850000 0.16850800 8567.63707627 0 156.97613293 0 2620.76523389 0 -61.72308225 0 600.58589971 0 30867
0.16950000 0.16949900 8221.90863885 0 40.53010699 0 2473.61589959 0 -88.70229097 0 548.45092133 0 30852
0.17050000 0.17049200 8141.66633614 0 160.39892575 0 2481.01950151 0 -147.22952168 0 577.10088354 0 31257
0.17150000 0.17149500 7955.59866118 0 46.58128833 0 2465.75094562 0 88.35836400 0 474.68402416 0 32608
0.17250000 0.17250900 8010.36774007 0 55.72045272 0 2218.71889284 0 242.80189388 0 35.06429352 0 32361
0.17350000 0.17350400 7890.32833090 0 84.25244062 0 2381.15875218 0 101.01962174 0 191.44462323 0 32508
0.17450000 0.17449800 7699.30661372 0 77.30414923 0 2249.80523325 0 169.44472127 0 333.36310407 0 32791
0.17550000 0.17549800 7797.71739947 0 168.46160202 0 2052.07194221 0 -71.36621883 0 11.86059224 0 33633
0.17650000 0.17650100 7549.50999742 0 108.61018109 0 2292.67802003 0 -176.30348839 0 424.23957149 0 33984
0.17750000 0.17750300 7465.01666513 0 -36.25095690 0 2298.38999778 0 58.04588674 0 565.22326520 0 34069
0.17850000 0.17849800 7591.41614182 0 -150.66329907 0 1989.70153909 0 556.52238526 0 273.73994256 0 34536
