### header ###
fiducial parameters:
Omega_m = 0.31
Omega_nu = 0
Omega_de = 0.69
Omega_k = 0
H_0 = 100
w_de = -1
zeff = 0
beta = 0
fgrowth = 0
b_1 = 2
gamma = 0.55
Lx = 3500 Ly = 3500 Lz = 3500
nx = 700 ny = 700 nz = 700
xoffset = -983.599254 yoffset = -42.9823471 zoffset = 800.977702
bins = 400 dk = 0.001
kx_ny = 0.628318531 ky_ny = 0.628318531 kz_ny = 0.628318531
############################
A(data) = 9.07696293 (not used)
A(ran) = 9.07478258 (used)
Ngal = 504783
weighted Ngal = 0
Nran = 25229228
weighted Nran = 0
SN(data) = 6711.9271
SN(ran) = 134.708895
SN(data+ran) = 6846.63599
############################
13 columns: k_central k_mean P_0(k) sigma^{lin}_{P_0(k)} P^img_1(k) sigma^{lin}_{P_1(k)} P_2(k) sigma^{lin}_{P_2(k)} P^img_3(k) sigma^{lin}_{P_3(k)} P_4(k) sigma^{lin}_{P_4(k)} N_modes
### header ###
0.00050000 0 0 0 0 0 0 0 0 0 0 0 0
0.00150000 0.00179520 45000.93787689 0 -55616.31897378 0 -32959.31987605 0 -14911.22774200 0 31977.40893300 0 3
0.00250000 0.00253879 70371.45593939 0 -42540.39361867 0 -5378.66187189 0 -119379.23635678 0 4192.66855486 0 6
0.00350000 0.00331552 74029.97768333 0 12227.03758602 0 -23389.23070600 0 -22808.69604508 0 -7344.35113532 0 7
0.00450000 0.00420575 60107.47131938 0 32760.16957515 0 11634.09035808 0 -19385.57369155 0 48738.65838915 0 24
0.00550000 0.00557378 58075.54508329 0 -16795.08193970 0 14798.74571876 0 29408.33709768 0 -19253.20959195 0 45
0.00650000 0.00659388 77030.08414675 0 -9585.58840196 0 20044.97758361 0 11913.75757600 0 7710.87336864 0 40
0.00750000 0.00754703 59594.71147129 0 5306.92162836 0 -15677.18198809 0 -7585.51742634 0 19483.55607898 0 57
0.00850000 0.00846663 68684.00589945 0 -4903.76584548 0 -6632.15538744 0 31272.52891046 0 -6212.86326744 0 75
0.00950000 0.00948925 88037.39479334 0 5700.03751190 0 12672.79154137 0 -25216.07497201 0 -4263.50806343 0 112
0.01050000 0.01054430 65060.19540486 0 10895.91609604 0 1059.55319742 0 -16995.55038931 0 19982.03598272 0 105
0.01150000 0.01145670 64047.19812141 0 -6159.65399785 0 10406.81701728 0 16730.93203582 0 11440.98157210 0 144
0.01250000 0.01249090 69736.10826129 0 -5623.22239584 0 14127.80802549 0 6413.30974790 0 -17736.13027274 0 169
0.01350000 0.01339930 72419.30980573 0 6974.98389770 0 6307.00105446 0 2010.75896473 0 2826.62710864 0 180
0.01450000 0.01448870 68748.04595759 0 3513.18486412 0 18007.11967832 0 -7022.22854437 0 22902.28460347 0 267
0.01550000 0.01550050 68469.80673411 0 -8102.64913433 0 10612.14064797 0 16212.67990143 0 22988.84303541 0 238
0.01650000 0.01653350 83316.44518933 0 -11203.93449579 0 2239.60056532 0 14219.19966937 0 -10233.59030767 0 315
0.01750000 0.01747870 83030.40691931 0 4452.49763469 0 8609.29057550 0 -4080.07668590 0 -1053.79947830 0 297
0.01850000 0.01844180 80273.16935567 0 6976.90619790 0 9981.58224351 0 -19187.96123082 0 19199.60487775 0 388
0.01950000 0.01947590 76902.55325908 0 -1094.96086868 0 19730.70896206 0 -1124.17214255 0 10455.52261211 0 399
0.02050000 0.02045430 79750.30370079 0 2436.91644260 0 37685.43222917 0 3420.21144179 0 -6044.73339951 0 462
0.02150000 0.02154770 73188.66926933 0 6243.92763870 0 26335.95214667 0 -5226.85507882 0 8338.59775338 0 571
0.02250000 0.02255340 70423.19327625 0 1193.39691895 0 37310.19922979 0 1864.14787449 0 5293.05909776 0 510
0.02350000 0.02348930 64590.82461846 0 179.94267728 0 41271.56563980 0 5360.25172824 0 540.89353539 0 555
0.02450000 0.02439640 69262.34364585 0 2219.81735010 0 36739.44083846 0 1802.81002120 0 5682.28644261 0 592
0.02550000 0.02547300 68232.10058345 0 -773.03600004 0 35481.92696935 0 1984.60469742 0 -3119.22316849 0 837
0.02650000 0.02652900 69006.73264189 0 400.96326219 0 27130.02689858 0 1054.21359669 0 -6588.49171143 0 723
0.02750000 0.02749970 67914.42674440 0 -26.55871928 0 30115.63372619 0 2663.06682290 0 -12961.46610881 0 826
0.02850000 0.02848090 65803.08204854 0 2615.74528422 0 25597.56917776 0 2868.84082107 0 -6090.08869969 0 831
0.02950000 0.02946900 64952.65643929 0 1301.47412858 0 24541.18283261 0 744.54970797 0 -14622.33348311 0 996
0.03050000 0.03053250 62820.00167262 0 2059.59637443 0 20851.13536536 0 -1118.33933451 0 -10605.74762673 0 1041
0.03150000 0.03150510 58551.50661324 0 1537.74130023 0 19864.83059328 0 7117.73940297 0 -10481.85263259 0 1036
0.03250000 0.03246190 58092.68101651 0 -1922.69564635 0 19686.11159738 0 373.61057801 0 -11412.75122056 0 1059
0.03350000 0.03345080 55470.22415844 0 3308.08092488 0 16924.04082180 0 -650.70520903 0 -7408.75368437 0 1302
0.03450000 0.03451200 56510.13364472 0 1419.44843811 0 17317.72790312 0 2124.43830638 0 -8036.23640850 0 1339
0.03550000 0.03553350 57268.72822719 0 -3446.51949312 0 13811.78187233 0 1886.38064939 0 -13320.88132367 0 1365
0.03650000 0.03647120 55329.40193795 0 2468.82662595 0 17866.40730355 0 -1860.67674955 0 -11459.21596258 0 1308
0.03750000 0.03744890 51903.53344128 0 4894.72554225 0 17074.63931189 0 -4433.47235498 0 -5603.30736575 0 1579
0.03850000 0.03847530 50037.80378834 0 636.98218250 0 23913.63420104 0 1446.04208833 0 -3877.49919835 0 1662
0.03950000 0.03950240 46623.57893861 0 1356.39699149 0 21019.96824593 0 3224.08189835 0 -4483.36428365 0 1683
0.04050000 0.04050350 45433.51034515 0 1989.92123055 0 24566.11781237 0 1381.85923073 0 -1612.43639379 0 1822
0.04150000 0.04152450 43949.93397231 0 1575.29755389 0 22854.72140419 0 -403.10745076 0 -58.24152197 0 1887
0.04250000 0.04250150 43602.16240438 0 1714.72473367 0 26113.62439763 0 3005.86237945 0 2718.92337448 0 1920
0.04350000 0.04349210 40992.44765051 0 137.08966273 0 22050.98022842 0 -2061.03535344 0 2994.20774794 0 2005
0.04450000 0.04448520 38989.85022320 0 107.22667417 0 21873.13999833 0 5243.58458286 0 3004.09386326 0 2151
0.04550000 0.04548030 39373.65118920 0 359.43169172 0 21088.95136174 0 4147.34620838 0 1868.97010185 0 2274
0.04650000 0.04648670 39500.52300251 0 1277.65957523 0 21403.32982902 0 -921.58586734 0 1948.39954619 0 2311
0.04750000 0.04749250 39199.87525096 0 198.99541843 0 17912.98189130 0 1962.71244426 0 1076.67265379 0 2568
0.04850000 0.04851840 38790.48023085 0 -198.81746835 0 16159.07518724 0 -352.03028672 0 -2246.53183062 0 2493
0.04950000 0.04949480 37877.33271217 0 -841.96638990 0 15316.99785315 0 2667.24096048 0 478.38252975 0 2644
0.05050000 0.05050630 38234.88054969 0 513.67925682 0 14012.25032194 0 1115.45039192 0 1659.98860849 0 2829
0.05150000 0.05149060 37457.72203956 0 -389.49207305 0 9513.80422014 0 1294.97126161 0 -719.36208304 0 2784
0.05250000 0.05249300 37412.79513770 0 852.66646205 0 11444.60648105 0 973.36714249 0 -4861.91462395 0 3055
0.05350000 0.05348950 36673.64324870 0 1438.07827320 0 12969.59469252 0 -2163.94981395 0 -1725.06121646 0 3009
0.05450000 0.05448610 35464.02211604 0 1345.53324921 0 12886.00209517 0 -2123.32886455 0 -4141.89786038 0 3336
0.05550000 0.05550870 33772.83732142 0 181.76721479 0 12533.61700676 0 149.00682552 0 -5944.18062210 0 3349
0.05650000 0.05647670 34914.79348698 0 -539.57099285 0 14382.54026366 0 1946.13672424 0 -3660.13647611 0 3324
0.05750000 0.05747970 33875.32338360 0 112.33812533 0 12379.72314490 0 1128.62089444 0 -5474.43636023 0 3639
0.05850000 0.05849280 34594.59319623 0 336.20151763 0 12790.65600517 0 264.71062389 0 -2333.34290773 0 3846
0.05950000 0.05951020 33932.22346958 0 299.27248306 0 12183.42883287 0 1106.66273385 0 -2417.62753315 0 3787
0.06050000 0.06049470 33961.88181555 0 270.43798004 0 12212.75764166 0 940.35960034 0 -442.05654822 0 3930
0.06150000 0.06148310 34225.40171177 0 329.36581811 0 12641.48550951 0 -287.35641873 0 -2265.93058580 0 4083
0.06250000 0.06249100 32793.01344716 0 1166.35290126 0 13708.74658152 0 -1177.09581324 0 479.34038448 0 4303
0.06350000 0.06350600 30913.99246140 0 1114.93411701 0 13716.32593660 0 5.75931027 0 1369.77620089 0 4470
0.06450000 0.06451750 31432.90367014 0 -71.11599027 0 14339.81027631 0 1388.21929826 0 1264.01673608 0 4479
0.06550000 0.06550280 31729.81666702 0 -487.10757575 0 13222.34970761 0 3504.84757353 0 -227.30266197 0 4636
0.06650000 0.06648880 31401.15825538 0 -148.13245355 0 13027.81292720 0 -13.56957205 0 1295.13603020 0 4653
0.06750000 0.06749660 30514.92293952 0 1108.02482085 0 10657.60579389 0 99.26472643 0 1748.52426350 0 5220
0.06850000 0.06852730 29825.86070149 0 661.33937375 0 12487.48180192 0 652.59894934 0 1253.47154640 0 5029
0.06950000 0.06949320 29374.39476840 0 -202.67744716 0 10559.63439103 0 1116.30718858 0 681.58833484 0 5040
0.07050000 0.07048030 28109.52123566 0 1165.11164456 0 11808.08598777 0 -939.48852374 0 -817.31700903 0 5475
0.07150000 0.07148790 27643.99504966 0 1198.35096119 0 11193.71884329 0 65.68082376 0 2132.19341462 0 5509
0.07250000 0.07249820 26713.38206057 0 -826.43420427 0 10095.98656695 0 1856.43670454 0 1277.59366779 0 5916
0.07350000 0.07351270 27569.95903046 0 -491.71780086 0 9193.24143850 0 3645.12056539 0 228.66584743 0 5721
0.07450000 0.07449140 27057.41887382 0 -185.60192908 0 6209.44706536 0 461.93423076 0 2050.24850316 0 6028
0.07550000 0.07549160 26895.28658252 0 795.89379712 0 7844.50069410 0 -418.41994494 0 1310.93184558 0 6183
0.07650000 0.07648840 26989.97359817 0 1181.34684283 0 7740.04839342 0 -2288.54782074 0 1319.00550642 0 6330
0.07750000 0.07749960 25158.51581168 0 421.36161348 0 8386.39162868 0 693.29349539 0 1856.95297945 0 6583
0.07850000 0.07848650 25468.93983283 0 -622.96916326 0 9301.96673791 0 803.57091490 0 908.27256538 0 6549
0.07950000 0.07947320 25545.28261227 0 259.22712526 0 7365.25477694 0 1073.79140040 0 218.03607654 0 6828
0.08050000 0.08048110 25398.41887686 0 739.80547107 0 9082.29725542 0 -508.59230126 0 908.33957127 0 7147
0.08150000 0.08149960 24150.90096879 0 551.11248326 0 8443.00611576 0 -1221.01213442 0 1480.80826055 0 7386
0.08250000 0.08250610 23591.12715005 0 659.86853948 0 9969.05983077 0 615.57984129 0 2039.81315921 0 7227
0.08350000 0.08350160 23728.21461586 0 -379.18634705 0 9573.64817156 0 127.48585092 0 1405.01470973 0 7798
0.08450000 0.08449610 23760.28956780 0 92.12134903 0 8167.67780401 0 1197.50514910 0 -1147.64617415 0 7371
0.08550000 0.08548940 23542.35564779 0 243.50710344 0 9108.67121419 0 -312.84282403 0 1318.13772519 0 8256
0.08650000 0.08650700 23194.03485123 0 395.12606032 0 9363.76594325 0 -215.73590704 0 -155.22299515 0 8037
0.08750000 0.08749060 21958.16059011 0 821.14403412 0 9621.44204686 0 -1240.61959648 0 583.58178136 0 8155
0.08850000 0.08849210 21245.92090393 0 1036.56688084 0 10653.09113456 0 322.79594525 0 -998.84585859 0 8718
0.08950000 0.08949900 20319.70174387 0 463.67308860 0 10312.83301428 0 31.55406351 0 435.40099569 0 8571
0.09050000 0.09049190 20068.81410611 0 -58.02853111 0 9985.29502905 0 1975.45454846 0 -229.98948842 0 8932
0.09150000 0.09150830 19987.74796046 0 243.95747092 0 9351.92457401 0 82.21820762 0 656.85437276 0 9285
0.09250000 0.09250820 19060.32049742 0 548.09062735 0 8484.40696982 0 347.68808517 0 1294.03757295 0 9204
0.09350000 0.09350330 18869.73816313 0 18.15661971 0 8708.31649732 0 858.90899465 0 988.83232223 0 9349
0.09450000 0.09448040 18698.26898514 0 -304.67799123 0 7710.14838685 0 1112.38569617 0 1862.98350980 0 9564
0.09550000 0.09549270 19186.09385348 0 -310.83813954 0 6498.35230882 0 1042.19427737 0 -17.59333083 0 10155
0.09650000 0.09649430 18819.31897499 0 514.70411744 0 5918.23506166 0 -284.36092579 0 425.25454600 0 9913
0.09750000 0.09749140 18351.37618302 0 763.11363563 0 6553.58273976 0 -1078.03144542 0 294.55021531 0 10476
0.09850000 0.09850240 18102.90515123 0 310.26804022 0 7398.61492387 0 -445.77812141 0 519.31873639 0 10575
0.09950000 0.09950330 17322.23157788 0 161.76430812 0 6824.80282137 0 425.47753282 0 -1204.23869209 0 10882
0.10050000 0.10051200 17410.87707861 0 -205.90361612 0 6750.37135756 0 1442.83459313 0 -241.02459004 0 10875
0.10150000 0.10150300 17046.62865181 0 189.08623550 0 5607.02015128 0 638.52441650 0 220.73059219 0 11118
0.10250000 0.10250800 16891.63633269 0 356.53286302 0 5480.68658203 0 262.48295257 0 282.34965055 0 11575
0.10350000 0.10349800 16473.78319169 0 476.81283432 0 5233.12726976 0 -332.58869170 0 656.06348354 0 11364
0.10450000 0.10450100 15767.58502044 0 325.03789651 0 5984.96634009 0 171.32857547 0 473.29777110 0 12093
0.10550000 0.10551000 15469.35387485 0 402.55163139 0 5605.15277394 0 -219.62224882 0 335.40843149 0 12067
0.10650000 0.10649700 15027.99374854 0 -122.15064402 0 5324.33217590 0 688.38448990 0 1160.37729378 0 12054
0.10750000 0.10749900 15070.17450725 0 -397.34055016 0 5126.39017799 0 902.50676323 0 634.37224806 0 12807
0.10850000 0.10850100 15671.79954753 0 146.85165238 0 4975.67085760 0 -245.64140589 0 -55.26338466 0 12736
0.10950000 0.10950300 15589.30540744 0 382.16865851 0 4920.31959636 0 -200.37947457 0 786.00218952 0 12933
0.11050000 0.11050200 15190.34573129 0 73.63376415 0 5427.30155928 0 -361.99768788 0 43.58810215 0 13428
0.11150000 0.11150900 15134.43425685 0 107.50029988 0 5813.95851414 0 -936.75116825 0 -802.51969131 0 13453
0.11250000 0.11250000 15101.04115620 0 244.06511973 0 6021.80859653 0 -68.21046098 0 -378.05164070 0 13668
0.11350000 0.11349100 14765.13292666 0 107.59191121 0 6116.01229099 0 221.71151452 0 -608.43217991 0 13791
0.11450000 0.11448600 14911.88681635 0 -165.06846755 0 5993.18280038 0 604.53595201 0 -824.57671305 0 14205
0.11550000 0.11549300 15040.73585273 0 162.28827223 0 5717.14049141 0 797.64913182 0 -283.39208648 0 14776
0.11650000 0.11649800 14991.63481329 0 138.47371887 0 5297.83738684 0 469.81126776 0 491.10596017 0 14553
0.11750000 0.11747300 14386.71440124 0 -161.87854767 0 5280.07533297 0 306.05655509 0 1221.85794651 0 14568
0.11850000 0.11849100 14205.68864510 0 355.19054825 0 4977.42838921 0 117.69090755 0 1161.59658133 0 16015
0.11950000 0.11950300 14287.19417365 0 408.79306553 0 5163.48507959 0 -193.82058628 0 1323.33342802 0 15270
0.12050000 0.12050700 13480.81670045 0 252.55509588 0 5273.80314203 0 258.93603409 0 1466.04499500 0 15999
0.12150000 0.12150000 13793.43763612 0 -41.56265681 0 5483.04826513 0 490.18215761 0 1438.50667153 0 15670
0.12250000 0.12250700 13677.98977829 0 -68.74606873 0 4782.97948538 0 229.29196806 0 1565.49931515 0 16887
0.12350000 0.12352200 13782.89244644 0 -91.97206869 0 4691.70867180 0 403.17775203 0 1992.32685194 0 16407
0.12450000 0.12449800 13488.61574699 0 -5.60145097 0 4068.15842465 0 217.28033795 0 1192.34239999 0 16306
0.12550000 0.12549900 13542.33030691 0 312.91532221 0 4255.24766485 0 -172.29192248 0 1309.50385114 0 17523
0.12650000 0.12650100 13112.61382753 0 452.24254237 0 4936.18131917 0 -234.37892363 0 987.32963270 0 17154
0.12750000 0.12750600 12872.93045380 0 13.41578803 0 4213.40742789 0 133.18245026 0 1311.37122848 0 18007
0.12850000 0.12850300 12988.37831163 0 -253.44484625 0 4498.16050291 0 302.66342062 0 126.55655608 0 17496
0.12950000 0.12949900 12933.34560300 0 231.31972016 0 3834.42868926 0 -24.68672842 0 353.54176390 0 18405
0.13050000 0.13049000 12720.35474065 0 194.68507215 0 4244.26309227 0 -60.56179324 0 622.10467740 0 18100
0.13150000 0.13148800 12610.50901483 0 -132.89465446 0 3462.94142913 0 461.20155977 0 520.72366322 0 19059
0.13250000 0.13249300 12947.62554736 0 68.03163213 0 3820.66501982 0 399.69893789 0 162.75731348 0 18957
0.13350000 0.13349100 12623.14127330 0 75.92338846 0 3089.47694594 0 -41.13590617 0 369.09591868 0 19468
0.13450000 0.13450700 12473.64124047 0 254.21486479 0 3867.90966649 0 -90.04098083 0 561.13261037 0 19953
0.13550000 0.13551000 12520.65521112 0 -88.99305261 0 3511.92163827 0 -160.45824244 0 607.40841774 0 19956
0.13650000 0.13649900 12275.91893401 0 132.33444126 0 3660.57585901 0 163.79096176 0 120.46231521 0 19723
0.13750000 0.13749600 12067.21205496 0 435.60750566 0 3996.82461030 0 -493.64559335 0 668.54635182 0 20946
0.13850000 0.13851100 12009.54304891 0 199.33374326 0 4419.47800951 0 -339.98899825 0 204.66675325 0 20955
0.13950000 0.13949800 11626.95038590 0 146.17719963 0 4616.24465816 0 393.71783812 0 544.69309905 0 20506
0.14050000 0.14048300 11516.44558573 0 304.69117272 0 4764.22881998 0 -162.96602036 0 -273.64657369 0 21447
0.14150000 0.14148400 10958.12173057 0 210.90599048 0 4842.77949851 0 -81.45324199 0 1141.09936890 0 21771
0.14250000 0.14249400 10866.47744152 0 -1.33782208 0 4580.62168928 0 943.42649301 0 924.80544557 0 22470
0.14350000 0.14350900 10992.04209070 0 -147.12187287 0 4181.93662744 0 670.75534936 0 1271.59609116 0 22519
0.14450000 0.14449900 10980.37647462 0 162.62000632 0 3814.97501122 0 -50.69753722 0 939.11065444 0 22218
0.14550000 0.14550500 10604.14387913 0 63.43085375 0 3344.56069042 0 -4.06525850 0 1299.50789009 0 23559
0.14650000 0.14650700 10663.57041680 0 38.87396298 0 3689.92663695 0 -42.77579301 0 586.58606196 0 23044
0.14750000 0.14750500 10382.47520444 0 258.77895470 0 3429.36159075 0 -33.78535973 0 43.34523325 0 23649
0.14850000 0.14849900 10572.65110954 0 158.85339639 0 3537.98802901 0 -86.16496455 0 200.49371413 0 23640
0.14950000 0.14949500 9941.11507812 0 31.94456506 0 3418.86033936 0 -6.05615735 0 300.87842758 0 24457
0.15050000 0.15050000 10193.02428113 0 40.56020472 0 3267.08650001 0 456.17392090 0 -260.68807341 0 24591
0.15150000 0.15149900 10232.59071157 0 79.74437203 0 3139.39084375 0 -79.01993947 0 -478.84278334 0 25020
0.15250000 0.15250500 9904.55842057 0 -25.69522203 0 2953.97125857 0 124.35524774 0 -106.14963683 0 25297
0.15350000 0.15350100 9622.70527271 0 313.49970147 0 2995.19635947 0 170.18727837 0 324.84786341 0 25452
0.15450000 0.15450400 9630.57022668 0 238.82218323 0 3074.84549526 0 -133.25934227 0 47.29078188 0 26061
0.15550000 0.15549900 9343.18085423 0 197.02258919 0 3109.39197603 0 10.49211222 0 -189.24221643 0 26128
0.15650000 0.15649500 9104.00277084 0 82.44350121 0 3310.68426858 0 36.78953049 0 -65.85613753 0 26331
0.15750000 0.15749700 8985.49021726 0 62.91798406 0 2967.13077653 0 52.64202626 0 424.80198161 0 27345
0.15850000 0.15849900 8999.04517983 0 -7.74633157 0 2818.48754036 0 650.90952208 0 425.10515581 0 26980
0.15950000 0.15949700 8838.54958984 0 -112.05911719 0 2617.41493926 0 222.47384386 0 569.31282157 0 27777
0.16050000 0.16050000 8924.43796286 0 98.31489044 0 2341.53739887 0 202.44786959 0 588.88842837 0 28224
0.16150000 0.16150500 9051.50749848 0 27.14694314 0 2286.63650511 0 257.88810586 0 611.09044647 0 28075
0.16250000 0.16249700 8884.04768948 0 -23.55399929 0 2319.86483717 0 -331.75386419 0 1011.11782308 0 28590
0.16350000 0.16349900 8878.75312549 0 204.24604412 0 2300.75168088 0 -69.76302046 0 19.35514643 0 29163
0.16450000 0.16449100 8710.85393359 0 158.32503844 0 2592.95229612 0 -289.84771979 0 309.51889237 0 28996
0.16550000 0.16550500 8533.66179328 0 99.72047635 0 2683.21252902 0 3.15263824 0 277.14186468 0 30777
0.16650000 0.16650700 8508.41924548 0 120.61829614 0 2720.08773917 0 289.04035370 0 488.09728574 0 29211
0.16750000 0.16749900 8407.62480748 0 -5.08152918 0 2261.53675676 0 393.02581005 0 545.10392206 0 30922
0.16850000 0.16850800 8456.40729431 0 -79.45602700 0 2194.91532406 0 339.24863806 0 670.80807531 0 30867
0.16950000 0.16949900 8271.83352123 0 75.41436337 0 1917.34615950 0 40.46244202 0 697.82133620 0 30852
0.17050000 0.17049200 8241.84563808 0 107.64364855 0 1899.86970452 0 152.11655802 0 1040.58393903 0 31257
0.17150000 0.17149500 8141.58944413 0 118.53122735 0 1796.64767598 0 -138.00138225 0 625.96905003 0 32608
0.17250000 0.17250900 7924.69905851 0 204.12411536 0 2092.07775555 0 -259.42594603 0 474.79936217 0 32361
0.17350000 0.17350400 8021.08868291 0 10.52155088 0 1873.60559148 0 197.68056509 0 567.32241702 0 32508
0.17450000 0.17449800 8086.88627268 0 -241.61556004 0 1848.46190484 0 251.18312276 0 367.49217108 0 32791
0.17550000 0.17549800 7901.62047152 0 169.85334737 0 1546.92440291 0 28.94237153 0 324.60510435 0 33633
0.17650000 0.17650100 7822.48761064 0 238.17079808 0 1647.76277921 0 -136.48331432 0 327.17219896 0 33984
0.17750000 0.17750300 7695.08853784 0 156.21160668 0 2037.80298243 0 -227.09834892 0 583.34231768 0 34069
0.17850000 0.17849800 7485.64569244 0 -45.63013419 0 1954.62779884 0 145.32040296 0 445.29480022 0 34536
