### header ###
fiducial parameters:
Omega_m = 0.31
Omega_nu = 0
Omega_de = 0.69
Omega_k = 0
H_0 = 100
w_de = -1
zeff = 0
beta = 0
fgrowth = 0
b_1 = 2
gamma = 0.55
Lx = 3500 Ly = 3500 Lz = 3500
nx = 700 ny = 700 nz = 700
xoffset = -983.599254 yoffset = -42.9823471 zoffset = 800.977702
bins = 400 dk = 0.001
kx_ny = 0.628318531 ky_ny = 0.628318531 kz_ny = 0.628318531
############################
A(data) = 9.0351512 (not used)
A(ran) = 9.04037278 (used)
Ngal = 502422
weighted Ngal = 0
Nran = 25229228
weighted Nran = 0
SN(data) = 6749.74285
SN(ran) = 134.198106
SN(data+ran) = 6883.94095
############################
13 columns: k_central k_mean P_0(k) sigma^{lin}_{P_0(k)} P^img_1(k) sigma^{lin}_{P_1(k)} P_2(k) sigma^{lin}_{P_2(k)} P^img_3(k) sigma^{lin}_{P_3(k)} P_4(k) sigma^{lin}_{P_4(k)} N_modes
### header ###
0.00050000 0 0 0 0 0 0 0 0 0 0 0 0
0.00150000 0.00179520 27524.59274570 0 -30455.71609331 0 -10751.07352198 0 -33564.89936246 0 -46875.78472508 0 3
0.00250000 0.00253879 52979.58217135 0 -39313.23604000 0 -35720.40204009 0 -36157.36833738 0 -10907.18626751 0 6
0.00350000 0.00331552 62450.59049671 0 -28464.43277576 0 -57869.14496448 0 -21746.81741364 0 8957.46857261 0 7
0.00450000 0.00420575 59960.05835534 0 -3721.21069966 0 -35070.00549755 0 -35100.76230078 0 -9469.41556234 0 24
0.00550000 0.00557378 69749.50943984 0 11204.81326160 0 -3697.00070169 0 -34184.09971887 0 -29189.74410331 0 45
0.00650000 0.00659388 48613.32441599 0 15549.54125470 0 23795.22050861 0 -11599.37910872 0 18757.25613990 0 40
0.00750000 0.00754703 50634.15623378 0 -2820.00341137 0 18001.40770058 0 -4609.90655978 0 622.51330350 0 57
0.00850000 0.00846663 36351.02635199 0 -622.37709480 0 21095.43225957 0 716.69942264 0 -24671.89924633 0 75
0.00950000 0.00948925 52883.24746981 0 7719.62807299 0 29768.74092407 0 2588.39369850 0 -36962.31781614 0 112
0.01050000 0.01054430 51400.54986278 0 -5050.68450376 0 14581.36102738 0 18220.00069495 0 10888.82006215 0 105
0.01150000 0.01145670 57224.24070823 0 -20858.05564608 0 8576.87510181 0 17741.73240476 0 7480.28522102 0 144
0.01250000 0.01249090 67755.47997914 0 -5716.71209308 0 -13827.81934830 0 21234.60679417 0 24722.20858875 0 169
0.01350000 0.01339930 74142.13016939 0 790.66074675 0 -12245.60151368 0 -514.81616008 0 5518.42957342 0 180
0.01450000 0.01448870 79872.01276500 0 2639.86740561 0 2213.57811287 0 -10642.24936142 0 1167.06689848 0 267
0.01550000 0.01550050 81114.36792395 0 6687.86913957 0 4073.03557487 0 -22731.80403701 0 -3002.14959392 0 238
0.01650000 0.01653350 69835.29895170 0 281.80591420 0 19686.55098028 0 -16254.09174007 0 -939.61594478 0 315
0.01750000 0.01747870 71487.26882220 0 1275.12213896 0 45051.90629367 0 -9081.46242791 0 -6741.86929838 0 297
0.01850000 0.01844180 69691.40105088 0 4533.36605804 0 31864.04814396 0 2371.33854429 0 -3738.70912379 0 388
0.01950000 0.01947590 77481.76977129 0 -3605.60905782 0 47505.20073399 0 11118.03513821 0 -13673.59594926 0 399
0.02050000 0.02045430 74949.49625412 0 -2349.84173575 0 35657.78997638 0 2231.81250336 0 -8942.45266189 0 462
0.02150000 0.02154770 83112.79121367 0 1242.83848014 0 37520.33410327 0 3187.42637965 0 546.03651228 0 571
0.02250000 0.02255340 82670.55232154 0 -2759.08297184 0 32561.12911997 0 -14876.29680119 0 -19813.42279360 0 510
0.02350000 0.02348930 76542.14943269 0 6383.06921958 0 42006.87292840 0 7731.88685599 0 -17692.41167387 0 555
0.02450000 0.02439640 72860.34039487 0 2041.99908915 0 33188.01867719 0 -682.19688016 0 396.19595769 0 592
0.02550000 0.02547300 75443.91186600 0 2287.61413207 0 37447.50638706 0 10766.81441449 0 -21526.68657911 0 837
0.02650000 0.02652900 65202.22592834 0 6060.60610689 0 29939.33133626 0 -7977.06251601 0 -12862.38526412 0 723
0.02750000 0.02749970 62194.43026411 0 2169.89246772 0 35113.17486780 0 9267.68388688 0 -9281.12900372 0 826
0.02850000 0.02848090 55260.19913069 0 -1277.89025125 0 23306.84641164 0 9149.76450022 0 -4069.30082019 0 831
0.02950000 0.02946900 58987.48429899 0 -516.42320305 0 17318.60666892 0 14781.28024836 0 -3000.20532457 0 996
0.03050000 0.03053250 59138.96155489 0 80.47638395 0 10663.32875620 0 3202.10176861 0 -1259.64487619 0 1041
0.03150000 0.03150510 57867.71697005 0 3200.08060726 0 8426.74894834 0 -805.47893516 0 7325.47963963 0 1036
0.03250000 0.03246190 52161.56105122 0 -749.78715217 0 12688.93886306 0 -844.02929263 0 -1414.21978156 0 1059
0.03350000 0.03345080 53405.12451315 0 2259.85611716 0 13328.46067875 0 -4954.02026504 0 2320.06255948 0 1302
0.03450000 0.03451200 49925.21191938 0 4400.30993036 0 14746.78869045 0 -4171.11682345 0 -5707.77065100 0 1339
0.03550000 0.03553350 48741.95376092 0 1516.29941456 0 25517.16210646 0 -3111.83055114 0 -1805.81979408 0 1365
0.03650000 0.03647120 47125.46405985 0 478.53411685 0 21257.01532224 0 4003.26156984 0 -3698.08817438 0 1308
0.03750000 0.03744890 45999.54537026 0 -951.50125231 0 24637.18799697 0 2306.71630379 0 354.87419256 0 1579
0.03850000 0.03847530 45396.82187272 0 993.46341803 0 22757.28824540 0 2067.30754438 0 4396.15776192 0 1662
0.03950000 0.03950240 46459.35957852 0 -738.40823343 0 22867.90289129 0 2847.89324116 0 -171.62296201 0 1683
0.04050000 0.04050350 47723.35434545 0 463.90815846 0 20177.34168322 0 2132.40212150 0 627.32454629 0 1822
0.04150000 0.04152450 45395.50372401 0 1539.58670843 0 21058.30440424 0 -1437.57298287 0 489.31657329 0 1887
0.04250000 0.04250150 44619.44367114 0 1841.87116129 0 19290.44729300 0 -1770.69113097 0 1077.06480303 0 1920
0.04350000 0.04349210 42362.88292576 0 -316.16016495 0 23790.60698812 0 -1197.08773534 0 -2807.23933803 0 2005
0.04450000 0.04448520 40523.29655556 0 1410.10056684 0 20754.03174374 0 1351.91528588 0 -1025.50321934 0 2151
0.04550000 0.04548030 40588.98429960 0 1912.76559273 0 22618.11371079 0 1832.78691977 0 -4162.79051743 0 2274
0.04650000 0.04648670 38635.15837455 0 970.47490453 0 22135.45159157 0 1769.88925717 0 781.84013496 0 2311
0.04750000 0.04749250 39089.26060506 0 -12.91302414 0 22620.75000821 0 1106.06956693 0 -1833.87439246 0 2568
0.04850000 0.04851840 37099.51512768 0 841.72033548 0 19915.57931860 0 3102.38381872 0 1023.89947174 0 2493
0.04950000 0.04949480 38869.67899916 0 -1019.85605057 0 19373.49066172 0 2506.17417272 0 4378.48358464 0 2644
0.05050000 0.05050630 37590.41567634 0 100.78861618 0 19431.81874212 0 1693.51352401 0 3067.02447958 0 2829
0.05150000 0.05149060 38243.55836203 0 2221.67374287 0 21199.89554481 0 -1076.99120640 0 3254.75082500 0 2784
0.05250000 0.05249300 34459.26326203 0 1297.19014528 0 20112.53270499 0 -2189.71962123 0 6812.96145213 0 3055
0.05350000 0.05348950 35563.65218936 0 -472.56400165 0 22082.72564318 0 2888.39336026 0 5791.67081638 0 3009
0.05450000 0.05448610 35048.03635239 0 878.23744857 0 20188.21641007 0 2907.06713365 0 2136.35656763 0 3336
0.05550000 0.05550870 34139.61219991 0 916.70432329 0 20482.82264670 0 244.23428215 0 5455.34517308 0 3349
0.05650000 0.05647670 33195.92756945 0 6.10265505 0 19669.41504706 0 1288.44642550 0 7374.19621903 0 3324
0.05750000 0.05747970 32051.66464365 0 -594.90138340 0 16506.29752653 0 3376.74548809 0 5332.08728415 0 3639
0.05850000 0.05849280 33284.79276163 0 10.25596588 0 14921.33354877 0 3514.90944201 0 8184.84669096 0 3846
0.05950000 0.05951020 32721.06449676 0 210.17112257 0 13315.38903738 0 1940.36982363 0 8434.97639321 0 3787
0.06050000 0.06049470 33196.36695235 0 24.33544179 0 11826.86960688 0 2171.92461365 0 6474.87827722 0 3930
0.06150000 0.06148310 32829.48222813 0 49.35016954 0 11039.93482715 0 589.80344327 0 5122.21604041 0 4083
0.06250000 0.06249100 31089.08654835 0 801.88038918 0 9840.30965554 0 -620.68107679 0 7890.28439261 0 4303
0.06350000 0.06350600 30884.77349833 0 518.52015796 0 11998.66832205 0 -493.10515238 0 5691.24985384 0 4470
0.06450000 0.06451750 30392.22526379 0 1238.33480539 0 10487.35590345 0 -232.85316649 0 5032.39519041 0 4479
0.06550000 0.06550280 29816.74350625 0 -48.02279379 0 12423.33189805 0 149.08481599 0 3443.92713399 0 4636
0.06650000 0.06648880 28913.81164006 0 78.12667403 0 11618.82180219 0 814.03811411 0 4830.31200863 0 4653
0.06750000 0.06749660 30062.02901199 0 173.61336656 0 10721.42616058 0 1021.12696562 0 4058.31624761 0 5220
0.06850000 0.06852730 28990.26426523 0 -167.77396778 0 11321.35957669 0 -624.23678294 0 2328.10326661 0 5029
0.06950000 0.06949320 28387.21123051 0 810.15836308 0 11429.00838798 0 -233.48807479 0 1880.72359451 0 5040
0.07050000 0.07048030 27880.82243451 0 1259.71078363 0 12689.81762887 0 -1889.86275890 0 1612.20571776 0 5475
0.07150000 0.07148790 26992.60989559 0 -47.02726198 0 13373.27773488 0 -263.18486676 0 1580.52621044 0 5509
0.07250000 0.07249820 27587.86388377 0 -50.43621424 0 12964.43194340 0 3066.95857215 0 1206.65529806 0 5916
0.07350000 0.07351270 28167.84931606 0 -1106.17941266 0 10861.05106267 0 1019.16731787 0 442.52558947 0 5721
0.07450000 0.07449140 28663.25353948 0 889.55155833 0 10086.52884996 0 -289.07550434 0 -446.95676605 0 6028
0.07550000 0.07549160 27174.51441753 0 746.06667744 0 12170.46703723 0 -1706.58516538 0 897.89104583 0 6183
0.07650000 0.07648840 26358.03113756 0 637.24581225 0 11898.15948293 0 382.09835724 0 1342.87498264 0 6330
0.07750000 0.07749960 26288.27910167 0 -7.06014729 0 12489.34917926 0 737.05822946 0 38.77839720 0 6583
0.07850000 0.07848650 25718.39947615 0 217.84164960 0 11767.55291494 0 906.04818943 0 510.00821267 0 6549
0.07950000 0.07947320 25296.92142620 0 690.60227510 0 11027.96164304 0 763.16086929 0 207.12180522 0 6828
0.08050000 0.08048110 24399.59169203 0 311.39615582 0 10498.38441432 0 942.43238919 0 2371.00900711 0 7147
0.08150000 0.08149960 24295.45794396 0 335.12832488 0 10364.98776489 0 265.46416557 0 997.29264003 0 7386
0.08250000 0.08250610 23728.98353594 0 365.02393762 0 8769.81911920 0 1458.18004103 0 -151.06423597 0 7227
0.08350000 0.08350160 23240.49959325 0 210.53361347 0 9013.42398534 0 585.73036375 0 1874.14383554 0 7798
0.08450000 0.08449610 22448.51191014 0 507.21373740 0 7981.21468444 0 608.93307642 0 1177.82079503 0 7371
0.08550000 0.08548940 22370.08206191 0 -20.82696931 0 8245.43759331 0 407.95604110 0 1373.15944925 0 8256
0.08650000 0.08650700 21465.50250983 0 461.26636875 0 7288.59344490 0 818.27046993 0 1956.96751280 0 8037
0.08750000 0.08749060 21147.93851651 0 186.55538998 0 6107.03789519 0 1436.82603193 0 2820.92611547 0 8155
0.08850000 0.08849210 21240.64830909 0 -90.91634142 0 5459.21174263 0 848.80648325 0 2125.11934988 0 8718
0.08950000 0.08949900 21479.23322556 0 -46.96344161 0 5205.78666861 0 686.22711984 0 3216.41466669 0 8571
0.09050000 0.09049190 20668.90130623 0 263.17717756 0 4834.66189937 0 265.59378353 0 2040.13171182 0 8932
0.09150000 0.09150830 20801.15556011 0 496.79047648 0 4883.94967654 0 -909.85104846 0 3143.91648765 0 9285
0.09250000 0.09250820 19844.83867118 0 442.10927417 0 5990.09613549 0 -766.42768118 0 1301.55102059 0 9204
0.09350000 0.09350330 19778.38200706 0 467.69783600 0 6463.38841430 0 -481.63616015 0 1172.69099964 0 9349
0.09450000 0.09448040 18951.57322887 0 358.88026618 0 6393.81213157 0 -632.31593607 0 842.39808361 0 9564
0.09550000 0.09549270 18861.82927088 0 95.70122124 0 7164.05036097 0 -343.22505333 0 369.03550353 0 10155
0.09650000 0.09649430 18519.54998924 0 322.16652924 0 6323.64268192 0 1423.28205394 0 -141.70647859 0 9913
0.09750000 0.09749140 18260.20423060 0 317.09495208 0 6643.29374404 0 387.70158772 0 -322.58394300 0 10476
0.09850000 0.09850240 18017.11563937 0 153.20842454 0 6165.25612987 0 188.65234488 0 898.57977853 0 10575
0.09950000 0.09950330 17501.06041950 0 -63.44667154 0 5773.51331790 0 589.73204355 0 867.06284288 0 10882
0.10050000 0.10051200 17526.65447361 0 -239.11766824 0 4797.13859943 0 1010.35878912 0 1435.55182151 0 10875
0.10150000 0.10150300 17542.80179531 0 195.84174764 0 5269.76081932 0 421.30449370 0 801.19714877 0 11118
0.10250000 0.10250800 17074.74915762 0 534.45657586 0 4140.55774253 0 -569.35126758 0 1297.39885216 0 11575
0.10350000 0.10349800 17185.91303214 0 460.71164783 0 4931.24924608 0 -52.54019927 0 1552.10912117 0 11364
0.10450000 0.10450100 16496.85079411 0 36.50678759 0 5501.19477904 0 -118.93875500 0 1069.21303055 0 12093
0.10550000 0.10551000 16120.18980030 0 448.78020510 0 5025.81543143 0 117.92268203 0 350.91425414 0 12067
0.10650000 0.10649700 15938.94435271 0 81.05494139 0 5491.60524717 0 46.04117690 0 1143.91141948 0 12054
0.10750000 0.10749900 15430.68817937 0 392.82259545 0 5838.80561732 0 120.63147763 0 454.40101089 0 12807
0.10850000 0.10850100 15070.28435297 0 394.95470099 0 5823.21850883 0 92.97023680 0 1917.42305151 0 12736
0.10950000 0.10950300 14812.36658876 0 139.45793658 0 5721.67711989 0 275.42936982 0 2134.64297431 0 12933
0.11050000 0.11050200 14420.10750188 0 47.24332852 0 5972.41097363 0 449.66006936 0 2140.55267435 0 13428
0.11150000 0.11150900 14317.07221107 0 363.17962789 0 5710.70353188 0 74.72497159 0 2359.63997449 0 13453
0.11250000 0.11250000 14015.32600226 0 121.26199210 0 5967.34708567 0 -267.22169719 0 2622.78639525 0 13668
0.11350000 0.11349100 14053.33262339 0 -104.22063604 0 5309.90943210 0 741.47183073 0 2037.18784636 0 13791
0.11450000 0.11448600 14388.03254995 0 -280.59321739 0 5148.22750828 0 784.56101359 0 2411.24549648 0 14205
0.11550000 0.11549300 14530.72214778 0 -70.13462855 0 4017.11311586 0 413.01663369 0 1412.16566648 0 14776
0.11650000 0.11649800 14450.20523076 0 219.81777421 0 4205.37770533 0 86.22252371 0 2305.18944820 0 14553
0.11750000 0.11747300 14063.54827589 0 196.78971625 0 3525.71826143 0 -97.35516833 0 1573.72676001 0 14568
0.11850000 0.11849100 13941.39982879 0 384.27220416 0 4344.91473083 0 -311.13142762 0 810.33741161 0 16015
0.11950000 0.11950300 13398.87178900 0 190.57794046 0 4267.93484618 0 -263.77693522 0 1193.74842528 0 15270
0.12050000 0.12050700 13460.93462408 0 -173.79241510 0 4271.41695569 0 208.50146754 0 357.45446866 0 15999
0.12150000 0.12150000 13125.79531462 0 161.79616338 0 4321.10017748 0 -139.23165438 0 541.48560385 0 15670
0.12250000 0.12250700 13334.06281077 0 237.27445696 0 4186.02288844 0 132.21470942 0 -110.34991769 0 16887
0.12350000 0.12352200 13023.52894389 0 157.11673546 0 4035.52325951 0 -79.95088200 0 92.21955111 0 16407
0.12450000 0.12449800 12709.26032234 0 44.85330522 0 3739.75265818 0 403.37986816 0 367.06267429 0 16306
0.12550000 0.12549900 12985.19278558 0 28.66962459 0 4454.67258007 0 -36.92123551 0 264.83145419 0 17523
0.12650000 0.12650100 12820.75373404 0 130.95697586 0 3841.84327575 0 70.02665021 0 27.05027890 0 17154
0.12750000 0.12750600 12500.33375184 0 98.08992639 0 3901.80805747 0 344.39930414 0 734.24178505 0 18007
0.12850000 0.12850300 12340.39837506 0 168.60549992 0 4311.51064561 0 -51.80016861 0 617.38460656 0 17496
0.12950000 0.12949900 12397.40830676 0 313.04713708 0 4115.34814846 0 -97.05561904 0 187.26389491 0 18405
0.13050000 0.13049000 12086.87443988 0 3.72152925 0 4440.98580263 0 22.48146563 0 481.85255622 0 18100
0.13150000 0.13148800 12040.19000641 0 21.01766149 0 4257.18094963 0 -41.87868297 0 338.59176062 0 19059
0.13250000 0.13249300 11918.81047939 0 -66.71666895 0 4325.28529963 0 291.14939164 0 775.18897627 0 18957
0.13350000 0.13349100 12177.93654658 0 -158.51946538 0 3789.27111138 0 368.89709791 0 218.51500390 0 19468
0.13450000 0.13450700 12398.94614692 0 236.60329957 0 3755.62536556 0 203.23875881 0 285.59998557 0 19953
0.13550000 0.13551000 12113.45710553 0 198.00680689 0 3400.04376653 0 -320.16514011 0 -29.16601743 0 19956
0.13650000 0.13649900 12021.07685012 0 56.41149218 0 3736.69894700 0 91.39482940 0 232.53131852 0 19723
0.13750000 0.13749600 11709.88390889 0 117.79416253 0 3793.15965007 0 1.30860312 0 -424.00999393 0 20946
0.13850000 0.13851100 11422.74718161 0 325.14334841 0 3428.44987123 0 100.82508496 0 95.51843795 0 20955
0.13950000 0.13949800 11121.98958434 0 124.62766514 0 3722.18832662 0 200.82215285 0 58.63531890 0 20506
0.14050000 0.14048300 11009.61740683 0 69.76543707 0 3053.70019304 0 242.73159262 0 -120.44913373 0 21447
0.14150000 0.14148400 10746.65772380 0 129.51579993 0 3383.69872253 0 394.69436662 0 182.54162716 0 21771
0.14250000 0.14249400 10612.38230857 0 213.71364723 0 3113.42331417 0 -196.66009830 0 92.09300884 0 22470
0.14350000 0.14350900 10607.18660574 0 194.79601633 0 2854.62678415 0 36.80919287 0 269.54493429 0 22519
0.14450000 0.14449900 10428.99486932 0 -300.88501832 0 2815.56564405 0 598.12206008 0 475.60233443 0 22218
0.14550000 0.14550500 10691.94356778 0 -80.34215247 0 2768.99105630 0 213.54887864 0 94.32331645 0 23559
0.14650000 0.14650700 10520.54029722 0 272.48660282 0 2386.14574813 0 -30.14122778 0 497.58795645 0 23044
0.14750000 0.14750500 10416.59328688 0 125.02970049 0 2866.25944651 0 -390.07755077 0 166.69308584 0 23649
0.14850000 0.14849900 10252.32998850 0 87.22398719 0 2805.11931553 0 -109.50015116 0 243.46755898 0 23640
0.14950000 0.14949500 10022.81832898 0 161.15795971 0 2838.43552416 0 143.75070754 0 29.37022063 0 24457
0.15050000 0.15050000 10083.99141369 0 113.82214109 0 2952.80689388 0 145.75649050 0 772.76028727 0 24591
0.15150000 0.15149900 9915.00474910 0 -54.02827932 0 2454.85424962 0 517.39863310 0 38.76686340 0 25020
0.15250000 0.15250500 9922.59508875 0 89.41398143 0 2292.28257542 0 198.61645067 0 323.35505999 0 25297
0.15350000 0.15350100 9874.90007460 0 82.05585564 0 2390.08920968 0 -23.32969432 0 160.76910584 0 25452
0.15450000 0.15450400 9394.79736079 0 269.90632673 0 2295.32530202 0 -279.12567849 0 738.36759052 0 26061
0.15550000 0.15549900 9522.21840273 0 135.52545959 0 2414.18936193 0 -226.16246333 0 -47.33285279 0 26128
0.15650000 0.15649500 9223.31719822 0 105.42355658 0 2756.24895211 0 -6.61741409 0 10.99072394 0 26331
0.15750000 0.15749700 9264.35556139 0 145.23032947 0 2656.21244961 0 275.02733446 0 319.47091513 0 27345
0.15850000 0.15849900 9023.84834472 0 -101.30675847 0 2512.13879564 0 127.29471936 0 262.68506871 0 26980
0.15950000 0.15949700 9060.26220283 0 143.71006462 0 2801.80197461 0 19.82902089 0 370.04388729 0 27777
0.16050000 0.16050000 8733.47116853 0 226.83581763 0 2816.69705503 0 -300.81691397 0 517.86547743 0 28224
0.16150000 0.16150500 8708.11877501 0 138.65496432 0 3138.67684653 0 39.81874607 0 872.82205428 0 28075
0.16250000 0.16249700 8761.91022694 0 -136.01646999 0 2785.39102317 0 227.35428946 0 468.55133729 0 28590
0.16350000 0.16349900 8872.85441002 0 -56.87548053 0 2705.22561247 0 286.92472503 0 257.06426292 0 29163
0.16450000 0.16449100 8812.97750487 0 122.05837361 0 2525.95738794 0 -28.01988712 0 367.01763755 0 28996
0.16550000 0.16550500 8601.42562153 0 100.78982449 0 2526.08920281 0 -254.59163563 0 315.72956971 0 30777
0.16650000 0.16650700 8533.18945666 0 189.98037971 0 2708.76264484 0 -2.72898524 0 119.19799091 0 29211
0.16750000 0.16749900 8374.09989196 0 100.76994241 0 2290.42618265 0 209.87344065 0 134.23587077 0 30922
0.16850000 0.16850800 8263.22161632 0 -57.09923627 0 2536.66734621 0 280.02641344 0 484.63385000 0 30867
0.16950000 0.16949900 8236.92454956 0 70.74734801 0 2202.60452487 0 300.78066488 0 341.04571413 0 30852
0.17050000 0.17049200 8263.10078603 0 59.63985806 0 2179.60282988 0 138.14967398 0 493.23257342 0 31257
0.17150000 0.17149500 8137.72287458 0 165.61330235 0 2235.97565637 0 -157.24195959 0 684.01153155 0 32608
0.17250000 0.17250900 7905.31128791 0 170.85074656 0 2321.89698310 0 -212.09781660 0 895.00869398 0 32361
0.17350000 0.17350400 7963.54050716 0 -50.97039400 0 2517.72994308 0 349.81030460 0 1267.79542905 0 32508
0.17450000 0.17449800 7989.72772819 0 -262.08750796 0 2353.76322816 0 178.15219195 0 511.52298522 0 32791
0.17550000 0.17549800 8171.40157412 0 253.66453771 0 2030.83876341 0 8.10043025 0 594.49605267 0 33633
0.17650000 0.17650100 7995.95598085 0 171.64273424 0 2547.84964110 0 -553.60817816 0 866.63883838 0 33984
0.17750000 0.17750300 7828.91358560 0 -58.84732115 0 2576.83792814 0 -15.64104274 0 806.18853855 0 34069
0.17850000 0.17849800 7809.97618247 0 77.22813599 0 2431.99535408 0 312.98891885 0 21.51075895 0 34536
