### header ###
fiducial parameters:
Omega_m = 0.31
Omega_nu = 0
Omega_de = 0.69
Omega_k = 0
H_0 = 100
w_de = -1
zeff = 0
beta = 0
fgrowth = 0
b_1 = 2
gamma = 0.55
Lx = 3500 Ly = 3500 Lz = 3500
nx = 700 ny = 700 nz = 700
xoffset = -983.599254 yoffset = -42.9823471 zoffset = 800.977702
bins = 400 dk = 0.001
kx_ny = 0.628318531 ky_ny = 0.628318531 kz_ny = 0.628318531
############################
A(data) = 9.08588177 (not used)
A(ran) = 9.09488221 (used)
Ngal = 505166
weighted Ngal = 0
Nran = 25229228
weighted Nran = 0
SN(data) = 6747.95852
SN(ran) = 135.007261
SN(data+ran) = 6882.96578
############################
13 columns: k_central k_mean P_0(k) sigma^{lin}_{P_0(k)} P^img_1(k) sigma^{lin}_{P_1(k)} P_2(k) sigma^{lin}_{P_2(k)} P^img_3(k) sigma^{lin}_{P_3(k)} P_4(k) sigma^{lin}_{P_4(k)} N_modes
### header ###
0.00050000 0 0 0 0 0 0 0 0 0 0 0 0
0.00150000 0.00179520 -6617.99627338 0 -2688.75973817 0 -1622.68500001 0 -8074.64945882 0 -6714.17719090 0 3
0.00250000 0.00253879 3837.52633873 0 -16076.36135570 0 -23358.03451987 0 12427.94541853 0 -7545.28093698 0 6
0.00350000 0.00331552 23760.39941353 0 -25993.34332786 0 -23413.50661141 0 -13799.47915104 0 -17195.57945601 0 7
0.00450000 0.00420575 38544.20611358 0 -6519.83813279 0 -14734.15643198 0 -31573.50619918 0 -5627.33062599 0 24
0.00550000 0.00557378 37209.36085349 0 7745.28803454 0 5038.28292131 0 -37813.51234547 0 -176.51658910 0 45
0.00650000 0.00659388 34608.21406623 0 7094.62786226 0 12399.16583837 0 -8040.47645352 0 1623.90428756 0 40
0.00750000 0.00754703 31334.81143699 0 -7842.14999556 0 33934.96961272 0 9631.58080735 0 -9278.75633604 0 57
0.00850000 0.00846663 34105.99940781 0 -2560.29516183 0 10334.95594346 0 12467.81941700 0 -3927.90740193 0 75
0.00950000 0.00948925 44103.71798845 0 -378.02088390 0 17978.12040671 0 8492.33783123 0 -7530.70440916 0 112
0.01050000 0.01054430 47696.66183408 0 -467.91203516 0 25580.98247316 0 -6083.32220298 0 -2761.35677836 0 105
0.01150000 0.01145670 53948.97070165 0 -6678.52126830 0 3280.76229287 0 12290.52841554 0 9428.38818374 0 144
0.01250000 0.01249090 62758.04868326 0 -9542.16638654 0 7798.53025784 0 15409.26826283 0 -10298.84965338 0 169
0.01350000 0.01339930 67534.14084163 0 -2639.57082215 0 -5006.39470711 0 -13723.68560023 0 -8128.01251242 0 180
0.01450000 0.01448870 78760.15432831 0 -4367.56491950 0 2129.96354639 0 -10872.00268153 0 -22202.56733004 0 267
0.01550000 0.01550050 75171.71415744 0 4712.67822086 0 13753.23410047 0 -15059.29978039 0 -17585.53178265 0 238
0.01650000 0.01653350 72370.42845774 0 8202.56480653 0 21853.58745913 0 -13590.11319764 0 -25197.73073579 0 315
0.01750000 0.01747870 70553.58015279 0 -4806.20087181 0 15409.81749146 0 12895.22913614 0 -12470.56556015 0 297
0.01850000 0.01844180 78438.63588886 0 -7334.97031034 0 16820.45630236 0 5295.71736433 0 -33595.98570286 0 388
0.01950000 0.01947590 77913.57331947 0 4156.15583559 0 17237.76021472 0 -1826.74540485 0 -6499.47273523 0 399
0.02050000 0.02045430 76254.46347678 0 2832.66862356 0 11723.06539599 0 -4403.37462611 0 -17680.43848975 0 462
0.02150000 0.02154770 74325.57253150 0 3168.95032856 0 25581.31201034 0 -3931.18080456 0 -12280.97183739 0 571
0.02250000 0.02255340 75199.50512607 0 1891.32370706 0 23613.97506102 0 -5809.43287024 0 -18308.53634995 0 510
0.02350000 0.02348930 69693.37827395 0 943.44516678 0 21652.67962662 0 8348.18728524 0 -381.56560547 0 555
0.02450000 0.02439640 71762.43236537 0 -4126.77210394 0 29394.93591913 0 4090.35824583 0 -13903.28336193 0 592
0.02550000 0.02547300 68150.37536344 0 4183.52939047 0 27397.61108666 0 -365.52483413 0 -8820.33716850 0 837
0.02650000 0.02652900 66512.02636294 0 6651.76284950 0 29035.74039572 0 345.38462030 0 -4106.12110749 0 723
0.02750000 0.02749970 61956.06503910 0 -465.77553579 0 27609.61333748 0 724.56327815 0 -4015.32263053 0 826
0.02850000 0.02848090 64917.94518993 0 1123.64488306 0 33731.42548279 0 -357.24246640 0 -6594.93965553 0 831
0.02950000 0.02946900 57224.68009114 0 2733.59876345 0 26534.66306467 0 -778.90725408 0 -6820.44194605 0 996
0.03050000 0.03053250 55001.29275495 0 2480.01990541 0 30242.50553950 0 2549.62914186 0 -5461.99083949 0 1041
0.03150000 0.03150510 56373.26587036 0 185.71397172 0 26409.98816587 0 6289.82118294 0 -1314.58970824 0 1036
0.03250000 0.03246190 54250.05783611 0 -539.04702874 0 25909.31134761 0 6152.18448850 0 -5761.14468917 0 1059
0.03350000 0.03345080 52203.08273558 0 136.26581979 0 19575.38710576 0 5469.99859290 0 737.44708333 0 1302
0.03450000 0.03451200 51402.30739440 0 3121.09054583 0 17257.31275392 0 219.67387631 0 2812.98426949 0 1339
0.03550000 0.03553350 48251.82213234 0 -425.08648204 0 16328.12775926 0 3201.98093832 0 1823.28526449 0 1365
0.03650000 0.03647120 48693.51179584 0 640.94871166 0 15192.87218298 0 668.97584861 0 -3504.24342204 0 1308
0.03750000 0.03744890 47131.06619187 0 2590.89818104 0 14275.55052671 0 -1093.50321590 0 -299.80193946 0 1579
0.03850000 0.03847530 44034.40533546 0 2177.08736276 0 17852.67658783 0 -6353.50973477 0 -3205.06760321 0 1662
0.03950000 0.03950240 41548.26702312 0 819.80391626 0 17484.25402345 0 1502.70051370 0 -3729.32829880 0 1683
0.04050000 0.04050350 42067.50776904 0 1323.37736631 0 19743.01168335 0 1344.99500515 0 -5074.55397998 0 1822
0.04150000 0.04152450 40179.14989659 0 -445.68475254 0 21361.58845321 0 1353.58494091 0 -2449.15325645 0 1887
0.04250000 0.04250150 41480.49221030 0 -109.61669748 0 16486.30560443 0 564.70369492 0 -3527.62957706 0 1920
0.04350000 0.04349210 40933.68018720 0 -902.21347514 0 16699.73584969 0 3019.08780484 0 -4142.08459812 0 2005
0.04450000 0.04448520 42252.70766277 0 -113.44976408 0 17935.82980227 0 1322.14709418 0 -2140.38790577 0 2151
0.04550000 0.04548030 43171.56715920 0 243.67626586 0 14667.15053924 0 1407.22260882 0 -2635.79212918 0 2274
0.04650000 0.04648670 41211.37018205 0 1024.03128661 0 16346.91137838 0 -2565.30412693 0 -1738.59420988 0 2311
0.04750000 0.04749250 40039.64582480 0 1610.99741478 0 16254.86066015 0 2361.62818213 0 -402.01778116 0 2568
0.04850000 0.04851840 39495.25040767 0 -54.24972830 0 17366.38955965 0 2440.25575266 0 1816.94716611 0 2493
0.04950000 0.04949480 38593.63669019 0 113.28279857 0 13457.85894376 0 4866.26451469 0 408.04281922 0 2644
0.05050000 0.05050630 40069.19432505 0 660.18489517 0 13654.59263869 0 101.70516892 0 801.81558020 0 2829
0.05150000 0.05149060 36499.42792756 0 751.71055083 0 12345.01189554 0 -3167.93974789 0 1038.85826268 0 2784
0.05250000 0.05249300 35600.12097033 0 1374.51055168 0 12919.72473300 0 -448.67145783 0 -2199.95724287 0 3055
0.05350000 0.05348950 34805.16745262 0 105.79889943 0 14674.07081996 0 -935.33525684 0 -3513.20683326 0 3009
0.05450000 0.05448610 35003.87837061 0 656.42926980 0 13039.45657414 0 921.89453383 0 -7219.73115939 0 3336
0.05550000 0.05550870 34676.09872478 0 -33.02544700 0 13580.44677377 0 -191.63136097 0 -4510.90260711 0 3349
0.05650000 0.05647670 33639.26491883 0 106.84474058 0 11292.68984225 0 1282.65755575 0 -4728.69372768 0 3324
0.05750000 0.05747970 33801.06767295 0 -149.59340170 0 10347.70903222 0 1788.71681457 0 -3804.00142321 0 3639
0.05850000 0.05849280 33758.99675997 0 1014.93276514 0 11585.97793017 0 705.06895719 0 -4440.12900597 0 3846
0.05950000 0.05951020 32076.16024051 0 217.80869589 0 10119.91096603 0 622.13872958 0 -1513.24570338 0 3787
0.06050000 0.06049470 31975.87109284 0 840.62846896 0 12274.60078530 0 -11.23831621 0 -2404.95133639 0 3930
0.06150000 0.06148310 31258.13912037 0 841.13375930 0 10768.97837529 0 126.18637599 0 255.10022134 0 4083
0.06250000 0.06249100 30339.05993249 0 222.79788875 0 11982.63084608 0 444.33365012 0 1687.83449999 0 4303
0.06350000 0.06350600 31125.33563787 0 -644.72191235 0 10165.07952848 0 703.52452629 0 -106.78289744 0 4470
0.06450000 0.06451750 30926.51487414 0 300.65324384 0 10718.49327971 0 1188.89324420 0 -1529.38204050 0 4479
0.06550000 0.06550280 30964.08211237 0 694.58747804 0 11825.77114962 0 -788.66484991 0 434.86934238 0 4636
0.06650000 0.06648880 30294.02318491 0 430.04381965 0 10943.34748045 0 -1812.12493874 0 -2333.91410550 0 4653
0.06750000 0.06749660 29442.16958123 0 439.40816777 0 12391.25694611 0 -338.05351656 0 -2253.51801878 0 5220
0.06850000 0.06852730 29059.68676394 0 521.21357516 0 12227.58681465 0 467.98673026 0 -2557.17554322 0 5029
0.06950000 0.06949320 28090.73761654 0 -35.30540489 0 11482.72294791 0 2340.98817025 0 -1783.86163349 0 5040
0.07050000 0.07048030 29442.05973550 0 234.24601030 0 11858.28548446 0 -791.26270132 0 -3285.17809105 0 5475
0.07150000 0.07148790 27940.24897218 0 1026.77303593 0 11676.05142534 0 -87.36722602 0 -2455.59021599 0 5509
0.07250000 0.07249820 26626.60393718 0 346.46440379 0 11459.32580831 0 253.86335847 0 -1551.96632173 0 5916
0.07350000 0.07351270 26536.09105911 0 -37.28317718 0 10864.87369392 0 2269.90700107 0 -6.80317420 0 5721
0.07450000 0.07449140 27332.69226270 0 -453.94075730 0 9480.58687265 0 2450.89980349 0 -2410.89399015 0 6028
0.07550000 0.07549160 26524.77694935 0 693.49011924 0 9898.68167424 0 754.31169762 0 1692.75558850 0 6183
0.07650000 0.07648840 26425.80595039 0 541.96562968 0 8449.68473589 0 -1746.10765753 0 184.07177812 0 6330
0.07750000 0.07749960 25149.61830789 0 586.42129337 0 9669.02721528 0 492.60425587 0 587.01226338 0 6583
0.07850000 0.07848650 24835.45953206 0 105.67861836 0 8855.35598589 0 981.04645718 0 1554.37194312 0 6549
0.07950000 0.07947320 24149.03359145 0 -103.77378363 0 8960.45637635 0 1080.97201550 0 1745.15199972 0 6828
0.08050000 0.08048110 24472.85879115 0 736.81217504 0 9025.79261407 0 -234.97099209 0 855.96293229 0 7147
0.08150000 0.08149960 23547.73808835 0 984.30777678 0 9251.99791723 0 -1278.91181650 0 -413.28685417 0 7386
0.08250000 0.08250610 22533.42265619 0 527.78564493 0 9721.53347222 0 -596.33596858 0 59.82538750 0 7227
0.08350000 0.08350160 21781.74835445 0 156.01937666 0 10421.11893078 0 138.37595618 0 344.06647159 0 7798
0.08450000 0.08449610 21783.06650316 0 -116.77808957 0 9876.22920789 0 1247.10049431 0 -551.00483445 0 7371
0.08550000 0.08548940 21941.68373123 0 -350.42544066 0 8627.86548773 0 1593.92738899 0 -155.21091212 0 8256
0.08650000 0.08650700 22219.70326327 0 -22.23618012 0 6836.49040660 0 860.34797366 0 -1615.05072206 0 8037
0.08750000 0.08749060 21319.73723168 0 573.88240377 0 6989.23088834 0 -319.56977628 0 541.99089419 0 8155
0.08850000 0.08849210 21195.72140723 0 535.75934617 0 6780.53499387 0 86.29886649 0 -1125.11681579 0 8718
0.08950000 0.08949900 20622.65625567 0 126.32478160 0 6651.91663351 0 748.27567498 0 -335.95106937 0 8571
0.09050000 0.09049190 20480.73557791 0 126.47966407 0 6442.73741784 0 277.87892950 0 -1200.16341566 0 8932
0.09150000 0.09150830 19776.40478400 0 435.67231464 0 5284.84263747 0 78.31143454 0 -1010.96513752 0 9285
0.09250000 0.09250820 18856.22713886 0 522.76679372 0 5607.29476560 0 66.49214429 0 11.68802461 0 9204
0.09350000 0.09350330 18826.78848434 0 222.18385115 0 5473.53562528 0 952.84137017 0 -938.62403787 0 9349
0.09450000 0.09448040 18484.83873988 0 348.53499572 0 5367.73222217 0 -68.63270795 0 -1009.79198517 0 9564
0.09550000 0.09549270 17796.65526766 0 319.88723043 0 5087.39494532 0 -4.27830428 0 -311.28850701 0 10155
0.09650000 0.09649430 17650.78014378 0 18.98518602 0 5326.11167666 0 420.92442749 0 370.41516584 0 9913
0.09750000 0.09749140 17381.65811554 0 232.70597322 0 4606.55626515 0 153.80159145 0 -344.41578100 0 10476
0.09850000 0.09850240 17245.44941553 0 134.57858944 0 4644.87045431 0 643.64103040 0 35.01969616 0 10575
0.09950000 0.09950330 17027.29580407 0 191.25459013 0 5010.28324580 0 372.19906043 0 656.93346168 0 10882
0.10050000 0.10051200 16816.50185623 0 341.54441373 0 5016.54445217 0 -389.70846913 0 883.57595084 0 10875
0.10150000 0.10150300 16359.54363685 0 328.16081050 0 5192.14382946 0 -1132.88290860 0 -152.38897542 0 11118
0.10250000 0.10250800 16069.22138352 0 432.66913249 0 6166.80495460 0 -234.61728885 0 762.03495060 0 11575
0.10350000 0.10349800 16114.91720546 0 -247.21988897 0 6189.22446724 0 278.20077748 0 468.30418440 0 11364
0.10450000 0.10450100 16185.87754434 0 -282.78903345 0 5550.59240193 0 1310.76707699 0 -201.53285469 0 12093
0.10550000 0.10551000 16491.90773645 0 266.54175214 0 6027.46565141 0 -347.72543272 0 274.20129460 0 12067
0.10650000 0.10649700 15765.27826020 0 164.92237274 0 5056.72601868 0 -152.69654345 0 1022.57473229 0 12054
0.10750000 0.10749900 16280.34486853 0 -63.03881436 0 5486.87089639 0 877.11482525 0 446.56461681 0 12807
0.10850000 0.10850100 15645.98580196 0 184.28487883 0 5461.43062629 0 -286.58420328 0 663.58132501 0 12736
0.10950000 0.10950300 15462.65328558 0 828.36968596 0 5657.45032400 0 -419.22181874 0 812.95173989 0 12933
0.11050000 0.11050200 15237.57939339 0 203.88245477 0 6183.12802946 0 -207.46342543 0 28.58174801 0 13428
0.11150000 0.11150900 14625.95839206 0 -151.70353809 0 6084.67330541 0 185.09773720 0 -370.20536051 0 13453
0.11250000 0.11250000 14601.02341230 0 269.06051464 0 5923.56257936 0 257.18289630 0 -38.92482155 0 13668
0.11350000 0.11349100 14741.95547852 0 146.54518281 0 6064.70335246 0 -35.82299795 0 -128.82157495 0 13791
0.11450000 0.11448600 14266.54317720 0 -164.40829474 0 5366.67770320 0 401.61354889 0 -273.18082781 0 14205
0.11550000 0.11549300 14614.75412803 0 3.19530232 0 5715.33902151 0 62.28549237 0 -770.87862999 0 14776
0.11650000 0.11649800 14226.99871590 0 230.38822841 0 5343.63206993 0 -5.00375841 0 -391.00684561 0 14553
0.11750000 0.11747300 14379.68427478 0 361.27929683 0 5509.93849881 0 -183.72466562 0 -518.11482723 0 14568
0.11850000 0.11849100 14193.93515243 0 -110.08079567 0 5727.97127998 0 202.54892766 0 -766.80555047 0 16015
0.11950000 0.11950300 14073.32454549 0 54.15789727 0 5164.40778369 0 517.91930184 0 -531.84444450 0 15270
0.12050000 0.12050700 13994.23562291 0 112.96644288 0 4906.03965201 0 409.63228687 0 216.24339429 0 15999
0.12150000 0.12150000 13766.96481620 0 162.38823184 0 4698.11267761 0 475.24863119 0 459.90867558 0 15670
0.12250000 0.12250700 13718.08346821 0 -144.71734993 0 4454.49682690 0 463.24908410 0 -4.17658714 0 16887
0.12350000 0.12352200 13564.51914352 0 194.83665925 0 4623.21986175 0 68.39258519 0 172.21283356 0 16407
0.12450000 0.12449800 13320.00255786 0 576.29571436 0 4703.84662450 0 -665.19056489 0 428.84430432 0 16306
0.12550000 0.12549900 12949.38307897 0 58.97693911 0 4325.60385223 0 -324.13716156 0 67.69100054 0 17523
0.12650000 0.12650100 12693.33269210 0 194.14902500 0 4608.45659620 0 125.01761746 0 -1052.18694305 0 17154
0.12750000 0.12750600 12662.57588887 0 107.60619116 0 4788.94410829 0 208.77388494 0 -1051.35980473 0 18007
0.12850000 0.12850300 12364.12505183 0 58.14288051 0 4066.82929136 0 363.64647222 0 -670.37857852 0 17496
0.12950000 0.12949900 12221.98468263 0 -267.66327700 0 3723.82502794 0 726.80193405 0 -754.82248024 0 18405
0.13050000 0.13049000 12710.24893387 0 143.89240853 0 3328.29253843 0 847.68056456 0 -578.42781990 0 18100
0.13150000 0.13148800 12533.06777814 0 -28.11501352 0 3012.48607672 0 -98.49965095 0 -461.14993228 0 19059
0.13250000 0.13249300 12328.20549949 0 144.95351824 0 2811.44642933 0 24.07664526 0 -104.75789149 0 18957
0.13350000 0.13349100 12038.54232052 0 54.10000857 0 2832.07545664 0 24.98935339 0 -85.62628111 0 19468
0.13450000 0.13450700 12044.69368117 0 350.62645834 0 3294.04264112 0 -15.13443426 0 -280.91726228 0 19953
0.13550000 0.13551000 11993.50557294 0 337.49879565 0 3465.67658770 0 -642.59639755 0 -249.38714514 0 19956
0.13650000 0.13649900 11551.70606372 0 5.23286364 0 3625.12864329 0 -67.64662286 0 -230.21357370 0 19723
0.13750000 0.13749600 11454.93197928 0 -103.46160207 0 3787.51357976 0 141.53731617 0 -158.87646399 0 20946
0.13850000 0.13851100 11449.76923016 0 131.22609789 0 3624.49153809 0 533.18785773 0 -79.15329218 0 20955
0.13950000 0.13949800 11507.10869904 0 -0.86997815 0 3321.32831941 0 176.34522976 0 116.69021299 0 20506
0.14050000 0.14048300 11333.88198943 0 230.60791986 0 3131.00961487 0 -242.29330817 0 -827.39974820 0 21447
0.14150000 0.14148400 11353.21483717 0 137.57627930 0 3499.87156215 0 -21.59984383 0 -165.62538538 0 21771
0.14250000 0.14249400 10965.58025535 0 192.85833773 0 2942.42647279 0 126.07543180 0 -407.97361641 0 22470
0.14350000 0.14350900 11022.13981957 0 20.57718013 0 3256.25571144 0 -76.23974415 0 -881.69758893 0 22519
0.14450000 0.14449900 10667.26123319 0 131.23488554 0 2994.03199478 0 213.17979700 0 -962.68574411 0 22218
0.14550000 0.14550500 10457.81838778 0 196.91054655 0 2992.34037060 0 -134.49730360 0 -518.93976863 0 23559
0.14650000 0.14650700 10148.98712965 0 115.73016135 0 3106.33826485 0 154.56721616 0 -197.15769943 0 23044
0.14750000 0.14750500 10417.06562350 0 -0.50600983 0 2543.52171950 0 700.03802295 0 -751.97747594 0 23649
0.14850000 0.14849900 10133.04851484 0 -3.73632547 0 2410.31180781 0 345.99646100 0 -91.40317768 0 23640
0.14950000 0.14949500 10115.40729127 0 159.24884100 0 2263.36019581 0 34.77539926 0 89.58830660 0 24457
0.15050000 0.15050000 9876.80040566 0 168.34296864 0 2602.89333430 0 -66.56442277 0 379.30498043 0 24591
0.15150000 0.15149900 9802.64355616 0 121.80462998 0 2394.95537534 0 47.42984657 0 19.37667619 0 25020
0.15250000 0.15250500 9697.27953596 0 176.63302557 0 2785.75351406 0 -136.81175304 0 432.55489294 0 25297
0.15350000 0.15350100 9375.11300672 0 130.83944093 0 2452.45961280 0 63.52828691 0 410.98009393 0 25452
0.15450000 0.15450400 9431.99112355 0 -73.54456942 0 2675.95172654 0 193.22082862 0 28.04449257 0 26061
0.15550000 0.15549900 9343.33463825 0 171.57353143 0 2575.02547366 0 -118.70038977 0 92.79008981 0 26128
0.15650000 0.15649500 9124.21438439 0 193.31309903 0 2436.63084371 0 -55.85721065 0 222.83084247 0 26331
0.15750000 0.15749700 9040.42406474 0 141.05838880 0 2669.84430419 0 163.77338644 0 354.77313449 0 27345
0.15850000 0.15849900 8945.04502102 0 -45.34475500 0 2353.19203038 0 276.94853621 0 309.68036559 0 26980
0.15950000 0.15949700 9068.24798709 0 -68.26670199 0 2065.39622875 0 265.15110525 0 442.53218021 0 27777
0.16050000 0.16050000 8678.55929020 0 93.61074723 0 2057.58619765 0 -2.93939473 0 221.65219783 0 28224
0.16150000 0.16150500 8619.24259826 0 381.29538499 0 2379.81863432 0 -354.63692579 0 445.32665548 0 28075
0.16250000 0.16249700 8307.29172152 0 175.91463452 0 2268.39113006 0 114.14398906 0 474.85758041 0 28590
0.16350000 0.16349900 8475.52045060 0 -134.63241384 0 2237.77712627 0 405.63060708 0 290.46944660 0 29163
0.16450000 0.16449100 8410.14027460 0 -115.59724802 0 1793.08867446 0 186.06877341 0 509.30629848 0 28996
0.16550000 0.16550500 8457.05538409 0 81.46202965 0 1871.35375410 0 140.95623228 0 247.58347833 0 30777
0.16650000 0.16650700 8335.36828904 0 200.77491918 0 1869.87083680 0 -315.40442636 0 662.78933733 0 29211
0.16750000 0.16749900 8351.90007077 0 97.31221865 0 1930.51666203 0 -127.92962765 0 -90.13709584 0 30922
0.16850000 0.16850800 8039.83934831 0 21.90422634 0 2035.65000620 0 -1.25942518 0 693.18145275 0 30867
0.16950000 0.16949900 8018.80389182 0 68.88952725 0 2114.69499050 0 375.52079518 0 310.84582874 0 30852
0.17050000 0.17049200 8079.04328785 0 28.28099041 0 2187.69845987 0 -120.52053345 0 722.07197709 0 31257
0.17150000 0.17149500 7922.90857318 0 183.17104317 0 2297.78584628 0 -364.42857379 0 57.52917244 0 32608
0.17250000 0.17250900 7699.98765722 0 196.66778750 0 2465.24565529 0 -243.33244874 0 110.64540270 0 32361
0.17350000 0.17350400 7794.85042603 0 -40.09995113 0 2439.59667831 0 115.58516499 0 397.91064947 0 32508
0.17450000 0.17449800 7942.21945178 0 -79.49875699 0 2329.04793985 0 363.98150168 0 202.06231109 0 32791
0.17550000 0.17549800 7848.72975454 0 -84.47509791 0 2021.37006185 0 288.26813825 0 126.99264361 0 33633
0.17650000 0.17650100 7854.36484027 0 177.01968252 0 1833.70962387 0 143.33768761 0 334.92071646 0 33984
0.17750000 0.17750300 8002.87626157 0 -96.49892090 0 1820.38533733 0 117.18781413 0 270.19192561 0 34069
0.17850000 0.17849800 7749.47315669 0 137.93327790 0 1863.90621389 0 -253.64806085 0 111.40443666 0 34536
