### header ###
fiducial parameters:
Omega_m = 0.31
Omega_nu = 0
Omega_de = 0.69
Omega_k = 0
H_0 = 100
w_de = -1
zeff = 0
beta = 0
fgrowth = 0
b_1 = 2
gamma = 0.55
Lx = 3500 Ly = 3500 Lz = 3500
nx = 700 ny = 700 nz = 700
xoffset = -983.599254 yoffset = -42.9823471 zoffset = 800.977702
bins = 400 dk = 0.001
kx_ny = 0.628318531 ky_ny = 0.628318531 kz_ny = 0.628318531
############################
A(data) = 9.06573708 (not used)
A(ran) = 9.08345716 (used)
Ngal = 504179
weighted Ngal = 0
Nran = 25229228
weighted Nran = 0
SN(data) = 6711.41267
SN(ran) = 134.837664
SN(data+ran) = 6846.25034
############################
13 columns: k_central k_mean P_0(k) sigma^{lin}_{P_0(k)} P^img_1(k) sigma^{lin}_{P_1(k)} P_2(k) sigma^{lin}_{P_2(k)} P^img_3(k) sigma^{lin}_{P_3(k)} P_4(k) sigma^{lin}_{P_4(k)} N_modes
### header ###
0.00050000 0 0 0 0 0 0 0 0 0 0 0 0
0.00150000 0.00179520 104922.44038247 0 -55232.18847061 0 730.28733893 0 -29652.08476326 0 86854.46617205 0 3
0.00250000 0.00253879 111258.34184739 0 -2097.99844017 0 -29040.68345338 0 14249.29739824 0 32177.87738261 0 6
0.00350000 0.00331552 96918.09218818 0 26603.53633476 0 52291.06916195 0 -101960.67007737 0 61173.19455123 0 7
0.00450000 0.00420575 82898.37235688 0 6652.18026325 0 28875.36563603 0 6752.62319494 0 9681.95605721 0 24
0.00550000 0.00557378 81314.72652783 0 8617.51802036 0 60480.61724997 0 12106.09744190 0 -6433.27970085 0 45
0.00650000 0.00659388 73397.92537700 0 2918.65585773 0 35366.14957434 0 -8904.46800990 0 -19823.19906320 0 40
0.00750000 0.00754703 69566.50646063 0 -111.73726921 0 43060.73282185 0 52073.13524194 0 34280.32457468 0 57
0.00850000 0.00846663 87972.47596938 0 -5023.65147063 0 35023.87029271 0 14749.75452505 0 -2407.96110927 0 75
0.00950000 0.00948925 91735.68069002 0 -3682.54500418 0 31448.94114611 0 14992.07419619 0 -9240.93645264 0 112
0.01050000 0.01054430 101009.51593755 0 3657.02784207 0 22315.48873618 0 -8604.60016301 0 -6460.68620944 0 105
0.01150000 0.01145670 88697.34791402 0 8332.63313047 0 32267.62134060 0 -41078.01747092 0 -6739.92502903 0 144
0.01250000 0.01249090 84025.82888663 0 9985.48176678 0 44102.61953119 0 18707.27633466 0 -15318.97507622 0 169
0.01350000 0.01339930 78123.15896432 0 -11384.52086903 0 36227.88929335 0 -14184.81795719 0 -43295.14360074 0 180
0.01450000 0.01448870 73462.07528088 0 4405.82418580 0 32227.30795923 0 7455.43811784 0 -27797.77906580 0 267
0.01550000 0.01550050 76023.34806967 0 -69.04232266 0 35238.83837813 0 5498.09712957 0 3385.67594559 0 238
0.01650000 0.01653350 72504.76978041 0 5773.93073166 0 33239.53632260 0 2880.12197711 0 -30663.98358945 0 315
0.01750000 0.01747870 71124.44838984 0 10300.85983016 0 23760.61910498 0 6065.37341139 0 -971.49537132 0 297
0.01850000 0.01844180 75326.15724793 0 -4059.99688722 0 36543.91544652 0 1424.23771175 0 -18185.28944559 0 388
0.01950000 0.01947590 64775.36543783 0 1159.15800622 0 31669.18182637 0 5835.56516841 0 -7343.70304554 0 399
0.02050000 0.02045430 68550.10395968 0 -747.07396274 0 28349.53414656 0 12269.21834473 0 4069.91595626 0 462
0.02150000 0.02154770 69172.48984214 0 -4701.32017281 0 16465.54476226 0 7685.92740431 0 2850.11212482 0 571
0.02250000 0.02255340 75869.12467063 0 -3808.14260707 0 19152.37121565 0 9405.65011850 0 1130.15873460 0 510
0.02350000 0.02348930 70947.92630846 0 4328.74543999 0 15072.70095894 0 -7849.69639693 0 2193.98163539 0 555
0.02450000 0.02439640 73670.34277702 0 6762.89377030 0 17770.18244774 0 -2919.51265439 0 1220.95721156 0 592
0.02550000 0.02547300 66761.15646908 0 363.19720320 0 20685.59785656 0 -5253.32789874 0 6830.85532086 0 837
0.02650000 0.02652900 67054.44455700 0 -419.62714947 0 24670.58109762 0 10971.13844908 0 -1158.92733019 0 723
0.02750000 0.02749970 69985.23836743 0 -868.24697980 0 13703.14444950 0 2577.25534190 0 -13165.77915882 0 826
0.02850000 0.02848090 66244.55202058 0 1441.15395353 0 19614.49218415 0 2297.08283364 0 4735.00985691 0 831
0.02950000 0.02946900 66461.71702051 0 333.77832091 0 16231.79305773 0 -5656.58254277 0 -7407.89688770 0 996
0.03050000 0.03053250 64885.54070082 0 -57.58541345 0 16146.33308304 0 5406.70548569 0 -6678.76292890 0 1041
0.03150000 0.03150510 61274.91169333 0 3871.12814625 0 13957.32745903 0 -5770.17400783 0 -12855.57482912 0 1036
0.03250000 0.03246190 57739.74669948 0 5192.89078039 0 18787.68340595 0 -5546.27546491 0 -8247.48072381 0 1059
0.03350000 0.03345080 56741.24905183 0 2395.03226735 0 20680.10557027 0 1001.76775490 0 -11014.67031022 0 1302
0.03450000 0.03451200 50973.24998937 0 888.08511789 0 18956.84582370 0 3455.96622554 0 -5504.32538222 0 1339
0.03550000 0.03553350 50050.21635536 0 1314.75447683 0 16174.34374312 0 5543.84787437 0 -7241.22796793 0 1365
0.03650000 0.03647120 47607.79664190 0 -47.42446413 0 16419.18986596 0 4662.69841561 0 3426.09917269 0 1308
0.03750000 0.03744890 48764.69182616 0 -897.05402140 0 13184.23324076 0 1243.34377048 0 -3442.12566409 0 1579
0.03850000 0.03847530 45561.81015290 0 3173.83846336 0 12379.17391627 0 -1718.25078146 0 -4482.06810408 0 1662
0.03950000 0.03950240 43192.98707573 0 4298.49392710 0 19413.91388881 0 -5365.43644650 0 599.46327640 0 1683
0.04050000 0.04050350 41565.95218498 0 657.59583141 0 19694.67956399 0 960.51189720 0 1107.79414483 0 1822
0.04150000 0.04152450 43058.53590733 0 -2248.68480684 0 20007.73988256 0 7609.06834996 0 646.18945124 0 1887
0.04250000 0.04250150 44676.12406566 0 -1374.47759796 0 19132.70883073 0 -1014.11551294 0 240.79501247 0 1920
0.04350000 0.04349210 42964.28827459 0 1672.62086696 0 16581.87138589 0 -203.49909318 0 641.48915264 0 2005
0.04450000 0.04448520 41573.31184861 0 1741.49413705 0 17369.35539425 0 -1104.05939015 0 7438.86239781 0 2151
0.04550000 0.04548030 39809.95841213 0 1340.12883950 0 22142.04233512 0 2058.34413315 0 5705.28813760 0 2274
0.04650000 0.04648670 40978.93662623 0 877.95734197 0 24750.10940311 0 1514.64074410 0 2503.68067475 0 2311
0.04750000 0.04749250 39144.18346797 0 1334.14224744 0 20672.63606091 0 2.80944724 0 6843.46561018 0 2568
0.04850000 0.04851840 37401.26133649 0 510.49263232 0 22546.60414329 0 915.65529661 0 5765.05519701 0 2493
0.04950000 0.04949480 35652.73707299 0 -194.44560846 0 18817.89098055 0 1493.16590470 0 7455.96537732 0 2644
0.05050000 0.05050630 37576.35542344 0 1048.74437800 0 23183.37981583 0 3219.03997954 0 3571.13946906 0 2829
0.05150000 0.05149060 34805.05760689 0 235.10280696 0 17418.67612514 0 719.16216382 0 8164.30554023 0 2784
0.05250000 0.05249300 36608.94411620 0 -1298.61813971 0 18117.29494131 0 4974.25384774 0 6979.30083473 0 3055
0.05350000 0.05348950 36808.53380000 0 402.90972845 0 14821.81332118 0 1304.06648771 0 5664.08500584 0 3009
0.05450000 0.05448610 35642.52142049 0 1222.65982031 0 12434.75585353 0 1594.93796967 0 6279.25402412 0 3336
0.05550000 0.05550870 33982.75250345 0 112.99719969 0 13486.96806110 0 -108.28800358 0 8437.79942836 0 3349
0.05650000 0.05647670 32735.34444111 0 804.46505911 0 11770.95813244 0 1168.76950723 0 4559.72903223 0 3324
0.05750000 0.05747970 33815.23777158 0 157.18923364 0 11593.66713098 0 1516.34335285 0 4358.40378596 0 3639
0.05850000 0.05849280 32506.97517715 0 293.48141640 0 11955.71864326 0 -289.55443170 0 3924.48021528 0 3846
0.05950000 0.05951020 31651.27697306 0 358.41671721 0 10179.15076596 0 -126.57632831 0 2770.91335651 0 3787
0.06050000 0.06049470 32717.76912498 0 133.83054004 0 7105.71129599 0 1276.60505626 0 2236.61276158 0 3930
0.06150000 0.06148310 32635.16513917 0 -1197.35136508 0 9146.39223644 0 2618.15090562 0 961.18854687 0 4083
0.06250000 0.06249100 31870.30935033 0 153.28861192 0 6816.11402446 0 -845.77144584 0 2393.97774838 0 4303
0.06350000 0.06350600 32122.73482825 0 1798.42717674 0 7811.93143639 0 71.08655161 0 326.50763232 0 4470
0.06450000 0.06451750 30952.32861971 0 294.41840044 0 7922.48017485 0 -1160.42123207 0 2139.28944851 0 4479
0.06550000 0.06550280 30439.56877161 0 151.42782532 0 10407.19049275 0 239.16490190 0 1703.04813301 0 4636
0.06650000 0.06648880 29774.23321036 0 1084.12239092 0 9469.40457776 0 -147.08122995 0 1573.83660574 0 4653
0.06750000 0.06749660 29313.75992775 0 323.09252871 0 11142.64058079 0 -911.96338176 0 1902.14351105 0 5220
0.06850000 0.06852730 28706.42290973 0 257.23342534 0 11441.86033790 0 994.21146742 0 1163.73857299 0 5029
0.06950000 0.06949320 27795.36245983 0 96.82922700 0 11611.90152146 0 -1317.55554284 0 1850.27435932 0 5040
0.07050000 0.07048030 27994.29306928 0 655.63508521 0 11353.21483717 0 1039.05159116 0 2371.15180655 0 5475
0.07150000 0.07148790 27999.78535557 0 194.47966064 0 11205.14279878 0 2359.65095906 0 2824.17754895 0 5509
0.07250000 0.07249820 28137.75158719 0 -589.86935070 0 10276.39718702 0 652.12441581 0 940.36399417 0 5916
0.07350000 0.07351270 28640.29578279 0 640.53239636 0 9718.32597703 0 -639.85684515 0 -1175.05268274 0 5721
0.07450000 0.07449140 26974.59519655 0 498.83580389 0 9361.29441442 0 -1442.94443886 0 650.05272542 0 6028
0.07550000 0.07549160 26191.94440013 0 665.45199772 0 10952.00332364 0 -84.01638215 0 -363.37075945 0 6183
0.07650000 0.07648840 25842.96452922 0 461.65741953 0 10267.76331298 0 97.65537670 0 -2533.04243726 0 6330
0.07750000 0.07749960 25666.77198502 0 253.84138933 0 9395.02803681 0 267.35461051 0 -2604.99138767 0 6583
0.07850000 0.07848650 24717.48522254 0 180.82254155 0 10195.81436257 0 43.74693907 0 -2707.16988182 0 6549
0.07950000 0.07947320 25214.31744039 0 148.60149479 0 9390.07399458 0 1395.33730129 0 -3033.03821202 0 6828
0.08050000 0.08048110 24453.52594341 0 333.09837587 0 9591.13561111 0 -183.55220783 0 -3000.72159948 0 7147
0.08150000 0.08149960 24328.74119888 0 822.64232982 0 8382.23946024 0 -667.95428336 0 -3217.71084625 0 7386
0.08250000 0.08250610 22841.75960855 0 -325.46519638 0 8246.06371395 0 1086.99705356 0 -2335.33111537 0 7227
0.08350000 0.08350160 23400.54481576 0 -42.97779930 0 8058.22752281 0 1674.20264541 0 -2553.49571140 0 7798
0.08450000 0.08449610 23043.21666969 0 1019.01463231 0 8154.88077695 0 -601.59757885 0 -3428.38396379 0 7371
0.08550000 0.08548940 22144.12940391 0 314.39055031 0 7765.90607728 0 165.95821793 0 -1147.43746727 0 8256
0.08650000 0.08650700 21864.90156889 0 60.62045086 0 7768.48745183 0 1190.29926949 0 -1448.49164801 0 8037
0.08750000 0.08749060 21032.82019585 0 596.93023396 0 7435.38028830 0 827.19323824 0 731.18038468 0 8155
0.08850000 0.08849210 20652.09491018 0 243.92341874 0 6496.70462294 0 636.06716761 0 -273.54771254 0 8718
0.08950000 0.08949900 20781.05379229 0 27.54458467 0 6933.71485851 0 195.11456893 0 -748.81391904 0 8571
0.09050000 0.09049190 19593.40180479 0 732.86981194 0 7165.82986173 0 -1054.98691060 0 514.57230257 0 8932
0.09150000 0.09150830 18904.01002959 0 866.65311832 0 7654.65432617 0 -649.76163425 0 282.19916190 0 9285
0.09250000 0.09250820 18727.48794821 0 512.03047248 0 8037.23600461 0 84.97841102 0 -668.28162362 0 9204
0.09350000 0.09350330 18345.11497665 0 -46.86051617 0 8195.85323268 0 387.29515853 0 -1013.08186466 0 9349
0.09450000 0.09448040 17677.80219233 0 -218.95987909 0 8644.50711519 0 341.10173545 0 -648.62692790 0 9564
0.09550000 0.09549270 18467.59296093 0 333.01269621 0 7316.06586092 0 426.53974099 0 -1029.81246716 0 10155
0.09650000 0.09649430 17730.63798645 0 139.61501597 0 6756.95111653 0 740.83252860 0 -155.34382545 0 9913
0.09750000 0.09749140 17476.34513119 0 72.88703291 0 7731.44747309 0 86.15892304 0 115.39073805 0 10476
0.09850000 0.09850240 17146.36857085 0 515.06990371 0 7362.03629718 0 508.88558935 0 357.85979938 0 10575
0.09950000 0.09950330 17281.47881360 0 331.75166727 0 7032.68585747 0 46.66554001 0 804.00590398 0 10882
0.10050000 0.10051200 16514.42611024 0 -330.86960609 0 6878.62722702 0 578.65190518 0 973.98337701 0 10875
0.10150000 0.10150300 16589.67043243 0 306.44321205 0 6338.03247200 0 464.37500279 0 466.17757115 0 11118
0.10250000 0.10250800 16222.01678813 0 104.87982024 0 5753.83994841 0 811.76650450 0 1629.64921902 0 11575
0.10350000 0.10349800 16237.94441837 0 279.15863221 0 5872.44037857 0 918.49810399 0 2492.90480905 0 11364
0.10450000 0.10450100 16191.91905925 0 -141.72515236 0 4916.03561305 0 326.25938098 0 1829.05216509 0 12093
0.10550000 0.10551000 15801.74704117 0 30.01457566 0 5085.74725944 0 -120.34697720 0 1740.26386492 0 12067
0.10650000 0.10649700 15786.47848528 0 86.22790615 0 4473.70884435 0 371.77725284 0 810.38025145 0 12054
0.10750000 0.10749900 15554.26462091 0 424.39994625 0 4828.13706326 0 -995.91847000 0 1275.02327781 0 12807
0.10850000 0.10850100 15334.57316928 0 437.05856770 0 5015.72060923 0 -997.76168128 0 -478.37264363 0 12736
0.10950000 0.10950300 15075.88648499 0 4.30216277 0 5612.52342215 0 662.25878247 0 -647.28790850 0 12933
0.11050000 0.11050200 15320.73260783 0 -240.58740405 0 5211.59750750 0 407.77369719 0 -376.98723562 0 13428
0.11150000 0.11150900 15011.29719821 0 -171.92174239 0 4385.81029455 0 547.47109745 0 -190.23632025 0 13453
0.11250000 0.11250000 15244.06029121 0 314.36418733 0 4300.95447136 0 695.55631734 0 -276.96940690 0 13668
0.11350000 0.11349100 14851.80120433 0 411.44034752 0 4420.46662105 0 -575.47736371 0 101.39584336 0 13791
0.11450000 0.11448600 14234.02884236 0 203.27281099 0 4686.23835465 0 299.68220762 0 573.78464107 0 14205
0.11550000 0.11549300 14166.47372098 0 87.84461554 0 4741.65552333 0 86.05654682 0 398.15121161 0 14776
0.11650000 0.11649800 14074.09346557 0 137.87945350 0 4489.87813519 0 467.93729968 0 1103.05979405 0 14553
0.11750000 0.11747300 14248.63832389 0 -39.99823399 0 4097.32246485 0 476.72825312 0 804.43869614 0 14568
0.11850000 0.11849100 14149.44763348 0 -69.64032279 0 3955.01732706 0 123.54678319 0 366.61779910 0 16015
0.11950000 0.11950300 13987.42518791 0 226.48980360 0 3989.54183868 0 118.36645876 0 982.77652737 0 15270
0.12050000 0.12050700 13707.31858708 0 203.27500790 0 3738.70912379 0 -220.68994927 0 1018.64994450 0 15999
0.12150000 0.12150000 13534.31156892 0 91.07287158 0 3898.94108403 0 303.99694773 0 1001.41954395 0 15670
0.12250000 0.12250700 13700.72784353 0 -68.10654692 0 3487.84345517 0 589.14766429 0 547.49746043 0 16887
0.12350000 0.12352200 13622.84722393 0 6.20589905 0 3321.59194915 0 343.02293720 0 945.91559715 0 16407
0.12450000 0.12449800 13349.66090383 0 127.13214768 0 3191.15014975 0 -267.21620490 0 876.47772004 0 16306
0.12550000 0.12549900 13013.09359994 0 304.98336235 0 3244.06283588 0 -334.11664575 0 1069.57991528 0 17523
0.12650000 0.12650100 12867.98739614 0 258.73062258 0 3521.77479988 0 175.39506424 0 647.54934133 0 17154
0.12750000 0.12750600 12799.00428033 0 32.82607701 0 3205.89144616 0 18.61522562 0 488.17088237 0 18007
0.12850000 0.12850300 12873.04029953 0 -33.59818262 0 3073.35159339 0 527.79113722 0 231.67891568 0 17496
0.12950000 0.12949900 12655.98514532 0 226.19981088 0 2965.23044547 0 -125.16371228 0 580.82025981 0 18405
0.13050000 0.13049000 12308.87265175 0 286.14701729 0 3221.56643123 0 -450.10714146 0 361.55281269 0 18100
0.13150000 0.13148800 12106.53682480 0 163.66134380 0 3264.27444943 0 -297.47980082 0 -79.11100158 0 19059
0.13250000 0.13249300 11927.48829173 0 120.35137103 0 3683.74232259 0 103.27870894 0 -697.67304447 0 18957
0.13350000 0.13349100 11713.94820074 0 67.13232518 0 3128.31839459 0 250.92278839 0 -31.34568616 0 19468
0.13450000 0.13450700 11735.47796300 0 -29.68426956 0 3318.38445396 0 306.05765355 0 108.50132398 0 19953
0.13550000 0.13551000 11673.41512792 0 2.30616708 0 2976.35781750 0 -14.82148378 0 -682.20786474 0 19956
0.13650000 0.13649900 11872.67527454 0 110.09617407 0 2769.44142378 0 178.00170331 0 -512.94329046 0 19723
0.13750000 0.13749600 11471.40883815 0 231.28127416 0 3036.64115182 0 148.00942633 0 507.35873376 0 20946
0.13850000 0.13851100 11407.14908855 0 45.80709566 0 3024.36039968 0 -66.55915018 0 258.63066297 0 20955
0.13950000 0.13949800 11377.16120540 0 -81.50322179 0 2919.67742298 0 558.06571771 0 549.56256007 0 20506
0.14050000 0.14048300 11519.41142033 0 150.03937535 0 2648.13878877 0 59.01428666 0 102.06227737 0 21447
0.14150000 0.14148400 11047.18464506 0 223.22738554 0 3214.43744362 0 -275.29316112 0 790.63877760 0 21771
0.14250000 0.14249400 10743.81271951 0 311.45547251 0 3088.49931898 0 -348.50643583 0 480.74860668 0 22470
0.14350000 0.14350900 10817.72790841 0 138.95594161 0 3646.48265239 0 189.82769415 0 704.01883205 0 22519
0.14450000 0.14449900 10526.86741102 0 10.45564344 0 3418.24520330 0 61.36388673 0 390.13576900 0 22218
0.14550000 0.14550500 10464.15648616 0 52.76549285 0 3127.83507339 0 39.28467615 0 -5.47854459 0 23559
0.14650000 0.14650700 10346.55565210 0 102.56943509 0 3265.47176784 0 95.48383655 0 506.90946474 0 23044
0.14750000 0.14750500 10065.65816205 0 250.85358558 0 3043.19894165 0 -169.04158745 0 113.62002495 0 23649
0.14850000 0.14849900 9974.94756167 0 128.86771015 0 3494.87358163 0 298.99347492 0 658.89091252 0 23640
0.14950000 0.14949500 9741.34964116 0 89.45418496 0 2697.53641166 0 415.66830951 0 251.75871436 0 24457
0.15050000 0.15050000 9666.10531898 0 97.63758169 0 3060.18109086 0 452.63359316 0 968.17693195 0 24591
0.15150000 0.15149900 9761.26467125 0 -13.22894045 0 2691.38505102 0 235.84426561 0 937.92541906 0 25020
0.15250000 0.15250500 9784.71673371 0 -65.65039649 0 2677.29184440 0 23.13098340 0 925.34039425 0 25297
0.15350000 0.15350100 9507.66384406 0 128.27783860 0 2884.94420447 0 -386.47790633 0 1130.69697866 0 25452
0.15450000 0.15450400 9322.21130517 0 226.89513433 0 2853.55029604 0 -488.05554436 0 1041.57914131 0 26061
0.15550000 0.15549900 9470.97537164 0 95.92332930 0 3299.88643373 0 51.02037381 0 728.13546116 0 26128
0.15650000 0.15649500 9287.25839522 0 -39.24513169 0 2891.76562405 0 460.42714741 0 708.01172419 0 26331
0.15750000 0.15749700 9380.24280212 0 17.98877544 0 2940.28448114 0 338.13370394 0 617.69327305 0 27345
0.15850000 0.15849900 9335.22802368 0 74.74705058 0 2849.44206589 0 109.01880719 0 697.36767336 0 26980
0.15950000 0.15949700 9264.11390079 0 -53.84648464 0 2205.15294570 0 289.97733775 0 1071.07491560 0 27777
0.16050000 0.16050000 9255.43608845 0 -51.55751940 0 2280.79271250 0 200.83533433 0 771.30812677 0 28224
0.16150000 0.16150500 8985.58907842 0 362.79077402 0 2044.30584940 0 -438.75678262 0 533.91064260 0 28075
0.16250000 0.16249700 8889.16650030 0 240.07662142 0 2528.20922532 0 -68.96499127 0 867.92842720 0 28590
0.16350000 0.16349900 8874.15058958 0 -102.33853937 0 2131.06200364 0 131.93020899 0 390.43784475 0 29163
0.16450000 0.16449100 8696.37626692 0 -48.26928760 0 2217.40074413 0 242.69754044 0 398.03697206 0 28996
0.16550000 0.16550500 8809.52834908 0 74.99354439 0 2035.84772851 0 264.46566793 0 416.63605035 0 30777
0.16650000 0.16650700 9017.19169373 0 7.69843883 0 1865.91639068 0 -110.25105654 0 494.88904696 0 29211
0.16750000 0.16749900 8530.76186611 0 226.64358761 0 2177.91120570 0 -66.74072516 0 453.38713484 0 30922
0.16850000 0.16850800 8404.52715801 0 197.13133646 0 2274.54249070 0 -383.26052502 0 646.14221758 0 30867
0.16950000 0.16949900 8229.24633333 0 184.69130801 0 2362.83648511 0 330.63673316 0 516.85269984 0 30852
0.17050000 0.17049200 8200.82924406 0 -44.14425106 0 2437.50960952 0 286.61825545 0 807.75054477 0 31257
0.17150000 0.17149500 8077.81301572 0 0.77741445 0 1964.88738963 0 266.35281750 0 824.92492400 0 32608
0.17250000 0.17250900 8164.08584878 0 41.32879526 0 1938.79902975 0 -3.66545301 0 495.62281641 0 32361
0.17350000 0.17350400 7988.73911666 0 178.30158214 0 1826.96509630 0 -15.62203943 0 1014.56258504 0 32508
0.17450000 0.17449800 7860.83475352 0 51.14153364 0 1960.79014406 0 181.17294941 0 853.79567612 0 32791
0.17550000 0.17549800 7859.24199050 0 29.08868604 0 1771.83352652 0 -74.08698762 0 846.32726522 0 33633
0.17650000 0.17650100 7736.33560789 0 217.46707568 0 1869.40948476 0 -20.90682715 0 517.21299382 0 33984
0.17750000 0.17750300 7565.54747339 0 134.19632631 0 1942.17129353 0 -82.42021391 0 917.06791264 0 34069
0.17850000 0.17849800 7354.36906552 0 44.90009950 0 1855.59089245 0 84.10327012 0 657.00815678 0 34536
