### header ###
fiducial parameters:
Omega_m = 0.31
Omega_nu = 0
Omega_de = 0.69
Omega_k = 0
H_0 = 100
w_de = -1
zeff = 0
beta = 0
fgrowth = 0
b_1 = 2
gamma = 0.55
Lx = 3500 Ly = 3500 Lz = 3500
nx = 700 ny = 700 nz = 700
xoffset = -983.599254 yoffset = -42.9823471 zoffset = 800.977702
bins = 400 dk = 0.001
kx_ny = 0.628318531 ky_ny = 0.628318531 kz_ny = 0.628318531
############################
A(data) = 9.12453127 (not used)
A(ran) = 9.14083248 (used)
Ngal = 508079
weighted Ngal = 0
Nran = 25229228
weighted Nran = 0
SN(data) = 6712.35781
SN(ran) = 135.689361
SN(data+ran) = 6848.04717
############################
13 columns: k_central k_mean P_0(k) sigma^{lin}_{P_0(k)} P^img_1(k) sigma^{lin}_{P_1(k)} P_2(k) sigma^{lin}_{P_2(k)} P^img_3(k) sigma^{lin}_{P_3(k)} P_4(k) sigma^{lin}_{P_4(k)} N_modes
### header ###
0.00050000 0 0 0 0 0 0 0 0 0 0 0 0
0.00150000 0.00179520 29429.31763131 0 -8703.96660658 0 450.02695409 0 5001.23195800 0 -59748.05610452 0 3
0.00250000 0.00253879 45094.52643529 0 -13173.79789680 0 2410.11408550 0 -36353.22326650 0 -477.78936283 0 6
0.00350000 0.00331552 49829.64613792 0 -17599.59203555 0 -20370.56031492 0 -9852.84305286 0 14212.82861727 0 7
0.00450000 0.00420575 50077.89747826 0 -8250.61132700 0 -12167.50120263 0 -16221.35771377 0 -9971.46545217 0 24
0.00550000 0.00557378 58286.55872258 0 2009.47376974 0 2248.80563714 0 -9735.63766342 0 -16371.07743806 0 45
0.00650000 0.00659388 58072.57924869 0 7233.49482883 0 2571.36761099 0 -4620.00138199 0 11261.27396467 0 40
0.00750000 0.00754703 59682.03882331 0 2355.30106832 0 26020.80475931 0 -15304.25574896 0 -9238.44295467 0 57
0.00850000 0.00846663 45431.64296781 0 4079.51647269 0 33015.67073339 0 -16571.10650476 0 10272.32191060 0 75
0.00950000 0.00948925 54861.78868316 0 -5233.83028241 0 18376.31116278 0 14056.07876654 0 -21590.83648298 0 112
0.01050000 0.01054430 76938.69250287 0 -15372.90932759 0 16830.23257196 0 15861.06373310 0 -22249.80099214 0 105
0.01150000 0.01145670 88458.76299756 0 -2255.92364018 0 37575.36681190 0 -12672.79154137 0 -3963.06901876 0 144
0.01250000 0.01249090 84301.43181270 0 6238.53421356 0 29897.04073182 0 -11125.17511038 0 8233.54130121 0 169
0.01350000 0.01339930 81893.94304004 0 12613.36500370 0 54610.57150823 0 -20658.24627083 0 -25141.92910708 0 180
0.01450000 0.01448870 73181.74898860 0 1292.73040881 0 56689.95109788 0 26883.31339840 0 18351.81556592 0 267
0.01550000 0.01550050 93721.69141273 0 -8114.88594819 0 80050.29237799 0 23895.18011910 0 1958.17581579 0 238
0.01650000 0.01653350 80526.58344512 0 2144.77075023 0 59769.80555823 0 760.15988406 0 39781.83790632 0 315
0.01750000 0.01747870 88253.02195311 0 -216.25767424 0 59804.84634477 0 15168.04704895 0 19778.38200706 0 297
0.01850000 0.01844180 82461.29621387 0 2815.48875204 0 48473.16126985 0 9659.65737487 0 28324.92870398 0 388
0.01950000 0.01947590 90933.36750868 0 3307.70744941 0 68408.62266483 0 11692.63812994 0 18904.44941249 0 399
0.02050000 0.02045430 73688.57716751 0 5058.87899490 0 58104.87389208 0 -7578.22367015 0 34254.18129193 0 462
0.02150000 0.02154770 77416.85094734 0 5459.83786327 0 61898.06649587 0 3880.97032329 0 11521.05910622 0 571
0.02250000 0.02255340 76030.37819612 0 1499.48203393 0 74499.67800691 0 6759.97187399 0 11309.27654685 0 510
0.02350000 0.02348930 61903.88831934 0 2620.96295620 0 50927.66401316 0 17597.39512104 0 7822.02625859 0 555
0.02450000 0.02439640 70596.09044868 0 -366.79684764 0 62781.66551431 0 5746.11779388 0 16913.71532357 0 592
0.02550000 0.02547300 65878.87559935 0 2128.17306105 0 44961.28356987 0 7707.50110486 0 5000.80355966 0 837
0.02650000 0.02652900 63592.76635372 0 3128.43922488 0 44974.35521125 0 10670.43577466 0 14587.40254230 0 723
0.02750000 0.02749970 61231.85216881 0 598.41315126 0 37160.69919696 0 6517.76204858 0 11963.95707270 0 826
0.02850000 0.02848090 60421.19071231 0 -3009.63008784 0 26760.06649404 0 10534.62251927 0 10146.65840027 0 831
0.02950000 0.02946900 61290.29009494 0 -193.22082862 0 25346.35200282 0 2319.71105316 0 4211.68284999 0 996
0.03050000 0.03053250 59511.66810257 0 5566.82760021 0 21673.66016025 0 279.45741258 0 9390.73306894 0 1041
0.03150000 0.03150510 56091.18204647 0 -577.05035450 0 22105.24401697 0 9603.67999300 0 16486.08591298 0 1036
0.03250000 0.03246190 59276.15886643 0 -1926.14480214 0 21782.84681171 0 2264.48062222 0 5728.98186065 0 1059
0.03350000 0.03345080 54800.38492243 0 2025.89570575 0 18958.82304677 0 -729.06365754 0 11112.10346901 0 1302
0.03450000 0.03451200 53053.06896192 0 2924.08223658 0 23985.58315144 0 -4714.65544392 0 6484.89620741 0 1339
0.03550000 0.03553350 50264.63521215 0 2125.28411847 0 23314.53561245 0 -97.87221216 0 9432.27672244 0 1365
0.03650000 0.03647120 50680.84066725 0 0.23147790 0 29227.53103299 0 1858.17226701 0 5469.80087060 0 1308
0.03750000 0.03744890 49633.57151735 0 -239.00672405 0 23372.31446423 0 3424.22081078 0 6962.00013291 0 1579
0.03850000 0.03847530 49081.26720796 0 525.37233433 0 27099.70947825 0 1.04795788 0 6462.22404960 0 1662
0.03950000 0.03950240 46810.20682677 0 1713.79104500 0 25519.24917525 0 297.96971276 0 7465.01666513 0 1683
0.04050000 0.04050350 47041.98130823 0 1170.86756059 0 25233.10105951 0 6611.73506701 0 11294.00799096 0 1822
0.04150000 0.04152450 49172.54900611 0 -1096.75794476 0 25129.84607724 0 6066.80140582 0 10231.21764000 0 1887
0.04250000 0.04250150 46837.77810394 0 -442.33445791 0 17913.42127420 0 2942.03102818 0 10018.86388285 0 1920
0.04350000 0.04349210 47070.43135122 0 1430.76254787 0 19719.28500658 0 769.23314101 0 12406.85503918 0 2005
0.04450000 0.04448520 44099.21431369 0 2149.95546848 0 19498.49509769 0 -2657.71733606 0 10163.13525914 0 2151
0.04550000 0.04548030 43804.16869415 0 1398.85236452 0 22661.28308104 0 -402.57469899 0 9414.56959144 0 2274
0.04650000 0.04648670 42436.58940778 0 238.31359752 0 18715.73445554 0 1043.01043112 0 6152.82159371 0 2311
0.04750000 0.04749250 40831.63350792 0 1259.82062935 0 20215.12861290 0 3817.08404915 0 8061.61077117 0 2568
0.04850000 0.04851840 39486.35290388 0 786.56899346 0 20382.31380759 0 645.70283468 0 5621.49781795 0 2493
0.04950000 0.04949480 39003.69078466 0 398.90475329 0 19544.95983971 0 390.48837378 0 6184.00679526 0 2644
0.05050000 0.05050630 37236.38290204 0 571.76128280 0 17742.17178766 0 1511.87263181 0 3520.26991343 0 2829
0.05150000 0.05149060 36569.07011773 0 1512.11429240 0 19035.60520911 0 1566.41103467 0 6717.59339298 0 2784
0.05250000 0.05249300 36864.99450307 0 401.30927623 0 18356.09954923 0 -385.93526844 0 5953.64932366 0 3055
0.05350000 0.05348950 36429.89558312 0 862.04838550 0 17024.76935237 0 963.02516741 0 1159.31179023 0 3009
0.05450000 0.05448610 34226.71986048 0 601.66897857 0 19778.82138997 0 292.37636840 0 5047.68571544 0 3336
0.05550000 0.05550870 33905.86049538 0 -544.96002416 0 17792.59097581 0 248.56659757 0 2446.40711331 0 3349
0.05650000 0.05647670 33806.55995925 0 354.40405285 0 15924.11517972 0 3676.81105729 0 3668.35293640 0 3324
0.05750000 0.05747970 33585.98974181 0 623.35252485 0 16287.70453216 0 -48.36825860 0 2974.96277678 0 3639
0.05850000 0.05849280 32914.39297419 0 1082.02653447 0 14853.33904449 0 1906.42749436 0 5357.27490907 0 3846
0.05950000 0.05951020 33447.03489866 0 -1092.59918558 0 14164.82603509 0 2869.89534004 0 3466.62126095 0 3787
0.06050000 0.06049470 32845.84924128 0 -53.30274830 0 13487.51728973 0 -1634.32864694 0 894.79669173 0 3930
0.06150000 0.06148310 32211.49017471 0 1526.05371501 0 12555.80584338 0 -911.97876016 0 1837.57619342 0 4083
0.06250000 0.06249100 31153.34629795 0 247.65487805 0 13171.71082801 0 434.26519089 0 2126.48143688 0 4303
0.06350000 0.06350600 31557.57856894 0 69.00178958 0 13059.00911333 0 64.60356672 0 -2661.32027586 0 4470
0.06450000 0.06451750 30885.32272696 0 237.99284800 0 12431.57032748 0 1700.26903615 0 -758.54295498 0 4479
0.06550000 0.06550280 31237.37827819 0 -176.37818348 0 11667.15392155 0 -309.54086151 0 -2018.00878264 0 4636
0.06650000 0.06648880 30710.66802292 0 904.74322221 0 10991.05347917 0 375.06603388 0 -1247.30920118 0 4653
0.06750000 0.06749660 29420.63981897 0 217.52419546 0 11034.66223231 0 1600.99046916 0 -810.91080630 0 5220
0.06850000 0.06852730 29199.74006436 0 262.30719941 0 9963.83117422 0 1085.87772561 0 -776.34125793 0 5029
0.06950000 0.06949320 29125.04497080 0 416.22412888 0 10335.92258584 0 1592.48840998 0 499.44215230 0 5040
0.07050000 0.07048030 28236.94227760 0 626.56990616 0 8432.95523185 0 796.59021903 0 507.90027319 0 5475
0.07150000 0.07148790 28073.82137477 0 -48.17218398 0 9923.64960772 0 -484.26586682 0 1084.56177382 0 5509
0.07250000 0.07249820 27162.76092487 0 857.21187819 0 9277.40523361 0 -954.40008102 0 309.81767274 0 5916
0.07350000 0.07351270 26402.51865652 0 644.88228711 0 11789.41221438 0 -939.87408223 0 1066.17799315 0 5721
0.07450000 0.07449140 25417.75172460 0 255.24631616 0 10855.35006950 0 -529.12356587 0 27.24898982 0 6028
0.07550000 0.07549160 26158.88083666 0 -176.36829737 0 11417.58443250 0 1926.83683021 0 -877.26641235 0 6183
0.07650000 0.07648840 25885.91420802 0 -70.86334510 0 10218.06910662 0 1161.34393616 0 562.22118152 0 6330
0.07750000 0.07749960 26050.79264246 0 386.40870352 0 10127.88576572 0 -819.90607279 0 260.08502038 0 6583
0.07850000 0.07848650 25814.95386914 0 734.89646558 0 10264.55581778 0 1135.38739115 0 535.36390155 0 6549
0.07950000 0.07947320 24653.22547294 0 -62.02988137 0 10248.68311040 0 902.86266338 0 1036.31423567 0 6828
0.08050000 0.08048110 24348.73312098 0 411.22285298 0 8952.22893149 0 1219.01294221 0 523.70048239 0 7147
0.08150000 0.08149960 24318.63539211 0 261.68437415 0 8491.79958717 0 976.76467079 0 1212.64189012 0 7386
0.08250000 0.08250610 23704.04855618 0 -111.18035138 0 7165.30260225 0 563.99848536 0 1746.86559304 0 7227
0.08350000 0.08350160 23435.47575657 0 174.84473715 0 7261.70321122 0 -447.49720702 0 217.58241369 0 7798
0.08450000 0.08449610 22381.72570884 0 689.36651069 0 6681.78368636 0 -1068.20684370 0 -265.31807076 0 7371
0.08550000 0.08548940 22335.15112110 0 568.59333207 0 7316.88970387 0 -26.18392566 0 -31.03658029 0 8256
0.08650000 0.08650700 21773.07054211 0 526.76847351 0 7599.22617293 0 301.28375830 0 -2050.11668829 0 8037
0.08750000 0.08749060 21492.30486693 0 -120.24042685 0 7426.76838340 0 995.95252218 0 -560.08028832 0 8155
0.08850000 0.08849210 21195.83125296 0 94.50533082 0 7022.78875758 0 254.76629034 0 -1388.42800514 0 8718
0.08950000 0.08949900 21098.72763134 0 575.92663273 0 6937.87801152 0 -79.70175189 0 9.94456423 0 8571
0.09050000 0.09049190 20795.11404519 0 -114.97991504 0 6680.35569192 0 804.63312307 0 417.37970592 0 8932
0.09150000 0.09150830 20641.98910341 0 279.94402915 0 7248.23612523 0 224.53015585 0 85.17272811 0 9285
0.09250000 0.09250820 20217.65506459 0 367.71625636 0 6328.86035389 0 209.34618117 0 710.96547575 0 9204
0.09350000 0.09350330 19501.68062374 0 471.63470681 0 6942.64531602 0 -0.35787298 0 681.85416150 0 9349
0.09450000 0.09448040 19046.58978169 0 216.68826948 0 7053.99592828 0 36.77426193 0 1096.01868302 0 9564
0.09550000 0.09549270 18612.04009038 0 607.23705841 0 7186.56873476 0 411.40409843 0 308.02279358 0 10155
0.09650000 0.09649430 18042.27031058 0 667.96197256 0 7866.14030208 0 -765.32812546 0 1003.31987501 0 9913
0.09750000 0.09749140 17422.41087982 0 297.62479718 0 7074.94350819 0 699.50417272 0 892.80628718 0 10476
0.09850000 0.09850240 17024.65950665 0 -49.62126880 0 7344.14242844 0 428.12811019 0 539.08217937 0 10575
0.09950000 0.09950330 17080.24144391 0 70.07410356 0 7096.17668699 0 2.91598661 0 110.17636145 0 10882
0.10050000 0.10051200 16925.57866196 0 130.36820277 0 6476.56990140 0 -138.07827426 0 -544.21966397 0 10875
0.10150000 0.10150300 16300.22694491 0 240.47645987 0 6599.03690110 0 87.99971771 0 479.53810678 0 11118
0.10250000 0.10250800 16761.90853050 0 32.81443336 0 6205.26194321 0 307.46917112 0 -974.13057029 0 11575
0.10350000 0.10349800 16692.59587751 0 -294.73805150 0 5466.01119306 0 1498.55932984 0 237.13385443 0 11364
0.10450000 0.10450100 16867.25058156 0 46.77846141 0 5743.59134219 0 229.06458741 0 -296.62520107 0 12093
0.10550000 0.10551000 16582.09107734 0 312.12992527 0 5320.90498926 0 -135.44417376 0 1222.94541920 0 12067
0.10650000 0.10649700 16220.58879369 0 41.18182168 0 4615.13521633 0 260.13225404 0 745.40980000 0 12054
0.10750000 0.10749900 16290.12113813 0 125.01432209 0 5423.68763490 0 472.67714275 0 666.42193548 0 12807
0.10850000 0.10850100 16015.28713215 0 501.00525698 0 5199.49250852 0 -465.10437841 0 365.06458054 0 12736
0.10950000 0.10950300 15417.83622945 0 226.75123642 0 5674.02604403 0 -197.23019761 0 1767.85711124 0 12933
0.11050000 0.11050200 15273.49894573 0 56.27704101 0 5109.02356874 0 658.93814618 0 799.54616751 0 13428
0.11150000 0.11150900 15177.49378137 0 277.80533287 0 5619.76225548 0 432.25062028 0 1250.51669638 0 13453
0.11250000 0.11250000 14553.46021302 0 286.97525406 0 4894.38502050 0 111.75374607 0 1447.60189763 0 13668
0.11350000 0.11349100 14473.16298745 0 147.31300443 0 5383.34129981 0 -115.26221855 0 986.80896396 0 13791
0.11450000 0.11448600 14120.11882469 0 153.60826298 0 4859.33324939 0 185.68211646 0 1351.20128866 0 14205
0.11550000 0.11549300 14047.18126275 0 296.16275057 0 5193.35213244 0 -132.88257143 0 569.52592228 0 14776
0.11650000 0.11649800 13634.93025377 0 57.02278365 0 4928.96445498 0 77.76242560 0 976.24400205 0 14553
0.11750000 0.11747300 14003.24297242 0 -215.89188797 0 4746.32396667 0 1060.89770911 0 1301.10065311 0 14568
0.11850000 0.11849100 14102.10412565 0 -153.72689636 0 4349.25363700 0 56.49124018 0 94.32518383 0 16015
0.11950000 0.11950300 13978.74737557 0 565.27599115 0 4279.99590688 0 -304.69996038 0 377.45957224 0 15270
0.12050000 0.12050700 13183.79385785 0 186.00286598 0 4543.98813972 0 -483.68038910 0 1523.38446387 0 15999
0.12150000 0.12150000 13214.77035253 0 142.90819083 0 5259.27055250 0 216.28843104 0 447.69712624 0 15670
0.12250000 0.12250700 12994.41982655 0 292.15667695 0 4937.47749873 0 288.95577250 0 352.06543735 0 16887
0.12350000 0.12352200 12886.00209517 0 46.79175274 0 4726.50779774 0 -157.69452398 0 876.17015201 0 16407
0.12450000 0.12449800 12826.46571178 0 -158.27780478 0 4564.74898190 0 487.06912974 0 372.07054093 0 16306
0.12550000 0.12549900 12931.58807139 0 -48.22139487 0 4563.13424973 0 210.59622553 0 574.93033199 0 17523
0.12650000 0.12650100 13042.75194591 0 45.42637037 0 3962.02548436 0 2.00656286 0 413.19787913 0 17154
0.12750000 0.12750600 13079.11088115 0 -22.99982761 0 4294.30880495 0 -45.64781936 0 66.02672795 0 18007
0.12850000 0.12850300 13199.39195092 0 117.85567614 0 3874.96176208 0 208.13568127 0 173.55514833 0 17496
0.12950000 0.12949900 12990.90476333 0 38.10240660 0 4201.25849061 0 97.97283085 0 -0.23304649 0 18405
0.13050000 0.13049000 12910.82722921 0 146.49794915 0 4205.71822708 0 27.26217131 0 275.28107809 0 18100
0.13150000 0.13148800 12756.27429299 0 108.76396511 0 4011.33523068 0 129.20493653 0 -101.30785693 0 19059
0.13250000 0.13249300 12361.59860014 0 76.77546175 0 4109.20777238 0 -187.60441666 0 434.69908151 0 18957
0.13350000 0.13349100 12508.57218128 0 233.52761925 0 3975.61340065 0 509.90056385 0 341.69600083 0 19468
0.13450000 0.13450700 12487.59164765 0 86.42771553 0 4078.25324685 0 261.26696039 0 548.48057967 0 19953
0.13550000 0.13551000 12208.25396690 0 6.15176707 0 3914.76985312 0 13.98336090 0 171.44061811 0 19956
0.13650000 0.13649900 12283.71798054 0 209.08035451 0 3745.23395990 0 97.57540901 0 314.46634386 0 19723
0.13750000 0.13749600 11814.78657704 0 237.25907856 0 3989.28919351 0 -444.21721365 0 500.97010635 0 20946
0.13850000 0.13851100 11404.95217403 0 218.61056968 0 4099.96974684 0 -150.24588531 0 335.63141831 0 20955
0.13950000 0.13949800 11336.07890395 0 204.50308312 0 4323.26413827 0 2.15343758 0 106.81442316 0 20506
0.14050000 0.14048300 11087.60787216 0 298.03012791 0 4382.97627483 0 -0.78208619 0 -309.54525534 0 21447
0.14150000 0.14148400 10992.81101078 0 140.90570324 0 4564.28762985 0 47.23750670 0 51.10550424 0 21771
0.14250000 0.14249400 10754.58858521 0 -68.99959267 0 4595.69252286 0 128.03507955 0 -205.21158805 0 22470
0.14350000 0.14350900 10563.35816114 0 125.14394005 0 4295.16560161 0 -120.43924761 0 -111.70761087 0 22519
0.14450000 0.14449900 10449.43715890 0 234.76997441 0 4268.28635251 0 403.80497112 0 -233.62098812 0 22218
0.14550000 0.14550500 10541.43295427 0 -50.39194641 0 4156.04598987 0 220.42082725 0 455.95972174 0 23559
0.14650000 0.14650700 10443.07709137 0 -99.52022759 0 3817.77607723 0 749.40818442 0 181.98910316 0 23044
0.14750000 0.14750500 10515.61920870 0 35.65427491 0 3369.63846963 0 219.24767489 0 476.80184975 0 23649
0.14850000 0.14849900 10416.83494748 0 144.45811402 0 3326.75469827 0 210.74122189 0 793.21356141 0 23640
0.14950000 0.14949500 10241.15867818 0 188.05698105 0 3462.32629307 0 -557.36709889 0 613.06217725 0 24457
0.15050000 0.15050000 10177.28338862 0 118.76300183 0 3241.37161559 0 208.18401339 0 528.31290442 0 24591
0.15150000 0.15149900 9823.95362697 0 101.55468027 0 3418.64064791 0 147.75348579 0 406.67304302 0 25020
0.15250000 0.15250500 9878.67876757 0 111.81306276 0 3279.77368134 0 159.43118490 0 571.90627916 0 25297
0.15350000 0.15350100 9531.91778032 0 165.14096573 0 3422.51820203 0 283.44371397 0 667.63463229 0 25452
0.15450000 0.15450400 9539.88159544 0 76.53105501 0 3017.94540929 0 273.11931421 0 723.10672383 0 26061
0.15550000 0.15549900 9379.40797460 0 -88.04123939 0 2808.10711927 0 268.75624198 0 982.11415764 0 26128
0.15650000 0.15649500 9290.68558186 0 129.64212252 0 2497.50734496 0 -20.62650086 0 204.45475100 0 26331
0.15750000 0.15749700 9048.59658674 0 177.60625870 0 2704.42373867 0 -32.18633550 0 989.22337301 0 27345
0.15850000 0.15849900 9089.48116589 0 142.45782335 0 2575.62962516 0 251.66534550 0 685.25937900 0 26980
0.15950000 0.15949700 8954.32698485 0 -50.62745564 0 2238.02977144 0 381.46454740 0 906.44802787 0 27777
0.16050000 0.16050000 9012.38045094 0 33.43242542 0 2250.65104534 0 70.63585460 0 545.55209262 0 28224
0.16150000 0.16150500 8833.90311564 0 170.79142987 0 2274.88301245 0 -79.45558762 0 1095.30139043 0 28075
0.16250000 0.16249700 8637.55388075 0 178.58498411 0 2603.92588413 0 -346.21615245 0 968.98759340 0 28590
0.16350000 0.16349900 8321.37394357 0 153.12384333 0 2486.02846661 0 -14.76952676 0 730.76516783 0 29163
0.16450000 0.16449100 8496.03963219 0 114.68113466 0 2670.21777965 0 54.16360925 0 855.33900856 0 28996
0.16550000 0.16550500 8249.57877718 0 -81.42621994 0 2616.15171341 0 91.37835254 0 980.73888915 0 30777
0.16650000 0.16650700 8395.11337931 0 -14.15318239 0 2712.93678242 0 459.93284164 0 1204.77693615 0 29211
0.16750000 0.16749900 8396.60728118 0 68.42861459 0 2304.18985210 0 -1.30916333 0 880.50466435 0 30922
0.16850000 0.16850800 8283.36732244 0 222.57600039 0 2492.25671926 0 -33.19384050 0 1002.68386825 0 30867
0.16950000 0.16949900 8110.55802659 0 29.33649799 0 2346.55734854 0 -219.45638177 0 858.12140080 0 30852
0.17050000 0.17049200 7965.36394621 0 132.91662361 0 2451.24032524 0 -0.60939333 0 1004.48753507 0 31257
0.17150000 0.17149500 7916.48259822 0 23.71283621 0 2663.25356064 0 124.99235295 0 623.81497535 0 32608
0.17250000 0.17250900 7848.97141514 0 80.11257490 0 2334.67204101 0 140.12030630 0 272.49868585 0 32361
0.17350000 0.17350400 7794.04855223 0 83.41135190 0 2227.47359719 0 -10.33034242 0 534.56971696 0 32508
0.17450000 0.17449800 7701.34974422 0 1.54171772 0 2312.37335867 0 -121.35426251 0 478.18151207 0 32791
0.17550000 0.17549800 7758.08506160 0 -78.61867303 0 2034.04625861 0 379.31266964 0 445.15968997 0 33633
0.17650000 0.17650100 7866.25014781 0 21.66509219 0 1953.62820274 0 61.90059295 0 -153.24577208 0 33984
0.17750000 0.17750300 7808.28455829 0 163.81842319 0 2105.10545863 0 -207.34479205 0 166.27017979 0 34069
0.17850000 0.17849800 7498.10219774 0 225.50997972 0 2143.70524668 0 -218.06024260 0 229.69180650 0 34536
