### header ###
fiducial parameters:
Omega_m = 0.31
Omega_nu = 0
Omega_de = 0.69
Omega_k = 0
H_0 = 100
w_de = -1
zeff = 0
beta = 0
fgrowth = 0
b_1 = 2
gamma = 0.55
Lx = 3500 Ly = 3500 Lz = 3500
nx = 700 ny = 700 nz = 700
xoffset = -983.599254 yoffset = -42.9823471 zoffset = 800.977702
bins = 400 dk = 0.001
kx_ny = 0.628318531 ky_ny = 0.628318531 kz_ny = 0.628318531
############################
A(data) = 9.05598225 (not used)
A(ran) = 9.04508513 (used)
Ngal = 502392
weighted Ngal = 0
Nran = 25229228
weighted Nran = 0
SN(data) = 6742.63134
SN(ran) = 134.268057
SN(data+ran) = 6876.8994
############################
13 columns: k_central k_mean P_0(k) sigma^{lin}_{P_0(k)} P^img_1(k) sigma^{lin}_{P_1(k)} P_2(k) sigma^{lin}_{P_2(k)} P^img_3(k) sigma^{lin}_{P_3(k)} P_4(k) sigma^{lin}_{P_4(k)} N_modes
### header ###
0.00050000 0 0 0 0 0 0 0 0 0 0 0 0
0.00150000 0.00179520 89255.25435543 0 -91143.06299926 0 -16086.35731675 0 -86102.02295023 0 81794.31296673 0 3
0.00250000 0.00253879 135497.99816264 0 -44283.20590443 0 -17893.20966065 0 -117010.96250824 0 39876.63476770 0 6
0.00350000 0.00331552 146958.20273676 0 13273.97719875 0 -38722.48572657 0 -27561.17137240 0 10778.95236719 0 7
0.00450000 0.00420575 132997.90944313 0 36394.52525941 0 -1502.98611259 0 -54855.19793962 0 76784.46910383 0 24
0.00550000 0.00557378 103019.14349130 0 4233.32245798 0 32017.50262292 0 22198.06365528 0 -31215.84851594 0 45
0.00650000 0.00659388 92918.49946558 0 8929.24920565 0 41014.96602430 0 -5196.13122931 0 5367.98486734 0 40
0.00750000 0.00754703 68220.01755361 0 27906.74602581 0 38300.78798518 0 1630.70373799 0 -8273.94255916 0 57
0.00850000 0.00846663 65642.70728885 0 4274.03128397 0 54252.80397925 0 -759.65239681 0 17787.31838097 0 75
0.00950000 0.00948925 63274.76297749 0 2326.27982756 0 50594.94130967 0 35018.92723505 0 2687.76014207 0 112
0.01050000 0.01054430 52123.55443009 0 -3628.29220020 0 51071.12253107 0 18064.23945574 0 9528.88603829 0 105
0.01150000 0.01145670 67404.63273090 0 -3545.84199840 0 21945.85786881 0 26622.86918250 0 21865.23110607 0 144
0.01250000 0.01249090 62219.69478105 0 -8718.88365614 0 16421.60647193 0 23167.67187704 0 26395.04914716 0 169
0.01350000 0.01339930 83000.85841906 0 -4891.77069222 0 935.86800861 0 12050.18596746 0 24504.27466873 0 180
0.01450000 0.01448870 86706.94336228 0 -9846.27427846 0 -8498.56608388 0 14249.29739824 0 5931.35064132 0 267
0.01550000 0.01550050 86449.68467243 0 4373.72726471 0 -9160.66119622 0 -22533.75219337 0 15411.57502308 0 238
0.01650000 0.01653350 84025.16981228 0 8860.02442924 0 7994.60487842 0 -19782.55614464 0 -6728.36925868 0 315
0.01750000 0.01747870 73842.47102937 0 5302.90127480 0 9919.06904095 0 -9735.26418795 0 29486.54725445 0 297
0.01850000 0.01844180 76931.22299352 0 -574.09879985 0 21606.98380468 0 11763.81816026 0 -9489.06696268 0 388
0.01950000 0.01947590 74645.00390216 0 1424.41346491 0 24064.56222830 0 9191.47292231 0 9607.95299173 0 399
0.02050000 0.02045430 71034.48474040 0 4663.84081116 0 19591.31473600 0 -4322.76983251 0 8263.71592209 0 462
0.02150000 0.02154770 67033.79356055 0 2607.75949996 0 22967.42311888 0 -690.81867118 0 10840.21332848 0 571
0.02250000 0.02255340 66003.11111524 0 -307.94150775 0 29374.72430558 0 3229.22267832 0 10768.59391525 0 510
0.02350000 0.02348930 60769.18197168 0 4696.35514600 0 27394.31571489 0 4698.91455141 0 13320.99116939 0 555
0.02450000 0.02439640 61392.22692850 0 627.04663661 0 26515.54990838 0 6964.13113999 0 25446.31161331 0 592
0.02550000 0.02547300 62225.40675879 0 -3957.07144213 0 16763.88575357 0 7396.26422534 0 5057.96727538 0 837
0.02650000 0.02652900 64494.59976265 0 -403.22278877 0 21350.38418918 0 -2135.06038806 0 5524.86653295 0 723
0.02750000 0.02749970 66891.65319135 0 3602.87389925 0 17855.42273097 0 -9953.14318510 0 -2002.59742730 0 826
0.02850000 0.02848090 60771.59857765 0 3319.80146382 0 23957.24295418 0 -4961.53371269 0 3082.38091205 0 831
0.02950000 0.02946900 58961.01147907 0 -554.46497482 0 27727.69749273 0 -965.93607914 0 -4953.43808269 0 996
0.03050000 0.03053250 57320.35571832 0 2495.15664642 0 26367.69756143 0 18.89005962 0 -8426.73796377 0 1041
0.03150000 0.03150510 58157.38014902 0 4616.78290222 0 35284.97358297 0 -836.23134456 0 -14338.93151051 0 1036
0.03250000 0.03246190 53949.95931319 0 1002.36751256 0 30850.72132333 0 3284.47507840 0 1271.10178540 0 1059
0.03350000 0.03345080 53283.41544895 0 -2128.30487593 0 35281.56836547 0 4204.22432521 0 -6917.69935169 0 1302
0.03450000 0.03451200 54368.91091144 0 914.42502448 0 23898.03610797 0 1348.78468269 0 -7121.17757419 0 1339
0.03550000 0.03553350 54441.18939902 0 935.50881309 0 27113.65988543 0 4899.26217072 0 -613.55208919 0 1365
0.03650000 0.03647120 53706.43133906 0 -1364.97594268 0 20206.78033774 0 2971.96398846 0 -6049.87417947 0 1308
0.03750000 0.03744890 52368.40055292 0 1032.29937439 0 20609.80430575 0 1868.92616356 0 -7314.16552987 0 1579
0.03850000 0.03847530 49181.55635563 0 1853.84434541 0 15127.29428467 0 2211.99633442 0 -1134.26696475 0 1662
0.03950000 0.03950240 47375.47293180 0 2499.03420055 0 17457.45166635 0 2476.20825872 0 -951.35296058 0 1683
0.04050000 0.04050350 47160.28515493 0 651.66416222 0 13303.30600754 0 7383.29144512 0 -581.08828338 0 1822
0.04150000 0.04152450 48673.95925664 0 -828.77831206 0 11277.53113209 0 152.14841328 0 -6017.32689091 0 1887
0.04250000 0.04250150 42970.98886386 0 843.42733806 0 10531.59077723 0 -1762.49663982 0 1308.52622418 0 1920
0.04350000 0.04349210 42582.68422311 0 2494.15705032 0 14653.52966924 0 -4600.93216399 0 -934.27524559 0 2005
0.04450000 0.04448520 41255.19862665 0 1582.40457235 0 17130.88032351 0 -971.91717891 0 -727.75429649 0 2151
0.04550000 0.04548030 38941.07872094 0 1595.72885889 0 17633.97374773 0 -1269.11357776 0 -6508.49106932 0 2274
0.04650000 0.04648670 38459.73475043 0 1107.80512940 0 21963.76272212 0 -3879.69611287 0 -2358.92597727 0 2311
0.04750000 0.04749250 38243.55836203 0 -63.63560619 0 22367.44576449 0 2833.70117338 0 -3401.17517751 0 2568
0.04850000 0.04851840 38106.58074194 0 -815.66053548 0 20938.46271738 0 2565.91926299 0 -3809.33992548 0 2493
0.04950000 0.04949480 37830.64827869 0 595.31440333 0 18084.67076075 0 873.92380691 0 -2237.94189486 0 2644
0.05050000 0.05050630 37478.26319028 0 754.50173072 0 19460.48847656 0 2499.50653717 0 -975.01372992 0 2829
0.05150000 0.05149060 38733.25060770 0 509.35792597 0 18688.27302409 0 1460.09135666 0 -1636.36079287 0 2784
0.05250000 0.05249300 36833.13924258 0 1001.42723315 0 17598.60342402 0 876.38764654 0 -651.77290949 0 3055
0.05350000 0.05348950 34858.22293818 0 465.15490744 0 18216.48563172 0 -265.55973135 0 1829.75517774 0 3009
0.05450000 0.05448610 34811.86804189 0 764.42079976 0 16407.10683612 0 18.72199566 0 -1259.74373735 0 3336
0.05550000 0.05550870 34079.63643362 0 223.37457881 0 17625.40578112 0 2181.43725350 0 -1348.38923808 0 3349
0.05650000 0.05647670 32842.33417805 0 -295.75082909 0 14561.69864246 0 3455.53782721 0 1175.64584966 0 3324
0.05750000 0.05747970 34573.83235405 0 -143.11579925 0 14012.03063049 0 350.09919886 0 -842.17399832 0 3639
0.05850000 0.05849280 32600.45388981 0 806.11384345 0 13797.94131088 0 -1450.19425676 0 -317.81554004 0 3846
0.05950000 0.05951020 32901.43117854 0 233.69238784 0 13260.35632875 0 -164.78396712 0 -1870.63975689 0 3787
0.06050000 0.06049470 32489.18016956 0 -859.23853183 0 12648.18609879 0 2140.62956636 0 -1565.23568541 0 3930
0.06150000 0.06148310 33178.79163622 0 247.03095432 0 11503.48379009 0 2275.90457770 0 -2077.22661342 0 4083
0.06250000 0.06249100 32853.86797927 0 607.55780793 0 10306.03356385 0 743.94335956 0 -1561.76456047 0 4303
0.06350000 0.06350600 32682.61849272 0 1080.22176919 0 12020.08823859 0 -152.32306799 0 -649.69133298 0 4470
0.06450000 0.06451750 30667.49865267 0 490.90384403 0 11037.29852973 0 -911.13184962 0 -255.99436555 0 4479
0.06550000 0.06550280 29978.43641465 0 702.79185530 0 11514.13882549 0 587.78997111 0 774.04767917 0 4636
0.06650000 0.06648880 30552.16064057 0 263.55175149 0 12398.17722684 0 417.78723356 0 807.83622444 0 4653
0.06750000 0.06749660 29313.21069912 0 381.75014629 0 11935.17749253 0 918.81775505 0 1276.34142652 0 5220
0.06850000 0.06852730 28504.19692850 0 627.22788205 0 12506.70480394 0 -869.27952963 0 731.59340461 0 5029
0.06950000 0.06949320 27973.09284420 0 199.50180722 0 11957.03679197 0 2118.93503551 0 3119.46482909 0 5040
0.07050000 0.07048030 28408.30160987 0 -524.57375591 0 11484.48047952 0 1630.91244487 0 1088.59311196 0 5475
0.07150000 0.07148790 27912.12846637 0 1236.67613493 0 11081.45651151 0 -347.34426805 0 3751.71485772 0 5509
0.07250000 0.07249820 27911.57923774 0 1.42343584 0 12348.52695877 0 -940.26183765 0 2179.84449048 0 5916
0.07350000 0.07351270 26052.00094545 0 475.81763205 0 12147.94866343 0 793.77267616 0 3655.18243388 0 5721
0.07450000 0.07449140 26263.01458473 0 1043.86063703 0 13146.66600253 0 -88.83762091 0 2496.13427338 0 6028
0.07550000 0.07549160 27284.25029762 0 -671.94717549 0 11899.69732309 0 1073.68155468 0 4006.86450964 0 6183
0.07650000 0.07648840 26714.48051783 0 -715.34172947 0 12277.56661989 0 1425.98425879 0 1766.03367219 0 6330
0.07750000 0.07749960 27140.02285963 0 37.06458419 0 9408.07770904 0 1905.24116052 0 3262.53888696 0 6583
0.07850000 0.07848650 26476.22513854 0 397.09998802 0 9561.20265083 0 63.73325904 0 3960.24598361 0 6549
0.07950000 0.07947320 26928.24030026 0 662.76077744 0 9165.32963957 0 225.31115896 0 2408.94972081 0 6828
0.08050000 0.08048110 25574.83111251 0 584.00468740 0 9597.05629573 0 -239.94370810 0 2324.98364799 0 7147
0.08150000 0.08149960 24594.12847245 0 935.75926135 0 9501.27082282 0 -361.94166656 0 974.35465557 0 7386
0.08250000 0.08250610 23753.14959562 0 544.42178011 0 9659.82214346 0 -1004.83904140 0 1097.24236441 0 7227
0.08350000 0.08350160 22641.84038757 0 431.12689850 0 10035.49452574 0 490.76433996 0 988.38854550 0 7798
0.08450000 0.08449610 22070.53276761 0 530.95908795 0 9398.58703833 0 1204.11786179 0 1032.32244199 0 7371
0.08550000 0.08548940 22045.70763358 0 -132.28940451 0 8856.46542772 0 2334.12281238 0 2948.00663566 0 8256
0.08650000 0.08650700 21696.28837977 0 183.91030490 0 8237.97906853 0 484.89857820 0 2054.69725506 0 8037
0.08750000 0.08749060 21510.97864032 0 433.05578945 0 7663.99121287 0 317.22786541 0 3968.12192215 0 8155
0.08850000 0.08849210 21214.50502635 0 -8.60568764 0 7902.08182357 0 -202.86967718 0 2747.28554088 0 8718
0.08950000 0.08949900 20799.83741140 0 425.75654097 0 8505.66211777 0 -439.76846175 0 3268.34972585 0 8571
0.09050000 0.09049190 20431.96407565 0 265.81896727 0 9217.16583758 0 -363.79366549 0 3217.04078733 0 8932
0.09150000 0.09150830 19991.48271514 0 264.74357761 0 8570.41617313 0 -378.25595375 0 2136.29066019 0 9285
0.09250000 0.09250820 19828.69134949 0 423.61125394 0 9347.28908438 0 515.04134382 0 2089.47441185 0 9204
0.09350000 0.09350330 19960.06683756 0 160.08806234 0 10036.35132240 0 645.62594267 0 1499.16348133 0 9349
0.09450000 0.09448040 19414.02373454 0 419.37011047 0 8500.26869263 0 932.60339364 0 3106.63484831 0 9564
0.09550000 0.09549270 19057.46450855 0 49.38630879 0 8308.37919421 0 511.95907276 0 2601.47632444 0 10155
0.09650000 0.09649430 18379.27699738 0 27.53360010 0 7215.29339206 0 611.50566332 0 2875.98079325 0 9913
0.09750000 0.09749140 18191.00142333 0 467.14311508 0 7256.25486322 0 628.81844816 0 2172.13332053 0 10476
0.09850000 0.09850240 17364.85171949 0 549.21984141 0 7148.36439133 0 -6.62608092 0 3246.94079389 0 10575
0.09950000 0.09950330 16628.88535654 0 413.49556105 0 7045.21925479 0 46.34380187 0 3056.28156760 0 10882
0.10050000 0.10051200 16872.63302212 0 111.97892981 0 6850.66050523 0 391.50774212 0 1882.12961981 0 10875
0.10150000 0.10150300 16567.81113299 0 155.77991298 0 6644.48007787 0 551.31899323 0 2128.41472165 0 11118
0.10250000 0.10250800 16305.93892265 0 -67.79260783 0 5836.97119370 0 346.43694236 0 2383.07006780 0 11575
0.10350000 0.10349800 16643.93422098 0 -287.20702854 0 5951.07893368 0 -146.10360299 0 1820.22056874 0 11364
0.10450000 0.10450100 16352.40366467 0 233.02452583 0 5646.16916796 0 24.11750787 0 638.87811973 0 12093
0.10550000 0.10551000 16186.20708151 0 361.91640204 0 6166.61821687 0 -295.20819121 0 1540.98174915 0 12067
0.10650000 0.10649700 16108.76584481 0 95.30346986 0 5446.03025553 0 250.69760465 0 1016.54749731 0 12054
0.10750000 0.10749900 16138.09465361 0 30.53590347 0 5978.08999765 0 308.92792236 0 590.64486153 0 12807
0.10850000 0.10850100 15484.40273929 0 554.80329965 0 5868.76054675 0 86.07456152 0 872.82095583 0 12736
0.10950000 0.10950300 15323.91813388 0 187.45722339 0 5851.56969066 0 66.40910092 0 1066.88430116 0 12933
0.11050000 0.11050200 15107.30236257 0 -15.60512319 0 6021.01770730 0 201.54823309 0 950.04689490 0 13428
0.11150000 0.11150900 14842.13478046 0 39.53896901 0 5001.14408141 0 726.33838508 0 1174.55837698 0 13453
0.11250000 0.11250000 14886.18291651 0 -88.02212624 0 5366.94133295 0 94.63110418 0 1542.14611384 0 13668
0.11350000 0.11349100 14718.33864747 0 316.12062049 0 5174.17306872 0 67.63388076 0 693.12213605 0 13791
0.11450000 0.11448600 14581.03149020 0 49.95465057 0 4983.16233610 0 135.19482396 0 1030.13870896 0 14205
0.11550000 0.11549300 14744.70162166 0 -119.58794324 0 4313.42196124 0 321.20867451 0 488.38508154 0 14776
0.11650000 0.11649800 14955.27587805 0 43.42816677 0 4745.30240142 0 259.06565204 0 1182.86271385 0 14553
0.11750000 0.11747300 14397.25959091 0 309.65729798 0 4352.30734818 0 19.70116046 0 746.70378265 0 14568
0.11850000 0.11849100 14515.56343762 0 223.84471852 0 4806.14594895 0 -2.66274827 0 672.81715364 0 16015
0.11950000 0.11950300 13966.66434573 0 208.98149336 0 4849.62288723 0 -108.28701496 0 914.23279446 0 15270
0.12050000 0.12050700 13695.78478587 0 245.53595400 0 5264.30148675 0 94.54388667 0 769.32541142 0 15999
0.12150000 0.12150000 13503.44491997 0 201.92061010 0 5076.09182014 0 197.00940770 0 1307.10921432 0 15670
0.12250000 0.12250700 13404.14438384 0 -111.49121479 0 4882.60955869 0 180.74674800 0 954.06505155 0 16887
0.12350000 0.12352200 13220.70202173 0 258.23851373 0 4770.30328862 0 434.25750169 0 1244.84865693 0 16407
0.12450000 0.12449800 13140.84417906 0 83.67937547 0 4509.22196750 0 51.42317808 0 890.50392077 0 16306
0.12550000 0.12549900 13159.51795245 0 84.83374420 0 4407.72451685 0 -54.55487973 0 746.11391110 0 17523
0.12650000 0.12650100 12801.53073202 0 224.70151518 0 4103.39693349 0 201.90303479 0 952.95121589 0 17154
0.12750000 0.12750600 12639.50828645 0 -97.46512390 0 4300.82265649 0 -99.39599207 0 902.88573098 0 18007
0.12850000 0.12850300 12503.40943217 0 209.12429280 0 3921.02007492 0 491.03895427 0 798.96508362 0 17496
0.12950000 0.12949900 12386.64342563 0 285.31438669 0 3989.16836321 0 -339.13769388 0 80.49747433 0 18405
0.13050000 0.13049000 12297.22900481 0 109.68117692 0 3882.18961084 0 250.62620493 0 695.39813949 0 18100
0.13150000 0.13148800 12404.43843321 0 -84.65722212 0 3844.80911035 0 512.00630642 0 319.34678946 0 19059
0.13250000 0.13249300 12113.12756835 0 -124.68148954 0 3572.47958691 0 -26.27630592 0 402.85590405 0 18957
0.13350000 0.13349100 11886.40599027 0 353.40555520 0 3529.55187726 0 -266.97893813 0 190.86683472 0 19468
0.13450000 0.13450700 11755.25019365 0 241.03777152 0 3938.03517785 0 61.24723057 0 797.30861007 0 19953
0.13550000 0.13551000 11967.25244447 0 22.43533042 0 3744.35519409 0 299.10991139 0 134.53025732 0 19956
0.13650000 0.13649900 11590.04222203 0 -14.38550610 0 3597.52441240 0 -123.88840340 0 419.52938677 0 19723
0.13750000 0.13749600 11622.66640259 0 90.41983874 0 3577.82907376 0 127.49573704 0 163.46581841 0 20946
0.13850000 0.13851100 11482.17371928 0 117.00656868 0 3563.72488257 0 -0.09928790 0 515.73886418 0 20955
0.13950000 0.13949800 11296.31475120 0 106.19862802 0 3574.42385626 0 72.22664040 0 371.25878102 0 20506
0.14050000 0.14048300 11256.11121555 0 -44.34999211 0 3522.62061197 0 352.85412966 0 421.39566565 0 21447
0.14150000 0.14148400 11372.76737637 0 47.97314353 0 3400.35133456 0 132.05213774 0 -271.69571360 0 21771
0.14250000 0.14249400 11061.02520651 0 427.33831942 0 3447.61795038 0 -230.42337904 0 265.47954397 0 22470
0.14350000 0.14350900 11182.95396216 0 26.14372213 0 3477.07857404 0 -52.65905234 0 412.36085470 0 22519
0.14450000 0.14449900 10702.86223292 0 -96.84877954 0 3046.13182253 0 793.29484725 0 435.97768575 0 22218
0.14550000 0.14550500 10937.67944099 0 36.85488870 0 3206.81415025 0 180.23157154 0 264.88418014 0 23559
0.14650000 0.14650700 10709.05753186 0 309.27393640 0 3257.93635105 0 -479.98408043 0 620.87989756 0 23044
0.14750000 0.14750500 10302.37570118 0 271.10913742 0 3472.21240839 0 -2.86173380 0 951.70776228 0 23649
0.14850000 0.14849900 10321.11538200 0 -51.37528535 0 3198.12535334 0 283.92483825 0 690.64291802 0 23640
0.14950000 0.14949500 10201.87784663 0 -30.88026982 0 3360.11484520 0 197.49712273 0 732.30959874 0 24457
0.15050000 0.15050000 10140.71574650 0 188.54249916 0 3195.86253139 0 151.05984214 0 916.88447028 0 24591
0.15150000 0.15149900 9986.63514690 0 86.84809512 0 3176.14522361 0 76.98900185 0 849.86210067 0 25020
0.15250000 0.15250500 9969.89465829 0 75.55200006 0 2751.02029556 0 218.03058425 0 1010.02046428 0 25297
0.15350000 0.15350100 9977.36416764 0 54.45909425 0 3134.57960096 0 230.04441128 0 1272.13433522 0 25452
0.15450000 0.15450400 9757.84846918 0 100.63988507 0 2551.79310265 0 -53.17554695 0 695.24984776 0 26061
0.15550000 0.15549900 9591.83862375 0 113.40253042 0 2824.67185472 0 -28.81220434 0 1027.66937705 0 26128
0.15650000 0.15649500 9324.74874144 0 169.89179337 0 2531.25195193 0 226.50847737 0 1207.47914100 0 26331
0.15750000 0.15749700 9195.95462792 0 67.24063306 0 2661.48504445 0 199.59847146 0 1125.55619869 0 27345
0.15850000 0.15849900 9281.75512436 0 134.04144384 0 2338.37384197 0 45.42230608 0 718.09446336 0 26980
0.15950000 0.15949700 8961.90633993 0 224.01827477 0 2535.82153412 0 -197.86620436 0 395.67638741 0 27777
0.16050000 0.16050000 8719.59765336 0 165.65833910 0 2415.79310952 0 -145.10730226 0 578.66179130 0 28224
0.16150000 0.16150500 8648.85700594 0 -30.75240940 0 2684.23409427 0 33.18241655 0 232.50495554 0 28075
0.16250000 0.16249700 8574.61227986 0 92.27282629 0 2309.93478356 0 -41.46928795 0 -23.40351065 0 28590
0.16350000 0.16349900 8474.67463851 0 64.64475887 0 2179.36116928 0 18.20187615 0 -134.45336531 0 29163
0.16450000 0.16449100 8319.60542738 0 68.25341065 0 2269.03921984 0 220.01769343 0 207.25801392 0 28996
0.16550000 0.16550500 8303.84256573 0 227.83101991 0 2315.65774587 0 -57.67032420 0 -497.81204173 0 30777
0.16650000 0.16650700 8137.00887736 0 86.94992211 0 2577.73866309 0 -180.33262961 0 -143.96600517 0 29211
0.16750000 0.16749900 8051.40610324 0 82.88244473 0 2602.98121088 0 -64.66354249 0 -114.61742414 0 30922
0.16850000 0.16850800 8001.85469632 0 -2.21261147 0 2634.73761022 0 -191.59181651 0 -221.85870780 0 30867
0.16950000 0.16949900 8034.34706202 0 35.49499861 0 2724.84405910 0 144.49985539 0 -300.41927244 0 30852
0.17050000 0.17049200 7900.55496798 0 137.69271576 0 2770.22132843 0 165.50894891 0 206.24084250 0 31257
0.17150000 0.17149500 7926.57742042 0 -14.64924569 0 2698.27237803 0 300.27207917 0 664.76656039 0 32608
0.17250000 0.17250900 8039.09239737 0 -108.72925386 0 2323.68746843 0 590.12419279 0 572.05237398 0 32361
0.17350000 0.17350400 8080.54817430 0 41.95645374 0 2222.62940068 0 252.22555870 0 970.37494492 0 32508
0.17450000 0.17449800 7850.06987239 0 159.90461998 0 2189.39008405 0 18.36895150 0 1259.60093790 0 32791
0.17550000 0.17549800 7680.44610259 0 114.62071951 0 2237.53546567 0 -119.28147366 0 954.33197667 0 33633
0.17650000 0.17650100 7702.55804720 0 56.84164805 0 2434.57672864 0 -317.90341662 0 907.27077236 0 33984
0.17750000 0.17750300 7516.46840310 0 123.95101547 0 2244.87316016 0 -163.64706386 0 562.16186482 0 34069
0.17850000 0.17849800 7587.83517116 0 -80.56964297 0 2173.55033039 0 366.52333178 0 630.10364315 0 34536
