### header ###
fiducial parameters:
Omega_m = 0.31
Omega_nu = 0
Omega_de = 0.69
Omega_k = 0
H_0 = 100
w_de = -1
zeff = 0
beta = 0
fgrowth = 0
b_1 = 2
gamma = 0.55
Lx = 3500 Ly = 3500 Lz = 3500
nx = 700 ny = 700 nz = 700
xoffset = -983.599254 yoffset = -42.9823471 zoffset = 800.977702
bins = 400 dk = 0.001
kx_ny = 0.628318531 ky_ny = 0.628318531 kz_ny = 0.628318531
############################
A(data) = 9.00703189 (not used)
A(ran) = 8.97955456 (used)
Ngal = 499166
weighted Ngal = 0
Nran = 25229228
weighted Nran = 0
SN(data) = 6807.9523
SN(ran) = 133.295301
SN(data+ran) = 6941.2476
############################
13 columns: k_central k_mean P_0(k) sigma^{lin}_{P_0(k)} P^img_1(k) sigma^{lin}_{P_1(k)} P_2(k) sigma^{lin}_{P_2(k)} P^img_3(k) sigma^{lin}_{P_3(k)} P_4(k) sigma^{lin}_{P_4(k)} N_modes
### header ###
0.00050000 0 0 0 0 0 0 0 0 0 0 0 0
0.00150000 0.00179520 52523.83225495 0 25917.00054842 0 49930.59435995 0 47394.80577954 0 -56564.39743327 0 3
0.00250000 0.00253879 66369.99583946 0 2731.67646325 0 64241.84474755 0 44337.90907588 0 1448.16211083 0 6
0.00350000 0.00331552 41877.36481766 0 15733.31315398 0 90118.64176032 0 -19346.57845889 0 -38687.77447722 0 7
0.00450000 0.00420575 59069.31936472 0 6419.93344517 0 67160.55552814 0 67820.28895737 0 22520.02147764 0 24
0.00550000 0.00557378 64829.51938065 0 -10326.59668372 0 62680.82713802 0 67102.88652209 0 32823.00133031 0 45
0.00650000 0.00659388 80255.59403954 0 2453.94253010 0 66279.04357849 0 73714.72045025 0 59957.75159510 0 40
0.00750000 0.00754703 98931.78403379 0 -3727.52682890 0 18358.29646375 0 23722.61248385 0 21000.19601529 0 57
0.00850000 0.00846663 98351.68875577 0 -2989.67111946 0 53233.65533516 0 9932.71188010 0 56399.18946165 0 75
0.00950000 0.00948925 81366.46386469 0 13341.53232012 0 43122.46611976 0 -12628.85325104 0 15642.58058446 0 112
0.01050000 0.01054430 76824.01356512 0 10560.93057060 0 41267.61119367 0 10851.47251538 0 38242.67959622 0 105
0.01150000 0.01145670 83531.52312047 0 -1330.53930763 0 63375.16197088 0 28939.51553990 0 28964.34067394 0 144
0.01250000 0.01249090 75344.94086705 0 -4729.82513866 0 38784.98794456 0 6263.53510075 0 -10194.04584638 0 169
0.01350000 0.01339930 79404.94873884 0 3699.06580134 0 40036.24060730 0 -1076.66825996 0 -3950.64546717 0 180
0.01450000 0.01448870 77433.87703484 0 4383.83307149 0 34115.99536886 0 -1731.28946912 0 9093.15001313 0 267
0.01550000 0.01550050 69460.50533522 0 -318.56798326 0 46847.77406499 0 864.83517156 0 19432.58766220 0 238
0.01650000 0.01653350 69650.53844088 0 3777.60549530 0 40107.75017481 0 11569.50107130 0 -5268.90402266 0 315
0.01750000 0.01747870 67776.57035850 0 3294.24036343 0 33626.85235181 0 5767.61460242 0 13691.28111111 0 297
0.01850000 0.01844180 63347.59069370 0 115.81474255 0 32578.59459038 0 14180.53397389 0 7592.55853737 0 388
0.01950000 0.01947590 73394.41031378 0 -3415.02672353 0 27723.63320087 0 6857.91032313 0 17563.01340886 0 399
0.02050000 0.02045430 68709.70979929 0 445.54634693 0 31406.65054167 0 -3947.07548108 0 2810.45781780 0 462
0.02150000 0.02154770 71457.50063051 0 3173.27825016 0 30706.71357679 0 -4537.40838075 0 7823.64099076 0 571
0.02250000 0.02255340 62536.70954575 0 -1039.68759791 0 37153.77891623 0 -2426.65685181 0 -3130.51530910 0 510
0.02350000 0.02348930 69722.04800838 0 2696.43795441 0 29417.23460147 0 2034.50761065 0 -9180.88379434 0 555
0.02450000 0.02439640 65473.87440827 0 571.03959638 0 33516.45739737 0 7647.98669062 0 -239.06604075 0 592
0.02550000 0.02547300 65245.61499003 0 2248.82760629 0 35449.19294306 0 565.92957322 0 -3265.42782955 0 837
0.02650000 0.02652900 64262.71543545 0 -9.54915257 0 33259.63809042 0 6302.35458026 0 -2063.85838859 0 723
0.02750000 0.02749970 63009.81508683 0 1373.17043382 0 22340.53356166 0 10308.81266071 0 2083.54274266 0 826
0.02850000 0.02848090 62873.71623254 0 -841.74669845 0 24494.27870769 0 2326.69724132 0 4271.84535402 0 831
0.02950000 0.02946900 63761.70908002 0 1314.52380081 0 21858.09113389 0 3372.05507559 0 -3748.40850138 0 996
0.03050000 0.03053250 60174.25752068 0 470.98442011 0 18411.02241214 0 637.57974325 0 4165.69044460 0 1041
0.03150000 0.03150510 59351.62288006 0 -366.46731046 0 16068.78200062 0 1301.33132914 0 1243.14604818 0 1036
0.03250000 0.03246190 58623.12602647 0 285.73729273 0 18441.44967819 0 -1144.36178695 0 -6809.74297236 0 1059
0.03350000 0.03345080 56749.04809836 0 1127.47849889 0 15997.38227884 0 -87.80507108 0 -3544.46892683 0 1302
0.03450000 0.03451200 58843.36670672 0 1212.47712153 0 22397.76318481 0 -3084.01761337 0 -7677.04088509 0 1339
0.03550000 0.03553350 53945.01625552 0 4591.07900238 0 20148.67194878 0 545.74212573 0 -3288.27574052 0 1365
0.03650000 0.03647120 52346.54125349 0 618.60828795 0 23817.18965377 0 448.13211531 0 -3688.26796649 0 1308
0.03750000 0.03744890 50265.40413223 0 147.16251579 0 21188.03220643 0 2134.57706687 0 944.25363132 0 1579
0.03850000 0.03847530 48653.41810591 0 1572.70519476 0 24878.18951940 0 3784.74546747 0 731.81748989 0 1662
0.03950000 0.03950240 49092.36162626 0 362.27669602 0 19937.21892659 0 2144.04576843 0 5816.49595041 0 1683
0.04050000 0.04050350 48064.53516983 0 650.24715235 0 23585.96440093 0 1969.46795640 0 3724.08865768 0 1822
0.04150000 0.04152450 46257.68282592 0 2262.64619860 0 18038.75524736 0 2996.88798365 0 6721.80048427 0 1887
0.04250000 0.04250150 44964.79863310 0 455.76419634 0 20405.27156428 0 1710.30893549 0 6288.76666397 0 1920
0.04350000 0.04349210 42437.68786504 0 741.41361249 0 16645.80159832 0 679.63417938 0 5006.95492031 0 2005
0.04450000 0.04448520 43545.26231841 0 310.07141637 0 19469.82536325 0 4012.93897828 0 10540.35646615 0 2151
0.04550000 0.04548030 41734.78506556 0 -743.79177246 0 13016.27912599 0 386.28567631 0 5553.39346794 0 2274
0.04650000 0.04648670 42570.16181037 0 248.69841244 0 13969.30064315 0 -202.48631559 0 4460.73606413 0 2311
0.04750000 0.04749250 40486.60808314 0 2003.70686914 0 15903.02480037 0 -360.89923062 0 2952.75197102 0 2568
0.04850000 0.04851840 39182.29993483 0 1501.76682503 0 13580.22708231 0 2792.67379479 0 6653.66318055 0 2493
0.04950000 0.04949480 39735.26331857 0 -141.93166232 0 13294.73804093 0 4768.75446388 0 6200.23100897 0 2644
0.05050000 0.05050630 39773.92901406 0 -1897.18946881 0 11933.74949810 0 -783.21650191 0 1643.22615073 0 2829
0.05150000 0.05149060 38463.68919656 0 1850.80161880 0 9566.39835366 0 1849.12097920 0 3203.51877848 0 2784
0.05250000 0.05249300 36398.80924272 0 1117.47155327 0 8778.42003953 0 -1197.99945487 0 5008.55866791 0 3055
0.05350000 0.05348950 36427.47897715 0 1255.88815237 0 12088.63197149 0 -767.41739116 0 2979.34562124 0 3009
0.05450000 0.05448610 33863.13050804 0 1113.55006086 0 11335.74936677 0 -636.21875471 0 1541.90445324 0 3336
0.05550000 0.05550870 32772.36245071 0 936.05145098 0 11621.12856243 0 -902.03003278 0 2265.51317204 0 3349
0.05650000 0.05647670 33866.64557127 0 -943.32653340 0 11578.50842082 0 2116.21086151 0 -1380.53009745 0 3324
0.05750000 0.05747970 32996.00834847 0 180.41171853 0 11892.77704237 0 304.94491635 0 298.36515737 0 3639
0.05850000 0.05849280 33827.10110997 0 93.08601420 0 11046.19603352 0 283.18228115 0 12.37576870 0 3846
0.05950000 0.05951020 34417.74157767 0 -34.72981328 0 12950.04215332 0 -2104.88576718 0 -2153.39363970 0 3787
0.06050000 0.06049470 32594.30252917 0 1451.83095808 0 13415.78803077 0 39.64727689 0 -873.26802793 0 3930
0.06150000 0.06148310 33432.64510858 0 -313.11084760 0 12471.33448023 0 851.06271446 0 -355.15320070 0 4083
0.06250000 0.06249100 33234.26372776 0 -1058.68431773 0 12413.55562845 0 2404.11650887 0 -528.59410947 0 4303
0.06350000 0.06350600 33316.97755929 0 463.17548746 0 9898.81348911 0 1885.17234641 0 -188.46890252 0 4470
0.06450000 0.06451750 33007.76184113 0 559.52117358 0 10377.18064046 0 569.72474305 0 1010.78828591 0 4479
0.06550000 0.06550280 32046.39204881 0 1228.47065921 0 11187.12809974 0 -1370.08376893 0 1118.99840886 0 4636
0.06650000 0.06648880 29907.91545867 0 1163.32115923 0 11047.40433651 0 -1055.72617234 0 1659.56021016 0 4653
0.06750000 0.06749660 29733.26075463 0 620.18896794 0 10917.73145719 0 642.19106682 0 991.60372989 0 5220
0.06850000 0.06852730 29003.77528950 0 -626.75664389 0 11320.70050233 0 1915.56665874 0 1544.32105921 0 5029
0.06950000 0.06949320 29316.61591662 0 58.61950112 0 9623.86963740 0 1573.48509941 0 1276.07779677 0 5040
0.07050000 0.07048030 29760.94187754 0 68.45135265 0 8193.70025646 0 999.31709676 0 -155.75904229 0 5475
0.07150000 0.07148790 28642.05331440 0 333.13901879 0 8391.04908745 0 -551.65731806 0 1331.79154891 0 5509
0.07250000 0.07249820 27983.52818815 0 960.44818668 0 8622.66978490 0 -971.19000021 0 874.62572110 0 5916
0.07350000 0.07351270 27135.40933914 0 776.14353562 0 10844.06891346 0 -309.86490640 0 58.62521310 0 5721
0.07450000 0.07449140 27026.66207059 0 651.17315182 0 9462.52823533 0 -547.68529662 0 -1411.24296239 0 6028
0.07550000 0.07549160 26551.68915217 0 77.05271237 0 10261.29339972 0 863.21055328 0 -174.04835564 0 6183
0.07650000 0.07648840 26452.16892458 0 -902.18271834 0 9064.62307814 0 1244.95850265 0 -355.81886580 0 6330
0.07750000 0.07749960 25579.99386163 0 599.25676643 0 8208.43056829 0 821.23959990 0 -1764.74847720 0 6583
0.07850000 0.07848650 26258.29121852 0 261.34055703 0 8179.72788013 0 -326.68558240 0 -325.95840369 0 6549
0.07950000 0.07947320 25294.39497451 0 345.57794878 0 7360.42156501 0 1027.90444690 0 87.39622529 0 6828
0.08050000 0.08048110 24971.00915772 0 92.76295792 0 7188.28232809 0 656.67202886 0 -1191.58446448 0 7147
0.08150000 0.08149960 24918.06351787 0 667.28092906 0 7135.47948769 0 446.97104599 0 31.63875456 0 7386
0.08250000 0.08250610 24595.44662116 0 441.09649658 0 7869.84210304 0 -1485.08125928 0 -893.57081343 0 7227
0.08350000 0.08350160 23047.06127009 0 921.72976524 0 7871.51175807 0 -211.56836020 0 -1222.36323685 0 7798
0.08450000 0.08449610 22365.46854142 0 92.54590276 0 8588.85927050 0 -560.42849927 0 -2037.22080008 0 7371
0.08550000 0.08548940 21872.70061542 0 257.22244077 0 8393.15812539 0 840.21435058 0 -36.59861862 0 8256
0.08650000 0.08650700 21364.66413354 0 713.98074093 0 8071.62870136 0 237.36672737 0 -1443.97698868 0 8037
0.08750000 0.08749060 20933.29996827 0 351.81608755 0 7412.59828477 0 1242.10251378 0 850.94298262 0 8155
0.08850000 0.08849210 20859.15410334 0 -76.53973283 0 7938.25402108 0 1345.74195609 0 581.70781328 0 8718
0.08950000 0.08949900 20232.26454612 0 415.70236168 0 7029.12685595 0 659.81251816 0 1821.13228826 0 8571
0.09050000 0.09049190 20039.48529732 0 210.12718428 0 6147.21946169 0 841.77086451 0 2270.09373881 0 8932
0.09150000 0.09150830 19612.73465254 0 111.11554240 0 6643.31571318 0 -69.75071774 0 2952.32357269 0 9285
0.09250000 0.09250820 19395.13026970 0 122.73062945 0 6588.50269600 0 28.96587851 0 2674.67751612 0 9204
0.09350000 0.09350330 19241.34625356 0 283.30311145 0 5402.99270016 0 161.06349239 0 2062.25464099 0 9349
0.09450000 0.09448040 18786.25541152 0 -16.11206122 0 6304.24392674 0 341.71467460 0 2254.88010578 0 9564
0.09550000 0.09549270 19255.73604364 0 286.15360803 0 5761.60604122 0 26.76204372 0 583.68723325 0 10155
0.09650000 0.09649430 18284.91951890 0 500.79984547 0 6451.18455416 0 -444.02608208 0 2160.03930611 0 9913
0.09750000 0.09749140 18134.98010317 0 465.21422414 0 5901.13208215 0 -188.01633813 0 244.61654527 0 10476
0.09850000 0.09850240 17671.32129451 0 132.55523117 0 6661.41828879 0 -226.34590570 0 1074.59547112 0 10575
0.09950000 0.09950330 16961.71790576 0 152.17807163 0 6453.07390064 0 980.04136879 0 1248.45159673 0 10882
0.10050000 0.10051200 17161.96666391 0 52.97573757 0 6509.31491226 0 -28.67346919 0 1432.58598691 0 10875
0.10150000 0.10150300 16908.99195736 0 364.53841951 0 6246.64082812 0 -92.56929990 0 728.70995430 0 11118
0.10250000 0.10250800 16197.96057417 0 640.27645582 0 6834.04084691 0 -285.31438669 0 1560.00702886 0 11575
0.10350000 0.10349800 15953.33414279 0 32.87506820 0 6238.31452211 0 272.88863818 0 1736.16661934 0 11364
0.10450000 0.10450100 15761.32381407 0 53.75476346 0 6562.67796586 0 1141.22019919 0 1033.89872816 0 12093
0.10550000 0.10551000 15789.11478270 0 266.12214147 0 6178.52549355 0 -161.56658581 0 987.00119398 0 12067
0.10650000 0.10649700 15501.64851824 0 191.87412002 0 6300.68492522 0 -121.92765720 0 1301.30935999 0 12054
0.10750000 0.10749900 15480.66798461 0 -212.97218858 0 5914.48932241 0 708.61477722 0 1555.98667529 0 12807
0.10850000 0.10850100 15339.18668977 0 50.48191006 0 5218.52877280 0 141.82291505 0 754.23810098 0 12736
0.10950000 0.10950300 15300.74068573 0 116.24533780 0 5287.89634865 0 303.97497859 0 1062.49486596 0 12933
0.11050000 0.11050200 15258.12054411 0 -43.11455723 0 5306.41633802 0 321.63158055 0 1031.50958362 0 13428
0.11150000 0.11150900 14968.34751942 0 63.21951058 0 4516.32898596 0 328.09160769 0 927.46041676 0 13453
0.11250000 0.11250000 14898.37579208 0 378.69094283 0 4536.58453780 0 299.31092907 0 1402.59810377 0 13668
0.11350000 0.11349100 14834.00619675 0 306.18617305 0 4915.22275468 0 -347.69467592 0 244.83623672 0 13791
0.11450000 0.11448600 14336.40505881 0 57.21775981 0 4437.00938735 0 -198.68675194 0 652.44077150 0 14205
0.11550000 0.11549300 14259.07366784 0 53.32592574 0 4695.03699729 0 501.52592572 0 643.76186070 0 14776
0.11650000 0.11649800 14151.75439372 0 67.64376688 0 4174.40121065 0 248.54133305 0 897.11883038 0 14553
0.11750000 0.11747300 14371.00646245 0 -11.82346439 0 4000.08702836 0 408.02085008 0 -367.29115340 0 14568
0.11850000 0.11849100 14015.10631081 0 269.63830315 0 4103.97911583 0 -90.48321972 0 68.16696207 0 16015
0.11950000 0.11950300 13884.06035991 0 68.37083574 0 3882.33241029 0 -509.97745586 0 436.69058451 0 15270
0.12050000 0.12050700 13277.27257052 0 225.65936991 0 3890.10948767 0 337.73057013 0 -373.60947955 0 15999
0.12150000 0.12150000 13714.78809644 0 124.45630580 0 3892.39427877 0 -43.34786955 0 -8.86420955 0 15670
0.12250000 0.12250700 13383.49338738 0 -41.35065456 0 3916.76904533 0 442.49373421 0 -449.45465785 0 16887
0.12350000 0.12352200 13334.61203940 0 20.59596374 0 3857.56219912 0 12.48901964 0 -562.55950635 0 16407
0.12450000 0.12449800 13049.01315228 0 448.60445194 0 4068.46599268 0 -407.10253981 0 64.47944105 0 16306
0.12550000 0.12549900 13091.08406527 0 30.68540351 0 4133.76927667 0 73.87948904 0 24.31588925 0 17523
0.12650000 0.12650100 12946.74678155 0 190.98327119 0 4232.12513957 0 119.88013287 0 -52.65971142 0 17154
0.12750000 0.12750600 12771.10346597 0 -9.91905806 0 4276.83234997 0 330.62794550 0 493.38196361 0 18007
0.12850000 0.12850300 12909.94846340 0 -152.62843910 0 4044.93703821 0 561.97293018 0 1276.18764250 0 17496
0.12950000 0.12949900 13065.92939406 0 -2.89497312 0 3988.95965633 0 271.40462243 0 830.29528154 0 18405
0.13050000 0.13049000 13015.18066873 0 93.79254191 0 4151.04800934 0 -339.84839572 0 837.39021697 0 18100
0.13150000 0.13148800 12940.92495808 0 269.80197329 0 3947.95424689 0 -257.28175746 0 767.65575639 0 19059
0.13250000 0.13249300 12318.53907562 0 357.96854665 0 4529.14798217 0 -302.21964389 0 769.74502209 0 18957
0.13350000 0.13349100 12215.61363053 0 137.17644085 0 4735.04281063 0 21.93300592 0 822.43911522 0 19468
0.13450000 0.13450700 12018.98978133 0 58.26415019 0 4584.38939768 0 455.45223448 0 642.09659950 0 19953
0.13550000 0.13551000 11906.94714100 0 -144.62068569 0 3501.21168000 0 917.69513174 0 939.48742528 0 19956
0.13650000 0.13649900 12193.75433110 0 25.78738259 0 3771.73973354 0 477.93655610 0 892.34603359 0 19723
0.13750000 0.13749600 11754.26158212 0 402.59007739 0 3265.60358271 0 -324.77975906 0 1094.67307288 0 20946
0.13850000 0.13851100 11558.40665299 0 206.80215416 0 3585.00199966 0 209.64496154 0 1359.61547126 0 20955
0.13950000 0.13949800 11228.86947555 0 80.54888213 0 3335.19085001 0 -198.39236539 0 1301.88055777 0 20506
0.14050000 0.14048300 11039.71513570 0 76.36068429 0 3407.93068964 0 164.65874299 0 714.70352580 0 21447
0.14150000 0.14148400 11050.04063393 0 33.35026081 0 3570.09593466 0 16.76037069 0 901.20399292 0 21771
0.14250000 0.14249400 10940.88693619 0 189.18619511 0 3488.66729812 0 85.01059582 0 882.98498084 0 22470
0.14350000 0.14350900 10968.54608995 0 -76.66836217 0 3249.15967755 0 -145.22703410 0 1096.98312849 0 22519
0.14450000 0.14449900 10970.39149814 0 -22.55605088 0 3316.28640060 0 385.18721905 0 525.22953489 0 22218
0.14550000 0.14550500 10843.17916308 0 69.53618904 0 3087.82926005 0 164.59173710 0 615.87422783 0 23559
0.14650000 0.14650700 11046.30587925 0 181.79138085 0 3498.84999690 0 -260.12017101 0 666.88877981 0 23044
0.14750000 0.14750500 10489.72857113 0 220.27912626 0 2909.75835393 0 128.54366526 0 583.55981221 0 23649
0.14850000 0.14849900 10486.44418392 0 68.08183163 0 3279.64186647 0 145.64005403 0 512.33584360 0 23640
0.14950000 0.14949500 10051.36723312 0 79.50337051 0 2497.57325239 0 646.46736093 0 918.69143247 0 24457
0.15050000 0.15050000 10186.36763015 0 -75.44292325 0 2641.91053611 0 434.94184056 0 1064.33697878 0 24591
0.15150000 0.15149900 9986.89877664 0 295.85957636 0 2136.74102767 0 169.99834373 0 1002.29721130 0 25020
0.15250000 0.15250500 9803.92875116 0 224.89374520 0 2250.54119961 0 -101.28676655 0 1080.08446203 0 25297
0.15350000 0.15350100 9438.32922193 0 91.27476802 0 2092.75879905 0 -214.71214488 0 1268.28973481 0 25452
0.15450000 0.15450400 9479.88386001 0 106.31078051 0 2270.06078509 0 207.58315727 0 860.33698909 0 26061
0.15550000 0.15549900 9256.07319366 0 102.92863061 0 2332.77170995 0 -14.46657224 0 1052.46924657 0 26128
0.15650000 0.15649500 9181.91634416 0 235.32579378 0 2294.10601447 0 -197.80578922 0 724.81592332 0 26331
0.15750000 0.15749700 8872.26124310 0 148.37631106 0 2512.18273393 0 -327.68188313 0 687.40027220 0 27345
0.15850000 0.15849900 8726.17741234 0 195.90765507 0 2787.33529252 0 -125.09121410 0 539.69402007 0 26980
0.15950000 0.15949700 8769.54450489 0 20.89507366 0 2749.30670224 0 406.33032436 0 602.46206471 0 27777
0.16050000 0.16050000 8816.67930583 0 -235.94422522 0 2358.65136296 0 650.98092180 0 1118.33933451 0 28224
0.16150000 0.16150500 8909.76257389 0 -67.66233080 0 2397.08638242 0 -216.97276991 0 319.25232213 0 28075
0.16250000 0.16249700 8783.00060630 0 358.46175396 0 2305.21141735 0 -305.15911551 0 456.13108107 0 28590
0.16350000 0.16349900 8524.21506086 0 142.23154116 0 2465.37747016 0 -295.37405826 0 717.39145071 0 29163
0.16450000 0.16449100 8466.77673083 0 -61.43418800 0 2735.44417164 0 68.81142694 0 628.54493231 0 28996
0.16550000 0.16550500 8586.38774167 0 -39.15780434 0 2467.02515604 0 375.07042770 0 -53.53726892 0 30777
0.16650000 0.16650700 8700.13299075 0 -19.57450834 0 2087.77180310 0 -10.53752245 0 187.00026517 0 29211
0.16750000 0.16749900 8671.61704033 0 62.46618859 0 2254.02330912 0 -29.71953004 0 -378.61514928 0 30922
0.16850000 0.16850800 8395.60768507 0 140.91449090 0 1963.85483981 0 4.23333344 0 229.92138407 0 30867
0.16950000 0.16949900 8392.19148300 0 173.67158480 0 2349.22659968 0 -86.66377399 0 -52.03479908 0 30852
0.17050000 0.17049200 8075.16573373 0 130.13642829 0 2029.56455299 0 264.15150915 0 519.72626403 0 31257
0.17150000 0.17149500 8241.02179514 0 -28.97554494 0 2040.49420271 0 371.78604050 0 -15.97607221 0 32608
0.17250000 0.17250900 8087.18285613 0 4.58525718 0 2016.97623281 0 -25.78924997 0 397.20434146 0 32361
0.17350000 0.17350400 8026.33930861 0 156.12153318 0 1667.13956524 0 56.01483927 0 380.92081106 0 32508
0.17450000 0.17449800 7925.21533342 0 50.27847577 0 1890.57675612 0 -1.39890729 0 600.60677040 0 32791
0.17550000 0.17549800 7847.06009951 0 80.24087471 0 1940.63345337 0 -127.32327925 0 114.61193186 0 33633
0.17650000 0.17650100 7724.02190202 0 122.67350967 0 2177.62560682 0 -37.59579812 0 193.58551643 0 33984
0.17750000 0.17750300 7804.08845157 0 -4.71232671 0 1879.68006012 0 102.22221275 0 424.07040908 0 34069
0.17850000 0.17849800 7742.06955477 0 1.03991827 0 2098.27305449 0 67.81479667 0 385.57936829 0 34536
