### header ###
fiducial parameters:
Omega_m = 0.31
Omega_nu = 0
Omega_de = 0.69
Omega_k = 0
H_0 = 100
w_de = -1
zeff = 0
beta = 0
fgrowth = 0
b_1 = 2
gamma = 0.55
Lx = 3500 Ly = 3500 Lz = 3500
nx = 700 ny = 700 nz = 700
xoffset = -983.599254 yoffset = -42.9823471 zoffset = 800.977702
bins = 400 dk = 0.001
kx_ny = 0.628318531 ky_ny = 0.628318531 kz_ny = 0.628318531
############################
A(data) = 9.08404705 (not used)
A(ran) = 9.09574775 (used)
Ngal = 505156
weighted Ngal = 0
Nran = 25229228
weighted Nran = 0
SN(data) = 6711.62334
SN(ran) = 135.020109
SN(data+ran) = 6846.64345
############################
13 columns: k_central k_mean P_0(k) sigma^{lin}_{P_0(k)} P^img_1(k) sigma^{lin}_{P_1(k)} P_2(k) sigma^{lin}_{P_2(k)} P^img_3(k) sigma^{lin}_{P_3(k)} P_4(k) sigma^{lin}_{P_4(k)} N_modes
### header ###
0.00050000 0 0 0 0 0 0 0 0 0 0 0 0
0.00150000 0.00179520 34768.03959729 0 -48427.90483082 0 -59050.97512851 0 39016.32304312 0 61700.56388086 0 3
0.00250000 0.00253879 59493.32386636 0 -33632.67417528 0 -4555.23634205 0 -87054.49523876 0 -39048.94722369 0 6
0.00350000 0.00331552 64402.21950724 0 3815.43636327 0 -30818.20698849 0 -54821.80483897 0 32407.45494956 0 7
0.00450000 0.00420575 61566.33240391 0 215.55576005 0 -29132.40463443 0 -17824.66592775 0 29382.08396921 0 24
0.00550000 0.00557378 71779.01906996 0 -5276.03301026 0 -10387.83567586 0 -37552.84843811 0 -28561.64624311 0 45
0.00650000 0.00659388 102633.47514797 0 -1724.57789527 0 -8011.16961387 0 -30406.94459105 0 -43885.89391416 0 40
0.00750000 0.00754703 84784.42346910 0 -9701.89305645 0 -554.41334733 0 -22586.25845031 0 -14227.43809881 0 57
0.00850000 0.00846663 99136.53646670 0 -1722.89725567 0 21293.48410321 0 -12244.28336497 0 -20559.93434623 0 75
0.00950000 0.00948925 98466.47753924 0 5964.32632821 0 31300.75926199 0 7613.70383959 0 -9873.71374076 0 112
0.01050000 0.01054430 100147.66637282 0 -1893.94901990 0 20438.22528202 0 -10309.74634938 0 -2910.19773684 0 105
0.01150000 0.01145670 105787.69516471 0 -6741.42991548 0 46206.49471769 0 24986.60725078 0 -9543.74816499 0 144
0.01250000 0.01249090 114517.46453228 0 -1956.80274421 0 34537.14388163 0 -9212.27770278 0 5956.54925082 0 169
0.01350000 0.01339930 85780.83404795 0 15443.64997501 0 31791.87950210 0 -283.52390135 0 -20232.37439185 0 180
0.01450000 0.01448870 96180.47813934 0 10404.40041131 0 48713.28402648 0 1798.97640536 0 13072.19060043 0 267
0.01550000 0.01550050 84749.93191119 0 -3852.20172770 0 45930.89179163 0 17551.15007047 0 28196.51905050 0 238
0.01650000 0.01653350 91017.17979748 0 -2197.78229750 0 38111.08441670 0 17338.92812820 0 -10141.28694427 0 315
0.01750000 0.01747870 86876.65500867 0 2946.38091892 0 31337.99696304 0 -16692.48603179 0 -10056.05764561 0 297
0.01850000 0.01844180 88099.89701132 0 5393.51301402 0 26302.77873748 0 8952.97588242 0 -19796.28686037 0 388
0.01950000 0.01947590 84540.45611207 0 -807.45615822 0 37010.54008977 0 -7371.43909131 0 2718.85746704 0 399
0.02050000 0.02045430 82286.20212692 0 -1088.85893861 0 35658.11951356 0 -6268.36831269 0 -17360.12835328 0 462
0.02150000 0.02154770 85839.60151126 0 4758.67062625 0 31666.10614604 0 8721.43207698 0 -11104.08473103 0 571
0.02250000 0.02255340 82113.30495449 0 1832.66608947 0 42373.09857826 0 -4601.62419206 0 -22444.99684691 0 510
0.02350000 0.02348930 75190.71746800 0 7261.79108780 0 43110.27324419 0 -4235.61823365 0 -13458.73770956 0 555
0.02450000 0.02439640 70197.13077253 0 1998.03882968 0 48777.54377608 0 4025.69206705 0 727.14684962 0 592
0.02550000 0.02547300 75077.79606187 0 -798.36312904 0 51309.92713899 0 7421.69351087 0 -3972.55968947 0 837
0.02650000 0.02652900 62701.14859729 0 5178.73166634 0 48511.16789099 0 -6717.35173238 0 -3165.74283337 0 723
0.02750000 0.02749970 63994.03279012 0 7902.57612933 0 55253.27884996 0 -436.85425465 0 42.51150419 0 826
0.02850000 0.02848090 56181.69492454 0 2843.71910358 0 56173.34664938 0 2385.01433715 0 1044.38020732 0 831
0.02950000 0.02946900 54042.11987714 0 -1447.44811362 0 47939.64057958 0 11551.48637227 0 -1274.66078691 0 996
0.03050000 0.03053250 59810.99770541 0 -379.31706346 0 43807.79360311 0 20298.17198161 0 -714.75405484 0 1041
0.03150000 0.03150510 60262.90302141 0 -3011.73912578 0 29177.44138202 0 4171.47931435 0 6399.00783440 0 1036
0.03250000 0.03246190 58784.92878059 0 -2172.69353373 0 23867.93837910 0 7626.46791293 0 -168.45281436 0 1059
0.03350000 0.03345080 58446.71379081 0 2404.10552430 0 20416.91521122 0 -777.01021840 0 -822.04476907 0 1302
0.03450000 0.03451200 55451.00115643 0 3309.32218158 0 22079.97950003 0 -2433.65402454 0 412.31362104 0 1339
0.03550000 0.03553350 54363.63831660 0 1978.43136763 0 20229.73809443 0 3106.56894087 0 -1059.95303586 0 1365
0.03650000 0.03647120 52033.15139774 0 -1225.10938000 0 21285.13582805 0 979.48005713 0 -904.79814507 0 1308
0.03750000 0.03744890 51019.60488566 0 364.38793087 0 18491.86886634 0 2538.49078526 0 -5918.69641371 0 1579
0.03850000 0.03847530 49054.57469659 0 3010.12439361 0 18438.26415214 0 -2556.80206775 0 -409.64986219 0 1662
0.03950000 0.03950240 45011.92244947 0 2723.78954013 0 19567.03883060 0 362.69630669 0 4319.03507783 0 1683
0.04050000 0.04050350 47103.49491469 0 -1593.53194438 0 19805.18436416 0 5149.30399639 0 2412.76136749 0 1822
0.04150000 0.04152450 44685.46095236 0 114.53394139 0 17549.39253886 0 8277.57845269 0 2481.55774557 0 1887
0.04250000 0.04250150 45351.12605079 0 1223.24200266 0 12583.70665774 0 -1879.37249209 0 2499.34176858 0 1920
0.04350000 0.04349210 44451.81909355 0 1760.49744761 0 13990.72055968 0 749.69268485 0 7879.13505144 0 2005
0.04450000 0.04448520 42611.13426610 0 -233.38481981 0 15794.49722326 0 682.94492956 0 5065.48072302 0 2151
0.04550000 0.04548030 40695.31496218 0 953.37192502 0 12637.20152621 0 2399.60184954 0 7288.24193858 0 2274
0.04650000 0.04648670 40430.80645442 0 -215.03289440 0 14638.81034198 0 312.27821700 0 4884.01558398 0 2311
0.04750000 0.04749250 40622.26755452 0 1027.50790383 0 14227.98732744 0 1067.28304115 0 1069.28443027 0 2568
0.04850000 0.04851840 38832.55114384 0 2233.81169557 0 13457.74909803 0 -2139.53110910 0 2530.04364894 0 2493
0.04950000 0.04949480 37257.80281858 0 1113.87959804 0 15700.02989906 0 -2209.19526841 0 3877.76282809 0 2644
0.05050000 0.05050630 34745.41137777 0 131.91153521 0 16100.08803247 0 294.55241223 0 -496.81134717 0 2829
0.05150000 0.05149060 35640.65404315 0 387.36436134 0 16946.00996696 0 1930.15417113 0 938.08030153 0 2784
0.05250000 0.05249300 35684.81202493 0 -247.13311085 0 13332.85450778 0 3735.01830740 0 3272.09546510 0 3055
0.05350000 0.05348950 36489.98119514 0 -507.19286671 0 11672.75605356 0 4660.32574793 0 2350.34702608 0 3009
0.05450000 0.05448610 35875.83374212 0 -84.14995456 0 10385.15544015 0 -1426.81908631 0 3488.63434440 0 3336
0.05550000 0.05550870 34055.79991112 0 1056.31714234 0 9966.54436365 0 1564.33495045 0 5072.21426602 0 3349
0.05650000 0.05647670 34939.94815819 0 711.62894394 0 9067.30331385 0 1552.71327266 0 5851.98710442 0 3324
0.05750000 0.05747970 35130.42064675 0 -378.25375684 0 10363.62567789 0 -910.34096039 0 3862.45033391 0 3639
0.05850000 0.05849280 33239.86585977 0 1267.96019764 0 9858.41223116 0 -1038.01025368 0 3259.60600608 0 3846
0.05950000 0.05951020 31666.65537467 0 705.83458190 0 10386.79214147 0 -414.86863262 0 1100.31365090 0 3787
0.06050000 0.06049470 31760.35377879 0 -419.14602519 0 9446.38091363 0 -1222.79163518 0 2708.78461399 0 3930
0.06150000 0.06148310 31978.94677316 0 885.15223701 0 11297.41320846 0 3089.86140598 0 -1532.21606023 0 4083
0.06250000 0.06249100 31681.26485621 0 100.78103683 0 9739.63604784 0 -1496.23060045 0 931.96738689 0 4303
0.06350000 0.06350600 31402.25671264 0 468.40634093 0 10448.37165536 0 972.84976912 0 1098.75384159 0 4470
0.06450000 0.06451750 30951.34000818 0 -54.64506307 0 9052.71580146 0 754.79501881 0 933.29322480 0 4479
0.06550000 0.06550280 31696.09402919 0 -899.49479343 0 8413.92995214 0 1259.45813846 0 -1135.37640658 0 4636
0.06650000 0.06648880 30404.19844790 0 1454.07181088 0 9582.96308911 0 -846.59748570 0 -215.44591432 0 4653
0.06750000 0.06749660 29080.00822322 0 980.65760331 0 9774.22646690 0 -169.15802392 0 2107.55501832 0 5220
0.06850000 0.06852730 29237.74668549 0 -18.19671340 0 10312.16295535 0 552.83156887 0 -132.84961771 0 5029
0.06950000 0.06949320 28650.73112674 0 1111.37511549 0 10680.28893627 0 343.38103426 0 1533.96260727 0 5040
0.07050000 0.07048030 28471.35305649 0 -274.81752913 0 8676.92258888 0 1354.43075300 0 -5.45993672 0 5475
0.07150000 0.07148790 28816.70801844 0 -344.10931143 0 8902.56767885 0 -5.37415820 0 -769.05079711 0 5509
0.07250000 0.07249820 27677.38815031 0 803.76534184 0 9148.08386061 0 -1165.01278340 0 -440.31329655 0 5916
0.07350000 0.07351270 26508.73947338 0 776.19736003 0 8518.14059222 0 83.38443969 0 489.74716854 0 5721
0.07450000 0.07449140 26349.46317095 0 156.15778227 0 9276.40563751 0 508.73290379 0 -1142.98871538 0 6028
0.07550000 0.07549160 26125.70742747 0 841.03050432 0 9559.97237870 0 635.80463632 0 -521.65295806 0 6183
0.07650000 0.07648840 25783.86752874 0 -57.37505889 0 8291.27621470 0 843.36033216 0 442.96277546 0 6330
0.07750000 0.07749960 25000.11827506 0 81.81452458 0 8485.61527281 0 -28.92402729 0 -1251.82386052 0 6583
0.07850000 0.07848650 24011.72643419 0 1066.98096540 0 8737.28281522 0 -928.25130599 0 -301.86264528 0 6549
0.07950000 0.07947320 24066.10006846 0 915.69374261 0 9354.98926976 0 -231.91728091 0 -2343.96498942 0 6828
0.08050000 0.08048110 22740.81138653 0 -207.93136822 0 9636.04054382 0 241.51120660 0 -502.86933894 0 7147
0.08150000 0.08149960 22645.79483370 0 -271.66715371 0 7834.91116223 0 2380.46672410 0 57.62957144 0 7386
0.08250000 0.08250610 23533.34829827 0 -193.80410942 0 7593.61305634 0 1512.37792214 0 375.31648213 0 7227
0.08350000 0.08350160 22808.47635363 0 540.28169470 0 6256.31823657 0 576.63623611 0 -119.73623497 0 7798
0.08450000 0.08449610 22272.53905738 0 521.50356787 0 6798.49477004 0 -250.33621221 0 1263.98378236 0 7371
0.08550000 0.08548940 21366.97089378 0 453.22016933 0 6792.67294657 0 -257.58712858 0 3014.27656205 0 8256
0.08650000 0.08650700 20905.94838254 0 613.84098345 0 7731.00809018 0 -181.19711547 0 409.00177241 0 8037
0.08750000 0.08749060 20387.47655670 0 256.60400933 0 7959.91559821 0 -102.18936888 0 1692.81051137 0 8155
0.08850000 0.08849210 20565.20694106 0 452.40840942 0 7996.07681115 0 -311.70811768 0 271.29148133 0 8718
0.08950000 0.08949900 19669.30520133 0 -47.51849207 0 7990.55157114 0 683.23821765 0 2357.93736574 0 8571
0.09050000 0.09049190 19702.14907335 0 -62.93402154 0 8321.87923391 0 369.05966959 0 1740.85703184 0 8932
0.09150000 0.09150830 19950.94964232 0 292.91241554 0 8004.00767255 0 147.35035198 0 1750.45754827 0 9285
0.09250000 0.09250820 19500.80185793 0 439.16540872 0 8096.71746514 0 508.10458624 0 1387.21970215 0 9204
0.09350000 0.09350330 18845.35241200 0 164.85536684 0 7665.37526901 0 -128.19215894 0 2366.64813180 0 9349
0.09450000 0.09448040 19456.20449325 0 -129.86401089 0 7551.92660339 0 1307.01035316 0 1954.59484512 0 9564
0.09550000 0.09549270 18850.40531539 0 172.40835895 0 7105.19502108 0 6.23883080 0 1659.81285533 0 10155
0.09650000 0.09649430 18274.81371213 0 666.17697951 0 7217.06190825 0 -539.08327783 0 1513.38850282 0 9913
0.09750000 0.09749140 17498.86350498 0 641.44521434 0 7423.31922761 0 -980.18526669 0 1015.62699013 0 10476
0.09850000 0.09850240 17649.90137798 0 93.15620562 0 7254.06893328 0 927.08913821 0 647.71630683 0 10575
0.09950000 0.09950330 17048.49602915 0 -290.21680143 0 6993.67964023 0 987.91730733 0 -207.89621759 0 10882
0.10050000 0.10051200 16974.89939285 0 193.70744519 0 6215.77417917 0 -174.07142324 0 -189.44982485 0 10875
0.10150000 0.10150300 17022.90197503 0 581.69792716 0 6980.12467767 0 -211.82210383 0 -85.32761058 0 11118
0.10250000 0.10250800 16729.50404139 0 130.22869870 0 6218.94872065 0 -63.04145066 0 -107.58795677 0 11575
0.10350000 0.10349800 16065.04724594 0 -222.77372269 0 6242.93902716 0 301.28595522 0 -87.68511955 0 11364
0.10450000 0.10450100 16264.85662119 0 170.62666128 0 6040.80092252 0 928.15134638 0 48.67286080 0 12093
0.10550000 0.10551000 16377.00910725 0 60.89528486 0 5515.52964625 0 1043.09281541 0 646.64311409 0 12067
0.10650000 0.10649700 16176.32096619 0 -171.61197744 0 5314.02864682 0 41.47071594 0 654.03243607 0 12054
0.10750000 0.10749900 15801.08796681 0 529.46738299 0 5117.11919873 0 567.11480860 0 1151.49077456 0 12807
0.10850000 0.10850100 15626.98249140 0 507.45320108 0 4901.20644007 0 -590.81072857 0 1329.05639033 0 12736
0.10950000 0.10950300 15125.20721588 0 92.28699639 0 5215.62884564 0 427.55471550 0 1685.42887859 0 12933
0.11050000 0.11050200 14974.49888006 0 -144.66462398 0 5040.97414159 0 347.14544729 0 1378.81650413 0 13428
0.11150000 0.11150900 14794.35188973 0 81.67820603 0 5023.97002324 0 51.11923496 0 1367.07399604 0 13453
0.11250000 0.11250000 14625.84854633 0 442.68266886 0 5381.07847786 0 -367.59981989 0 969.55879118 0 13668
0.11350000 0.11349100 14398.68758535 0 459.73841470 0 5402.71808584 0 -224.99040944 0 771.89909678 0 13791
0.11450000 0.11448600 14407.91462632 0 -111.43519347 0 6081.19119590 0 -190.63835561 0 799.22541799 0 14205
0.11550000 0.11549300 14222.60488687 0 -15.08884828 0 5608.03073196 0 95.62872306 0 -429.05850348 0 14776
0.11650000 0.11649800 14240.18020300 0 161.63578862 0 6152.26138050 0 -244.88237193 0 447.81685808 0 14553
0.11750000 0.11747300 13846.16358451 0 79.75975043 0 5905.00963627 0 -196.61725846 0 -173.03557804 0 14568
0.11850000 0.11849100 14252.15338712 0 264.00870971 0 6322.02794975 0 333.57620478 0 -720.46822949 0 16015
0.11950000 0.11950300 13575.06433320 0 50.70599534 0 5544.67171731 0 385.83970266 0 601.64591097 0 15270
0.12050000 0.12050700 13658.65693055 0 141.04081349 0 5769.19638087 0 497.06069696 0 -37.46486201 0 15999
0.12150000 0.12150000 13454.12418908 0 6.25531864 0 5259.36941366 0 606.64059612 0 407.35188961 0 15670
0.12250000 0.12250700 13583.41260836 0 -67.32839980 0 4502.69713139 0 517.49749425 0 655.59554074 0 16887
0.12350000 0.12352200 13249.48160189 0 98.68759699 0 4701.52887969 0 334.98003315 0 998.22523024 0 16407
0.12450000 0.12449800 13407.54960134 0 96.43334300 0 4345.01359199 0 -125.92164779 0 568.24841649 0 16306
0.12550000 0.12549900 13078.45180680 0 33.44593644 0 3826.01450666 0 134.97842788 0 792.06127975 0 17523
0.12650000 0.12650100 13114.15166769 0 9.94646456 0 3899.54523552 0 295.12690537 0 717.95166392 0 17154
0.12750000 0.12750600 13187.19907535 0 15.81976174 0 3591.83440380 0 14.68692277 0 350.48256044 0 18007
0.12850000 0.12850300 13124.69685737 0 322.64545660 0 4069.89398711 0 -406.88394681 0 -79.36331721 0 17496
0.12950000 0.12949900 12832.39738098 0 307.48454953 0 4153.96990565 0 -398.46756730 0 -424.42081694 0 18405
0.13050000 0.13049000 12270.97587634 0 164.62798619 0 4573.87716172 0 -105.66236119 0 688.20104754 0 18100
0.13150000 0.13148800 12343.69374683 0 6.33675826 0 4108.92217349 0 514.39545095 0 -513.77921643 0 19059
0.13250000 0.13249300 12221.10591683 0 212.41527075 0 4328.89922401 0 400.11195782 0 -720.20350130 0 18957
0.13350000 0.13349100 11970.32812479 0 227.30595734 0 4072.18976278 0 -162.34868738 0 422.36560341 0 19468
0.13450000 0.13450700 11663.74870405 0 96.47497453 0 3969.95634577 0 -48.46810837 0 -100.23323619 0 19953
0.13550000 0.13551000 11530.94522154 0 -29.33770630 0 3855.69482178 0 715.90743496 0 183.26880586 0 19956
0.13650000 0.13649900 11417.80412395 0 -60.52334724 0 3230.73854933 0 519.95803851 0 111.58678057 0 19723
0.13750000 0.13749600 11478.54881033 0 101.52897637 0 3310.36571598 0 -4.57222948 0 261.77225073 0 20946
0.13850000 0.13851100 11199.65051249 0 371.37961132 0 3044.92351955 0 -117.67992298 0 295.59704508 0 20955
0.13950000 0.13949800 10798.58179840 0 147.53269588 0 3141.24723651 0 -84.10030429 0 417.27645093 0 20506
0.14050000 0.14048300 10973.09370300 0 15.95333414 0 3130.31758680 0 567.54869922 0 327.96638356 0 21447
0.14150000 0.14148400 10934.19733149 0 89.12278041 0 2883.08781171 0 105.38214475 0 378.86669599 0 21771
0.14250000 0.14249400 10677.04848736 0 70.99966365 0 2812.20436484 0 -115.16665277 0 196.10757429 0 22470
0.14350000 0.14350900 10460.26794746 0 157.78240056 0 3209.38454024 0 -151.13343877 0 -49.25240685 0 22519
0.14450000 0.14449900 10452.60071580 0 143.31681693 0 2895.15985697 0 287.27293598 0 752.12027539 0 22218
0.14550000 0.14550500 10473.48238828 0 -197.06982285 0 2669.40492128 0 367.20327682 0 581.68254876 0 23559
0.14650000 0.14650700 10440.94608429 0 -35.41360293 0 2578.50758317 0 284.36422116 0 400.26134801 0 23044
0.14750000 0.14750500 10545.69496843 0 288.51748805 0 2704.87410615 0 -428.80805523 0 173.67817554 0 23649
0.14850000 0.14849900 10225.17612508 0 219.30149930 0 2731.95107756 0 -185.88752797 0 446.81286815 0 23640
0.14950000 0.14949500 10086.24325107 0 112.93129225 0 2852.38593134 0 -159.49928925 0 -158.77760283 0 24457
0.15050000 0.15050000 10080.83884136 0 129.60697189 0 3067.14530988 0 62.56955342 0 221.14031675 0 24591
0.15150000 0.15149900 9791.42830756 0 -55.79668566 0 2921.43495459 0 219.62334728 0 248.00308900 0 25020
0.15250000 0.15250500 9675.18956050 0 35.42524657 0 2852.10033246 0 685.20006231 0 399.52428319 0 25297
0.15350000 0.15350100 9770.59057337 0 92.39519443 0 2596.06093016 0 -59.18268015 0 404.55741434 0 25452
0.15450000 0.15450400 9729.85977824 0 245.93908781 0 2487.08298558 0 413.85695349 0 1241.23473255 0 26061
0.15550000 0.15549900 9542.86939919 0 -33.32060247 0 2469.13419398 0 -20.87442266 0 989.58696237 0 26128
0.15650000 0.15649500 9248.79042204 0 144.81291571 0 2494.37674177 0 -86.35225151 0 950.95971288 0 26331
0.15750000 0.15749700 9060.96521547 0 276.90459792 0 2778.58058817 0 -259.33697099 0 979.98754439 0 27345
0.15850000 0.15849900 8888.30970364 0 142.62588731 0 2869.29118855 0 -302.79084166 0 1323.89364122 0 26980
0.15950000 0.15949700 8787.52625020 0 71.39060458 0 3059.32429420 0 283.68976840 0 708.88170234 0 27777
0.16050000 0.16050000 8868.20793581 0 -40.80362285 0 2776.87797942 0 236.48466619 0 661.00324583 0 28224
0.16150000 0.16150500 8898.59126357 0 -52.60665593 0 2636.45120354 0 140.93865696 0 870.57131536 0 28075
0.16250000 0.16249700 8941.47503493 0 82.85564237 0 2440.40953668 0 145.24021559 0 586.60034190 0 28590
0.16350000 0.16349900 8897.49280632 0 63.05155646 0 2557.19751236 0 -56.54176921 0 1072.40954117 0 29163
0.16450000 0.16449100 8696.04672975 0 40.52988730 0 2254.50663031 0 0.74807795 0 732.21403296 0 28996
0.16550000 0.16550500 8716.70871077 0 90.95830249 0 2614.32827436 0 58.73868373 0 442.44759900 0 30777
0.16650000 0.16650700 8611.63028946 0 191.74560052 0 2400.55750735 0 -187.57256140 0 732.01521219 0 29211
0.16750000 0.16749900 8507.95789344 0 15.61281239 0 2632.29903510 0 53.80056913 0 702.20967295 0 30922
0.16850000 0.16850800 8162.65785434 0 74.35709825 0 2579.18862667 0 73.93518082 0 953.58832110 0 30867
0.16950000 0.16949900 8187.38412722 0 245.75894082 0 2583.79116258 0 -115.83781016 0 361.03104549 0 30852
0.17050000 0.17049200 8142.01784246 0 175.04355791 0 2848.28868577 0 31.42268802 0 450.89583378 0 31257
0.17150000 0.17149500 8019.05653699 0 62.36150561 0 2709.31187347 0 -128.34923833 0 192.65292622 0 32608
0.17250000 0.17250900 7912.61602867 0 -139.62490208 0 2659.26616079 0 105.16069576 0 136.26581979 0 32361
0.17350000 0.17350400 7858.45110127 0 56.09557588 0 2486.37997293 0 -88.89188469 0 -83.92740712 0 32508
0.17450000 0.17449800 7928.32396746 0 147.18009110 0 2545.36712769 0 86.41837864 0 -296.24952869 0 32791
0.17550000 0.17549800 7801.85858333 0 -88.10703698 0 2293.75450815 0 384.48860024 0 157.31885160 0 33633
0.17650000 0.17650100 7772.14531450 0 -26.46908517 0 2254.53958403 0 186.37524299 0 -278.12059010 0 33984
0.17750000 0.17750300 7971.51530685 0 49.86040294 0 1821.89022377 0 159.74754059 0 -116.42548479 0 34069
0.17850000 0.17849800 8006.97350715 0 44.56671772 0 1835.96146125 0 87.80485139 0 -134.48631903 0 34536
