### header ###
fiducial parameters:
Omega_m = 0.31
Omega_nu = 0
Omega_de = 0.69
Omega_k = 0
H_0 = 100
w_de = -1
zeff = 0
beta = 0
fgrowth = 0
b_1 = 2
gamma = 0.55
Lx = 3500 Ly = 3500 Lz = 3500
nx = 700 ny = 700 nz = 700
xoffset = -983.599254 yoffset = -42.9823471 zoffset = 800.977702
bins = 400 dk = 0.001
kx_ny = 0.628318531 ky_ny = 0.628318531 kz_ny = 0.628318531
############################
A(data) = 9.03417083 (not used)
A(ran) = 9.01288725 (used)
Ngal = 500345
weighted Ngal = 0
Nran = 25229228
weighted Nran = 0
SN(data) = 6771.94112
SN(ran) = 133.790102
SN(data+ran) = 6905.73122
############################
13 columns: k_central k_mean P_0(k) sigma^{lin}_{P_0(k)} P^img_1(k) sigma^{lin}_{P_1(k)} P_2(k) sigma^{lin}_{P_2(k)} P^img_3(k) sigma^{lin}_{P_3(k)} P_4(k) sigma^{lin}_{P_4(k)} N_modes
### header ###
0.00050000 0 0 0 0 0 0 0 0 0 0 0 0
0.00150000 0.00179520 56912.93792128 0 -22307.25030674 0 -15571.29070841 0 -921.70669764 0 4674.71553801 0 3
0.00250000 0.00253879 82260.82776426 0 -19796.50655182 0 657.02902747 0 -19814.41140513 0 11770.51874954 0 6
0.00350000 0.00331552 90778.48503529 0 -13476.53271715 0 15617.42591325 0 -46836.78949241 0 -9195.25161528 0 7
0.00450000 0.00420575 72689.09090833 0 21918.72597454 0 18129.59766260 0 2444.25413708 0 202.07329566 0 24
0.00550000 0.00557378 57357.59341937 0 13345.70645770 0 49913.23873527 0 -7466.48859785 0 -1171.71337268 0 45
0.00650000 0.00659388 55722.42994491 0 9237.24563626 0 77424.32045669 0 37745.95722409 0 26931.20613486 0 40
0.00750000 0.00754703 47526.18126762 0 -5201.68942303 0 42915.29708087 0 35023.98013844 0 14893.54258014 0 57
0.00850000 0.00846663 57299.70472187 0 -6997.52424064 0 50842.86311283 0 14951.76081482 0 24574.46608753 0 75
0.00950000 0.00948925 54831.14172566 0 3668.55065871 0 30587.31127283 0 26056.17508303 0 13372.39896908 0 112
0.01050000 0.01054430 67413.96961759 0 2109.83980942 0 25052.40484054 0 3379.55753867 0 21292.60533740 0 105
0.01150000 0.01145670 59112.15919779 0 -1728.98270888 0 15669.82232446 0 14194.92376397 0 8283.26846128 0 144
0.01250000 0.01249090 58201.97751370 0 512.04255551 0 21085.76583569 0 -888.72551847 0 17168.66725319 0 169
0.01350000 0.01339930 54634.18833928 0 419.83915172 0 7432.65611430 0 3715.07032359 0 20193.48900491 0 180
0.01450000 0.01448870 59921.61235131 0 1344.44577652 0 12757.59244170 0 927.52852111 0 1614.98481463 0 267
0.01550000 0.01550050 63224.34378934 0 -7166.58779724 0 6947.74215770 0 12489.23933354 0 12738.58913113 0 238
0.01650000 0.01653350 72593.41528115 0 -7366.86950911 0 2841.65400393 0 10327.02508205 0 -10210.70944299 0 315
0.01750000 0.01747870 67308.84725799 0 5858.85246228 0 -8145.96130402 0 -5735.77032651 0 -732.23270673 0 297
0.01850000 0.01844180 73337.51022781 0 -368.26438653 0 -1957.31901912 0 -9876.52579135 0 6533.16241933 0 388
0.01950000 0.01947590 61432.10092697 0 1153.53390506 0 5630.62599776 0 -1718.03109001 0 6426.68895730 0 399
0.02050000 0.02045430 68847.67603091 0 562.86817284 0 -1064.40178776 0 11887.83398471 0 -6244.13634557 0 462
0.02150000 0.02154770 76790.51061875 0 -4182.38699492 0 2713.35419618 0 -90.53858197 0 7300.86321247 0 571
0.02250000 0.02255340 66519.71556374 0 2772.14362864 0 6347.88563361 0 -12730.68023887 0 -1573.92448232 0 510
0.02350000 0.02348930 67711.43184309 0 2285.73577016 0 6184.09467184 0 -8057.12906555 0 -5871.36389045 0 555
0.02450000 0.02439640 68330.30266233 0 3911.67220365 0 14392.64607043 0 -1738.08891955 0 -9647.36563815 0 592
0.02550000 0.02547300 64494.59976265 0 2738.11342278 0 22457.29956820 0 -6388.83612019 0 -6717.92293015 0 837
0.02650000 0.02652900 60108.13039374 0 3552.99295515 0 25968.62803955 0 515.73227344 0 -7493.91707559 0 723
0.02750000 0.02749970 63004.32280054 0 208.68820527 0 32687.45170466 0 -112.37876825 0 -7909.28770318 0 826
0.02850000 0.02848090 58466.15648428 0 1217.14556488 0 31990.91995727 0 -5167.87890863 0 -9486.39771155 0 831
0.02950000 0.02946900 56071.08027864 0 1692.25029816 0 32354.17977254 0 3704.62399507 0 -2515.48909027 0 996
0.03050000 0.03053250 61011.28195138 0 -3661.98188431 0 29488.30478607 0 11715.15650373 0 807.09256887 0 1041
0.03150000 0.03150510 59948.96393704 0 15.03798971 0 27333.90056569 0 4515.93354135 0 5130.82794531 0 1036
0.03250000 0.03246190 61450.44516318 0 3463.53459605 0 26407.02233127 0 -1620.48808549 0 -651.39613865 0 1059
0.03350000 0.03345080 56676.87945651 0 789.94125724 0 28330.86037317 0 -1182.39037723 0 4049.42972839 0 1302
0.03450000 0.03451200 54929.34380454 0 2562.08564716 0 28807.15144030 0 2956.91512403 0 1584.45868742 0 1339
0.03550000 0.03553350 51523.13769279 0 933.65901107 0 28809.23850909 0 -2398.53634600 0 2291.08525701 0 1365
0.03650000 0.03647120 51876.40154701 0 3851.47674591 0 30444.95121218 0 1105.46541544 0 -3340.54033686 0 1308
0.03750000 0.03744890 50628.55410177 0 1969.65469413 0 30875.98584027 0 1558.89758703 0 1365.45926387 0 1579
0.03850000 0.03847530 46090.38778551 0 -1680.51877465 0 26100.44291053 0 4198.76499264 0 2400.60144564 0 1662
0.03950000 0.03950240 49270.86093071 0 -801.48384611 0 27588.41311240 0 4416.81974295 0 324.22174277 0 1683
0.04050000 0.04050350 46745.39784854 0 1645.00565149 0 23011.80079211 0 798.58062358 0 -585.28548857 0 1822
0.04150000 0.04152450 45324.21384796 0 2380.81823043 0 21340.71776531 0 2203.51624439 0 324.55347686 0 1887
0.04250000 0.04250150 42923.42566458 0 563.71728030 0 22628.65890047 0 -317.83641073 0 1897.21143796 0 1920
0.04350000 0.04349210 43957.51332739 0 1723.25974656 0 22428.41014231 0 1920.93811473 0 -608.68482508 0 2005
0.04450000 0.04448520 42720.76030046 0 -692.12913069 0 19946.55581328 0 1714.24141247 0 67.38497035 0 2151
0.04550000 0.04548030 40731.34436025 0 -948.17732065 0 18673.55369683 0 3772.51963819 0 -3386.21418965 0 2274
0.04650000 0.04648670 40964.32714470 0 2528.92322254 0 14858.94117651 0 950.65763714 0 2068.20827933 0 2311
0.04750000 0.04749250 39480.86061759 0 695.02027020 0 16537.71340412 0 1045.64343316 0 1980.44154441 0 2568
0.04850000 0.04851840 39064.65516248 0 -331.99222941 0 15166.28951733 0 2597.14840284 0 1647.07075114 0 2493
0.04950000 0.04949480 38246.41435090 0 774.69467050 0 14476.56820495 0 2177.93317485 0 5744.47010799 0 2644
0.05050000 0.05050630 37373.79990504 0 306.40696296 0 12330.07287683 0 1001.52829122 0 4489.04330767 0 2829
0.05150000 0.05149060 36653.76117233 0 376.87848835 0 13827.70950257 0 829.49011236 0 6738.76066434 0 2784
0.05250000 0.05249300 35636.80944275 0 1054.44537117 0 14727.89522561 0 -257.74420796 0 5777.31398001 0 3055
0.05350000 0.05348950 35572.65953887 0 1554.87723346 0 14939.34824780 0 -497.46602769 0 6868.86194199 0 3009
0.05450000 0.05448610 33726.92180803 0 1020.36024245 0 16378.87648459 0 -2457.62236191 0 3469.66398755 0 3336
0.05550000 0.05550870 33657.49930932 0 -80.63807686 0 16132.38267586 0 2332.36528077 0 2996.34973959 0 3349
0.05650000 0.05647670 32291.67755455 0 -760.91452420 0 14733.60720336 0 921.06410015 0 1877.26345415 0 3324
0.05750000 0.05747970 33896.74330014 0 828.88376396 0 14099.68751969 0 86.39289443 0 695.36408732 0 3639
0.05850000 0.05849280 32256.08753939 0 770.38652113 0 12229.78372916 0 1427.24748464 0 458.04459361 0 3846
0.05950000 0.05951020 30892.13316196 0 56.04790283 0 12765.83087113 0 2422.66945196 0 -615.41946653 0 3787
0.06050000 0.06049470 32038.37331083 0 -34.26362802 0 11329.59800612 0 -385.46293182 0 -2027.24680818 0 3930
0.06150000 0.06148310 30271.83434829 0 1070.47625640 0 10256.88858612 0 -817.92994818 0 -1206.88597408 0 4083
0.06250000 0.06249100 29865.95439141 0 -286.89836205 0 10676.09282954 0 1262.03951302 0 -968.10553223 0 4303
0.06350000 0.06350600 30002.82216578 0 228.95474168 0 9112.40596887 0 423.36519952 0 -2917.75512277 0 4470
0.06450000 0.06451750 29944.27439392 0 592.88681279 0 9507.54301377 0 -379.75315100 0 -2886.58090579 0 4479
0.06550000 0.06550280 29818.17150069 0 -291.48661802 0 9628.61497276 0 945.50367568 0 -2679.41186690 0 4636
0.06650000 0.06648880 29988.65206715 0 807.17385471 0 11366.94555290 0 -1109.20017012 0 -2827.13239898 0 4653
0.06750000 0.06749660 29444.69603292 0 205.44555945 0 11172.18908103 0 -155.24496429 0 -381.32284642 0 5220
0.06850000 0.06852730 28931.27711047 0 -596.82148669 0 10387.52810783 0 1064.71265116 0 -506.67329643 0 5029
0.06950000 0.06949320 29482.04357970 0 459.48796645 0 11930.23443487 0 1750.87496203 0 600.13882761 0 5040
0.07050000 0.07048030 29302.88520089 0 603.55393123 0 11535.99812493 0 378.49541744 0 1276.44028767 0 5475
0.07150000 0.07148790 27584.23897482 0 1007.31057023 0 11896.73148850 0 -639.68768273 0 3676.06410635 0 5509
0.07250000 0.07249820 27472.74556312 0 246.78489990 0 12432.22940184 0 989.95933938 0 3312.78232194 0 5916
0.07350000 0.07351270 27040.72232349 0 317.65626374 0 12190.01957642 0 1456.31266369 0 5256.73311624 0 5721
0.07450000 0.07449140 27844.24380782 0 -244.13871636 0 10797.90075490 0 274.12989488 0 3760.99682155 0 6028
0.07550000 0.07549160 26373.62923063 0 -74.63434887 0 11561.15279614 0 -144.42186493 0 2511.12821496 0 6183
0.07650000 0.07648840 25425.00154250 0 1113.11067796 0 10190.12435397 0 -317.76501100 0 1944.55494578 0 6330
0.07750000 0.07749960 25435.10734928 0 813.72395534 0 11543.35778856 0 724.30623915 0 2235.82187235 0 6583
0.07850000 0.07848650 24750.43894028 0 -370.20536051 0 9357.12027684 0 650.15048812 0 1863.36796984 0 6549
0.07950000 0.07947320 24964.96764280 0 478.93395529 0 9429.01430438 0 1258.66724923 0 -222.24866012 0 6828
0.08050000 0.08048110 24148.92374573 0 560.40872704 0 8777.51930458 0 -998.38560500 0 -468.02517626 0 7147
0.08150000 0.08149960 23790.38729667 0 506.41515897 0 9789.35222334 0 -1270.01431271 0 -1312.44771659 0 7386
0.08250000 0.08250610 22941.16999041 0 111.29129557 0 9350.11211953 0 -64.78997492 0 -1900.62764003 0 7227
0.08350000 0.08350160 22346.46523086 0 495.07798161 0 10767.38561226 0 -353.19025758 0 -2724.81110538 0 7798
0.08450000 0.08449610 22304.50416359 0 448.99330581 0 10195.86928543 0 856.19031294 0 -2252.21085464 0 7371
0.08550000 0.08548940 22072.50999068 0 -532.16739093 0 8980.97555793 0 1631.97794841 0 -1021.44661668 0 8256
0.08650000 0.08650700 22101.17972511 0 134.17655408 0 8638.37772369 0 1142.54933248 0 -2245.45534251 0 8037
0.08750000 0.08749060 21903.34757292 0 350.46828049 0 7541.07384568 0 940.88026908 0 271.34420728 0 8155
0.08850000 0.08849210 21308.64281337 0 189.12138613 0 7887.65907977 0 443.50431489 0 -261.30650485 0 8718
0.08950000 0.08949900 20736.67611906 0 648.01618566 0 7316.45032096 0 440.88888815 0 1302.24304866 0 8571
0.09050000 0.09049190 20365.94679444 0 308.06563342 0 6736.67359555 0 394.41316156 0 747.82311059 0 8932
0.09150000 0.09150830 19959.95699183 0 453.13448967 0 7303.20292643 0 59.20563791 0 814.48079239 0 9285
0.09250000 0.09250820 19455.21588172 0 292.65427808 0 6480.76600812 0 515.21929390 0 1781.52191953 0 9204
0.09350000 0.09350330 19031.76060871 0 161.78517881 0 6191.53122748 0 201.72618317 0 925.24482847 0 9349
0.09450000 0.09448040 19104.03909629 0 34.24473456 0 5970.32390484 0 652.52864808 0 1907.58087448 0 9564
0.09550000 0.09549270 18512.51986279 0 -128.23499877 0 5384.38483421 0 822.16340245 0 825.55543847 0 10155
0.09650000 0.09649430 18273.05618052 0 307.78113299 0 5375.67406815 0 -190.15832978 0 1246.48535824 0 9913
0.09750000 0.09749140 18245.04552043 0 538.84491261 0 5414.83406940 0 -688.77114685 0 -388.46281860 0 10476
0.09850000 0.09850240 17442.40280191 0 489.50550794 0 6337.17567534 0 -1022.58681531 0 -158.66995402 0 10575
0.09950000 0.09950330 17030.48133011 0 313.35909894 0 5586.50096970 0 297.59074500 0 -859.99976271 0 10882
0.10050000 0.10051200 16815.73293615 0 27.31445787 0 6084.75019742 0 542.47641230 0 -633.41768870 0 10875
0.10150000 0.10150300 17080.13159818 0 -126.38959058 0 5057.70364564 0 848.75375730 0 -1647.34536545 0 11118
0.10250000 0.10250800 16693.80418050 0 67.15242694 0 4793.26104531 0 2.76450935 0 -993.20637903 0 11575
0.10350000 0.10349800 16230.25521756 0 399.08380182 0 5008.09731586 0 -338.22267898 0 -1203.40386458 0 11364
0.10450000 0.10450100 15711.23416310 0 387.92677145 0 4835.14522057 0 -171.70644476 0 -1227.02069563 0 12093
0.10550000 0.10551000 15742.32050350 0 349.66640670 0 5877.28457508 0 127.87909862 0 -574.67658837 0 12067
0.10650000 0.10649700 15185.40267363 0 158.28549398 0 5232.09471994 0 -61.48614502 0 -1111.75957553 0 12054
0.10750000 0.10749900 15121.25276975 0 64.21372424 0 5917.47712615 0 383.34620469 0 26.82893976 0 12807
0.10850000 0.10850100 15024.36883958 0 33.11991433 0 5256.89788483 0 737.83813412 0 -769.95043360 0 12736
0.10950000 0.10950300 15009.86920378 0 188.54579453 0 5213.03648651 0 442.29161807 0 744.59035088 0 12933
0.11050000 0.11050200 14855.31626756 0 54.48062401 0 5100.03818836 0 222.80667641 0 965.95255600 0 13428
0.11150000 0.11150900 14689.77875876 0 141.10562247 0 5016.75315905 0 -580.71920174 0 -85.28619874 0 13453
0.11250000 0.11250000 14427.13762834 0 360.19951334 0 5456.88301324 0 111.97343752 0 428.47412422 0 13668
0.11350000 0.11349100 14079.47590614 0 1.68721936 0 4957.74403515 0 -157.13101540 0 -296.79546195 0 13791
0.11450000 0.11448600 14487.44293181 0 -246.66187269 0 4890.88094184 0 445.29589867 0 -609.92278641 0 14205
0.11550000 0.11549300 14410.33123229 0 128.40635810 0 4228.90665980 0 275.18661077 0 -1159.43262053 0 14776
0.11650000 0.11649800 14440.53880689 0 20.96647338 0 4431.16559474 0 -15.50208790 0 -634.67432381 0 14553
0.11750000 0.11747300 14309.49285599 0 62.16092732 0 4149.59804576 0 -484.11208280 0 -1774.98609885 0 14568
0.11850000 0.11849100 13899.54860725 0 102.64017574 0 3878.30107215 0 625.10566263 0 -1583.60189076 0 16015
0.11950000 0.11950300 13936.12723395 0 144.27796703 0 3863.94423579 0 534.87398962 0 -831.98690571 0 15270
0.12050000 0.12050700 14207.77571389 0 61.53535591 0 3283.53040516 0 -5.49446124 0 -1182.91763671 0 15999
0.12150000 0.12150000 13606.37036506 0 324.28655175 0 3575.51132894 0 188.00864893 0 -522.64376651 0 15670
0.12250000 0.12250700 13414.14034488 0 230.43436361 0 3594.13017947 0 -241.16738948 0 -909.49734522 0 16887
0.12350000 0.12352200 13019.68434349 0 124.58921913 0 3898.80926916 0 128.27454323 0 151.66619055 0 16407
0.12450000 0.12449800 13117.55688519 0 -101.51118137 0 3693.27693159 0 346.98836790 0 -767.32182538 0 16306
0.12550000 0.12549900 13144.46908801 0 19.65491541 0 3126.04458806 0 353.80539364 0 -176.54514898 0 17523
0.12650000 0.12650100 13179.40002882 0 -58.03292494 0 3614.11111700 0 164.50166361 0 -633.17602811 0 17154
0.12750000 0.12750600 13041.76333438 0 71.79791253 0 2956.39884912 0 -24.82392573 0 -358.37827121 0 18007
0.12850000 0.12850300 12933.34560300 0 248.34031538 0 3587.82503481 0 -12.33468640 0 190.35715055 0 17496
0.12950000 0.12949900 12721.67288936 0 121.67391357 0 3260.10031184 0 -196.75346716 0 -596.80500983 0 18405
0.13050000 0.13049000 12685.97302847 0 258.22313533 0 3638.46391441 0 152.24837289 0 148.15222578 0 18100
0.13150000 0.13148800 12445.19119748 0 -14.15307254 0 3383.28130877 0 216.03798279 0 -173.10587931 0 19059
0.13250000 0.13249300 12417.18053740 0 252.88573151 0 3515.33784034 0 30.76438258 0 94.29717317 0 18957
0.13350000 0.13349100 12536.14345846 0 65.93039324 0 3584.13421842 0 -52.96409392 0 -175.32695989 0 19468
0.13450000 0.13450700 12055.34871657 0 43.06677434 0 3615.45123485 0 -131.83134783 0 -102.11170795 0 19953
0.13550000 0.13551000 11991.96773278 0 227.94965329 0 3528.67311146 0 -24.20307769 0 -590.87553755 0 19956
0.13650000 0.13649900 11679.89602574 0 182.13849334 0 3820.52222037 0 -68.20419977 0 -73.82291849 0 19723
0.13750000 0.13749600 11459.76519121 0 249.88914011 0 3847.09390145 0 182.83711216 0 -39.63739078 0 20946
0.13850000 0.13851100 11153.07592474 0 4.66127042 0 3567.52554468 0 358.41452030 0 -84.81880518 0 20955
0.13950000 0.13949800 11423.84563887 0 72.27607098 0 3574.69847057 0 342.01675035 0 149.10568668 0 20506
0.14050000 0.14048300 11171.31031523 0 53.97599275 0 3132.20693328 0 139.56229002 0 -209.63727234 0 21447
0.14150000 0.14148400 11033.45392933 0 327.99054962 0 3317.12122811 0 -10.91713829 0 913.44959443 0 21771
0.14250000 0.14249400 10805.63389399 0 78.85209520 0 3188.26120716 0 -186.36645533 0 265.23788338 0 22470
0.14350000 0.14350900 10563.19339255 0 -26.15800207 0 3518.21579836 0 271.53863421 0 695.58597568 0 22519
0.14450000 0.14449900 10565.59901395 0 -98.58719799 0 3128.88959236 0 429.16285692 0 454.25711299 0 22218
0.14550000 0.14550500 10826.84510365 0 -31.68873437 0 2797.49602215 0 310.61625117 0 805.48003362 0 23559
0.14650000 0.14650700 10750.80989224 0 230.36845618 0 2633.80392155 0 -233.90768546 0 267.98842035 0 23044
0.14750000 0.14750500 10541.10341709 0 226.57438481 0 2995.16340575 0 37.65753141 0 772.99316021 0 23649
0.14850000 0.14849900 10318.89649834 0 89.61895355 0 2987.74881926 0 -94.52224706 0 486.72860799 0 23640
0.14950000 0.14949500 10160.19139369 0 135.89563969 0 2708.68575283 0 99.57196492 0 305.45679743 0 24457
0.15050000 0.15050000 9909.39163251 0 106.23136205 0 2811.39150647 0 128.34374604 0 398.11606098 0 24591
0.15150000 0.15149900 9648.07963537 0 337.26592271 0 2795.57372195 0 -164.94873571 0 262.82567124 0 25020
0.15250000 0.15250500 9451.04935698 0 94.97975451 0 2830.09823358 0 101.25161592 0 389.27677542 0 25297
0.15350000 0.15350100 9561.40037313 0 -65.81318786 0 2616.29451285 0 457.17791084 0 255.23862696 0 25452
0.15450000 0.15450400 9517.06663819 0 -114.06270323 0 2279.73819353 0 81.69435336 0 101.03697737 0 26061
0.15550000 0.15549900 9402.69526848 0 102.58602179 0 2075.06265262 0 52.85040360 0 366.55189167 0 26128
0.15650000 0.15649500 9399.27906640 0 -44.78410241 0 2032.56334131 0 -35.55947805 0 52.19451477 0 26331
0.15750000 0.15749700 9564.33325401 0 129.18077047 0 2186.21554257 0 -59.90315827 0 513.38816565 0 27345
0.15850000 0.15849900 9193.63688311 0 278.60281284 0 2739.22286461 0 -157.10575089 0 96.39742345 0 26980
0.15950000 0.15949700 9158.16769824 0 174.61406112 0 2322.58901117 0 88.83553384 0 558.60396177 0 27777
0.16050000 0.16050000 9138.94469623 0 -43.65851326 0 2836.42534738 0 170.77275609 0 315.70979747 0 28224
0.16150000 0.16150500 8941.82654125 0 -9.91877246 0 2278.77155114 0 152.14182254 0 430.03613044 0 28075
0.16250000 0.16249700 8934.91724510 0 198.36710087 0 2538.17223265 0 -25.19806027 0 717.84621202 0 28590
0.16350000 0.16349900 8697.27700188 0 175.81797028 0 2562.83259810 0 -266.17596588 0 614.06616719 0 29163
0.16450000 0.16449100 8461.72382744 0 154.22339904 0 2577.12352703 0 270.61702857 0 589.77048955 0 28996
0.16550000 0.16550500 8328.10748656 0 120.70177890 0 2678.29144050 0 -178.06102000 0 366.82760444 0 30777
0.16650000 0.16650700 8160.88933816 0 74.51626471 0 2735.61992480 0 210.97519328 0 515.25993682 0 29211
0.16750000 0.16749900 8150.15741074 0 125.25708115 0 2440.02507664 0 165.75500334 0 161.39083265 0 30922
0.16850000 0.16850800 8254.89531031 0 -6.16045587 0 2227.56147377 0 274.59014847 0 657.41568442 0 30867
0.16950000 0.16949900 8155.91332678 0 -206.89332611 0 2188.63214854 0 149.13864039 0 314.45316237 0 30852
0.17050000 0.17049200 8005.07317609 0 144.30433000 0 1880.13042760 0 45.24171971 0 481.55816968 0 31257
0.17150000 0.17149500 8116.31394262 0 206.54401670 0 2016.91032538 0 -120.85446445 0 338.81804281 0 32608
0.17250000 0.17250900 7824.46483371 0 -1.28022997 0 1985.61527809 0 -33.88894425 0 599.18316980 0 32361
0.17350000 0.17350400 7801.86956791 0 5.51666106 0 2021.08446296 0 272.00657700 0 533.70523110 0 32508
0.17450000 0.17449800 7856.26517133 0 129.29940385 0 1910.84329253 0 -118.66194377 0 408.62280465 0 32791
0.17550000 0.17549800 7774.49601303 0 142.85546488 0 2203.79085870 0 117.31413671 0 515.00948856 0 33633
0.17650000 0.17650100 7724.93362155 0 125.49434791 0 2245.43337336 0 -39.46405422 0 330.68945910 0 33984
0.17750000 0.17750300 7581.38722705 0 -33.71626677 0 2159.81961466 0 -146.77476037 0 618.23481248 0 34069
0.17850000 0.17849800 7465.54392461 0 15.95465229 0 2258.61486046 0 110.25215500 0 648.22599100 0 34536
