### header ###
fiducial parameters:
Omega_m = 0.31
Omega_nu = 0
Omega_de = 0.69
Omega_k = 0
H_0 = 100
w_de = -1
zeff = 0
beta = 0
fgrowth = 0
b_1 = 2
gamma = 0.55
Lx = 3500 Ly = 3500 Lz = 3500
nx = 700 ny = 700 nz = 700
xoffset = -983.599254 yoffset = -42.9823471 zoffset = 800.977702
bins = 400 dk = 0.001
kx_ny = 0.628318531 ky_ny = 0.628318531 kz_ny = 0.628318531
############################
A(data) = 9.10534273 (not used)
A(ran) = 9.114501 (used)
Ngal = 506400
weighted Ngal = 0
Nran = 25229228
weighted Nran = 0
SN(data) = 6674.42344
SN(ran) = 135.298488
SN(data+ran) = 6809.72192
############################
13 columns: k_central k_mean P_0(k) sigma^{lin}_{P_0(k)} P^img_1(k) sigma^{lin}_{P_1(k)} P_2(k) sigma^{lin}_{P_2(k)} P^img_3(k) sigma^{lin}_{P_3(k)} P_4(k) sigma^{lin}_{P_4(k)} N_modes
### header ###
0.00050000 0 0 0 0 0 0 0 0 0 0 0 0
0.00150000 0.00179520 17684.94216451 0 -20719.10080293 0 -27483.51044425 0 33023.35993420 0 19685.01314012 0 3
0.00250000 0.00253879 29779.28611375 0 -35191.82440748 0 -7659.81707529 0 4184.39717170 0 5540.91499349 0 6
0.00350000 0.00331552 30500.97253234 0 -7725.76844906 0 -20177.56137467 0 -18667.40233619 0 -8541.54871639 0 7
0.00450000 0.00420575 43050.62701507 0 -481.08143923 0 -11108.14902288 0 -31095.23790899 0 -9152.93904169 0 24
0.00550000 0.00557378 32994.69019976 0 6579.33057789 0 7764.40119083 0 -8009.86244973 0 -4885.85000760 0 45
0.00650000 0.00659388 21751.76047130 0 9376.67281603 0 -4197.72145824 0 1595.75082804 0 26925.05477421 0 40
0.00750000 0.00754703 44259.69891910 0 -6145.22026948 0 20859.04425762 0 8551.12726368 0 -27969.57778097 0 57
0.00850000 0.00846663 52301.06512300 0 -12072.92403270 0 11812.80935398 0 -11848.61906059 0 -31600.63809346 0 75
0.00950000 0.00948925 58363.67042210 0 -10990.83378771 0 13958.09637911 0 -10489.13540421 0 -20383.74180202 0 112
0.01050000 0.01054430 63246.64247168 0 1409.68315308 0 11268.41393685 0 -20124.28619765 0 712.97125871 0 105
0.01150000 0.01145670 62403.24698889 0 -277.28027030 0 22569.89143716 0 -1624.98077568 0 6693.57013274 0 144
0.01250000 0.01249090 72729.84367261 0 -2750.95438813 0 29480.06635663 0 12420.91529208 0 -10953.61805581 0 169
0.01350000 0.01339930 85133.62303146 0 2510.94147722 0 29914.83573940 0 9848.98746788 0 -22521.01008917 0 180
0.01450000 0.01448870 76176.80254863 0 3439.37952094 0 32062.97875341 0 -2397.74545677 0 14008.84510444 0 267
0.01550000 0.01550050 77676.19670598 0 1417.80075222 0 44506.08288210 0 -7601.52194860 0 26035.96346948 0 238
0.01650000 0.01653350 67033.35417765 0 4889.52983942 0 44828.80962454 0 15136.52132564 0 12975.96574461 0 315
0.01750000 0.01747870 71795.05654593 0 3256.85986293 0 47946.56086031 0 13333.95296504 0 23211.82985881 0 297
0.01850000 0.01844180 64688.25777726 0 -1436.32074159 0 31045.03841230 0 18153.10464793 0 13540.13339239 0 388
0.01950000 0.01947590 74526.48036401 0 -4429.28723283 0 23484.68664173 0 13850.22787636 0 25410.17236952 0 399
0.02050000 0.02045430 72458.85426702 0 -2965.71376666 0 16736.97355074 0 522.62399428 0 9341.86270552 0 462
0.02150000 0.02154770 71820.21121714 0 1893.67440559 0 18737.04452635 0 -5444.19583191 0 15254.16609799 0 571
0.02250000 0.02255340 72062.97027119 0 -761.21659994 0 11766.01507478 0 -3432.65696252 0 -3611.00248296 0 510
0.02350000 0.02348930 72188.52393580 0 2605.18910997 0 18191.99003487 0 596.99943677 0 -10817.89267699 0 555
0.02450000 0.02439640 73929.24915276 0 5936.41452928 0 22740.59169507 0 -4580.28116753 0 -15019.42578192 0 592
0.02550000 0.02547300 73155.82539731 0 -703.94194005 0 28241.88533526 0 -11439.88311484 0 -16729.17450421 0 837
0.02650000 0.02652900 67352.56585686 0 -1289.01762328 0 30137.16348845 0 7140.21383847 0 -14440.09942398 0 723
0.02750000 0.02749970 64807.55023549 0 4379.58204190 0 33105.52453710 0 -3289.68176581 0 -14693.40366771 0 826
0.02850000 0.02848090 64924.09655058 0 4788.15321906 0 37135.10514284 0 -5180.03883047 0 -7591.58091041 0 831
0.02950000 0.02946900 61523.27287939 0 2473.46211558 0 47145.34613622 0 205.67074318 0 -6237.83120091 0 996
0.03050000 0.03053250 60308.26930617 0 -57.31947695 0 39688.57888510 0 9489.78095990 0 -8675.02225783 0 1041
0.03150000 0.03150510 60533.67273554 0 1507.19320389 0 39379.36316694 0 10268.87275481 0 2955.86060506 0 1036
0.03250000 0.03246190 56988.95116354 0 2044.45963341 0 36649.69688047 0 2145.28702514 0 14682.30924940 0 1059
0.03350000 0.03345080 55894.44835154 0 -1146.20719515 0 33986.70694958 0 9646.83837867 0 17303.00857586 0 1302
0.03450000 0.03451200 53211.24680709 0 1746.90953133 0 29149.21103048 0 8673.91281599 0 14584.54655343 0 1339
0.03550000 0.03553350 51955.92985250 0 707.67999010 0 21412.77656144 0 5770.96489706 0 18898.51774330 0 1365
0.03650000 0.03647120 52139.26236888 0 31.09666590 0 28360.84825632 0 3450.10046378 0 21722.21197106 0 1308
0.03750000 0.03744890 53797.38360003 0 1520.96785790 0 17791.05313565 0 -918.88146557 0 10654.76078959 0 1579
0.03850000 0.03847530 47867.03255482 0 1166.74834587 0 20802.80324600 0 -2959.67225174 0 9174.02942105 0 1662
0.03950000 0.03950240 48939.45637593 0 996.15903214 0 19315.27242703 0 669.37019476 0 7475.80351540 0 1683
0.04050000 0.04050350 48735.36301737 0 -1148.52493996 0 20488.09524154 0 10.98940579 0 -835.59753472 0 1822
0.04150000 0.04152450 45383.75023135 0 1892.49905632 0 20043.11020627 0 -1361.61466347 0 -384.68851946 0 1887
0.04250000 0.04250150 46775.38573168 0 1483.40061967 0 21905.21495026 0 169.44911510 0 -1274.82555550 0 1920
0.04350000 0.04349210 44594.72838283 0 1079.69121434 0 24412.77317913 0 -726.13736740 0 -3745.40971306 0 2005
0.04450000 0.04448520 46951.02904726 0 677.85467862 0 23699.43503570 0 134.30507358 0 -5492.27530610 0 2151
0.04550000 0.04548030 42251.49935978 0 23.95120144 0 21312.37756805 0 -42.17647473 0 -2259.01030507 0 2274
0.04650000 0.04648670 42877.94953410 0 25.18158341 0 24682.88381891 0 3487.77754774 0 -1958.54929125 0 2311
0.04750000 0.04749250 43644.78254600 0 859.71086845 0 23712.50667707 0 1354.84816676 0 -1906.48241722 0 2568
0.04850000 0.04851840 42451.96780939 0 1844.82601132 0 26741.61241210 0 -39.98911679 0 -501.12828419 0 2493
0.04950000 0.04949480 39327.51598435 0 1836.19213727 0 21722.32181678 0 -188.89180857 0 5385.15375429 0 2644
0.05050000 0.05050630 38989.63053175 0 -944.48211043 0 23010.37279767 0 4012.66436396 0 -302.98526860 0 2829
0.05150000 0.05149060 40671.03905678 0 666.70423900 0 23106.15827058 0 4284.32382847 0 2508.39305639 0 2784
0.05250000 0.05249300 37924.67621999 0 519.72626403 0 19687.64943754 0 1767.50560492 0 7167.30179446 0 3055
0.05350000 0.05348950 36872.35416670 0 411.71056801 0 17441.08465321 0 2092.25350871 0 5588.00585615 0 3009
0.05450000 0.05448610 37932.80480370 0 994.88482172 0 18155.19171672 0 1224.16470676 0 2952.98264704 0 3336
0.05550000 0.05550870 36240.08216892 0 225.94606725 0 15873.80583730 0 -75.23597391 0 7083.03913818 0 3349
0.05650000 0.05647670 34892.93418754 0 467.31886824 0 16378.43710169 0 95.24382364 0 3308.46538492 0 3324
0.05750000 0.05747970 34056.23929402 0 1284.53591766 0 15435.19185413 0 902.96262299 0 1725.79718283 0 3639
0.05850000 0.05849280 33616.19731641 0 298.52882750 0 15494.61839179 0 1477.05153672 0 3662.13566832 0 3846
0.05950000 0.05951020 33246.56644905 0 -12.40850273 0 13478.50994021 0 1989.58070880 0 3430.05361882 0 3787
0.06050000 0.06049470 33150.56128469 0 -919.46804175 0 11156.37129652 0 2646.85359377 0 3708.05118171 0 3930
0.06150000 0.06148310 33061.25670960 0 -309.42332659 0 10420.47084100 0 2328.01539003 0 3126.56086297 0 4083
0.06250000 0.06249100 33528.76011866 0 1456.79598488 0 7940.91228764 0 -406.56209884 0 1887.34729178 0 4303
0.06350000 0.06350600 32156.01808317 0 433.59183659 0 10660.04436900 0 -1845.79265371 0 2733.90633148 0 4470
0.06450000 0.06451750 30639.37814687 0 781.48643173 0 9148.63308924 0 184.38154306 0 702.48868109 0 4479
0.06550000 0.06550280 30590.05741598 0 -62.87778052 0 10743.06576857 0 -51.23248590 0 679.98239033 0 4636
0.06650000 0.06648880 29757.09727713 0 815.29584768 0 10843.73937628 0 -494.81215496 0 199.34912166 0 4653
0.06750000 0.06749660 29207.86864807 0 604.13062129 0 10421.65717484 0 260.22232754 0 1005.49811575 0 5220
0.06850000 0.06852730 29894.95366303 0 -88.12120708 0 10028.45341472 0 991.28847266 0 -1852.85573388 0 5029
0.06950000 0.06949320 29492.91830655 0 171.58122064 0 10662.83445044 0 1162.07990253 0 2196.81565512 0 5040
0.07050000 0.07048030 28584.49415407 0 -165.05199069 0 9350.10113496 0 1630.35223167 0 2810.61160182 0 5475
0.07150000 0.07148790 28070.52600299 0 535.05743198 0 10275.81500468 0 451.50767447 0 3816.28217536 0 5509
0.07250000 0.07249820 28499.69325375 0 640.61038683 0 9995.41182039 0 -789.74683031 0 2718.16543897 0 5916
0.07350000 0.07351270 28602.50885311 0 182.07368436 0 10792.21074630 0 93.34612888 0 1825.27347212 0 5721
0.07450000 0.07449140 26738.86626896 0 1128.57695615 0 11782.27224220 0 -1853.21822477 0 3263.71423622 0 6028
0.07550000 0.07549160 25918.64823431 0 1220.47389037 0 11982.74069181 0 -706.10150702 0 2083.49880437 0 6183
0.07650000 0.07648840 25987.08212149 0 57.05529798 0 13869.45087838 0 1113.20953911 0 2273.08154255 0 6330
0.07750000 0.07749960 25069.65061950 0 -572.73231902 0 11945.94237366 0 1348.81763641 0 -842.59360900 0 6583
0.07850000 0.07848650 25080.63519208 0 230.72106096 0 11994.27449302 0 959.38268314 0 1088.95560285 0 6549
0.07950000 0.07947320 24640.48336874 0 133.05612768 0 10287.43668247 0 129.41034804 0 1158.53188558 0 6828
0.08050000 0.08048110 24342.03253171 0 758.89006747 0 9800.74322511 0 392.37222798 0 83.08785623 0 7147
0.08150000 0.08149960 23182.17151284 0 489.03866361 0 9010.06270613 0 416.61957349 0 -287.64421453 0 7386
0.08250000 0.08250610 23886.17276958 0 -29.09791308 0 9911.84119219 0 1146.86626950 0 136.45695135 0 7227
0.08350000 0.08350160 22948.20011686 0 -128.51071154 0 7613.07771895 0 1018.49506203 0 -1010.05561491 0 7798
0.08450000 0.08449610 22781.56415080 0 366.03451830 0 6933.69288937 0 327.86203012 0 -1409.80398338 0 7371
0.08550000 0.08548940 21821.51250719 0 533.41963221 0 5916.11503915 0 778.45798507 0 1704.70680347 0 8256
0.08650000 0.08650700 22499.26063546 0 74.33029590 0 6292.78701754 0 1307.53761265 0 634.97530109 0 8037
0.08750000 0.08749060 21918.83582026 0 -72.01408892 0 5796.26236772 0 312.86369472 0 -176.76923427 0 8155
0.08850000 0.08849210 21044.57368851 0 590.60531707 0 5202.55720427 0 -1088.67659471 0 -641.08162499 0 8718
0.08950000 0.08949900 20608.48615704 0 332.24487458 0 5402.57528640 0 -112.19862126 0 1699.12664060 0 8571
0.09050000 0.09049190 20133.07385571 0 238.51022137 0 6279.25402412 0 59.77628646 0 -635.52452972 0 8932
0.09150000 0.09150830 20301.35750766 0 662.96728740 0 6639.69080423 0 -1238.85108030 0 -419.97426196 0 9285
0.09250000 0.09250820 19678.86177948 0 422.35022501 0 6867.52182414 0 114.96124126 0 -1739.84645116 0 9204
0.09350000 0.09350330 19031.87045444 0 82.56630873 0 7470.36615197 0 -659.29624325 0 -1727.99409734 0 9349
0.09450000 0.09448040 18794.93322386 0 221.94219055 0 7644.80116457 0 147.97098033 0 -2227.19898288 0 9564
0.09550000 0.09549270 18454.63116529 0 280.28564936 0 7459.67816285 0 832.41969787 0 -1821.74742433 0 10155
0.09650000 0.09649430 18468.58157246 0 236.52530911 0 7098.51640095 0 632.13359217 0 -1903.61544377 0 9913
0.09750000 0.09749140 17979.98778405 0 218.23050347 0 6700.73207406 0 -87.16467050 0 -2109.07088934 0 10476
0.09850000 0.09850240 17224.35903618 0 438.80841011 0 7232.46227901 0 -742.21438783 0 -842.99564435 0 10575
0.09950000 0.09950330 16939.85860632 0 184.23215288 0 6766.54064840 0 682.79553937 0 -770.44034554 0 10882
0.10050000 0.10051200 16957.32407672 0 9.08618579 0 6834.16167721 0 865.99184705 0 -1357.77006306 0 10875
0.10150000 0.10150300 16667.99043493 0 106.43644402 0 6203.14192070 0 830.09096849 0 -395.54786791 0 11118
0.10250000 0.10250800 17456.02367192 0 122.45931051 0 6432.15927445 0 791.79545309 0 -1306.40620167 0 11575
0.10350000 0.10349800 16221.02817660 0 168.71424719 0 5430.35527046 0 -583.30387167 0 1199.44941845 0 11364
0.10450000 0.10450100 16308.24568289 0 233.12997772 0 6014.98717695 0 297.62260026 0 1296.99242297 0 12093
0.10550000 0.10551000 15846.01486867 0 -196.14602030 0 5488.20002967 0 844.73450219 0 1193.01245891 0 12067
0.10650000 0.10649700 16271.22767329 0 366.43325828 0 5750.61048407 0 414.09641717 0 478.78895893 0 12054
0.10750000 0.10749900 15815.36791117 0 79.41230840 0 5312.36997636 0 -75.42172303 0 1918.93892253 0 12807
0.10850000 0.10850100 15547.12464873 0 208.67282687 0 5637.60120135 0 -179.49340827 0 1822.80194329 0 12736
0.10950000 0.10950300 15346.54635339 0 471.72258339 0 6087.04597309 0 -486.34524641 0 1085.63716347 0 12933
0.11050000 0.11050200 15309.19880662 0 113.74305217 0 5787.07926504 0 364.45383830 0 1562.56643427 0 13428
0.11150000 0.11150900 15050.29243088 0 -176.57810270 0 6083.04758867 0 206.42648178 0 524.69788158 0 13453
0.11250000 0.11250000 14998.99447692 0 302.06585987 0 5738.91191427 0 -32.81333491 0 1099.46783881 0 13668
0.11350000 0.11349100 14938.03009909 0 78.74982883 0 5719.74383511 0 442.44320517 0 293.32982930 0 13791
0.11450000 0.11448600 14795.34050126 0 427.14608940 0 6114.94678745 0 -359.83702245 0 846.31957602 0 14205
0.11550000 0.11549300 14365.40433043 0 117.86226688 0 5912.70982165 0 -337.13300938 0 459.56156309 0 14776
0.11650000 0.11649800 13750.04857442 0 22.76706451 0 6181.67806588 0 437.72752817 0 749.33019395 0 14553
0.11750000 0.11747300 13763.55959870 0 474.86197423 0 5853.67872860 0 -396.73090638 0 -251.66205012 0 14568
0.11850000 0.11849100 13439.40486182 0 287.81447540 0 6010.49448677 0 694.86099389 0 826.68684944 0 16015
0.11950000 0.11950300 13423.47723158 0 -3.26884403 0 5696.36866466 0 183.07657584 0 -261.76016770 0 15270
0.12050000 0.12050700 13137.43896156 0 -179.72078892 0 5490.78140423 0 319.10732577 0 2.43069917 0 15999
0.12150000 0.12150000 13237.28872633 0 0.32682399 0 5433.70556510 0 517.03943757 0 492.37467830 0 15670
0.12250000 0.12250700 13207.52053463 0 -115.66754928 0 4135.14234825 0 553.59829204 0 338.34900157 0 16887
0.12350000 0.12352200 13480.04778037 0 -44.11602071 0 4310.66483352 0 686.30181494 0 609.53722791 0 16407
0.12450000 0.12449800 13418.86371109 0 367.23293517 0 4396.81683628 0 -605.73107351 0 85.08529091 0 16306
0.12550000 0.12549900 12992.88198639 0 227.33781260 0 3829.71630762 0 -314.87167459 0 451.51096984 0 17523
0.12650000 0.12650100 13003.64686752 0 -196.92262958 0 4569.14281094 0 220.40435039 0 -441.70723881 0 17154
0.12750000 0.12750600 12936.86066623 0 193.48555682 0 4131.31971699 0 233.32440466 0 -215.66780269 0 18007
0.12850000 0.12850300 12626.98587371 0 224.54443579 0 3835.65896139 0 23.84102618 0 -247.33962081 0 17496
0.12950000 0.12949900 12535.92376701 0 163.49327984 0 4106.80215099 0 470.00789161 0 590.43176082 0 18405
0.13050000 0.13049000 12481.87966991 0 23.83586343 0 3686.25778971 0 226.85668832 0 -387.45223792 0 18100
0.13150000 0.13148800 12208.14412118 0 329.25816930 0 4067.65313431 0 -616.65193557 0 295.27849247 0 19059
0.13250000 0.13249300 11770.18921236 0 198.12324336 0 3988.44338142 0 354.69075019 0 691.74576911 0 18957
0.13350000 0.13349100 11931.11320068 0 -211.34207801 0 4039.68641251 0 325.61238966 0 640.86522891 0 19468
0.13450000 0.13450700 11848.06983196 0 96.76738385 0 3817.18291031 0 106.91042833 0 302.13396422 0 19953
0.13550000 0.13551000 11780.95409349 0 336.87926575 0 4042.99276886 0 -111.51318393 0 901.68182183 0 19956
0.13650000 0.13649900 11592.67851945 0 2.89936695 0 3980.12805998 0 -144.18679507 0 659.80812433 0 19723
0.13750000 0.13749600 11589.71268485 0 -83.60105546 0 4213.01198328 0 384.07777722 0 750.07824335 0 20946
0.13850000 0.13851100 11527.32031259 0 43.28668548 0 3674.36149760 0 293.11453168 0 639.30981343 0 20955
0.13950000 0.13949800 11556.53927565 0 289.02058147 0 4023.47318338 0 -161.52813981 0 774.57384020 0 20506
0.14050000 0.14048300 11223.37718926 0 174.70083925 0 4202.78534620 0 -392.19317944 0 510.17407971 0 21447
0.14150000 0.14148400 11269.84193128 0 102.18277813 0 4169.89753589 0 99.05579986 0 251.15456287 0 21771
0.14250000 0.14249400 10945.80802470 0 -59.45268095 0 3926.34759262 0 48.66418299 0 5.96881902 0 22470
0.14350000 0.14350900 11040.04467288 0 257.84306912 0 4052.72510017 0 292.28409799 0 392.61388857 0 22519
0.14450000 0.14449900 10590.33627140 0 39.95264801 0 4139.32747040 0 138.71757639 0 795.40168827 0 22218
0.14550000 0.14550500 10691.91061406 0 6.86643435 0 3473.13511249 0 406.42149631 0 257.41247387 0 23559
0.14650000 0.14650700 10709.69463707 0 59.44993480 0 3481.93375512 0 121.45971440 0 -1.48956296 0 23044
0.14750000 0.14750500 10448.19590220 0 295.90351465 0 3323.54720307 0 87.25166832 0 390.06436928 0 23649
0.14850000 0.14849900 10117.74700523 0 171.03418892 0 3378.76664944 0 -23.97284105 0 866.85084063 0 23640
0.14950000 0.14949500 10106.00449714 0 7.99114474 0 3238.82319475 0 209.83279774 0 548.70356650 0 24457
0.15050000 0.15050000 9824.38202530 0 116.14977202 0 3207.86866922 0 424.16158103 0 322.22145210 0 24591
0.15150000 0.15149900 9840.40851670 0 170.31909325 0 2874.79445941 0 163.61740551 0 1134.42074877 0 25020
0.15250000 0.15250500 9744.74387409 0 17.66264348 0 2643.44837627 0 197.21481921 0 840.70645943 0 25297
0.15350000 0.15350100 9580.63435972 0 55.35334831 0 2961.15516904 0 -58.07203002 0 1199.95470879 0 25452
0.15450000 0.15450400 9540.40885493 0 149.59999244 0 2697.21785906 0 -185.22625670 0 685.78773694 0 26061
0.15550000 0.15549900 9290.88330417 0 125.13625085 0 3167.35756554 0 -115.02385333 0 1055.00338746 0 26128
0.15650000 0.15649500 9271.66030215 0 -5.51778148 0 2756.66636587 0 159.19062276 0 532.96377245 0 26331
0.15750000 0.15749700 9506.24683420 0 -99.73991904 0 3187.25062648 0 251.60053652 0 742.00348404 0 27345
0.15850000 0.15849900 9560.46668446 0 84.48794986 0 2731.08329633 0 43.72442070 0 148.53558736 0 26980
0.15950000 0.15949700 9376.90349206 0 97.32144569 0 2936.05542069 0 -240.64781920 0 399.58579679 0 27777
0.16050000 0.16050000 9331.17471640 0 68.85613415 0 2704.52259983 0 -250.08466550 0 102.06798935 0 28224
0.16150000 0.16150500 9192.41759555 0 -13.76180207 0 3019.99952436 0 276.35317237 0 24.30369637 0 28075
0.16250000 0.16249700 9131.18958798 0 209.66363532 0 2685.24467494 0 189.36194827 0 210.97519328 0 28590
0.16350000 0.16349900 9204.44570253 0 10.80693007 0 2727.28263421 0 -80.23329536 0 -130.20563109 0 29163
0.16450000 0.16449100 8941.20042062 0 64.23009125 0 2616.73389576 0 165.11130738 0 -264.12294926 0 28996
0.16550000 0.16550500 8797.82977928 0 256.13826345 0 2752.86570376 0 -365.55449248 0 -221.53905674 0 30777
0.16650000 0.16650700 8560.69482640 0 143.66173251 0 2813.84106615 0 67.35739907 0 96.48991355 0 29211
0.16750000 0.16749900 8462.45979380 0 133.73717118 0 2909.56063163 0 223.00659563 0 -283.31299756 0 30922
0.16850000 0.16850800 8333.17137452 0 -38.10855797 0 2563.03032040 0 59.29241603 0 -24.92080966 0 30867
0.16950000 0.16949900 8363.42288741 0 34.79648964 0 2380.21407893 0 674.94156997 0 -125.98975214 0 30852
0.17050000 0.17049200 8391.00514916 0 -1.00340775 0 2159.52303120 0 36.72933503 0 206.81533565 0 31257
0.17150000 0.17149500 8101.34197019 0 169.76656924 0 2199.05650792 0 -238.06095235 0 -150.68856359 0 32608
0.17250000 0.17250900 8012.98206835 0 341.15116603 0 2338.84617859 0 -80.01272514 0 102.08325791 0 32361
0.17350000 0.17350400 7731.06301305 0 -32.87254175 0 2488.45605715 0 -35.80805893 0 480.97488888 0 32508
0.17450000 0.17449800 7796.08069816 0 -2.95088459 0 2490.57607966 0 227.36417557 0 -12.62863356 0 32791
0.17550000 0.17549800 7885.11065893 0 46.23911890 0 2195.70621328 0 55.53964666 0 -116.17943036 0 33633
0.17650000 0.17650100 7763.50045588 0 -67.86192049 0 2075.53498924 0 -27.83117217 0 194.31159668 0 33984
0.17750000 0.17750300 7761.54520196 0 39.68890842 0 2280.52908276 0 219.04885413 0 203.13220846 0 34069
0.17850000 0.17849800 7918.22914526 0 76.95286260 0 2167.06943257 0 -176.00800339 0 1.26258874 0 34536
