### header ###
fiducial parameters:
Omega_m = 0.31
Omega_nu = 0
Omega_de = 0.69
Omega_k = 0
H_0 = 100
w_de = -1
zeff = 0
beta = 0
fgrowth = 0
b_1 = 2
gamma = 0.55
Lx = 3500 Ly = 3500 Lz = 3500
nx = 700 ny = 700 nz = 700
xoffset = -983.599254 yoffset = -42.9823471 zoffset = 800.977702
bins = 400 dk = 0.001
kx_ny = 0.628318531 ky_ny = 0.628318531 kz_ny = 0.628318531
############################
A(data) = 9.01954407 (not used)
A(ran) = 9.01344504 (used)
Ngal = 500611
weighted Ngal = 0
Nran = 25229228
weighted Nran = 0
SN(data) = 6762.01801
SN(ran) = 133.798382
SN(data+ran) = 6895.81639
############################
13 columns: k_central k_mean P_0(k) sigma^{lin}_{P_0(k)} P^img_1(k) sigma^{lin}_{P_1(k)} P_2(k) sigma^{lin}_{P_2(k)} P^img_3(k) sigma^{lin}_{P_3(k)} P_4(k) sigma^{lin}_{P_4(k)} N_modes
### header ###
0.00050000 0 0 0 0 0 0 0 0 0 0 0 0
0.00150000 0.00179520 44251.68018112 0 -2451.38312469 0 -15903.02480037 0 44833.20345357 0 -71555.04363503 0 3
0.00250000 0.00253879 74276.03210916 0 -1851.29592457 0 5851.17424605 0 -45717.90092928 0 -41281.34190940 0 6
0.00350000 0.00331552 61991.87474571 0 -197.47515358 0 -2850.90301404 0 -50926.56555590 0 96456.84998548 0 7
0.00450000 0.00420575 71014.60266403 0 -16680.18331050 0 -12295.91085610 0 -799.27484857 0 -24915.64691191 0 24
0.00550000 0.00557378 58218.12483539 0 7911.98990804 0 9253.17326650 0 -35478.19221467 0 -15572.27931994 0 45
0.00650000 0.00659388 51473.04804182 0 24104.98545540 0 39775.57669995 0 -18225.71267269 0 2435.06004983 0 40
0.00750000 0.00754703 49158.48875320 0 8227.65357031 0 43682.89901286 0 16458.51463580 0 231.66793111 0 57
0.00850000 0.00846663 53974.56475577 0 -4132.36325138 0 56636.01684650 0 2595.80828499 0 -11508.75638492 0 75
0.00950000 0.00948925 47772.78492207 0 2153.77809974 0 49762.53039945 0 25104.25202313 0 -5191.01241848 0 112
0.01050000 0.01054430 55745.60739306 0 -1741.03278500 0 51401.53847431 0 8794.19388576 0 14041.46928501 0 105
0.01150000 0.01145670 48584.21529865 0 -1750.07308823 0 29320.68020848 0 17872.66850993 0 23962.40570330 0 144
0.01250000 0.01249090 60436.01988529 0 -1508.19279999 0 37945.87644507 0 13432.70427255 0 19015.28374984 0 169
0.01350000 0.01339930 62992.12992497 0 -1545.12293301 0 26308.93009812 0 13055.49405010 0 26321.34266514 0 180
0.01450000 0.01448870 59164.77530045 0 1643.44584219 0 36748.88757088 0 9043.29103819 0 22082.50595173 0 267
0.01550000 0.01550050 62319.21500864 0 -1607.01001493 0 28630.84905037 0 230.71886404 0 40637.97549331 0 238
0.01650000 0.01653350 65617.55261764 0 -4587.83855347 0 30155.39787893 0 5893.13531331 0 13940.85060016 0 315
0.01750000 0.01747870 64405.84441619 0 4404.38520679 0 29305.30180686 0 4765.25038523 0 23474.36114351 0 297
0.01850000 0.01844180 74674.11301950 0 5026.60632066 0 35819.92226768 0 3557.24398474 0 22742.78860959 0 388
0.01950000 0.01947590 64204.16766360 0 -1992.16208335 0 36221.95762416 0 10242.83931779 0 23190.84932518 0 399
0.02050000 0.02045430 73185.37389755 0 -4641.34440651 0 39007.64523079 0 4273.04267243 0 21928.83178131 0 462
0.02150000 0.02154770 63812.12826817 0 187.15075381 0 29126.03358233 0 5979.41913094 0 21266.35220893 0 571
0.02250000 0.02255340 74852.50247822 0 875.85599323 0 24748.79125440 0 4743.78653041 0 28347.66676922 0 510
0.02350000 0.02348930 70995.05012483 0 1041.45501564 0 29567.50355438 0 -4842.40602304 0 -1523.26363357 0 555
0.02450000 0.02439640 68365.23360313 0 4565.81448544 0 35857.59935163 0 -7760.74332816 0 16248.70929950 0 592
0.02550000 0.02547300 67956.93704029 0 -232.44673731 0 30890.81501325 0 260.39588378 0 3542.17315116 0 837
0.02650000 0.02652900 67425.06403590 0 1855.25037070 0 36927.82625823 0 2238.54604635 0 -6909.46092225 0 723
0.02750000 0.02749970 68934.12461712 0 465.75356665 0 28866.57797796 0 4125.97023014 0 -11238.75559088 0 826
0.02850000 0.02848090 65720.91744563 0 -1161.86021107 0 29759.07450020 0 -651.29068675 0 -5739.05471371 0 831
0.02950000 0.02946900 64042.14521802 0 2490.70789453 0 31058.21989939 0 -498.74573040 0 -16495.20310823 0 996
0.03050000 0.03053250 60772.69703491 0 5304.59289897 0 25710.60042962 0 -4691.40110377 0 -18413.21932665 0 1041
0.03150000 0.03150510 58451.43715702 0 241.59908318 0 31963.56837155 0 6631.19972962 0 -15447.93395832 0 1036
0.03250000 0.03246190 54774.90071405 0 536.66117958 0 21733.74577227 0 5278.33977050 0 -10862.17148907 0 1059
0.03350000 0.03345080 54679.44477831 0 1076.39254719 0 23328.81555681 0 5298.09003201 0 -10989.73533046 0 1302
0.03450000 0.03451200 51576.52271554 0 1199.01003554 0 16365.91468894 0 1179.21583575 0 -10986.22026723 0 1339
0.03550000 0.03553350 48941.65329045 0 3288.13294107 0 16723.57237219 0 5178.65477433 0 -4341.66329735 0 1365
0.03650000 0.03647120 46659.71818240 0 820.16750562 0 15673.88661632 0 1335.71304132 0 5944.27948325 0 1308
0.03750000 0.03744890 46393.78168021 0 274.65056362 0 11661.33209808 0 2668.87766180 0 -3707.66672167 0 1579
0.03850000 0.03847530 43869.19736384 0 1097.31596104 0 15515.59892542 0 -1286.48018701 0 633.54071592 0 1662
0.03950000 0.03950240 40589.42368250 0 1712.69258774 0 15686.40902906 0 -1966.37030693 0 2643.61314486 0 1683
0.04050000 0.04050350 41455.00800191 0 845.97575889 0 15156.51324774 0 498.72595817 0 1834.29180621 0 1822
0.04150000 0.04152450 42423.07838350 0 112.56660444 0 17380.23012110 0 651.54992266 0 -5429.05909089 0 1887
0.04250000 0.04250150 38863.52763852 0 1495.22001977 0 18162.77107180 0 -597.45529653 0 1604.64833183 0 1920
0.04350000 0.04349210 39689.78718809 0 921.49469539 0 19412.15635720 0 -785.54962512 0 834.12999582 0 2005
0.04450000 0.04448520 38495.76414849 0 -1823.58184795 0 16817.38062204 0 3700.75742552 0 4386.16180088 0 2151
0.04550000 0.04548030 42106.17346453 0 -998.55366896 0 16715.33394276 0 4903.45827745 0 -2621.70990713 0 2274
0.04650000 0.04648670 41128.32681334 0 1047.83265848 0 14001.81497799 0 1724.34721925 0 655.46482433 0 2311
0.04750000 0.04749250 40385.98939829 0 773.68518828 0 14229.41532187 0 -1346.74155219 0 5232.17161195 0 2568
0.04850000 0.04851840 39248.64675322 0 62.77760122 0 14789.29898634 0 -32.15942330 0 3027.65577145 0 2493
0.04950000 0.04949480 38211.15387291 0 1491.48526509 0 16380.52417048 0 1123.08466986 0 3435.28227537 0 2644
0.05050000 0.05050630 37921.27100249 0 856.93946079 0 14631.45067835 0 -1883.38186108 0 -237.47437618 0 2829
0.05150000 0.05149060 36988.35125316 0 807.48911194 0 17750.73975427 0 947.64456888 0 2119.41835671 0 2784
0.05250000 0.05249300 38020.13215572 0 -370.09112095 0 17128.24402609 0 781.03276888 0 1229.74486963 0 3055
0.05350000 0.05348950 38054.73355935 0 -326.03529570 0 16530.46358621 0 303.42574996 0 1167.72597283 0 3009
0.05450000 0.05448610 36989.01032751 0 -188.81052273 0 14619.80703141 0 526.34117364 0 363.96832020 0 3336
0.05550000 0.05550870 37022.95265679 0 768.09623775 0 14331.57184688 0 1822.27468381 0 1568.66287205 0 3349
0.05650000 0.05647670 36711.43017838 0 519.39562839 0 13316.04811173 0 2488.33522685 0 1850.94441825 0 3324
0.05750000 0.05747970 36790.29940952 0 514.51078897 0 13427.98090634 0 631.70519384 0 -560.32085046 0 3639
0.05850000 0.05849280 34528.24637784 0 215.68977184 0 12712.66553984 0 -580.37977845 0 402.41212732 0 3846
0.05950000 0.05951020 33617.51546512 0 1564.26904302 0 12562.61627838 0 -88.83070063 0 -1848.38501284 0 3787
0.06050000 0.06049470 32448.64709674 0 1375.45522492 0 11195.91575781 0 -565.72196480 0 -981.22111189 0 3930
0.06150000 0.06148310 32055.72893550 0 -399.36280997 0 12078.08678182 0 1867.52013827 0 -1557.91996007 0 4083
0.06250000 0.06249100 31300.64941626 0 200.41023137 0 9685.78967304 0 1603.83547346 0 -2935.34142348 0 4303
0.06350000 0.06350600 30571.49348831 0 -82.39220325 0 9035.90940541 0 1148.54690911 0 -1376.91617307 0 4470
0.06450000 0.06451750 31251.65822255 0 731.89548035 0 9478.78540275 0 -864.18158949 0 -1619.57636597 0 4479
0.06550000 0.06550280 30651.79071388 0 407.55839957 0 8959.74237913 0 791.10562194 0 -161.10743068 0 4636
0.06650000 0.06648880 29793.89559528 0 103.84727042 0 10574.62833261 0 120.16133792 0 2197.16716144 0 4653
0.06750000 0.06749660 30063.23731498 0 508.57143057 0 10297.78414984 0 122.58563309 0 -34.48914130 0 5220
0.06850000 0.06852730 29830.03483907 0 -364.63837912 0 10380.06958305 0 1220.35306007 0 1340.04096292 0 5029
0.06950000 0.06949320 29841.67848601 0 -144.17361359 0 10093.07565521 0 859.73173914 0 2780.40402722 0 5040
0.07050000 0.07048030 30816.99868551 0 18.02853959 0 9783.87092162 0 1439.50626764 0 2766.33278974 0 5475
0.07150000 0.07148790 30149.35636401 0 92.26305002 0 9427.65221738 0 -340.56678677 0 1275.86908990 0 5509
0.07250000 0.07249820 30016.00365288 0 803.86639990 0 9911.33590186 0 -353.29351256 0 2237.74417255 0 5916
0.07350000 0.07351270 28217.17004695 0 565.20239451 0 9805.59840619 0 -457.19438769 0 3402.10886618 0 5721
0.07450000 0.07449140 27926.84779363 0 426.70121421 0 9821.26240669 0 122.02102606 0 1768.37338615 0 6028
0.07550000 0.07549160 27091.69074027 0 674.65926646 0 10178.03033956 0 1437.59495201 0 1638.42589252 0 6183
0.07650000 0.07648840 26928.24030026 0 720.34300537 0 9226.45878598 0 1226.33965213 0 3512.24019088 0 6330
0.07750000 0.07749960 26202.16005263 0 -159.81344803 0 9220.49416307 0 -237.50623144 0 235.76078286 0 6583
0.07850000 0.07848650 25804.62837091 0 451.69770757 0 8081.51481668 0 -170.57063996 0 1526.95444996 0 6549
0.07950000 0.07947320 25225.41185870 0 614.04639496 0 8726.89140955 0 -355.30478780 0 658.33069932 0 6828
0.08050000 0.08048110 24672.22878350 0 -93.55274869 0 8837.24242571 0 136.45255752 0 1131.42196045 0 7147
0.08150000 0.08149960 25163.01948644 0 258.43403912 0 8137.85468945 0 946.56258848 0 -868.71382414 0 7386
0.08250000 0.08250610 23981.18932241 0 143.34977064 0 7622.11802219 0 23.03552747 0 -481.00564568 0 7227
0.08350000 0.08350160 23897.48687934 0 530.25937068 0 7890.75672924 0 -804.57270792 0 -1309.85535746 0 7798
0.08450000 0.08449610 22486.40868554 0 608.99898385 0 7578.84979079 0 984.01339024 0 -623.48324126 0 7371
0.08550000 0.08548940 22943.25705920 0 59.02801737 0 7152.34080660 0 781.02727659 0 -66.50587500 0 8256
0.08650000 0.08650700 22368.87375892 0 230.63098746 0 6278.40821203 0 1730.74024049 0 -704.18140373 0 8037
0.08750000 0.08749060 21999.35273729 0 8.32007776 0 5486.49742092 0 447.84322106 0 147.14933430 0 8155
0.08850000 0.08849210 21396.08001112 0 587.66035316 0 5049.06977159 0 -58.34411788 0 832.75253042 0 8718
0.08950000 0.08949900 21017.66148569 0 954.91525747 0 6631.69403539 0 -106.09097921 0 814.32920529 0 8571
0.09050000 0.09049190 19561.65639003 0 457.94353554 0 5497.59183923 0 -722.74313448 0 602.25445629 0 8932
0.09150000 0.09150830 19881.96652651 0 152.43511063 0 6379.41135691 0 926.90789276 0 512.46765847 0 9285
0.09250000 0.09250820 19017.04128145 0 405.94147049 0 5612.36963813 0 287.55633795 0 840.20666138 0 9204
0.09350000 0.09350330 18656.74730078 0 129.33675140 0 5576.38417835 0 -51.92912750 0 685.57353778 0 9349
0.09450000 0.09448040 18623.13450868 0 194.28193833 0 6093.75754694 0 312.64620018 0 989.91649954 0 9564
0.09550000 0.09549270 18146.07452148 0 241.65180913 0 6198.46249278 0 94.21676610 0 1716.27355840 0 10155
0.09650000 0.09649430 17646.60600620 0 166.76228864 0 5387.40559166 0 309.96486601 0 1217.80463923 0 9913
0.09750000 0.09749140 17482.38664611 0 163.76899262 0 6192.09144068 0 106.98358558 0 1416.33980407 0 10476
0.09850000 0.09850240 17510.72684337 0 426.09925963 0 5862.14783406 0 -495.62391487 0 553.44231111 0 10575
0.09950000 0.09950330 16878.23515414 0 462.89538086 0 6922.54354820 0 -222.62652942 0 1688.77917323 0 10882
0.10050000 0.10051200 16911.51840906 0 178.31915746 0 6370.92028231 0 236.02770797 0 756.61845786 0 10875
0.10150000 0.10150300 16502.23323468 0 -304.46928435 0 7037.17854766 0 362.82922002 0 1383.50691662 0 11118
0.10250000 0.10250800 16592.63626702 0 189.98697045 0 6764.84902422 0 6.31603037 0 620.30869978 0 11575
0.10350000 0.10349800 16591.86734694 0 124.73970778 0 6049.87417947 0 373.32607758 0 1696.92972608 0 11364
0.10450000 0.10450100 16359.76332830 0 114.00448499 0 6415.62749271 0 110.34113004 0 936.97964736 0 12093
0.10550000 0.10551000 16816.39201050 0 270.51816742 0 5840.10179689 0 133.26922839 0 784.87956620 0 12067
0.10650000 0.10649700 15939.82311851 0 -48.02477102 0 6215.64236430 0 222.32665059 0 401.66517638 0 12054
0.10750000 0.10749900 15941.58065013 0 155.27022881 0 5717.21738342 0 51.27741280 0 1075.36329274 0 12807
0.10850000 0.10850100 15970.03069311 0 -140.10822328 0 5234.10489672 0 594.90467877 0 691.59857584 0 12736
0.10950000 0.10950300 15810.86423641 0 -7.15453772 0 4966.09231031 0 815.88242385 0 -165.20687317 0 12933
0.11050000 0.11050200 15980.24634561 0 364.77458782 0 4694.25709264 0 -435.77886499 0 426.00039848 0 13428
0.11150000 0.11150900 15513.18231945 0 108.07292564 0 4196.10672607 0 818.97787640 0 176.66817620 0 13453
0.11250000 0.11250000 15285.58197557 0 100.39284203 0 4746.12624437 0 -208.60472252 0 113.15977136 0 13668
0.11350000 0.11349100 14799.29494739 0 631.88424237 0 4681.25135870 0 -766.22336813 0 -196.28113054 0 13791
0.11450000 0.11448600 14562.68725399 0 57.53620257 0 4748.60875777 0 -196.65570447 0 -140.28617335 0 14205
0.11550000 0.11549300 14353.21145486 0 -75.41842766 0 5157.55341040 0 752.44322182 0 -413.42855516 0 14776
0.11650000 0.11649800 14293.45538002 0 -94.27092004 0 3926.65516065 0 429.70329790 0 -149.86801601 0 14553
0.11750000 0.11747300 14402.97156866 0 69.67591280 0 4238.15566991 0 692.54764291 0 119.30783664 0 14568
0.11850000 0.11849100 14752.83020537 0 214.05856281 0 3558.07881226 0 271.89453436 0 -155.93479545 0 16015
0.11950000 0.11950300 14500.07519028 0 124.79463064 0 3439.20376778 0 -399.91533397 0 -266.45058019 0 15270
0.12050000 0.12050700 13649.32004385 0 355.35641529 0 3938.43062246 0 -566.23164897 0 -84.79595727 0 15999
0.12150000 0.12150000 13224.32693068 0 313.47992924 0 4475.78492857 0 -11.57268660 0 277.02872359 0 15670
0.12250000 0.12250700 13077.68288672 0 106.40030478 0 3975.74521552 0 532.31348575 0 -97.94097559 0 16887
0.12350000 0.12352200 13305.06353915 0 226.26022603 0 4136.02111405 0 410.05519292 0 -241.93411265 0 16407
0.12450000 0.12449800 12841.18503904 0 147.39868410 0 3791.11651957 0 -51.81137288 0 79.65704468 0 16306
0.12550000 0.12549900 12663.45465468 0 -9.52359147 0 3716.15779628 0 182.42519069 0 907.32679368 0 17523
0.12650000 0.12650100 12462.43697644 0 14.59838711 0 3510.84515016 0 517.01527152 0 488.11595951 0 17154
0.12750000 0.12750600 12674.65891871 0 201.18244683 0 3481.08794304 0 -31.42521447 0 903.81392736 0 18007
0.12850000 0.12850300 12423.11220660 0 49.60731839 0 3497.42200246 0 113.39484121 0 875.53304680 0 17496
0.12950000 0.12949900 12458.26283886 0 128.98963891 0 4021.29823801 0 -577.12724651 0 173.23110344 0 18405
0.13050000 0.13049000 12300.08499368 0 251.62360412 0 3618.99925179 0 -271.17065103 0 218.94779606 0 18100
0.13150000 0.13148800 12300.85391377 0 -201.38346451 0 4157.14444713 0 24.50240729 0 -536.71061015 0 19059
0.13250000 0.13249300 12204.29952078 0 37.98586029 0 4028.18556502 0 44.22894212 0 151.13343877 0 18957
0.13350000 0.13349100 12180.02361537 0 89.57084113 0 3493.73118608 0 929.15863168 0 358.04104483 0 19468
0.13450000 0.13450700 12386.31388845 0 -334.95806401 0 3333.37839553 0 727.97398794 0 468.88197292 0 19953
0.13550000 0.13551000 12351.93217627 0 257.96280096 0 2765.08054847 0 20.34957978 0 657.15315314 0 19956
0.13650000 0.13649900 12112.79803117 0 404.03015486 0 3181.76932477 0 -415.01692435 0 963.26023726 0 19723
0.13750000 0.13749600 11706.36884566 0 152.86350896 0 3382.67715728 0 -173.39367511 0 1310.32769408 0 20946
0.13850000 0.13851100 11806.98753051 0 177.45247468 0 3527.51973134 0 417.42034883 0 796.43423810 0 20955
0.13950000 0.13949800 11251.05831217 0 12.95278830 0 3137.50149726 0 184.34749089 0 1177.78784132 0 20506
0.14050000 0.14048300 11364.08956403 0 188.08663940 0 3587.62731250 0 394.36043561 0 1173.91028720 0 21447
0.14150000 0.14148400 11080.24820853 0 353.33415548 0 3274.85259282 0 -297.85107937 0 1652.56303743 0 21771
0.14250000 0.14249400 10757.76312668 0 106.75378832 0 3491.41344126 0 4.77755311 0 1415.31823882 0 22470
0.14350000 0.14350900 10651.66314012 0 120.50515505 0 3519.69871566 0 106.57375118 0 1455.82934250 0 22519
0.14450000 0.14449900 10391.49353853 0 -18.20868659 0 3200.79460448 0 244.01678761 0 1818.27629939 0 22218
0.14550000 0.14550500 10463.51938095 0 -19.49124528 0 3242.06364367 0 392.17999796 0 1255.77830664 0 23559
0.14650000 0.14650700 10383.58464627 0 199.03715980 0 3027.41411085 0 55.69760481 0 1548.00089103 0 23044
0.14750000 0.14750500 10321.26916602 0 40.23132662 0 3032.78556685 0 -248.72257850 0 762.03714751 0 23649
0.14850000 0.14849900 10223.49548547 0 111.72738310 0 3144.97100662 0 -200.09387568 0 1231.97473786 0 23640
0.14950000 0.14949500 10186.58732160 0 40.92829775 0 3031.64317130 0 240.24798076 0 975.44322671 0 24457
0.15050000 0.15050000 10122.44840230 0 -213.30392267 0 2726.70045187 0 186.45433191 0 1025.34833686 0 24591
0.15150000 0.15149900 10125.86460437 0 198.31547338 0 3110.69914017 0 159.22247802 0 128.45249331 0 25020
0.15250000 0.15250500 10178.15116986 0 264.08230634 0 2873.34449583 0 -456.81651840 0 951.43534488 0 25297
0.15350000 0.15350100 9819.50487508 0 73.31762815 0 2993.08732154 0 2.92342316 0 682.33858115 0 25452
0.15450000 0.15450400 9748.44567505 0 -3.26937129 0 2852.46282335 0 231.51744247 0 380.56161554 0 26061
0.15550000 0.15549900 9676.00241887 0 314.40812562 0 3227.60794615 0 -42.93089517 0 -67.49547515 0 26128
0.15650000 0.15649500 9377.55158184 0 212.42076304 0 2977.75285821 0 -296.87564933 0 348.01762235 0 26331
0.15750000 0.15749700 9276.86698956 0 -37.80637237 0 3165.33640419 0 45.11671527 0 234.58763050 0 27345
0.15850000 0.15849900 9244.82499134 0 -115.89822531 0 2836.52420854 0 169.24370359 0 -428.70370179 0 26980
0.15950000 0.15949700 9180.15881255 0 132.26304154 0 2732.87378166 0 187.99436899 0 99.72146496 0 27777
0.16050000 0.16050000 9197.29474578 0 112.50069701 0 2494.70627895 0 341.33131302 0 161.58965342 0 28224
0.16150000 0.16150500 9019.47648483 0 51.59003374 0 2594.95148833 0 167.90688111 0 73.11715970 0 28075
0.16250000 0.16249700 9083.83509559 0 154.48593033 0 2241.63271125 0 11.75173513 0 -100.32968074 0 28590
0.16350000 0.16349900 8890.51760273 0 -68.64588943 0 2430.33668362 0 222.41233026 0 498.57656798 0 29163
0.16450000 0.16449100 8964.52066821 0 -39.40935105 0 2107.02775884 0 226.75453180 0 591.94543492 0 28996
0.16550000 0.16550500 8842.21843709 0 198.37698699 0 2050.85265465 0 -55.18638280 0 356.28790705 0 30777
0.16650000 0.16650700 8676.36237568 0 194.98055715 0 2335.02354733 0 -126.69715861 0 745.52843338 0 29211
0.16750000 0.16749900 8523.54500193 0 83.48286146 0 2508.23927237 0 225.28040216 0 1008.58697756 0 30922
0.16850000 0.16850800 8484.68158414 0 -58.77350483 0 2303.62963890 0 75.56232556 0 920.53134838 0 30867
0.16950000 0.16949900 8493.45825763 0 102.25176125 0 2177.26311592 0 226.80506083 0 867.94710097 0 30852
0.17050000 0.17049200 8383.83222327 0 22.83242272 0 2118.27596116 0 -90.74168672 0 1066.21094686 0 31257
0.17150000 0.17149500 8395.15731760 0 50.30846366 0 2063.15537595 0 118.29835441 0 974.64135291 0 32608
0.17250000 0.17250900 8317.56229688 0 15.96409902 0 1873.07833200 0 186.84428424 0 703.81891283 0 32361
0.17350000 0.17350400 8301.10740716 0 117.22735859 0 1815.91461628 0 41.13524709 0 666.24288695 0 32508
0.17450000 0.17449800 8079.63645477 0 203.90991620 0 2019.33791592 0 -229.64127747 0 485.99044472 0 32791
0.17550000 0.17549800 7922.15063767 0 161.50617066 0 2084.55332333 0 -255.65164689 0 574.76446495 0 33633
0.17650000 0.17650100 7745.33197283 0 7.05619284 0 1996.29228264 0 112.40183585 0 367.77447460 0 33984
0.17750000 0.17750300 7763.77507019 0 -11.91551511 0 2119.85773961 0 228.93606791 0 493.70930387 0 34069
0.17850000 0.17849800 7801.55101530 0 41.32352267 0 1899.57312106 0 -3.12596770 0 448.04204182 0 34536
