### header ###
fiducial parameters:
Omega_m = 0.31
Omega_nu = 0
Omega_de = 0.69
Omega_k = 0
H_0 = 100
w_de = -1
zeff = 0
beta = 0
fgrowth = 0
b_1 = 2
gamma = 0.55
Lx = 3500 Ly = 3500 Lz = 3500
nx = 700 ny = 700 nz = 700
xoffset = -983.599254 yoffset = -42.9823471 zoffset = 800.977702
bins = 400 dk = 0.001
kx_ny = 0.628318531 ky_ny = 0.628318531 kz_ny = 0.628318531
############################
A(data) = 9.19557957 (not used)
A(ran) = 9.19363008 (used)
Ngal = 511001
weighted Ngal = 0
Nran = 25229228
weighted Nran = 0
SN(data) = 6692.3208
SN(ran) = 136.473105
SN(data+ran) = 6828.79391
############################
13 columns: k_central k_mean P_0(k) sigma^{lin}_{P_0(k)} P^img_1(k) sigma^{lin}_{P_1(k)} P_2(k) sigma^{lin}_{P_2(k)} P^img_3(k) sigma^{lin}_{P_3(k)} P_4(k) sigma^{lin}_{P_4(k)} N_modes
### header ###
0.00050000 0 0 0 0 0 0 0 0 0 0 0 0
0.00150000 0.00179520 50523.21205071 0 -42509.08758681 0 40622.81678315 0 -151553.04944753 0 -3968.61622791 0 3
0.00250000 0.00253879 63599.57678872 0 -19507.17291003 0 -25004.73179554 0 -49474.40506064 0 -28978.84030974 0 6
0.00350000 0.00331552 78837.92510219 0 -9763.35174004 0 -36935.95484194 0 -11050.91939973 0 17795.99619331 0 7
0.00450000 0.00420575 66599.79309786 0 9957.59193700 0 -20167.34572217 0 -31670.49997508 0 28514.41258101 0 24
0.00550000 0.00557378 71860.52459852 0 -6697.83214690 0 -17468.65593038 0 -9715.87641734 0 -25965.55235923 0 45
0.00650000 0.00659388 54850.69426486 0 -8907.49975194 0 -18119.93123873 0 -9391.35918957 0 -12601.28197387 0 40
0.00750000 0.00754703 78379.09950546 0 3417.46529864 0 -33368.05582180 0 -12848.10531977 0 -17870.69128686 0 57
0.00850000 0.00846663 75833.31496401 0 -9839.56270461 0 -14677.58588319 0 -5679.60620690 0 -20433.06253291 0 75
0.00950000 0.00948925 82563.56258460 0 812.55299990 0 -17897.60348969 0 -12518.89767951 0 -35779.05965768 0 112
0.01050000 0.01054430 89128.82192502 0 4748.16937487 0 -11348.49147096 0 -34311.08137791 0 -14882.44816183 0 105
0.01150000 0.01145670 75134.80599357 0 4367.79559552 0 -7734.89662888 0 -16246.84192216 0 -30351.47249951 0 144
0.01250000 0.01249090 70780.08203942 0 6887.16223991 0 15089.06797209 0 825.29071027 0 -13095.91727720 0 169
0.01350000 0.01339930 65385.11906182 0 -2087.96952541 0 11401.65680226 0 -8221.72190111 0 -25744.32306744 0 180
0.01450000 0.01448870 60663.07100055 0 5446.87606762 0 8610.26820246 0 7188.45808125 0 -20814.99612156 0 267
0.01550000 0.01550050 65510.12349779 0 -3732.15133395 0 17542.91164103 0 522.78656595 0 -23322.77404189 0 238
0.01650000 0.01653350 62912.05239085 0 3134.11824891 0 15201.87953250 0 -3344.96711961 0 -22640.74193031 0 315
0.01750000 0.01747870 63983.70729189 0 -2008.38629706 0 5548.34056455 0 -3538.80088738 0 -4300.47115017 0 297
0.01850000 0.01844180 67339.49421549 0 -11746.46253559 0 4431.49513192 0 9770.21709790 0 -13771.13895378 0 388
0.01950000 0.01947590 75078.01575332 0 5163.44114130 0 6041.92134892 0 2429.82040871 0 -22066.46847576 0 399
0.02050000 0.02045430 81898.77625198 0 3174.28883084 0 4418.82991973 0 -6776.58054774 0 -12822.95064856 0 462
0.02150000 0.02154770 68257.36510039 0 4264.36486009 0 22968.52157614 0 -9576.88862047 0 1447.82158908 0 571
0.02250000 0.02255340 68080.18394465 0 -2420.34072257 0 20120.00221434 0 -1127.22585372 0 -1722.99611682 0 510
0.02350000 0.02348930 70996.36827354 0 -1145.75682767 0 21606.65426750 0 11521.38864339 0 -10563.66572917 0 555
0.02450000 0.02439640 66671.85189400 0 3676.07509093 0 27085.97876253 0 3128.40627117 0 17497.98473918 0 592
0.02550000 0.02547300 65965.98325992 0 2045.67892097 0 22910.08365000 0 -185.88313414 0 12970.36361260 0 837
0.02650000 0.02652900 67436.92737429 0 -398.02818440 0 27812.49839306 0 3872.30349552 0 19772.45033787 0 723
0.02750000 0.02749970 63495.44304065 0 1437.21049197 0 24804.81257456 0 8281.13745420 0 -1278.83492449 0 826
0.02850000 0.02848090 61104.65081832 0 507.38180136 0 21636.42245920 0 -1342.72119863 0 21917.84720873 0 831
0.02950000 0.02946900 65453.55294900 0 -503.27357122 0 18798.33844136 0 8197.94030147 0 4778.54171805 0 996
0.03050000 0.03053250 64621.80111314 0 423.20152938 0 18346.32327963 0 -5522.32909668 0 -1505.11711967 0 1041
0.03150000 0.03150510 60582.88362070 0 4861.65099420 0 21983.86448995 0 -8799.14792799 0 -2932.39755803 0 1036
0.03250000 0.03246190 56198.06193768 0 1718.64622608 0 23645.83032150 0 -3927.80854077 0 -2358.22296463 0 1059
0.03350000 0.03345080 56262.10199583 0 274.92627639 0 23977.67425919 0 -176.90434451 0 -12377.96561329 0 1302
0.03450000 0.03451200 56530.23541254 0 2910.32955171 0 30012.26889820 0 734.41643976 0 -17584.54317112 0 1339
0.03550000 0.03553350 52090.05148371 0 -27.29776132 0 26337.27029538 0 486.65391290 0 -8514.53765241 0 1365
0.03650000 0.03647120 54498.96825080 0 -187.81092662 0 24238.00862936 0 7274.70894516 0 -14728.11491706 0 1308
0.03750000 0.03744890 53118.42716878 0 1417.77878307 0 25693.90387929 0 -4418.96173460 0 -9072.54295497 0 1579
0.03850000 0.03847530 50731.69923830 0 1955.82511725 0 25913.70517665 0 106.15117467 0 -11516.11604855 0 1662
0.03950000 0.03950240 49651.69606211 0 -135.29368511 0 22354.92335174 0 3411.33590714 0 -6579.27565503 0 1683
0.04050000 0.04050350 47476.53099955 0 307.40655906 0 24629.82833334 0 4788.51570996 0 -4301.98702118 0 1822
0.04150000 0.04152450 47539.80213762 0 823.94180475 0 17751.17913718 0 2986.92497632 0 -9451.45578617 0 1887
0.04250000 0.04250150 46520.87318497 0 2277.77195504 0 20659.89395672 0 -167.01603227 0 -130.82406253 0 1920
0.04350000 0.04349210 43114.44738177 0 647.72509449 0 18744.07465280 0 2417.69344058 0 -4292.29862817 0 2005
0.04450000 0.04448520 44581.10751283 0 1447.00873071 0 19027.03724250 0 362.08336754 0 557.69334070 0 2151
0.04550000 0.04548030 40540.10295161 0 366.05538899 0 16189.28276184 0 3848.96127878 0 -5.49170411 0 2274
0.04650000 0.04648670 41133.81909963 0 293.05191961 0 15780.76650754 0 2940.07577426 0 -228.36267322 0 2311
0.04750000 0.04749250 40668.29291363 0 -77.05348129 0 13838.80392088 0 657.97150379 0 -632.13578908 0 2568
0.04850000 0.04851840 38780.59411553 0 3219.73200761 0 16226.74015434 0 -4495.61208208 0 -2444.50678225 0 2493
0.04950000 0.04949480 36492.61749256 0 1475.19514396 0 18777.46775345 0 -2246.14737058 0 1993.63401608 0 2644
0.05050000 0.05050630 36464.05760385 0 -411.63367600 0 18557.88614755 0 3333.68596357 0 -3664.14584510 0 2829
0.05150000 0.05149060 35153.37840344 0 -437.02451552 0 18999.79550250 0 28.43060029 0 -3787.50259519 0 2784
0.05250000 0.05249300 36897.39899218 0 679.17282733 0 17295.31937505 0 1974.57578265 0 -1986.93342680 0 3055
0.05350000 0.05348950 37286.47255301 0 113.64968330 0 17413.73306748 0 3048.55941307 0 1951.70590254 0 3009
0.05450000 0.05448610 35809.15738655 0 -1628.01251771 0 14341.01857930 0 2593.27084872 0 349.83007683 0 3336
0.05550000 0.05550870 37560.42779319 0 56.24430699 0 13406.01176117 0 2748.64762788 0 927.93714721 0 3349
0.05650000 0.05647670 35780.81718929 0 2623.53334618 0 12623.03142758 0 -809.19831144 0 6214.66473734 0 3324
0.05750000 0.05747970 35091.53525981 0 277.30883019 0 13121.95071422 0 -658.05388809 0 4651.13166068 0 3639
0.05850000 0.05849280 34411.91975420 0 304.44621675 0 14665.17331617 0 1265.23602364 0 2795.60667567 0 3846
0.05950000 0.05951020 33840.28259707 0 554.95268984 0 14016.42445952 0 157.23207347 0 2742.41937523 0 3787
0.06050000 0.06049470 32582.10965360 0 67.23184540 0 14224.58210994 0 -2121.59330208 0 127.97686132 0 3930
0.06150000 0.06148310 31895.02463864 0 1102.42268884 0 13878.89761080 0 124.35634619 0 1445.78944316 0 4083
0.06250000 0.06249100 32156.78700325 0 277.74601618 0 13056.81219881 0 2136.22475276 0 277.65923805 0 4303
0.06350000 0.06350600 31521.65901660 0 -140.02144515 0 12240.87814747 0 909.87082069 0 -1376.86125021 0 4470
0.06450000 0.06451750 30871.92154841 0 1093.69874129 0 11468.00362065 0 832.93707124 0 -1080.84459446 0 4479
0.06550000 0.06550280 30385.63452024 0 361.09475601 0 11697.36149615 0 -37.96729636 0 105.09852308 0 4636
0.06650000 0.06648880 29795.10389826 0 436.31710905 0 10980.84881124 0 206.30125765 0 -464.33655679 0 4653
0.06750000 0.06749660 28473.22043383 0 -64.40046198 0 9667.53331341 0 1634.99870587 0 370.44592265 0 5220
0.06850000 0.06852730 28765.19037304 0 277.43515277 0 10095.81081379 0 200.48822184 0 -1283.58025985 0 5029
0.06950000 0.06949320 28334.04589922 0 242.24497605 0 9885.63200202 0 -585.87316320 0 -463.40726195 0 5040
0.07050000 0.07048030 28383.14693866 0 57.68306630 0 8872.62373399 0 617.70096225 0 -1801.31611932 0 5475
0.07150000 0.07148790 28283.73655680 0 -212.91836417 0 9177.41266941 0 810.83940658 0 -588.38643341 0 5509
0.07250000 0.07249820 28576.80495327 0 512.19633952 0 8778.52988526 0 8.83039904 0 -2488.82953262 0 5916
0.07350000 0.07351270 27668.71033797 0 743.77639406 0 9890.11370763 0 -509.88189008 0 -1436.01317356 0 5721
0.07450000 0.07449140 26631.32730339 0 357.85430710 0 8775.65192724 0 -187.61649969 0 -928.32050879 0 6028
0.07550000 0.07549160 26821.14071759 0 131.70282834 0 9015.14856323 0 2293.89730759 0 625.36709546 0 6183
0.07650000 0.07648840 26579.91950371 0 218.38648440 0 8888.58431795 0 1020.85125285 0 760.07310594 0 6330
0.07750000 0.07749960 25269.24030330 0 392.60839629 0 7274.95060575 0 790.08735206 0 2001.01564885 0 6583
0.07850000 0.07848650 25302.63340395 0 277.91298168 0 7325.87508424 0 1920.67448499 0 3564.03245060 0 6549
0.07950000 0.07947320 25499.69663606 0 -195.16509797 0 5967.85237601 0 1352.04710075 0 4254.77532823 0 6828
0.08050000 0.08048110 24628.94956753 0 489.94489085 0 6234.68961315 0 -655.46702124 0 2442.43069803 0 7147
0.08150000 0.08149960 24406.73166421 0 723.13638217 0 5856.29305687 0 -1658.49470662 0 1847.03391041 0 7386
0.08250000 0.08250610 23650.99307062 0 594.57843697 0 7672.19668858 0 -1148.29426394 0 999.48186535 0 7227
0.08350000 0.08350160 22254.63420408 0 361.77579951 0 8413.30383150 0 -364.41429384 0 827.43929266 0 7798
0.08450000 0.08449610 22766.62513209 0 12.31524370 0 7035.10246344 0 1101.79656820 0 -237.35684125 0 7371
0.08550000 0.08548940 22547.37306337 0 -183.09415116 0 6601.15692361 0 2123.77923202 0 861.38491731 0 8256
0.08650000 0.08650700 22490.14344022 0 15.35797031 0 6175.61458181 0 703.02362978 0 595.46599043 0 8037
0.08750000 0.08749060 22201.57871851 0 790.49158433 0 6045.30459728 0 -1004.80279231 0 1230.79938859 0 8155
0.08850000 0.08849210 21234.71663990 0 817.87063149 0 6579.82488366 0 360.29837450 0 1605.63694336 0 8718
0.08950000 0.08949900 20749.52806898 0 65.93138186 0 6534.20595373 0 -718.67554725 0 339.53094157 0 8571
0.09050000 0.09049190 20346.94348387 0 232.26549186 0 6300.45424920 0 67.59444615 0 106.89790592 0 8932
0.09150000 0.09150830 19420.94401527 0 602.52577523 0 7224.82800106 0 -29.87792758 0 413.37143538 0 9285
0.09250000 0.09250820 18879.84396991 0 766.05530416 0 7381.39111407 0 -353.67907106 0 1037.52144020 0 9204
0.09350000 0.09350330 18517.68261190 0 187.35726378 0 7147.18904206 0 942.14679030 0 536.51838013 0 9349
0.09450000 0.09448040 18553.38247279 0 -240.51380741 0 6328.86035389 0 382.05771432 0 653.18772243 0 9564
0.09550000 0.09549270 18265.58667116 0 70.64892624 0 6029.20121388 0 832.82063477 0 252.98569112 0 10155
0.09650000 0.09649430 17910.23574815 0 714.43879761 0 5880.63486971 0 -199.18325462 0 589.07516611 0 9913
0.09750000 0.09749140 17386.71101893 0 397.22191677 0 6556.15312975 0 -940.11025055 0 768.74322908 0 10476
0.09850000 0.09850240 16733.45848752 0 198.87678504 0 6329.56336654 0 814.42806644 0 103.81014256 0 10575
0.09950000 0.09950330 17094.19185109 0 -84.50354795 0 6083.55287901 0 324.88850632 0 920.47313014 0 10882
0.10050000 0.10051200 16659.20277687 0 -41.81057862 0 5700.98218514 0 605.53005583 0 419.00102883 0 10875
0.10150000 0.10150300 16564.95514412 0 438.14604038 0 5996.55506416 0 725.27947229 0 1716.88869446 0 11118
0.10250000 0.10250800 16339.11233184 0 105.32359697 0 5940.96214233 0 101.51524566 0 1962.54767567 0 11575
0.10350000 0.10349800 16433.68950177 0 -243.84542828 0 5746.55717678 0 311.40054965 0 1996.92938785 0 11364
0.10450000 0.10450100 16359.65348257 0 423.41572855 0 5986.83371743 0 -459.01233446 0 1274.32026516 0 12093
0.10550000 0.10551000 15918.51304771 0 280.39659354 0 6261.44803196 0 -313.85450317 0 2873.69600215 0 12067
0.10650000 0.10649700 15995.40505577 0 -223.10655524 0 6786.71930823 0 255.79554479 0 1569.81625217 0 12054
0.10750000 0.10749900 16276.82980531 0 -169.94561778 0 5286.18275533 0 1150.41428644 0 1761.07962996 0 12807
0.10850000 0.10850100 16462.79861911 0 76.11056558 0 6305.00186225 0 -140.67612568 0 1406.70633391 0 12736
0.10950000 0.10950300 16139.74233949 0 339.34859767 0 6025.06003001 0 -948.84298575 0 991.72126482 0 12933
0.11050000 0.11050200 15841.95057681 0 547.97089551 0 6676.37927665 0 -651.45215997 0 1081.45643515 0 13428
0.11150000 0.11150900 15194.30017742 0 229.29526343 0 6749.34979231 0 -32.56200789 0 240.30729745 0 13453
0.11250000 0.11250000 15298.10438831 0 72.91383526 0 6855.21910285 0 -57.49830579 0 167.50814112 0 13668
0.11350000 0.11349100 14893.87211732 0 44.99302898 0 7269.94164066 0 820.16750562 0 328.07842620 0 13791
0.11450000 0.11448600 14851.58151288 0 -0.07298161 0 6385.45287183 0 920.82463646 0 1078.15776800 0 14205
0.11550000 0.11549300 14993.39234490 0 -6.33102431 0 6194.56296951 0 309.36950218 0 536.63481660 0 14776
0.11650000 0.11649800 15085.44306314 0 304.00463693 0 6031.52994326 0 -181.14658644 0 793.72434404 0 14553
0.11750000 0.11747300 14369.24893083 0 111.44727650 0 5916.12602372 0 8.69861712 0 1008.32993856 0 14568
0.11850000 0.11849100 14532.80921657 0 -89.56677683 0 5631.73543959 0 293.92409467 0 466.83884242 0 16015
0.11950000 0.11950300 14343.43518527 0 299.63826933 0 5778.44539099 0 -12.40015445 0 298.75840507 0 15270
0.12050000 0.12050700 14007.52695573 0 351.63813747 0 5394.15011923 0 -102.24319328 0 231.87444108 0 15999
0.12150000 0.12150000 14047.51079992 0 -64.44703656 0 5319.86145486 0 1057.59464813 0 309.75066685 0 15670
0.12250000 0.12250700 14034.21946710 0 -71.20145024 0 4870.09813052 0 139.00866756 0 -343.59193806 0 16887
0.12350000 0.12352200 13671.17934329 0 281.52361069 0 4547.83274013 0 -40.28844639 0 230.93306321 0 16407
0.12450000 0.12449800 13222.78909052 0 301.35186265 0 4805.40998259 0 -68.23748302 0 452.92248742 0 16306
0.12550000 0.12549900 13291.44266915 0 -155.61404593 0 4132.44014339 0 761.90203727 0 1013.77389273 0 17523
0.12650000 0.12650100 13535.41002618 0 -282.93732518 0 3802.63933621 0 1121.10744680 0 300.13147664 0 17154
0.12750000 0.12750600 13363.83100246 0 248.37107218 0 3572.05118858 0 239.45818999 0 1071.79330665 0 18007
0.12850000 0.12850300 13309.23767673 0 337.39224529 0 3193.67660144 0 -62.02109371 0 1688.71326579 0 17496
0.12950000 0.12949900 12835.58290703 0 66.75950878 0 3652.95256564 0 -171.07373338 0 1896.05805784 0 18405
0.13050000 0.13049000 12643.13319540 0 227.51795959 0 3610.26651659 0 468.29319983 0 1532.49067454 0 18100
0.13150000 0.13148800 12890.17623275 0 28.74970213 0 3718.03615819 0 -460.87312105 0 1746.94248505 0 19059
0.13250000 0.13249300 12353.36017070 0 65.69905815 0 3825.80579978 0 -70.69264484 0 1445.35006025 0 18957
0.13350000 0.13349100 12423.88112668 0 326.76467132 0 4137.22941704 0 -179.65597994 0 1237.06059497 0 19468
0.13450000 0.13450700 12017.67163262 0 71.76935265 0 4042.78406198 0 -7.40437084 0 1721.44729209 0 19953
0.13550000 0.13551000 12224.95051723 0 118.19839480 0 4277.60127005 0 301.22444161 0 1007.14360472 0 19956
0.13650000 0.13649900 12275.04016820 0 -17.37660521 0 3854.89294798 0 176.98892572 0 933.32508006 0 19723
0.13750000 0.13749600 12033.59926286 0 13.21795588 0 3649.59128643 0 457.59752151 0 1084.73313315 0 20946
0.13850000 0.13851100 12015.36487238 0 106.40843336 0 3593.93245716 0 -247.89214481 0 762.54793014 0 20955
0.13950000 0.13949800 11606.29938945 0 301.71545201 0 3459.42636591 0 -265.02478267 0 912.79601236 0 20506
0.14050000 0.14048300 11186.35917966 0 96.03284548 0 3597.84296500 0 199.17336850 0 910.30910513 0 21447
0.14150000 0.14148400 11310.92423273 0 73.86345156 0 3644.20884587 0 482.09751219 0 650.19442641 0 21771
0.14250000 0.14249400 11143.18980942 0 291.48222419 0 3773.56317259 0 -342.25731249 0 480.40149419 0 22470
0.14350000 0.14350900 10789.00325110 0 311.01608961 0 3444.68506950 0 -130.46157163 0 699.33720722 0 22519
0.14450000 0.14449900 10583.31712952 0 59.29933631 0 3816.96321886 0 308.66099725 0 675.23595652 0 22218
0.14550000 0.14550500 10737.77120459 0 -75.28990816 0 3570.01904265 0 44.10470660 0 288.39775621 0 23559
0.14650000 0.14650700 10414.31948036 0 185.81832516 0 3746.99149151 0 116.54301972 0 646.50580693 0 23044
0.14750000 0.14750500 10174.83382894 0 128.18666665 0 3344.54970585 0 -199.99721145 0 1099.75343770 0 23649
0.14850000 0.14849900 10119.49355227 0 97.45875285 0 3936.94770516 0 206.20788878 0 744.20918622 0 23640
0.14950000 0.14949500 10019.40212691 0 178.56521188 0 3440.44502448 0 -106.64548044 0 -40.60908607 0 24457
0.15050000 0.15050000 9913.33509407 0 217.09030484 0 3557.55155277 0 52.63807181 0 126.51701162 0 24591
0.15150000 0.15149900 9801.10571600 0 -75.31868774 0 3536.42821970 0 132.91332823 0 402.04853796 0 25020
0.15250000 0.15250500 9819.38404478 0 77.56854789 0 3556.70574069 0 -177.52277594 0 -208.00166949 0 25297
0.15350000 0.15350100 9616.47702005 0 43.59677996 0 3200.32226786 0 317.58486401 0 63.91373556 0 25452
0.15450000 0.15450400 9662.35957973 0 -86.94739566 0 3171.67450256 0 141.18910522 0 -381.30746802 0 26061
0.15550000 0.15549900 9769.23947094 0 -10.06267036 0 2661.48504445 0 264.87649094 0 127.58471208 0 26128
0.15650000 0.15649500 9681.99999550 0 240.72471121 0 3048.10904560 0 -33.14946283 0 -584.76811520 0 26331
0.15750000 0.15749700 9461.67143867 0 136.06919594 0 3261.55027543 0 -313.97972729 0 73.43098894 0 27345
0.15850000 0.15849900 9363.91972726 0 186.17861914 0 3319.80146382 0 166.05158680 0 -148.01272170 0 26980
0.15950000 0.15949700 9234.36767824 0 -53.31219503 0 3272.33712570 0 -100.37317965 0 62.87129963 0 27777
0.16050000 0.16050000 9146.89752677 0 190.24510791 0 3643.08841947 0 -135.87367054 0 -146.55946275 0 28224
0.16150000 0.16150500 8982.52438267 0 144.80522651 0 3250.86228630 0 150.57432403 0 207.91049753 0 28075
0.16250000 0.16249700 9184.99202449 0 -86.79855470 0 3505.02332669 0 475.78797370 0 125.34276081 0 28590
0.16350000 0.16349900 9152.92805712 0 12.18386822 0 3319.43897293 0 138.62530598 0 2.01683343 0 29163
0.16450000 0.16449100 9057.08766135 0 24.11816694 0 3163.18342796 0 -362.05261074 0 -260.07733118 0 28996
0.16550000 0.16550500 8807.12272769 0 234.52721536 0 3309.20135128 0 -14.69263475 0 203.62541577 0 30777
0.16650000 0.16650700 8806.45266876 0 44.28792927 0 3246.18285838 0 -94.00740015 0 44.87351683 0 29211
0.16750000 0.16749900 8708.45929676 0 8.41411669 0 3119.68452054 0 553.53567998 0 5.34214915 0 30922
0.16850000 0.16850800 8462.66850068 0 227.71678035 0 3164.95194414 0 201.21979437 0 42.55730986 0 30867
0.16950000 0.16949900 8449.77261247 0 159.46963091 0 2971.68937415 0 54.28257217 0 759.02407926 0 30852
0.17050000 0.17049200 8295.02195395 0 -13.92481312 0 2962.80285493 0 276.26309888 0 534.89925413 0 31257
0.17150000 0.17149500 8319.28687478 0 42.18822822 0 2674.32600980 0 106.24882752 0 671.33863017 0 32608
0.17250000 0.17250900 8117.44535360 0 133.59766711 0 2780.96424042 0 -108.28174237 0 835.41079699 0 32361
0.17350000 0.17350400 7970.66949476 0 20.43053608 0 2746.35185221 0 56.17807002 0 720.90651394 0 32508
0.17450000 0.17449800 7957.96034429 0 140.22575820 0 2953.14741563 0 16.76915835 0 529.67059759 0 32791
0.17550000 0.17549800 7763.79703934 0 147.29762603 0 2551.96885582 0 68.22177509 0 877.05660701 0 33633
0.17650000 0.17650100 7784.83249583 0 13.83539870 0 2674.84228471 0 225.43748154 0 535.15409622 0 33984
0.17750000 0.17750300 7908.83733570 0 -28.18103080 0 2473.13257840 0 169.86982423 0 444.89715869 0 34069
0.17850000 0.17849800 7673.66862131 0 -35.29474985 0 2353.55452128 0 291.61843289 0 472.88694808 0 34536
