### header ###
fiducial parameters:
Omega_m = 0.31
Omega_nu = 0
Omega_de = 0.69
Omega_k = 0
H_0 = 100
w_de = -1
zeff = 0
beta = 0
fgrowth = 0
b_1 = 2
gamma = 0.55
Lx = 3500 Ly = 3500 Lz = 3500
nx = 700 ny = 700 nz = 700
xoffset = -983.599254 yoffset = -42.9823471 zoffset = 800.977702
bins = 400 dk = 0.001
kx_ny = 0.628318531 ky_ny = 0.628318531 kz_ny = 0.628318531
############################
A(data) = 9.05054862 (not used)
A(ran) = 9.05129775 (used)
Ngal = 503052
weighted Ngal = 0
Nran = 25229228
weighted Nran = 0
SN(data) = 6719.59909
SN(ran) = 134.360279
SN(data+ran) = 6853.95937
############################
13 columns: k_central k_mean P_0(k) sigma^{lin}_{P_0(k)} P^img_1(k) sigma^{lin}_{P_1(k)} P_2(k) sigma^{lin}_{P_2(k)} P^img_3(k) sigma^{lin}_{P_3(k)} P_4(k) sigma^{lin}_{P_4(k)} N_modes
### header ###
0.00050000 0 0 0 0 0 0 0 0 0 0 0 0
0.00150000 0.00179520 29749.07853915 0 -36902.23220412 0 -34239.68165613 0 34684.66669140 0 53386.12120259 0 3
0.00250000 0.00253879 36529.19611926 0 -8128.83635536 0 9766.61415810 0 -50701.38181798 0 35116.36039384 0 6
0.00350000 0.00331552 42113.31343671 0 5531.20463133 0 -33533.48348487 0 -45643.64521863 0 -29471.82792720 0 7
0.00450000 0.00420575 31549.34013950 0 6836.42449916 0 -10496.83558959 0 -6370.44794569 0 22891.08033944 0 24
0.00550000 0.00557378 24703.20527818 0 -1783.31240486 0 2352.82953949 0 -13524.97468223 0 -16670.18734945 0 45
0.00650000 0.00659388 34459.48295348 0 404.71229682 0 1185.63082614 0 6762.47635654 0 15906.32017214 0 40
0.00750000 0.00754703 40275.15506095 0 -12372.47332700 0 -8194.34834624 0 6053.29038155 0 -29493.79707236 0 57
0.00850000 0.00846663 51973.39532290 0 -11718.89125841 0 8167.75469602 0 -3194.28075294 0 12604.24780846 0 75
0.00950000 0.00948925 54234.67943449 0 5040.26014438 0 -1527.86616948 0 -5500.61259669 0 7413.34523570 0 112
0.01050000 0.01054430 58388.93493903 0 -2745.03370351 0 1489.35425801 0 3833.05561769 0 24372.78933494 0 105
0.01150000 0.01145670 71768.47388029 0 5615.31350358 0 26438.65790031 0 21046.33122013 0 7353.21568539 0 144
0.01250000 0.01249090 72776.74779753 0 -13341.20278294 0 10368.11836808 0 -1468.25289409 0 43368.95992848 0 169
0.01350000 0.01339930 74725.63066491 0 -8681.07475732 0 3823.41116296 0 27037.64664317 0 27449.67796070 0 180
0.01450000 0.01448870 84210.36970600 0 -8.78101240 0 9985.11927588 0 -4265.67202423 0 19235.30473864 0 267
0.01550000 0.01550050 83016.45651213 0 12022.72453601 0 26139.32829747 0 -22410.61513473 0 44299.35322612 0 238
0.01650000 0.01653350 72444.68416839 0 6863.95183805 0 36995.93060824 0 -17629.25038152 0 -775.60089774 0 315
0.01750000 0.01747870 69889.23320307 0 224.01168402 0 52558.54350431 0 3369.60551591 0 9176.08353612 0 297
0.01850000 0.01844180 72067.69363740 0 3167.76399473 0 50614.05446596 0 3640.18849230 0 4652.66950084 0 388
0.01950000 0.01947590 72232.57207185 0 -6512.46748459 0 51403.73538883 0 358.21569954 0 11280.82650386 0 399
0.02050000 0.02045430 73585.43203097 0 -2522.61807788 0 35528.50155710 0 12947.29601018 0 -25461.36047775 0 462
0.02150000 0.02154770 86711.22734559 0 2421.12062723 0 43373.90298614 0 4047.73810422 0 116.50677063 0 571
0.02250000 0.02255340 88344.30375126 0 -1339.07432053 0 34902.49076569 0 7397.15397572 0 -3027.94137034 0 510
0.02350000 0.02348930 79596.62953038 0 -2156.89771835 0 40823.83446138 0 6277.76012225 0 16222.78570821 0 555
0.02450000 0.02439640 83427.82875530 0 -138.56379237 0 34959.06131448 0 -2667.39474450 0 -3342.25393018 0 592
0.02550000 0.02547300 76875.64105626 0 8705.74610734 0 35743.03025961 0 6561.84313834 0 2530.99930676 0 837
0.02650000 0.02652900 76740.31112205 0 4126.05810672 0 42432.74480737 0 -349.68068664 0 1616.28099419 0 723
0.02750000 0.02749970 68808.13156961 0 -317.40032320 0 38121.30006920 0 3790.91879727 0 10984.27599788 0 826
0.02850000 0.02848090 67657.38774599 0 2229.69248085 0 37956.75117193 0 7463.81934672 0 12485.17504168 0 831
0.02950000 0.02946900 62209.47912855 0 3425.41812919 0 33645.85566238 0 4995.78360999 0 14799.40479312 0 996
0.03050000 0.03053250 61508.66339786 0 2161.55517713 0 32175.46077664 0 6000.48754115 0 13338.45663980 0 1041
0.03150000 0.03150510 56322.62699076 0 2333.65047576 0 32976.23611782 0 -464.43651640 0 18359.17522955 0 1036
0.03250000 0.03246190 55096.96838213 0 4349.72597362 0 37093.36376703 0 1267.74050619 0 11861.91039342 0 1059
0.03350000 0.03345080 51078.15265752 0 312.82854409 0 33112.00543493 0 3081.43623881 0 13576.05294473 0 1302
0.03450000 0.03451200 49958.05579140 0 -12.15915293 0 32975.46719774 0 -90.83110114 0 7758.81004339 0 1339
0.03550000 0.03553350 49468.58323718 0 2580.80335884 0 33535.02132503 0 6172.36314833 0 9416.62370651 0 1365
0.03650000 0.03647120 48944.94866222 0 -269.60315252 0 31977.62862445 0 2726.98605075 0 12038.65216625 0 1308
0.03750000 0.03744890 46978.16094153 0 982.56891894 0 30006.33722900 0 2011.76954541 0 6605.28712290 0 1579
0.03850000 0.03847530 45888.82087864 0 2619.01868685 0 29574.53368083 0 -2453.90957638 0 6911.49306818 0 1662
0.03950000 0.03950240 42550.93880835 0 1294.44400213 0 30723.30028139 0 4735.30644037 0 9179.43383076 0 1683
0.04050000 0.04050350 42793.36832522 0 583.31925007 0 30289.51951015 0 3809.23007976 0 9527.65576616 0 1822
0.04150000 0.04152450 41143.59536923 0 -1105.68510689 0 24729.45840665 0 3129.37291355 0 7669.41759172 0 1887
0.04250000 0.04250150 42228.76129454 0 772.80861939 0 23303.22150269 0 5300.97897459 0 10317.95182510 0 1920
0.04350000 0.04349210 38527.07018035 0 1925.26603633 0 22296.81496279 0 763.72218095 0 7521.51032191 0 2005
0.04450000 0.04448520 40280.09811861 0 467.84393081 0 21934.32406760 0 2633.86982898 0 11497.22258371 0 2151
0.04550000 0.04548030 39142.42593636 0 -227.47402130 0 21518.22845822 0 556.47625006 0 4870.38372941 0 2274
0.04650000 0.04648670 39223.38223628 0 296.47910626 0 19946.00658465 0 606.09136749 0 8651.72397938 0 2311
0.04750000 0.04749250 37023.72157687 0 -224.40712864 0 16557.81517194 0 1525.03214976 0 3693.25496244 0 2568
0.04850000 0.04851840 37526.04608101 0 675.01077278 0 17591.90283475 0 987.75912949 0 2220.60823933 0 2493
0.04950000 0.04949480 37887.54836467 0 504.45001894 0 15596.00599672 0 2538.13927894 0 2805.13030010 0 2644
0.05050000 0.05050630 37191.12646301 0 42.37112136 0 15460.23667961 0 409.21377466 0 2375.30397499 0 2829
0.05150000 0.05149060 35898.13242446 0 -766.12890080 0 13692.59925982 0 -525.67550854 0 1625.70575747 0 2784
0.05250000 0.05249300 37455.08574214 0 663.08372387 0 12103.79068166 0 1643.80833308 0 -3520.48960489 0 3055
0.05350000 0.05348950 35450.84062895 0 1527.38284829 0 12548.33633402 0 -531.43801531 0 1087.42984572 0 3009
0.05450000 0.05448610 36015.22796818 0 489.23199209 0 14995.80895087 0 394.42085076 0 -1361.04346569 0 3336
0.05550000 0.05550870 36239.75263174 0 -563.32513106 0 12443.87304877 0 902.80774052 0 414.44023429 0 3349
0.05650000 0.05647670 35149.31411159 0 524.74511524 0 14053.99169775 0 340.11312392 0 -1698.75316513 0 3324
0.05750000 0.05747970 34349.08799904 0 862.23841860 0 12779.89112404 0 -156.34232309 0 101.30873569 0 3639
0.05850000 0.05849280 33419.24393003 0 562.16296328 0 15517.35645703 0 -599.87629633 0 1442.39521023 0 3846
0.05950000 0.05951020 32190.61948680 0 471.62042687 0 15220.22376871 0 783.03415800 0 636.84377689 0 3787
0.06050000 0.06049470 32428.76502037 0 463.08651243 0 14840.59694030 0 2343.44871450 0 2212.74328536 0 3930
0.06150000 0.06148310 32615.39290852 0 613.10721400 0 14576.52781544 0 305.96538314 0 -1028.38337427 0 4083
0.06250000 0.06249100 31338.10680877 0 482.15133660 0 14688.89999295 0 111.20891127 0 3015.07843584 0 4303
0.06350000 0.06350600 30985.94141181 0 -62.97609245 0 12829.87092928 0 721.44695491 0 1310.03111062 0 4470
0.06450000 0.06451750 30617.73853888 0 338.60274519 0 13913.27932298 0 912.99593159 0 1977.86016985 0 4479
0.06550000 0.06550280 30063.56685215 0 512.21940713 0 12673.23092427 0 -204.99738888 0 234.11529388 0 4636
0.06650000 0.06648880 29339.35398186 0 410.38582855 0 13608.89681675 0 970.63088546 0 3894.42642470 0 4653
0.06750000 0.06749660 29945.26300545 0 -31.55142721 0 12071.16650109 0 1646.73022939 0 1390.04273731 0 5220
0.06850000 0.06852730 30066.42284102 0 -778.80180219 0 10390.18637439 0 2376.68803113 0 1682.48501314 0 5029
0.06950000 0.06949320 29960.53156134 0 -44.26112691 0 9599.97819204 0 342.31443227 0 3039.03578864 0 5040
0.07050000 0.07048030 29332.76323832 0 924.22875551 0 9762.17639077 0 -681.71026360 0 3533.12186335 0 5475
0.07150000 0.07148790 28634.69365077 0 1545.50739305 0 11421.86841581 0 468.22729240 0 4709.73435540 0 5509
0.07250000 0.07249820 26857.17011566 0 557.96795501 0 10350.83963541 0 694.20082108 0 3953.16093429 0 5916
0.07350000 0.07351270 27332.80210843 0 -40.28350334 0 10526.58181214 0 1374.70827398 0 4032.46954833 0 5721
0.07450000 0.07449140 26469.74424071 0 -4.44034870 0 9982.40608646 0 -163.56138419 0 4018.43126457 0 6028
0.07550000 0.07549160 26123.07113005 0 454.76130487 0 10153.00748322 0 1376.18020671 0 3636.31093818 0 6183
0.07650000 0.07648840 25983.67690399 0 249.44536338 0 7553.89284188 0 -368.70376944 0 2894.50078262 0 6330
0.07750000 0.07749960 25262.75940548 0 207.68531380 0 8421.01500145 0 -192.66500925 0 2069.27378287 0 6583
0.07850000 0.07848650 24877.31075360 0 619.44750929 0 9132.85924302 0 434.89460690 0 855.12261248 0 6549
0.07950000 0.07947320 23538.73073883 0 893.87288918 0 9137.45079435 0 -43.42673878 0 1807.62126399 0 6828
0.08050000 0.08048110 23115.82469445 0 221.48523233 0 8871.26164699 0 273.60263540 0 1357.91286251 0 7147
0.08150000 0.08149960 22541.99062280 0 764.47791954 0 9085.38392032 0 -123.14694475 0 1007.05462968 0 7386
0.08250000 0.08250610 21896.64698365 0 581.44198662 0 8754.17708785 0 919.17914749 0 2526.82516918 0 7227
0.08350000 0.08350160 21493.84270709 0 -208.08075841 0 9357.32898372 0 -80.12476778 0 2238.94149096 0 7798
0.08450000 0.08449610 21328.63473547 0 145.28964616 0 8115.58896083 0 1231.65618526 0 1538.08182198 0 7371
0.08550000 0.08548940 21229.33419933 0 217.13204622 0 8387.20448705 0 507.57073601 0 2537.93057206 0 8256
0.08650000 0.08650700 21186.49436627 0 199.85001817 0 8145.96130402 0 385.53872537 0 1654.56222964 0 8037
0.08750000 0.08749060 20728.21799817 0 504.33138556 0 7663.77152141 0 -364.86575978 0 2313.17523247 0 8155
0.08850000 0.08849210 20187.99671862 0 -164.53571578 0 7830.86883952 0 67.79502444 0 2253.03469759 0 8718
0.08950000 0.08949900 19778.16231561 0 132.57170803 0 7770.66239720 0 691.89186392 0 2170.89206382 0 8571
0.09050000 0.09049190 20025.97427305 0 297.72475679 0 7695.07755327 0 522.31203241 0 2075.96338758 0 8932
0.09150000 0.09150830 19517.82794543 0 345.99536254 0 6988.36310711 0 461.15542457 0 2381.93865683 0 9285
0.09250000 0.09250820 19390.73644067 0 220.34283678 0 6578.93513328 0 497.65715926 0 2891.68873204 0 9204
0.09350000 0.09350330 19191.14675686 0 274.33970022 0 7511.94275920 0 712.38907636 0 2007.62836155 0 9349
0.09450000 0.09448040 18849.08716668 0 216.21153903 0 7180.19768267 0 -118.38513254 0 2849.10154414 0 9564
0.09550000 0.09549270 18022.27838848 0 75.66338363 0 6580.52789631 0 -503.95241780 0 2044.62440200 0 10155
0.09650000 0.09649430 18374.00440254 0 48.16811969 0 6267.95089893 0 840.89319716 0 2822.11244931 0 9913
0.09750000 0.09749140 18130.91581131 0 -318.00886852 0 5827.35969269 0 644.76035835 0 1527.43777115 0 10476
0.09850000 0.09850240 18639.94090473 0 101.64189778 0 5343.03890301 0 206.74503438 0 1343.21550439 0 10575
0.09950000 0.09950330 18037.21740719 0 809.55421159 0 5967.65465370 0 -463.21283501 0 1064.71924191 0 10882
0.10050000 0.10051200 17168.55740746 0 815.75500281 0 6613.54752148 0 -1348.92748213 0 1792.23187780 0 10875
0.10150000 0.10150300 16612.29865194 0 278.74341537 0 7234.01110374 0 352.59269683 0 1660.99918917 0 11118
0.10250000 0.10250800 16506.40737226 0 -131.39306339 0 7101.77881901 0 350.27385356 0 311.07430785 0 11575
0.10350000 0.10349800 16069.66076642 0 134.18753865 0 6601.29972306 0 987.20770394 0 1994.86428821 0 11364
0.10450000 0.10450100 16257.93634047 0 196.72490727 0 6640.59153918 0 342.17492820 0 1304.00058028 0 12093
0.10550000 0.10551000 15754.62322479 0 7.97717236 0 5940.70949716 0 -192.20805103 0 2059.39865212 0 12067
0.10650000 0.10649700 16211.69128990 0 -58.02754250 0 5945.90519999 0 543.05969311 0 804.40464396 0 12054
0.10750000 0.10749900 15846.01486867 0 273.83990217 0 5664.49143503 0 331.94389729 0 1029.89704837 0 12807
0.10850000 0.10850100 15510.21648486 0 316.47981601 0 5375.56422242 0 -151.03128225 0 806.08748048 0 12736
0.10950000 0.10950300 15223.18960331 0 176.87688308 0 5534.18145050 0 7.50552777 0 399.71321783 0 12933
0.11050000 0.11050200 15114.55218048 0 182.84809673 0 5609.53561840 0 -114.75253439 0 614.38691671 0 13428
0.11150000 0.11150900 14524.90032431 0 -10.27221206 0 4816.09797171 0 604.14819660 0 -280.26587713 0 13453
0.11250000 0.11250000 14228.86609324 0 299.08244996 0 5168.95539674 0 -28.92084177 0 717.83522745 0 13668
0.11350000 0.11349100 14215.13537752 0 388.48039391 0 4331.00826194 0 -82.76128489 0 -508.72850996 0 13791
0.11450000 0.11448600 13898.99937863 0 139.83910125 0 5182.58725131 0 358.51777528 0 1048.30169973 0 14205
0.11550000 0.11549300 13798.16100233 0 -105.13576078 0 4503.71869664 0 668.65949292 0 -169.07673809 0 14776
0.11650000 0.11649800 13828.58826838 0 24.73385224 0 3953.55637890 0 154.59248068 0 -202.68074253 0 14553
0.11750000 0.11747300 13714.67825071 0 120.17122404 0 4050.41833993 0 -156.52247008 0 139.41399829 0 14568
0.11850000 0.11849100 13475.65395134 0 162.13119284 0 4255.88477006 0 -362.90281666 0 224.81575474 0 16015
0.11950000 0.11950300 13184.23324076 0 160.58346657 0 4538.73751403 0 78.93920286 0 -30.56457321 0 15270
0.12050000 0.12050700 13308.02937375 0 15.71705599 0 4229.97216334 0 232.71146551 0 -237.28983536 0 15999
0.12150000 0.12150000 13673.59594926 0 -134.17655408 0 4268.90148857 0 260.27065966 0 -569.32051078 0 15670
0.12250000 0.12250700 13342.85046883 0 401.11704621 0 4305.17254723 0 97.23939094 0 -322.59163220 0 16887
0.12350000 0.12352200 13074.16782349 0 43.39081923 0 3972.71347349 0 222.80887333 0 954.04088549 0 16407
0.12450000 0.12449800 13288.03745165 0 -275.15585396 0 4164.97644738 0 480.00385266 0 695.86059000 0 16306
0.12550000 0.12549900 13137.21927011 0 -26.37582615 0 3929.41228837 0 797.78534052 0 580.49291955 0 17523
0.12650000 0.12650100 13258.92833431 0 182.20769615 0 3398.08851261 0 -437.79782943 0 1006.76793234 0 17154
0.12750000 0.12750600 13016.27912599 0 235.80252423 0 3880.95933871 0 -57.94724528 0 1541.70673094 0 18007
0.12850000 0.12850300 12820.97342549 0 274.72525872 0 3998.56017277 0 -219.70023928 0 1115.41743820 0 17496
0.12950000 0.12949900 12737.60051960 0 105.60886632 0 4636.17067283 0 -236.60989032 0 1591.38995272 0 18405
0.13050000 0.13049000 12638.40982919 0 13.98500858 0 4462.83411749 0 277.09353257 0 978.78253678 0 18100
0.13150000 0.13148800 12516.04169063 0 87.73586828 0 4229.90625591 0 262.80040672 0 1483.12600536 0 19059
0.13250000 0.13249300 12408.83226224 0 -36.10453254 0 4237.94696304 0 618.83127477 0 1519.71561663 0 18957
0.13350000 0.13349100 12354.45862796 0 101.83412780 0 3811.84440803 0 328.10698609 0 1697.83046104 0 19468
0.13450000 0.13450700 12296.24039328 0 133.84811536 0 3689.02590200 0 168.82299446 0 1868.20118177 0 19953
0.13550000 0.13551000 12155.19848134 0 -130.45058706 0 3335.42152603 0 188.82919650 0 1376.05937641 0 19956
0.13650000 0.13649900 12122.57430077 0 306.88589032 0 3406.61254093 0 -173.32007847 0 946.36596463 0 19723
0.13750000 0.13749600 11739.32256341 0 92.83897116 0 3141.21428280 0 -170.55526156 0 1254.60295738 0 20946
0.13850000 0.13851100 11769.20060083 0 329.31309216 0 3166.43486144 0 318.62400458 0 792.47320122 0 20955
0.13950000 0.13949800 11597.40188566 0 50.98665117 0 3481.41748021 0 -410.56487709 0 641.77035769 0 20506
0.14050000 0.14048300 11387.04732072 0 102.28812019 0 3279.03771497 0 -145.11389300 0 331.51220359 0 21447
0.14150000 0.14148400 11171.63985240 0 -54.25950457 0 3360.29059836 0 530.14622958 0 707.28784085 0 21771
0.14250000 0.14249400 11477.45035307 0 17.93648888 0 3266.46037937 0 13.37316789 0 206.32762062 0 22470
0.14350000 0.14350900 10950.89388181 0 372.80101501 0 3726.62609395 0 -78.09152340 0 911.54486955 0 22519
0.14450000 0.14449900 10818.32107532 0 324.97857982 0 3457.56997314 0 -135.78030168 0 814.45333096 0 22218
0.14550000 0.14550500 10735.90382725 0 78.90822637 0 3828.02468344 0 304.30012193 0 1250.53866552 0 23559
0.14650000 0.14650700 10565.45621450 0 -63.41646396 0 3306.80671446 0 354.58529830 0 1053.48422107 0 23044
0.14750000 0.14750500 10379.14687895 0 14.84455139 0 3190.72175142 0 129.68715927 0 1082.28137655 0 23649
0.14850000 0.14849900 10165.79352570 0 355.11255778 0 3081.31540851 0 -19.56648960 0 1242.54189668 0 23640
0.14950000 0.14949500 9863.42119626 0 293.41441051 0 3128.36233288 0 68.36116931 0 1361.53777146 0 24457
0.15050000 0.15050000 9926.04424454 0 -123.88400957 0 2905.21074089 0 214.36063855 0 1069.22731050 0 24591
0.15150000 0.15149900 9711.55948032 0 -94.59771108 0 2668.87766180 0 477.86295946 0 664.24589165 0 25020
0.15250000 0.15250500 9663.22736096 0 176.02887407 0 2321.23790874 0 -108.32974495 0 681.82889698 0 25297
0.15350000 0.15350100 9732.24343049 0 203.23656190 0 2456.41405893 0 -208.89910907 0 739.83732633 0 25452
0.15450000 0.15450400 9491.16501605 0 100.68942549 0 2498.27626504 0 -120.13717186 0 580.66427888 0 26061
0.15550000 0.15549900 9425.97157778 0 -88.84278366 0 2635.95689777 0 143.27946938 0 218.05255340 0 26128
0.15650000 0.15649500 9249.54835755 0 253.37674190 0 2664.41792533 0 -328.23221022 0 227.15437024 0 26331
0.15750000 0.15749700 9081.81393423 0 132.72549204 0 2708.48803053 0 345.20776868 0 813.43066725 0 27345
0.15850000 0.15849900 9183.91553637 0 -44.76444003 0 2765.42107022 0 111.26822796 0 604.70291752 0 26980
0.15950000 0.15949700 9068.64343171 0 122.95581319 0 2708.07061677 0 -121.93314948 0 494.36068902 0 27777
0.16050000 0.16050000 8992.68511231 0 84.18027198 0 2808.49157931 0 155.94028774 0 360.22917169 0 28224
0.16150000 0.16150500 8976.18628429 0 -34.21024300 0 2560.62469901 0 255.35835880 0 857.84129420 0 28075
0.16250000 0.16249700 9059.00996155 0 56.37491356 0 2539.62219623 0 -64.17044503 0 361.20789711 0 28590
0.16350000 0.16349900 8806.95795910 0 -0.39498875 0 2053.58781323 0 214.99774376 0 581.21350751 0 29163
0.16450000 0.16449100 8919.07749144 0 81.11074301 0 2243.37925829 0 373.48864925 0 170.64753197 0 28996
0.16550000 0.16550500 8737.27183064 0 138.36167623 0 2082.29050138 0 -131.01848946 0 392.54688268 0 30777
0.16650000 0.16650700 8560.50808866 0 202.99050747 0 2173.81396013 0 -204.49209855 0 253.12739211 0 29211
0.16750000 0.16749900 8302.73312390 0 60.63275358 0 2193.35551475 0 65.45618925 0 674.91630546 0 30922
0.16850000 0.16850800 8261.37620813 0 44.66327212 0 2184.40308810 0 263.66818796 0 503.28455579 0 30867
0.16950000 0.16949900 8297.33969876 0 -35.27014441 0 1821.76939347 0 219.65959637 0 433.52263378 0 30852
0.17050000 0.17049200 8448.71809350 0 80.95750823 0 1900.58370174 0 200.74086701 0 450.68712690 0 31257
0.17150000 0.17149500 8025.50448109 0 127.89118165 0 1786.23430117 0 -166.29654277 0 1035.05650211 0 32608
0.17250000 0.17250900 8207.93626252 0 33.78305297 0 1819.58346353 0 168.82299446 0 656.18980612 0 32361
0.17350000 0.17350400 8018.12284832 0 -10.60916383 0 1920.92713016 0 191.51382604 0 1252.73558004 0 32508
0.17450000 0.17449800 8214.84555868 0 -18.67981490 0 1500.00929342 0 177.29978912 0 612.66673264 0 32791
0.17550000 0.17549800 7960.03642851 0 167.44662752 0 1907.43807503 0 -267.55782511 0 1143.24136055 0 33633
0.17650000 0.17650100 7793.36750873 0 306.65521430 0 1942.45689242 0 -300.09412909 0 497.25732081 0 33984
0.17750000 0.17750300 7726.71312231 0 110.09837098 0 2194.08049654 0 -274.15296249 0 819.17559871 0 34069
0.17850000 0.17849800 7562.26308619 0 -38.63175316 0 2314.64716520 0 188.39530589 0 500.47140675 0 34536
