### header ###
fiducial parameters:
Omega_m = 0.31
Omega_nu = 0
Omega_de = 0.69
Omega_k = 0
H_0 = 100
w_de = -1
zeff = 0
beta = 0
fgrowth = 0
b_1 = 2
gamma = 0.55
Lx = 3500 Ly = 3500 Lz = 3500
nx = 700 ny = 700 nz = 700
xoffset = -983.599254 yoffset = -42.9823471 zoffset = 800.977702
bins = 400 dk = 0.001
kx_ny = 0.628318531 ky_ny = 0.628318531 kz_ny = 0.628318531
############################
A(data) = 9.09297587 (not used)
A(ran) = 9.08938126 (used)
Ngal = 504587
weighted Ngal = 0
Nran = 25229228
weighted Nran = 0
SN(data) = 6740.47722
SN(ran) = 134.925603
SN(data+ran) = 6875.40282
############################
13 columns: k_central k_mean P_0(k) sigma^{lin}_{P_0(k)} P^img_1(k) sigma^{lin}_{P_1(k)} P_2(k) sigma^{lin}_{P_2(k)} P^img_3(k) sigma^{lin}_{P_3(k)} P_4(k) sigma^{lin}_{P_4(k)} N_modes
### header ###
0.00050000 0 0 0 0 0 0 0 0 0 0 0 0
0.00150000 0.00179520 83295.90403860 0 -9294.14572223 0 33647.83288544 0 8911.28942948 0 -125698.66096283 0 3
0.00250000 0.00253879 130149.60977279 0 21086.97413868 0 44634.16299840 0 -88775.77776225 0 30715.83077203 0 6
0.00350000 0.00331552 101939.57969801 0 21449.57487959 0 34045.25472144 0 -95696.60771713 0 68770.56433139 0 7
0.00450000 0.00420575 75485.43355036 0 7121.46317307 0 9812.27702632 0 16754.65871260 0 11438.12558323 0 24
0.00550000 0.00557378 83296.89265013 0 -433.84008793 0 28870.86196127 0 18674.76199982 0 -9875.33945751 0 45
0.00650000 0.00659388 80677.07208948 0 3643.39598750 0 -5020.31216057 0 12382.68897950 0 23895.83919345 0 40
0.00750000 0.00754703 87573.73598468 0 7556.66095417 0 35163.37436449 0 853.42879139 0 -19954.57455127 0 57
0.00850000 0.00846663 68600.19361065 0 10290.08396446 0 33858.40714183 0 -4001.39419250 0 35229.06210853 0 75
0.00950000 0.00948925 60374.28658739 0 3740.68634685 0 42644.41752102 0 7124.54983797 0 8793.83139487 0 112
0.01050000 0.01054430 52974.19973079 0 3313.72699519 0 23918.02803007 0 20398.13159210 0 -7015.74764655 0 105
0.01150000 0.01145670 66624.83792335 0 -3400.31838085 0 41285.62589270 0 19627.45397980 0 9177.84106774 0 144
0.01250000 0.01249090 69430.84698925 0 -8769.35776715 0 -1101.21438585 0 10685.31987051 0 2538.11730979 0 169
0.01350000 0.01339930 74905.22842662 0 -7764.29134511 0 27627.07880788 0 5790.98977288 0 10014.44808468 0 180
0.01450000 0.01448870 68011.96974892 0 10631.55038772 0 14492.93521810 0 -26117.35915230 0 -1396.86415688 0 267
0.01550000 0.01550050 75781.02839853 0 2434.73051265 0 16052.19529602 0 13726.32189765 0 3296.07478705 0 238
0.01650000 0.01653350 72007.60802538 0 -5853.79955890 0 24444.07921099 0 1158.47696272 0 -6252.91301907 0 315
0.01750000 0.01747870 80576.01402173 0 -3382.76503386 0 34916.22148141 0 2416.75975191 0 -4290.00285250 0 297
0.01850000 0.01844180 74745.40289556 0 8498.56608388 0 26758.52865388 0 -18809.10332249 0 -9097.57679588 0 388
0.01950000 0.01947590 69035.51222205 0 2511.58956701 0 40748.48029348 0 7341.30840872 0 5464.83584379 0 399
0.02050000 0.02045430 74696.52154757 0 -2143.26586378 0 43570.74652680 0 10679.19047901 0 5142.77916028 0 462
0.02150000 0.02154770 79121.54676624 0 -1462.50796263 0 38008.81804596 0 6274.46475047 0 -3409.23785378 0 571
0.02250000 0.02255340 76414.17916211 0 2787.07166277 0 34964.11421787 0 1468.08812550 0 1876.35173463 0 510
0.02350000 0.02348930 77699.70369131 0 -1605.46119020 0 35741.16288227 0 -1234.17165238 0 4908.74185686 0 555
0.02450000 0.02439640 74040.08349011 0 1518.44140621 0 41885.05401847 0 9355.95591214 0 5223.12032414 0 592
0.02550000 0.02547300 74477.26947885 0 4666.86156862 0 35603.19665065 0 788.73075734 0 -2492.94874734 0 837
0.02650000 0.02652900 68293.50434418 0 3304.67570738 0 36380.79454368 0 -7029.72002287 0 613.86734642 0 723
0.02750000 0.02749970 60880.12615476 0 1429.03796997 0 29671.74714818 0 13268.59475818 0 -5379.25503881 0 826
0.02850000 0.02848090 64518.10674797 0 -145.69058306 0 33354.21526035 0 6183.63331980 0 -1536.30232123 0 831
0.02950000 0.02946900 59984.77364365 0 2495.91458193 0 23280.15390027 0 616.24880176 0 -5544.69368646 0 996
0.03050000 0.03053250 59619.64645105 0 2619.62283834 0 20848.60891366 0 1920.89417644 0 -9464.83499557 0 1041
0.03150000 0.03150510 54611.66996549 0 1011.45395100 0 22525.40391821 0 -1642.64396839 0 -5527.05246289 0 1036
0.03250000 0.03246190 51028.17285228 0 2167.10238628 0 19858.34969546 0 1172.02094071 0 -9410.07690125 0 1059
0.03350000 0.03345080 50628.11471886 0 1832.44639802 0 20472.71683993 0 753.08362240 0 -4149.08177085 0 1302
0.03450000 0.03451200 46056.44545623 0 1016.47390067 0 18327.86919770 0 579.64600900 0 -12596.66845338 0 1339
0.03550000 0.03553350 47926.89847538 0 690.48144481 0 19332.18866881 0 4171.73195952 0 -8278.43524935 0 1365
0.03650000 0.03647120 45925.28965961 0 907.06426239 0 18899.72604628 0 -3922.90942140 0 -8006.55609339 0 1308
0.03750000 0.03744890 44406.67250024 0 1349.75132508 0 18299.52900044 0 3418.71753992 0 -5689.42641479 0 1579
0.03850000 0.03847530 46032.82862518 0 -1452.13852611 0 16824.74028567 0 2201.96741966 0 -9448.19336811 0 1662
0.03950000 0.03950240 44407.33157460 0 763.31135793 0 19690.17588924 0 -2426.55799065 0 -9738.16411511 0 1683
0.04050000 0.04050350 41459.84121384 0 1728.38954196 0 15259.43869282 0 -477.19509745 0 -3231.16694767 0 1822
0.04150000 0.04152450 43357.42612727 0 816.66562388 0 20550.48761381 0 4999.55131839 0 -5843.01270862 0 1887
0.04250000 0.04250150 41476.97714707 0 -155.54374467 0 14082.77127791 0 2207.20706078 0 1716.35045041 0 1920
0.04350000 0.04349210 42021.48240993 0 -1098.20021914 0 13566.60621231 0 6267.99483722 0 112.65997331 0 2005
0.04450000 0.04448520 43179.14651428 0 -373.99174268 0 11208.10863337 0 4729.82513866 0 5482.19146847 0 2151
0.04550000 0.04548030 42934.41023716 0 112.18104594 0 10347.53327906 0 1388.42800514 0 4997.99150908 0 2274
0.04650000 0.04648670 42299.39209624 0 347.44422766 0 6462.72933994 0 -243.91792646 0 8924.91029948 0 2311
0.04750000 0.04749250 40700.69740275 0 2007.79313014 0 11586.74685025 0 -4240.96772050 0 2386.24460928 0 2568
0.04850000 0.04851840 37577.23418924 0 2448.82371928 0 10602.00188748 0 -2633.38650779 0 4832.19037054 0 2493
0.04950000 0.04949480 38492.90815962 0 129.60697189 0 16278.69718265 0 -574.42833703 0 1194.64916023 0 2644
0.05050000 0.05050630 34473.76289784 0 374.77933653 0 14821.59362973 0 1368.20540701 0 540.72656989 0 2829
0.05150000 0.05149060 36536.44593716 0 2264.03025474 0 15897.64235980 0 -1715.41676174 0 -3679.13978668 0 2784
0.05250000 0.05249300 32734.46567531 0 1380.04677626 0 15752.31646455 0 -315.17375033 0 1254.26243563 0 3055
0.05350000 0.05348950 33088.49844960 0 -1274.55094119 0 16166.43485087 0 3260.24311129 0 -392.33817580 0 3009
0.05450000 0.05448610 32904.28716741 0 -1085.99526054 0 15116.30971209 0 2093.84627174 0 -1232.37018247 0 3336
0.05550000 0.05550870 34954.55763972 0 557.44508936 0 12643.46273258 0 1990.12993742 0 2031.32208460 0 3349
0.05650000 0.05647670 34156.96782459 0 -84.96325231 0 11515.67666565 0 -611.49687566 0 825.35442079 0 3324
0.05750000 0.05747970 35301.34059611 0 442.80130224 0 11580.70533533 0 2290.06369176 0 2302.12475245 0 3639
0.05850000 0.05849280 34790.44812536 0 -496.04572246 0 10970.21574498 0 512.66867614 0 3485.69047895 0 3846
0.05950000 0.05951020 34407.08654227 0 940.24645925 0 11071.57039619 0 677.43726486 0 3381.82036062 0 3787
0.06050000 0.06049470 33567.97504278 0 403.80826649 0 12124.22198666 0 798.46528557 0 7647.43746199 0 3930
0.06150000 0.06148310 33264.25161090 0 149.19685863 0 12302.50159965 0 1344.47873024 0 7138.11578511 0 4083
0.06250000 0.06249100 33324.11753147 0 677.09234929 0 14070.02917372 0 -713.03167386 0 7403.09662949 0 4303
0.06350000 0.06350600 32040.68007107 0 1321.23537466 0 14105.50934315 0 -943.79008236 0 7543.63325109 0 4470
0.06450000 0.06451750 30709.45971994 0 558.89724985 0 15618.96375341 0 -394.32089115 0 8041.49801877 0 4479
0.06550000 0.06550280 30566.44058493 0 657.85726424 0 16610.98050323 0 1028.93479981 0 6288.84355598 0 4636
0.06650000 0.06648880 30571.38364259 0 357.98941734 0 16416.11418564 0 1217.07965744 0 7447.70497874 0 4653
0.06750000 0.06749660 29978.54626037 0 -422.55343960 0 15237.03016476 0 1403.93822162 0 7455.91045446 0 5220
0.06850000 0.06852730 29275.75330662 0 -247.52416163 0 13563.86006917 0 894.41772398 0 4697.70624843 0 5029
0.06950000 0.06949320 29185.13058282 0 783.38895970 0 11629.36699187 0 804.61225238 0 4735.64696212 0 5040
0.07050000 0.07048030 28748.16428554 0 1097.96954311 0 12960.14796010 0 146.83517552 0 4227.16011276 0 5475
0.07150000 0.07148790 27249.64889399 0 559.34432196 0 12656.42452822 0 680.74142430 0 4671.53001197 0 5509
0.07250000 0.07249820 27708.47449071 0 -551.88140335 0 9911.17113327 0 1859.35860084 0 2999.50231192 0 5916
0.07350000 0.07351270 26372.42092764 0 41.76059881 0 8688.44540552 0 1786.98125211 0 3961.15770313 0 5721
0.07450000 0.07449140 27083.89169374 0 703.84966964 0 7839.00840780 0 -312.22658951 0 3814.04132255 0 6028
0.07550000 0.07549160 26037.94069254 0 550.55336852 0 7706.45757047 0 1232.40313619 0 3690.20125127 0 6183
0.07650000 0.07648840 26168.10787763 0 174.65140867 0 7736.03902443 0 -333.93430184 0 2791.37761523 0 6330
0.07750000 0.07749960 24442.54137083 0 87.01637877 0 8325.14165196 0 -917.53036315 0 2165.00433292 0 6583
0.07850000 0.07848650 23914.07358394 0 736.91323311 0 8456.91258465 0 663.02989947 0 3201.32186396 0 6549
0.07950000 0.07947320 24056.10410742 0 432.75810753 0 7994.45109440 0 858.43775649 0 1199.99864708 0 6828
0.08050000 0.08048110 24149.14343718 0 108.68883063 0 8145.41207539 0 -306.02030600 0 1609.88797295 0 7147
0.08150000 0.08149960 23013.77801517 0 127.53637996 0 7904.21283065 0 29.74776039 0 2067.41739011 0 7386
0.08250000 0.08250610 23501.38319206 0 -176.65829008 0 7363.21164644 0 782.43440034 0 1441.41758327 0 7227
0.08350000 0.08350160 23554.21898617 0 -26.71909404 0 6130.42405021 0 810.65816113 0 559.65408690 0 7798
0.08450000 0.08449610 23371.21600697 0 -57.01124985 0 5775.35872609 0 498.87534835 0 656.47320809 0 7371
0.08550000 0.08548940 23127.90772429 0 790.22246230 0 5909.24968129 0 -399.86260802 0 752.45091102 0 8256
0.08650000 0.08650700 22637.11702136 0 709.87360924 0 5647.87177671 0 -480.42566025 0 -1567.16897018 0 8037
0.08750000 0.08749060 21428.26480878 0 395.54347408 0 7257.23249018 0 -577.94889254 0 -350.34854865 0 8155
0.08850000 0.08849210 20648.68969268 0 618.60169720 0 6329.33269052 0 -22.96127176 0 -331.06183611 0 8718
0.08950000 0.08949900 20003.56574498 0 -19.36964606 0 6577.75978401 0 698.60124086 0 -681.77397412 0 8571
0.09050000 0.09049190 19863.51244457 0 768.31043692 0 7126.68084505 0 59.59306379 0 -1470.84525321 0 8932
0.09150000 0.09150830 19295.17065921 0 504.20396451 0 7153.76880104 0 -277.03860970 0 85.16009585 0 9285
0.09250000 0.09250820 18888.85131943 0 3.58770420 0 7210.13064295 0 -200.96055846 0 -682.24301537 0 9204
0.09350000 0.09350330 18709.80278635 0 34.12379442 0 7168.40025171 0 -20.63539836 0 -1045.46658154 0 9349
0.09450000 0.09448040 18061.16377542 0 190.15283750 0 6612.46004880 0 1095.02457920 0 668.83744299 0 9564
0.09550000 0.09549270 18808.11471095 0 -148.95409957 0 6316.14021884 0 786.35479430 0 -28.51386335 0 10155
0.09650000 0.09649430 18951.02400024 0 113.01257809 0 6247.46467107 0 837.95702091 0 3.78596476 0 9913
0.09750000 0.09749140 18488.02426593 0 439.44331840 0 6339.17486755 0 -1101.76361448 0 -789.31293969 0 10476
0.09850000 0.09850240 17914.40988574 0 185.09663874 0 5913.77532519 0 -114.15167827 0 -187.14086770 0 10575
0.09950000 0.09950330 17890.24382606 0 -91.82059144 0 6406.65309692 0 674.64938034 0 -364.60103158 0 10882
0.10050000 0.10051200 17897.38379823 0 89.57490542 0 6226.36330714 0 -117.03403011 0 -659.10291477 0 10875
0.10150000 0.10150300 17427.02440030 0 316.24145079 0 5915.55482595 0 -34.75167258 0 -840.51642632 0 11118
0.10250000 0.10250800 17310.91746812 0 252.35847203 0 5329.57181702 0 609.19231233 0 -508.14413070 0 11575
0.10350000 0.10349800 17276.31606448 0 212.29553891 0 6165.66255905 0 6.72854501 0 170.49155104 0 11364
0.10450000 0.10450100 16712.91733679 0 317.98689937 0 5484.98154991 0 524.55178676 0 -234.88421396 0 12093
0.10550000 0.10551000 16233.77028079 0 334.67246512 0 6230.89993561 0 -300.68619756 0 1525.61433211 0 12067
0.10650000 0.10649700 16144.35585998 0 274.61101916 0 5830.95164793 0 210.90049819 0 374.64532475 0 12054
0.10750000 0.10749900 15440.35460324 0 111.61204508 0 6212.51176111 0 533.10327652 0 1473.23989004 0 12807
0.10850000 0.10850100 15668.50417575 0 -45.52105739 0 6018.13974929 0 637.49626050 0 1271.38738428 0 12736
0.10950000 0.10950300 15399.82153041 0 -110.43999119 0 5119.04149893 0 1438.73734756 0 2461.71960749 0 12933
0.11050000 0.11050200 15670.26170737 0 137.17644085 0 5149.87519417 0 -227.88154894 0 1554.87723346 0 13428
0.11150000 0.11150900 15017.55840458 0 762.92140561 0 4756.80324892 0 -871.06012884 0 2236.87639132 0 13453
0.11250000 0.11250000 14812.36658876 0 126.68507558 0 5477.11659594 0 288.72509647 0 1763.50722050 0 13668
0.11350000 0.11349100 14635.18543303 0 -59.70697380 0 5094.79854724 0 332.70402972 0 1053.01188445 0 13791
0.11450000 0.11448600 14756.78465150 0 -18.21747424 0 4698.99144342 0 135.28599591 0 1235.00647989 0 14205
0.11550000 0.11549300 14331.35215543 0 67.15649124 0 4653.87780383 0 -260.50243414 0 1084.69908098 0 14776
0.11650000 0.11649800 14041.13974783 0 203.52545616 0 4808.10120287 0 657.22784823 0 885.92335400 0 14553
0.11750000 0.11747300 14143.51596429 0 160.00897342 0 4805.28915229 0 -78.14117366 0 1362.30669154 0 14568
0.11850000 0.11849100 14088.70294711 0 348.59211550 0 4944.66140920 0 -94.54498513 0 1100.02805201 0 16015
0.11950000 0.11950300 13499.60031957 0 263.02668892 0 5054.77076476 0 -224.26542765 0 1524.87836574 0 15270
0.12050000 0.12050700 13338.67633125 0 155.94248465 0 5454.78495988 0 -137.53893175 0 813.50316543 0 15999
0.12150000 0.12150000 12887.86947251 0 155.53056318 0 4959.71027364 0 150.66769290 0 1061.57106341 0 15670
0.12250000 0.12250700 13002.21887308 0 -54.17030984 0 5075.70736010 0 861.18609655 0 893.20832254 0 16887
0.12350000 0.12352200 13217.40664995 0 -208.51025520 0 4310.34628092 0 354.74677151 0 650.12851897 0 16407
0.12450000 0.12449800 13193.78981890 0 104.68726068 0 3985.00521020 0 190.54608520 0 713.34802955 0 16306
0.12550000 0.12549900 12981.12849373 0 183.05790207 0 4136.92184900 0 -300.66972070 0 85.73371023 0 17523
0.12650000 0.12650100 12705.41572194 0 -14.92517815 0 3648.45987546 0 -215.86662345 0 21.00986244 0 17154
0.12750000 0.12750600 12491.32640233 0 267.42161641 0 4214.93428348 0 -31.65545111 0 -497.60992559 0 18007
0.12850000 0.12850300 12585.46418935 0 289.58079468 0 4323.45087601 0 -118.49827364 0 -65.36930128 0 17496
0.12950000 0.12949900 12587.55125814 0 -42.75986538 0 4053.72469627 0 351.78642920 0 -371.88380320 0 18405
0.13050000 0.13049000 12306.67573723 0 -51.49842240 0 4150.89422533 0 332.62384234 0 -33.70165729 0 18100
0.13150000 0.13148800 12458.70222176 0 77.79526947 0 4074.71621448 0 -188.34807222 0 -1033.84819913 0 19059
0.13250000 0.13249300 12413.44578272 0 235.98047431 0 4626.51523353 0 -532.16848939 0 -286.03717156 0 18957
0.13350000 0.13349100 11940.99931600 0 309.01579894 0 4577.18351807 0 -393.79802550 0 -303.82119457 0 19468
0.13450000 0.13450700 11932.10181221 0 105.10214799 0 4825.57765785 0 287.97924399 0 7.62815954 0 19953
0.13550000 0.13551000 11717.90264687 0 -162.67602764 0 4327.51516786 0 805.22519153 0 -1.30353923 0 19956
0.13650000 0.13649900 12053.70103069 0 33.48745813 0 4382.69067594 0 760.04125068 0 -31.87690009 0 19723
0.13750000 0.13749600 11801.05586131 0 89.40090979 0 3947.96523146 0 -95.58676199 0 634.09433837 0 20946
0.13850000 0.13851100 11493.26813759 0 64.62762294 0 3428.14230319 0 554.76375519 0 1034.72806339 0 20955
0.13950000 0.13949800 11765.68553760 0 -27.96518395 0 3488.29382265 0 318.33181495 0 750.79992976 0 20506
0.14050000 0.14048300 11661.99117243 0 105.79175946 0 3139.73136550 0 -132.64750158 0 341.63778260 0 21447
0.14150000 0.14148400 11498.32104097 0 320.32331796 0 3188.81043579 0 -326.16271674 0 -168.71314873 0 21771
0.14250000 0.14249400 10916.89662967 0 220.56692206 0 3750.64935418 0 -750.56925374 0 59.64029745 0 22470
0.14350000 0.14350900 10661.21971827 0 250.32742456 0 3485.30601891 0 310.09009014 0 80.99595423 0 22519
0.14450000 0.14449900 10516.98129570 0 66.65109105 0 3759.07452135 0 210.41827545 0 -673.18623528 0 22218
0.14550000 0.14550500 10655.47478681 0 -23.67592805 0 3035.29004939 0 645.91154156 0 -276.56297771 0 23559
0.14650000 0.14650700 10470.36276967 0 40.92126762 0 3233.55059992 0 399.58250142 0 195.87909519 0 23044
0.14750000 0.14750500 10243.95974419 0 223.82714320 0 2646.28239600 0 -59.20453945 0 92.26217125 0 23649
0.14850000 0.14849900 10250.89100949 0 70.30247282 0 2970.88750035 0 24.49405902 0 551.28164568 0 23640
0.14950000 0.14949500 9978.49557862 0 36.42110793 0 2740.69479734 0 183.12051413 0 431.05549878 0 24457
0.15050000 0.15050000 9932.96452527 0 151.39267469 0 3075.99887538 0 -9.46932769 0 580.37648308 0 24591
0.15150000 0.15149900 9630.01001347 0 242.96995784 0 2825.93508057 0 -102.41356400 0 324.90168781 0 25020
0.15250000 0.15250500 9766.95467985 0 44.06461291 0 3016.83596746 0 9.20430290 0 268.70131911 0 25297
0.15350000 0.15350100 9520.28511796 0 -12.00943320 0 2829.38423636 0 236.80321879 0 555.35472520 0 25452
0.15450000 0.15450400 9576.86665133 0 58.47296692 0 3000.62273833 0 -37.77605495 0 394.08252593 0 26061
0.15550000 0.15549900 9359.66869768 0 120.34258337 0 2900.38851352 0 -264.11196469 0 161.21068566 0 26128
0.15650000 0.15649500 9341.70892150 0 150.23929457 0 3062.14732936 0 -176.22879329 0 -126.53788231 0 26331
0.15750000 0.15749700 9329.14257047 0 -0.49625443 0 3058.35765182 0 318.39442701 0 161.44465706 0 27345
0.15850000 0.15849900 9138.57122076 0 -82.78358357 0 2871.34530362 0 333.16098793 0 -71.05996895 0 26980
0.15950000 0.15949700 9399.60860358 0 92.70287231 0 3021.54834910 0 -158.56010830 0 -76.92386333 0 27777
0.16050000 0.16050000 9023.47486925 0 328.59250420 0 2882.71433624 0 -208.98808410 0 -28.55670319 0 28224
0.16150000 0.16150500 9003.21931741 0 136.35699174 0 3108.82077825 0 -7.24095335 0 -44.04560960 0 28075
0.16250000 0.16249700 8878.81903293 0 -32.06122122 0 2965.55998265 0 309.40355436 0 226.41950233 0 28590
0.16350000 0.16349900 8925.54740469 0 -79.02037885 0 3222.01679870 0 12.01833071 0 -298.32341599 0 29163
0.16450000 0.16449100 8762.76702361 0 127.47596481 0 2835.60150444 0 10.53094269 0 -12.85557483 0 28996
0.16550000 0.16550500 8630.54572344 0 214.58142846 0 3150.11178659 0 -274.95483628 0 17.54565778 0 30777
0.16650000 0.16650700 8490.20682414 0 10.45801611 0 2883.19765743 0 361.43198239 0 304.34406022 0 29211
0.16750000 0.16749900 8697.34290931 0 -23.91561142 0 2779.58018427 0 392.21954242 0 -344.12359137 0 30922
0.16850000 0.16850800 8506.29922298 0 116.56389040 0 2724.90996654 0 124.98026992 0 222.06631622 0 30867
0.16950000 0.16949900 8576.93002467 0 87.68555893 0 2522.90367677 0 -77.23549565 0 157.71759158 0 30852
0.17050000 0.17049200 8218.23979160 0 33.97319593 0 2607.81442282 0 117.17023881 0 315.84710463 0 31257
0.17150000 0.17149500 8278.92955511 0 117.28557682 0 2355.98211182 0 93.92666354 0 280.26038484 0 32608
0.17250000 0.17250900 8245.77811506 0 46.90104924 0 2282.91273501 0 133.40763400 0 224.49720213 0 32361
0.17350000 0.17350400 8074.42976737 0 -4.15053173 0 2168.33265841 0 257.73542031 0 751.00424281 0 32508
0.17450000 0.17449800 8019.62773476 0 101.38310125 0 2082.49920826 0 -17.07365070 0 30.75647369 0 32791
0.17550000 0.17549800 7846.37905601 0 241.49582820 0 2316.17402078 0 -272.89522892 0 330.72351128 0 33633
0.17650000 0.17650100 7851.40999025 0 101.49767034 0 2423.00997371 0 1.39788572 0 203.29368168 0 33984
0.17750000 0.17750300 7512.20638894 0 36.42198669 0 2438.14671473 0 -150.27993749 0 331.14641732 0 34069
0.17850000 0.17849800 7546.39037881 0 -16.13578789 0 2225.43046669 0 462.35274298 0 259.08322736 0 34536
