### header ###
fiducial parameters:
Omega_m = 0.31
Omega_nu = 0
Omega_de = 0.69
Omega_k = 0
H_0 = 100
w_de = -1
zeff = 0
beta = 0
fgrowth = 0
b_1 = 2
gamma = 0.55
Lx = 3500 Ly = 3500 Lz = 3500
nx = 700 ny = 700 nz = 700
xoffset = -983.599254 yoffset = -42.9823471 zoffset = 800.977702
bins = 400 dk = 0.001
kx_ny = 0.628318531 ky_ny = 0.628318531 kz_ny = 0.628318531
############################
A(data) = 9.12267188 (not used)
A(ran) = 9.11857862 (used)
Ngal = 506375
weighted Ngal = 0
Nran = 25229228
weighted Nran = 0
SN(data) = 6715.68371
SN(ran) = 135.359018
SN(data+ran) = 6851.04272
############################
13 columns: k_central k_mean P_0(k) sigma^{lin}_{P_0(k)} P^img_1(k) sigma^{lin}_{P_1(k)} P_2(k) sigma^{lin}_{P_2(k)} P^img_3(k) sigma^{lin}_{P_3(k)} P_4(k) sigma^{lin}_{P_4(k)} N_modes
### header ###
0.00050000 0 0 0 0 0 0 0 0 0 0 0 0
0.00150000 0.00179520 132110.35597856 0 -98498.22295400 0 89185.72201099 0 -287366.30484326 0 130618.65102201 0 3
0.00250000 0.00253879 119386.92555759 0 14133.08062033 0 -52846.77868884 0 2361.10092264 0 55668.05631063 0 6
0.00350000 0.00331552 125146.13696199 0 38230.26702920 0 54549.16774750 0 -88821.91296710 0 22675.89256257 0 7
0.00450000 0.00420575 94848.48886812 0 25517.60148936 0 28878.00193345 0 -10690.06520586 0 52794.27243190 0 24
0.00550000 0.00557378 103223.67623277 0 -10765.43035835 0 40578.21941847 0 15682.56442866 0 -27883.01934903 0 45
0.00650000 0.00659388 84849.12260160 0 -0.55363784 0 -5189.67230063 0 21741.87435598 0 31835.26856380 0 40
0.00750000 0.00754703 84542.98256376 0 18783.39942265 0 27505.47958941 0 49262.07327265 0 24418.15561970 0 57
0.00850000 0.00846663 78069.66409585 0 -2362.83648511 0 47907.23609046 0 -5908.03039373 0 50754.43730355 0 75
0.00950000 0.00948925 80529.54927971 0 8077.99975346 0 37500.12248972 0 15953.00460561 0 -3191.53460979 0 112
0.01050000 0.01054430 64620.26327298 0 4209.57381206 0 43674.22120052 0 -8587.54112179 0 32285.96557681 0 105
0.01150000 0.01145670 64544.25003071 0 9089.88759508 0 42752.17617804 0 8924.53682401 0 26658.56904339 0 144
0.01250000 0.01249090 73790.40415533 0 -3720.57359445 0 42872.12771063 0 33582.47467859 0 32282.34066786 0 169
0.01350000 0.01339930 77887.53988245 0 -11941.65839036 0 37028.33509735 0 9882.01807764 0 14434.27760051 0 180
0.01450000 0.01448870 81179.28674790 0 -5778.00600808 0 14779.96209965 0 21803.82734534 0 32020.57830324 0 267
0.01550000 0.01550050 86784.60429043 0 -3501.77189321 0 8747.90489690 0 6482.62240089 0 29244.77681194 0 238
0.01650000 0.01653350 90665.34393770 0 1717.55875339 0 -337.95904924 0 -8397.74967673 0 5247.85758159 0 315
0.01750000 0.01747870 86254.26912621 0 9642.22485819 0 16720.05730897 0 -8325.65792688 0 24950.24831554 0 297
0.01850000 0.01844180 83468.25198240 0 1048.91354042 0 4358.62347741 0 5864.41065601 0 21127.39736578 0 388
0.01950000 0.01947590 75177.42613518 0 3394.56246481 0 16672.93349259 0 -740.26792157 0 -5312.36997636 0 399
0.02050000 0.02045430 77634.89471308 0 3365.21168688 0 23602.88064271 0 -4952.44947116 0 2221.57488171 0 462
0.02150000 0.02154770 65254.51249382 0 1582.89887812 0 19285.72392679 0 -6309.65932102 0 -3319.96623241 0 571
0.02250000 0.02255340 69361.53433626 0 2763.23514027 0 27761.52997628 0 -3095.15596996 0 -6974.32482335 0 510
0.02350000 0.02348930 64320.05490433 0 486.85822595 0 21837.22044598 0 2955.97045078 0 -4744.51151220 0 555
0.02450000 0.02439640 64904.32431993 0 2903.28844068 0 28571.75204988 0 3190.72175142 0 -6689.67060947 0 592
0.02550000 0.02547300 63941.52653318 0 2769.58422322 0 29286.95757065 0 386.03742497 0 -587.04631555 0 837
0.02650000 0.02652900 60322.98863343 0 -1218.71635875 0 29500.16812446 0 2741.26599511 0 -1877.95548222 0 723
0.02750000 0.02749970 61161.33121284 0 2424.20729212 0 35910.10560857 0 -5050.42087401 0 -8186.74702201 0 826
0.02850000 0.02848090 58732.42252365 0 953.70915140 0 27261.40238665 0 1522.91212725 0 -1799.31692711 0 831
0.02950000 0.02946900 62987.29671304 0 -1680.41991349 0 28582.62677674 0 8629.35938960 0 -7928.80728866 0 996
0.03050000 0.03053250 60127.13370430 0 -398.25226968 0 24332.36610784 0 -120.46451213 0 -9690.19448665 0 1041
0.03150000 0.03150510 57750.18204343 0 4295.61596909 0 29721.94664487 0 -59.21321727 0 -4742.72102687 0 1036
0.03250000 0.03246190 54588.49251734 0 2405.21496613 0 28585.04338270 0 -3055.12818748 0 -3233.05629415 0 1059
0.03350000 0.03345080 54490.18059274 0 -1548.00089103 0 25261.77079394 0 7217.14978483 0 -971.77767484 0 1302
0.03450000 0.03451200 52350.16616244 0 2573.70732495 0 25799.57546753 0 7426.43884622 0 -5277.49395842 0 1339
0.03550000 0.03553350 53981.15549932 0 1463.30983642 0 18017.88455945 0 1486.43236171 0 2442.03525342 0 1365
0.03650000 0.03647120 53792.22085092 0 -2255.05585894 0 19564.62222463 0 5230.08454315 0 3161.18423575 0 1308
0.03750000 0.03744890 52438.37228027 0 -174.76015594 0 15038.42909249 0 2359.63997449 0 2472.23184345 0 1579
0.03850000 0.03847530 49667.62369235 0 2211.42513665 0 15821.84880899 0 -2333.48570717 0 2158.18291335 0 1662
0.03950000 0.03950240 49237.79736724 0 1601.60560522 0 16842.75498470 0 -2238.89755267 0 5152.18195441 0 1683
0.04050000 0.04050350 48446.35891276 0 172.98065518 0 17371.44246304 0 3324.30513858 0 3556.12355834 0 1822
0.04150000 0.04152450 46581.94740852 0 1584.44770285 0 20084.85158208 0 -1614.91890719 0 -1728.34560367 0 1887
0.04250000 0.04250150 48529.29243575 0 2314.07596742 0 20091.88170853 0 -1193.12230464 0 734.98873599 0 1920
0.04350000 0.04349210 44306.82273548 0 -316.78958096 0 20799.94725713 0 183.81144375 0 -1430.31218039 0 2005
0.04450000 0.04448520 44502.23828170 0 622.74288107 0 23019.16045574 0 -96.66621594 0 -2804.60304061 0 2151
0.04550000 0.04548030 43365.99409388 0 942.25334066 0 20800.71617721 0 -59.39105750 0 -5260.33605604 0 2274
0.04650000 0.04648670 42595.64601876 0 1515.92593909 0 22311.64413577 0 -3442.10369494 0 -5037.66778525 0 2311
0.04750000 0.04749250 38889.34138408 0 2143.29881750 0 23187.00472478 0 1104.88323309 0 -5538.53134124 0 2568
0.04850000 0.04851840 38386.13811413 0 -357.14799908 0 21005.90799303 0 5005.93335506 0 -5185.45422476 0 2493
0.04950000 0.04949480 39301.26285588 0 -397.92492942 0 18678.16721732 0 5796.85553463 0 -5180.39033680 0 2644
0.05050000 0.05050630 38349.44964171 0 278.90818396 0 13857.14815709 0 2788.91707097 0 -2196.95845456 0 2829
0.05150000 0.05149060 37809.00867071 0 -0.46713762 0 11553.57344106 0 2807.04161573 0 1304.29716374 0 2784
0.05250000 0.05249300 37438.16950036 0 115.59395265 0 11007.53033804 0 2103.39186531 0 1253.76812986 0 3055
0.05350000 0.05348950 37131.15069671 0 -493.23696725 0 7216.35889560 0 1021.34555861 0 2774.52728089 0 3009
0.05450000 0.05448610 36650.90518346 0 447.84212260 0 10099.84215192 0 548.21694993 0 296.31104230 0 3336
0.05550000 0.05550870 35945.69562374 0 1926.35350902 0 8987.99469981 0 -2627.57566889 0 5075.20206976 0 3349
0.05650000 0.05647670 34163.11918524 0 739.77581272 0 9473.56773077 0 -120.75560330 0 1963.67908665 0 3324
0.05750000 0.05747970 34966.53082383 0 -542.13149672 0 10262.86419360 0 2071.87712658 0 -85.58882372 0 3639
0.05850000 0.05849280 33532.27518189 0 1150.12868756 0 11797.76048954 0 410.12878956 0 3253.37775342 0 3846
0.05950000 0.05951020 33549.19142366 0 505.53749162 0 11135.06122571 0 -292.09076951 0 3405.59097568 0 3787
0.06050000 0.06049470 32420.85612811 0 -988.62691072 0 9191.92328979 0 2817.87240429 0 3481.98867799 0 3930
0.06150000 0.06148310 33540.40376560 0 433.80383884 0 9779.11460169 0 1835.76373894 0 2801.07699282 0 4083
0.06250000 0.06249100 31742.77846266 0 1744.08649618 0 9634.15119734 0 -3911.41955848 0 3415.27936870 0 4303
0.06350000 0.06350600 30794.48031172 0 1436.49649475 0 11167.35586910 0 307.60318291 0 4320.03467394 0 4470
0.06450000 0.06451750 30098.49779296 0 -484.24938996 0 11912.32958156 0 708.62136797 0 385.79466592 0 4479
0.06550000 0.06550280 29418.77244163 0 -248.99938973 0 11371.11969048 0 1495.24198892 0 3414.29075717 0 4636
0.06650000 0.06648880 30470.54526629 0 -29.35044840 0 10498.47229090 0 925.14377040 0 2478.85554071 0 4653
0.06750000 0.06749660 30019.62856183 0 248.69072324 0 10615.06254428 0 -235.40817808 0 2837.07343716 0 5220
0.06850000 0.06852730 29149.43072193 0 622.15850181 0 9887.43347192 0 107.16450149 0 1405.59689208 0 5029
0.06950000 0.06949320 28947.75396934 0 483.22013551 0 11967.47213592 0 -373.12066607 0 4144.52317323 0 5040
0.07050000 0.07048030 28499.25387084 0 422.39086793 0 10306.79149936 0 1127.59932919 0 3178.85841303 0 5475
0.07150000 0.07148790 27835.23645830 0 214.43643210 0 10407.62987565 0 1510.60940596 0 4836.43041556 0 5509
0.07250000 0.07249820 27721.54613208 0 -227.05880446 0 8998.89139581 0 1664.10782321 0 4103.36397977 0 5916
0.07350000 0.07351270 28256.27512534 0 -217.27155029 0 7844.14918777 0 2534.07498708 0 5478.30292978 0 5721
0.07450000 0.07449140 27653.44178208 0 795.84766192 0 7532.41800249 0 -1095.46725748 0 3810.39444445 0 6028
0.07550000 0.07549160 26400.32174200 0 925.71716509 0 6834.57909097 0 -1436.32074159 0 3722.08946547 0 6183
0.07650000 0.07648840 26135.59354279 0 183.33800867 0 8433.39461475 0 241.01140855 0 2805.02045437 0 6330
0.07750000 0.07749960 26491.60354015 0 -294.23276116 0 8752.00214248 0 736.43869957 0 1832.61116661 0 6583
0.07850000 0.07848650 25908.54242753 0 254.05668695 0 7539.12957633 0 -48.33431627 0 2159.49007748 0 6549
0.07950000 0.07947320 25637.77271340 0 67.94924784 0 7556.07877183 0 -178.80906939 0 186.89920710 0 6828
0.08050000 0.08048110 25523.31346711 0 515.12043274 0 8385.24923313 0 365.36775474 0 2674.44684010 0 7147
0.08150000 0.08149960 25277.25904128 0 543.25192313 0 7822.49859521 0 89.26590939 0 980.95528523 0 7386
0.08250000 0.08250610 24282.93553122 0 436.78724875 0 9174.90818686 0 -409.30494661 0 2275.92654685 0 7227
0.08350000 0.08350160 24342.14237743 0 485.50163124 0 9372.09224926 0 419.72051833 0 2642.04235098 0 7798
0.08450000 0.08449610 23068.37134090 0 230.26300428 0 7533.85698149 0 313.31186528 0 129.06872783 0 7371
0.08550000 0.08548940 23084.29897114 0 283.91934597 0 9687.84378812 0 435.05278474 0 2229.83528029 0 8256
0.08650000 0.08650700 22309.55706698 0 530.63064923 0 7504.55014185 0 392.32169894 0 1466.91277623 0 8037
0.08750000 0.08749060 21930.91885010 0 515.43129615 0 8362.69790562 0 842.12456775 0 2348.57850990 0 8155
0.08850000 0.08849210 21294.14317756 0 126.07762872 0 7407.18289049 0 -202.46983873 0 1213.00438101 0 8718
0.08950000 0.08949900 20778.63718632 0 240.67967446 0 6656.66196887 0 1206.11705400 0 1845.64985426 0 8571
0.09050000 0.09049190 20748.31976600 0 58.13200579 0 7003.86233902 0 777.75936625 0 1249.38528540 0 8932
0.09150000 0.09150830 19962.81298070 0 563.28338968 0 6326.88313083 0 -903.97759750 0 293.37486605 0 9285
0.09250000 0.09250820 19855.60355231 0 799.36711897 0 6008.69301687 0 -191.35345128 0 384.33371776 0 9204
0.09350000 0.09350330 19308.90137494 0 -267.77202427 0 6607.57191400 0 404.48381771 0 862.03410555 0 9349
0.09450000 0.09448040 19546.60752560 0 -237.17669426 0 5796.63584318 0 945.93207401 0 923.76191117 0 9564
0.09550000 0.09549270 19324.60931373 0 281.59501041 0 5915.98322428 0 -549.08582962 0 -336.70900488 0 10155
0.09650000 0.09649430 18705.95818595 0 508.29022551 0 5853.32722228 0 -733.91554325 0 -361.03873469 0 9913
0.09750000 0.09749140 18227.58005003 0 370.42285505 0 6709.15724123 0 -15.21506102 0 132.17186959 0 10476
0.09850000 0.09850240 18475.72154464 0 161.53363209 0 7216.64449449 0 401.88816320 0 206.41879258 0 10575
0.09950000 0.09950330 17996.24495147 0 36.82215467 0 6954.02533322 0 7.23497775 0 -960.23069214 0 10882
0.10050000 0.10051200 17784.13285492 0 597.04007968 0 7253.68447324 0 139.62929591 0 -678.15785283 0 10875
0.10150000 0.10150300 17279.83112771 0 366.65294974 0 6761.61955988 0 -43.05128609 0 92.54700122 0 11118
0.10250000 0.10250800 16926.45742777 0 75.65789134 0 7041.39662353 0 558.80058561 0 605.69811979 0 11575
0.10350000 0.10349800 16230.14537184 0 175.72020758 0 6902.15618149 0 73.48887764 0 560.26153377 0 11364
0.10450000 0.10450100 16218.28203345 0 218.99063590 0 6398.41466748 0 934.71023466 0 839.03570594 0 12093
0.10550000 0.10551000 16046.92270118 0 -75.91295312 0 6051.12642075 0 570.06636325 0 773.59621324 0 12067
0.10650000 0.10649700 16327.02930201 0 -167.54768558 0 5048.04820634 0 843.95130217 0 770.89400839 0 12054
0.10750000 0.10749900 16206.08915788 0 188.27337713 0 5684.39548055 0 -619.54527199 0 756.57012574 0 12807
0.10850000 0.10850100 16245.74346490 0 357.12602994 0 4995.37718081 0 -580.14251168 0 -504.18748765 0 12736
0.10950000 0.10950300 15667.18602704 0 156.04354272 0 6019.44691342 0 -757.20503404 0 392.95660724 0 12933
0.11050000 0.11050200 15715.18860922 0 -7.66305752 0 6161.92780438 0 603.49790991 0 -860.73902444 0 13428
0.11150000 0.11150900 15767.25548326 0 38.09263033 0 5696.73115556 0 360.29617758 0 -234.49536009 0 13453
0.11250000 0.11250000 15716.72644939 0 119.15295416 0 5977.34304672 0 645.66219176 0 182.02095842 0 13668
0.11350000 0.11349100 15444.41889509 0 224.36428880 0 5881.29394407 0 27.07202836 0 90.31240962 0 13791
0.11450000 0.11448600 15023.81961095 0 472.15317864 0 6193.24482080 0 -318.17473556 0 539.07998246 0 14205
0.11550000 0.11549300 14432.95945180 0 284.32467670 0 6153.05226973 0 -20.18733764 0 740.69961528 0 14776
0.11650000 0.11649800 14334.64752720 0 178.16537344 0 6393.09813435 0 412.06317279 0 881.85466832 0 14553
0.11750000 0.11747300 13963.91820258 0 353.97455606 0 6342.79977650 0 -60.02036366 0 449.38435659 0 14568
0.11850000 0.11849100 13740.05261337 0 102.11258672 0 6290.78782533 0 163.12749358 0 300.28635911 0 16015
0.11950000 0.11950300 13436.98825585 0 95.94782489 0 5993.20476953 0 -99.92841430 0 568.80862969 0 15270
0.12050000 0.12050700 13436.87841013 0 65.38907351 0 5756.67396813 0 418.87031242 0 -19.91239379 0 15999
0.12150000 0.12150000 13695.34540297 0 -127.97576286 0 5401.42190628 0 444.12714015 0 472.73206561 0 15670
0.12250000 0.12250700 13445.00699384 0 -214.93183633 0 4826.33559336 0 788.70659128 0 -70.22964511 0 16887
0.12350000 0.12352200 13871.31825572 0 8.07267224 0 4402.17730770 0 354.91373702 0 619.98465489 0 16407
0.12450000 0.12449800 13445.44637674 0 99.20288329 0 4004.54676483 0 305.60399070 0 423.62223851 0 16306
0.12550000 0.12549900 13548.92105046 0 69.53893518 0 3998.29654303 0 427.52395869 0 798.52240534 0 17523
0.12650000 0.12650100 13386.01983908 0 446.61953967 0 4282.57728143 0 -60.36000664 0 699.70409194 0 17154
0.12750000 0.12750600 13049.12299801 0 234.96440134 0 4135.85634546 0 -459.13536167 0 1074.28460771 0 18007
0.12850000 0.12850300 12626.10710790 0 8.52568699 0 4019.88122815 0 299.41198714 0 1192.75981375 0 17496
0.12950000 0.12949900 12484.62581305 0 24.34247191 0 4434.72459626 0 385.19930208 0 876.04712479 0 18405
0.13050000 0.13049000 12662.35619742 0 303.93543412 0 4153.54150732 0 -188.71385849 0 1080.55460174 0 18100
0.13150000 0.13148800 12392.68494055 0 77.17749711 0 4087.43634953 0 -30.27644787 0 130.41983026 0 19059
0.13250000 0.13249300 12231.43141505 0 61.59906643 0 4404.60489824 0 17.98745729 0 676.47501631 0 18957
0.13350000 0.13349100 12145.09267456 0 112.52596152 0 4287.82790713 0 -107.49008422 0 160.94595746 0 19468
0.13450000 0.13450700 11816.98349156 0 268.34432050 0 4099.78300911 0 -168.29573498 0 238.47946457 0 19953
0.13550000 0.13551000 11873.77373180 0 192.59251107 0 4429.33117112 0 152.47685200 0 196.63922761 0 19956
0.13650000 0.13649900 11593.44743953 0 30.80579442 0 4172.00657383 0 424.25824527 0 -259.05906130 0 19723
0.13750000 0.13749600 11617.39380775 0 -32.25026572 0 4070.30041630 0 -31.12215011 0 387.55000061 0 20946
0.13850000 0.13851100 11318.83312499 0 19.71774717 0 3935.89318619 0 142.38642363 0 218.49962550 0 20955
0.13950000 0.13949800 11413.84967782 0 27.10619038 0 3694.61704944 0 284.15002199 0 533.61735451 0 20506
0.14050000 0.14048300 11244.57741434 0 284.45209774 0 3719.79368980 0 169.49305339 0 146.88680301 0 21447
0.14150000 0.14148400 11197.01421507 0 96.40829817 0 3525.45463169 0 119.54620186 0 381.61174068 0 21771
0.14250000 0.14249400 11128.03109926 0 125.55146769 0 3387.30166234 0 373.09430310 0 785.95166048 0 22470
0.14350000 0.14350900 10812.56515929 0 -87.13270540 0 3086.79671023 0 299.27028615 0 960.01319761 0 22519
0.14450000 0.14449900 10963.86666203 0 -50.39249564 0 2706.02748627 0 307.76904996 0 824.22191135 0 22218
0.14550000 0.14550500 10677.65263885 0 171.26156957 0 2776.03216733 0 152.74707249 0 608.50138272 0 23559
0.14650000 0.14650700 10782.34660012 0 201.87557336 0 2505.94349670 0 -298.89790914 0 854.69091878 0 23044
0.14750000 0.14750500 10391.21892422 0 100.09483058 0 2682.11407176 0 234.72383920 0 431.44325419 0 23649
0.14850000 0.14849900 10281.90045789 0 174.75356520 0 2522.29952527 0 -130.09578537 0 513.58478950 0 23640
0.14950000 0.14949500 10188.69635953 0 110.61574435 0 2506.93210823 0 144.75579593 0 366.63098059 0 24457
0.15050000 0.15050000 10156.55550016 0 92.48219224 0 2630.11310516 0 292.54553082 0 -13.13798819 0 24591
0.15150000 0.15149900 9878.30529210 0 225.40342937 0 2398.62422258 0 -481.68009844 0 53.27737393 0 25020
0.15250000 0.15250500 9346.09176596 0 213.95860320 0 2828.23085624 0 -281.94322136 0 463.82687262 0 25297
0.15350000 0.15350100 9491.94492070 0 128.77873511 0 2968.48187895 0 129.69265155 0 692.79040196 0 25452
0.15450000 0.15450400 9248.44990029 0 -102.94499763 0 2883.72491692 0 396.43651983 0 192.76496886 0 26061
0.15550000 0.15549900 9357.10929226 0 73.87597398 0 3011.46451147 0 -66.49016706 0 259.26886664 0 26128
0.15650000 0.15649500 9339.72071387 0 260.13445096 0 2907.44060912 0 -51.62606314 0 588.65445698 0 26331
0.15750000 0.15749700 9225.06374526 0 35.29540893 0 3309.95928679 0 -37.64193332 0 752.58602127 0 27345
0.15850000 0.15849900 8917.02337637 0 180.81485235 0 3311.84863327 0 -154.91762403 0 725.33878898 0 26980
0.15950000 0.15949700 8957.36971146 0 27.26854236 0 3460.00854825 0 138.25951971 0 636.24182231 0 27777
0.16050000 0.16050000 8971.03451975 0 51.27444697 0 3210.72465809 0 411.02732759 0 555.36461131 0 28224
0.16150000 0.16150500 9075.86029589 0 15.62116067 0 3162.93078279 0 58.42221819 0 770.66882465 0 28075
0.16250000 0.16249700 8801.85013285 0 1.78040149 0 3032.00566219 0 -13.25980710 0 1241.14685597 0 28590
0.16350000 0.16349900 8570.43814228 0 217.89437555 0 2980.93838426 0 -174.48114780 0 720.08267100 0 29163
0.16450000 0.16449100 8499.42288054 0 123.10080955 0 3243.40376152 0 8.00357927 0 657.52772706 0 28996
0.16550000 0.16550500 8368.88221998 0 178.82005397 0 3177.43041860 0 276.74642007 0 764.09675487 0 30777
0.16650000 0.16650700 8293.64888237 0 36.58807343 0 3028.31484581 0 147.42834244 0 1166.29797840 0 29211
0.16750000 0.16749900 8164.66803112 0 53.41896507 0 2988.10032559 0 35.99446713 0 547.36894093 0 30922
0.16850000 0.16850800 8122.75090215 0 5.54307895 0 3091.65189131 0 0.71079192 0 998.44821707 0 30867
0.16950000 0.16949900 8179.72788013 0 -2.59407272 0 2691.02256012 0 137.67514045 0 683.36454023 0 30852
0.17050000 0.17049200 8162.87754579 0 86.81217557 0 3012.43115385 0 93.44026666 0 626.37547922 0 31257
0.17150000 0.17149500 8088.16048309 0 82.75227754 0 2667.92200398 0 -62.90941609 0 618.31499986 0 32608
0.17250000 0.17250900 8070.58516696 0 -18.34731189 0 2796.13393515 0 0.61767570 0 472.39374078 0 32361
0.17350000 0.17350400 8004.32622515 0 78.91042328 0 2646.07368912 0 40.16212381 0 473.55151473 0 32508
0.17450000 0.17449800 7935.74953853 0 138.19251382 0 2697.83299512 0 -9.85534754 0 281.64773636 0 32791
0.17550000 0.17549800 7711.27979783 0 58.74560401 0 2656.67380166 0 -83.70068554 0 259.07114433 0 33633
0.17650000 0.17650100 7877.95970218 0 -26.92791076 0 2461.88437608 0 288.54934331 0 -92.58654568 0 33984
0.17750000 0.17750300 7749.51709498 0 -2.93494598 0 2335.19930050 0 111.69223246 0 53.18356568 0 34069
0.17850000 0.17849800 7791.00582562 0 37.87480626 0 2188.37950337 0 32.03936192 0 -276.73433704 0 34536
0.17950000 0.17950400 7758.64527480 0 12.50286020 0 2095.24131246 0 267.88516537 0 85.83026462 0 35343
