### header ###
fiducial parameters:
Omega_m = 0.31
Omega_nu = 0
Omega_de = 0.69
Omega_k = 0
H_0 = 100
w_de = -1
zeff = 0
beta = 0
fgrowth = 0
b_1 = 2
gamma = 0.55
Lx = 3500 Ly = 3500 Lz = 3500
nx = 700 ny = 700 nz = 700
xoffset = -983.599254 yoffset = -42.9823471 zoffset = 800.977702
bins = 400 dk = 0.001
kx_ny = 0.628318531 ky_ny = 0.628318531 kz_ny = 0.628318531
############################
A(data) = 9.0940554 (not used)
A(ran) = 9.08922739 (used)
Ngal = 504994
weighted Ngal = 0
Nran = 25229228
weighted Nran = 0
SN(data) = 6738.81429
SN(ran) = 134.923319
SN(data+ran) = 6873.73761
############################
13 columns: k_central k_mean P_0(k) sigma^{lin}_{P_0(k)} P^img_1(k) sigma^{lin}_{P_1(k)} P_2(k) sigma^{lin}_{P_2(k)} P^img_3(k) sigma^{lin}_{P_3(k)} P_4(k) sigma^{lin}_{P_4(k)} N_modes
### header ###
0.00050000 0 0 0 0 0 0 0 0 0 0 0 0
0.00150000 0.00179520 53495.74723695 0 -59363.04683555 0 -30229.98312676 0 -47916.24343998 0 -4238.75982141 0 3
0.00250000 0.00253879 61408.04471302 0 -12210.34103570 0 -26218.41722005 0 10946.37922248 0 74848.65787782 0 6
0.00350000 0.00331552 84861.09578572 0 2485.35840768 0 13092.95144261 0 -101845.44191099 0 -23492.59553399 0 7
0.00450000 0.00420575 51401.20893714 0 23601.56249400 0 5842.48544914 0 -28120.06642534 0 28999.49130620 0 24
0.00550000 0.00557378 40318.43427692 0 200.54424316 0 15013.16457555 0 24001.18124451 0 -14031.69301541 0 45
0.00650000 0.00659388 51524.67553295 0 -12428.38480143 0 13106.02308398 0 16368.88052354 0 20061.12490531 0 40
0.00750000 0.00754703 51404.39446319 0 -3950.35986828 0 19895.58739651 0 -14132.31170025 0 -28368.42761140 0 57
0.00850000 0.00846663 59239.36054828 0 -3133.85461917 0 6535.96348534 0 -7269.65604177 0 21439.68876427 0 75
0.00950000 0.00948925 58388.93493903 0 -1383.11147201 0 -1539.87230732 0 4115.28224102 0 -19383.48662276 0 112
0.01050000 0.01054430 85396.04447043 0 2080.00571029 0 27060.27486269 0 -4944.36482574 0 -19875.04624578 0 105
0.01150000 0.01145670 79165.48505656 0 8324.06516385 0 49041.61290094 0 -10987.42857021 0 2481.38199241 0 144
0.01250000 0.01249090 64676.61413032 0 -279.19158593 0 40511.65290862 0 -2002.64136560 0 8194.40326910 0 169
0.01350000 0.01339930 57948.34373280 0 -1937.90927937 0 37828.01198127 0 10283.87768095 0 -5805.42350125 0 180
0.01450000 0.01448870 74828.00688137 0 -1940.76526824 0 46016.02222913 0 14062.99904726 0 4641.82772771 0 267
0.01550000 0.01550050 79128.79658414 0 -2114.51923734 0 37748.37383006 0 13709.40565587 0 8667.00351984 0 238
0.01650000 0.01653350 76228.97926839 0 -2045.88762785 0 36991.42693348 0 3954.86354304 0 -622.74947181 0 315
0.01750000 0.01747870 66278.82388703 0 4986.20506270 0 25757.06517164 0 -5183.23534110 0 -8435.64645213 0 297
0.01850000 0.01844180 78171.49108368 0 7367.83615150 0 30781.18897889 0 -2348.20503443 0 -6341.31685920 0 388
0.01950000 0.01947590 65446.30313109 0 2986.46362427 0 37120.82519849 0 -3255.31103820 0 -15356.54231444 0 399
0.02050000 0.02045430 64256.12469191 0 -355.77163214 0 36315.10679965 0 -80.11290444 0 -15798.56151512 0 462
0.02150000 0.02154770 62884.59095940 0 2192.34493407 0 25721.14561930 0 4579.47929373 0 -21501.97129080 0 571
0.02250000 0.02255340 63243.23725418 0 -225.49679824 0 30585.88327840 0 1641.17203566 0 -23815.65181361 0 510
0.02350000 0.02348930 63902.42145479 0 -1481.11582858 0 22010.55700132 0 4484.77030894 0 -24218.01670726 0 555
0.02450000 0.02439640 63983.37775471 0 -1256.64608788 0 27102.45562140 0 1168.14338659 0 -13564.07976062 0 592
0.02550000 0.02547300 64215.92115626 0 3129.16420667 0 24144.20037952 0 -543.32661822 0 -11782.38208793 0 837
0.02650000 0.02652900 56326.58143689 0 1864.88384085 0 21508.45218862 0 572.13146290 0 -1135.22262256 0 723
0.02750000 0.02749970 63436.78542306 0 769.91308606 0 31839.33285565 0 5661.24000155 0 -10036.62593672 0 826
0.02850000 0.02848090 58283.70273370 0 -1266.32349632 0 21168.80920441 0 5674.87185612 0 7732.26033146 0 831
0.02950000 0.02946900 62316.90824840 0 638.85615059 0 22212.34359964 0 7109.06159063 0 3831.03445633 0 996
0.03050000 0.03053250 62312.51441936 0 -830.41281646 0 19910.74610667 0 2033.78262886 0 10702.99404779 0 1041
0.03150000 0.03150510 60068.25639527 0 -346.48088065 0 19601.85992568 0 4509.26590579 0 11182.40473353 0 1036
0.03250000 0.03246190 64276.22645973 0 67.68715594 0 16824.19105704 0 275.00866069 0 5323.10190377 0 1059
0.03350000 0.03345080 59427.96565950 0 3156.29610095 0 19532.98665560 0 -2586.86684291 0 2000.23574420 0 1302
0.03450000 0.03451200 56112.38227155 0 3444.28962489 0 20961.85985698 0 -4426.29942909 0 5767.04340465 0 1339
0.03550000 0.03553350 50198.06870230 0 3838.99827145 0 26728.21123355 0 643.59709211 0 4413.00809626 0 1365
0.03650000 0.03647120 49952.23396793 0 1206.52348319 0 25395.45304226 0 -865.33826498 0 -2470.86975645 0 1308
0.03750000 0.03744890 46043.15412341 0 2435.64223218 0 26501.16011830 0 1406.20104357 0 -2113.11321205 0 1579
0.03850000 0.03847530 43574.92066438 0 901.35558002 0 26027.61519432 0 2054.93891565 0 2278.32118367 0 1662
0.03950000 0.03950240 40992.44765051 0 54.32727938 0 21137.72286400 0 4525.84162582 0 3848.97226336 0 1683
0.04050000 0.04050350 43605.56762188 0 1653.94709357 0 23327.16787092 0 3985.46656225 0 2352.20341885 0 1822
0.04150000 0.04152450 40507.25907959 0 -142.21176892 0 18877.31751822 0 889.38019899 0 4086.82121346 0 1887
0.04250000 0.04250150 42160.21756163 0 -1312.38180916 0 18650.37624869 0 5639.01821121 0 4925.14182372 0 1920
0.04350000 0.04349210 40727.71945130 0 411.55129170 0 14186.79518026 0 1888.16015015 0 5742.60273066 0 2005
0.04450000 0.04448520 42639.14492618 0 -136.41960380 0 14653.20013206 0 1713.54938440 0 10346.81928184 0 2151
0.04550000 0.04548030 40467.82446402 0 873.70082009 0 14927.26521796 0 1938.55736916 0 8011.94951853 0 2274
0.04650000 0.04648670 39753.60755478 0 1450.34804078 0 15123.77922144 0 1746.62393244 0 9720.74258300 0 2311
0.04750000 0.04749250 39074.21174063 0 1849.15393292 0 16866.70135293 0 777.98784536 0 15755.17245342 0 2568
0.04850000 0.04851840 37060.62974074 0 1005.66398280 0 15871.05969415 0 1125.25961523 0 14076.18053436 0 2493
0.04950000 0.04949480 35882.53433139 0 277.95911688 0 17476.78451409 0 2116.11200036 0 16325.16192467 0 2644
0.05050000 0.05050630 35457.43137250 0 160.02874565 0 17341.67427134 0 134.41601776 0 13474.88503126 0 2829
0.05150000 0.05149060 35725.89432638 0 328.58151963 0 17321.46265779 0 276.22575133 0 15085.33321741 0 2784
0.05250000 0.05249300 34969.05727553 0 -289.92571025 0 16279.57594845 0 366.60901145 0 10994.67838812 0 3055
0.05350000 0.05348950 34742.11600600 0 -72.75291128 0 16587.47351791 0 325.17740058 0 11765.79538333 0 3009
0.05450000 0.05448610 36086.84738141 0 292.90472634 0 15347.86450210 0 1494.92343631 0 8215.20804957 0 3336
0.05550000 0.05550870 35240.37621829 0 -160.31763991 0 13061.75525648 0 682.15623725 0 5605.58117228 0 3349
0.05650000 0.05647670 34948.29643335 0 999.80810715 0 14806.43491957 0 1737.81430523 0 6786.38977105 0 3324
0.05750000 0.05747970 35359.99821370 0 561.70930043 0 13870.65918137 0 546.57036250 0 5031.97777665 0 3639
0.05850000 0.05849280 33841.71059151 0 -18.08785629 0 12263.28667554 0 25.77475033 0 4780.58484855 0 3846
0.05950000 0.05951020 32422.72350545 0 -176.12883368 0 11632.66236364 0 1578.30732678 0 3774.95821330 0 3787
0.06050000 0.06049470 32683.60710425 0 500.69219666 0 9914.64225820 0 -91.09022721 0 2470.48529641 0 3930
0.06150000 0.06148310 31481.12594377 0 1116.26325029 0 10923.53131151 0 -51.01817689 0 3122.69429342 0 4083
0.06250000 0.06249100 31287.79746634 0 355.77932134 0 9915.33428628 0 2354.64199396 0 4192.89923088 0 4303
0.06350000 0.06350600 32049.35788341 0 484.45919530 0 11072.11962482 0 92.66750198 0 2985.96931850 0 4470
0.06450000 0.06451750 30720.66398397 0 -605.42570239 0 8540.62601229 0 30.41792916 0 3905.09244468 0 4479
0.06550000 0.06550280 30136.61425982 0 333.81896383 0 9978.05619571 0 929.01583224 0 2755.13951028 0 4636
0.06650000 0.06648880 31258.57850328 0 441.32277877 0 10151.08518302 0 -893.06222772 0 995.97668824 0 4653
0.06750000 0.06749660 29947.02053706 0 492.52736386 0 9533.29085190 0 -794.65583579 0 2932.11195914 0 5220
0.06850000 0.06852730 29803.12263625 0 344.13677286 0 11203.05572999 0 2430.50145221 0 2372.41503240 0 5029
0.06950000 0.06949320 29563.65895398 0 -6.65174088 0 10100.65501030 0 447.47963170 0 3569.05240027 0 5040
0.07050000 0.07048030 28798.14409078 0 -22.63415119 0 9507.03772343 0 -106.40524784 0 560.78330097 0 5475
0.07150000 0.07148790 29050.78926015 0 1047.18347024 0 9662.49139460 0 -684.48606509 0 686.20295378 0 5509
0.07250000 0.07249820 27711.11078813 0 800.84234707 0 10616.17198611 0 678.00846264 0 3918.61445352 0 5916
0.07350000 0.07351270 27917.07152403 0 -510.79360961 0 9253.06342077 0 1173.58075002 0 1801.21725817 0 5721
0.07450000 0.07449140 27668.60049224 0 684.54318487 0 10045.83100854 0 228.27259973 0 1869.01404014 0 6028
0.07550000 0.07549160 27316.54494101 0 340.95783755 0 10109.42069922 0 -1382.11187590 0 1481.31355088 0 6183
0.07650000 0.07648840 25521.44608977 0 374.73869361 0 9990.56762388 0 -737.18784742 0 990.65136745 0 6330
0.07750000 0.07749960 25977.41569762 0 825.85751421 0 11378.69904556 0 -643.58281217 0 -731.54507249 0 6583
0.07850000 0.07848650 25327.89792088 0 201.90083787 0 11467.45439202 0 87.39996005 0 -944.38984002 0 6549
0.07950000 0.07947320 24680.68690439 0 -332.19214863 0 10849.44036945 0 1116.30718858 0 -1922.99222981 0 6828
0.08050000 0.08048110 25207.50700539 0 639.88979887 0 10902.61668531 0 -82.04926490 0 -1942.31409298 0 7147
0.08150000 0.08149960 24536.34962067 0 156.51258397 0 10484.59877573 0 702.67541883 0 -974.55018096 0 7386
0.08250000 0.08250610 24129.37120653 0 285.45718613 0 9795.69032172 0 1239.57606209 0 -1818.39712969 0 7227
0.08350000 0.08350160 23585.96440093 0 298.15095820 0 9449.48954767 0 -66.70315793 0 -1714.82359482 0 7798
0.08450000 0.08449610 22872.29672032 0 826.33973695 0 9735.82440115 0 -1306.34029424 0 -1728.56529512 0 7371
0.08550000 0.08548940 22129.62976810 0 789.36127181 0 9526.13989515 0 567.02363665 0 -1474.42622388 0 8256
0.08650000 0.08650700 21651.25163218 0 -267.32934600 0 8611.11401455 0 1626.46369297 0 -1250.60457296 0 8037
0.08750000 0.08749060 21651.25163218 0 -128.71392614 0 8572.03090530 0 1088.54148447 0 -242.03846609 0 8155
0.08850000 0.08849210 21632.57785879 0 -152.86900124 0 6799.74701131 0 1096.02856914 0 -1029.95197123 0 8718
0.08950000 0.08949900 21812.72484913 0 225.91970428 0 6511.50084220 0 812.74083609 0 145.08643157 0 8571
0.09050000 0.09049190 21181.77100006 0 463.68077780 0 5741.57018083 0 -309.06852489 0 -784.06011708 0 8932
0.09150000 0.09150830 20903.31208512 0 695.86168846 0 7312.97919603 0 -627.87047955 0 62.46684766 0 9285
0.09250000 0.09250820 19582.96646084 0 491.69693017 0 7901.02730460 0 -769.35836514 0 945.47401734 0 9204
0.09350000 0.09350330 19514.31288221 0 130.63622634 0 7068.39670293 0 726.03630934 0 -317.30036358 0 9349
0.09450000 0.09448040 19654.03664544 0 -74.35182566 0 7368.81377846 0 818.47807835 0 492.04843649 0 9564
0.09550000 0.09549270 19373.60050744 0 375.22750709 0 6966.51479224 0 954.72742128 0 -1062.62777929 0 10155
0.09650000 0.09649430 18664.21681014 0 577.14262491 0 6814.41141571 0 -877.62231250 0 1623.48687380 0 9913
0.09750000 0.09749140 18191.44080624 0 -139.30415256 0 6786.34583276 0 712.48244523 0 810.87016338 0 10476
0.09850000 0.09850240 18436.94600343 0 82.93341314 0 7105.64538856 0 700.91239493 0 225.87027370 0 10575
0.09950000 0.09950330 17861.35440017 0 738.31266765 0 6430.03925194 0 -1320.71909975 0 -744.70898427 0 10882
0.10050000 0.10051200 17005.76604181 0 559.29598984 0 7159.05238045 0 422.00201406 0 854.34490474 0 10875
0.10150000 0.10150300 16891.85602414 0 4.86977958 0 7484.95366436 0 -245.76553156 0 -193.14723198 0 11118
0.10250000 0.10250800 16283.75008603 0 222.51009295 0 6870.12516784 0 813.84698255 0 -629.73236460 0 11575
0.10350000 0.10349800 16626.46875057 0 288.77562551 0 7366.94640112 0 67.11046588 0 146.64624088 0 11364
0.10450000 0.10450100 15830.30692988 0 129.34773597 0 6343.44786628 0 -174.50751077 0 -104.95440549 0 12093
0.10550000 0.10551000 15841.40134818 0 -12.22791635 0 6968.00869411 0 654.10603270 0 893.90474444 0 12067
0.10650000 0.10649700 15733.64269116 0 89.43375366 0 5894.85989121 0 393.53329730 0 -258.42085763 0 12054
0.10750000 0.10749900 15693.98838414 0 410.23204454 0 6853.51649410 0 202.00628977 0 556.09398693 0 12807
0.10850000 0.10850100 15255.70393815 0 189.87492781 0 5581.37117431 0 313.42610484 0 772.73721967 0 12736
0.10950000 0.10950300 15243.95044548 0 -116.41450022 0 6146.97780109 0 143.52881918 0 203.31674928 0 12933
0.11050000 0.11050200 14952.74942635 0 68.67851361 0 5399.90603526 0 272.65027296 0 19.51123720 0 13428
0.11150000 0.11150900 14744.37208449 0 235.22144034 0 5906.52550729 0 -536.95886149 0 341.09624317 0 13453
0.11250000 0.11250000 14670.22621956 0 95.98989581 0 5436.41875452 0 702.86215656 0 806.14789563 0 13668
0.11350000 0.11349100 14960.98785579 0 -269.15717888 0 5130.52037728 0 775.54487642 0 86.58765090 0 13791
0.11450000 0.11448600 14748.65606779 0 152.19674540 0 4594.97852565 0 387.28307550 0 123.59950914 0 14205
0.11550000 0.11549300 14743.71301013 0 276.56956845 0 4618.86997101 0 86.59160535 0 1139.03426925 0 14776
0.11650000 0.11649800 14266.43333147 0 192.64304010 0 4861.13471929 0 95.86840643 0 1031.25913537 0 14553
0.11750000 0.11747300 14093.09677614 0 -36.96385566 0 4422.01544578 0 393.12247428 0 1748.56820179 0 14568
0.11850000 0.11849100 14060.25290412 0 -10.61397507 0 4526.44577731 0 738.40164269 0 1202.90955881 0 16015
0.11950000 0.11950300 14009.39433307 0 389.89410840 0 3980.45759716 0 -179.37807025 0 1413.54972263 0 15270
0.12050000 0.12050700 13693.91740853 0 295.23345573 0 4281.22617901 0 -46.74407970 0 1569.61852987 0 15999
0.12150000 0.12150000 13503.44491997 0 103.46863220 0 4268.71475084 0 -197.88487814 0 1756.22444888 0 15670
0.12250000 0.12250700 13332.52497061 0 -204.01646655 0 4505.04782992 0 -111.15838224 0 1200.53689113 0 16887
0.12350000 0.12352200 13498.39201658 0 -28.43872888 0 4189.13152248 0 59.68412589 0 -261.47237190 0 16407
0.12450000 0.12449800 13124.58701164 0 500.47360366 0 4084.76709839 0 -375.59878565 0 130.48244232 0 16306
0.12550000 0.12549900 13144.24939656 0 291.62172826 0 4941.94821977 0 -349.27974974 0 739.78789575 0 17523
0.12650000 0.12650100 12745.39956613 0 -122.06935818 0 4431.89057653 0 13.09822404 0 -321.40969219 0 17154
0.12750000 0.12750600 12956.08366824 0 161.95653814 0 4750.03675221 0 656.11620948 0 -389.08344695 0 18007
0.12850000 0.12850300 12696.18868097 0 223.89085372 0 4501.41193640 0 226.43707765 0 542.42698172 0 17496
0.12950000 0.12949900 12567.11995314 0 -41.13348956 0 4191.25154499 0 209.91188666 0 590.72065508 0 18405
0.13050000 0.13049000 12596.00937903 0 1.36597554 0 4325.05462361 0 222.31346910 0 154.99341758 0 18100
0.13150000 0.13148800 12143.77452585 0 282.74289824 0 4152.75061809 0 -176.04095710 0 -48.89738546 0 19059
0.13250000 0.13249300 12239.55999876 0 65.67247548 0 4294.50652726 0 -150.64792067 0 589.73314200 0 18957
0.13350000 0.13349100 12044.25429827 0 -58.17034194 0 3962.23419124 0 299.10991139 0 133.02756779 0 19468
0.13450000 0.13450700 12309.97110901 0 69.95854586 0 3841.28306255 0 667.82796077 0 7.65180932 0 19953
0.13550000 0.13551000 12101.59376714 0 30.88422427 0 3579.14722247 0 11.51260099 0 519.37805308 0 19956
0.13650000 0.13649900 11853.67196398 0 239.03748086 0 3515.07421060 0 322.67950878 0 1052.90094027 0 19723
0.13750000 0.13749600 11859.05440454 0 66.52883276 0 3700.36198090 0 276.31362791 0 1230.85431146 0 20946
0.13850000 0.13851100 11547.20238896 0 194.01391476 0 3806.06652285 0 188.35026914 0 1360.61506736 0 20955
0.13950000 0.13949800 11513.91913404 0 113.45196099 0 3849.53247656 0 -306.89248106 0 1386.54964323 0 20506
0.14050000 0.14048300 11130.11816805 0 179.87127756 0 4076.28700836 0 6.02021583 0 1814.62942129 0 21447
0.14150000 0.14148400 11179.98812757 0 109.41930471 0 4003.97556705 0 30.03709403 0 1666.64525948 0 21771
0.14250000 0.14249400 10985.56119288 0 26.85112860 0 4095.51001037 0 -146.73631437 0 1223.41775582 0 22470
0.14350000 0.14350900 10959.67055530 0 338.80595978 0 4313.41097667 0 -166.68759355 0 581.99011679 0 22519
0.14450000 0.14449900 10780.17165475 0 90.60932262 0 4102.77081285 0 -156.20172056 0 851.42190998 0 22218
0.14550000 0.14550500 10511.41211740 0 -40.28800701 0 4318.72750980 0 75.48938800 0 358.72758062 0 23559
0.14650000 0.14650700 10556.83332503 0 130.44179940 0 4067.33458170 0 -35.76477971 0 16.37755834 0 23044
0.14750000 0.14750500 10343.73261695 0 274.88892885 0 4073.12345145 0 -231.83269970 0 -300.69718213 0 23649
0.14850000 0.14849900 10203.69030111 0 148.68058372 0 4243.42826475 0 -26.65538352 0 308.95867917 0 23640
0.14950000 0.14949500 10159.71905706 0 -43.86732999 0 4409.49303304 0 252.59464034 0 -867.03867682 0 24457
0.15050000 0.15050000 10032.40786085 0 15.11938539 0 4094.54336799 0 183.46323280 0 2.04316345 0 24591
0.15150000 0.15149900 9956.29575743 0 26.46304365 0 3888.05537260 0 382.69042570 0 -24.40706120 0 25020
0.15250000 0.15250500 10048.76388942 0 88.92099381 0 3650.38217566 0 278.40728745 0 248.20630359 0 25297
0.15350000 0.15350100 9927.46125441 0 128.06583635 0 3317.15418183 0 342.79555655 0 440.00792543 0 25452
0.15450000 0.15450400 9731.16694238 0 187.43964807 0 3270.11824204 0 493.72028844 0 953.81899713 0 26061
0.15550000 0.15549900 9611.16048693 0 13.16028687 0 3022.86649781 0 163.88652754 0 973.32210574 0 26128
0.15650000 0.15649500 9349.14547714 0 17.38517318 0 2906.95728793 0 444.41273904 0 1693.29383256 0 26331
0.15750000 0.15749700 9347.92618959 0 -61.09773054 0 2537.15066740 0 278.69947708 0 1503.08497374 0 27345
0.15850000 0.15849900 9464.40659724 0 124.52221324 0 2490.86167855 0 -171.17808682 0 1018.37752710 0 26980
0.15950000 0.15949700 9184.29999641 0 245.21740139 0 2584.30743749 0 -379.14570413 0 877.05111473 0 27777
0.16050000 0.16050000 8863.13306328 0 257.35315718 0 2796.15590430 0 -210.07116296 0 991.17643002 0 28224
0.16150000 0.16150500 8886.88170920 0 101.93826155 0 3328.03989326 0 -244.91862102 0 364.97670396 0 28075
0.16250000 0.16249700 8663.15891944 0 75.58671131 0 3281.22364492 0 -60.51071498 0 207.64796625 0 28590
0.16350000 0.16349900 8693.78390779 0 -20.70262394 0 2920.49028135 0 92.03457091 0 102.88776800 0 29163
0.16450000 0.16449100 8856.88284148 0 -95.72934174 0 3209.98869173 0 463.59839351 0 117.40860404 0 28996
0.16550000 0.16550500 8815.98727776 0 -37.34271356 0 2692.48350828 0 49.49934004 0 -215.69087029 0 30777
0.16650000 0.16650700 8758.04365740 0 145.86963159 0 2539.69908824 0 -41.30627689 0 260.09600495 0 29211
0.16750000 0.16749900 8579.36859979 0 300.25120848 0 2730.31437625 0 -31.09238192 0 -17.47228084 0 30922
0.16850000 0.16850800 8320.75880750 0 118.42028317 0 2692.16495567 0 -79.88354657 0 180.42050619 0 30867
0.16950000 0.16949900 8188.51553820 0 -43.23384969 0 2750.13054518 0 362.47222141 0 -377.40025555 0 30852
0.17050000 0.17049200 8245.96485280 0 -40.98464860 0 2386.05787155 0 267.43040407 0 232.71476088 0 31257
0.17150000 0.17149500 7987.93724286 0 141.74602305 0 2227.88002638 0 271.22118006 0 437.49685214 0 32608
0.17250000 0.17250900 7997.90025019 0 182.99529000 0 2001.25730945 0 167.90029036 0 409.47410903 0 32361
0.17350000 0.17350400 8003.82093482 0 104.83104874 0 2093.08833623 0 14.64001864 0 481.44722550 0 32508
0.17450000 0.17449800 7963.40869229 0 -85.60035752 0 2145.50671659 0 148.12805972 0 651.99919168 0 32791
0.17550000 0.17549800 7840.09588049 0 -66.20368941 0 1772.55850831 0 283.82927247 0 1009.55361995 0 33633
0.17650000 0.17650100 7880.98045964 0 56.05800864 0 1814.95895847 0 -140.22465974 0 518.17414392 0 33984
0.17750000 0.17750300 7735.55570323 0 244.74726168 0 1982.21006059 0 -378.02857310 0 501.38752010 0 34069
0.17850000 0.17849800 7632.76207302 0 134.35120879 0 2197.82623579 0 -135.35739563 0 502.70896419 0 34536
