### header ###
fiducial parameters:
Omega_m = 0.31
Omega_nu = 0
Omega_de = 0.69
Omega_k = 0
H_0 = 100
w_de = -1
zeff = 0
beta = 0
fgrowth = 0
b_1 = 2
gamma = 0.55
Lx = 3500 Ly = 3500 Lz = 3500
nx = 700 ny = 700 nz = 700
xoffset = -983.599254 yoffset = -42.9823471 zoffset = 800.977702
bins = 400 dk = 0.001
kx_ny = 0.628318531 ky_ny = 0.628318531 kz_ny = 0.628318531
############################
A(data) = 8.98832619 (not used)
A(ran) = 8.96297476 (used)
Ngal = 497636
weighted Ngal = 0
Nran = 25229228
weighted Nran = 0
SN(data) = 6792.07777
SN(ran) = 133.049185
SN(data+ran) = 6925.12696
############################
13 columns: k_central k_mean P_0(k) sigma^{lin}_{P_0(k)} P^img_1(k) sigma^{lin}_{P_1(k)} P_2(k) sigma^{lin}_{P_2(k)} P^img_3(k) sigma^{lin}_{P_3(k)} P_4(k) sigma^{lin}_{P_4(k)} N_modes
### header ###
0.00050000 0 0 0 0 0 0 0 0 0 0 0 0
0.00150000 0.00179520 36628.49665539 0 17393.96083683 0 17187.12133512 0 41811.01799927 0 -54825.53959365 0 3
0.00250000 0.00253879 42547.20405367 0 4451.48705402 0 46875.34534217 0 14718.22880174 0 21861.71604284 0 6
0.00350000 0.00331552 38233.34270953 0 2090.68271483 0 19426.32645583 0 6604.21063479 0 -48458.22225114 0 7
0.00450000 0.00420575 42426.26390955 0 732.87750114 0 12030.52358254 0 56955.44821717 0 16563.63699541 0 24
0.00550000 0.00557378 56023.73677082 0 429.66595035 0 22367.22607303 0 -5163.75969391 0 301.70117206 0 45
0.00650000 0.00659388 53931.39538552 0 8736.19534253 0 19722.58037835 0 -2282.03396920 0 44614.93999638 0 40
0.00750000 0.00754703 50295.06247820 0 12653.23900218 0 50021.76631237 0 21373.67148305 0 -1530.39262118 0 57
0.00850000 0.00846663 51500.28978182 0 -8191.76697168 0 46915.43903209 0 10822.47324376 0 36490.53042377 0 75
0.00950000 0.00948925 47233.00302542 0 -1569.50868414 0 45074.53451319 0 37657.86095199 0 23422.84349810 0 112
0.01050000 0.01054430 56356.12993713 0 -2117.02371988 0 36261.28239400 0 6156.04007347 0 16012.21145182 0 105
0.01150000 0.01145670 57893.42086989 0 5686.10907387 0 41971.94198759 0 8310.90564590 0 26836.62896493 0 144
0.01250000 0.01249090 63306.50839225 0 -722.55200291 0 41304.95874045 0 8928.26059412 0 15892.69930214 0 169
0.01350000 0.01339930 64537.65928717 0 -5594.98105973 0 38244.76666501 0 2510.45815603 0 22553.08504111 0 180
0.01450000 0.01448870 69921.74753791 0 -2866.94049001 0 28749.59227997 0 20427.13086372 0 8583.34501506 0 267
0.01550000 0.01550050 73753.71568291 0 -6153.34885319 0 31875.03271654 0 1458.92699196 0 12031.62203980 0 238
0.01650000 0.01653350 77534.71541114 0 -2077.14972141 0 1833.32516383 0 1940.04028645 0 584.50338700 0 315
0.01750000 0.01747870 82141.75499748 0 1203.30500342 0 26643.19064177 0 3051.72296998 0 -109.68677905 0 297
0.01850000 0.01844180 77360.82962717 0 3102.38381872 0 10986.22026723 0 -2556.08807053 0 4583.17011012 0 388
0.01950000 0.01947590 77894.13062600 0 2501.64852882 0 17734.81212403 0 676.93197453 0 -5767.96610875 0 399
0.02050000 0.02045430 77049.08745732 0 -3345.04401162 0 20949.55713569 0 4210.81506876 0 -4521.75536482 0 462
0.02150000 0.02154770 69904.06237606 0 4882.95008044 0 18318.42246528 0 -5504.54507367 0 -8464.04157226 0 571
0.02250000 0.02255340 70690.99715578 0 5718.88703845 0 22293.95897392 0 1246.77095713 0 6844.45422172 0 510
0.02350000 0.02348930 68930.71939962 0 -4972.30957839 0 18010.63474155 0 6022.97296122 0 -1544.92521070 0 555
0.02450000 0.02439640 75769.60444304 0 -1281.14168473 0 16074.27428691 0 9539.68387314 0 8023.85679520 0 592
0.02550000 0.02547300 69716.99510499 0 3616.17621664 0 17522.80987321 0 326.78773892 0 3537.63652268 0 837
0.02650000 0.02652900 70431.43170569 0 -512.39186492 0 18102.35592260 0 -1986.30730617 0 9381.63784284 0 723
0.02750000 0.02749970 68914.02284930 0 660.97688285 0 25689.72974171 0 4253.40225666 0 6172.30822546 0 826
0.02850000 0.02848090 66279.92234429 0 4523.55683472 0 26309.91870966 0 -12640.60674371 0 7416.34402402 0 831
0.02950000 0.02946900 62503.75582800 0 5599.29799676 0 33603.89459512 0 -1537.66440823 0 2114.28856131 0 996
0.03050000 0.03053250 59291.42742232 0 984.25724775 0 34725.85883858 0 3164.27090064 0 4418.85188888 0 1041
0.03150000 0.03150510 59767.05941509 0 -1356.91326640 0 34127.63901580 0 10677.59771599 0 8339.48750376 0 1036
0.03250000 0.03246190 59393.80363877 0 -1489.84856378 0 31697.74171508 0 4268.14355306 0 12154.53940698 0 1059
0.03350000 0.03345080 58673.65506034 0 948.29265866 0 28953.35610136 0 4117.29241780 0 13993.90608573 0 1302
0.03450000 0.03451200 57980.52853046 0 1628.19925544 0 20886.06630617 0 1409.39755419 0 4904.16129009 0 1339
0.03550000 0.03553350 56385.78828310 0 4064.36874711 0 29056.39139217 0 -3007.33431217 0 7547.51080521 0 1365
0.03650000 0.03647120 53459.16861025 0 1412.48421909 0 26984.59115760 0 1830.30440637 0 8500.52133780 0 1308
0.03750000 0.03744890 49217.36606224 0 671.07609888 0 27941.23758371 0 5793.48327085 0 7107.63359619 0 1579
0.03850000 0.03847530 48326.07784299 0 -378.39216245 0 16122.82609772 0 4066.78535307 0 6212.32502338 0 1662
0.03950000 0.03950240 52187.59448824 0 -1222.16551455 0 21550.74279306 0 4291.35395493 0 1644.20377769 0 1683
0.04050000 0.04050350 47772.56523062 0 111.03425657 0 12009.43320318 0 1724.18245066 0 8653.42658813 0 1822
0.04150000 0.04152450 50604.93727072 0 2395.06522106 0 15215.17086532 0 1120.87677077 0 1535.24780226 0 1887
0.04250000 0.04250150 46403.66779553 0 1693.09611025 0 12225.71943731 0 -2371.83285005 0 -606.03534617 0 1920
0.04350000 0.04349210 44576.27430090 0 1076.27940609 0 16493.00619371 0 552.25487881 0 1300.97982282 0 2005
0.04450000 0.04448520 42542.70037891 0 1474.22850157 0 14456.02705423 0 -2069.13098343 0 -2057.94868854 0 2151
0.04550000 0.04548030 39265.34330354 0 2549.31058925 0 17321.57250352 0 -248.91371007 0 176.49352149 0 2274
0.04650000 0.04648670 38662.40011455 0 245.90064181 0 18132.67334293 0 192.55626198 0 84.26012982 0 2311
0.04750000 0.04749250 37553.28782102 0 -110.96834913 0 13255.74280826 0 4026.68067858 0 66.15645575 0 2568
0.04850000 0.04851840 38020.79123008 0 -1215.32212583 0 12989.80630607 0 4217.15316714 0 -1543.83773802 0 2493
0.04950000 0.04949480 38723.14480093 0 265.32246459 0 9154.43294357 0 1419.45942268 0 -175.00840728 0 2644
0.05050000 0.05050630 37899.74124023 0 230.89901103 0 8932.89608375 0 -952.65133706 0 652.60224472 0 2829
0.05150000 0.05149060 38158.20823307 0 1897.66180544 0 10442.75853877 0 136.58766776 0 1258.26082005 0 2784
0.05250000 0.05249300 36284.13030497 0 1224.42833650 0 12067.76128359 0 -3778.35244623 0 -3574.44582540 0 3055
0.05350000 0.05348950 34985.86367158 0 594.23242293 0 13220.15279310 0 -1747.04134620 0 -1778.72085352 0 3009
0.05450000 0.05448610 34563.17731865 0 -781.57430831 0 12059.52285415 0 2419.61574078 0 -3653.96314632 0 3336
0.05550000 0.05550870 35019.69615513 0 -375.93930740 0 11840.49047688 0 2633.25469292 0 -5320.19099204 0 3349
0.05650000 0.05647670 35368.56618031 0 1162.16777911 0 10693.29467020 0 -703.13237705 0 -1455.95017279 0 3324
0.05750000 0.05747970 34424.66185840 0 506.53708773 0 9988.46957052 0 1380.00283797 0 193.09670295 0 3639
0.05850000 0.05849280 34398.29888420 0 -528.63035856 0 10910.11914839 0 2559.40541145 0 1496.94459767 0 3846
0.05950000 0.05951020 33738.67530069 0 1637.26152782 0 10619.21471272 0 -2506.24008016 0 -3877.63101322 0 3787
0.06050000 0.06049470 31983.99967655 0 1521.62693226 0 11869.37990277 0 -2440.68415099 0 -643.81788202 0 3930
0.06150000 0.06148310 31191.35291908 0 -187.50335859 0 13081.52748712 0 477.29615552 0 -221.51489068 0 4083
0.06250000 0.06249100 31325.25485885 0 280.57234670 0 13754.55224918 0 643.41914204 0 -2107.47812631 0 4303
0.06350000 0.06350600 30236.57387031 0 852.18643623 0 13588.46551175 0 -1560.84185637 0 -5197.47134716 0 4470
0.06450000 0.06451750 30410.89903717 0 723.03532411 0 13514.31964683 0 792.51274568 0 -2654.89430090 0 4479
0.06550000 0.06550280 30153.09111869 0 -578.21252228 0 14516.11266625 0 2179.77858304 0 -1291.39029095 0 4636
0.06650000 0.06648880 29625.61194333 0 -569.76209059 0 12601.17212814 0 1676.04805361 0 -1350.57516802 0 4653
0.06750000 0.06749660 31276.70304804 0 -152.51200263 0 11093.97892425 0 962.35950231 0 -1616.85219197 0 5220
0.06850000 0.06852730 29964.70569892 0 520.40181524 0 10597.54215101 0 266.77901891 0 -1930.03334083 0 5029
0.06950000 0.06949320 29484.02080276 0 155.64260582 0 9983.57045115 0 1210.01657727 0 2158.29275907 0 5040
0.07050000 0.07048030 29854.75012738 0 -135.60235160 0 8440.01831202 0 1417.93256709 0 444.09858026 0 5475
0.07150000 0.07148790 29140.31352669 0 879.57976334 0 9670.18059540 0 809.81674287 0 547.35466098 0 5509
0.07250000 0.07249820 28526.27591939 0 1270.66240249 0 9660.06380406 0 -1472.87739914 0 -115.38085194 0 5916
0.07350000 0.07351270 27327.19997641 0 324.07894332 0 10092.75710261 0 -56.39754178 0 546.75600178 0 5721
0.07450000 0.07449140 26181.72874763 0 38.27794007 0 9871.54977997 0 -623.06253213 0 -1086.08643249 0 6028
0.07550000 0.07549160 26605.29386637 0 105.20276667 0 10051.22443368 0 587.14517670 0 16.48993051 0 6183
0.07650000 0.07648840 26177.55461005 0 128.83365798 0 9275.57080999 0 1168.81344552 0 -1762.72731585 0 6330
0.07750000 0.07749960 26630.99776621 0 -252.77808270 0 8389.09383353 0 642.01091983 0 -2853.91278693 0 6583
0.07850000 0.07848650 26080.01160553 0 1188.97013620 0 8801.44370366 0 -1102.43367341 0 -2618.11795190 0 6549
0.07950000 0.07947320 25265.72524007 0 794.51852864 0 9322.79348752 0 -1196.61539872 0 -2241.25923578 0 6828
0.08050000 0.08048110 23964.93215499 0 89.04786563 0 10056.43112108 0 416.92055078 0 -1690.70147343 0 7147
0.08150000 0.08149960 23799.61433764 0 485.29841664 0 10380.55290424 0 562.74404717 0 -1902.19843391 0 7386
0.08250000 0.08250610 23337.49336914 0 522.91179008 0 9356.34037218 0 1325.03603677 0 1116.74657148 0 7227
0.08350000 0.08350160 23298.71782793 0 -204.27460401 0 9051.00220814 0 1649.67409484 0 -297.41059801 0 7798
0.08450000 0.08449610 22923.92421146 0 218.45788413 0 8603.42481374 0 1218.34288329 0 653.12291346 0 7371
0.08550000 0.08548940 22593.61811394 0 442.62115525 0 7909.08998087 0 751.57434213 0 2504.10907308 0 8256
0.08650000 0.08650700 22146.21647270 0 515.76193178 0 8570.82260232 0 -690.81867118 0 3604.76324573 0 8037
0.08750000 0.08749060 21491.09656395 0 313.83363248 0 8343.60671847 0 -270.93448272 0 2960.63889413 0 8155
0.08850000 0.08849210 21032.27096722 0 408.61950928 0 8482.80322222 0 -72.95887201 0 1494.03368593 0 8718
0.08950000 0.08949900 19867.68658215 0 590.81292549 0 8178.76123775 0 -154.62982823 0 2095.36214275 0 8571
0.09050000 0.09049190 19507.17291003 0 747.94723626 0 9492.10968929 0 -20.45382338 0 655.89761649 0 8932
0.09150000 0.09150830 19033.29844887 0 272.66015907 0 8605.57778997 0 520.56219000 0 2264.63440623 0 9285
0.09250000 0.09250820 18698.59852232 0 -81.84879645 0 8459.73561980 0 1073.28391315 0 1533.51223979 0 9204
0.09350000 0.09350330 18566.45411416 0 -16.50772552 0 7395.86878073 0 960.22080603 0 1247.02360230 0 9349
0.09450000 0.09448040 18044.79676228 0 185.65135965 0 6918.28153404 0 735.48194330 0 2530.16447924 0 9564
0.09550000 0.09549270 18012.17258171 0 290.82314983 0 6766.80427814 0 509.73799218 0 2784.22665848 0 10155
0.09650000 0.09649430 18269.54111729 0 83.95574731 0 6021.84155025 0 192.07513770 0 2249.76129496 0 9913
0.09750000 0.09749140 17645.72724040 0 180.83242766 0 6180.01939542 0 42.02972084 0 1763.96857255 0 10476
0.09850000 0.09850240 17688.45722774 0 -61.77328175 0 6578.14424406 0 -429.47481879 0 2159.98438325 0 10575
0.09950000 0.09950330 17395.71836844 0 260.69466416 0 6053.20250497 0 -94.73600684 0 960.85791124 0 10882
0.10050000 0.10051200 17271.92223545 0 255.57805025 0 7211.59159110 0 -331.79011328 0 1413.07738601 0 10875
0.10150000 0.10150300 16719.94746324 0 528.59081410 0 7184.85514144 0 -1005.55303861 0 445.77482604 0 11118
0.10250000 0.10250800 16491.57819927 0 533.62724063 0 7730.06341694 0 -240.33036505 0 -601.18785429 0 11575
0.10350000 0.10349800 16162.37055901 0 174.29001623 0 7976.07390447 0 -377.31347743 0 -1177.40338128 0 11364
0.10450000 0.10450100 15604.68380906 0 38.86308826 0 8080.42734400 0 799.74718519 0 182.56139939 0 12093
0.10550000 0.10551000 15973.65560206 0 -379.75974174 0 6906.45114937 0 1748.79887781 0 257.52122114 0 12067
0.10650000 0.10649700 16123.37532635 0 -621.22810851 0 5866.09129561 0 1478.63331517 0 -706.06196255 0 12054
0.10750000 0.10749900 16531.12266057 0 454.32741425 0 5477.13856508 0 236.65932089 0 53.81913305 0 12807
0.10850000 0.10850100 16007.15854844 0 520.99827753 0 5051.39850097 0 -1010.41151507 0 364.49667814 0 12736
0.10950000 0.10950300 15512.96262800 0 -27.62521143 0 5613.59991026 0 19.05779405 0 443.53836706 0 12933
0.11050000 0.11050200 15449.14226130 0 31.88107423 0 4967.23470586 0 834.51884969 0 236.53739214 0 13428
0.11150000 0.11150900 15470.56217784 0 124.49035798 0 4747.03796389 0 459.75928539 0 -81.30813578 0 13453
0.11250000 0.11250000 15077.97355378 0 402.37807514 0 4751.29997805 0 58.68463963 0 1086.71584850 0 13668
0.11350000 0.11349100 15006.13444910 0 233.21455893 0 4197.55668965 0 663.41985179 0 763.59256299 0 13791
0.11450000 0.11448600 14474.37129044 0 -222.64080936 0 4310.50006494 0 790.96282249 0 1497.86730176 0 14205
0.11550000 0.11549300 14442.18649277 0 424.80857235 0 3789.93018573 0 -87.77728011 0 1294.59778615 0 14776
0.11650000 0.11649800 14067.39287630 0 388.14097062 0 4254.78631280 0 -790.37185249 0 1401.77426082 0 14553
0.11750000 0.11747300 13824.08459362 0 -7.94771174 0 4100.13451543 0 -99.38874225 0 406.14138971 0 14568
0.11850000 0.11849100 13387.88721642 0 250.33401530 0 4851.80881717 0 -81.16006375 0 808.24594899 0 16015
0.11950000 0.11950300 13359.76671061 0 174.09888467 0 4215.06609835 0 483.52660509 0 944.88634270 0 15270
0.12050000 0.12050700 13325.38499843 0 14.57136507 0 4607.75358356 0 356.57130902 0 976.47138270 0 15999
0.12150000 0.12150000 13167.97607334 0 108.00888559 0 4303.85439852 0 259.47757352 0 903.04610574 0 15670
0.12250000 0.12250700 13312.31335706 0 -120.93025801 0 4088.75449824 0 596.18877531 0 1384.97884935 0 16887
0.12350000 0.12352200 13394.91734287 0 16.12842823 0 3807.62633216 0 -284.02479786 0 721.37225982 0 16407
0.12450000 0.12449800 12894.46021606 0 178.75854036 0 3815.34848669 0 -662.72233143 0 801.81558020 0 16306
0.12550000 0.12549900 12903.90694848 0 317.86826599 0 4532.41040022 0 -314.43448860 0 613.07645720 0 17523
0.12650000 0.12650100 12733.20669057 0 84.65612366 0 4352.63688536 0 259.07553816 0 776.79931461 0 17154
0.12750000 0.12750600 12754.18722420 0 -87.98961190 0 4311.66442963 0 433.28976084 0 33.93090532 0 18007
0.12850000 0.12850300 13237.06903487 0 -151.22461073 0 4036.89633108 0 306.66290350 0 -171.87011489 0 17496
0.12950000 0.12949900 12733.75591920 0 190.47798085 0 3988.17975168 0 -190.53070680 0 -28.74245231 0 18405
0.13050000 0.13049000 12422.34328652 0 354.07671259 0 4048.60588545 0 -664.84015703 0 232.83998501 0 18100
0.13150000 0.13148800 12368.40903514 0 255.00355710 0 4434.63671968 0 370.81610274 0 219.32676382 0 19059
0.13250000 0.13249300 12394.11293498 0 -57.90528421 0 4106.43966009 0 667.23259694 0 291.40313527 0 18957
0.13350000 0.13349100 12346.65958143 0 -216.75857075 0 3953.77607036 0 476.40640514 0 586.97930966 0 19468
0.13450000 0.13450700 12156.84616722 0 176.92301828 0 3697.67076062 0 255.18919638 0 539.50728233 0 19953
0.13550000 0.13551000 12291.51702707 0 231.48448875 0 3720.32094928 0 -192.46728694 0 1551.64776912 0 19956
0.13650000 0.13649900 11929.13597761 0 35.90241641 0 3370.14375996 0 237.79732261 0 982.76883816 0 19723
0.13750000 0.13749600 11861.69070196 0 77.64631867 0 3746.47521660 0 205.80914880 0 1426.14902738 0 20946
0.13850000 0.13851100 11590.15206775 0 285.10018752 0 3766.62092272 0 -405.21648870 0 520.39302758 0 20955
0.13950000 0.13949800 11103.75519385 0 554.16729290 0 4197.32601363 0 -814.72135453 0 1024.17847988 0 20506
0.14050000 0.14048300 10862.34724223 0 268.76283272 0 4624.88951679 0 164.38632559 0 769.01784339 0 21447
0.14150000 0.14148400 10863.47865321 0 -219.24328107 0 4219.40500452 0 828.96175442 0 1007.67965186 0 21771
0.14250000 0.14249400 10887.21631455 0 -207.38323805 0 4064.19299394 0 469.97933172 0 656.44464820 0 22470
0.14350000 0.14350900 10967.20597209 0 42.38737852 0 3309.01461355 0 120.95222715 0 1354.25499984 0 22519
0.14450000 0.14449900 10862.33625766 0 36.76624320 0 3318.77989857 0 173.50461929 0 1196.74721359 0 22218
0.14550000 0.14550500 11008.95833247 0 138.03213906 0 3014.38640777 0 -106.09273675 0 483.20036328 0 23559
0.14650000 0.14650700 10715.12101592 0 389.61180489 0 3238.43873471 0 -442.16529549 0 541.66025856 0 23044
0.14750000 0.14750500 10313.18452060 0 164.07656065 0 3492.19334592 0 -53.09316265 0 398.36101695 0 23649
0.14850000 0.14849900 10159.77397993 0 43.21166085 0 4069.43263507 0 -173.27064790 0 -16.64195700 0 23640
0.14950000 0.14949500 9889.25691097 0 221.84223094 0 3477.77060212 0 292.34451314 0 74.59875885 0 24457
0.15050000 0.15050000 9924.78101870 0 -68.11500504 0 3537.47175410 0 402.63840951 0 401.95407064 0 24591
0.15150000 0.15149900 10105.79579026 0 -48.49161535 0 3177.05694313 0 479.78525967 0 292.00289293 0 25020
0.15250000 0.15250500 9997.22427487 0 36.85708561 0 2644.87637071 0 324.90388473 0 475.87035800 0 25297
0.15350000 0.15350100 9710.71366823 0 26.58376410 0 2663.75885098 0 -58.49943974 0 895.39644940 0 25452
0.15450000 0.15450400 9694.17090192 0 240.09529520 0 2419.16537331 0 174.99083196 0 575.99803245 0 26061
0.15550000 0.15549900 9401.45401177 0 236.15293210 0 2984.79396924 0 -137.22806834 0 755.86162081 0 26128
0.15650000 0.15649500 9384.44989342 0 105.43531008 0 2386.00294868 0 75.88384400 0 479.01084730 0 26331
0.15750000 0.15749700 9261.12609705 0 -35.81761551 0 2579.06779637 0 191.98396575 0 737.46685556 0 27345
0.15850000 0.15849900 9094.45717727 0 27.44396598 0 2409.74061003 0 11.76107202 0 306.89797335 0 26980
0.15950000 0.15949700 8981.30509511 0 169.21843907 0 2386.91466821 0 -86.17012730 0 415.35854456 0 27777
0.16050000 0.16050000 8962.29079997 0 54.18898361 0 2271.03841205 0 17.24665772 0 -35.72172019 0 28224
0.16150000 0.16150500 8812.92258201 0 198.80538532 0 2395.58149597 0 -311.48952469 0 -288.07700669 0 28075
0.16250000 0.16249700 8682.94213466 0 163.17912107 0 2543.20316690 0 -93.77145153 0 -115.49399303 0 28590
0.16350000 0.16349900 8659.01773557 0 -7.06939630 0 2556.82403690 0 164.49287595 0 -434.46950394 0 29163
0.16450000 0.16449100 8620.93422243 0 -54.02048027 0 2198.40841814 0 336.57609155 0 -598.66140260 0 28996
0.16550000 0.16550500 8662.53279880 0 118.68830674 0 2329.01498613 0 52.18594680 0 -263.76265528 0 30777
0.16650000 0.16650700 8399.90265295 0 -33.39321049 0 1982.71535093 0 106.66360498 0 171.26706186 0 29211
0.16750000 0.16749900 8474.07048702 0 139.25032816 0 1993.78780009 0 293.76152300 0 -150.36561715 0 30922
0.16850000 0.16850800 8219.61286318 0 86.62818398 0 1993.08478745 0 124.17400229 0 775.98755469 0 30867
0.16950000 0.16949900 8095.45423929 0 124.03669513 0 2020.90870980 0 118.90799819 0 696.04622927 0 30852
0.17050000 0.17049200 8087.49042417 0 168.35175630 0 2097.67988757 0 23.70998023 0 765.34020849 0 31257
0.17150000 0.17149500 7953.96195987 0 84.50607440 0 2087.71688024 0 -86.10685616 0 920.39184430 0 32608
0.17250000 0.17250900 7748.33076115 0 106.52344184 0 2334.51825700 0 37.52428855 0 696.84810307 0 32361
0.17350000 0.17350400 7709.45635878 0 88.81949636 0 2111.34469586 0 56.38534890 0 969.97620494 0 32508
0.17450000 0.17449800 7770.78322750 0 -15.05501580 0 2198.50727929 0 83.70189384 0 843.19885895 0 32791
0.17550000 0.17549800 7719.69398043 0 -7.40208605 0 2028.42215744 0 109.71621770 0 816.28555766 0 33633
0.17650000 0.17650100 7602.96092760 0 -27.64443443 0 1673.26895674 0 284.86072384 0 633.63078941 0 33984
0.17750000 0.17750300 7638.17746730 0 -8.89717425 0 1497.88927091 0 116.82202786 0 676.08396552 0 34069
0.17850000 0.17849800 7546.59908569 0 232.42257125 0 1418.03142824 0 -146.37931576 0 178.22359168 0 34536
