### header ###
fiducial parameters:
Omega_m = 0.31
Omega_nu = 0
Omega_de = 0.69
Omega_k = 0
H_0 = 100
w_de = -1
zeff = 0
beta = 0
fgrowth = 0
b_1 = 2
gamma = 0.55
Lx = 3500 Ly = 3500 Lz = 3500
nx = 700 ny = 700 nz = 700
xoffset = -983.599254 yoffset = -42.9823471 zoffset = 800.977702
bins = 400 dk = 0.001
kx_ny = 0.628318531 ky_ny = 0.628318531 kz_ny = 0.628318531
############################
A(data) = 9.07899193 (not used)
A(ran) = 9.05714491 (used)
Ngal = 502873
weighted Ngal = 0
Nran = 25229228
weighted Nran = 0
SN(data) = 6772.35208
SN(ran) = 134.447076
SN(data+ran) = 6906.79916
############################
13 columns: k_central k_mean P_0(k) sigma^{lin}_{P_0(k)} P^img_1(k) sigma^{lin}_{P_1(k)} P_2(k) sigma^{lin}_{P_2(k)} P^img_3(k) sigma^{lin}_{P_3(k)} P_4(k) sigma^{lin}_{P_4(k)} N_modes
### header ###
0.00050000 0 0 0 0 0 0 0 0 0 0 0 0
0.00150000 0.00179520 17753.15636024 0 2348.71032477 0 9834.34503263 0 18268.44266003 0 -5711.86789657 0 3
0.00250000 0.00253879 11291.81107644 0 2753.29410209 0 21488.13072935 0 12910.71738348 0 4994.81696761 0 6
0.00350000 0.00331552 17283.45603666 0 -4019.43086067 0 -8003.04103016 0 45385.94714587 0 -31260.66557207 0 7
0.00450000 0.00420575 39693.85147994 0 -15601.05890010 0 4237.03524351 0 3686.09302112 0 6520.24456198 0 24
0.00550000 0.00557378 64568.52593612 0 -12363.46597748 0 -3407.05192384 0 11440.10280629 0 -3372.80202653 0 45
0.00650000 0.00659388 60143.61056318 0 -12719.14643766 0 -9424.43373762 0 11069.70301885 0 56880.97281507 0 40
0.00750000 0.00754703 67573.13607429 0 -2685.65110413 0 -19843.85005965 0 2995.47097379 0 -5030.07744559 0 57
0.00850000 0.00846663 87762.12140445 0 3392.18979713 0 -2084.70710735 0 -17603.54648168 0 17052.78001245 0 75
0.00950000 0.00948925 78074.60715351 0 -524.06077637 0 -4924.20813505 0 5457.47618016 0 -11775.90119010 0 112
0.01050000 0.01054430 85335.95885841 0 4919.18818539 0 13934.91893097 0 -6423.08601750 0 22798.26070113 0 105
0.01150000 0.01145670 70535.34576231 0 230.62110135 0 8781.26504383 0 -5240.81647057 0 21453.41947999 0 144
0.01250000 0.01249090 73287.20088538 0 -2818.30080262 0 15803.39472705 0 4765.27235438 0 1552.59244236 0 169
0.01350000 0.01339930 78157.54067650 0 1175.57994223 0 18746.93064168 0 -2827.25322928 0 -18421.34791036 0 180
0.01450000 0.01448870 82455.36454468 0 -110.93210004 0 12271.96448788 0 2831.63607374 0 -1290.10509596 0 267
0.01550000 0.01550050 87985.98699366 0 -5444.94278285 0 16978.19476463 0 -2082.35640882 0 17051.13232657 0 238
0.01650000 0.01653350 77891.38448285 0 6088.86941214 0 19595.92825649 0 9433.18844196 0 2146.85781902 0 315
0.01750000 0.01747870 89231.96706156 0 4894.94523370 0 23143.83535454 0 -8063.63193252 0 8592.12168855 0 297
0.01850000 0.01844180 74893.14539678 0 1404.75107999 0 23659.12165433 0 6134.02699002 0 298.54420590 0 388
0.01950000 0.01947590 85377.26085131 0 -1718.16290488 0 28480.36040600 0 6069.25096551 0 588.59074646 0 399
0.02050000 0.02045430 76005.99244499 0 -2061.58458207 0 15759.01705382 0 -580.22269906 0 16811.55879857 0 462
0.02150000 0.02154770 78193.67992029 0 1257.32713138 0 12913.46352663 0 4690.98369001 0 -3654.97372700 0 571
0.02250000 0.02255340 74192.98874044 0 2557.51606497 0 19596.03810221 0 -6299.15806963 0 4122.04873773 0 510
0.02350000 0.02348930 68354.90810491 0 8406.16385932 0 21760.10874646 0 -6843.83908565 0 -2920.57815793 0 555
0.02450000 0.02439640 65877.88698782 0 7207.60419126 0 28359.74979906 0 -7525.75036693 0 -1646.89499798 0 592
0.02550000 0.02547300 62723.88666253 0 -956.85183762 0 31114.46091101 0 2354.37836422 0 -16095.25482054 0 837
0.02650000 0.02652900 61585.66525166 0 -716.38855924 0 34132.47222773 0 -1587.99571979 0 -22117.32704681 0 723
0.02750000 0.02749970 58855.23004511 0 3835.10973276 0 26164.70266013 0 -1657.40723394 0 -6868.52142024 0 826
0.02850000 0.02848090 61717.58996836 0 -1609.16299116 0 30394.42217830 0 5980.17706644 0 -16173.90436022 0 831
0.02950000 0.02946900 62742.88997310 0 -1353.47509518 0 27175.72272052 0 7112.07136352 0 -1527.53663231 0 996
0.03050000 0.03053250 57201.94202589 0 1101.20340128 0 22895.58401420 0 2653.82879736 0 -1032.37516794 0 1041
0.03150000 0.03150510 63186.99624256 0 532.02459149 0 21286.67366821 0 10091.27418531 0 2124.53716753 0 1036
0.03250000 0.03246190 60966.46489525 0 -2535.87645698 0 17767.76584177 0 7021.59143916 0 1744.14141904 0 1059
0.03350000 0.03345080 59199.59639554 0 3248.80817123 0 18077.09140566 0 -3511.11976447 0 5250.04351154 0 1302
0.03450000 0.03451200 56935.56614080 0 3395.24350831 0 17823.45762476 0 -3971.93356883 0 3463.65542635 0 1339
0.03550000 0.03553350 52995.29011014 0 1186.00430161 0 19488.27944519 0 342.76699666 0 610.81143833 0 1365
0.03650000 0.03647120 52341.15881292 0 21.06203916 0 21277.22693579 0 -1026.06013717 0 -4150.50976529 0 1308
0.03750000 0.03744890 50695.77968596 0 1323.86068750 0 19164.01486259 0 3298.49139302 0 -2510.00778855 0 1579
0.03850000 0.03847530 50816.50013863 0 2156.32652058 0 20407.24878735 0 -1707.71657636 0 -8031.77667203 0 1662
0.03950000 0.03950240 48726.02613068 0 1077.12411972 0 19681.60792262 0 1516.73879746 0 -5052.69468054 0 1683
0.04050000 0.04050350 45055.53120262 0 177.21740483 0 21287.44258829 0 1873.03439371 0 -1227.97635344 0 1822
0.04150000 0.04152450 44864.17994825 0 1662.86656651 0 17243.03280956 0 1686.92278046 0 -4847.25021955 0 1887
0.04250000 0.04250150 40975.53140873 0 1545.49640848 0 18037.76663582 0 3038.02520797 0 786.46354156 0 1920
0.04350000 0.04349210 42816.87531054 0 726.47679070 0 13021.11233792 0 4944.76027035 0 -1459.43228230 0 2005
0.04450000 0.04448520 41599.56497708 0 -866.23350765 0 12916.42936122 0 4018.27748055 0 4006.48004960 0 2151
0.04550000 0.04548030 41179.40507584 0 -99.59305530 0 9657.58129065 0 -650.48332066 0 -1078.84869762 0 2274
0.04650000 0.04648670 40102.36773424 0 1383.08950286 0 9905.27241779 0 -2683.08071415 0 2199.29816852 0 2311
0.04750000 0.04749250 37532.63682456 0 1214.56419032 0 10309.41681220 0 -2615.03128700 0 -976.55706237 0 2568
0.04850000 0.04851840 37356.66397181 0 833.32153128 0 10275.79303553 0 2782.48011143 0 -1926.58418504 0 2493
0.04950000 0.04949480 37136.09375438 0 251.49069079 0 11786.55622551 0 4505.26752138 0 -1908.85508490 0 2644
0.05050000 0.05050630 38482.80235285 0 -837.98118697 0 9030.26333511 0 214.34855552 0 -2528.16528703 0 2829
0.05150000 0.05149060 36546.99112684 0 1534.90728051 0 9508.72934760 0 661.23392185 0 1944.50002292 0 2784
0.05250000 0.05249300 34830.65166100 0 -28.33624281 0 7699.20775256 0 -387.13698069 0 2103.17217386 0 3055
0.05350000 0.05348950 36487.01536054 0 -581.07510189 0 6916.23840354 0 2436.82856602 0 3355.44640185 0 3009
0.05450000 0.05448610 35003.98821634 0 458.79264300 0 6642.78845370 0 1301.14459141 0 2893.19361848 0 3336
0.05550000 0.05550870 34824.39045463 0 955.22172705 0 9605.59130863 0 -3356.67667398 0 944.53154101 0 3349
0.05650000 0.05647670 33687.92657537 0 2283.63771680 0 10138.43095540 0 -3018.02230130 0 629.43578114 0 3324
0.05750000 0.05747970 33254.25564986 0 580.80268449 0 12553.38923741 0 766.42109043 0 279.68589169 0 3639
0.05850000 0.05849280 32149.75687680 0 -1324.86028361 0 11623.54516840 0 586.37735508 0 3731.30552187 0 3846
0.05950000 0.05951020 32941.19533129 0 676.50247774 0 12560.74890104 0 2068.95523027 0 -1838.63071238 0 3787
0.06050000 0.06049470 32623.96087514 0 694.28320538 0 12090.49934883 0 -979.35263609 0 2225.80394216 0 3930
0.06150000 0.06148310 31232.21552908 0 154.20802064 0 12433.98693345 0 -298.24872090 0 1748.23866461 0 4083
0.06250000 0.06249100 33185.27253404 0 95.64728699 0 14583.44809617 0 649.81985248 0 2919.35887037 0 4303
0.06350000 0.06350600 32314.52546552 0 189.73652220 0 12926.42532227 0 169.34915549 0 -1041.47478787 0 4470
0.06450000 0.06451750 32169.08972454 0 294.16245990 0 13921.40790669 0 -576.56923022 0 1757.43275186 0 4479
0.06550000 0.06550280 31412.14282796 0 176.33094982 0 13419.52278545 0 81.84901614 0 -872.90553704 0 4636
0.06650000 0.06648880 31792.42873073 0 682.74171496 0 14940.55655079 0 416.71404082 0 -734.24288351 0 4653
0.06750000 0.06749660 30787.23049381 0 374.59699263 0 13017.92681188 0 -235.38620893 0 -1126.41299535 0 5220
0.06850000 0.06852730 30327.63597701 0 185.10213103 0 13027.59323575 0 784.13700909 0 -1286.85366248 0 5029
0.06950000 0.06949320 30026.43899683 0 228.71527800 0 12797.02705726 0 818.29902982 0 -588.17882498 0 5040
0.07050000 0.07048030 28896.34616966 0 578.77603085 0 11511.28283662 0 1504.52395275 0 -104.12496041 0 5475
0.07150000 0.07148790 28772.22049949 0 383.67684032 0 12378.84437909 0 621.63453769 0 -413.84926429 0 5509
0.07250000 0.07249820 27468.79111699 0 877.33451670 0 10586.95302304 0 2315.42706985 0 2315.24033211 0 5916
0.07350000 0.07351270 27346.53282416 0 262.68946254 0 11318.50358782 0 -340.45144876 0 3002.41322366 0 5721
0.07450000 0.07449140 26263.45396764 0 651.05891227 0 10248.24372750 0 1542.89306478 0 2345.77744389 0 6028
0.07550000 0.07549160 26273.01054578 0 -317.62111310 0 10369.53537794 0 661.71724304 0 3544.93027888 0 6183
0.07650000 0.07648840 26150.53256150 0 -64.05686455 0 9427.01511217 0 216.59599907 0 2719.72524828 0 6330
0.07750000 0.07749960 26623.63810258 0 368.35885386 0 9466.29594372 0 235.05777021 0 2965.39521406 0 6583
0.07850000 0.07848650 25740.58831276 0 -166.42286535 0 9166.69172657 0 -232.63127813 0 4435.18594831 0 6549
0.07950000 0.07947320 25473.77304476 0 255.31442051 0 10364.10899909 0 656.64017360 0 2351.52237535 0 6828
0.08050000 0.08048110 25500.90493904 0 767.39102819 0 9605.97576867 0 -296.27369475 0 3041.90276209 0 7147
0.08150000 0.08149960 25425.11138823 0 308.20843286 0 9872.91186697 0 561.46214755 0 1058.29985769 0 7386
0.08250000 0.08250610 24381.57699300 0 373.00093423 0 10315.60112657 0 240.19745172 0 1862.61003433 0 7227
0.08350000 0.08350160 24176.05564000 0 686.24908899 0 10217.99221461 0 -478.44294490 0 2011.90136028 0 7798
0.08450000 0.08449610 23278.83575156 0 202.30946397 0 9854.80929135 0 694.37108196 0 1747.95306572 0 7371
0.08550000 0.08548940 22800.12807847 0 268.79029415 0 9380.17689468 0 1600.47419425 0 2496.07935052 0 8256
0.08650000 0.08650700 22091.07391834 0 60.57794056 0 8535.48523232 0 1324.86028361 0 1939.91945616 0 8037
0.08750000 0.08749060 21975.18667761 0 524.73303221 0 7634.79421894 0 293.27600489 0 3232.47411180 0 8155
0.08850000 0.08849210 21701.89051178 0 386.72396076 0 6542.54324432 0 -500.11880197 0 986.41571626 0 8718
0.08950000 0.08949900 20192.72008483 0 577.87968973 0 7849.56458206 0 255.65823763 0 2647.28199210 0 8571
0.09050000 0.09049190 19974.67631909 0 521.93086775 0 7731.82094856 0 -1223.76926214 0 1057.16075751 0 8932
0.09150000 0.09150830 19422.92123833 0 260.15422319 0 7839.84323532 0 10.64261185 0 727.97618485 0 9285
0.09250000 0.09250820 19460.48847656 0 68.06107079 0 7559.48398933 0 953.56305659 0 -203.35958911 0 9204
0.09350000 0.09350330 19612.18542391 0 -848.53077048 0 5679.85885207 0 1295.16898392 0 -306.05875200 0 9349
0.09450000 0.09448040 20005.65281377 0 306.83206591 0 6246.83855043 0 833.58845639 0 -1072.70942000 0 9564
0.09550000 0.09549270 18952.89137758 0 821.59989388 0 5658.38401267 0 -1915.98407250 0 -762.91261795 0 10155
0.09650000 0.09649430 18536.35638529 0 816.16143199 0 6180.76634635 0 52.77285252 0 -1419.07496264 0 9913
0.09750000 0.09749140 17848.72214170 0 -32.11845084 0 6234.76650516 0 276.63327897 0 -1320.46645458 0 10476
0.09850000 0.09850240 17614.75074572 0 169.16571312 0 6245.80600061 0 413.04189820 0 -1157.52130490 0 10575
0.09950000 0.09950330 17581.57733652 0 -74.85876368 0 5814.43085076 0 404.91221604 0 -1354.88112047 0 10882
0.10050000 0.10051200 17141.86489609 0 375.47575843 0 5516.29856633 0 24.84611457 0 -778.34704088 0 10875
0.10150000 0.10150300 16949.30533874 0 376.75875651 0 5951.24370227 0 69.99918877 0 -450.24444862 0 11118
0.10250000 0.10250800 16828.69473180 0 283.40746488 0 6251.04564173 0 300.05788000 0 -136.34381025 0 11575
0.10350000 0.10349800 16589.34089525 0 -70.28149229 0 6319.29279118 0 610.44015978 0 519.26051815 0 11364
0.10450000 0.10450100 16185.32831571 0 115.92458828 0 6060.88072120 0 507.45869337 0 1342.80907521 0 12093
0.10550000 0.10551000 16350.31659588 0 52.32193581 0 6337.45028965 0 325.68269092 0 1692.37112846 0 12067
0.10650000 0.10649700 15737.37744584 0 354.70393168 0 5827.97482876 0 -257.42895073 0 1833.50091699 0 12054
0.10750000 0.10749900 15788.23601689 0 306.47067348 0 6841.82890887 0 129.62564566 0 1991.28331755 0 12807
0.10850000 0.10850100 15493.62978026 0 189.98367508 0 6222.17818498 0 85.68427965 0 2699.29394328 0 12736
0.10950000 0.10950300 15240.21569081 0 133.13631506 0 6958.95740631 0 244.70332339 0 2084.75104564 0 12933
0.11050000 0.11050200 14871.90297215 0 154.50899793 0 5624.85909716 0 451.63289860 0 2408.46639961 0 13428
0.11150000 0.11150900 14997.67632821 0 -2.76766192 0 6062.72612939 0 545.88931900 0 2183.63416802 0 13453
0.11250000 0.11250000 14775.01904199 0 224.74874884 0 5265.90523434 0 794.60750368 0 2798.27592681 0 13668
0.11350000 0.11349100 14478.32573657 0 160.50657456 0 4838.96785182 0 461.00054209 0 2465.97063708 0 13791
0.11450000 0.11448600 14472.61375882 0 66.78114839 0 4771.17106985 0 -161.91040293 0 2648.32552650 0 14205
0.11550000 0.11549300 13949.63825823 0 286.27224141 0 4579.81981548 0 -13.25739049 0 2287.37247148 0 14776
0.11650000 0.11649800 13656.46001603 0 66.99117342 0 4150.65256473 0 248.01736894 0 1692.46998962 0 14553
0.11750000 0.11747300 14047.51079992 0 -180.30956201 0 4314.09202017 0 649.86598769 0 2079.53337366 0 14568
0.11850000 0.11849100 13776.30170289 0 -197.76844167 0 3313.75994890 0 -11.97889609 0 1153.05058386 0 16015
0.11950000 0.11950300 14021.69705436 0 47.63328085 0 3391.49776906 0 591.63127615 0 1579.69138292 0 15270
0.12050000 0.12050700 13793.54748184 0 390.91567365 0 2780.77750268 0 -222.72978440 0 998.95240895 0 15999
0.12150000 0.12150000 13866.37519806 0 47.95007592 0 3124.06736500 0 32.28069298 0 1478.36968543 0 15670
0.12250000 0.12250700 13595.27594675 0 192.79792258 0 2969.62427450 0 192.08502382 0 478.86365403 0 16887
0.12350000 0.12352200 13311.43459125 0 72.11459776 0 3118.34440268 0 -252.48369615 0 1017.88102442 0 16407
0.12450000 0.12449800 13245.74684721 0 -51.76556721 0 2738.90431200 0 179.25833841 0 923.34889124 0 16306
0.12550000 0.12549900 13130.07929793 0 240.67088680 0 3051.34949451 0 212.65143906 0 500.41977926 0 17523
0.12650000 0.12650100 13086.80008196 0 95.65552542 0 3030.27009972 0 -346.71045821 0 861.64085785 0 17154
0.12750000 0.12750600 12751.77061823 0 143.30912773 0 2887.48164074 0 39.66759835 0 752.29053626 0 18007
0.12850000 0.12850300 12658.95097992 0 69.84430630 0 3300.46861608 0 -154.40244758 0 242.86780132 0 17496
0.12950000 0.12949900 12764.84225960 0 63.01453845 0 3330.68717525 0 92.08641809 0 562.44306988 0 18405
0.13050000 0.13049000 12606.00534008 0 269.06820384 0 3484.98746630 0 -112.84780950 0 -186.12149936 0 18100
0.13150000 0.13148800 12180.35315255 0 71.98519950 0 3481.03302017 0 -32.22049752 0 771.81122020 0 19059
0.13250000 0.13249300 12345.45127845 0 148.21044401 0 3869.66719810 0 -258.08912354 0 -363.19500629 0 18957
0.13350000 0.13349100 12150.47511513 0 258.24290756 0 3739.98333421 0 -369.25409652 0 -345.91517516 0 19468
0.13450000 0.13450700 11796.22264938 0 174.39656659 0 3759.54685797 0 318.74153951 0 -8.25638921 0 19953
0.13550000 0.13551000 11883.44015567 0 -149.94930185 0 3681.84199153 0 342.19360197 0 -25.81121911 0 19956
0.13650000 0.13649900 11614.75751033 0 129.12365069 0 3728.88891590 0 76.50018837 0 -174.02858341 0 19723
0.13750000 0.13749600 11632.66236364 0 33.43121711 0 3492.47894480 0 209.92616660 0 491.72439160 0 20946
0.13850000 0.13851100 11610.80306421 0 97.00432108 0 3407.20570785 0 -91.12021509 0 -148.55975342 0 20955
0.13950000 0.13949800 11363.32064395 0 239.94590501 0 3402.36151135 0 -29.31727499 0 -116.77040037 0 20506
0.14050000 0.14048300 11585.86808445 0 113.60904038 0 4121.20292564 0 -311.87618164 0 -205.70479536 0 21447
0.14150000 0.14148400 11241.17219684 0 185.35697311 0 3866.60250235 0 172.54676456 0 -11.85389166 0 21771
0.14250000 0.14249400 11033.12439215 0 -3.28969275 0 4138.14113656 0 -311.48952469 0 -78.34241103 0 22470
0.14350000 0.14350900 10803.22827260 0 188.37553365 0 4044.91506906 0 72.46972899 0 -517.39533773 0 22519
0.14450000 0.14449900 10859.41436135 0 222.40134568 0 4312.85076347 0 256.23602615 0 -191.93014134 0 22218
0.14550000 0.14550500 10461.73988019 0 -28.89854308 0 3834.50558127 0 231.21976055 0 237.13495289 0 23559
0.14650000 0.14650700 10662.80149672 0 97.30782482 0 3933.17999677 0 481.21215564 0 -214.93293478 0 23044
0.14750000 0.14750500 10358.61671280 0 64.33708099 0 3551.61988358 0 -86.85128065 0 -41.96205587 0 23649
0.14850000 0.14849900 10355.80466221 0 136.80845767 0 3110.35861842 0 100.80201736 0 66.12372172 0 23640
0.14950000 0.14949500 10153.44686612 0 71.12389916 0 3366.24423670 0 352.96287693 0 14.48920046 0 24457
0.15050000 0.15050000 10136.12419516 0 90.63909081 0 2983.12431421 0 125.67339645 0 29.12021176 0 24591
0.15150000 0.15149900 10081.59677687 0 17.61738704 0 2957.79388983 0 328.28933000 0 108.26153076 0 25020
0.15250000 0.15250500 10002.90329889 0 40.72651115 0 2649.79745922 0 237.82478404 0 223.09886604 0 25297
0.15350000 0.15350100 9801.80872865 0 168.62856753 0 2719.41768025 0 -368.90808249 0 -172.71922235 0 25452
0.15450000 0.15450400 9585.73120140 0 238.51241829 0 3116.80656252 0 -74.26526723 0 444.94329389 0 26061
0.15550000 0.15549900 9451.45578617 0 70.05696763 0 2930.44230411 0 129.28512391 0 352.23130439 0 26128
0.15650000 0.15649500 9334.54698018 0 -15.35610293 0 2704.48964611 0 386.32961460 0 463.22711496 0 26331
0.15750000 0.15749700 9262.07077029 0 43.40685670 0 2589.12966486 0 199.43040750 0 512.24906547 0 27345
0.15850000 0.15849900 9368.68703176 0 98.71461903 0 2484.79819448 0 123.43144518 0 343.54799977 0 26980
0.15950000 0.15949700 9232.22568659 0 117.16804190 0 2426.42617578 0 241.51010815 0 918.93528998 0 27777
0.16050000 0.16050000 9222.32858669 0 -92.28732593 0 2203.63707469 0 289.10076885 0 703.85296501 0 28224
0.16150000 0.16150500 9231.00639903 0 -49.86281955 0 2200.46253321 0 -55.40662348 0 803.92681505 0 28075
0.16250000 0.16249700 9093.63333433 0 192.49694529 0 2060.27741793 0 -234.83038956 0 327.45889631 0 28590
0.16350000 0.16349900 9090.88719118 0 213.30502113 0 2479.60249165 0 -317.71008814 0 480.89250458 0 29163
0.16450000 0.16449100 8966.06949294 0 11.61486736 0 2618.60127309 0 -86.25174267 0 542.74114050 0 28996
0.16550000 0.16550500 8880.35687309 0 34.83449626 0 2412.58561433 0 239.24948311 0 214.92963941 0 30777
0.16650000 0.16650700 8960.45637635 0 -9.64064308 0 2695.83380291 0 -42.74404759 0 -74.08292332 0 29211
0.16750000 0.16749900 8744.77429372 0 257.88261358 0 2560.11940867 0 -94.40603028 0 -7.23499972 0 30922
0.16850000 0.16850800 8514.25205352 0 93.09546093 0 2697.49247337 0 -234.71285463 0 105.61941151 0 30867
0.16950000 0.16949900 8361.80815524 0 152.25166826 0 2661.24338385 0 108.48341912 0 -175.49172847 0 30852
0.17050000 0.17049200 8391.23582519 0 74.64500390 0 2608.28675944 0 250.18792048 0 -30.73230763 0 31257
0.17150000 0.17149500 8081.44890925 0 71.48595067 0 2347.48005264 0 126.00513054 0 209.49557136 0 32608
0.17250000 0.17250900 8107.14182452 0 95.05313146 0 2441.16747219 0 237.77645192 0 -10.00315594 0 32361
0.17350000 0.17350400 7967.20935440 0 13.33680895 0 2116.47449126 0 264.21741659 0 586.59155425 0 32508
0.17450000 0.17449800 8047.12211993 0 -72.46819115 0 1857.73288410 0 367.75030854 0 235.62896799 0 32791
0.17550000 0.17549800 8084.01929923 0 -26.52389818 0 1762.43073239 0 15.28404414 0 344.25980007 0 33633
0.17650000 0.17650100 8022.18714017 0 158.73366454 0 1515.06914243 0 -307.68446875 0 251.87624929 0 33984
0.17750000 0.17750300 7840.60117083 0 90.46201950 0 1727.80735961 0 67.06839496 0 263.13214081 0 34069
0.17850000 0.17849800 7907.95856990 0 126.53788231 0 2073.78844220 0 -60.76292077 0 -7.34803097 0 34536
