### header ###
fiducial parameters:
Omega_m = 0.31
Omega_nu = 0
Omega_de = 0.69
Omega_k = 0
H_0 = 100
w_de = -1
zeff = 0
beta = 0
fgrowth = 0
b_1 = 2
gamma = 0.55
Lx = 3500 Ly = 3500 Lz = 3500
nx = 700 ny = 700 nz = 700
xoffset = -983.599254 yoffset = -42.9823471 zoffset = 800.977702
bins = 400 dk = 0.001
kx_ny = 0.628318531 ky_ny = 0.628318531 kz_ny = 0.628318531
############################
A(data) = 9.03240522 (not used)
A(ran) = 9.01894599 (used)
Ngal = 501509
weighted Ngal = 0
Nran = 25229228
weighted Nran = 0
SN(data) = 6760.59178
SN(ran) = 133.88004
SN(data+ran) = 6894.47182
############################
13 columns: k_central k_mean P_0(k) sigma^{lin}_{P_0(k)} P^img_1(k) sigma^{lin}_{P_1(k)} P_2(k) sigma^{lin}_{P_2(k)} P^img_3(k) sigma^{lin}_{P_3(k)} P_4(k) sigma^{lin}_{P_4(k)} N_modes
### header ###
0.00050000 0 0 0 0 0 0 0 0 0 0 0 0
0.00150000 0.00179520 53322.95991024 0 -8463.10788359 0 75523.98940012 0 -140153.26002262 0 -164035.91772897 0 3
0.00250000 0.00253879 55031.28063809 0 2134.25851426 0 -10502.88808908 0 846.08560462 0 43395.32290268 0 6
0.00350000 0.00331552 65656.98723320 0 -32250.81494455 0 -35918.89326664 0 46029.31356196 0 -34033.83076595 0 7
0.00450000 0.00420575 56744.54442361 0 -32400.20513166 0 -27378.38808464 0 -4340.85043898 0 -32724.79925143 0 24
0.00550000 0.00557378 91207.32274886 0 21733.41623509 0 -5087.51577562 0 -31901.83507364 0 -13013.53298284 0 45
0.00650000 0.00659388 58929.15621858 0 12317.55046409 0 13083.17517301 0 -49590.07260993 0 62277.69332428 0 40
0.00750000 0.00754703 57472.71174002 0 8864.85764118 0 16757.95408437 0 11014.12108159 0 5874.27480219 0 57
0.00850000 0.00846663 50160.06208117 0 -8021.70381898 0 25876.35762987 0 49196.93475724 0 13910.31348838 0 75
0.00950000 0.00948925 65663.68782248 0 -8118.80744060 0 14310.04208462 0 679.49467531 0 -14687.36215279 0 112
0.01050000 0.01054430 68759.36006735 0 10707.17916995 0 29719.74973036 0 -13736.53755015 0 8416.92874045 0 105
0.01150000 0.01145670 57458.54164139 0 7472.44223619 0 34523.52301163 0 -9874.77924430 0 8154.85880781 0 144
0.01250000 0.01249090 59133.79880577 0 -2815.17019944 0 35927.90061615 0 6412.94725700 0 -2117.29833420 0 169
0.01350000 0.01339930 66712.05542964 0 -2230.09891004 0 52415.63421502 0 12505.71619241 0 -7772.28811395 0 180
0.01450000 0.01448870 67252.93578355 0 -1127.13797714 0 34486.72469348 0 2509.18394561 0 6034.66054645 0 267
0.01550000 0.01550050 75705.56438489 0 -4684.59066877 0 27458.79515594 0 11949.34759116 0 912.60378234 0 238
0.01650000 0.01653350 75686.34138287 0 -3739.39016729 0 28656.55295021 0 12453.64931837 0 5671.71928379 0 315
0.01750000 0.01747870 76456.90914946 0 4430.67128898 0 13883.62097701 0 -1626.03529464 0 4277.54634719 0 297
0.01850000 0.01844180 75740.49532570 0 297.24582942 0 23472.71345762 0 -383.58127454 0 4931.98521244 0 388
0.01950000 0.01947590 69176.00490536 0 6267.05016398 0 17453.16768304 0 8322.71406142 0 7627.23683301 0 399
0.02050000 0.02045430 72999.51492948 0 1789.76034897 0 21327.53627821 0 5505.98405268 0 6110.43212811 0 462
0.02150000 0.02154770 70377.38760859 0 152.76794318 0 18833.15953644 0 -2058.42102516 0 293.16835608 0 571
0.02250000 0.02255340 61368.61009745 0 -714.13122957 0 24204.17614581 0 5571.19946010 0 8613.48668222 0 510
0.02350000 0.02348930 66177.98551074 0 -36.80644673 0 15259.10915565 0 -2462.41163556 0 11338.71520137 0 555
0.02450000 0.02439640 63130.09615659 0 -539.08437629 0 15387.40896340 0 5017.04974251 0 2360.62858602 0 592
0.02550000 0.02547300 69529.26875958 0 -446.22299660 0 11171.85954386 0 4396.57517568 0 4061.51275823 0 837
0.02650000 0.02652900 69705.57114951 0 -4291.48576980 0 13259.58740867 0 252.62649560 0 11133.63323127 0 723
0.02750000 0.02749970 74423.99430183 0 -725.37393961 0 11248.86139765 0 8211.35246459 0 -2960.13360379 0 826
0.02850000 0.02848090 75199.28543462 0 3971.42827849 0 8910.09211107 0 -4339.54327484 0 7170.82784225 0 831
0.02950000 0.02946900 68785.83288727 0 3057.28116370 0 10462.13532480 0 -6602.38719574 0 2962.58316348 0 996
0.03050000 0.03053250 63339.90149290 0 4239.85827866 0 22609.21620700 0 -1208.40184510 0 9538.53049302 0 1041
0.03150000 0.03150510 61637.84197142 0 4027.10907691 0 24675.52415528 0 -1764.51780118 0 -824.21422215 0 1036
0.03250000 0.03246190 57759.73862157 0 2453.17361002 0 21651.25163218 0 -1286.51314073 0 -179.07709296 0 1059
0.03350000 0.03345080 54514.34665242 0 -979.43392193 0 23968.55706394 0 5251.46052140 0 3931.16981998 0 1302
0.03450000 0.03451200 52387.84324639 0 2376.57818541 0 20335.84906557 0 309.40684973 0 -1670.24819928 0 1339
0.03550000 0.03553350 49909.61382632 0 1479.11663637 0 20773.58428293 0 259.88510116 0 7004.54338252 0 1365
0.03650000 0.03647120 51172.72982745 0 -1454.02787259 0 18186.27805712 0 8403.72528421 0 -3859.90191308 0 1308
0.03750000 0.03744890 47406.11988930 0 1794.95605180 0 16995.98977221 0 -2228.89060705 0 774.44641916 0 1579
0.03850000 0.03847530 45807.09565864 0 3011.71715663 0 16631.41180823 0 -688.65690730 0 4244.02143167 0 1662
0.03950000 0.03950240 46328.09393617 0 128.63154184 0 17980.75670413 0 3345.18681106 0 74.73452817 0 1683
0.04050000 0.04050350 47014.84941396 0 -1326.56289236 0 17320.03466336 0 3234.15475141 0 -887.67649179 0 1822
0.04150000 0.04152450 44302.09936927 0 2238.02977144 0 17268.73670940 0 -1447.33826789 0 2330.98122462 0 1887
0.04250000 0.04250150 43952.24073255 0 1403.93822162 0 17478.10266280 0 -396.15970860 0 3556.88149385 0 1920
0.04350000 0.04349210 43598.20795825 0 223.79858332 0 18122.45769043 0 2119.30851098 0 3830.77082659 0 2005
0.04450000 0.04448520 41905.26563202 0 833.89602443 0 18203.74352753 0 161.51056449 0 5446.93099048 0 2151
0.04550000 0.04548030 39301.48254734 0 1279.71369030 0 19138.97003710 0 -1175.86554112 0 2714.67234489 0 2274
0.04650000 0.04648670 38669.97946963 0 949.13188001 0 20855.85873157 0 -388.43316025 0 1426.90696289 0 2311
0.04750000 0.04749250 38988.75176595 0 888.02470274 0 19910.63626094 0 4633.30369938 0 4429.28723283 0 2568
0.04850000 0.04851840 38711.83069117 0 -469.26094067 0 18634.00923554 0 2717.51734919 0 6037.85705707 0 2493
0.04950000 0.04949480 38294.30708735 0 -1249.15460938 0 15586.22972712 0 2465.80586849 0 6208.20580866 0 2644
0.05050000 0.05050630 38839.47142456 0 459.52641245 0 15339.95560985 0 772.44173466 0 4974.40763175 0 2829
0.05150000 0.05149060 37976.41355685 0 1397.55618495 0 15680.36751414 0 1723.00710139 0 7063.42069155 0 2784
0.05250000 0.05249300 37325.46778568 0 350.00143616 0 14951.10174047 0 -28.26682032 0 6292.04006660 0 3055
0.05350000 0.05348950 37443.44209520 0 93.26319535 0 13759.60515257 0 1932.60373082 0 5454.53231471 0 3009
0.05450000 0.05448610 36432.42203482 0 38.77894643 0 12930.37976840 0 1388.84541889 0 4716.51183669 0 3336
0.05550000 0.05550870 36380.24531505 0 232.66972413 0 13806.17974031 0 748.60191679 0 6510.56715353 0 3349
0.05650000 0.05647670 36601.14506966 0 751.10420242 0 11509.85484218 0 -996.50175081 0 754.87520619 0 3324
0.05750000 0.05747970 34661.81878043 0 972.50155817 0 10058.23259099 0 -1458.93797654 0 -255.97569178 0 3639
0.05850000 0.05849280 33969.24147917 0 1406.73928763 0 13435.45041569 0 -1156.85124598 0 -772.06386537 0 3846
0.05950000 0.05951020 31767.71344242 0 227.24883756 0 11220.08181749 0 1596.15725722 0 -509.71821995 0 3787
0.06050000 0.06049470 32374.94061472 0 -92.20395302 0 12819.54543106 0 1573.23245425 0 -879.71267666 0 3930
0.06150000 0.06148310 31803.08376613 0 -465.22520871 0 7464.95075769 0 1895.33307605 0 -4192.97612289 0 4083
0.06250000 0.06249100 33077.40403130 0 -447.04134726 0 8188.91098281 0 1701.36749341 0 -870.89865562 0 4303
0.06350000 0.06350600 32108.34503817 0 747.53970862 0 7339.29823193 0 -1229.61305476 0 -3940.84722843 0 4470
0.06450000 0.06451750 31334.15236264 0 1204.02998521 0 9153.02691828 0 -2327.47714597 0 -933.29871709 0 4479
0.06550000 0.06550280 30214.60472515 0 350.14972789 0 10118.82349334 0 -458.33238941 0 -3808.59297455 0 4636
0.06650000 0.06648880 30103.88023353 0 -290.01468529 0 9335.20605454 0 1242.92635672 0 -4462.42768831 0 4653
0.06750000 0.06749660 30015.56426997 0 549.86353736 0 9537.97027982 0 274.36716165 0 -2422.12022333 0 5220
0.06850000 0.06852730 30364.10475798 0 818.48027527 0 9950.79248657 0 1223.51661697 0 -1501.67894845 0 5029
0.06950000 0.06949320 29187.87672597 0 40.96509606 0 10197.30826444 0 -1197.58204111 0 -3285.34285964 0 5040
0.07050000 0.07048030 28986.63935628 0 690.34853148 0 10339.36075706 0 -682.65933067 0 -2545.14743624 0 5475
0.07150000 0.07148790 27595.22354740 0 315.54502889 0 11938.91224721 0 996.28205935 0 -1143.72468174 0 5509
0.07250000 0.07249820 26659.77734637 0 1015.77857723 0 10866.14790434 0 622.56163562 0 97.30826421 0 5916
0.07350000 0.07351270 26866.83653953 0 -173.23439881 0 9560.26896216 0 2024.11620499 0 2187.59959872 0 5721
0.07450000 0.07449140 26931.53567203 0 123.15573241 0 10345.22651882 0 3051.97561515 0 2952.69704816 0 6028
0.07550000 0.07549160 26480.72881330 0 -257.07305058 0 7404.99696054 0 1380.46419002 0 3478.03423186 0 6183
0.07650000 0.07648840 25980.05199504 0 363.11701582 0 7946.60229624 0 -242.65030678 0 5950.28804445 0 6330
0.07750000 0.07749960 25502.55262493 0 727.72573660 0 7200.36535793 0 -88.93593283 0 3662.19059118 0 6583
0.07850000 0.07848650 24988.36478239 0 578.43001682 0 7747.66070222 0 -597.57283145 0 3041.45239461 0 6549
0.07950000 0.07947320 24683.98227617 0 230.03562363 0 7738.18101608 0 -327.78733503 0 1635.21839732 0 6828
0.08050000 0.08048110 24181.76761775 0 75.74016579 0 7247.01683768 0 -181.69361815 0 1559.27106249 0 7147
0.08150000 0.08149960 23699.65472715 0 613.28077025 0 7653.67669921 0 -446.55692761 0 -430.69190943 0 7386
0.08250000 0.08250610 22723.56560757 0 337.27031654 0 8061.58880202 0 -332.94678877 0 -292.81245593 0 7227
0.08350000 0.08350160 22824.29413814 0 351.12625639 0 7628.22544454 0 -264.71941155 0 -2456.97427213 0 7798
0.08450000 0.08449610 22108.42954302 0 702.17781769 0 8150.42104049 0 284.64103239 0 -1634.74606070 0 7371
0.08550000 0.08548940 21155.40802586 0 178.37627723 0 7544.95139980 0 954.62196938 0 16.12392455 0 8256
0.08650000 0.08650700 21271.40511232 0 -276.75191236 0 6748.84450197 0 1912.46900927 0 -995.98218052 0 8037
0.08750000 0.08749060 21169.35843304 0 331.99991861 0 6651.76284950 0 170.19606603 0 -1262.70957194 0 8155
0.08850000 0.08849210 20638.80357736 0 593.24490986 0 6222.90316677 0 -594.62676909 0 -1054.88036025 0 8718
0.08950000 0.08949900 20082.65466757 0 181.81115308 0 5744.60192287 0 254.68280758 0 17.66868500 0 8571
0.09050000 0.09049190 19678.53224230 0 176.23428558 0 6553.68160092 0 78.53859550 0 -434.39700576 0 8932
0.09150000 0.09150830 19317.24965010 0 836.30164582 0 6347.78677245 0 -480.42566025 0 -1179.28174319 0 9285
0.09250000 0.09250820 18835.13675950 0 72.77367212 0 6343.44786628 0 330.48844143 0 -317.41680005 0 9204
0.09350000 0.09350330 18122.67738188 0 -358.58258426 0 5855.68890538 0 1393.52484681 0 361.70989207 0 9349
0.09450000 0.09448040 18639.94090473 0 -332.20313321 0 4775.69671376 0 876.88854305 0 418.94061368 0 9564
0.09550000 0.09549270 18974.75067701 0 710.41075484 0 5323.79393185 0 249.33332074 0 -301.57704639 0 10155
0.09650000 0.09649430 18375.65208843 0 734.45488576 0 5242.91452393 0 -1445.18529166 0 288.48343587 0 9913
0.09750000 0.09749140 17602.99725305 0 344.37733500 0 6355.80551044 0 -893.37418958 0 -406.05900541 0 10476
0.09850000 0.09850240 17490.29553837 0 -50.36272745 0 6542.89475064 0 -142.01514508 0 -62.49738478 0 10575
0.09950000 0.09950330 16790.02903631 0 368.51483479 0 6618.76519346 0 1020.74689941 0 -151.91004806 0 10882
0.10050000 0.10051200 16464.44630500 0 269.33183358 0 6495.84782628 0 558.92690820 0 180.41501391 0 10875
0.10150000 0.10150300 16215.86542748 0 531.40066777 0 6721.51488539 0 -273.86626514 0 321.19109919 0 11118
0.10250000 0.10250800 15539.54529365 0 302.48656900 0 6718.47215878 0 334.64280678 0 1157.24669059 0 11575
0.10350000 0.10349800 15689.15517221 0 31.94401583 0 6707.91598453 0 335.35460708 0 870.59987525 0 11364
0.10450000 0.10450100 15532.95455010 0 21.95717198 0 6322.68702410 0 609.55370477 0 1090.83066939 0 12093
0.10550000 0.10551000 15226.59482081 0 -111.32424928 0 5576.31827092 0 -298.05209705 0 425.52476649 0 12067
0.10650000 0.10649700 15388.94680356 0 69.47610343 0 6038.36234741 0 208.35207735 0 -55.08774134 0 12054
0.10750000 0.10749900 15114.55218048 0 285.80210171 0 5686.68027164 0 71.72925896 0 -231.39002143 0 12807
0.10850000 0.10850100 15224.72744347 0 -80.08972699 0 5919.76191725 0 -241.15310954 0 645.63363187 0 12736
0.10950000 0.10950300 15076.98494225 0 145.62138025 0 6021.67678166 0 7.35414937 0 -626.86648961 0 12933
0.11050000 0.11050200 15382.79544291 0 213.49175886 0 5900.70368382 0 -270.17984258 0 -396.15641323 0 13428
0.11150000 0.11150900 14737.34195803 0 -92.74351522 0 6080.01584664 0 543.73744123 0 -185.95563232 0 13453
0.11250000 0.11250000 15276.46478033 0 -2.46084084 0 6000.02618910 0 956.96607717 0 621.96187796 0 13668
0.11350000 0.11349100 15222.31083750 0 76.50392312 0 5315.89602416 0 366.68810037 0 654.89692193 0 13791
0.11450000 0.11448600 14920.34493724 0 2.69256040 0 5498.94294166 0 117.80295019 0 1763.14472960 0 14205
0.11550000 0.11549300 14846.85814667 0 216.63554353 0 5125.32467445 0 516.41002157 0 1390.62491965 0 14776
0.11650000 0.11649800 14505.12809366 0 334.38247241 0 5448.97412098 0 93.76991369 0 1590.17066517 0 14553
0.11750000 0.11747300 14174.27276751 0 248.68413250 0 5681.53949168 0 -425.26003829 0 2174.61583393 0 14568
0.11850000 0.11849100 13807.82742620 0 163.07476763 0 5830.41340387 0 -145.38850731 0 1335.03199782 0 16015
0.11950000 0.11950300 13517.17563570 0 129.99253038 0 5368.57803426 0 665.51460979 0 931.16990692 0 15270
0.12050000 0.12050700 13984.56919903 0 34.99443164 0 5270.77140000 0 -142.93235689 0 784.87956620 0 15999
0.12150000 0.12150000 13925.36235282 0 -137.08966273 0 4617.26622341 0 749.20387137 0 1063.72074426 0 15670
0.12250000 0.12250700 13868.46226685 0 -268.65518391 0 4078.23127770 0 316.00418402 0 491.94298460 0 16887
0.12350000 0.12352200 13745.76459112 0 139.31843251 0 3957.32408730 0 -77.60897112 0 136.89633425 0 16407
0.12450000 0.12449800 13389.53490230 0 428.46973039 0 3843.29323933 0 -85.06354146 0 290.33104098 0 16306
0.12550000 0.12549900 13358.88794480 0 347.05317688 0 4034.46874054 0 -107.41802543 0 -382.25433817 0 17523
0.12650000 0.12650100 12946.63693582 0 195.41334931 0 4671.29933594 0 -456.39800618 0 -223.37348036 0 17154
0.12750000 0.12750600 12820.86357977 0 231.70967249 0 4565.63873228 0 -201.42630434 0 -962.55942153 0 18007
0.12850000 0.12850300 12431.89986466 0 142.21726121 0 4883.79589253 0 300.90479055 0 -429.30126254 0 17496
0.12950000 0.12949900 12535.81392128 0 -92.82403214 0 4320.34224197 0 131.36670041 0 -342.78896580 0 18405
0.13050000 0.13049000 12331.94025417 0 -71.09698696 0 4394.54302976 0 51.32508585 0 -610.39402457 0 18100
0.13150000 0.13148800 12376.86715603 0 324.57983983 0 4360.19427129 0 355.19384362 0 -1126.13838104 0 19059
0.13250000 0.13249300 12294.48286167 0 43.45749558 0 4222.12917852 0 70.15637801 0 149.94490802 0 18957
0.13350000 0.13349100 12033.37957141 0 98.67650257 0 4097.92661634 0 182.73385718 0 -713.60506855 0 19468
0.13450000 0.13450700 11641.45002171 0 149.29132595 0 4151.58625340 0 -114.12092146 0 -345.40109716 0 19953
0.13550000 0.13551000 11471.95806678 0 376.64122158 0 4205.53148935 0 255.20677170 0 -530.01661162 0 19956
0.13650000 0.13649900 11250.17954636 0 140.14666928 0 3983.73099979 0 -92.03380199 0 -190.37911969 0 19723
0.13750000 0.13749600 11420.11088419 0 67.50722864 0 4138.16310571 0 231.20548061 0 -493.77740822 0 20946
0.13850000 0.13851100 11107.38010280 0 -175.11825301 0 3180.23148461 0 555.34813445 0 -516.58577473 0 20955
0.13950000 0.13949800 11282.03480685 0 -32.58990870 0 3200.69574332 0 458.70147105 0 -37.23781090 0 20506
0.14050000 0.14048300 11259.95581596 0 42.89914976 0 2834.86553808 0 381.47333506 0 334.58568700 0 21447
0.14150000 0.14148400 11284.78094999 0 -71.90742872 0 2614.54796581 0 50.79211439 0 286.33485348 0 21771
0.14250000 0.14249400 11174.16630410 0 177.39535490 0 2726.46977584 0 219.88038628 0 503.35266014 0 22470
0.14350000 0.14350900 10863.44569949 0 294.75452836 0 2989.36355143 0 -8.62192283 0 605.26532763 0 22519
0.14450000 0.14449900 10808.86335833 0 251.34789135 0 2969.59132079 0 -233.36285066 0 992.42427746 0 22218
0.14550000 0.14550500 10440.95706887 0 146.04208938 0 3331.14852730 0 -6.39148340 0 1143.28529884 0 23559
0.14650000 0.14650700 10336.38393789 0 83.08939407 0 3448.65050020 0 94.64769088 0 647.90853685 0 23044
0.14750000 0.14750500 9981.91178069 0 271.91210968 0 3361.56480878 0 -211.33109344 0 854.09994878 0 23649
0.14850000 0.14849900 9892.54129817 0 180.17994405 0 3544.04052850 0 -10.88789736 0 953.87172308 0 23640
0.14950000 0.14949500 9981.88981155 0 -134.34351958 0 3379.01929461 0 268.08178922 0 847.56302963 0 24457
0.15050000 0.15050000 9735.76947829 0 -33.39925201 0 3258.52951797 0 2.14579232 0 155.35041619 0 24591
0.15150000 0.15149900 9836.24536369 0 180.49300437 0 3001.90793332 0 -185.00107296 0 80.74583551 0 25020
0.15250000 0.15250500 9786.82577165 0 200.65408889 0 2932.43051174 0 74.17881864 0 -50.88877863 0 25297
0.15350000 0.15350100 9573.06598921 0 62.97752044 0 3202.12373776 0 39.83763954 0 131.27223309 0 25452
0.15450000 0.15450400 9387.16308285 0 99.88074126 0 3156.51579240 0 181.18173707 0 -157.06620643 0 26061
0.15550000 0.15549900 9287.37922552 0 28.98773781 0 3067.84832253 0 82.64572719 0 632.67842697 0 26128
0.15650000 0.15649500 9216.53971694 0 -13.61142327 0 2976.43470950 0 248.76102451 0 182.63719294 0 26331
0.15750000 0.15749700 9023.79342186 0 61.55348045 0 2798.59447941 0 173.61995731 0 521.54421079 0 27345
0.15850000 0.15849900 9214.66135503 0 148.91125974 0 2943.01963971 0 46.22066482 0 342.81752569 0 26980
0.15950000 0.15949700 9000.64892743 0 131.52048443 0 2929.34384685 0 -105.35094856 0 536.47334339 0 27777
0.16050000 0.16050000 9132.65053614 0 26.26598042 0 3066.55214296 0 -64.23613277 0 171.42633816 0 28224
0.16150000 0.16150500 9026.77024103 0 113.27840475 0 3201.06921879 0 -68.20046501 0 236.54508134 0 28075
0.16250000 0.16249700 8676.97751174 0 76.96714255 0 2939.32882332 0 -10.34022854 0 507.15661762 0 28590
0.16350000 0.16349900 8737.24986150 0 51.06826654 0 3122.68330885 0 102.70454533 0 -16.18917292 0 29163
0.16450000 0.16449100 8661.33548039 0 122.25280054 0 2829.36226721 0 190.48347313 0 522.34718305 0 28996
0.16550000 0.16550500 8649.21949683 0 68.34073801 0 2858.99864404 0 235.40707962 0 377.40135401 0 30777
0.16650000 0.16650700 8588.40890302 0 -142.54679839 0 2442.22199116 0 342.38253662 0 514.21859934 0 29211
0.16750000 0.16749900 8420.30100424 0 191.14035057 0 2586.35056800 0 40.22111096 0 416.66131487 0 30922
0.16850000 0.16850800 8271.49299948 0 271.48590826 0 2500.62696357 0 -378.01539161 0 445.49801481 0 30867
0.16950000 0.16949900 8190.41586925 0 -66.63098928 0 2383.24582097 0 222.97034654 0 333.63222610 0 30852
0.17050000 0.17049200 8238.38549772 0 -109.89955022 0 2404.19340088 0 519.50657258 0 618.65442315 0 31257
0.17150000 0.17149500 8423.01419366 0 -51.81225164 0 1985.93383070 0 260.75068548 0 35.13294710 0 32608
0.17250000 0.17250900 8166.04110270 0 107.13704006 0 1548.44027393 0 -70.76690055 0 652.04093306 0 32361
0.17350000 0.17350400 8217.05345776 0 158.28329707 0 1980.37563697 0 183.05680361 0 589.56947187 0 32508
0.17450000 0.17449800 8197.57781058 0 109.48202662 0 1742.72440918 0 12.23011327 0 828.99470814 0 32791
0.17550000 0.17549800 8068.54203646 0 -36.85950222 0 1783.91655636 0 216.47626723 0 810.37036533 0 33633
0.17650000 0.17650100 7915.79057015 0 231.20438215 0 1864.49938081 0 -203.03005194 0 487.12515106 0 33984
0.17750000 0.17750300 7675.00873917 0 129.44659713 0 1661.71318639 0 21.76186628 0 842.83197422 0 34069
0.17850000 0.17849800 7594.33803813 0 -14.14670149 0 2071.85515743 0 -94.85211378 0 594.75968242 0 34536
