### header ###
fiducial parameters:
Omega_m = 0.31
Omega_nu = 0
Omega_de = 0.69
Omega_k = 0
H_0 = 100
w_de = -1
zeff = 0
beta = 0
fgrowth = 0
b_1 = 2
gamma = 0.55
Lx = 3500 Ly = 3500 Lz = 3500
nx = 700 ny = 700 nz = 700
xoffset = -983.599254 yoffset = -42.9823471 zoffset = 800.977702
bins = 400 dk = 0.001
kx_ny = 0.628318531 ky_ny = 0.628318531 kz_ny = 0.628318531
############################
A(data) = 9.06465468 (not used)
A(ran) = 9.06104943 (used)
Ngal = 503456
weighted Ngal = 0
Nran = 25229228
weighted Nran = 0
SN(data) = 6742.99175
SN(ran) = 134.505036
SN(data+ran) = 6877.49679
############################
13 columns: k_central k_mean P_0(k) sigma^{lin}_{P_0(k)} P^img_1(k) sigma^{lin}_{P_1(k)} P_2(k) sigma^{lin}_{P_2(k)} P^img_3(k) sigma^{lin}_{P_3(k)} P_4(k) sigma^{lin}_{P_4(k)} N_modes
### header ###
0.00050000 0 0 0 0 0 0 0 0 0 0 0 0
0.00150000 0.00179520 1654.50730677 0 -17186.13272359 0 -11593.77697670 0 12519.99613676 0 -783.97114204 0 3
0.00250000 0.00253879 13228.50106826 0 -20437.01697904 0 -6319.97383468 0 16794.42286534 0 28526.82514802 0 6
0.00350000 0.00331552 31495.07635095 0 -15947.73201077 0 -5694.29258044 0 -27856.10714621 0 6049.66547259 0 7
0.00450000 0.00420575 54349.68790942 0 -19115.13351460 0 -40537.35680846 0 18497.91038126 0 26449.64247289 0 24
0.00550000 0.00557378 81694.57304769 0 -5121.53499691 0 -5974.61887272 0 -43837.12241190 0 -42645.51597827 0 45
0.00650000 0.00659388 71557.46024100 0 25194.65505547 0 13115.57966212 0 -27500.64637747 0 4830.13625547 0 40
0.00750000 0.00754703 70855.43620733 0 6590.12841274 0 38360.65390574 0 -4832.19037054 0 -4572.78968903 0 57
0.00850000 0.00846663 61383.87865334 0 -9867.17792008 0 46699.81187232 0 480.03021563 0 9696.79621477 0 75
0.00950000 0.00948925 68801.54082607 0 14062.55966436 0 47766.85325287 0 2825.23206792 0 -8874.05172843 0 112
0.01050000 0.01054430 71754.08409021 0 -5226.04222045 0 51127.36354268 0 25845.16144374 0 -9207.23578396 0 105
0.01150000 0.01145670 63817.51070873 0 -5405.14567638 0 45142.85855464 0 13784.10074942 0 16845.72081930 0 144
0.01250000 0.01249090 72981.17069327 0 3705.38193057 0 24283.92414275 0 16791.34718502 0 -6823.50664180 0 169
0.01350000 0.01339930 85214.90886856 0 -718.62172284 0 56609.54402658 0 -20829.49575737 0 4691.44504206 0 180
0.01450000 0.01448870 67588.73416736 0 4039.82921196 0 30576.87592888 0 5760.21100050 0 -12748.47524646 0 267
0.01550000 0.01550050 64955.40258243 0 -2312.83471072 0 44786.84855728 0 7977.21630002 0 23913.85389249 0 238
0.01650000 0.01653350 70456.80606835 0 -2189.81848238 0 30560.83845291 0 10060.01209174 0 -8303.46909026 0 315
0.01750000 0.01747870 71547.02489705 0 7134.46890701 0 36775.14069935 0 4894.48388165 0 16320.21886700 0 297
0.01850000 0.01844180 70137.48454341 0 1021.30711261 0 17332.77676755 0 19316.48073002 0 3214.85485738 0 388
0.01950000 0.01947590 67291.60147903 0 -2986.27688654 0 15957.06889747 0 15866.88555657 0 23785.00485611 0 399
0.02050000 0.02045430 69067.91671116 0 -2976.30289463 0 10726.53398683 0 7911.73726287 0 15750.77862439 0 462
0.02150000 0.02154770 63500.71563549 0 4749.44358529 0 7688.00348853 0 -15843.81795415 0 5186.97009577 0 571
0.02250000 0.02255340 60758.08755338 0 7765.62047839 0 20818.29149334 0 -2810.41387951 0 7097.75846544 0 510
0.02350000 0.02348930 57565.64122406 0 -989.39253543 0 10023.86186338 0 -3446.32177082 0 6037.95591822 0 555
0.02450000 0.02439640 61443.85441963 0 -2762.55409677 0 15656.53099164 0 6381.68516344 0 1973.74095513 0 592
0.02550000 0.02547300 64672.11045556 0 -2797.47405301 0 14517.65050641 0 -164.84877610 0 -8127.07882375 0 837
0.02650000 0.02652900 60621.98869909 0 -155.84691887 0 12885.34302082 0 3732.10739566 0 12683.00719387 0 723
0.02750000 0.02749970 69881.98338517 0 -1022.09580492 0 12139.27085109 0 6924.90523130 0 -2203.26359922 0 826
0.02850000 0.02848090 66407.89261487 0 -182.72177415 0 17533.02552571 0 -10896.19071035 0 -3080.53550386 0 831
0.02950000 0.02946900 65020.10171494 0 7786.38132057 0 24155.07510637 0 -8805.04664347 0 -3704.77777908 0 996
0.03050000 0.03053250 59433.12840862 0 2112.67382914 0 30197.68848337 0 189.42675725 0 1457.56490496 0 1041
0.03150000 0.03150510 57486.33261002 0 868.35682553 0 28576.36557036 0 7641.41791621 0 -12.71288523 0 1036
0.03250000 0.03246190 59751.24163057 0 699.35258562 0 33191.31404896 0 2828.54940884 0 4249.23910365 0 1059
0.03350000 0.03345080 55497.46589845 0 1797.86696353 0 28240.56718655 0 -262.70593940 0 4035.53424408 0 1302
0.03450000 0.03451200 50640.63713161 0 -165.61330235 0 26550.92023209 0 2623.79697592 0 3291.13172939 0 1339
0.03550000 0.03553350 49984.85814850 0 6123.41589291 0 29431.29485437 0 -1406.73928763 0 -181.60244620 0 1365
0.03650000 0.03647120 49735.06896800 0 1181.69834916 0 29264.43919686 0 2325.93930581 0 2293.63367785 0 1308
0.03750000 0.03744890 46324.68871867 0 -1433.26703041 0 23768.30830578 0 8772.53230863 0 2143.57343181 0 1579
0.03850000 0.03847530 47974.24198321 0 -1891.19189218 0 21309.96096208 0 3240.15232804 0 -1113.06673967 0 1662
0.03950000 0.03950240 46796.80564822 0 278.61709278 0 15732.21469673 0 2125.31707218 0 4582.10460658 0 1683
0.04050000 0.04050350 45941.87636421 0 1234.40232840 0 14015.65553944 0 4819.17365203 0 6468.46328683 0 1822
0.04150000 0.04152450 47783.87934038 0 938.64051473 0 15073.46987902 0 2116.81501301 0 3386.90621772 0 1887
0.04250000 0.04250150 43604.35931890 0 860.16562976 0 17556.31281958 0 -2023.63288380 0 8060.90775852 0 1920
0.04350000 0.04349210 43798.23702496 0 1408.43091181 0 14570.59614625 0 -1698.55544283 0 1379.91496139 0 2005
0.04450000 0.04448520 40228.47062748 0 1585.75486699 0 19073.17244734 0 -3479.15465826 0 4208.66209253 0 2151
0.04550000 0.04548030 41231.80148706 0 895.53485501 0 18413.43901811 0 1057.69460774 0 -2277.91475448 0 2274
0.04650000 0.04648670 39857.41176568 0 122.63616213 0 20802.25401737 0 -1331.95631750 0 -984.17156808 0 2311
0.04750000 0.04749250 38307.48857445 0 1468.68129242 0 21131.24196618 0 1704.35529715 0 403.28979467 0 2568
0.04850000 0.04851840 38971.06660409 0 -599.98504359 0 15637.30798962 0 4463.97651304 0 951.90438613 0 2493
0.04950000 0.04949480 39546.87789880 0 -1516.66190545 0 15300.08161138 0 5178.99529608 0 261.70524484 0 2644
0.05050000 0.05050630 39498.10639654 0 621.28303137 0 12407.40426780 0 100.02233240 0 -2871.79567109 0 2829
0.05150000 0.05149060 37002.19181461 0 2974.04007268 0 14372.10491970 0 -4931.93028958 0 2310.24235159 0 2784
0.05250000 0.05249300 35317.15838063 0 204.65467022 0 14797.42757005 0 587.36376970 0 1641.94095574 0 3055
0.05350000 0.05348950 35577.49275081 0 -561.54782722 0 15177.16424419 0 687.16300543 0 -5149.52368784 0 3009
0.05450000 0.05448610 35617.36674928 0 326.94701523 0 14682.41909513 0 324.57874138 0 -5137.11112083 0 3336
0.05550000 0.05550870 35524.43726524 0 564.18522309 0 13752.35533466 0 1248.50651960 0 -2558.53763022 0 3349
0.05650000 0.05647670 35648.45308968 0 7.05998252 0 15131.24873080 0 -1858.63361905 0 -3535.19794757 0 3324
0.05750000 0.05747970 35543.11103863 0 1402.35644317 0 16128.09869256 0 -1148.42607881 0 -5574.01151068 0 3639
0.05850000 0.05849280 34313.38813815 0 267.54903745 0 15179.91038734 0 1408.02448262 0 -336.99789914 0 3846
0.05950000 0.05951020 34103.47295612 0 -1921.44340507 0 16320.21886700 0 2014.51568856 0 -4722.44350588 0 3787
0.06050000 0.06049470 34226.61001476 0 1456.02706480 0 13715.22747934 0 2579.45225641 0 978.53428543 0 3930
0.06150000 0.06148310 34325.14163081 0 889.42084191 0 13826.72089104 0 -337.32523940 0 -684.05766676 0 4083
0.06250000 0.06249100 33447.03489866 0 143.23882646 0 14099.35798251 0 556.35761667 0 2475.62607638 0 4303
0.06350000 0.06350600 33026.43561452 0 -106.62307191 0 12521.86351410 0 2556.06610139 0 470.98002628 0 4470
0.06450000 0.06451750 32560.90942852 0 -316.93128195 0 11093.75923280 0 2029.70735244 0 1757.42176729 0 4479
0.06550000 0.06550280 32896.70781233 0 402.06062099 0 8589.36456084 0 2675.35855962 0 1939.95240987 0 4636
0.06650000 0.06648880 32069.78918841 0 913.12664800 0 9808.22371903 0 -1044.34505668 0 1795.99958619 0 4653
0.06750000 0.06749660 30829.30140680 0 738.74765673 0 8840.51582834 0 -1130.43334892 0 1227.94339972 0 5220
0.06850000 0.06852730 29646.26293979 0 810.71198554 0 9607.24997909 0 -341.42138652 0 302.60849776 0 5029
0.06950000 0.06949320 29238.07622266 0 739.10135996 0 10754.65449264 0 -443.29450955 0 -1776.40310871 0 5040
0.07050000 0.07048030 28184.43602066 0 657.05868581 0 9060.49287885 0 -10.73327851 0 -1525.26282578 0 5475
0.07150000 0.07148790 27397.17170376 0 391.97348799 0 10625.10244362 0 515.01607931 0 462.74379376 0 5509
0.07250000 0.07249820 27272.05742206 0 -210.12828274 0 8945.89083311 0 1857.50220808 0 -256.30303204 0 5916
0.07350000 0.07351270 26777.75165590 0 -157.92739692 0 7267.44814268 0 1575.60512192 0 -136.28888739 0 5721
0.07450000 0.07449140 27169.79105132 0 480.87163389 0 7428.32819271 0 78.33307415 0 1752.25901818 0 6028
0.07550000 0.07549160 26469.96393217 0 934.73330227 0 8026.27340117 0 -371.96838441 0 366.04110904 0 6183
0.07650000 0.07648840 25984.00644117 0 667.33914729 0 8660.67640603 0 -82.34068561 0 1932.43896223 0 6330
0.07750000 0.07749960 25546.93029816 0 -462.44391493 0 8422.45398046 0 64.44286243 0 1197.65893312 0 6583
0.07850000 0.07848650 25175.32220773 0 -83.45474096 0 8655.51365692 0 206.80105570 0 755.47825923 0 6549
0.07950000 0.07947320 25030.21600393 0 1003.42312999 0 8741.83042827 0 -856.31224169 0 -1011.20460121 0 6828
0.08050000 0.08048110 24493.18025043 0 13.44083286 0 9621.45303143 0 20.09638538 0 1798.02074755 0 7147
0.08150000 0.08149960 24739.89375060 0 94.10878775 0 9674.22291811 0 917.64020887 0 -154.86270117 0 7386
0.08250000 0.08250610 24657.28976479 0 337.41860827 0 9839.38695145 0 -234.55467679 0 219.52228921 0 7227
0.08350000 0.08350160 24141.01485347 0 788.58246561 0 10268.16974216 0 -1742.88917776 0 -2625.17004750 0 7798
0.08450000 0.08449610 23290.14986132 0 745.74592792 0 11661.88132671 0 -359.53384825 0 -941.48881440 0 7371
0.08550000 0.08548940 22101.72895374 0 709.22112563 0 11317.18543911 0 -434.10920996 0 -1101.29127786 0 8256
0.08650000 0.08650700 21472.75232774 0 293.99988823 0 12010.86119762 0 251.28527929 0 -1660.32913024 0 8037
0.08750000 0.08749060 20699.87780091 0 341.27529170 0 11280.60681241 0 2382.48788546 0 -363.99028934 0 8155
0.08850000 0.08849210 21072.69419432 0 -873.99960046 0 9113.04307408 0 3689.91565238 0 479.29534773 0 8718
0.08950000 0.08949900 21557.00399943 0 -318.24174145 0 6516.88328277 0 2573.00431231 0 1363.05364247 0 8571
0.09050000 0.09049190 21426.50727717 0 742.22976624 0 5815.13386341 0 -460.96429300 0 1258.30475834 0 8932
0.09150000 0.09150830 19801.55945521 0 842.81769428 0 5404.95893865 0 -596.15801851 0 3192.29254530 0 9285
0.09250000 0.09250820 19531.22912398 0 307.01660673 0 6460.46651799 0 -244.08489196 0 1836.10426069 0 9204
0.09350000 0.09350330 18369.06134488 0 272.03953072 0 6055.97061726 0 -327.49404694 0 685.06275515 0 9349
0.09450000 0.09448040 18082.80338341 0 376.74008274 0 6077.37954922 0 918.17735447 0 2274.46559869 0 9564
0.09550000 0.09549270 18308.97573286 0 53.86449934 0 6001.82765900 0 376.79610406 0 1481.08287486 0 10155
0.09650000 0.09649430 17937.36764243 0 152.01440150 0 5119.76648072 0 64.33774007 0 896.72997651 0 9913
0.09750000 0.09749140 18037.98632728 0 358.68144541 0 5774.21633054 0 -269.74705042 0 -525.80073267 0 10476
0.09850000 0.09850240 17367.81755409 0 343.00865725 0 6003.94768151 0 -938.02098484 0 490.80937671 0 10575
0.09950000 0.09950330 17361.11696481 0 122.55487629 0 6841.29066481 0 11.95451034 0 -753.73610601 0 10882
0.10050000 0.10051200 16777.06724066 0 265.75745366 0 6422.00952938 0 -246.24445893 0 -862.43504245 0 10875
0.10150000 0.10150300 16837.92177276 0 242.13732724 0 6567.67594639 0 408.58326019 0 -203.28269710 0 11118
0.10250000 0.10250800 16373.38419830 0 -7.70044901 0 6401.43542494 0 344.51024833 0 -1019.95051790 0 11575
0.10350000 0.10349800 16421.05724330 0 183.18202774 0 6378.33486880 0 855.82782204 0 394.77345554 0 11364
0.10450000 0.10450100 16112.83013667 0 393.07743754 0 6358.60657644 0 72.40261326 0 515.74215955 0 12093
0.10550000 0.10551000 15619.73267349 0 168.38031618 0 6022.97296122 0 240.16339955 0 802.23519088 0 12067
0.10650000 0.10649700 15598.31275696 0 107.43483182 0 6731.31312413 0 200.53875087 0 1416.43866522 0 12054
0.10750000 0.10749900 15277.01400895 0 -47.72434296 0 6048.72079935 0 462.26926023 0 1901.42951383 0 12807
0.10850000 0.10850100 15446.61580961 0 155.55143387 0 6117.92360661 0 140.01265749 0 1684.38534420 0 12736
0.10950000 0.10950300 15254.82517234 0 -47.85220338 0 5630.27449144 0 591.05678300 0 2694.69140736 0 12933
0.11050000 0.11050200 15453.86562751 0 235.11598845 0 5703.46469855 0 472.55631245 0 1467.11049854 0 13428
0.11150000 0.11150900 15017.88794176 0 481.40768104 0 6358.02439410 0 -819.10090362 0 2045.95353528 0 13453
0.11250000 0.11250000 14305.75810131 0 264.22840116 0 5960.77831127 0 -67.69748144 0 2621.20461680 0 13668
0.11350000 0.11349100 14259.18351357 0 -401.44987876 0 5908.38190005 0 1194.94574369 0 2053.69765895 0 13791
0.11450000 0.11448600 14315.86390809 0 138.47701425 0 5501.83188424 0 269.85689615 0 1181.29191997 0 14205
0.11550000 0.11549300 14192.28746655 0 567.10492249 0 5077.65162944 0 -87.51046485 0 1737.51772177 0 14776
0.11650000 0.11649800 13865.27674080 0 -49.65114683 0 4786.25288801 0 139.07237808 0 1971.36828746 0 14553
0.11750000 0.11747300 13790.36195580 0 -192.67819073 0 4712.28277624 0 877.36087967 0 1067.79162686 0 14568
0.11850000 0.11849100 13886.91634879 0 98.74669399 0 3899.76492697 0 261.20654524 0 845.03438102 0 16015
0.11950000 0.11950300 13523.43684207 0 157.55501991 0 3798.38830662 0 -240.78073253 0 1389.99879902 0 15270
0.12050000 0.12050700 13432.59442682 0 348.85794215 0 4171.38045319 0 -67.55775767 0 1019.08603203 0 15999
0.12150000 0.12150000 13175.99481132 0 159.98700428 0 4243.82370937 0 -110.31586552 0 1172.80084536 0 15670
0.12250000 0.12250700 12988.04877445 0 242.24058222 0 4782.06776585 0 -386.64926566 0 714.55523407 0 16887
0.12350000 0.12352200 13011.44591405 0 -62.58361367 0 4687.61142623 0 -267.86868851 0 454.07476908 0 16407
0.12450000 0.12449800 12778.46312960 0 266.30668229 0 5628.20939179 0 -98.76668591 0 695.86388537 0 16306
0.12550000 0.12549900 12572.50239370 0 32.49697922 0 5427.05989868 0 -195.05305533 0 770.86544850 0 17523
0.12650000 0.12650100 12694.76068653 0 145.90697914 0 5974.80561045 0 -11.04443850 0 822.21722686 0 17154
0.12750000 0.12750600 12645.76949282 0 -117.54041891 0 5250.71357046 0 664.24589165 0 888.29272631 0 18007
0.12850000 0.12850300 12945.86801574 0 86.24097779 0 5678.54070336 0 481.00344876 0 788.98450097 0 17496
0.12950000 0.12949900 12698.49544121 0 46.71595919 0 4931.99619702 0 374.32896906 0 1497.42791886 0 18405
0.13050000 0.13049000 12701.24158436 0 128.43491799 0 5172.27273766 0 90.46201950 0 1294.64172444 0 18100
0.13150000 0.13148800 12429.04387579 0 185.66124577 0 4641.42129852 0 39.91804661 0 1174.28376266 0 19059
0.13250000 0.13249300 12276.68785409 0 18.45133579 0 4553.20419612 0 518.88264885 0 1577.61529871 0 18957
0.13350000 0.13349100 12043.70506964 0 -49.43639844 0 4242.27488463 0 -95.66760845 0 670.42251681 0 19468
0.13450000 0.13450700 12030.19404536 0 229.41829065 0 4099.95876227 0 91.99337876 0 1229.03087241 0 19953
0.13550000 0.13551000 11817.31302873 0 116.94175970 0 3867.31649957 0 283.57992267 0 415.43653503 0 19956
0.13650000 0.13649900 11678.24833986 0 155.44598197 0 4098.49781412 0 21.18264977 0 895.53815038 0 19723
0.13750000 0.13749600 11535.88827920 0 210.45342609 0 3617.48338078 0 253.47999689 0 605.40263479 0 20946
0.13850000 0.13851100 11426.26224484 0 4.81258291 0 3692.72770296 0 75.72313970 0 627.49810254 0 20955
0.13950000 0.13949800 11297.08367128 0 -75.24509110 0 3150.44132376 0 444.57421226 0 795.03040972 0 20506
0.14050000 0.14048300 11176.80260152 0 55.12574796 0 3352.76616614 0 239.49663599 0 951.34966521 0 21447
0.14150000 0.14148400 11105.18318829 0 189.95072136 0 2999.43640449 0 -197.67946663 0 539.66985401 0 21771
0.14250000 0.14249400 10691.09775569 0 441.74458636 0 3519.97332997 0 -245.39095764 0 601.32186608 0 22470
0.14350000 0.14350900 10715.49449139 0 136.90402345 0 3347.20797241 0 -111.14190538 0 761.38246699 0 22519
0.14450000 0.14449900 10424.98550033 0 -35.67953943 0 3571.91937371 0 424.56801021 0 387.60712039 0 22218
0.14550000 0.14550500 10466.80376815 0 -52.65652589 0 3406.14020431 0 88.36154953 0 585.81274805 0 23559
0.14650000 0.14650700 10348.25826085 0 277.78556064 0 3214.22873674 0 -30.84083521 0 267.65448935 0 23044
0.14750000 0.14750500 10185.78544780 0 8.62845865 0 3416.38881053 0 54.43437896 0 594.63116292 0 23649
0.14850000 0.14849900 10094.37183478 0 162.34099818 0 3469.32346580 0 -229.98619305 0 344.05878239 0 23640
0.14950000 0.14949500 10051.86153889 0 164.41268857 0 3458.17412463 0 74.86447566 0 398.16768847 0 24457
0.15050000 0.15050000 9936.90798683 0 -106.94722665 0 3223.43380857 0 388.77148509 0 418.27824395 0 24591
0.15150000 0.15149900 9884.40172989 0 231.51854093 0 3260.46280274 0 37.30602509 0 379.73447722 0 25020
0.15250000 0.15250500 9831.64282778 0 20.48150450 0 3165.39132705 0 -28.98400306 0 425.07110364 0 25297
0.15350000 0.15350100 9588.05993079 0 72.58649500 0 3032.62079826 0 208.04450932 0 506.83476965 0 25452
0.15450000 0.15450400 9552.43696191 0 25.65161327 0 2947.46839161 0 217.81638509 0 365.86096205 0 26061
0.15550000 0.15549900 9325.71538383 0 187.56157683 0 2682.56443923 0 9.40927503 0 666.53947041 0 26128
0.15650000 0.15649500 9167.20800148 0 237.01522104 0 2912.01019131 0 77.20880314 0 258.67569972 0 26331
0.15750000 0.15749700 9011.58956172 0 25.08601763 0 2592.09549946 0 303.60260158 0 461.21254434 0 27345
0.15850000 0.15849900 8924.78946918 0 23.96888660 0 2508.00859634 0 232.76309300 0 714.90454348 0 26980
0.15950000 0.15949700 9012.09485206 0 -135.47932439 0 2080.46706233 0 351.78203537 0 724.11291068 0 27777
0.16050000 0.16050000 9156.38819749 0 99.11742331 0 1801.17331988 0 173.81218733 0 359.24385553 0 28224
0.16150000 0.16150500 8947.16504353 0 3.65825811 0 1824.10910743 0 43.29525345 0 710.70733830 0 28075
0.16250000 0.16249700 8783.28620519 0 91.56157521 0 1911.00806112 0 -166.10760812 0 895.04164770 0 28590
0.16350000 0.16349900 8724.61760303 0 225.66705911 0 2132.70968953 0 -78.98160331 0 747.07176583 0 29163
0.16450000 0.16449100 8596.41665643 0 183.31494107 0 2362.86943883 0 -73.79249122 0 928.36225017 0 28996
0.16550000 0.16550500 8426.32055001 0 112.39744202 0 2409.10350482 0 184.60672680 0 1370.17164551 0 30777
0.16650000 0.16650700 8569.57036104 0 -179.96135106 0 2471.56178452 0 60.98019561 0 972.89041204 0 29211
0.16750000 0.16749900 8662.09341590 0 48.76414260 0 2409.45501115 0 -147.57992954 0 825.79600061 0 30922
0.16850000 0.16850800 8442.33605683 0 139.60403139 0 2454.06336040 0 -92.05917635 0 1145.21858361 0 30867
0.16950000 0.16949900 8281.65372912 0 47.29517571 0 2637.38489221 0 -150.50292431 0 773.78295098 0 30852
0.17050000 0.17049200 8454.72665471 0 150.86211983 0 2579.11173466 0 -49.24328965 0 231.92167474 0 31257
0.17150000 0.17149500 8209.96840845 0 153.35122398 0 2659.11237677 0 -196.14602030 0 239.27584608 0 32608
0.17250000 0.17250900 8151.15700685 0 14.04729111 0 2808.30484157 0 98.14484925 0 65.64424513 0 32361
0.17350000 0.17350400 8127.02390089 0 68.57108449 0 2774.10986713 0 -83.87984392 0 -304.63734831 0 32508
0.17450000 0.17449800 7934.11283721 0 21.91400261 0 2446.06659156 0 111.74166304 0 -135.95935021 0 32791
0.17550000 0.17549800 7953.54454611 0 84.88383385 0 2656.12457303 0 223.02197403 0 -133.24835770 0 33633
0.17650000 0.17650100 7852.28875606 0 31.99871900 0 2326.31278128 0 42.04641739 0 -101.08168458 0 33984
0.17750000 0.17750300 7771.17867211 0 62.60404498 0 2200.68222466 0 297.97410659 0 -261.06374580 0 34069
0.17850000 0.17849800 7776.55012811 0 29.15162764 0 2187.76436731 0 119.38582710 0 10.89588314 0 34536
