### header ###
fiducial parameters:
Omega_m = 0.31
Omega_nu = 0
Omega_de = 0.69
Omega_k = 0
H_0 = 100
w_de = -1
zeff = 0
beta = 0
fgrowth = 0
b_1 = 2
gamma = 0.55
Lx = 3500 Ly = 3500 Lz = 3500
nx = 700 ny = 700 nz = 700
xoffset = -983.599254 yoffset = -42.9823471 zoffset = 800.977702
bins = 400 dk = 0.001
kx_ny = 0.628318531 ky_ny = 0.628318531 kz_ny = 0.628318531
############################
A(data) = 9.08312551 (not used)
A(ran) = 9.09013139 (used)
Ngal = 505394
weighted Ngal = 0
Nran = 25229228
weighted Nran = 0
SN(data) = 6712.3692
SN(ran) = 134.936738
SN(data+ran) = 6847.30593
############################
13 columns: k_central k_mean P_0(k) sigma^{lin}_{P_0(k)} P^img_1(k) sigma^{lin}_{P_1(k)} P_2(k) sigma^{lin}_{P_2(k)} P^img_3(k) sigma^{lin}_{P_3(k)} P_4(k) sigma^{lin}_{P_4(k)} N_modes
### header ###
0.00050000 0 0 0 0 0 0 0 0 0 0 0 0
0.00150000 0.00179520 35477.31344887 0 -38001.01899943 0 -1150.09573384 0 -44490.37494331 0 39124.52108305 0 3
0.00250000 0.00253879 25002.20534385 0 -2225.41948212 0 -19065.48324653 0 3018.59349907 0 -12396.96892385 0 6
0.00350000 0.00331552 44918.33389108 0 818.96359646 0 -10325.63004133 0 12904.89556001 0 9913.28017120 0 7
0.00450000 0.00420575 35750.28007751 0 3278.04910344 0 10440.63851626 0 -27225.48283431 0 -6997.86476239 0 24
0.00550000 0.00557378 46259.00097463 0 -2576.62922126 0 -3918.18605519 0 3936.42044568 0 9653.73669025 0 45
0.00650000 0.00659388 68481.34053532 0 -10855.21825463 0 -6687.85815500 0 -10054.89328092 0 -11267.75486249 0 40
0.00750000 0.00754703 44909.87577019 0 259.22822372 0 -2201.73674363 0 -2666.40613297 0 -12479.24337249 0 57
0.00850000 0.00846663 64593.24122443 0 3679.22766326 0 15503.51589558 0 -2422.29597649 0 -2367.57083589 0 75
0.00950000 0.00948925 61014.90686033 0 -8052.91098968 0 -7306.79488167 0 -13645.25575200 0 -29257.51891613 0 112
0.01050000 0.01054430 54599.91647282 0 5088.60324831 0 12012.94826641 0 -13834.51993757 0 -15623.79696535 0 105
0.01150000 0.01145670 63093.95691280 0 7757.34909523 0 15172.44087798 0 -19440.27686301 0 -33669.80203061 0 144
0.01250000 0.01249090 57637.48032874 0 1913.04020705 0 22293.29989956 0 3662.12468375 0 -23812.57613329 0 169
0.01350000 0.01339930 59686.32280662 0 -6238.01793865 0 24001.29109023 0 5195.68086183 0 -21432.54879209 0 180
0.01450000 0.01448870 63133.39152837 0 -1809.02728928 0 22435.22057731 0 5457.39928815 0 -23648.35677320 0 267
0.01550000 0.01550050 62432.57579768 0 3644.67019792 0 28062.28757356 0 -11244.68726007 0 -2510.62292462 0 238
0.01650000 0.01653350 68674.99854993 0 1509.53291785 0 23276.63883704 0 5104.77253915 0 -23913.63420104 0 315
0.01750000 0.01747870 68695.97908356 0 -3583.96944983 0 51052.44875768 0 -16042.85840933 0 825.36430690 0 297
0.01850000 0.01844180 62284.94314218 0 3959.98235386 0 26743.04040654 0 -2457.32577845 0 -20562.68048937 0 388
0.01950000 0.01947590 64940.57340945 0 -1269.50902237 0 49997.71009842 0 9193.48309909 0 14661.21887004 0 399
0.02050000 0.02045430 75482.13817859 0 -3948.55839838 0 34859.32139544 0 24899.82912739 0 -1626.12317122 0 462
0.02150000 0.02154770 79490.51855925 0 224.62791854 0 42243.81015897 0 2340.66961764 0 8282.25788061 0 571
0.02250000 0.02255340 75027.37687372 0 6062.55037623 0 31447.40330595 0 795.48956485 0 25005.72040707 0 510
0.02350000 0.02348930 71734.53155101 0 791.90969265 0 44380.96860040 0 5473.46971784 0 27169.90089705 0 555
0.02450000 0.02439640 74862.16890210 0 -2616.97555635 0 45394.95449538 0 9595.73814702 0 25348.65876306 0 592
0.02550000 0.02547300 72841.11739285 0 845.71432607 0 32395.48176545 0 3727.65864377 0 20978.44656158 0 837
0.02650000 0.02652900 70293.02609116 0 2865.44658814 0 38438.64437107 0 782.64200876 0 30697.81607300 0 723
0.02750000 0.02749970 67496.13422050 0 3865.25139992 0 39334.87564798 0 1191.73824850 0 15707.27971697 0 826
0.02850000 0.02848090 69327.15262408 0 2567.34725743 0 40869.74997477 0 7258.66048461 0 19322.41239921 0 831
0.02950000 0.02946900 66895.27810030 0 -1759.53080522 0 38762.79910795 0 4294.27585123 0 5714.27351797 0 996
0.03050000 0.03053250 62692.14124777 0 3018.32986933 0 29705.90916890 0 -2433.98356172 0 8735.15180814 0 1041
0.03150000 0.03150510 57579.04240261 0 5439.56034228 0 33289.62597357 0 -1846.00136059 0 6348.09434048 0 1036
0.03250000 0.03246190 56939.19104975 0 -29.33155494 0 38005.63251992 0 5674.36656578 0 3334.12534647 0 1059
0.03350000 0.03345080 54170.41968489 0 1800.12978549 0 31893.26710703 0 4349.34151358 0 -2009.55066175 0 1302
0.03450000 0.03451200 52108.50556565 0 955.95659495 0 25198.60950160 0 7346.42721954 0 1862.15966685 0 1339
0.03550000 0.03553350 51370.56197964 0 -1654.14481588 0 23139.11198833 0 2785.84139064 0 7678.34804923 0 1365
0.03650000 0.03647120 48595.09002551 0 1691.25070206 0 18980.68234621 0 3977.25010196 0 -2521.16811430 0 1308
0.03750000 0.03744890 50649.86417257 0 2012.85701810 0 20308.27778839 0 543.07067768 0 2591.87580800 0 1579
0.03850000 0.03847530 45486.12644781 0 2513.25922204 0 19355.36611696 0 -2500.93453160 0 1863.45584642 0 1662
0.03950000 0.03950240 42586.74851496 0 1468.88999929 0 21951.46000083 0 -547.70067502 0 3667.55106260 0 1683
0.04050000 0.04050350 43162.55980968 0 -304.34406022 0 19434.45503954 0 4197.58964337 0 -1495.31888093 0 1822
0.04150000 0.04152450 45625.52067387 0 -347.57933791 0 18742.97619555 0 3872.08380407 0 -3121.68371275 0 1887
0.04250000 0.04250150 41723.25126435 0 1910.72246223 0 16580.00400855 0 842.58262442 0 6819.82680999 0 1920
0.04350000 0.04349210 40204.52425925 0 367.42626365 0 17742.06194193 0 154.43210592 0 1210.96125051 0 2005
0.04450000 0.04448520 40990.90981035 0 460.66880800 0 18571.28732610 0 170.75078695 0 3114.12632681 0 2151
0.04550000 0.04548030 38647.79063302 0 1156.53269337 0 16253.21297426 0 1641.50157284 0 974.43154758 0 2274
0.04650000 0.04648670 38754.56067851 0 175.45767630 0 16602.96176525 0 65.01724573 0 2310.90142595 0 2311
0.04750000 0.04749250 38672.61576705 0 1388.30717484 0 19070.75584137 0 -549.92175560 0 1201.44861066 0 2568
0.04850000 0.04851840 36756.35708024 0 217.20015057 0 17648.69307499 0 -1545.41951647 0 -526.99585416 0 2493
0.04950000 0.04949480 37276.03720906 0 -964.33452846 0 17341.89396280 0 1328.80374517 0 -1554.15225167 0 2644
0.05050000 0.05050630 38557.27775495 0 202.69392401 0 17163.94388698 0 1514.67369781 0 -7934.25563666 0 2829
0.05150000 0.05149060 36732.52055774 0 861.60680568 0 18317.87323665 0 -1284.41508736 0 -347.06635837 0 2784
0.05250000 0.05249300 35684.26279630 0 1362.39456812 0 17314.87191425 0 -1146.74543920 0 -3657.58805527 0 3055
0.05350000 0.05348950 36589.50142273 0 283.04277708 0 20034.10285676 0 2841.78581880 0 -2358.29985663 0 3009
0.05450000 0.05448610 34531.76144107 0 550.46988577 0 16443.13623419 0 675.82033578 0 -4551.67734053 0 3336
0.05550000 0.05550870 34403.35178759 0 672.04713510 0 18759.56290014 0 1852.13075209 0 313.37337889 0 3349
0.05650000 0.05647670 33060.81732670 0 727.90808050 0 16720.93607477 0 1317.26994395 0 1067.79931606 0 3324
0.05750000 0.05747970 33337.40886430 0 -1271.48624544 0 12292.61548433 0 3581.22330669 0 957.49333666 0 3639
0.05850000 0.05849280 34494.52374001 0 -598.10228785 0 12361.26906296 0 2099.62415692 0 -414.87632182 0 3846
0.05950000 0.05951020 32977.55426653 0 1127.85197436 0 9970.99311554 0 -1724.86349416 0 -1019.22004382 0 3787
0.06050000 0.06049470 32031.45303010 0 2107.66486405 0 13492.78988457 0 -2568.48965298 0 -1089.42244719 0 3930
0.06150000 0.06148310 31405.66193014 0 313.78749727 0 12129.82411867 0 477.50705931 0 -2715.86966330 0 4083
0.06250000 0.06249100 30885.21288124 0 -577.73908720 0 12383.23820813 0 1284.33819536 0 -3439.30262894 0 4303
0.06350000 0.06350600 30142.98531192 0 75.38920869 0 10258.49233372 0 2703.57792658 0 -3276.66504730 0 4470
0.06450000 0.06451750 30705.39542808 0 892.09338842 0 9489.46240730 0 1529.42597879 0 -2127.65678614 0 4479
0.06550000 0.06550280 29743.14686995 0 16.68809220 0 8492.38176952 0 1348.97142042 0 1834.63232796 0 4636
0.06650000 0.06648880 28902.38768458 0 -93.80868923 0 8297.95483483 0 825.42362360 0 216.92004396 0 4653
0.06750000 0.06749660 28800.78038820 0 446.03186504 0 7715.13538280 0 1201.50353352 0 2429.24921094 0 5220
0.06850000 0.06852730 28835.60148328 0 528.49085449 0 8016.63993102 0 -992.50666176 0 -218.11406700 0 5029
0.06950000 0.06949320 27749.33710072 0 724.42267562 0 8992.68511231 0 -1462.47500891 0 2147.34114021 0 5040
0.07050000 0.07048030 28111.49845872 0 50.61086894 0 9470.32728186 0 -9.96221644 0 -375.32197442 0 5475
0.07150000 0.07148790 26654.72444298 0 111.97124061 0 9738.65842088 0 212.77776164 0 1207.47914100 0 5509
0.07250000 0.07249820 27503.17282917 0 272.96553019 0 9481.24594701 0 686.90157260 0 -845.60448034 0 5916
0.07350000 0.07351270 26710.63591742 0 493.59067049 0 9286.25879911 0 -371.02920345 0 1269.93742070 0 5721
0.07450000 0.07449140 25986.31320141 0 581.75614540 0 9669.32379874 0 1437.77070517 0 2397.85530250 0 6028
0.07550000 0.07549160 26126.03696464 0 -393.03020387 0 9345.75124421 0 1220.58373609 0 1273.06802389 0 6183
0.07650000 0.07648840 26094.84077851 0 362.57767331 0 8155.83643477 0 99.96751938 0 798.71902919 0 6330
0.07750000 0.07749960 25215.74543483 0 481.89978989 0 8340.30036213 0 -803.32376202 0 -1047.64811766 0 6583
0.07850000 0.07848650 24835.45953206 0 574.56454573 0 8829.02596542 0 -812.22016735 0 1776.28227841 0 6549
0.07950000 0.07947320 23780.61102708 0 284.72012131 0 8346.60550679 0 293.84830112 0 -472.26412282 0 6828
0.08050000 0.08048110 24071.15297185 0 190.37362741 0 9076.62921597 0 805.57120557 0 -1247.90236810 0 7147
0.08150000 0.08149960 23571.79430230 0 369.48257563 0 7851.57475884 0 438.85124994 0 -1386.68145810 0 7386
0.08250000 0.08250610 23163.38789373 0 -249.84630028 0 7573.70901082 0 492.27362023 0 258.56805091 0 7227
0.08350000 0.08350160 23312.77808084 0 76.54094113 0 6633.03415324 0 998.08133234 0 -698.30795277 0 7798
0.08450000 0.08449610 23201.72405204 0 520.66434653 0 6283.60391486 0 425.75873788 0 -956.56404181 0 7371
0.08550000 0.08548940 22368.21468457 0 408.87215445 0 7262.36228557 0 -412.62118907 0 713.49302591 0 8256
0.08650000 0.08650700 21536.13331153 0 628.25713650 0 6290.78782533 0 172.81808351 0 1145.20759904 0 8037
0.08750000 0.08749060 21287.77212547 0 620.48445295 0 7201.94713638 0 741.86947226 0 736.77372903 0 8155
0.08850000 0.08849210 20730.74444987 0 -177.10865756 0 6353.31201246 0 476.92048314 0 -761.64939210 0 8718
0.08950000 0.08949900 20690.98029712 0 613.40928975 0 6533.45900279 0 279.38930823 0 763.38165920 0 8571
0.09050000 0.09049190 19385.24415438 0 687.87041190 0 6744.95596328 0 -1559.94112142 0 -390.92446131 0 8932
0.09150000 0.09150830 18468.14218956 0 468.45027922 0 7547.75246581 0 -111.05073343 0 838.47109891 0 9285
0.09250000 0.09250820 18417.94269286 0 388.80993109 0 6968.10755527 0 496.12920521 0 -669.68764891 0 9204
0.09350000 0.09350330 17871.67989839 0 -84.55418683 0 6823.35285779 0 1020.85125285 0 38.91867019 0 9349
0.09450000 0.09448040 18349.50880568 0 -330.25556849 0 6389.75882429 0 1741.05475414 0 552.77554755 0 9564
0.09550000 0.09549270 18470.22925835 0 -92.26305002 0 5916.30177688 0 253.46791386 0 1118.80068655 0 10155
0.09650000 0.09649430 18461.00221738 0 272.12740730 0 4711.34908757 0 -219.52119075 0 995.30223548 0 9913
0.09750000 0.09749140 17890.90290041 0 534.31377642 0 5929.14274223 0 -1046.99343713 0 44.30923934 0 10476
0.09850000 0.09850240 17459.20919796 0 620.62285856 0 6332.23261768 0 -835.48549208 0 120.82480611 0 10575
0.09950000 0.09950330 16962.81636301 0 -86.63817994 0 7128.46034581 0 1041.98227512 0 633.92737287 0 10882
0.10050000 0.10051200 17005.21681318 0 92.15012861 0 6499.08827519 0 529.32238664 0 -102.87392744 0 10875
0.10150000 0.10150300 16907.01473430 0 130.31327990 0 5911.75416384 0 636.95252416 0 875.06839938 0 11118
0.10250000 0.10250800 16591.20827259 0 209.62958314 0 6059.81521766 0 -219.83425107 0 -152.01989378 0 11575
0.10350000 0.10349800 16166.10531369 0 382.57069386 0 5622.46446033 0 630.85279100 0 1634.41652352 0 11364
0.10450000 0.10450100 16029.01784787 0 -23.72601770 0 5330.61535142 0 -119.98009248 0 1229.96456108 0 12093
0.10550000 0.10551000 15553.16616365 0 329.95788657 0 4841.28559664 0 278.20626977 0 1201.93193185 0 12067
0.10650000 0.10649700 15473.41816671 0 72.11756360 0 5260.54476292 0 713.02068928 0 763.82982976 0 12054
0.10750000 0.10749900 15293.60071355 0 115.23036329 0 5124.86332240 0 163.25052079 0 479.28106778 0 12807
0.10850000 0.10850100 14999.10432265 0 277.65154885 0 5048.36675894 0 -386.43286958 0 1080.94125870 0 12736
0.10950000 0.10950300 14623.21224891 0 334.17815936 0 4987.76487201 0 -352.56084157 0 360.46424154 0 12933
0.11050000 0.11050200 14441.63726414 0 124.28384801 0 5085.36279940 0 597.84305194 0 484.39109095 0 13428
0.11150000 0.11150900 14336.84444172 0 199.46226276 0 5067.89732899 0 418.26286555 0 871.30508481 0 13453
0.11250000 0.11250000 14276.53913825 0 -11.94813929 0 4773.02746262 0 607.60284468 0 1511.65294035 0 13668
0.11350000 0.11349100 14134.83815195 0 -253.80843561 0 3715.75136709 0 401.11814467 0 1178.51282311 0 13791
0.11450000 0.11448600 14153.18238816 0 83.45111605 0 4247.43763375 0 586.46742858 0 1557.39270058 0 14205
0.11550000 0.11549300 14136.37599211 0 268.24436089 0 3592.32870957 0 -579.54934476 0 1416.73524868 0 14776
0.11650000 0.11649800 13802.55483136 0 232.05239115 0 3854.75014854 0 24.93179423 0 1163.96924901 0 14553
0.11750000 0.11747300 13736.20801297 0 42.72317691 0 4186.04485759 0 -648.52696829 0 570.71225612 0 14568
0.11850000 0.11849100 13696.88324313 0 165.09812590 0 4345.84841950 0 197.42132918 0 45.32366462 0 16015
0.11950000 0.11950300 13756.19993507 0 -122.15064402 0 4186.97854626 0 -159.42788953 0 164.74661957 0 15270
0.12050000 0.12050700 13420.29170553 0 -43.97102435 0 3780.98874365 0 205.82562566 0 -395.40946230 0 15999
0.12150000 0.12150000 13561.88284610 0 455.59173855 0 4381.64714154 0 -345.09462759 0 20.13494123 0 15670
0.12250000 0.12250700 13271.78028423 0 90.33778398 0 4317.58511425 0 265.94199448 0 -157.68134249 0 16887
0.12350000 0.12352200 13432.81411827 0 -38.30803780 0 4556.22495358 0 372.09141162 0 -474.80265754 0 16407
0.12450000 0.12449800 13235.53119471 0 142.62478885 0 3740.88406916 0 452.05360773 0 265.48174089 0 16306
0.12550000 0.12549900 13014.85113155 0 -6.09368065 0 4093.52180274 0 152.55264555 0 586.39712731 0 17523
0.12650000 0.12650100 12876.66520848 0 133.70092209 0 3889.80191964 0 111.78230596 0 754.73460366 0 17154
0.12750000 0.12750600 12652.57992782 0 169.93792858 0 3983.61016949 0 -101.91047058 0 627.38605990 0 18007
0.12850000 0.12850300 12611.93700927 0 312.91092838 0 3803.19954941 0 159.68492853 0 659.29075096 0 17496
0.12950000 0.12949900 12350.83371901 0 166.58543703 0 4223.72194154 0 105.80065696 0 736.61664965 0 18405
0.13050000 0.13049000 12265.92297296 0 -111.54394073 0 3839.94294470 0 526.28734923 0 1143.35120627 0 18100
0.13150000 0.13148800 12369.17795522 0 -53.60768003 0 3424.96776172 0 198.57361084 0 587.27699157 0 19059
0.13250000 0.13249300 12288.99057538 0 147.81719631 0 3328.68798304 0 -164.77957329 0 832.39223644 0 18957
0.13350000 0.13349100 11841.14955124 0 182.16705323 0 3487.63474829 0 198.14521251 0 741.08297686 0 19468
0.13450000 0.13450700 12127.18782125 0 188.86544559 0 3229.20070917 0 -114.28788697 0 598.19345981 0 19953
0.13550000 0.13551000 11558.84603590 0 137.10723805 0 3366.85937276 0 24.19835432 0 482.84446313 0 19956
0.13650000 0.13649900 11518.20311734 0 66.94888281 0 3368.82561125 0 223.79858332 0 960.40424839 0 19723
0.13750000 0.13749600 11374.96429088 0 75.75741157 0 3179.14401192 0 141.93056387 0 453.59144789 0 20946
0.13850000 0.13851100 11641.66971316 0 -11.02631396 0 3021.48244166 0 86.20945207 0 398.42362901 0 20955
0.13950000 0.13949800 11352.11637991 0 258.48017433 0 3301.81971851 0 -205.34999366 0 391.85046078 0 20506
0.14050000 0.14048300 11008.51894957 0 153.38198078 0 3009.57516498 0 204.22846880 0 843.49983624 0 21447
0.14150000 0.14148400 10972.79711954 0 32.26366689 0 3043.58340169 0 173.32996459 0 696.96234263 0 21771
0.14250000 0.14249400 10794.06713906 0 105.18057784 0 3024.42630711 0 153.80268991 0 1029.63341863 0 22470
0.14350000 0.14350900 10752.88597646 0 22.39710411 0 3284.29932524 0 256.61719082 0 1049.86041058 0 22519
0.14450000 0.14449900 10635.24120411 0 26.62550548 0 2866.87458258 0 -83.84645082 0 687.80230755 0 22218
0.14550000 0.14550500 10498.52721376 0 447.77841208 0 3365.90371495 0 -182.23296067 0 859.17262439 0 23559
0.14650000 0.14650700 10208.63335877 0 217.07492644 0 3489.83166281 0 -153.52478023 0 1456.08198767 0 23044
0.14750000 0.14750500 10198.45065999 0 -3.91929550 0 3519.39114763 0 87.20575280 0 847.58280186 0 23649
0.14850000 0.14849900 10142.84675358 0 -3.44478393 0 3480.76939043 0 169.01851985 0 1009.35260227 0 23640
0.14950000 0.14949500 9841.96832600 0 11.65276413 0 3240.65761838 0 349.83996294 0 995.65923409 0 24457
0.15050000 0.15050000 9967.80758950 0 129.63443332 0 3348.33938339 0 -8.30746747 0 1495.19805063 0 24591
0.15150000 0.15149900 9812.94708524 0 201.09786562 0 2970.12956484 0 60.97602147 0 722.21257962 0 25020
0.15250000 0.15250500 9588.35651425 0 -1.02131480 0 3221.72021525 0 226.04822378 0 1327.04621355 0 25297
0.15350000 0.15350100 9541.14482129 0 174.32736378 0 2866.54504540 0 31.11962366 0 1081.14007946 0 25452
0.15450000 0.15450400 9359.13045362 0 84.65623351 0 3066.61805040 0 -78.41567813 0 1048.96516791 0 26061
0.15550000 0.15549900 9377.62847385 0 180.86428292 0 3282.62967021 0 -102.26043906 0 753.48236239 0 26128
0.15650000 0.15649500 9084.48318537 0 82.92133011 0 3075.08715586 0 -161.19530726 0 675.35129453 0 26331
0.15750000 0.15749700 8987.18184144 0 19.70972843 0 3011.34368117 0 477.63777573 0 874.11493848 0 27345
0.15850000 0.15849900 9081.13289073 0 -95.82567644 0 2741.90310032 0 440.93172799 0 693.08918234 0 26980
0.15950000 0.15949700 9018.99316364 0 35.81464967 0 2499.05616969 0 403.63800562 0 922.73814901 0 27777
0.16050000 0.16050000 9003.03257968 0 169.54358242 0 2203.98858101 0 -86.07741751 0 619.62216400 0 28224
0.16150000 0.16150500 8835.19929521 0 104.24205596 0 2397.88825622 0 -390.06217236 0 774.50793277 0 28075
0.16250000 0.16249700 8461.74579659 0 133.18574563 0 2483.67776808 0 31.58723691 0 995.26488793 0 28590
0.16350000 0.16349900 8500.59822981 0 27.26535683 0 2383.27877468 0 63.54783945 0 487.88418503 0 29163
0.16450000 0.16449100 8549.73222296 0 2.95100542 0 2307.17765584 0 293.90761782 0 332.48104289 0 28996
0.16550000 0.16550500 8601.12903807 0 62.09172451 0 2019.72237596 0 -91.86079497 0 -218.57322214 0 30777
0.16650000 0.16650700 8356.95297416 0 109.80870780 0 2217.04923781 0 -256.75120260 0 498.93356659 0 29211
0.16750000 0.16749900 8315.17864463 0 102.64105450 0 2086.88205272 0 80.31018737 0 -162.41020099 0 30922
0.16850000 0.16850800 8395.15731760 0 49.81338897 0 2411.80570968 0 82.44185352 0 -426.59905768 0 30867
0.16950000 0.16949900 8199.15958903 0 207.55459738 0 2286.85619656 0 -355.51019931 0 -579.04185751 0 30852
0.17050000 0.17049200 7919.09692650 0 113.38275818 0 2305.81556884 0 -147.93473124 0 -271.64298765 0 31257
0.17150000 0.17149500 8006.96252257 0 -73.67945997 0 2576.04703891 0 105.34567596 0 -412.18400309 0 32608
0.17250000 0.17250900 7848.41120193 0 133.83493387 0 2470.18871295 0 -36.87521016 0 -617.51971681 0 32361
0.17350000 0.17350400 7679.69915166 0 128.94570062 0 2679.49974348 0 101.07070001 0 -116.69570528 0 32508
0.17450000 0.17449800 7801.00178667 0 -33.38486222 0 2508.10745750 0 252.07397160 0 -233.69348630 0 32791
0.17550000 0.17549800 7903.80640146 0 121.54759098 0 2608.40758974 0 -31.51012522 0 -400.93360385 0 33633
0.17650000 0.17650100 7700.78953101 0 68.25395988 0 2485.94059003 0 -224.92889583 0 -471.25024677 0 33984
0.17750000 0.17750300 7786.38132057 0 7.43536930 0 2633.91376727 0 -75.13568476 0 -502.70347190 0 34069
0.17850000 0.17849800 7611.97926169 0 -47.27287702 0 2377.88534955 0 206.51875219 0 -607.92139728 0 34536
