### header ###
fiducial parameters:
Omega_m = 0.31
Omega_nu = 0
Omega_de = 0.69
Omega_k = 0
H_0 = 100
w_de = -1
zeff = 0
beta = 0
fgrowth = 0
b_1 = 2
gamma = 0.55
Lx = 3500 Ly = 3500 Lz = 3500
nx = 700 ny = 700 nz = 700
xoffset = -983.599254 yoffset = -42.9823471 zoffset = 800.977702
bins = 400 dk = 0.001
kx_ny = 0.628318531 ky_ny = 0.628318531 kz_ny = 0.628318531
############################
A(data) = 9.07036393 (not used)
A(ran) = 9.0569718 (used)
Ngal = 503048
weighted Ngal = 0
Nran = 25229228
weighted Nran = 0
SN(data) = 6754.72436
SN(ran) = 134.444507
SN(data+ran) = 6889.16887
############################
13 columns: k_central k_mean P_0(k) sigma^{lin}_{P_0(k)} P^img_1(k) sigma^{lin}_{P_1(k)} P_2(k) sigma^{lin}_{P_2(k)} P^img_3(k) sigma^{lin}_{P_3(k)} P_4(k) sigma^{lin}_{P_4(k)} N_modes
### header ###
0.00050000 0 0 0 0 0 0 0 0 0 0 0 0
0.00150000 0.00179520 4332.93056215 0 -11384.30117758 0 -4202.91716107 0 3188.64566720 0 36482.62153151 0 3
0.00250000 0.00253879 18755.38876256 0 -25058.44635546 0 -14274.45206946 0 -12342.92482675 0 1949.20141999 0 6
0.00350000 0.00331552 37498.14526666 0 -20994.59388327 0 -33852.36562691 0 -9708.13229367 0 -14553.13067584 0 7
0.00450000 0.00420575 60007.51170889 0 -10886.44739447 0 3739.87348848 0 -61931.34975079 0 3122.27687967 0 24
0.00550000 0.00557378 55530.96884482 0 11949.34759116 0 23584.64625222 0 -16873.51178793 0 6610.86728577 0 45
0.00650000 0.00659388 61768.99776804 0 2122.05465413 0 34287.13500968 0 11436.14836016 0 19445.21992067 0 40
0.00750000 0.00754703 65835.92592055 0 -17613.43259701 0 29027.50196628 0 33490.31411463 0 -14602.12186956 0 57
0.00850000 0.00846663 78874.39388316 0 -8415.88520606 0 39646.72766357 0 19142.81463751 0 7165.26964853 0 75
0.00950000 0.00948925 99583.60857076 0 6903.35349990 0 38823.43394860 0 -10480.16100841 0 -9374.65165468 0 112
0.01050000 0.01054430 93980.15840557 0 8004.08456456 0 48568.61720559 0 -1930.86816835 0 30556.33477815 0 105
0.01150000 0.01145670 93756.62235354 0 -1242.15743664 0 67231.62571274 0 3245.16129313 0 22876.58070363 0 144
0.01250000 0.01249090 81639.97972196 0 4299.37269291 0 54572.45504137 0 12071.60588399 0 15648.29256220 0 169
0.01350000 0.01339930 78523.32694346 0 9132.92515045 0 58777.23957978 0 5782.55362113 0 -4409.02069642 0 180
0.01450000 0.01448870 75727.53353005 0 5587.99487157 0 68765.51142800 0 13343.18000601 0 33716.26677263 0 267
0.01550000 0.01550050 75589.23776126 0 -2051.98406563 0 42248.53352518 0 33225.14653251 0 21095.87164247 0 238
0.01650000 0.01653350 72414.25690234 0 -10867.60885250 0 37087.54194357 0 17062.66612778 0 18822.39465531 0 315
0.01750000 0.01747870 74952.13255154 0 11823.68408083 0 23789.06914796 0 2999.59018851 0 8003.54632050 0 297
0.01850000 0.01844180 77437.94132670 0 3872.13872693 0 23480.18296698 0 -6350.71965333 0 1648.27905412 0 388
0.01950000 0.01947590 62514.08132623 0 -3577.96088863 0 24905.10172223 0 -2666.49400955 0 1521.08868820 0 399
0.02050000 0.02045430 66983.48421813 0 1979.83739292 0 20615.84582066 0 12145.42221174 0 -1866.81712563 0 462
0.02150000 0.02154770 69120.75250528 0 -338.33801699 0 6212.78637543 0 1668.27097622 0 -10799.87797796 0 571
0.02250000 0.02255340 67180.65729596 0 -2373.35970564 0 2921.14935570 0 9660.37137209 0 -15450.13087284 0 510
0.02350000 0.02348930 69515.97742676 0 3105.04208529 0 10150.93139900 0 -12576.89622273 0 -14370.45723382 0 555
0.02450000 0.02439640 61531.51130883 0 4090.58892186 0 6758.64274071 0 -7058.22498872 0 -12154.53940698 0 592
0.02550000 0.02547300 65338.76416552 0 -4540.57193765 0 9964.10578854 0 3455.74653409 0 -23213.14800752 0 837
0.02650000 0.02652900 65475.85163134 0 89.07466798 0 7117.36592750 0 -572.57523963 0 -23051.45509913 0 723
0.02750000 0.02749970 65236.60764052 0 5083.19883860 0 9212.99170000 0 -10633.78025596 0 -19486.41206785 0 826
0.02850000 0.02848090 61050.27718404 0 5194.08809881 0 21255.03809917 0 -2170.21102032 0 -16703.25091292 0 831
0.02950000 0.02946900 57834.54356085 0 1275.68235216 0 22158.18965681 0 -1648.89419019 0 -14029.27640944 0 996
0.03050000 0.03053250 56924.69141394 0 -472.08836966 0 24257.23163138 0 8077.42855568 0 -10631.91287862 0 1041
0.03150000 0.03150510 55033.69724406 0 1012.22067417 0 24242.40245840 0 -4268.13256849 0 -4311.44473818 0 1036
0.03250000 0.03246190 53468.83503412 0 3263.04417730 0 24598.19276431 0 1434.29958024 0 -4945.43032928 0 1059
0.03350000 0.03345080 53211.90588145 0 -784.47972776 0 25844.39252366 0 2729.15001155 0 3466.48944608 0 1302
0.03450000 0.03451200 54241.70956095 0 -1558.40328126 0 22555.83118426 0 2416.92452050 0 -6211.21558155 0 1339
0.03550000 0.03553350 56831.43239272 0 2242.05012501 0 24809.09655787 0 2299.38959388 0 -7248.12627951 0 1365
0.03650000 0.03647120 52021.06836790 0 1708.02414439 0 21691.12563065 0 -2089.83690275 0 4420.06019186 0 1308
0.03750000 0.03744890 51643.52860828 0 -422.25356077 0 19595.48887358 0 3744.17944093 0 152.84373673 0 1579
0.03850000 0.03847530 50696.87814322 0 -782.30258547 0 14233.47961373 0 7693.18820679 0 -6348.80833770 0 1662
0.03950000 0.03950240 52697.27865601 0 2835.44772042 0 13889.44280048 0 -596.53808472 0 -6902.24405807 0 1683
0.04050000 0.04050350 46509.88861239 0 2808.41468730 0 13208.83868334 0 -4677.68137261 0 -5129.67456519 0 1822
0.04150000 0.04152450 43933.89649634 0 2054.45559446 0 14202.06373614 0 -150.66549598 0 -1272.87030158 0 1887
0.04250000 0.04250150 40079.84936045 0 -347.45960606 0 9402.40966959 0 5355.62722319 0 -6068.76764431 0 1920
0.04350000 0.04349210 40370.94053386 0 -569.33918455 0 10286.54693209 0 3664.55227429 0 -2405.56647245 0 2005
0.04450000 0.04448520 40023.82804029 0 2401.57907260 0 9190.02295873 0 1795.51626500 0 71.82218844 0 2151
0.04550000 0.04548030 37270.32523132 0 1673.31289503 0 11093.86907853 0 -341.38074360 0 4178.99276199 0 2274
0.04650000 0.04648670 37245.93948019 0 -1036.26150972 0 10113.60582137 0 -291.27571422 0 2350.43490267 0 2311
0.04750000 0.04749250 36992.19585356 0 612.71945859 0 12929.17146542 0 -137.34999710 0 3880.53094038 0 2568
0.04850000 0.04851840 38476.43130075 0 449.73146908 0 14270.49762333 0 1239.55409294 0 5210.37821994 0 2493
0.04950000 0.04949480 37238.03058793 0 -549.17810003 0 14374.74121712 0 -2668.19661830 0 4671.76068799 0 2644
0.05050000 0.05050630 37672.25074207 0 1564.34593503 0 16390.41028580 0 -2228.03381039 0 1975.38864102 0 2829
0.05150000 0.05149060 37152.46076752 0 1439.15476132 0 20686.58646809 0 -583.04573422 0 5540.00327396 0 2784
0.05250000 0.05249300 35911.97298591 0 206.33201445 0 19191.14675686 0 -291.35700006 0 -965.57358825 0 3055
0.05350000 0.05348950 35372.74031789 0 -67.31785461 0 21241.08769200 0 676.90121772 0 1356.85834354 0 3009
0.05450000 0.05448610 34513.63689631 0 1266.57614149 0 18454.85085674 0 1871.14504722 0 1049.88457664 0 3336
0.05550000 0.05550870 34915.01317843 0 8.36802542 0 18891.70730830 0 1869.98068253 0 1913.47958995 0 3349
0.05650000 0.05647670 34288.89254129 0 -172.93891381 0 17251.49093045 0 2046.78836280 0 -354.67097796 0 3324
0.05750000 0.05747970 33804.69258191 0 7.49068761 0 17051.02248084 0 415.76497375 0 1359.15411921 0 3639
0.05850000 0.05849280 33122.77031606 0 523.61590118 0 14497.65858431 0 720.16505529 0 212.28345588 0 3846
0.05950000 0.05951020 33465.48898059 0 554.34743989 0 15213.08379653 0 680.04390394 0 -1077.02635703 0 3787
0.06050000 0.06049470 32732.04906934 0 542.39183109 0 14784.02639150 0 239.00233022 0 449.73037063 0 3930
0.06150000 0.06148310 31564.49884967 0 35.96019526 0 15265.80974492 0 -47.02012201 0 710.45798850 0 4083
0.06250000 0.06249100 31370.84083506 0 683.47109058 0 14967.13921644 0 2031.12436230 0 2211.44710579 0 4303
0.06350000 0.06350600 31760.13408734 0 -512.85541388 0 12540.64713322 0 1624.68419222 0 863.66421612 0 4470
0.06450000 0.06451750 32195.56254447 0 -189.13566608 0 11825.77114962 0 616.46190247 0 1438.83620871 0 4479
0.06550000 0.06550280 31931.38357388 0 327.92683910 0 11400.33865355 0 585.87096628 0 -607.82692996 0 4636
0.06650000 0.06648880 30795.68861470 0 217.86032338 0 11157.03037087 0 -561.74335261 0 977.78513758 0 4653
0.06750000 0.06749660 31187.83785585 0 1238.24692880 0 13173.57820535 0 -874.16876288 0 -2778.41581958 0 5220
0.06850000 0.06852730 30216.03271958 0 669.79090389 0 12072.81418698 0 -90.56889939 0 -1892.30133402 0 5029
0.06950000 0.06949320 29571.01861761 0 -181.48710819 0 12093.68487488 0 1838.74055811 0 -622.70773044 0 5040
0.07050000 0.07048030 29543.88672333 0 -541.79207343 0 10684.26535154 0 1680.68354324 0 -2237.29380508 0 5475
0.07150000 0.07148790 29137.45753782 0 555.78312353 0 10549.83615229 0 -407.05201078 0 -1333.52711138 0 5509
0.07250000 0.07249820 27910.92016339 0 1112.07812814 0 10029.96928573 0 -604.30307908 0 -487.32287337 0 5916
0.07350000 0.07351270 27267.33405585 0 683.90388274 0 11405.61124839 0 263.65061264 0 -647.32635450 0 5721
0.07450000 0.07449140 26409.87832015 0 -50.28726343 0 10666.60215883 0 752.32348998 0 -1002.46088143 0 6028
0.07550000 0.07549160 27713.08801120 0 56.39688270 0 10998.96237142 0 1741.80170508 0 -1220.59472067 0 6183
0.07650000 0.07648840 26931.20613486 0 -323.88781176 0 8233.92576125 0 1978.03592301 0 1228.65739694 0 6330
0.07750000 0.07749960 27131.89427592 0 -97.96393334 0 8422.87139422 0 375.84264316 0 748.96330923 0 6583
0.07850000 0.07848650 26904.84316066 0 954.47587457 0 7543.83097340 0 123.35894700 0 2135.68650870 0 6549
0.07950000 0.07947320 25401.27486573 0 177.97094651 0 7554.51896252 0 -427.36797776 0 1046.86491763 0 6828
0.08050000 0.08048110 25470.14813581 0 249.62551037 0 8390.97219544 0 849.27003221 0 900.92937860 0 7147
0.08150000 0.08149960 25004.51210409 0 933.12076701 0 8325.00983709 0 -327.35673978 0 -59.23145166 0 7386
0.08250000 0.08250610 23896.93765071 0 581.45626656 0 8266.34123494 0 272.94026567 0 1320.33463970 0 7227
0.08350000 0.08350160 23592.99452739 0 -123.60280451 0 7744.02480869 0 -432.80863656 0 92.92146530 0 7798
0.08450000 0.08449610 22831.21441887 0 416.48006942 0 7769.66280110 0 1436.07908099 0 150.60617929 0 7371
0.08550000 0.08548940 22535.07034208 0 521.13338778 0 7429.61338770 0 237.64134168 0 587.61751332 0 8256
0.08650000 0.08650700 21715.18184461 0 476.78427444 0 7203.47399197 0 107.49788327 0 1230.74446573 0 8037
0.08750000 0.08749060 21711.00770702 0 525.31741147 0 7348.87677923 0 -208.20488408 0 1107.65134538 0 8155
0.08850000 0.08849210 20931.65228238 0 72.80289108 0 7321.11876431 0 428.74873854 0 733.59479373 0 8718
0.08950000 0.08949900 20448.55078025 0 69.09801444 0 7218.63270213 0 -64.77580482 0 1579.74630579 0 8571
0.09050000 0.09049190 20807.52661221 0 381.60185456 0 7216.38086475 0 674.30995705 0 133.38676331 0 8932
0.09150000 0.09150830 20547.30208776 0 176.00031418 0 6632.19932573 0 -223.72718359 0 457.18450158 0 9285
0.09250000 0.09250820 20164.81927048 0 222.03226404 0 7106.91959898 0 734.82726277 0 745.54271333 0 9204
0.09350000 0.09350330 19790.24534545 0 347.72762964 0 6458.48929493 0 -20.39736267 0 428.59715144 0 9349
0.09450000 0.09448040 18955.08829209 0 206.46163241 0 6622.21434925 0 938.56032735 0 1363.25136478 0 9564
0.09550000 0.09549270 19223.11186308 0 490.48203644 0 6302.60722542 0 216.62126359 0 294.17564139 0 10155
0.09650000 0.09649430 17749.53145129 0 238.79911563 0 5699.94963532 0 -166.79853773 0 737.63821490 0 9913
0.09750000 0.09749140 17649.35214935 0 525.69198540 0 6246.92642701 0 -233.59462514 0 160.05730554 0 10476
0.09850000 0.09850240 16965.01327753 0 188.78855358 0 5812.95891804 0 97.20281231 0 800.62924636 0 10575
0.09950000 0.09950330 16989.17933721 0 17.99470711 0 5472.27239943 0 1153.83048852 0 283.39318494 0 10882
0.10050000 0.10051200 17460.52734667 0 11.85268335 0 5455.47698795 0 386.35048529 0 265.43890106 0 10875
0.10150000 0.10150300 16881.31083446 0 179.06061611 0 5118.88771491 0 -199.44468744 0 543.16404655 0 11118
0.10250000 0.10250800 16818.91846220 0 -114.08577083 0 4089.08403541 0 -4.63330370 0 899.60244224 0 11575
0.10350000 0.10349800 16654.58925638 0 36.04148110 0 5436.04527906 0 255.75050804 0 869.95178547 0 11364
0.10450000 0.10450100 16244.75485337 0 643.91894009 0 4941.04748482 0 148.92114586 0 859.60981038 0 12093
0.10550000 0.10551000 16154.35182103 0 354.70173477 0 5894.44247745 0 -292.38076223 0 1121.33812282 0 12067
0.10650000 0.10649700 15983.32202594 0 112.17115983 0 4988.17130120 0 176.23099021 0 368.42256438 0 12054
0.10750000 0.10749900 15404.87443380 0 1.99101969 0 5489.67196240 0 646.22789725 0 326.16820903 0 12807
0.10850000 0.10850100 15239.99599936 0 220.98213891 0 5301.91266326 0 -624.93100793 0 216.72891240 0 12736
0.10950000 0.10950300 14988.55913297 0 406.40611791 0 4905.78700684 0 -110.60366132 0 -77.81712877 0 12933
0.11050000 0.11050200 14864.21377135 0 -117.20429099 0 4687.05121302 0 399.65939343 0 -559.96275339 0 13428
0.11150000 0.11150900 14812.58628022 0 233.27826945 0 4845.78927140 0 164.88941902 0 -1126.09444275 0 13453
0.11250000 0.11250000 14356.50682664 0 417.65871406 0 4686.17244722 0 -344.25211087 0 -637.72693653 0 13668
0.11350000 0.11349100 13953.26316718 0 227.83980757 0 4719.57653244 0 -76.30642051 0 -780.11006478 0 13791
0.11450000 0.11448600 13995.11438871 0 -240.49183827 0 4669.12439057 0 1484.97141355 0 37.97333788 0 14205
0.11550000 0.11549300 14105.28965170 0 -92.29084099 0 4695.72902536 0 376.92682047 0 -78.13293523 0 14776
0.11650000 0.11649800 13914.81716314 0 501.42267074 0 4133.69238467 0 -867.78562776 0 576.56263948 0 14553
0.11750000 0.11747300 13501.24800545 0 143.16852520 0 4914.54171118 0 136.89523579 0 1544.29909007 0 14568
0.11850000 0.11849100 13435.56026142 0 26.11417363 0 4982.93166007 0 125.44931117 0 864.28704139 0 16015
0.11950000 0.11950300 13525.63375659 0 88.34067884 0 5345.87292273 0 251.09744309 0 1648.21314669 0 15270
0.12050000 0.12050700 13558.36778288 0 267.51059145 0 5322.55267514 0 36.91343647 0 935.47476092 0 15999
0.12150000 0.12150000 13374.37619214 0 -116.71547751 0 5453.10432027 0 -39.85411639 0 2191.10367737 0 15670
0.12250000 0.12250700 13320.77147794 0 -78.39799297 0 5330.04415365 0 402.40004429 0 599.10737624 0 16887
0.12350000 0.12352200 13281.33686238 0 260.14433707 0 5159.64047919 0 -62.87789037 0 1888.52264105 0 16407
0.12450000 0.12449800 13376.90264383 0 9.64210403 0 4873.00904225 0 355.06202875 0 1946.12573966 0 16306
0.12550000 0.12549900 13479.27886029 0 -174.66349170 0 4898.66900380 0 639.98646311 0 1867.21257024 0 17523
0.12650000 0.12650100 13353.28581278 0 -124.04438433 0 4005.13993175 0 346.51053899 0 1399.72014575 0 17154
0.12750000 0.12750600 13252.22774504 0 268.78809724 0 4358.57953912 0 244.27712198 0 1678.65139731 0 18007
0.12850000 0.12850300 12969.26515534 0 384.98729983 0 4220.86595267 0 -485.86192522 0 1762.73830042 0 17496
0.12950000 0.12949900 12800.43227477 0 97.04979721 0 4270.50523617 0 408.23724616 0 2309.71509211 0 18405
0.13050000 0.13049000 12809.43962428 0 -115.27979387 0 4006.76564849 0 292.53125087 0 2017.07509397 0 18100
0.13150000 0.13148800 12677.95429048 0 182.17913626 0 4149.41130803 0 145.01722876 0 1224.35144449 0 19059
0.13250000 0.13249300 12481.55013273 0 162.35857350 0 3720.26602642 0 -18.03831586 0 1891.19189218 0 18957
0.13350000 0.13349100 12437.39215095 0 -62.91919236 0 3701.29566957 0 237.33816748 0 1310.43753981 0 19468
0.13450000 0.13450700 12372.47332700 0 74.59788009 0 3600.58910815 0 244.36170319 0 1233.77620776 0 19953
0.13550000 0.13551000 12361.81829159 0 266.47254934 0 3590.51625509 0 -443.24288206 0 749.14345622 0 19956
0.13650000 0.13649900 11864.65653656 0 261.09230569 0 3690.88229477 0 -564.88823574 0 589.20917789 0 19723
0.13750000 0.13749600 11703.07347389 0 160.86796700 0 4076.80328327 0 -61.78833062 0 69.13602106 0 20946
0.13850000 0.13851100 11483.05248508 0 98.30039080 0 4077.58318792 0 264.73259304 0 183.34899324 0 20955
0.13950000 0.13949800 11456.57966516 0 170.67279648 0 3980.82008805 0 428.79267683 0 -284.67069073 0 20506
0.14050000 0.14048300 11238.09651652 0 212.54159333 0 3845.92953675 0 -337.65587504 0 -61.86203710 0 21447
0.14150000 0.14148400 10862.45708796 0 168.74500399 0 3903.07128332 0 -169.27446039 0 216.49054718 0 21771
0.14250000 0.14249400 10510.17086070 0 240.11616588 0 4224.29313932 0 146.39689108 0 464.37500279 0 22470
0.14350000 0.14350900 10586.21705668 0 10.62088437 0 4084.69020638 0 484.68767441 0 526.73881516 0 22519
0.14450000 0.14449900 10492.56259085 0 -88.23599587 0 3917.13153622 0 93.90601254 0 612.17572224 0 22218
0.14550000 0.14550500 10583.60272841 0 207.52054521 0 3599.17209829 0 354.88517713 0 583.49500323 0 23559
0.14650000 0.14650700 10349.00521179 0 160.60323880 0 3755.65831928 0 -170.11917402 0 1012.93906522 0 23044
0.14750000 0.14750500 10287.92000366 0 12.47419047 0 3815.46931698 0 -6.51290687 0 534.15999240 0 23649
0.14850000 0.14849900 10170.33015418 0 4.80997956 0 3497.11443443 0 90.48343942 0 570.04439411 0 23640
0.14950000 0.14949500 9791.98852076 0 190.26707705 0 3370.07785253 0 64.40815118 0 432.15725141 0 24457
0.15050000 0.15050000 9994.46714715 0 -14.09694138 0 3566.85548575 0 354.52817852 0 502.79134848 0 24591
0.15150000 0.15149900 9962.19447291 0 -70.49415362 0 2877.81521687 0 459.78454991 0 456.85496440 0 25020
0.15250000 0.15250500 9948.07929714 0 132.25645079 0 2804.73485548 0 144.53171065 0 355.17297293 0 25297
0.15350000 0.15350100 9960.66761732 0 85.98075327 0 2515.54401314 0 150.49743202 0 904.80363735 0 25452
0.15450000 0.15450400 9561.30151198 0 145.31600914 0 2830.04331071 0 19.46378385 0 620.85792841 0 26061
0.15550000 0.15549900 9576.58105244 0 34.52879561 0 2331.67325270 0 -2.12159330 0 949.13517538 0 26128
0.15650000 0.15649500 9394.73145336 0 99.42630949 0 2607.53980850 0 56.33229341 0 517.00648386 0 26331
0.15750000 0.15749700 9475.10557093 0 109.21312428 0 2487.91781309 0 277.11110788 0 874.47193709 0 27345
0.15850000 0.15849900 9146.91949592 0 99.51627314 0 2357.60782856 0 -130.04965016 0 710.70953521 0 26980
0.15950000 0.15949700 8986.32504478 0 194.48734984 0 2444.16626050 0 13.14996137 0 1043.94961207 0 27777
0.16050000 0.16050000 9088.09710975 0 15.02788390 0 2261.41592647 0 299.95901885 0 705.92465540 0 28224
0.16150000 0.16150500 8942.38675446 0 4.73851394 0 2429.49087153 0 131.57540729 0 809.98590529 0 28075
0.16250000 0.16249700 8920.87896134 0 54.49083967 0 2196.16756533 0 -153.09088961 0 316.44686230 0 28590
0.16350000 0.16349900 8763.23936023 0 161.04262170 0 2240.68803801 0 -142.05578799 0 617.93383519 0 29163
0.16450000 0.16449100 8662.69756739 0 155.82165435 0 2455.07394108 0 -229.25791589 0 240.86531373 0 28996
0.16550000 0.16550500 8489.10836689 0 144.33508680 0 2643.59117572 0 -85.58036560 0 216.12915474 0 30777
0.16650000 0.16650700 8482.60549992 0 67.01160472 0 2423.86677037 0 88.70767341 0 233.49356708 0 29211
0.16750000 0.16749900 8350.16450830 0 64.33180840 0 2629.13547820 0 170.97047840 0 72.04396696 0 30922
0.16850000 0.16850800 8177.95936395 0 103.44259876 0 2434.91725039 0 -75.99995093 0 358.34312058 0 30867
0.16950000 0.16949900 8184.25352404 0 29.83816342 0 2524.41954778 0 369.63416273 0 211.73862108 0 30852
0.17050000 0.17049200 8196.36950759 0 -31.54604477 0 2213.87469633 0 146.78574495 0 239.08910835 0 31257
0.17150000 0.17149500 8123.66262168 0 48.88024953 0 2326.65330303 0 60.25521382 0 644.08480714 0 32608
0.17250000 0.17250900 8030.79904507 0 -98.06026805 0 1976.70678973 0 121.40479154 0 365.84668211 0 32361
0.17350000 0.17350400 8096.94814116 0 216.08192108 0 1949.26732742 0 -143.29045395 0 208.87933684 0 32508
0.17450000 0.17449800 8023.98861007 0 162.04331626 0 2066.25302541 0 -36.42649037 0 -96.57427507 0 32791
0.17550000 0.17549800 7865.87667234 0 93.84307094 0 2406.17062394 0 -335.55782167 0 -8.01701341 0 33633
0.17650000 0.17650100 7627.10501814 0 93.90249748 0 2210.56833999 0 145.36983354 0 -180.93128882 0 33984
0.17750000 0.17750300 7574.57679205 0 -13.53551987 0 2415.15600431 0 26.63627036 0 14.08738480 0 34069
0.17850000 0.17849800 7737.19240455 0 10.10134704 0 2043.91040478 0 130.98004346 0 -387.16883595 0 34536
