### header ###
fiducial parameters:
Omega_m = 0.31
Omega_nu = 0
Omega_de = 0.69
Omega_k = 0
H_0 = 100
w_de = -1
zeff = 0
beta = 0
fgrowth = 0
b_1 = 2
gamma = 0.55
Lx = 3500 Ly = 3500 Lz = 3500
nx = 700 ny = 700 nz = 700
xoffset = -983.599254 yoffset = -42.9823471 zoffset = 800.977702
bins = 400 dk = 0.001
kx_ny = 0.628318531 ky_ny = 0.628318531 kz_ny = 0.628318531
############################
A(data) = 9.06707252 (not used)
A(ran) = 9.07786004 (used)
Ngal = 504499
weighted Ngal = 0
Nran = 25229228
weighted Nran = 0
SN(data) = 6732.99982
SN(ran) = 134.754578
SN(data+ran) = 6867.7544
############################
13 columns: k_central k_mean P_0(k) sigma^{lin}_{P_0(k)} P^img_1(k) sigma^{lin}_{P_1(k)} P_2(k) sigma^{lin}_{P_2(k)} P^img_3(k) sigma^{lin}_{P_3(k)} P_4(k) sigma^{lin}_{P_4(k)} N_modes
### header ###
0.00050000 0 0 0 0 0 0 0 0 0 0 0 0
0.00150000 0.00179520 46168.59794229 0 -38306.71965437 0 -30414.96332903 0 -4519.97586406 0 -68188.71152175 0 3
0.00250000 0.00253879 76904.53048215 0 -14966.80967926 0 3912.27635514 0 -45540.06069918 0 75371.19399552 0 6
0.00350000 0.00331552 54340.24117700 0 32959.86910468 0 19813.97202223 0 -71094.79004387 0 78165.99879739 0 7
0.00450000 0.00420575 44770.04216123 0 -1242.26728237 0 -9899.72520864 0 6121.03224066 0 22455.65188231 0 24
0.00550000 0.00557378 66880.88831022 0 -15914.33891012 0 10399.51227652 0 -4579.54520117 0 -68719.04668598 0 45
0.00650000 0.00659388 85909.57323860 0 23033.44040009 0 19198.61626622 0 -27261.73192383 0 27352.79403053 0 40
0.00750000 0.00754703 78032.09685762 0 1460.78338473 0 24013.15442862 0 -40120.49227900 0 6401.62216267 0 57
0.00850000 0.00846663 77977.28384044 0 -4770.12753546 0 56429.39703625 0 19291.98513316 0 -14573.56198085 0 75
0.00950000 0.00948925 72221.03827064 0 2433.66500911 0 58678.81780945 0 13483.67268932 0 -17251.60077618 0 112
0.01050000 0.01054430 76864.21710077 0 7380.79794715 0 44842.65018599 0 22.82583198 0 21261.95837990 0 105
0.01150000 0.01145670 65032.51428196 0 7965.15523933 0 55638.28811894 0 10957.01228874 0 5381.35309217 0 144
0.01250000 0.01249090 64173.41086037 0 -768.42247956 0 43917.85902037 0 31278.57042537 0 28262.20679454 0 169
0.01350000 0.01339930 70801.28226450 0 -6343.71149602 0 29474.68391607 0 33433.08449148 0 19215.64235372 0 180
0.01450000 0.01448870 71959.82513465 0 -926.86505293 0 23648.24692747 0 2002.54250444 0 4040.08185713 0 267
0.01550000 0.01550050 77505.16691089 0 1996.89643413 0 17491.94322426 0 -5507.89536831 0 21438.04107838 0 238
0.01650000 0.01653350 70427.25756810 0 -5225.93237472 0 14396.71036229 0 1867.78376801 0 8431.15376195 0 315
0.01750000 0.01747870 91545.42789291 0 -3740.40074796 0 10638.29491529 0 -2911.64770042 0 -12115.98355722 0 297
0.01850000 0.01844180 83472.09658280 0 -3576.63175535 0 8042.80518291 0 1434.96963916 0 -17389.89654498 0 388
0.01950000 0.01947590 89554.69380400 0 2223.81573452 0 20067.82549458 0 -3073.00008707 0 -11337.94628129 0 399
0.02050000 0.02045430 80416.95741076 0 6420.75728811 0 13454.89310916 0 -12421.68421216 0 -16154.79120393 0 462
0.02150000 0.02154770 78556.82988983 0 5314.70969032 0 35159.09038119 0 736.81656887 0 -2579.73785530 0 571
0.02250000 0.02255340 69536.51857748 0 -887.81270049 0 18864.46556830 0 7647.66813801 0 -1323.83871836 0 510
0.02350000 0.02348930 74013.06144156 0 -264.95118603 0 29315.51745936 0 13811.78187233 0 -6450.80009412 0 555
0.02450000 0.02439640 76916.39382053 0 2739.69520123 0 28637.65948537 0 -7934.92569558 0 -1620.05968716 0 592
0.02550000 0.02547300 68509.24134968 0 6688.04489273 0 26752.37729323 0 -10960.46144453 0 -4894.96720284 0 837
0.02650000 0.02652900 60422.39901529 0 2357.91539659 0 27368.50196932 0 -2418.56122181 0 -11546.32362315 0 723
0.02750000 0.02749970 60439.64479424 0 -595.50004261 0 32952.07005814 0 5268.56350091 0 -13312.09366560 0 826
0.02850000 0.02848090 60081.32803664 0 1181.14912053 0 33962.54088990 0 5171.83335476 0 -9394.44585447 0 831
0.02950000 0.02946900 58925.86084681 0 1181.55554971 0 30089.49044344 0 5699.81782045 0 -3910.32110122 0 996
0.03050000 0.03053250 58197.25414749 0 -1433.69542874 0 24089.38736234 0 5233.65452924 0 -9026.73728731 0 1041
0.03150000 0.03150510 59966.42940744 0 1068.91754555 0 21405.85628072 0 6736.01452119 0 -5172.94279659 0 1036
0.03250000 0.03246190 61594.01352682 0 -2186.40228031 0 18645.98241965 0 1572.37565758 0 -5118.16273312 0 1059
0.03350000 0.03345080 61453.96022641 0 1273.43051478 0 19768.60573747 0 193.85903229 0 367.99306759 0 1302
0.03450000 0.03451200 56604.49112319 0 2769.73800724 0 17680.87787266 0 -4420.20299131 0 1079.76481097 0 1339
0.03550000 0.03553350 55359.06028392 0 1973.56520197 0 23833.99604982 0 4724.12414549 0 6801.10909831 0 1365
0.03650000 0.03647120 53714.12053987 0 -602.50710146 0 17545.54793845 0 7505.03346304 0 4625.17511567 0 1308
0.03750000 0.03744890 54886.39412575 0 -65.84691049 0 18150.90773341 0 5398.74167057 0 5344.65363518 0 1579
0.03850000 0.03847530 52992.76365845 0 2034.27693463 0 14719.65679618 0 401.71021313 0 11502.93456146 0 1662
0.03950000 0.03950240 48964.39135569 0 2109.56519510 0 18738.91190369 0 -3402.11985075 0 7983.03812349 0 1683
0.04050000 0.04050350 47493.00785842 0 2878.52921409 0 19691.27434649 0 -3567.58046754 0 8184.89062925 0 1822
0.04150000 0.04152450 45159.11572206 0 122.65593436 0 19888.66711578 0 1902.16548019 0 3541.76672198 0 1887
0.04250000 0.04250150 44510.58655686 0 1180.99533651 0 18803.94057337 0 2318.78834906 0 181.07408826 0 1920
0.04350000 0.04349210 43533.83836293 0 1005.29270424 0 18698.70836804 0 2238.83164524 0 4368.25694757 0 2005
0.04450000 0.04448520 40523.29655556 0 979.58221366 0 13994.12577718 0 3522.40092051 0 2412.05835485 0 2151
0.04550000 0.04548030 40767.48360404 0 879.00746710 0 15439.36599171 0 3404.54744129 0 6063.33028089 0 2274
0.04650000 0.04648670 38561.45189253 0 -1022.98006301 0 9700.20143227 0 2794.83775559 0 4610.55464957 0 2311
0.04750000 0.04749250 38967.11215796 0 964.84091725 0 9787.97915177 0 1371.66554738 0 4466.70068704 0 2568
0.04850000 0.04851840 37593.27166521 0 1696.71003463 0 10055.23380267 0 -3447.89256469 0 2054.99383852 0 2493
0.04950000 0.04949480 36038.73495350 0 -448.64399640 0 9483.03643234 0 906.14155829 0 2355.81734323 0 2644
0.05050000 0.05050630 35545.19810742 0 1473.00921401 0 13144.35924229 0 -3326.33728451 0 -154.06302428 0 2829
0.05150000 0.05149060 34630.62259430 0 974.50075038 0 11347.61270516 0 -198.97344928 0 -1169.40661244 0 2784
0.05250000 0.05249300 35455.34430370 0 15.65686053 0 14301.47411801 0 -1467.06656025 0 -4345.39805203 0 3055
0.05350000 0.05348950 34564.16593018 0 1047.73709270 0 15182.54668476 0 -676.23884800 0 -5187.49735526 0 3009
0.05450000 0.05448610 33711.65325214 0 -306.60358680 0 15698.60190463 0 -669.69753502 0 -2807.03063115 0 3336
0.05550000 0.05550870 34239.02258177 0 -702.36565388 0 13498.94124521 0 2948.59980258 0 -5404.32183344 0 3349
0.05650000 0.05647670 34825.04952899 0 821.58671239 0 14475.79928487 0 -334.33743566 0 -6996.81024342 0 3324
0.05750000 0.05747970 35282.22743982 0 -479.31731687 0 12003.28184254 0 -722.46961862 0 -8644.96846724 0 3639
0.05850000 0.05849280 34204.75071532 0 253.24822241 0 13016.82835462 0 977.28424108 0 -7393.44119019 0 3846
0.05950000 0.05951020 34906.88459472 0 -102.42762426 0 10063.34041724 0 866.62785381 0 -7271.28175851 0 3787
0.06050000 0.06049470 33714.50924101 0 284.62126016 0 10719.44893752 0 2872.28997686 0 -5330.82405830 0 3930
0.06150000 0.06148310 33791.07171191 0 341.87065553 0 10199.31844122 0 659.49286710 0 -5832.88493270 0 4083
0.06250000 0.06249100 32525.09972191 0 1185.24636610 0 9749.61003974 0 -372.22871878 0 -2763.23514027 0 4303
0.06350000 0.06350600 30850.94101478 0 1587.30369172 0 10567.60919073 0 -405.04293245 0 -2217.66437387 0 4470
0.06450000 0.06451750 30795.24923180 0 -300.96300878 0 11786.22668833 0 -440.44950525 0 -725.92426670 0 4479
0.06550000 0.06550280 30177.14733264 0 136.94246946 0 10811.29094887 0 1598.09054200 0 -2255.20964296 0 4636
0.06650000 0.06648880 29890.66967972 0 775.83047530 0 11537.09658218 0 -525.65463785 0 -1513.44342568 0 4653
0.06750000 0.06749660 29052.54679177 0 748.84797122 0 10881.63615168 0 -656.86206196 0 300.35336501 0 5220
0.06850000 0.06852730 28997.40423741 0 130.15510206 0 11972.74473076 0 3293.04304502 0 -558.16348040 0 5029
0.06950000 0.06949320 29051.99756314 0 -117.92158358 0 10731.67476680 0 377.66388529 0 680.55798194 0 5040
0.07050000 0.07048030 27674.86169861 0 497.57916879 0 10221.01297207 0 245.55243086 0 -79.58948956 0 5475
0.07150000 0.07148790 27672.22540119 0 392.67979601 0 9473.17228616 0 -578.11475958 0 307.92063706 0 5509
0.07250000 0.07249820 26856.29134985 0 322.20058141 0 10110.78278622 0 757.02378859 0 -36.71252864 0 5916
0.07350000 0.07351270 26265.65088215 0 458.20826374 0 9766.39446664 0 107.91639549 0 309.95058607 0 5721
0.07450000 0.07449140 25866.69120600 0 698.71657887 0 10355.81564679 0 15.76802440 0 181.38605012 0 6028
0.07550000 0.07549160 25985.76397278 0 163.58005797 0 10446.53723174 0 617.59770727 0 1105.74002976 0 6183
0.07650000 0.07648840 25922.05345181 0 -471.07559207 0 10029.22233480 0 506.63924425 0 -1816.12332316 0 6330
0.07750000 0.07749960 25472.78443323 0 290.74076554 0 9500.93030107 0 291.64150049 0 538.67245482 0 6583
0.07850000 0.07848650 25575.38034114 0 509.37659974 0 9719.54526459 0 -391.38581336 0 -344.25101241 0 6549
0.07950000 0.07947320 25078.32843184 0 -100.80388474 0 9968.88407761 0 -451.12541134 0 665.14223277 0 6828
0.08050000 0.08048110 25040.76119361 0 682.06616375 0 10398.28200439 0 475.22446513 0 -1935.89910259 0 7147
0.08150000 0.08149960 23557.95374085 0 1109.43084614 0 10746.50393979 0 148.06215228 0 1017.99965781 0 7386
0.08250000 0.08250610 23503.03087795 0 149.10678513 0 10645.67654806 0 768.13468375 0 -391.49346217 0 7227
0.08350000 0.08350160 23061.67075163 0 -511.33405058 0 8916.02378026 0 1896.06904241 0 771.57395343 0 7798
0.08450000 0.08449610 22889.43265355 0 791.94813865 0 9329.34029278 0 805.10655815 0 252.97910038 0 7371
0.08550000 0.08548940 22349.65075690 0 262.85862496 0 7875.83967967 0 -158.65237871 0 1877.85662107 0 8256
0.08650000 0.08650700 21543.16343798 0 222.89125762 0 7574.04953257 0 542.45114778 0 203.87037174 0 8037
0.08750000 0.08749060 21122.12477094 0 483.11138824 0 7319.14154125 0 206.95264280 0 1223.97796902 0 8155
0.08850000 0.08849210 20979.43517311 0 400.95117916 0 7378.38134118 0 485.70923966 0 250.64268179 0 8718
0.08950000 0.08949900 20192.17085620 0 -336.18943460 0 6175.05436861 0 1378.06955319 0 992.03102977 0 8571
0.09050000 0.09049190 20086.38942224 0 460.69517098 0 6198.75907624 0 30.49668855 0 408.85897296 0 8932
0.09150000 0.09150830 19906.90150627 0 566.03722203 0 5643.20333337 0 130.10457303 0 1874.06694353 0 9285
0.09250000 0.09250820 18944.10371951 0 192.55736044 0 5748.81999874 0 201.08797950 0 601.01759342 0 9204
0.09350000 0.09350330 18695.52284199 0 393.00823473 0 6552.83578883 0 -395.50722499 0 1416.69131039 0 9349
0.09450000 0.09448040 18322.37691141 0 368.17431304 0 6685.76010163 0 -327.06674707 0 1067.91245716 0 9564
0.09550000 0.09549270 18142.01022962 0 -24.64136213 0 6482.65535461 0 102.46112720 0 515.42141003 0 10155
0.09650000 0.09649430 17980.53701267 0 135.52216422 0 6406.01599171 0 423.63102617 0 447.14899607 0 9913
0.09750000 0.09749140 18319.52092254 0 -89.36246378 0 5810.50935835 0 935.55934212 0 141.89101940 0 10476
0.09850000 0.09850240 18404.98089722 0 -138.49568802 0 6149.47129907 0 -167.06875822 0 70.14319652 0 10575
0.09950000 0.09950330 17897.38379823 0 479.57106050 0 5247.98939646 0 -345.07155998 0 -883.87473122 0 10882
0.10050000 0.10051200 17544.22978974 0 132.18285416 0 5616.90626661 0 -392.28435140 0 -230.42557595 0 10875
0.10150000 0.10150300 16618.12047541 0 738.58838043 0 6026.52097817 0 231.14836083 0 -493.51817231 0 11118
0.10250000 0.10250800 16502.45292613 0 674.25283727 0 6287.93183646 0 179.16277263 0 184.16844236 0 11575
0.10350000 0.10349800 15961.35288077 0 -381.25474207 0 5366.28225859 0 1274.06761999 0 710.12845132 0 11364
0.10450000 0.10450100 16292.64758983 0 -76.04663536 0 5150.39146908 0 967.05870246 0 137.19950846 0 12093
0.10550000 0.10551000 15834.37122173 0 398.60816983 0 4559.82789339 0 -454.29006670 0 987.33073116 0 12067
0.10650000 0.10649700 15759.45643673 0 219.60577196 0 4779.36556100 0 -462.46478562 0 552.59869594 0 12054
0.10750000 0.10749900 15394.10955267 0 94.18897513 0 5501.05197959 0 -48.05904288 0 761.34621790 0 12807
0.10850000 0.10850100 15426.84357896 0 -160.43627329 0 4695.02601272 0 243.10177271 0 -30.57325102 0 12736
0.10950000 0.10950300 15507.79987889 0 143.98248202 0 4714.66642849 0 682.58793095 0 532.25087369 0 12933
0.11050000 0.11050200 15664.54972962 0 105.05282726 0 5099.08253055 0 -398.95528233 0 299.11210830 0 13428
0.11150000 0.11150900 14895.95918611 0 347.06086608 0 4783.34197627 0 -4.51475819 0 705.48307558 0 13453
0.11250000 0.11250000 14641.66633085 0 220.37469204 0 5180.87365799 0 195.52099812 0 740.41621330 0 13668
0.11350000 0.11349100 14386.82424696 0 147.30421677 0 5051.16782495 0 -377.42002778 0 150.95988253 0 13791
0.11450000 0.11448600 14437.46312656 0 596.73800394 0 5836.63067195 0 167.73552177 0 -511.62404329 0 14205
0.11550000 0.11549300 13832.65256023 0 -66.74940298 0 5356.60485015 0 158.96324211 0 577.04266530 0 14776
0.11650000 0.11649800 14196.79114131 0 -112.20521200 0 5350.59628894 0 244.54185018 0 -189.71674997 0 14553
0.11750000 0.11747300 13768.28296491 0 37.64402039 0 4275.14072580 0 214.60559452 0 -250.69650619 0 14568
0.11850000 0.11849100 13834.95932048 0 12.87293045 0 4788.17518821 0 496.83990705 0 94.80444073 0 16015
0.11950000 0.11950300 13487.29759828 0 363.93316956 0 4532.59713796 0 99.86723023 0 310.22190501 0 15270
0.12050000 0.12050700 13399.97024625 0 188.81162119 0 4329.87685097 0 28.66951475 0 299.67891225 0 15999
0.12150000 0.12150000 13119.64395398 0 36.21657518 0 4678.80179902 0 -261.80410599 0 176.12993214 0 15670
0.12250000 0.12250700 13453.24542327 0 86.99528839 0 4099.79399368 0 333.53446340 0 -524.06846557 0 16887
0.12350000 0.12352200 12956.41320542 0 -113.36518287 0 4335.40209098 0 587.92398290 0 686.23371059 0 16407
0.12450000 0.12449800 13190.82398431 0 -33.36607860 0 3676.22887494 0 89.74736321 0 -250.95244674 0 16306
0.12550000 0.12549900 13062.19463938 0 341.37305440 0 3709.07274696 0 -249.29817011 0 103.28804583 0 17523
0.12650000 0.12650100 13013.31329139 0 133.46475378 0 4059.66735004 0 -118.20278863 0 -55.03106095 0 17154
0.12750000 0.12750600 12685.64349129 0 79.32520074 0 4662.35789386 0 -235.05227792 0 -378.68215517 0 18007
0.12850000 0.12850300 12510.32971289 0 157.77690827 0 4402.07844655 0 -100.41415210 0 -356.31207311 0 17496
0.12950000 0.12949900 12543.28343064 0 27.44528413 0 4757.95662904 0 25.57318343 0 -240.51490587 0 18405
0.13050000 0.13049000 12652.79961927 0 -5.09293117 0 4538.12237797 0 518.18183312 0 -474.04142666 0 18100
0.13150000 0.13148800 12729.03255299 0 140.56408304 0 4506.60763923 0 131.29639915 0 55.92399685 0 19059
0.13250000 0.13249300 12379.50345345 0 111.34072614 0 4439.32713217 0 -54.77050689 0 275.68091653 0 18957
0.13350000 0.13349100 12114.44571706 0 143.36185367 0 4591.66118473 0 309.15200764 0 319.01835074 0 19468
0.13450000 0.13450700 11982.96038326 0 262.31708553 0 4433.87878417 0 -196.11086967 0 350.49903730 0 19953
0.13550000 0.13551000 11799.07863825 0 -36.00105787 0 4243.68090992 0 403.79618346 0 745.62180225 0 19956
0.13650000 0.13649900 11849.16828922 0 104.87707410 0 3992.38684298 0 581.84182506 0 761.05183135 0 19723
0.13750000 0.13749600 11815.77518857 0 181.62771072 0 4091.32488822 0 -170.39378834 0 584.55501449 0 20946
0.13850000 0.13851100 11358.26774056 0 200.66397500 0 3914.75886855 0 104.90947859 0 715.26044363 0 20955
0.13950000 0.13949800 11248.97124338 0 57.89298149 0 4018.95852405 0 186.42796894 0 413.11879021 0 20506
0.14050000 0.14048300 11156.59098797 0 213.70376111 0 4139.56913100 0 -394.54827181 0 116.84180009 0 21447
0.14150000 0.14148400 10703.81789074 0 107.48865623 0 3952.82041254 0 222.71879983 0 673.78599294 0 21771
0.14250000 0.14249400 10862.57791825 0 -38.28266344 0 3874.69813234 0 213.01173304 0 311.90803690 0 22470
0.14350000 0.14350900 10958.80277407 0 -49.63247306 0 3467.70873363 0 513.22120015 0 186.61360821 0 22519
0.14450000 0.14449900 10633.50564164 0 224.16546804 0 3221.79710725 0 193.35593886 0 108.73364769 0 22218
0.14550000 0.14550500 10736.34321015 0 102.92390725 0 3204.91381920 0 -11.71197098 0 825.68945025 0 23559
0.14650000 0.14650700 10420.09736553 0 -30.44615952 0 3061.36742470 0 11.19602560 0 386.87884323 0 23044
0.14750000 0.14750500 10174.66906035 0 173.71222772 0 2776.09807477 0 331.05854074 0 -216.60258982 0 23649
0.14850000 0.14849900 10169.62714153 0 258.53399873 0 3018.45069963 0 -184.31343871 0 44.18335614 0 23640
0.14950000 0.14949500 9951.80306725 0 307.77344378 0 3045.29699502 0 -280.70086620 0 7.41457551 0 24457
0.15050000 0.15050000 9511.38761417 0 44.38558212 0 3126.74760071 0 158.60844042 0 463.55994751 0 24591
0.15150000 0.15149900 9693.77545731 0 -227.21149002 0 2769.40847006 0 429.26391499 0 -297.69509844 0 25020
0.15250000 0.15250500 9564.36620773 0 -0.03710193 0 2506.92112366 0 233.02891966 0 -106.42370192 0 25297
0.15350000 0.15350100 9830.96178428 0 121.29714273 0 2128.10715362 0 -45.80830396 0 -340.87984709 0 25452
0.15450000 0.15450400 9710.93335968 0 61.47889521 0 2313.96612170 0 171.07812721 0 -224.77181645 0 26061
0.15550000 0.15549900 9549.93247936 0 82.82027205 0 2150.90014173 0 -171.08471795 0 -217.67138873 0 26128
0.15650000 0.15649500 9448.13844525 0 212.09781660 0 2337.97839736 0 263.90545472 0 -371.48066938 0 26331
0.15750000 0.15749700 9329.09863218 0 57.74523899 0 2434.78543552 0 -253.43386168 0 23.14943749 0 27345
0.15850000 0.15849900 9135.78113932 0 81.33131323 0 2295.16053344 0 251.82901563 0 -213.17979700 0 26980
0.15950000 0.15949700 9101.55321116 0 73.59290154 0 2471.66064567 0 301.00584862 0 407.90331515 0 27777
0.16050000 0.16050000 8966.38804555 0 86.06720186 0 2202.04431166 0 -141.13857618 0 315.44177390 0 28224
0.16150000 0.16150500 8797.40138095 0 237.96209120 0 2564.29354625 0 -89.44067394 0 411.04819828 0 28075
0.16250000 0.16249700 8777.45339715 0 -49.18386312 0 2243.43418115 0 295.62560497 0 966.30845615 0 28590
0.16350000 0.16349900 8844.26156759 0 -100.55563340 0 2508.78850100 0 309.38707750 0 382.11812947 0 29163
0.16450000 0.16449100 8927.86514950 0 206.54950899 0 2336.39661891 0 -487.99293230 0 453.77708716 0 28996
0.16550000 0.16550500 8590.74861698 0 201.11434248 0 2404.12749344 0 -164.26879067 0 431.09394478 0 30777
0.16650000 0.16650700 8539.20900243 0 -68.79934391 0 2657.19007657 0 -101.95309072 0 644.57142370 0 29211
0.16750000 0.16749900 8434.96540863 0 116.11571984 0 2574.44329132 0 387.31712768 0 -103.81003272 0 30922
0.16850000 0.16850800 8505.74999435 0 1.01185818 0 2341.77905947 0 302.04169381 0 324.61608892 0 30867
0.16950000 0.16949900 8583.61962938 0 52.63587490 0 2202.22006483 0 28.52001471 0 102.41510185 0 30852
0.17050000 0.17049200 8260.01412113 0 238.29602221 0 2325.09349372 0 -307.56253999 0 571.53500061 0 31257
0.17150000 0.17149500 8142.42427165 0 110.21261054 0 2345.38199928 0 -6.28941475 0 457.64805054 0 32608
0.17250000 0.17250900 7949.57911541 0 74.56943004 0 2484.49062645 0 106.72863365 0 74.61216003 0 32361
0.17350000 0.17350400 7973.43760706 0 15.89083192 0 2117.18848847 0 221.60276726 0 71.37599510 0 32508
0.17450000 0.17449800 7830.08893487 0 74.59161888 0 2257.46148034 0 363.44765146 0 595.59231302 0 32791
0.17550000 0.17549800 7924.73201223 0 -38.93547659 0 1868.75041040 0 14.42109611 0 421.91743285 0 33633
0.17650000 0.17650100 7778.51636660 0 73.82555479 0 1772.69032318 0 394.16820559 0 671.40453760 0 33984
0.17750000 0.17750300 7730.39295412 0 9.90242741 0 1623.56376581 0 69.90098670 0 356.50979541 0 34069
0.17850000 0.17849800 7570.07311730 0 244.99551303 0 1528.54721298 0 -179.18144640 0 777.75716934 0 34536
