### header ###
fiducial parameters:
Omega_m = 0.31
Omega_nu = 0
Omega_de = 0.69
Omega_k = 0
H_0 = 100
w_de = -1
zeff = 0
beta = 0
fgrowth = 0
b_1 = 2
gamma = 0.55
Lx = 3500 Ly = 3500 Lz = 3500
nx = 700 ny = 700 nz = 700
xoffset = -983.599254 yoffset = -42.9823471 zoffset = 800.977702
bins = 400 dk = 0.001
kx_ny = 0.628318531 ky_ny = 0.628318531 kz_ny = 0.628318531
############################
A(data) = 9.02506812 (not used)
A(ran) = 9.02906313 (used)
Ngal = 501448
weighted Ngal = 0
Nran = 25229228
weighted Nran = 0
SN(data) = 6747.43907
SN(ran) = 134.030222
SN(data+ran) = 6881.46929
############################
13 columns: k_central k_mean P_0(k) sigma^{lin}_{P_0(k)} P^img_1(k) sigma^{lin}_{P_1(k)} P_2(k) sigma^{lin}_{P_2(k)} P^img_3(k) sigma^{lin}_{P_3(k)} P_4(k) sigma^{lin}_{P_4(k)} N_modes
### header ###
0.00050000 0 0 0 0 0 0 0 0 0 0 0 0
0.00150000 0.00179520 16041.54026062 0 -6947.33572851 0 -5811.35517044 0 -21860.83727703 0 -2898.13667614 0 3
0.00250000 0.00253879 18036.99771574 0 -793.19378918 0 -9013.40201619 0 18130.69611986 0 21971.45192293 0 6
0.00350000 0.00331552 27109.37590213 0 -7763.03910383 0 13858.57615153 0 -13220.15279310 0 19860.43676425 0 7
0.00450000 0.00420575 36645.63258862 0 -8362.14867699 0 6676.89555156 0 -5374.57561089 0 -8382.21749110 0 24
0.00550000 0.00557378 58475.93275388 0 -4158.89099417 0 7048.74530259 0 -5713.82315049 0 -15710.24555156 0 45
0.00650000 0.00659388 54618.15086331 0 -7100.84513034 0 2889.16228034 0 -7639.64940003 0 40120.05289610 0 40
0.00750000 0.00754703 48575.64733204 0 3296.82173798 0 5281.71203429 0 13461.59369844 0 14286.53509929 0 57
0.00850000 0.00846663 55140.57713528 0 -9197.20686920 0 17254.67645650 0 8797.76387185 0 -11663.96839550 0 75
0.00950000 0.00948925 66040.56850775 0 4096.09219272 0 16009.79484586 0 -9310.30402849 0 -21751.21124267 0 112
0.01050000 0.01054430 66448.75522487 0 12468.36864563 0 16775.30970905 0 -24839.41397819 0 -2976.84113869 0 105
0.01150000 0.01145670 67103.54559644 0 -3986.41123550 0 26962.29247526 0 -2010.95668704 0 -17443.39141345 0 144
0.01250000 0.01249090 65694.99385434 0 807.92959330 0 48143.07486379 0 -6668.03100149 0 -21611.04809653 0 169
0.01350000 0.01339930 61082.90136461 0 -1816.15627688 0 22820.12000056 0 16366.90330048 0 -17457.67135780 0 180
0.01450000 0.01448870 67407.37887404 0 2032.20085041 0 37620.62325094 0 -658.55039077 0 -17689.00645637 0 267
0.01550000 0.01550050 65151.47720301 0 5691.53545272 0 34902.93014859 0 -1785.83885656 0 2982.08077981 0 238
0.01650000 0.01653350 58276.34307007 0 630.67264401 0 34295.92266774 0 -490.48533182 0 -16616.69248098 0 315
0.01750000 0.01747870 63770.16720091 0 347.31131433 0 41522.67296901 0 8447.55372881 0 -6636.71398506 0 297
0.01850000 0.01844180 63693.05550139 0 906.58313811 0 39722.96059728 0 8429.68182922 0 -11785.78730543 0 388
0.01950000 0.01947590 63374.72258798 0 -2253.33128105 0 24739.34452198 0 9358.59220956 0 19950.62010514 0 399
0.02050000 0.02045430 67274.68523726 0 -6387.96833895 0 21713.86369590 0 16974.24031850 0 3229.68403037 0 462
0.02150000 0.02154770 70325.54042600 0 -1395.56797731 0 13391.18258819 0 2697.47050423 0 260.44201899 0 571
0.02250000 0.02255340 70892.34437120 0 5418.12944117 0 23040.47052654 0 -8915.62833565 0 5645.66387762 0 510
0.02350000 0.02348930 65105.23215244 0 7413.47705058 0 27446.82197182 0 -9355.39569894 0 535.66597730 0 555
0.02450000 0.02439640 66686.24168408 0 -1062.14775347 0 30399.36523596 0 -2743.18829531 0 -1032.99030401 0 592
0.02550000 0.02547300 64882.68471195 0 -3557.95798196 0 31533.96173789 0 9532.33519408 0 -14810.60905715 0 837
0.02650000 0.02652900 68880.08052002 0 2398.66816087 0 36050.48844616 0 -3217.97447599 0 -4662.68743104 0 723
0.02750000 0.02749970 67846.65193157 0 3261.53929085 0 33198.12448396 0 6385.05742722 0 -2171.39735416 0 826
0.02850000 0.02848090 66233.89698518 0 -590.34278578 0 32891.43521749 0 -6974.61042223 0 -9377.32090581 0 831
0.02950000 0.02946900 65552.08456505 0 719.81684434 0 32064.95597647 0 645.41723579 0 -3741.71889667 0 996
0.03050000 0.03053250 62082.60731524 0 236.44402327 0 32142.06767599 0 2738.14637650 0 3046.64809744 0 1041
0.03150000 0.03150510 63048.81031949 0 816.25370240 0 30675.95677356 0 15245.15874847 0 6263.24950187 0 1036
0.03250000 0.03246190 65388.41443359 0 2351.00610044 0 26984.04192897 0 3230.17833613 0 -2530.12054095 0 1059
0.03350000 0.03345080 59863.28427090 0 1928.82503785 0 23004.00174557 0 1150.12868756 0 11227.66117257 0 1302
0.03450000 0.03451200 57734.25441319 0 -960.47345120 0 21999.57242874 0 2872.23505400 0 8378.79030445 0 1339
0.03550000 0.03553350 55796.24627266 0 1759.68458924 0 23347.92871310 0 5755.89406348 0 13675.68301805 0 1365
0.03650000 0.03647120 52080.93428847 0 3311.85961785 0 18574.80238933 0 906.28655465 0 8208.48549115 0 1308
0.03750000 0.03744890 54061.34287916 0 1472.67967684 0 24633.67293374 0 -1470.71343834 0 7961.31063893 0 1579
0.03850000 0.03847530 47865.60456038 0 2275.24550335 0 23735.24474231 0 -726.30213599 0 9084.47220080 0 1662
0.03950000 0.03950240 48141.42717790 0 1558.30442011 0 24513.83124688 0 2100.00861696 0 8621.91184939 0 1683
0.04050000 0.04050350 45165.15723698 0 901.65985268 0 25460.92109484 0 639.87551892 0 10633.23102733 0 1822
0.04150000 0.04152450 44628.67071211 0 796.96479295 0 23140.75967421 0 2631.02482468 0 4677.87909492 0 1887
0.04250000 0.04250150 43424.76155720 0 1535.84096918 0 22110.73630326 0 2945.10670850 0 8598.26206463 0 1920
0.04350000 0.04349210 42173.94827736 0 983.54544745 0 22519.47224901 0 644.12764697 0 8855.87226080 0 2005
0.04450000 0.04448520 40504.62278217 0 -720.49788784 0 22180.04895625 0 1304.56079348 0 9258.64358364 0 2151
0.04550000 0.04548030 41118.55054374 0 -94.94416450 0 18011.95289026 0 4814.59308527 0 4098.43190668 0 2274
0.04650000 0.04648670 39687.26073639 0 1725.23696963 0 18348.63003988 0 19.88767850 0 8008.74202333 0 2311
0.04750000 0.04749250 38851.99383731 0 1330.96770596 0 16628.11643646 0 688.80519903 0 10134.59733957 0 2568
0.04850000 0.04851840 39162.30801273 0 -768.28956623 0 17320.69373771 0 3965.63940874 0 4290.83768001 0 2493
0.04950000 0.04949480 37590.85505924 0 253.90509985 0 14568.83861464 0 2415.48554149 0 4780.90340116 0 2644
0.05050000 0.05050630 35694.03906590 0 2175.14309341 0 14565.21370568 0 -470.45606217 0 6380.80639763 0 2829
0.05150000 0.05149060 35018.15831497 0 1503.42549549 0 14600.58402940 0 -3059.08263361 0 5527.83236754 0 2784
0.05250000 0.05249300 32345.72165165 0 363.99358471 0 16124.14424643 0 -81.66392609 0 3352.93093473 0 3055
0.05350000 0.05348950 32771.26399345 0 643.91674318 0 16653.71049057 0 790.82881071 0 1070.69484939 0 3009
0.05450000 0.05448610 32598.69635820 0 -134.54014343 0 14875.74757256 0 1752.28098732 0 3562.05522753 0 3336
0.05550000 0.05550870 33799.74952424 0 -922.57777425 0 13923.49497548 0 861.16193049 0 -1131.13636156 0 3349
0.05650000 0.05647670 33256.01318147 0 -490.18435453 0 12390.70771748 0 726.35925577 0 -1106.81651787 0 3324
0.05750000 0.05747970 33593.89863407 0 360.56969344 0 13586.81782586 0 565.48689494 0 -412.12688331 0 3639
0.05850000 0.05849280 33099.81255936 0 661.79633197 0 12825.91648315 0 -1176.70036863 0 2133.73125478 0 3846
0.05950000 0.05951020 34344.69417001 0 -117.97211261 0 13378.55032972 0 1768.05483355 0 -931.99704524 0 3787
0.06050000 0.06049470 33965.39687877 0 -350.55945245 0 12297.44869627 0 104.22953354 0 -609.14068484 0 3930
0.06150000 0.06148310 32899.45395548 0 1233.65537747 0 13219.49371874 0 1180.96238279 0 -66.09186646 0 4083
0.06250000 0.06249100 33462.19360882 0 -275.72595328 0 12482.75843571 0 422.41942782 0 1796.68062969 0 4303
0.06350000 0.06350600 32135.69662390 0 485.45110220 0 14214.03692026 0 1730.26790387 0 2942.05299732 0 4470
0.06450000 0.06451750 31004.83487665 0 1073.71231148 0 12599.52444225 0 -163.45703075 0 4208.89276856 0 4479
0.06550000 0.06550280 32321.44574625 0 -278.43255196 0 12169.91780860 0 1188.67355274 0 1485.16913586 0 4636
0.06650000 0.06648880 29964.81554465 0 1541.69574636 0 14050.14709734 0 -2123.80120117 0 1562.61037256 0 4653
0.06750000 0.06749660 28676.54487231 0 1655.19933485 0 13563.86006917 0 -342.29026621 0 3982.34694364 0 5220
0.06850000 0.06852730 28025.04987251 0 -840.85914499 0 13665.90674845 0 2229.94512602 0 2499.06715426 0 5029
0.06950000 0.06949320 27810.96055290 0 239.19785562 0 13249.15206471 0 1862.73086463 0 1020.40198383 0 5040
0.07050000 0.07048030 27528.21765465 0 451.27150616 0 10354.23386834 0 2132.14947633 0 3384.29188945 0 5475
0.07150000 0.07148790 26961.63340091 0 -131.25795315 0 10252.26408106 0 -224.90472977 0 2266.08436981 0 5509
0.07250000 0.07249820 26494.78906620 0 718.62501822 0 9282.33730670 0 389.42836253 0 2145.57262402 0 5916
0.07350000 0.07351270 26588.92685322 0 209.74052733 0 8936.69674586 0 -802.34943043 0 -838.41617604 0 5721
0.07450000 0.07449140 25116.11536152 0 545.59603091 0 10200.90021967 0 -1165.28739772 0 97.61726023 0 6028
0.07550000 0.07549160 24561.39444616 0 755.35742893 0 9011.15017881 0 305.45679743 0 -877.35538739 0 6183
0.07650000 0.07648840 25071.73768829 0 -229.56548392 0 9722.89555922 0 1687.59283939 0 -1030.34412047 0 6330
0.07750000 0.07749960 25304.28108983 0 -434.26958472 0 8935.77404176 0 -14.41604321 0 -2892.55651327 0 6583
0.07850000 0.07848650 24378.28162123 0 548.44103521 0 8418.92793266 0 -313.77541424 0 -1145.09775331 0 6549
0.07950000 0.07947320 24010.40828548 0 406.01506712 0 9990.46876273 0 264.63043651 0 79.28411844 0 6828
0.08050000 0.08048110 24081.25877863 0 450.19831342 0 9418.48009928 0 407.37935104 0 428.33022632 0 7147
0.08150000 0.08149960 23852.45013176 0 -114.49879076 0 9673.02559970 0 469.39385400 0 -53.28440406 0 7386
0.08250000 0.08250610 23056.94738542 0 924.48689296 0 9930.37216614 0 746.81362837 0 1111.28723891 0 7227
0.08350000 0.08350160 22880.53514976 0 -140.50147097 0 8957.24888116 0 251.92238450 0 2814.54407880 0 7798
0.08450000 0.08449610 23251.04478293 0 -217.48574945 0 9046.27884193 0 2520.35525593 0 1408.44189638 0 7371
0.08550000 0.08548940 23253.46138890 0 212.01762922 0 8698.40841285 0 -626.26014121 0 2494.91498583 0 8256
0.08650000 0.08650700 22423.79662183 0 413.53949934 0 7384.30202580 0 29.84552309 0 2668.47123261 0 8037
0.08750000 0.08749060 21559.09106822 0 300.26878380 0 7958.35578890 0 382.34551013 0 2475.81281411 0 8155
0.08850000 0.08849210 21773.83946219 0 525.06366785 0 7695.56087446 0 126.74549073 0 2191.49912199 0 8718
0.08950000 0.08949900 20632.65221671 0 551.87041877 0 7860.40635519 0 172.25457493 0 1499.92141684 0 8571
0.09050000 0.09049190 20343.09888347 0 337.69212412 0 7779.92239189 0 498.50406980 0 1789.94708670 0 8932
0.09150000 0.09150830 19793.76040868 0 200.62662745 0 6849.21054164 0 1025.67018484 0 1219.83678516 0 9285
0.09250000 0.09250820 19482.78715890 0 -7.06337675 0 6858.20690659 0 202.25344265 0 2094.04399404 0 9204
0.09350000 0.09350330 19189.82860815 0 546.63077765 0 6440.80413307 0 -242.02198923 0 1115.32956162 0 9349
0.09450000 0.09448040 18547.67049505 0 211.12018964 0 6593.81922913 0 301.48587444 0 1642.89661356 0 9564
0.09550000 0.09549270 18121.68877035 0 305.73910094 0 6250.55133596 0 227.45974136 0 498.02184706 0 10155
0.09650000 0.09649430 18296.34347439 0 431.09724016 0 6727.34769343 0 -898.48970503 0 1230.37099026 0 9913
0.09750000 0.09749140 17226.44610497 0 375.92722437 0 6794.15586387 0 -116.22886094 0 -446.30538089 0 10476
0.09850000 0.09850240 17017.18999729 0 308.09968559 0 7616.16438385 0 483.06305612 0 1502.99709716 0 10575
0.09950000 0.09950330 16367.34268338 0 74.14213017 0 6795.82551890 0 280.43943337 0 1089.07753161 0 10882
0.10050000 0.10051200 17156.69406907 0 -2.53370151 0 6659.57288060 0 1257.17334736 0 1162.06891795 0 10875
0.10150000 0.10150300 16614.16602928 0 47.28528959 0 6637.41699770 0 65.12390593 0 1414.45045758 0 11118
0.10250000 0.10250800 16272.10643910 0 134.42700234 0 6056.56378418 0 97.81509239 0 1892.70776320 0 11575
0.10350000 0.10349800 16528.04698024 0 168.04089289 0 6258.35038249 0 823.75726393 0 2260.15270062 0 11364
0.10450000 0.10450100 16466.86291097 0 53.61690707 0 6377.79662474 0 -70.77887374 0 1867.97050575 0 12093
0.10550000 0.10551000 16076.25150997 0 465.83155712 0 5934.39336793 0 65.33942324 0 1376.30103701 0 12067
0.10650000 0.10649700 15463.42220566 0 429.36387460 0 6562.74387330 0 -640.49504882 0 1479.97343303 0 12054
0.10750000 0.10749900 15382.24621428 0 -62.55131903 0 6737.83796024 0 317.59255322 0 2105.31416551 0 12807
0.10850000 0.10850100 15329.73995735 0 -189.45092331 0 5637.09591101 0 983.76404044 0 713.93131035 0 12736
0.10950000 0.10950300 15396.30646719 0 32.42327273 0 5776.43521421 0 -358.06081706 0 1085.90189167 0 12933
0.11050000 0.11050200 14931.65904700 0 151.53547413 0 5480.73052032 0 -22.96786250 0 567.04011351 0 13428
0.11150000 0.11150900 14950.99189474 0 483.41895628 0 6088.71562812 0 74.17036052 0 180.18543634 0 13453
0.11250000 0.11250000 14640.78756504 0 243.09847734 0 5534.25834250 0 -156.83333349 0 982.38327967 0 13668
0.11350000 0.11349100 14770.62521295 0 0.98215260 0 5243.00240051 0 1233.72128490 0 420.16539352 0 13791
0.11450000 0.11448600 14321.57588583 0 -175.74547210 0 4622.92327829 0 666.69654979 0 1570.45335738 0 14205
0.11550000 0.11549300 14416.04321003 0 265.57840513 0 4806.44253241 0 612.40859518 0 1690.02042993 0 14776
0.11650000 0.11649800 13949.74810395 0 172.78512979 0 3999.18629341 0 402.63181877 0 2666.54893241 0 14553
0.11750000 0.11747300 14111.77054953 0 -137.66086050 0 3200.09159183 0 941.74255803 0 2259.17507366 0 14568
0.11850000 0.11849100 13882.52251975 0 153.63901978 0 3626.61156059 0 -131.02178484 0 1886.86397059 0 16015
0.11950000 0.11950300 13531.56542578 0 302.74580491 0 3651.07420373 0 -776.23580603 0 2380.82921500 0 15270
0.12050000 0.12050700 13697.65216321 0 -130.35721819 0 3569.11830770 0 -266.44179253 0 1442.02173476 0 15999
0.12150000 0.12150000 13634.82040804 0 -69.57573350 0 3414.33469546 0 392.66331915 0 580.31496947 0 15670
0.12250000 0.12250700 13684.14113893 0 177.31297061 0 3284.91446131 0 51.68131554 0 130.50111610 0 16887
0.12350000 0.12352200 13597.58270699 0 -52.77647742 0 3358.71980448 0 -635.91887588 0 -148.47846758 0 16407
0.12450000 0.12449800 13545.07645005 0 200.27951496 0 3548.84078672 0 96.53451091 0 -279.58483363 0 16306
0.12550000 0.12549900 13097.89450027 0 294.13170310 0 3891.54846668 0 -271.39473631 0 -276.46411656 0 17523
0.12650000 0.12650100 13075.04658930 0 314.91121905 0 3428.44987123 0 224.53784505 0 -245.00100531 0 17154
0.12750000 0.12750600 13040.99441430 0 -83.02063065 0 3623.85443288 0 291.63600821 0 -269.32414438 0 18007
0.12850000 0.12850300 12733.20669057 0 46.40070196 0 3853.41003068 0 148.73221121 0 -457.17900929 0 17496
0.12950000 0.12949900 12641.81504669 0 326.23411647 0 3708.74320978 0 -465.71951447 0 -11.80050663 0 18405
0.13050000 0.13049000 12374.34070433 0 293.60114824 0 4422.32301381 0 -592.63306917 0 159.95405056 0 18100
0.13150000 0.13148800 12210.45088142 0 2.14365032 0 4240.06698554 0 110.30268403 0 -404.64309401 0 19059
0.13250000 0.13249300 12327.54642514 0 -237.98296189 0 4273.82257709 0 930.96010158 0 3.06929829 0 18957
0.13350000 0.13349100 12045.79213843 0 112.98401820 0 3733.48046724 0 399.64731040 0 -112.24805184 0 19468
0.13450000 0.13450700 12380.49206498 0 292.20940289 0 3884.79295455 0 -70.41056102 0 787.65207232 0 19953
0.13550000 0.13551000 11964.06691842 0 212.79533696 0 3956.30252205 0 30.18329869 0 470.96794325 0 19956
0.13650000 0.13649900 11684.18000905 0 249.20370278 0 4245.85585529 0 -252.32991214 0 645.98403974 0 19723
0.13750000 0.13749600 11250.83862071 0 150.03388306 0 4031.61275167 0 291.41411984 0 1361.76844748 0 20946
0.13850000 0.13851100 11293.34891660 0 -59.89524938 0 3738.15989516 0 707.81729725 0 1394.74413437 0 20955
0.13950000 0.13949800 11391.11161258 0 -168.79004074 0 3314.90234445 0 626.82364978 0 1245.32099355 0 20506
0.14050000 0.14048300 11304.77287209 0 41.56397496 0 2795.37599965 0 495.29877152 0 1585.85372814 0 21447
0.14150000 0.14148400 11457.89781387 0 170.70465174 0 2531.02127590 0 18.54832957 0 1478.78709919 0 21771
0.14250000 0.14249400 11136.26952869 0 53.57922999 0 2816.30161041 0 -117.63268932 0 1067.55326163 0 22470
0.14350000 0.14350900 10872.94735477 0 308.96636837 0 2709.88307124 0 -548.43114910 0 807.26722358 0 22519
0.14450000 0.14449900 10571.73939002 0 309.67047947 0 2921.45692373 0 -500.44394532 0 444.26554577 0 22218
0.14550000 0.14550500 10519.07934906 0 59.87635591 0 3405.79968256 0 -62.98872471 0 -140.78267603 0 23559
0.14650000 0.14650700 10287.93098823 0 72.61153983 0 3262.96728529 0 99.19815992 0 128.09219933 0 23044
0.14750000 0.14750500 10280.43950973 0 -137.64108827 0 2991.92295684 0 226.49529588 0 -58.46154296 0 23649
0.14850000 0.14849900 10372.81976514 0 58.85127560 0 2874.11341591 0 482.74560198 0 182.67893431 0 23640
0.14950000 0.14949500 10177.39323435 0 254.13687433 0 3077.41588524 0 78.05329708 0 435.27796848 0 24457
0.15050000 0.15050000 10159.22475130 0 267.13382061 0 2984.72806180 0 -192.79133183 0 850.72548808 0 24591
0.15150000 0.15149900 9835.95976480 0 140.97490605 0 3248.74226380 0 76.09200165 0 678.85097936 0 25020
0.15250000 0.15250500 9790.27492744 0 -35.39240270 0 2958.16736530 0 -54.22171764 0 498.68421679 0 25297
0.15350000 0.15350100 9521.46046723 0 132.17296804 0 3328.32549215 0 170.93313085 0 865.48875363 0 25452
0.15450000 0.15450400 9460.25442880 0 2.56881919 0 2865.64431045 0 3.73993940 0 648.07989618 0 26061
0.15550000 0.15549900 9416.33810762 0 21.25207226 0 2700.43633882 0 348.14614185 0 557.14411207 0 26128
0.15650000 0.15649500 9504.90671635 0 59.87998082 0 2656.03669645 0 211.62108615 0 270.47972141 0 26331
0.15750000 0.15749700 9253.32705052 0 226.59525549 0 2493.06957763 0 -47.47554239 0 490.40514444 0 27345
0.15850000 0.15849900 9031.69132954 0 136.30756116 0 2500.12167323 0 149.94490802 0 490.09977332 0 26980
0.15950000 0.15949700 8985.64400128 0 3.45930554 0 2252.49645353 0 177.25145700 0 513.75395192 0 27777
0.16050000 0.16050000 9026.85811761 0 -113.83532257 0 2197.43079118 0 303.86732977 0 51.48557045 0 28224
0.16150000 0.16150500 9064.51323241 0 150.44360762 0 1992.34882109 0 -178.82334934 0 404.54642977 0 28075
0.16250000 0.16249700 8601.94189644 0 254.04350546 0 2201.44016017 0 -372.22322649 0 406.64448313 0 28590
0.16350000 0.16349900 8727.68229878 0 56.08525038 0 2262.83293633 0 169.44252435 0 60.82015039 0 29163
0.16450000 0.16449100 8564.67124167 0 -48.51874725 0 2048.41407954 0 438.98965556 0 311.92341531 0 28996
0.16550000 0.16550500 8527.06006515 0 296.63838256 0 2256.26416193 0 -246.03904742 0 293.24195272 0 30777
0.16650000 0.16650700 8225.66536267 0 125.11098633 0 2191.78472087 0 94.63352078 0 861.73093135 0 29211
0.16750000 0.16749900 8503.44323410 0 -107.91079335 0 2316.74521856 0 244.55613012 0 55.31424323 0 30922
0.16850000 0.16850800 8007.59962778 0 -19.31637088 0 2113.45373380 0 -232.57525681 0 591.07216140 0 30867
0.16950000 0.16949900 8248.87576453 0 164.93116039 0 2017.30576999 0 159.69261773 0 713.07451369 0 30852
0.17050000 0.17049200 8163.37185156 0 -1.77058129 0 2223.94754939 0 100.67547509 0 366.68919882 0 31257
0.17150000 0.17149500 8190.63556071 0 7.77526493 0 1837.08188765 0 100.40635306 0 127.68247477 0 32608
0.17250000 0.17250900 8158.09925672 0 150.00422471 0 1927.77051888 0 -165.56277332 0 -111.37477832 0 32361
0.17350000 0.17350400 7971.18576968 0 158.87316862 0 1910.27209476 0 -42.52556445 0 454.82391693 0 32508
0.17450000 0.17449800 7866.44787011 0 44.30067137 0 2298.55476636 0 -53.88987370 0 77.02074726 0 32791
0.17550000 0.17549800 7702.23949459 0 114.91290915 0 2194.33314171 0 -26.78060764 0 58.60851654 0 33633
0.17650000 0.17650100 7666.59455657 0 92.62158647 0 2309.98970642 0 -43.64412347 0 -71.05601450 0 33984
0.17750000 0.17750300 7524.21252677 0 -18.86029143 0 1886.65526371 0 415.12127779 0 465.48224771 0 34069
0.17850000 0.17849800 7783.54730084 0 -92.29962865 0 1865.18042431 0 347.11139511 0 338.52255781 0 34536
