### header ###
fiducial parameters:
Omega_m = 0.31
Omega_nu = 0
Omega_de = 0.69
Omega_k = 0
H_0 = 100
w_de = -1
zeff = 0
beta = 0
fgrowth = 0
b_1 = 2
gamma = 0.55
Lx = 3500 Ly = 3500 Lz = 3500
nx = 700 ny = 700 nz = 700
xoffset = -983.599254 yoffset = -42.9823471 zoffset = 800.977702
bins = 400 dk = 0.001
kx_ny = 0.628318531 ky_ny = 0.628318531 kz_ny = 0.628318531
############################
A(data) = 9.17196782 (not used)
A(ran) = 9.1774542 (used)
Ngal = 509714
weighted Ngal = 0
Nran = 25229228
weighted Nran = 0
SN(data) = 6674.0626
SN(ran) = 136.232985
SN(data+ran) = 6810.29558
############################
13 columns: k_central k_mean P_0(k) sigma^{lin}_{P_0(k)} P^img_1(k) sigma^{lin}_{P_1(k)} P_2(k) sigma^{lin}_{P_2(k)} P^img_3(k) sigma^{lin}_{P_3(k)} P_4(k) sigma^{lin}_{P_4(k)} N_modes
### header ###
0.00050000 0 0 0 0 0 0 0 0 0 0 0 0
0.00150000 0.00179520 35583.97364863 0 -45078.37911359 0 -58140.57375297 0 51175.03658769 0 -49849.63806002 0 3
0.00250000 0.00253879 54200.62725949 0 -57984.15343941 0 -35189.73733869 0 -16675.35009856 0 -12998.48411841 0 6
0.00350000 0.00331552 83261.74201787 0 -27505.04020651 0 -68307.89413426 0 -29819.37980367 0 -7450.91247393 0 7
0.00450000 0.00420575 118998.07168821 0 1313.69995787 0 -2010.89077960 0 -86723.96944979 0 14527.53662173 0 24
0.00550000 0.00557378 92056.43020940 0 18755.60845401 0 37362.15625810 0 -24157.93109524 0 13140.07525898 0 45
0.00650000 0.00659388 80607.42989932 0 17323.11034368 0 55789.76537484 0 -14222.05565824 0 689.57192220 0 40
0.00750000 0.00754703 63368.68107306 0 -2421.21948838 0 70889.92776523 0 36994.39276808 0 -13976.00123242 0 57
0.00850000 0.00846663 68247.91836797 0 13881.97329112 0 49848.64944849 0 44596.26622300 0 5453.44484202 0 75
0.00950000 0.00948925 78449.51061571 0 -2743.83638509 0 51161.19602624 0 11617.72334493 0 25201.79502765 0 112
0.01050000 0.01054430 60789.72312241 0 -1332.00025579 0 39783.81512938 0 6626.30061025 0 26668.89454161 0 105
0.01150000 0.01145670 67304.12389178 0 -1532.10621450 0 40630.61582968 0 20441.41080807 0 17135.49384399 0 144
0.01250000 0.01249090 64232.28816940 0 1389.93289158 0 18516.91369182 0 12701.35143008 0 511.09019306 0 169
0.01350000 0.01339930 72700.29517236 0 4388.06213193 0 28616.78879746 0 -7032.77373405 0 -9594.27719887 0 180
0.01450000 0.01448870 66576.72549544 0 -2752.25056769 0 17812.03366928 0 14839.49848304 0 -2629.25630850 0 267
0.01550000 0.01550050 77861.17690825 0 -5678.46381135 0 11225.02487515 0 -3167.47839584 0 8750.92565436 0 238
0.01650000 0.01653350 69971.50765170 0 -2518.97119978 0 5386.38402641 0 -1663.26201112 0 -21646.52826597 0 315
0.01750000 0.01747870 81546.39116357 0 1287.38092196 0 -8922.31794035 0 4600.51475023 0 5162.17791546 0 297
0.01850000 0.01844180 73358.16122426 0 -5218.00151332 0 8410.12929003 0 -14380.23350341 0 -31955.22009639 0 388
0.01950000 0.01947590 73682.86518976 0 9321.39844680 0 17628.15192427 0 -20497.76166542 0 -21795.58891590 0 399
0.02050000 0.02045430 74539.44215966 0 5368.53409597 0 13342.30124020 0 -2822.20032589 0 -19018.13973871 0 462
0.02150000 0.02154770 70672.98245675 0 -4222.51363856 0 29207.09972799 0 91.74358958 0 -27888.84117250 0 571
0.02250000 0.02255340 79564.66442417 0 5870.28740234 0 24106.63314129 0 -668.23988224 0 -32734.79521248 0 510
0.02350000 0.02348930 72964.91352585 0 -1722.75445622 0 27661.46052006 0 -486.86921052 0 -25343.82555113 0 555
0.02450000 0.02439640 65707.62611280 0 3327.78724809 0 30666.40019542 0 -13099.54218616 0 -18777.57759918 0 592
0.02550000 0.02547300 59775.73722743 0 6391.49438675 0 38438.64437107 0 132.56841266 0 -20694.05597744 0 837
0.02650000 0.02652900 58783.50078615 0 3931.25769656 0 39966.70826286 0 8073.10063409 0 -14087.93402702 0 723
0.02750000 0.02749970 60615.94718417 0 -2246.29017002 0 39222.72316193 0 5226.94295540 0 -17549.06300168 0 826
0.02850000 0.02848090 58909.38398794 0 -4015.02604707 0 25384.57831540 0 18317.10431657 0 3350.49235962 0 831
0.02950000 0.02946900 60010.80708067 0 -2536.34879360 0 16565.50437275 0 6267.41265487 0 -6508.85356021 0 996
0.03050000 0.03053250 62099.52355701 0 2989.86884177 0 11332.67368645 0 3204.67215860 0 -3242.17348939 0 1041
0.03150000 0.03150510 61525.90917681 0 2654.92725462 0 17279.61143626 0 5.49003445 0 -3089.34513107 0 1036
0.03250000 0.03246190 55598.85350337 0 1839.31175588 0 13107.01169551 0 -9107.41897292 0 155.16477691 0 1059
0.03350000 0.03345080 56868.56024805 0 1356.63865209 0 16351.08551596 0 1353.91447809 0 -3921.31665838 0 1302
0.03450000 0.03451200 50937.00089985 0 79.04201846 0 15151.78988153 0 -1226.86691161 0 -8045.51837233 0 1339
0.03550000 0.03553350 51850.03857281 0 2298.22522919 0 20103.52535547 0 2606.08984492 0 -3386.56569597 0 1365
0.03650000 0.03647120 51922.09736894 0 880.98249325 0 17456.68274627 0 -2630.04719772 0 -9179.80730623 0 1308
0.03750000 0.03744890 49985.07783995 0 1120.05292783 0 17635.40174217 0 2348.88607793 0 -7478.67048885 0 1579
0.03850000 0.03847530 49359.83596862 0 -484.32957734 0 16645.69175259 0 4174.18151920 0 1628.84734522 0 1662
0.03950000 0.03950240 48138.68103475 0 -1916.46739369 0 14145.05380445 0 4051.05544514 0 -2322.65491861 0 1683
0.04050000 0.04050350 49301.28819676 0 2877.66143285 0 12870.95323074 0 -2568.39079182 0 -1387.31856331 0 1822
0.04150000 0.04152450 44626.14426042 0 4229.37899642 0 16102.61448417 0 -1212.21349179 0 -3516.15069872 0 1887
0.04250000 0.04250150 43359.95257897 0 483.98356331 0 18085.87906373 0 -2200.10004232 0 -668.08829514 0 1920
0.04350000 0.04349210 43038.32429378 0 318.78437934 0 20278.61944242 0 226.87755901 0 -2745.20945667 0 2005
0.04450000 0.04448520 40005.04442117 0 962.08049417 0 17738.54687871 0 2352.82953949 0 -1685.01146483 0 2151
0.04550000 0.04548030 40412.90160112 0 304.61318225 0 18332.70240963 0 762.32384486 0 -4437.08627936 0 2274
0.04650000 0.04648670 39083.32893587 0 46.87534534 0 17138.45967859 0 2420.05512369 0 -2091.90200239 0 2311
0.04750000 0.04749250 39484.59537227 0 1259.45813846 0 16314.61673499 0 -410.72525185 0 -1445.52581341 0 2568
0.04850000 0.04851840 37049.42547671 0 1528.67902786 0 19821.00214868 0 -231.47130726 0 2234.85522996 0 2493
0.04950000 0.04949480 37144.77156672 0 741.39384026 0 16707.53489622 0 3093.10185489 0 -725.79684565 0 2644
0.05050000 0.05050630 36911.78878227 0 200.53216013 0 17454.37598603 0 2745.57194756 0 4071.45379642 0 2829
0.05150000 0.05149060 36120.78971068 0 116.94944890 0 18444.63520424 0 -2015.02097889 0 -207.30305067 0 2784
0.05250000 0.05249300 34328.54684831 0 1382.99064171 0 17415.38075336 0 -467.76044806 0 1097.79269149 0 3055
0.05350000 0.05348950 33372.33980510 0 480.45861396 0 16635.91548299 0 1868.19019720 0 4223.41437351 0 3009
0.05450000 0.05448610 34601.84301413 0 -1485.83919479 0 16236.07704103 0 3525.25690939 0 2738.19031479 0 3336
0.05550000 0.05550870 35066.49043433 0 -912.11826424 0 13010.34745679 0 2136.33459848 0 2175.64838375 0 3349
0.05650000 0.05647670 35229.39164571 0 1229.09677984 0 13460.27554973 0 601.65030480 0 1197.18659650 0 3324
0.05750000 0.05747970 34503.86062671 0 1220.02352289 0 12993.21152357 0 -2421.20850381 0 2098.29502363 0 3639
0.05850000 0.05849280 34309.87307492 0 217.72631159 0 13662.94091385 0 1517.55165583 0 2828.67023914 0 3846
0.05950000 0.05951020 34094.90498951 0 -847.20603102 0 14061.57105283 0 553.58620901 0 211.31461658 0 3787
0.06050000 0.06049470 33488.44673729 0 821.23850144 0 13761.58237563 0 -295.60802965 0 1738.00104297 0 3930
0.06150000 0.06148310 33157.81110259 0 1055.40871819 0 14806.98414820 0 -2491.64158320 0 -97.80476689 0 4083
0.06250000 0.06249100 31431.58552143 0 474.18642302 0 14890.57674554 0 777.45399513 0 681.69598365 0 4303
0.06350000 0.06350600 31582.07416580 0 666.65700533 0 15333.69440347 0 1803.41417269 0 -1443.35086804 0 4470
0.06450000 0.06451750 31364.25009151 0 -11.36211234 0 13497.95263368 0 671.20791375 0 2024.74232563 0 4479
0.06550000 0.06550280 31277.91135102 0 -79.96713916 0 12905.11525147 0 2490.37835735 0 2201.41819103 0 4636
0.06650000 0.06648880 31573.39635346 0 -321.81172754 0 11050.80955401 0 2753.81037700 0 971.07795757 0 4653
0.06750000 0.06749660 31386.76846530 0 -558.86429614 0 8139.62320564 0 2161.59911542 0 2283.80248539 0 5220
0.06850000 0.06852730 30277.76601749 0 204.46683403 0 9075.15728325 0 255.04639694 0 1707.17833230 0 5029
0.06950000 0.06949320 30362.01768919 0 1674.22461456 0 7098.48344723 0 -2261.62463335 0 41.13513725 0 5040
0.07050000 0.07048030 28962.69298805 0 1303.47332079 0 10367.72292347 0 -222.70671680 0 1863.97212133 0 5475
0.07150000 0.07148790 28132.36914663 0 125.75028845 0 9098.59836113 0 -123.60500143 0 1862.77480292 0 5509
0.07250000 0.07249820 27034.68080857 0 -35.83892558 0 10241.23557019 0 207.62709556 0 -589.25311618 0 5916
0.07350000 0.07351270 27257.00855762 0 1002.57621944 0 9939.33557737 0 -347.54528573 0 -445.58918676 0 5721
0.07450000 0.07449140 27078.39940745 0 -215.35144700 0 10911.81077256 0 564.69161189 0 695.44207778 0 6028
0.07550000 0.07549160 27191.43065931 0 -118.09953365 0 10503.58011715 0 1451.78701979 0 -82.70592265 0 6183
0.07650000 0.07648840 27051.70689607 0 97.89879483 0 9756.12389128 0 445.61225436 0 983.53885670 0 6330
0.07750000 0.07749960 26380.43966563 0 313.02077411 0 9113.60328728 0 366.16303780 0 1963.81090152 0 6583
0.07850000 0.07848650 26721.29095283 0 619.15861503 0 10318.22643941 0 407.70339593 0 1963.17379631 0 6549
0.07950000 0.07947320 25970.49541689 0 46.09181578 0 8863.51752332 0 1337.58041866 0 1328.10073252 0 6828
0.08050000 0.08048110 25932.15925858 0 -374.24328939 0 7488.10623669 0 852.38525700 0 2184.65573327 0 7147
0.08150000 0.08149960 25538.03279436 0 749.57624838 0 8596.59240959 0 -595.00024456 0 561.82573690 0 7386
0.08250000 0.08250610 24767.57487351 0 913.44849598 0 8267.61544536 0 -1085.22304509 0 954.50553291 0 7227
0.08350000 0.08350160 23549.16608279 0 691.05813487 0 8251.12760191 0 -393.99025552 0 -190.54608520 0 7798
0.08450000 0.08449610 23395.16237520 0 -25.60668637 0 9065.69956625 0 746.55329400 0 -2213.94060377 0 7371
0.08550000 0.08548940 22733.23203144 0 124.61777902 0 7505.33004650 0 450.53883517 0 -1334.55966120 0 8256
0.08650000 0.08650700 22791.34042040 0 693.17925583 0 7919.87683115 0 465.57451812 0 -898.57648316 0 8037
0.08750000 0.08749060 21841.50442929 0 42.13253644 0 7265.18532073 0 1087.57813745 0 723.24183407 0 8155
0.08850000 0.08849210 21933.77483897 0 323.09472562 0 6602.38719574 0 1270.10218929 0 -872.16737376 0 8718
0.08950000 0.08949900 21162.21846086 0 311.35770982 0 6586.15199747 0 36.39496464 0 374.26745545 0 8571
0.09050000 0.09049190 20295.97506710 0 968.81952944 0 6559.14093349 0 -41.10262291 0 1245.99105247 0 8932
0.09150000 0.09150830 19398.97487010 0 494.77261050 0 7231.74828179 0 -125.63275353 0 2529.51638946 0 9285
0.09250000 0.09250820 18982.76941500 0 -124.42664746 0 6825.02251282 0 1044.52410522 0 2741.02433451 0 9204
0.09350000 0.09350330 18911.15000177 0 12.67059463 0 6367.28438878 0 1301.80366576 0 3010.19030105 0 9349
0.09450000 0.09448040 18878.41597547 0 566.31293480 0 6111.48664708 0 -323.11230094 0 2820.75036231 0 9564
0.09550000 0.09549270 18493.40670650 0 345.25170698 0 6410.39883617 0 -1116.34014230 0 2658.69496302 0 10155
0.09650000 0.09649430 17582.12656515 0 148.75857418 0 7173.54103168 0 122.48677194 0 2228.03381039 0 9913
0.09750000 0.09749140 17878.05095049 0 31.64984898 0 7017.92259192 0 -95.06741140 0 1547.84710701 0 10476
0.09850000 0.09850240 17629.14053580 0 449.61503261 0 5926.22084592 0 894.05193771 0 795.07984030 0 10575
0.09950000 0.09950330 17410.54754143 0 153.55553703 0 7075.91015058 0 -618.43583016 0 716.42041450 0 10882
0.10050000 0.10051200 17368.91601135 0 190.33408295 0 6588.45875771 0 -129.07312166 0 654.78268237 0 10875
0.10150000 0.10150300 16427.64798685 0 302.46350140 0 7056.03905878 0 28.38182879 0 122.46480279 0 11118
0.10250000 0.10250800 16505.41876073 0 85.11253265 0 6374.54519126 0 20.58146411 0 249.09605397 0 11575
0.10350000 0.10349800 16550.23581686 0 -15.80097812 0 6368.55859920 0 1232.85350367 0 525.04609253 0 11364
0.10450000 0.10450100 16153.80259240 0 7.85108045 0 6154.34844929 0 314.72448131 0 504.56425849 0 12093
0.10550000 0.10551000 16136.00758482 0 232.65105036 0 5533.01708580 0 650.46574535 0 622.48474361 0 12067
0.10650000 0.10649700 16081.19456763 0 114.17913970 0 5549.80151271 0 383.11333175 0 1878.20812739 0 12054
0.10750000 0.10749900 15545.14742567 0 243.30498730 0 5691.38166871 0 -15.42937003 0 2278.32118367 0 12807
0.10850000 0.10850100 15803.28488133 0 190.04738560 0 5692.37028024 0 407.67593450 0 1606.94410750 0 12736
0.10950000 0.10950300 15324.46736251 0 79.38847188 0 5340.00716098 0 -426.12781952 0 1970.77512054 0 12933
0.11050000 0.11050200 15196.82662911 0 108.74342395 0 5730.88219171 0 517.36897475 0 2015.60316124 0 13428
0.11150000 0.11150900 15073.68957047 0 299.78216723 0 5442.38337743 0 95.71429288 0 1770.38356294 0 13453
0.11250000 0.11250000 15417.72638372 0 164.87074525 0 5469.81185517 0 217.04307118 0 2329.58618391 0 13668
0.11350000 0.11349100 14263.02811397 0 221.81696642 0 5538.99269329 0 -100.91889321 0 1650.75058295 0 13791
0.11450000 0.11448600 14087.93402702 0 212.66022672 0 5062.16338210 0 433.11620460 0 2890.79898166 0 14205
0.11550000 0.11549300 14367.27170777 0 -253.83150321 0 5056.96767927 0 1265.66442197 0 2106.28080790 0 14776
0.11650000 0.11649800 14362.32865011 0 -126.72791541 0 4194.74463907 0 699.74253795 0 2801.07699282 0 14553
0.11750000 0.11747300 14498.75704157 0 69.66591684 0 3873.87428940 0 -475.13988392 0 2284.12103799 0 14568
0.11850000 0.11849100 14626.83715787 0 235.66631553 0 4170.16116564 0 -549.16272163 0 1325.54132711 0 16015
0.11950000 0.11950300 14173.50384743 0 187.79335131 0 4644.90340803 0 -844.65431481 0 1230.52477428 0 15270
0.12050000 0.12050700 13760.37407265 0 109.65272687 0 4830.98206756 0 -10.74052833 0 998.10549840 0 15999
0.12150000 0.12150000 14093.64600477 0 77.21627265 0 5337.64547787 0 -4.44636824 0 645.39306973 0 15670
0.12250000 0.12250700 13705.34136402 0 358.36618818 0 5014.05095420 0 8.19229423 0 281.16771054 0 16887
0.12350000 0.12352200 13678.09962401 0 -15.47089172 0 5069.90750577 0 286.96756486 0 336.04004441 0 16407
0.12450000 0.12449800 13647.34282079 0 -76.64144997 0 5164.44073741 0 -104.65804172 0 742.87236373 0 16306
0.12550000 0.12549900 13451.37804594 0 251.63678561 0 5047.23534797 0 181.88145434 0 226.45794834 0 17523
0.12650000 0.12650100 13091.96283107 0 319.15016561 0 5098.98366940 0 72.07098901 0 975.74859783 0 17154
0.12750000 0.12750600 13030.00984172 0 39.42549837 0 4497.85293488 0 640.06555203 0 869.55194703 0 18007
0.12850000 0.12850300 12915.11121251 0 -16.67930454 0 4845.55859537 0 650.27351533 0 1897.84854317 0 17496
0.12950000 0.12949900 13001.88933591 0 -39.83302601 0 3932.79553673 0 340.96552675 0 828.56081752 0 18405
0.13050000 0.13049000 12723.54026670 0 229.88733190 0 4048.91345348 0 72.54189764 0 1634.26273951 0 18100
0.13150000 0.13148800 12472.87232039 0 200.20372141 0 3940.68245984 0 47.13886524 0 1716.10878981 0 19059
0.13250000 0.13249300 12319.63753288 0 142.77967133 0 3846.03938248 0 122.81191529 0 1640.58985331 0 18957
0.13350000 0.13349100 12266.36235586 0 188.92695920 0 3817.78706180 0 1.36879857 0 846.47116312 0 19468
0.13450000 0.13450700 12064.46591182 0 -25.27286521 0 3999.49386144 0 -23.69130645 0 1409.24377018 0 19953
0.13550000 0.13551000 11722.40632163 0 -35.40042144 0 3562.95596248 0 43.27756828 0 546.43964609 0 19956
0.13650000 0.13649900 11902.88284914 0 261.03408745 0 3808.39525224 0 -101.95913224 0 257.46080599 0 19723
0.13750000 0.13749600 11736.46657454 0 149.79002555 0 3426.80218534 0 37.94928166 0 424.69982508 0 20946
0.13850000 0.13851100 11555.11128122 0 41.24190729 0 3818.73173504 0 -200.86828805 0 -485.90586351 0 20955
0.13950000 0.13949800 11516.44558573 0 351.06364433 0 3700.08736659 0 -560.00449477 0 -728.88021518 0 20506
0.14050000 0.14048300 11306.20086652 0 46.80614253 0 3794.29106105 0 333.00610546 0 -934.23679959 0 21447
0.14150000 0.14148400 11103.09611950 0 -102.86898438 0 3914.94560628 0 -31.82560214 0 -971.55798339 0 21771
0.14250000 0.14249400 10841.16898629 0 306.67608498 0 3791.41310303 0 142.85436642 0 -501.01843846 0 22470
0.14350000 0.14350900 10903.25379052 0 130.44289786 0 3484.15263879 0 425.68514124 0 -873.41631966 0 22519
0.14450000 0.14449900 10649.62000962 0 33.00369755 0 3460.65663803 0 55.61741743 0 -602.52577523 0 22218
0.14550000 0.14550500 10419.40533746 0 297.82251948 0 3560.60526395 0 92.21427852 0 -229.12060873 0 23559
0.14650000 0.14650700 10338.77857471 0 -61.83556428 0 3541.50309223 0 253.21636715 0 46.90335600 0 23044
0.14750000 0.14750500 10158.42287750 0 78.90141593 0 3011.17891258 0 362.96542872 0 266.16168593 0 23649
0.14850000 0.14849900 10404.03792042 0 -58.86204048 0 2820.55264000 0 471.81595226 0 471.17335476 0 23640
0.14950000 0.14949500 10297.81710356 0 -91.09659826 0 2598.63132014 0 194.54446962 0 392.48536907 0 24457
0.15050000 0.15050000 10134.81703102 0 193.28673606 0 2650.24782670 0 189.86284478 0 704.24731116 0 24591
0.15150000 0.15149900 10006.56116156 0 297.66653855 0 2615.42673162 0 -362.42388929 0 550.20296066 0 25020
0.15250000 0.15250500 9696.21403242 0 155.16038308 0 2663.90165042 0 -30.56369444 0 637.15683721 0 25297
0.15350000 0.15350100 9683.85638827 0 127.53747841 0 2918.23844397 0 119.43635613 0 366.39151691 0 25452
0.15450000 0.15450400 9503.40182990 0 103.48477952 0 2569.02789703 0 71.18035986 0 775.18238552 0 26061
0.15550000 0.15549900 9455.88256892 0 32.49181647 0 2773.72540709 0 185.60412599 0 525.76338512 0 26128
0.15650000 0.15649500 9192.21987325 0 -15.10884020 0 2589.44821746 0 -109.82815050 0 380.33203797 0 26331
0.15750000 0.15749700 9156.09161403 0 166.49865890 0 2682.34474778 0 14.74777730 0 621.84104766 0 27345
0.15850000 0.15849900 9042.76377870 0 233.75390145 0 2720.61499866 0 -211.52881574 0 373.87640466 0 26980
0.15950000 0.15949700 8981.25017225 0 113.75623365 0 3003.85220267 0 -23.73260844 0 136.63709834 0 27777
0.16050000 0.16050000 8779.50751222 0 126.35773532 0 3307.10329792 0 -444.75655616 0 -209.88332677 0 28224
0.16150000 0.16150500 8530.64103582 0 109.50113977 0 3311.48614238 0 34.47859611 0 45.63408864 0 28075
0.16250000 0.16249700 8625.08639087 0 65.58262168 0 3131.20733717 0 163.64926077 0 2.59144741 0 28590
0.16350000 0.16349900 8478.20068631 0 -32.56497372 0 3168.74162169 0 509.59958657 0 182.53393796 0 29163
0.16450000 0.16449100 8630.50178515 0 -123.29853185 0 2469.74933004 0 586.31144764 0 477.31922312 0 28996
0.16550000 0.16550500 8731.23031572 0 -9.62469348 0 2402.51276127 0 353.60986825 0 457.59312768 0 30777
0.16650000 0.16650700 8590.35317237 0 119.98668322 0 2231.61478105 0 -308.86091647 0 758.06402761 0 29211
0.16750000 0.16749900 8502.57545287 0 215.86552500 0 2249.21206633 0 -156.50050094 0 682.36933795 0 30922
0.16850000 0.16850800 8395.78343824 0 108.50055506 0 2438.64102049 0 -84.38502441 0 641.76047158 0 30867
0.16950000 0.16949900 8167.76568059 0 -52.04259813 0 2456.40307436 0 227.38284935 0 473.00777838 0 30852
0.17050000 0.17049200 8285.53128324 0 -6.24236783 0 2323.98405189 0 371.92883995 0 749.73113085 0 31257
0.17150000 0.17149500 8055.15184249 0 187.77907136 0 2242.75313765 0 71.45837940 0 797.74250069 0 32608
0.17250000 0.17250900 8082.88788826 0 103.73445886 0 2324.04995933 0 -213.86193896 0 711.28512682 0 32361
0.17350000 0.17350400 7946.62426538 0 74.35687856 0 2357.05859993 0 288.95467404 0 1015.29855141 0 32508
0.17450000 0.17449800 7948.44770443 0 -60.62934836 0 2112.14656966 0 179.99979706 0 783.55922057 0 32791
0.17550000 0.17549800 7989.10160756 0 -18.58875280 0 1998.47821259 0 -106.33791241 0 598.53178464 0 33633
0.17650000 0.17650100 7906.84912807 0 161.44246014 0 2111.15795813 0 -109.00057280 0 385.71887236 0 33984
0.17750000 0.17750300 7806.82361014 0 113.69142467 0 2257.76904837 0 -139.64028048 0 740.07898692 0 34069
0.17850000 0.17849800 7693.19919136 0 -18.73924144 0 1868.40988865 0 325.08732709 0 347.87262599 0 34536
