### header ###
fiducial parameters:
Omega_m = 0.31
Omega_nu = 0
Omega_de = 0.69
Omega_k = 0
H_0 = 100
w_de = -1
zeff = 0
beta = 0
fgrowth = 0
b_1 = 2
gamma = 0.55
Lx = 3500 Ly = 3500 Lz = 3500
nx = 700 ny = 700 nz = 700
xoffset = -983.599254 yoffset = -42.9823471 zoffset = 800.977702
bins = 400 dk = 0.001
kx_ny = 0.628318531 ky_ny = 0.628318531 kz_ny = 0.628318531
############################
A(data) = 9.03027958 (not used)
A(ran) = 9.03639132 (used)
Ngal = 501685
weighted Ngal = 0
Nran = 25229228
weighted Nran = 0
SN(data) = 6759.42998
SN(ran) = 134.139004
SN(data+ran) = 6893.56899
############################
13 columns: k_central k_mean P_0(k) sigma^{lin}_{P_0(k)} P^img_1(k) sigma^{lin}_{P_1(k)} P_2(k) sigma^{lin}_{P_2(k)} P^img_3(k) sigma^{lin}_{P_3(k)} P_4(k) sigma^{lin}_{P_4(k)} N_modes
### header ###
0.00050000 0 0 0 0 0 0 0 0 0 0 0 0
0.00150000 0.00179520 27876.31875976 0 -53297.80523903 0 -64958.47826276 0 13365.14915117 0 -20463.59964469 0 3
0.00250000 0.00253879 61351.25447277 0 -57522.80139099 0 -79606.84518288 0 11527.32031259 0 -49043.37043255 0 6
0.00350000 0.00331552 115461.03931701 0 -29910.77144755 0 -24811.73285529 0 -139452.44429193 0 22172.68929262 0 7
0.00450000 0.00420575 121543.19715530 0 29079.56884032 0 -23387.36332866 0 -109590.33450092 0 20257.63890879 0 24
0.00550000 0.00557378 71847.34311142 0 9167.62541524 0 18527.34903577 0 -29041.89175636 0 -13277.82179915 0 45
0.00650000 0.00659388 69116.24883052 0 -2378.30276330 0 36904.09958146 0 7565.22892079 0 -3891.68028155 0 40
0.00750000 0.00754703 75767.73706570 0 -7966.00105142 0 15238.56800492 0 30947.16587060 0 -42178.01256921 0 57
0.00850000 0.00846663 88522.25382708 0 -2239.10625955 0 -1874.86881733 0 12930.16007695 0 20588.27454349 0 75
0.00950000 0.00948925 90345.47318413 0 -15475.83477268 0 3679.33750898 0 1190.93637470 0 -14349.03731728 0 112
0.01050000 0.01054430 93208.71187318 0 12969.48484679 0 10561.61161410 0 -23835.75358143 0 -6791.12412183 0 105
0.01150000 0.01145670 94230.93619760 0 12472.43293749 0 12126.85828408 0 -22112.05445197 0 -10368.79941158 0 144
0.01250000 0.01249090 76223.37713638 0 2616.29451285 0 38058.90769693 0 323.75270152 0 4392.62072955 0 169
0.01350000 0.01339930 77722.88113946 0 4043.17950660 0 34415.43481743 0 5565.57535893 0 -6918.09479630 0 180
0.01450000 0.01448870 73044.55167706 0 5009.72303260 0 31084.14349069 0 14631.78021553 0 5852.10793472 0 267
0.01550000 0.01550050 71992.55916095 0 -1371.63259366 0 23579.04412021 0 5275.69248851 0 6990.02177757 0 238
0.01650000 0.01653350 73653.75607242 0 -60.33012861 0 33090.03628976 0 -2691.89034136 0 5841.15631586 0 315
0.01750000 0.01747870 67323.56658525 0 2773.65949965 0 31509.13660386 0 -2774.54925003 0 -11185.04103095 0 297
0.01850000 0.01844180 73495.90776443 0 -2973.49084405 0 33320.16308534 0 -2811.62218249 0 -6618.52353286 0 388
0.01950000 0.01947590 76800.61642553 0 4077.15478959 0 40743.20769864 0 -5753.96077870 0 -25101.72557143 0 399
0.02050000 0.02045430 69803.00430831 0 3775.90288655 0 32860.12918564 0 -3584.18914128 0 -11067.17656715 0 462
0.02150000 0.02154770 75411.39753116 0 -2436.13653795 0 46017.23053212 0 8661.30252667 0 -17622.65963797 0 571
0.02250000 0.02255340 74783.07997951 0 -2348.40275674 0 34050.63716200 0 8963.96045501 0 -4367.12553659 0 510
0.02350000 0.02348930 75962.05415467 0 1572.81504049 0 36847.41918694 0 6138.77232537 0 -11483.16233081 0 555
0.02450000 0.02439640 73024.01052633 0 3878.31205672 0 39015.33443159 0 -3149.44172766 0 6452.66747146 0 592
0.02550000 0.02547300 67795.57366907 0 6801.71324980 0 45714.93509468 0 2326.11505897 0 -2637.74738310 0 837
0.02650000 0.02652900 64034.23632576 0 1092.67937296 0 43728.92437197 0 1401.65343052 0 9847.89999520 0 723
0.02750000 0.02749970 63539.16163952 0 -2118.17710001 0 38881.98172045 0 14564.00540270 0 3037.90437767 0 826
0.02850000 0.02848090 66642.19354803 0 -2426.87654326 0 37459.47957117 0 2396.40533892 0 -1123.49109905 0 831
0.02950000 0.02946900 64421.55235498 0 3012.70576817 0 30163.74615409 0 2492.84988618 0 2624.09355938 0 996
0.03050000 0.03053250 62281.75761614 0 3304.25829362 0 34105.56002491 0 -5774.99623520 0 -3957.69756277 0 1041
0.03150000 0.03150510 58279.74828757 0 2305.22240192 0 34687.63252599 0 -3267.15240744 0 -4105.01166566 0 1036
0.03250000 0.03246190 57144.60255702 0 1890.12638864 0 32973.38012895 0 8300.04190362 0 -1241.08094853 0 1059
0.03350000 0.03345080 55562.71425958 0 -1793.95645569 0 31115.99875117 0 5792.19807586 0 -4184.64981687 0 1302
0.03450000 0.03451200 54832.35002865 0 2876.56297559 0 26728.98015363 0 10594.94979188 0 4867.46183310 0 1339
0.03550000 0.03553350 54405.92892104 0 924.79995328 0 25673.91195720 0 2036.27612684 0 7093.91386504 0 1365
0.03650000 0.03647120 49664.43816630 0 -226.26791523 0 21421.01499088 0 -1086.59062437 0 9240.85956064 0 1308
0.03750000 0.03744890 50001.88423600 0 3034.61999047 0 23866.51038466 0 1766.57191625 0 2598.03815322 0 1579
0.03850000 0.03847530 47030.55735275 0 1902.53895566 0 25363.81747322 0 -2296.74231189 0 6382.17946920 0 1662
0.03950000 0.03950240 45577.07870878 0 1209.21470347 0 28532.42728004 0 3228.00339076 0 5256.88690025 0 1683
0.04050000 0.04050350 45392.97727232 0 -1717.35004651 0 24343.79006332 0 -195.42543234 0 5300.21005451 0 1822
0.04150000 0.04152450 45774.58132380 0 -520.29306797 0 19924.69651385 0 6315.90954282 0 420.86401234 0 1887
0.04250000 0.04250150 47232.01441389 0 -588.95982809 0 16922.17344446 0 4600.45982736 0 8009.56586628 0 1920
0.04350000 0.04349210 48785.67235979 0 -662.71903606 0 15702.55635076 0 4451.35523915 0 5433.84836454 0 2005
0.04450000 0.04448520 47491.25032681 0 807.88016273 0 10560.73284829 0 1050.95008018 0 5778.73098988 0 2151
0.04550000 0.04548030 45523.91337749 0 1608.60277796 0 12558.99136943 0 -433.75440826 0 5354.52876593 0 2274
0.04650000 0.04648670 43503.96032551 0 3572.75420123 0 14429.55423430 0 -2753.17327179 0 4448.83977202 0 2311
0.04750000 0.04749250 38462.59073930 0 2725.76676320 0 17902.65639307 0 -1396.26000539 0 6051.71958767 0 2568
0.04850000 0.04851840 37788.46751998 0 -45.54324623 0 17318.82636037 0 1602.49535560 0 5391.93123557 0 2493
0.04950000 0.04949480 39272.37343000 0 -466.36321043 0 17144.06181061 0 2312.72486499 0 2452.42665908 0 2644
0.05050000 0.05050630 35479.73005484 0 10.59570773 0 13305.83245923 0 2950.34634962 0 6860.67843542 0 2829
0.05150000 0.05149060 36706.04773782 0 320.18710926 0 12314.36493804 0 1008.78030604 0 4960.79774632 0 2784
0.05250000 0.05249300 37572.95020594 0 8.52212799 0 11862.67931350 0 2043.96532765 0 987.26702064 0 3055
0.05350000 0.05348950 35504.66503460 0 1009.44706959 0 12960.69718873 0 -918.67934944 0 1829.24988740 0 3009
0.05450000 0.05448610 34437.40396259 0 410.58245240 0 9562.10338578 0 -1869.85985223 0 2207.76727398 0 3336
0.05550000 0.05550870 34946.53890174 0 112.71819154 0 12624.78895919 0 -507.30161398 0 -3540.94287903 0 3349
0.05650000 0.05647670 34510.67106171 0 1299.02456890 0 11254.13399249 0 -759.72159961 0 -4591.18884811 0 3324
0.05750000 0.05747970 32274.21208415 0 1340.56822240 0 11784.90853962 0 -188.62048962 0 -1402.74090321 0 3639
0.05850000 0.05849280 31458.82726143 0 161.23814709 0 14614.86397375 0 -139.78198147 0 -1420.03062045 0 3846
0.05950000 0.05951020 30844.02073406 0 519.04961436 0 11596.08373695 0 3768.16974745 0 -2252.94682101 0 3787
0.06050000 0.06049470 32287.94279987 0 383.79217833 0 13131.17775519 0 584.03214883 0 949.27028562 0 3930
0.06150000 0.06148310 30159.68186224 0 -384.74124541 0 10037.18614992 0 902.89342018 0 1514.08053089 0 4083
0.06250000 0.06249100 31172.02007134 0 210.46880449 0 12573.05162233 0 317.92538576 0 2918.64487315 0 4303
0.06350000 0.06350600 30294.79210499 0 702.12509174 0 10785.90560164 0 -247.73506543 0 1225.20824115 0 4470
0.06450000 0.06451750 29891.43859980 0 -34.04283812 0 12894.89959896 0 1285.64535949 0 5086.54913323 0 4479
0.06550000 0.06550280 29925.27108335 0 459.99874907 0 10925.18998197 0 1433.27801499 0 2318.25010500 0 4636
0.06650000 0.06648880 30524.14998049 0 -468.84901920 0 9576.18560783 0 2022.57836483 0 4632.77643990 0 4653
0.06750000 0.06749660 30081.91108836 0 118.44554769 0 10055.89287703 0 1603.02261509 0 3772.09123986 0 5220
0.06850000 0.06852730 29311.01378460 0 132.19383873 0 7386.52090946 0 351.74468783 0 4428.50732818 0 5029
0.06950000 0.06949320 29404.27280582 0 474.10733410 0 8433.13098501 0 -1230.95317261 0 2454.35994386 0 5040
0.07050000 0.07048030 28675.55626077 0 514.16916876 0 8703.48328538 0 -740.57548961 0 2302.12475245 0 5475
0.07150000 0.07148790 28273.96028720 0 -226.95664793 0 7394.00140339 0 935.72630763 0 2723.58083325 0 5509
0.07250000 0.07249820 28602.50885311 0 -305.36672393 0 7043.16513971 0 1414.94476335 0 758.21671317 0 5916
0.07350000 0.07351270 28919.74330926 0 692.18295510 0 7934.93668016 0 -692.42461569 0 -885.95520926 0 5721
0.07450000 0.07449140 27056.97949091 0 1591.92819678 0 8775.77275754 0 -2716.72645996 0 759.17456790 0 6028
0.07550000 0.07549160 26375.38676224 0 390.02921865 0 9376.95841492 0 508.73949453 0 2352.59886346 0 6183
0.07650000 0.07648840 25881.41053326 0 -228.09025582 0 9397.74122624 0 1951.57408766 0 687.53648090 0 6330
0.07750000 0.07749960 26818.39457445 0 -31.92764882 0 9921.01331030 0 254.95412653 0 623.00321544 0 6583
0.07850000 0.07848650 25624.15184340 0 543.35078428 0 9515.97916551 0 -795.79493597 0 1250.19814377 0 6549
0.07950000 0.07947320 25400.28625419 0 1121.90932060 0 10897.76150423 0 185.56128616 0 2461.85142236 0 6828
0.08050000 0.08048110 24596.32538697 0 184.61771137 0 10717.38383787 0 -46.55371706 0 2456.16141376 0 7147
0.08150000 0.08149960 23928.13383684 0 513.82425318 0 11293.78829951 0 -198.30778418 0 70.87037523 0 7386
0.08250000 0.08250610 23000.81621953 0 671.58578305 0 11012.36354997 0 297.99717419 0 3069.59486957 0 7227
0.08350000 0.08350160 22786.94659137 0 -291.90732715 0 11113.75115490 0 1207.83064733 0 2495.80473621 0 7798
0.08450000 0.08449610 22669.41166475 0 178.85630306 0 9914.80702679 0 1372.75302006 0 1850.09860616 0 7371
0.08550000 0.08548940 22864.93705669 0 332.41843083 0 10099.87510564 0 -435.09123075 0 2549.14582066 0 8256
0.08650000 0.08650700 21831.72815969 0 782.64750105 0 10195.69353227 0 -814.32590992 0 889.29232241 0 8037
0.08750000 0.08749060 20913.63758335 0 -31.51836364 0 9509.54220598 0 1141.61564381 0 2745.07764180 0 8155
0.08850000 0.08849210 21610.49886791 0 501.73682951 0 9290.61967443 0 1441.90090446 0 2123.71332459 0 8718
0.08950000 0.08949900 21199.12662473 0 -311.47744166 0 8900.52454835 0 -65.98235027 0 2830.99896853 0 8571
0.09050000 0.09049190 21174.74087360 0 -49.27360707 0 8718.91660986 0 1074.19343576 0 295.78378281 0 8932
0.09150000 0.09150830 20644.73524655 0 757.56313110 0 8149.73999699 0 -1112.74818706 0 1053.58747605 0 9285
0.09250000 0.09250820 19720.16377238 0 541.80745183 0 7823.39933017 0 -41.55452823 0 1298.00300365 0 9204
0.09350000 0.09350330 18972.77345395 0 126.31269857 0 8687.84125403 0 517.75892708 0 274.68022197 0 9349
0.09450000 0.09448040 19193.01413420 0 142.53251844 0 7886.67046824 0 995.16492832 0 -78.27441653 0 9564
0.09550000 0.09549270 19021.98433911 0 218.15141455 0 7090.53061668 0 776.96188628 0 47.71797190 0 10155
0.09650000 0.09649430 18407.72704036 0 264.43051729 0 6120.21938228 0 712.92841888 0 1559.86422941 0 9913
0.09750000 0.09749140 18513.17893714 0 -39.65353810 0 5868.22230270 0 400.14491154 0 -59.64589958 0 10476
0.09850000 0.09850240 17857.72949122 0 464.04766253 0 6300.94855496 0 -227.99029621 0 1065.41126998 0 10575
0.09950000 0.09950330 17063.32520213 0 559.27731606 0 6016.61289370 0 -542.32372674 0 488.96946080 0 10882
0.10050000 0.10051200 16957.21423100 0 56.33185403 0 6114.81497257 0 616.76727358 0 1188.01447839 0 10875
0.10150000 0.10150300 16487.51390742 0 51.44404877 0 6241.76367790 0 549.92614943 0 964.06650489 0 11118
0.10250000 0.10250800 16684.68698525 0 435.15164590 0 5916.07110086 0 447.85750100 0 1349.52064905 0 11575
0.10350000 0.10349800 16252.66374563 0 137.44007060 0 5626.25413787 0 327.75767668 0 1116.50491089 0 11364
0.10450000 0.10450100 16247.61084224 0 -192.33547207 0 5261.12694527 0 669.37678550 0 2094.52731524 0 12093
0.10550000 0.10551000 16388.32321701 0 -47.08921497 0 5069.09464740 0 236.30781457 0 1034.92029341 0 12067
0.10650000 0.10649700 15960.25442351 0 411.81492145 0 4872.00944615 0 -382.92220019 0 1309.94323404 0 12054
0.10750000 0.10749900 15546.46557438 0 297.56548049 0 5042.42410518 0 174.85132789 0 1157.38949003 0 12807
0.10850000 0.10850100 15530.97732704 0 262.35882690 0 5506.23669785 0 -728.69018207 0 -281.06335710 0 12736
0.10950000 0.10950300 15332.70579194 0 195.40566011 0 5694.47931818 0 -96.68269280 0 385.48160560 0 12933
0.11050000 0.11050200 14904.96653562 0 -225.91311354 0 5180.53313624 0 243.16768015 0 605.40263479 0 13428
0.11150000 0.11150900 15153.43756741 0 -220.83274872 0 4819.51417378 0 573.77914879 0 -788.06619070 0 13453
0.11250000 0.11250000 15273.16940855 0 362.59305171 0 4456.73767971 0 515.26213373 0 627.09387027 0 13668
0.11350000 0.11349100 15354.67493710 0 115.38634422 0 4708.84460503 0 -274.45613669 0 -689.24897576 0 13791
0.11450000 0.11448600 14738.87979819 0 138.31554103 0 4439.33811674 0 252.44305324 0 355.96605907 0 14205
0.11550000 0.11549300 14489.09061769 0 196.56672943 0 4263.81563146 0 123.42046061 0 -107.96077316 0 14776
0.11650000 0.11649800 14843.56277489 0 166.48877279 0 4620.91310151 0 -31.94335676 0 549.87671885 0 14553
0.11750000 0.11747300 14038.61329613 0 231.39771063 0 4566.34174493 0 -14.72130448 0 -34.77583864 0 14568
0.11850000 0.11849100 13812.77048386 0 112.28100555 0 4327.87765876 0 162.08066381 0 275.19320151 0 16015
0.11950000 0.11950300 13812.33110096 0 88.26115054 0 4364.85173007 0 396.26296359 0 339.39692979 0 15270
0.12050000 0.12050700 13678.09962401 0 229.54351478 0 4346.46355557 0 171.83166889 0 1069.96767069 0 15999
0.12150000 0.12150000 13348.34275512 0 123.70825641 0 4428.95769565 0 322.22364902 0 1049.42212613 0 15670
0.12250000 0.12250700 13470.60104795 0 68.69784646 0 4144.52317323 0 123.96200004 0 791.06388056 0 16887
0.12350000 0.12352200 13223.11862770 0 228.54611558 0 3946.02096211 0 190.04628714 0 851.55042948 0 16407
0.12450000 0.12449800 13005.84378204 0 84.93710903 0 4377.60481883 0 -188.81601502 0 1059.00396879 0 16306
0.12550000 0.12549900 12739.68758839 0 254.62458935 0 4055.62502733 0 -239.76356110 0 556.94529131 0 17523
0.12650000 0.12650100 12562.17689548 0 303.77945319 0 4327.06480039 0 -20.78632639 0 608.63319759 0 17154
0.12750000 0.12750600 12079.29508480 0 26.42086289 0 4192.58067827 0 110.63991041 0 912.70374195 0 18007
0.12850000 0.12850300 12423.99097240 0 -59.61162771 0 3972.81233464 0 874.96953822 0 -14.40703586 0 17496
0.12950000 0.12949900 12160.80061335 0 160.87345928 0 3585.59516657 0 -233.14096230 0 -267.45786550 0 18405
0.13050000 0.13049000 11719.44048704 0 432.50106853 0 3872.66598642 0 -676.83750720 0 -233.70227395 0 18100
0.13150000 0.13148800 11470.85960952 0 184.27828808 0 4235.03605130 0 -307.68117338 0 -407.60783015 0 19059
0.13250000 0.13249300 11372.65753064 0 -134.30617204 0 4145.32504703 0 341.37195594 0 -537.72119083 0 18957
0.13350000 0.13349100 11801.16570704 0 -222.50240375 0 3898.46874741 0 539.88844700 0 -837.35836170 0 19468
0.13450000 0.13450700 12096.87040093 0 -218.16898987 0 3285.48565908 0 435.41198027 0 -885.14674472 0 19953
0.13550000 0.13551000 11968.57059318 0 3.25220240 0 2744.19887599 0 112.51058312 0 -402.69992312 0 19956
0.13650000 0.13649900 12055.78809948 0 102.26966610 0 3476.82592887 0 -112.00419433 0 -696.54822424 0 19723
0.13750000 0.13749600 11909.58343842 0 502.51673416 0 3438.08334138 0 -406.26002309 0 -83.31732396 0 20946
0.13850000 0.13851100 11580.26595243 0 204.96992745 0 3845.42424641 0 -240.72800658 0 -692.32355763 0 20955
0.13950000 0.13949800 11079.80882562 0 53.07888271 0 4085.60192590 0 162.37065653 0 -481.69547684 0 20506
0.14050000 0.14048300 11230.73685289 0 50.08536699 0 3781.29631168 0 356.28131630 0 -139.98080223 0 21447
0.14150000 0.14148400 11092.88046700 0 31.39841211 0 3712.81848621 0 280.13625917 0 -121.84966673 0 21771
0.14250000 0.14249400 11250.39923781 0 31.47629273 0 3523.38953205 0 130.47804849 0 -461.87930790 0 22470
0.14350000 0.14350900 10864.52218760 0 77.22440124 0 2997.22850540 0 364.85038137 0 -126.55875300 0 22519
0.14450000 0.14449900 10993.14054796 0 9.83780517 0 3105.49245276 0 -104.86499107 0 -132.49481602 0 22218
0.14550000 0.14550500 10721.33828400 0 264.61176274 0 3169.70826407 0 -252.05310091 0 -336.43329211 0 23559
0.14650000 0.14650700 10474.91038271 0 390.05777853 0 3663.44283246 0 -266.33304526 0 -30.61740900 0 23044
0.14750000 0.14750500 10065.46043974 0 190.31540917 0 3726.05489617 0 31.55285520 0 242.78541702 0 23649
0.14850000 0.14849900 10012.54775362 0 40.56152287 0 4119.12684142 0 268.51787675 0 -122.79543843 0 23640
0.14950000 0.14949500 9917.35544763 0 22.22947953 0 3524.98229507 0 211.64525221 0 19.93502201 0 24457
0.15050000 0.15050000 10064.79038082 0 -93.60283834 0 3288.63823141 0 568.83499267 0 572.45331088 0 24591
0.15150000 0.15149900 9802.30303441 0 48.78248683 0 3364.62950453 0 95.77009451 0 559.43000162 0 25020
0.15250000 0.15250500 9728.38784551 0 196.80729157 0 3275.81923521 0 67.82501232 0 820.60139623 0 25297
0.15350000 0.15350100 9778.57635764 0 70.43044309 0 2775.17537067 0 329.84474547 0 869.44429821 0 25452
0.15450000 0.15450400 9623.37533164 0 83.78164184 0 2942.19579677 0 64.96759546 0 735.43580809 0 26061
0.15550000 0.15549900 9487.69389111 0 22.47443550 0 2599.25744078 0 332.34044036 0 984.45716697 0 26128
0.15650000 0.15649500 9505.20329981 0 59.19234658 0 2603.44256293 0 12.76066812 0 623.93470719 0 26331
0.15750000 0.15749700 9272.86860514 0 137.89153653 0 2469.95803692 0 -399.79999596 0 660.41886656 0 27345
0.15850000 0.15849900 9264.91577459 0 172.74009304 0 2672.30484844 0 45.83466694 0 202.68293944 0 26980
0.15950000 0.15949700 9118.24976148 0 -15.48275505 0 2790.71854087 0 -30.74186421 0 382.53993706 0 27777
0.16050000 0.16050000 9136.74778171 0 -73.34201390 0 2507.72299746 0 127.22112272 0 -100.92768087 0 28224
0.16150000 0.16150500 9022.04687482 0 166.64804909 0 2531.94398000 0 237.39968109 0 36.95276124 0 28075
0.16250000 0.16249700 8991.23514872 0 96.19937160 0 2473.34128528 0 115.28858153 0 523.75101142 0 28590
0.16350000 0.16349900 8787.51526563 0 136.83262373 0 2498.27626504 0 -154.77262767 0 189.47728628 0 29163
0.16450000 0.16449100 8686.74279677 0 132.97374338 0 2569.42334165 0 3.18521848 0 533.83265214 0 28996
0.16550000 0.16550500 8603.56761318 0 151.74198410 0 2744.27576800 0 109.10053241 0 535.68794645 0 30777
0.16650000 0.16650700 8485.78004139 0 64.44330181 0 2421.71379415 0 227.41799998 0 709.28373769 0 29211
0.16750000 0.16749900 8319.89102627 0 38.58418996 0 2658.32148755 0 145.86304085 0 425.09636815 0 30922
0.16850000 0.16850800 8370.29922985 0 108.24604251 0 2449.88922282 0 -159.90461998 0 662.29393310 0 30867
0.16950000 0.16949900 8112.08488218 0 27.92541980 0 2459.35792438 0 220.56362669 0 959.00591230 0 30852
0.17050000 0.17049200 8197.84144032 0 90.38512749 0 2400.01926330 0 -19.28978822 0 606.76362333 0 31257
0.17150000 0.17149500 8086.42492063 0 -42.16527047 0 2308.37497425 0 175.51479608 0 758.49462286 0 32608
0.17250000 0.17250900 8160.07647978 0 37.70707184 0 2112.89352059 0 266.51538917 0 460.86762877 0 32361
0.17350000 0.17350400 8072.85897349 0 124.46838883 0 2025.62109144 0 -195.14422728 0 652.00029014 0 32508
0.17450000 0.17449800 8027.77828761 0 93.32163328 0 2254.75927548 0 9.64667361 0 521.12130475 0 32791
0.17550000 0.17549800 7725.18626672 0 166.55797559 0 2355.66355921 0 -306.51680868 0 356.24726413 0 33633
0.17650000 0.17650100 7833.76876668 0 108.75144269 0 2432.85215074 0 -166.24381682 0 56.61734307 0 33984
0.17750000 0.17750300 7465.11552628 0 102.39115548 0 2492.38853413 0 95.19197645 0 167.37962162 0 34069
0.17850000 0.17849800 7641.69253053 0 46.18419604 0 2608.70417320 0 -119.53631574 0 -33.99900967 0 34536
