### header ###
fiducial parameters:
Omega_m = 0.31
Omega_nu = 0
Omega_de = 0.69
Omega_k = 0
H_0 = 100
w_de = -1
zeff = 0
beta = 0
fgrowth = 0
b_1 = 2
gamma = 0.55
Lx = 3500 Ly = 3500 Lz = 3500
nx = 700 ny = 700 nz = 700
xoffset = -983.599254 yoffset = -42.9823471 zoffset = 800.977702
bins = 400 dk = 0.001
kx_ny = 0.628318531 ky_ny = 0.628318531 kz_ny = 0.628318531
############################
A(data) = 9.11962776 (not used)
A(ran) = 9.12365643 (used)
Ngal = 506480
weighted Ngal = 0
Nran = 25229228
weighted Nran = 0
SN(data) = 6704.21104
SN(ran) = 135.434394
SN(data+ran) = 6839.64544
############################
13 columns: k_central k_mean P_0(k) sigma^{lin}_{P_0(k)} P^img_1(k) sigma^{lin}_{P_1(k)} P_2(k) sigma^{lin}_{P_2(k)} P^img_3(k) sigma^{lin}_{P_3(k)} P_4(k) sigma^{lin}_{P_4(k)} N_modes
### header ###
0.00050000 0 0 0 0 0 0 0 0 0 0 0 0
0.00150000 0.00179520 1870.42006543 0 -5895.62881129 0 -8070.89273500 0 21247.01936119 0 24278.65154791 0 3
0.00250000 0.00253879 7682.45627938 0 -10038.08688487 0 2147.69264653 0 -17958.67771324 0 -13430.61720376 0 6
0.00350000 0.00331552 16555.28872025 0 -11167.79525200 0 -19162.91640533 0 -13520.69069892 0 2800.98911623 0 7
0.00450000 0.00420575 36414.51718151 0 -10340.50315261 0 -11553.68328678 0 -4299.73518381 0 8300.43734823 0 24
0.00550000 0.00557378 42497.88332278 0 -1639.73305665 0 -2092.05578641 0 -21156.28679167 0 2167.70653777 0 45
0.00650000 0.00659388 51583.00361336 0 -1225.69156234 0 15099.39347031 0 9078.27690186 0 12232.20033513 0 40
0.00750000 0.00754703 45156.47942464 0 -4660.65528511 0 -4963.36813631 0 28116.77105356 0 18065.33791300 0 57
0.00850000 0.00846663 57218.96811339 0 -2903.25548697 0 12527.79518330 0 10279.85732739 0 10661.50531715 0 75
0.00950000 0.00948925 64569.40470193 0 -2664.98912310 0 -6879.67076141 0 -10259.87638986 0 -17799.40141081 0 112
0.01050000 0.01054430 73322.13182619 0 -3377.37160872 0 -2956.60755599 0 -10554.37278077 0 2079.65420396 0 105
0.01150000 0.01145670 66994.68848216 0 -40.20902793 0 -524.56826362 0 -17398.90389449 0 -4965.19157536 0 144
0.01250000 0.01249090 57945.04836102 0 8805.44208808 0 17766.66738452 0 -13803.43359717 0 -15385.21204888 0 169
0.01350000 0.01339930 65973.01338637 0 4955.20659888 0 18823.71280402 0 -5688.75635586 0 -4610.17018953 0 180
0.01450000 0.01448870 56744.76411506 0 -5135.33162007 0 19546.71737132 0 8840.70256607 0 -17720.64202540 0 267
0.01550000 0.01550050 59811.43708832 0 547.33159338 0 16254.97050587 0 3067.26614018 0 -19537.81986753 0 238
0.01650000 0.01653350 62208.05113411 0 6674.02857812 0 22948.09027114 0 -5731.67308094 0 -13034.18397930 0 315
0.01750000 0.01747870 52743.96308948 0 -1471.73500359 0 23089.79125744 0 -6729.03931761 0 -7492.21446684 0 297
0.01850000 0.01844180 58728.46807752 0 -1179.76506438 0 22987.63473243 0 1651.75017906 0 -21791.30493259 0 388
0.01950000 0.01947590 62865.91718601 0 -2166.14672847 0 17748.43299403 0 9361.97545792 0 -21160.35108352 0 399
0.02050000 0.02045430 63678.33617413 0 -3179.02318162 0 15594.35831083 0 -6721.11944077 0 -23981.62870531 0 462
0.02150000 0.02154770 65258.90632286 0 1143.18643769 0 15024.58853104 0 5733.90294917 0 -16348.44921854 0 571
0.02250000 0.02255340 65077.22149236 0 1223.83516958 0 10609.54828884 0 -2098.62456081 0 -11397.48266468 0 510
0.02350000 0.02348930 63594.74357678 0 667.00411783 0 13702.70506660 0 6653.19084393 0 -8534.74926596 0 555
0.02450000 0.02439640 61793.27367344 0 794.39769834 0 14529.07446189 0 2486.42391122 0 -1985.63724724 0 592
0.02550000 0.02547300 63002.78496037 0 791.15395406 0 12531.96932088 0 1231.39255551 0 913.13982949 0 837
0.02650000 0.02652900 61015.12655178 0 2346.27174966 0 18891.48761685 0 2409.45501115 0 15027.33467418 0 723
0.02750000 0.02749970 55474.17860457 0 383.21768519 0 12122.68414650 0 420.20493798 0 5731.68406551 0 826
0.02850000 0.02848090 61039.18276573 0 1005.70901954 0 20454.70214090 0 5629.51655593 0 16394.36473193 0 831
0.02950000 0.02946900 59267.48105409 0 -789.95553719 0 17999.54032324 0 4091.67639454 0 19712.36472585 0 996
0.03050000 0.03053250 59154.66949368 0 -460.94781615 0 19699.18323875 0 3940.30898437 0 17364.96156522 0 1041
0.03150000 0.03150510 55702.43802281 0 2881.92344701 0 18169.47166107 0 -219.55634138 0 22602.84515490 0 1036
0.03250000 0.03246190 56794.52422885 0 2085.49799658 0 23201.61420631 0 522.48119483 0 20751.50529204 0 1059
0.03350000 0.03345080 53594.60839018 0 2323.68746843 0 23210.40186438 0 1390.95445683 0 23727.44569578 0 1302
0.03450000 0.03451200 51865.85635733 0 1343.35830384 0 22457.51925965 0 4057.65717326 0 21988.69770188 0 1339
0.03550000 0.03553350 50416.99123385 0 66.93855732 0 19237.94103606 0 5002.80275187 0 24647.29380374 0 1365
0.03650000 0.03647120 51615.29825675 0 -132.58818489 0 22187.40861988 0 4673.46329674 0 20904.19085093 0 1308
0.03750000 0.03744890 49322.70811330 0 104.52985176 0 16078.66811594 0 -1859.53435401 0 19658.10093730 0 1579
0.03850000 0.03847530 47067.24582517 0 2508.42601010 0 18651.58455167 0 -1713.03310949 0 18739.35128659 0 1662
0.03950000 0.03950240 46038.65044865 0 598.26046570 0 16966.44127197 0 2210.61227828 0 11848.17967769 0 1683
0.04050000 0.04050350 46642.03302054 0 1010.53344382 0 22090.19515253 0 833.77409567 0 9398.88362179 0 1822
0.04150000 0.04152450 44909.87577019 0 693.05513016 0 15668.83371293 0 -117.65905229 0 8390.06047592 0 1887
0.04250000 0.04250150 43469.90815050 0 -643.54107079 0 16908.77226591 0 1205.58979452 0 9150.10502197 0 1920
0.04350000 0.04349210 45075.30343327 0 -1536.90647272 0 13273.53781584 0 3729.40519081 0 1809.40076474 0 2005
0.04450000 0.04448520 42118.14664864 0 3262.59380982 0 14916.61018256 0 -247.20451057 0 4362.17149436 0 2151
0.04550000 0.04548030 43089.07301911 0 1881.52546831 0 17484.47371490 0 -5348.49823558 0 4350.01157251 0 2274
0.04650000 0.04648670 39044.00416603 0 1097.97613386 0 15666.19741551 0 2375.53465101 0 -73.09541025 0 2311
0.04750000 0.04749250 39444.17214517 0 -749.62018667 0 17359.57912465 0 2560.40500756 0 4015.20180023 0 2568
0.04850000 0.04851840 39742.29344503 0 -603.58908186 0 16472.79458016 0 1119.31696147 0 3316.37427718 0 2493
0.04950000 0.04949480 40230.66754199 0 408.27788908 0 14660.66964142 0 2060.28840250 0 4418.80795059 0 2644
0.05050000 0.05050630 41270.13764536 0 1269.03668575 0 16779.48384663 0 -177.21301100 0 2011.73659169 0 2829
0.05150000 0.05149060 37456.62358230 0 1264.55498014 0 16576.04956242 0 -4086.72235231 0 5313.77600165 0 2784
0.05250000 0.05249300 38099.11123258 0 499.70907741 0 21010.41166779 0 -508.43632033 0 1074.26044165 0 3055
0.05350000 0.05348950 36734.49778080 0 509.52708839 0 20973.39365819 0 1682.51796686 0 3759.03058306 0 3009
0.05450000 0.05448610 36954.62861533 0 518.39383537 0 21942.67234277 0 668.93300877 0 3402.76794053 0 3336
0.05550000 0.05550870 36552.81295031 0 41.56891802 0 17597.72465822 0 2054.21393386 0 -498.25581846 0 3349
0.05650000 0.05647670 36949.57571194 0 249.84849719 0 19516.39995100 0 1378.49795152 0 3114.36798741 0 3324
0.05750000 0.05747970 34481.45209864 0 645.62923804 0 16889.87880107 0 871.47864106 0 3976.11869099 0 3639
0.05850000 0.05849280 34690.37866914 0 410.73733488 0 17057.28368721 0 2112.82761316 0 2970.38221001 0 3846
0.05950000 0.05951020 34645.45176728 0 169.82149211 0 14526.10862729 0 2030.75088683 0 2406.86265202 0 3787
0.06050000 0.06049470 34350.18645630 0 619.97476878 0 14210.52185703 0 1053.83682585 0 1959.73562509 0 3930
0.06150000 0.06148310 32446.01079932 0 1028.13951675 0 13551.22781070 0 -1112.73720249 0 3639.45252594 0 4083
0.06250000 0.06249100 31757.71748137 0 277.06716959 0 14298.39843768 0 339.24644114 0 1732.03642005 0 4303
0.06350000 0.06350600 31048.77316697 0 -41.50421889 0 12609.41055758 0 636.97339485 0 1966.96347385 0 4470
0.06450000 0.06451750 31087.10932528 0 796.43204118 0 14059.37413831 0 1546.12252911 0 2751.36081731 0 4479
0.06550000 0.06550280 29957.01649811 0 234.19877664 0 11595.97389122 0 607.73026572 0 1782.92794482 0 4636
0.06650000 0.06648880 30211.96842773 0 -0.34341399 0 12089.62058303 0 2785.06148599 0 2595.73139298 0 4653
0.06750000 0.06749660 30592.58386767 0 -28.91238365 0 11665.83577284 0 776.83336678 0 2473.48408472 0 5220
0.06850000 0.06852730 30147.37914095 0 530.43073001 0 10686.12174431 0 -845.03328257 0 1942.87430618 0 5029
0.06950000 0.06949320 29538.28459131 0 314.01597638 0 10767.07804423 0 -1445.53679799 0 988.06230369 0 5040
0.07050000 0.07048030 28962.47329660 0 748.21855521 0 11936.38579552 0 -675.72477000 0 -537.43119811 0 5475
0.07150000 0.07148790 28484.86408076 0 0.11905629 0 12411.57840539 0 1090.42973249 0 1459.06979141 0 5509
0.07250000 0.07249820 28088.65054775 0 723.67792160 0 12459.14160466 0 -635.88372525 0 -1445.29513739 0 5916
0.07350000 0.07351270 27254.70179738 0 612.46132113 0 12031.95157697 0 -339.23325966 0 -1140.28651052 0 5721
0.07450000 0.07449140 27298.31055053 0 64.49284223 0 12618.96713572 0 964.16536604 0 478.95812135 0 6028
0.07550000 0.07549160 26430.19977942 0 -26.66636809 0 11270.83054281 0 1698.72021141 0 214.76926465 0 6183
0.07650000 0.07648840 25666.77198502 0 763.63100900 0 11373.97567935 0 550.47098423 0 948.64526344 0 6330
0.07750000 0.07749960 25574.06219243 0 193.25488080 0 10562.99567024 0 2687.45257403 0 1833.19334896 0 6583
0.07850000 0.07848650 25924.47005778 0 -328.18387810 0 9072.49901668 0 1066.95130706 0 2171.21061643 0 6549
0.07950000 0.07947320 25414.67604428 0 569.93015455 0 8501.14745844 0 705.74450841 0 1291.89558129 0 6828
0.08050000 0.08048110 25546.71060670 0 -135.58477629 0 7528.93589298 0 239.92942815 0 2449.12030274 0 7147
0.08150000 0.08149960 24590.06418059 0 -53.25551463 0 7028.33596673 0 11.33695767 0 2714.82612891 0 7386
0.08250000 0.08250610 23921.98247620 0 739.52975830 0 6631.28760620 0 -4.34570562 0 1348.46613009 0 7227
0.08350000 0.08350160 23250.05617140 0 626.41392522 0 6775.65784364 0 350.60778457 0 1567.52047650 0 7798
0.08450000 0.08449610 23742.16502304 0 182.00997384 0 6575.67271522 0 909.96968184 0 -235.32030150 0 7371
0.08550000 0.08548940 22594.71657119 0 548.55307785 0 7052.05165893 0 -292.98491372 0 33.38156685 0 8256
0.08650000 0.08650700 21770.32439896 0 691.72160305 0 6211.01785924 0 -808.74245167 0 607.80496081 0 8037
0.08750000 0.08749060 20558.61619752 0 377.04874923 0 6899.16837774 0 443.15830085 0 2136.88382711 0 8155
0.08850000 0.08849210 21010.63135924 0 -76.00851890 0 5637.55726306 0 1544.96914899 0 -406.82682704 0 8718
0.08950000 0.08949900 21083.01969255 0 26.29827506 0 6043.95349485 0 445.37059377 0 687.74079395 0 8571
0.09050000 0.09049190 20486.00817275 0 494.31565228 0 5589.10431340 0 -947.17772454 0 -758.77472946 0 8932
0.09150000 0.09150830 19816.93785682 0 470.88995279 0 5976.37640433 0 -1030.96694574 0 1025.97775287 0 9285
0.09250000 0.09250820 19726.86436166 0 -24.84853117 0 6351.24691281 0 651.85309687 0 -524.97798818 0 9204
0.09350000 0.09350330 19594.71995350 0 -122.07375201 0 5925.91327789 0 563.85239054 0 -1125.25961523 0 9349
0.09450000 0.09448040 19689.51681488 0 508.92513381 0 5708.41874078 0 128.08011630 0 -1156.59860081 0 9564
0.09550000 0.09549270 19137.21250549 0 323.56376687 0 5654.74811915 0 -385.03782886 0 477.12809156 0 10155
0.09650000 0.09649430 18598.96844900 0 247.49779866 0 5811.73963048 0 612.98418679 0 -436.38850877 0 9913
0.09750000 0.09749140 18089.39412696 0 46.78746876 0 5424.85199959 0 760.55752559 0 37.35732305 0 10476
0.09850000 0.09850240 18048.31182550 0 150.67208673 0 4849.86454782 0 905.87683010 0 652.37047023 0 10575
0.09950000 0.09950330 17704.38485798 0 427.17464929 0 4547.63501782 0 -52.65037453 0 46.82833137 0 10882
0.10050000 0.10051200 17188.87886674 0 483.83966540 0 5098.95071568 0 -451.96792806 0 704.31651397 0 10875
0.10150000 0.10150300 16768.27958260 0 381.17345623 0 4394.55401433 0 -66.52542754 0 239.07043457 0 11118
0.10250000 0.10250800 16371.51682096 0 156.80697051 0 5850.86667802 0 -552.73820001 0 -658.67451644 0 11575
0.10350000 0.10349800 16233.11120643 0 410.56377863 0 5725.59861230 0 -494.86048708 0 -838.20197688 0 11364
0.10450000 0.10450100 15399.05261033 0 228.25063058 0 6225.66029449 0 -138.20899068 0 -570.77926201 0 12093
0.10550000 0.10551000 15363.35274944 0 -44.82232873 0 6202.14232460 0 470.12322962 0 75.49246368 0 12067
0.10650000 0.10649700 15626.10372559 0 -55.83985503 0 5711.20882222 0 738.30717537 0 -581.25415043 0 12054
0.10750000 0.10749900 15748.58170987 0 -228.75921629 0 5074.33428852 0 1111.73760639 0 149.30340898 0 12807
0.10850000 0.10850100 16020.44988126 0 315.57578569 0 5016.43460645 0 -562.48590972 0 167.11489342 0 12736
0.10950000 0.10950300 15484.84212219 0 329.06264390 0 5385.53821433 0 -417.47966553 0 838.44144056 0 12933
0.11050000 0.11050200 15052.92872830 0 192.38050882 0 6144.63808713 0 25.74454276 0 633.30125223 0 13428
0.11150000 0.11150900 14859.71009659 0 314.70361063 0 5898.82532191 0 180.15358108 0 1003.54176337 0 13453
0.11250000 0.11250000 14703.17993731 0 -52.20505996 0 5979.66079153 0 810.92398779 0 1641.71027972 0 13668
0.11350000 0.11349100 14908.59144458 0 -250.06159790 0 5423.70960405 0 669.76124554 0 1270.08022015 0 13791
0.11450000 0.11448600 14866.08114869 0 203.95165758 0 5193.76954620 0 5.47690789 0 968.46253083 0 14205
0.11550000 0.11549300 14541.92641181 0 260.11248181 0 5109.97922655 0 183.32592564 0 2243.07169026 0 14776
0.11650000 0.11649800 14635.62481593 0 177.08888533 0 5868.84842333 0 -340.41190430 0 1479.45715812 0 14553
0.11750000 0.11747300 14236.66513978 0 165.75280642 0 5342.01733776 0 341.82452033 0 2013.77972219 0 14568
0.11850000 0.11849100 14531.38122213 0 -275.85007895 0 4995.99231687 0 968.31973139 0 1033.30995507 0 16015
0.11950000 0.11950300 14255.00937599 0 112.99500277 0 4863.18883437 0 157.39354669 0 2440.96974988 0 15270
0.12050000 0.12050700 14141.20920404 0 380.18923853 0 4546.83314402 0 -407.15746267 0 1177.93064076 0 15999
0.12150000 0.12150000 13780.36599475 0 417.44561335 0 5276.73602291 0 -712.87129910 0 1458.87206910 0 15670
0.12250000 0.12250700 13378.77002117 0 152.01879532 0 5532.05044342 0 213.05127750 0 1288.56725580 0 16887
0.12350000 0.12352200 13312.97243141 0 -226.60953544 0 5045.07138717 0 835.86006600 0 1496.99952053 0 16407
0.12450000 0.12449800 13404.25422956 0 119.14746188 0 5138.49517697 0 196.19435242 0 1461.12390648 0 16306
0.12550000 0.12549900 13563.86006917 0 234.52172307 0 4256.55482899 0 -32.76577171 0 1372.76400464 0 17523
0.12650000 0.12650100 12983.43525397 0 38.53366092 0 4864.01267731 0 -200.82434976 0 1547.73726128 0 17154
0.12750000 0.12750600 13032.75598486 0 185.66563960 0 5056.26466663 0 126.91025932 0 1504.50198360 0 18007
0.12850000 0.12850300 12835.47306130 0 -5.61532449 0 4718.42315232 0 26.37450800 0 1580.97657791 0 17496
0.12950000 0.12949900 12665.87126064 0 239.60977709 0 4967.22372128 0 125.01102672 0 836.61031231 0 18405
0.13050000 0.13049000 12648.40579024 0 175.31048303 0 4945.04586924 0 130.22869870 0 1641.54551113 0 18100
0.13150000 0.13148800 12500.22390612 0 65.21474834 0 4889.63968514 0 61.86214694 0 972.35326644 0 19059
0.13250000 0.13249300 12632.69785145 0 -88.99283292 0 4539.81400214 0 443.12095330 0 1365.60206331 0 18957
0.13350000 0.13349100 12481.98951563 0 -146.65173316 0 4450.42155048 0 -98.57884972 0 260.73860245 0 19468
0.13450000 0.13450700 12383.23820813 0 179.62742005 0 3845.88559846 0 307.84264659 0 738.04574254 0 19953
0.13550000 0.13551000 12237.69262142 0 152.62074990 0 4152.79455638 0 226.88744512 0 684.98586314 0 19956
0.13650000 0.13649900 12128.50596996 0 275.99068148 0 3835.77979169 0 -307.74598235 0 447.45107181 0 19723
0.13750000 0.13749600 11854.33103833 0 62.00231009 0 3724.83560862 0 839.11699178 0 1210.71958992 0 20946
0.13850000 0.13851100 11774.47319567 0 78.90471130 0 3628.02857046 0 390.94203663 0 509.78302893 0 20955
0.13950000 0.13949800 11546.54331460 0 276.61460520 0 3256.44244917 0 -151.33116108 0 1099.01747134 0 20506
0.14050000 0.14048300 11203.49511289 0 186.68610639 0 3656.55550545 0 -286.59518785 0 972.27857135 0 21447
0.14150000 0.14148400 10898.32171743 0 207.12729751 0 3578.58700927 0 199.71490793 0 947.25022272 0 21771
0.14250000 0.14249400 10840.34514335 0 136.99190003 0 3831.91322214 0 -166.48328050 0 748.81721441 0 22470
0.14350000 0.14350900 10698.45741932 0 131.44359242 0 3518.91881101 0 -128.46237942 0 332.16798257 0 22519
0.14450000 0.14449900 10533.68883060 0 45.43625649 0 3734.80960052 0 -144.28236086 0 114.66355935 0 22218
0.14550000 0.14550500 10296.02661823 0 162.95613424 0 3784.98712807 0 -238.74309431 0 185.59643679 0 23559
0.14650000 0.14650700 10187.80660916 0 110.80248209 0 3629.65428720 0 389.11530221 0 -37.84240177 0 23044
0.14750000 0.14750500 10180.33709980 0 37.41949573 0 3455.76850324 0 567.39930903 0 -105.82723963 0 23649
0.14850000 0.14849900 10390.35114298 0 -45.93924007 0 3155.51619630 0 339.89013710 0 -139.41729366 0 23640
0.14950000 0.14949500 10055.80500045 0 7.89036128 0 2803.02126216 0 -15.23604155 0 446.70961317 0 24457
0.15050000 0.15050000 10032.26506140 0 81.42589040 0 2926.67459571 0 149.83176692 0 331.11236515 0 24591
0.15150000 0.15149900 9988.60138539 0 156.21490205 0 2665.88985806 0 24.84875086 0 106.44720890 0 25020
0.15250000 0.15250500 9929.30666260 0 -20.77951595 0 2814.53309423 0 113.81115652 0 222.29040150 0 25297
0.15350000 0.15350100 9692.73192291 0 92.03544968 0 2876.96940478 0 320.45952666 0 554.44190721 0 25452
0.15450000 0.15450400 9656.21920365 0 304.65272671 0 2777.36130061 0 -126.11497626 0 768.34778446 0 26061
0.15550000 0.15549900 9773.51246968 0 20.41164262 0 2843.79599558 0 67.67529260 0 643.90685706 0 26128
0.15650000 0.15649500 9501.65528286 0 -54.41889072 0 2898.92756537 0 206.21447953 0 513.74186889 0 26331
0.15750000 0.15749700 9505.52185241 0 209.51424513 0 2548.75037605 0 -154.72209864 0 609.45044979 0 27345
0.15850000 0.15849900 9272.49512967 0 21.77845298 0 2958.14539616 0 -181.32893034 0 492.59546821 0 26980
0.15950000 0.15949700 9071.53237429 0 258.36044248 0 2829.35128264 0 51.74227992 0 597.23890045 0 27777
0.16050000 0.16050000 8908.35654860 0 125.16810611 0 2901.27826390 0 27.98352819 0 146.76377580 0 28224
0.16150000 0.16150500 8865.68148412 0 78.21564907 0 2793.78323662 0 165.11240584 0 241.79900240 0 28075
0.16250000 0.16249700 8640.97008282 0 37.58349540 0 2675.79794252 0 321.07026889 0 801.45968005 0 28590
0.16350000 0.16349900 8589.30963797 0 -17.71503989 0 2200.60533266 0 427.16476317 0 622.07282214 0 29163
0.16450000 0.16449100 8602.51309422 0 42.39056405 0 2104.58918372 0 372.64832945 0 768.03362569 0 28996
0.16550000 0.16550500 8620.46188581 0 85.75897475 0 1972.98301963 0 14.64375340 0 854.49319647 0 30777
0.16650000 0.16650700 8450.23396452 0 166.10431275 0 2064.17694120 0 -224.25663999 0 1083.21067139 0 29211
0.16750000 0.16749900 8271.31724632 0 168.04199135 0 2377.84141126 0 -319.43027221 0 791.66913051 0 30922
0.16850000 0.16850800 8119.92786700 0 -19.56747821 0 2381.14776760 0 21.76604042 0 913.02119610 0 30867
0.16950000 0.16949900 8195.42483435 0 -11.23743744 0 2516.48868638 0 67.15110880 0 519.15286934 0 30852
0.17050000 0.17049200 8089.92899928 0 291.87437343 0 2482.60127996 0 -226.00538395 0 697.91690199 0 31257
0.17150000 0.17149500 8052.85606682 0 23.29685045 0 2724.26187675 0 -28.53220759 0 445.59358059 0 32608
0.17250000 0.17250900 7934.02496063 0 89.28590131 0 2725.71184033 0 154.02457828 0 283.26246853 0 32361
0.17350000 0.17350400 7794.45498141 0 10.67590609 0 2618.66718053 0 -1.14937075 0 542.59175031 0 32508
0.17450000 0.17449800 7802.81424115 0 18.85622714 0 2459.28103237 0 290.15309091 0 593.48986583 0 32791
0.17550000 0.17549800 7802.24304337 0 30.92508688 0 2032.26675785 0 226.12950962 0 228.57467547 0 33633
0.17650000 0.17650100 7870.94056030 0 -44.57221001 0 1624.13496359 0 404.24545248 0 590.85356841 0 33984
0.17750000 0.17750300 7746.45239923 0 -10.41893300 0 1813.64080976 0 243.74437021 0 561.06780140 0 34069
0.17850000 0.17849800 7733.43568073 0 114.91840143 0 1352.14596190 0 -129.49163388 0 638.89020276 0 34536
