### header ###
fiducial parameters:
Omega_m = 0.31
Omega_nu = 0
Omega_de = 0.69
Omega_k = 0
H_0 = 100
w_de = -1
zeff = 0
beta = 0
fgrowth = 0
b_1 = 2
gamma = 0.55
Lx = 3500 Ly = 3500 Lz = 3500
nx = 700 ny = 700 nz = 700
xoffset = -983.599254 yoffset = -42.9823471 zoffset = 800.977702
bins = 400 dk = 0.001
kx_ny = 0.628318531 ky_ny = 0.628318531 kz_ny = 0.628318531
############################
A(data) = 9.11800633 (not used)
A(ran) = 9.11605896 (used)
Ngal = 506539
weighted Ngal = 0
Nran = 25229228
weighted Nran = 0
SN(data) = 6703.0942
SN(ran) = 135.321615
SN(data+ran) = 6838.41581
############################
13 columns: k_central k_mean P_0(k) sigma^{lin}_{P_0(k)} P^img_1(k) sigma^{lin}_{P_1(k)} P_2(k) sigma^{lin}_{P_2(k)} P^img_3(k) sigma^{lin}_{P_3(k)} P_4(k) sigma^{lin}_{P_4(k)} N_modes
### header ###
0.00050000 0 0 0 0 0 0 0 0 0 0 0 0
0.00150000 0.00179520 -1183.30209675 0 -6027.15808337 0 -795.26767649 0 12833.05645533 0 34839.54916479 0 3
0.00250000 0.00253879 10337.19679626 0 -10818.21122960 0 33038.84818154 0 -12896.65713058 0 -5209.68619187 0 6
0.00350000 0.00331552 30508.66173315 0 -4929.33793045 0 41155.56855334 0 -6336.72530786 0 4095.31228807 0 7
0.00450000 0.00420575 52605.11809205 0 -2631.74980647 0 38873.63344529 0 30395.85017274 0 37979.81877435 0 24
0.00550000 0.00557378 72235.31821499 0 -17308.50086215 0 10092.07605911 0 31803.85268621 0 6089.96786940 0 45
0.00650000 0.00659388 106265.08468909 0 -12557.67322072 0 28980.59784136 0 57736.78086488 0 49791.52967107 0 40
0.00750000 0.00754703 116287.07917513 0 -108.20188453 0 -2545.97127919 0 -27153.97326681 0 -22791.56011185 0 57
0.00850000 0.00846663 98245.13840173 0 12453.53947265 0 18636.20615006 0 -11606.73877235 0 65152.24612309 0 75
0.00950000 0.00948925 87920.07955817 0 14954.61680369 0 54159.76464949 0 -28184.87540357 0 -38508.50625269 0 112
0.01050000 0.01054430 72137.22598184 0 8647.94528641 0 59652.16078589 0 -13567.81451530 0 9572.74743661 0 105
0.01150000 0.01145670 79794.90106547 0 3931.20277370 0 60034.09437454 0 33095.96795896 0 -25035.70829022 0 144
0.01250000 0.01249090 79464.48512223 0 -8893.32965331 0 65548.78919328 0 18253.39379560 0 4914.69549520 0 169
0.01350000 0.01339930 79834.22583532 0 2382.05948713 0 33482.29537664 0 28101.72218912 0 -5343.90668424 0 180
0.01450000 0.01448870 91166.78967604 0 -1032.10055363 0 39000.61510433 0 17866.84668646 0 9016.71935711 0 267
0.01550000 0.01550050 90469.48900857 0 -5989.26130797 0 41320.99621642 0 1131.29014558 0 35409.31894459 0 238
0.01650000 0.01653350 88017.73240842 0 1704.59695775 0 30596.09893090 0 4805.80542720 0 16829.13411470 0 315
0.01750000 0.01747870 94210.39504687 0 4444.13837496 0 42816.65561909 0 273.65755826 0 42170.76275131 0 297
0.01850000 0.01844180 90138.19429952 0 3050.10823781 0 52787.79153408 0 12285.25582070 0 22778.70816193 0 388
0.01950000 0.01947590 83533.61018926 0 3561.19843087 0 57223.69147960 0 -14615.85258528 0 32649.77462070 0 399
0.02050000 0.02045430 77819.10599527 0 10879.10969999 0 68179.15494361 0 7799.05751733 0 27943.32465250 0 462
0.02150000 0.02154770 69650.53844088 0 7043.79126035 0 69903.95253033 0 8091.73046918 0 45024.44486222 0 571
0.02250000 0.02255340 64810.62591581 0 -1343.86359417 0 64673.86798717 0 19608.23097778 0 35907.24961970 0 510
0.02350000 0.02348930 64625.42602209 0 2510.18354172 0 62928.19971255 0 23729.31307312 0 45337.94456369 0 555
0.02450000 0.02439640 61987.48091668 0 -555.06473248 0 45749.53649831 0 13108.32984422 0 52929.60236611 0 592
0.02550000 0.02547300 64544.46972217 0 -1929.24245161 0 37420.92372141 0 16785.30567010 0 45602.23337999 0 837
0.02650000 0.02652900 64951.77767348 0 -3999.12038597 0 22929.52634347 0 9654.39576461 0 43144.54511065 0 723
0.02750000 0.02749970 67068.17527273 0 1530.53542062 0 24708.47787302 0 540.58926273 0 26852.33690372 0 826
0.02850000 0.02848090 64974.62558445 0 2242.72018393 0 18242.84860592 0 -4921.16540845 0 28729.82004933 0 831
0.02950000 0.02946900 64178.46376376 0 2838.62226190 0 30333.23810902 0 -7606.11349993 0 8868.14202838 0 996
0.03050000 0.03053250 55760.87594895 0 3009.92667130 0 24229.77019993 0 -4315.28933858 0 6639.41618991 0 1041
0.03150000 0.03150510 55658.93911539 0 3138.42420136 0 29372.63723679 0 3889.42844417 0 -4339.30161424 0 1036
0.03250000 0.03246190 56377.98923657 0 340.90181623 0 28528.58267964 0 -503.49765650 0 -1083.48418725 0 1059
0.03350000 0.03345080 52550.30507487 0 -311.19513814 0 24939.81297158 0 7131.63488728 0 -4844.59195299 0 1302
0.03450000 0.03451200 51119.12511325 0 -106.73983792 0 21764.50257550 0 -688.55804615 0 -1570.15677392 0 1339
0.03550000 0.03553350 50547.48795612 0 713.39086938 0 21943.55110857 0 -1160.78372296 0 -9839.50778175 0 1365
0.03650000 0.03647120 49344.12802983 0 4146.96174834 0 22152.03829617 0 2204.38402562 0 -3490.27104571 0 1308
0.03750000 0.03744890 49374.44545015 0 1065.51672188 0 24782.84342940 0 -1419.95372845 0 -4413.82095464 0 1579
0.03850000 0.03847530 47615.15630553 0 -86.03545644 0 24450.34041736 0 883.82090681 0 -4941.06945397 0 1662
0.03950000 0.03950240 45594.43433346 0 1691.96469928 0 20763.25878471 0 2219.48781292 0 -9719.36951142 0 1683
0.04050000 0.04050350 45105.40116214 0 1319.11535215 0 26012.89586706 0 462.18467902 0 -4007.69933716 0 1822
0.04150000 0.04152450 42654.63317352 0 -108.04469529 0 20183.38319814 0 900.18023075 0 -4721.91624640 0 1887
0.04250000 0.04250150 42410.66581649 0 1186.89405199 0 22155.55335939 0 1154.22593313 0 -5422.91871482 0 1920
0.04350000 0.04349210 41628.23471152 0 200.45856349 0 20515.11729009 0 4085.30534245 0 -1159.01520678 0 2005
0.04450000 0.04448520 41557.71375554 0 39.07333297 0 17889.91428888 0 1213.59754793 0 -3879.76202030 0 2151
0.04550000 0.04548030 39717.57815672 0 2234.16320189 0 18684.97765232 0 134.18204637 0 -2091.47360406 0 2274
0.04650000 0.04648670 37929.39958620 0 1243.00324873 0 19301.87124848 0 -796.36613375 0 -1013.53552751 0 2311
0.04750000 0.04749250 35473.35900274 0 1700.91712593 0 20720.85833454 0 1102.26890482 0 -2397.32804302 0 2568
0.04850000 0.04851840 36188.23498633 0 1135.50822145 0 20998.43848367 0 1244.53010432 0 -65.95664637 0 2493
0.04950000 0.04949480 34550.21552300 0 -1344.64349883 0 20255.55184000 0 1875.36312309 0 -3543.89772906 0 2644
0.05050000 0.05050630 35319.79467805 0 -315.18473491 0 18967.39101338 0 -70.92705562 0 -1464.52912398 0 2829
0.05150000 0.05149060 33284.24353300 0 1629.11097497 0 18943.22495370 0 248.20190976 0 -653.18991935 0 2784
0.05250000 0.05249300 34880.19208335 0 -379.57300401 0 17107.26349246 0 4124.26762139 0 228.91739414 0 3055
0.05350000 0.05348950 33886.63749336 0 -473.11982102 0 16677.10763017 0 1836.67545846 0 -598.34504691 0 3009
0.05450000 0.05448610 35348.24472104 0 743.70279742 0 13913.60886016 0 1349.60852563 0 -1962.05336991 0 3336
0.05550000 0.05550870 34264.61663589 0 -0.50316812 0 12505.49650096 0 3300.67732296 0 3228.12422106 0 3349
0.05650000 0.05647670 34436.08581388 0 -2022.50147282 0 9504.53324088 0 2590.63455130 0 238.85403850 0 3324
0.05750000 0.05747970 34131.37377048 0 244.43420137 0 9020.20146662 0 24.80887687 0 1280.64737897 0 3639
0.05850000 0.05849280 33111.01682339 0 1812.21281532 0 7639.42970857 0 -1941.73191063 0 1610.78870790 0 3846
0.05950000 0.05951020 33628.50003770 0 902.30464709 0 8760.24057191 0 1838.92729584 0 1160.99242984 0 3787
0.06050000 0.06049470 32331.55155302 0 -118.20828092 0 8848.65539662 0 -892.78871186 0 -365.83350062 0 3930
0.06150000 0.06148310 32030.13488139 0 864.88130676 0 10454.10560224 0 692.42132032 0 938.49002609 0 4083
0.06250000 0.06249100 30956.39291156 0 -442.57831542 0 9421.36904186 0 -108.54844779 0 1944.09359374 0 4303
0.06350000 0.06350600 31009.99762576 0 90.77507982 0 8643.87000998 0 1472.91035286 0 259.88949499 0 4470
0.06450000 0.06451750 30879.72059495 0 1328.49617713 0 9592.61852841 0 274.56488396 0 2314.83390293 0 4479
0.06550000 0.06550280 30002.49262860 0 203.00808279 0 9971.19083785 0 -16.35009690 0 3587.00119187 0 4636
0.06650000 0.06648880 29487.75555744 0 672.34921085 0 9880.42531461 0 -316.64128923 0 3633.24624243 0 4653
0.06750000 0.06749660 29012.56294757 0 1105.61919946 0 11258.08843862 0 -1356.28714576 0 724.14037211 0 5220
0.06850000 0.06852730 27101.02762696 0 -44.95557159 0 11886.95521890 0 -100.01760903 0 3246.63322586 0 5029
0.06950000 0.06949320 27969.57778097 0 -598.66909180 0 10599.14589861 0 2008.52909650 0 727.44123617 0 5040
0.07050000 0.07048030 28052.18176678 0 163.84478617 0 9880.20562316 0 2296.50065129 0 1827.83287754 0 5475
0.07150000 0.07148790 29033.32378975 0 -38.35186625 0 9123.61023290 0 991.71028025 0 1552.14207489 0 5509
0.07250000 0.07249820 27957.38490541 0 5.13050939 0 8678.84488908 0 49.68322179 0 3018.20903903 0 5916
0.07350000 0.07351270 28116.55136211 0 294.45684644 0 8828.13621504 0 392.68309138 0 1919.77375004 0 5721
0.07450000 0.07449140 27497.79038860 0 807.99769765 0 9028.30808119 0 -1521.97843858 0 878.33191589 0 6028
0.07550000 0.07549160 27237.89540133 0 331.41114552 0 9675.33235995 0 442.63982902 0 2349.16069225 0 6183
0.07650000 0.07648840 26272.79085433 0 428.83331975 0 10856.08603586 0 -367.85466198 0 2835.35984384 0 6330
0.07750000 0.07749960 25961.04868447 0 105.03063842 0 9315.08231757 0 55.69167314 0 1024.53767541 0 6583
0.07850000 0.07848650 26060.01968343 0 589.57496416 0 10732.75125492 0 793.22893982 0 79.97460867 0 6549
0.07950000 0.07947320 24910.70385424 0 803.91363357 0 10652.02563102 0 -896.11593890 0 1745.51449061 0 6828
0.08050000 0.08048110 25077.99889466 0 -25.02538279 0 10644.54513709 0 502.65184441 0 -745.51415344 0 7147
0.08150000 0.08149960 24236.69048065 0 568.76359295 0 10401.89592877 0 733.72880552 0 1023.48755027 0 7386
0.08250000 0.08250610 24355.87309316 0 -27.25162612 0 9410.21970069 0 668.36620483 0 474.67523650 0 7227
0.08350000 0.08350160 23950.43251918 0 -513.57929721 0 8592.28645714 0 1029.13032520 0 -220.04954869 0 7798
0.08450000 0.08449610 23700.97287586 0 656.67093040 0 8119.37863837 0 558.14480663 0 -232.65544419 0 7371
0.08550000 0.08548940 22854.72140419 0 1191.14508158 0 8308.69774681 0 -867.24079296 0 1217.26639517 0 8256
0.08650000 0.08650700 21960.57719607 0 272.19441319 0 9041.19298482 0 -234.11529388 0 -756.88208760 0 8037
0.08750000 0.08749060 21209.89150586 0 637.86863751 0 9349.12350800 0 -34.55592750 0 -154.12893172 0 8155
0.08850000 0.08849210 20722.50602043 0 75.91405157 0 7967.93433619 0 895.43599386 0 -222.36399814 0 8718
0.08950000 0.08949900 20645.06478373 0 -310.31856925 0 7993.09999198 0 549.79982684 0 -572.35884355 0 8571
0.09050000 0.09049190 20117.80529983 0 731.32318412 0 7632.36662840 0 339.77040526 0 -875.38365661 0 8932
0.09150000 0.09150830 19958.85853457 0 506.51402013 0 8523.51204821 0 -941.91611428 0 -2.83489849 0 9285
0.09250000 0.09250820 19124.14086412 0 252.87255002 0 7789.64373862 0 1330.51733849 0 -49.21154424 0 9204
0.09350000 0.09350330 19146.21985501 0 100.87682230 0 8579.47844551 0 227.56848862 0 -569.44793182 0 9349
0.09450000 0.09448040 18559.64367916 0 225.06400608 0 6983.44201859 0 -431.24992571 0 -689.20284056 0 9564
0.09550000 0.09549270 18590.73001957 0 237.93572823 0 7882.15580890 0 959.43211372 0 429.89003563 0 10155
0.09650000 0.09649430 18518.34168626 0 -288.64930292 0 6231.29538023 0 727.92675428 0 161.44795243 0 9913
0.09750000 0.09749140 18605.55919255 0 -119.70108433 0 6497.06711383 0 818.79333559 0 -1107.72823739 0 10476
0.09850000 0.09850240 18162.11199744 0 482.99605023 0 5751.53318816 0 -494.55072213 0 -782.72988534 0 10575
0.09950000 0.09950330 17767.10676742 0 690.54405687 0 6157.81957423 0 -790.13458572 0 -425.12602650 0 10882
0.10050000 0.10051200 16931.73002261 0 227.85518597 0 6430.76423373 0 85.57696038 0 -916.52197938 0 10875
0.10150000 0.10150300 16520.35777944 0 254.44773773 0 6539.22590340 0 588.52264211 0 -759.48323439 0 11118
0.10250000 0.10250800 16231.79305773 0 227.34440334 0 6098.61272802 0 427.87766193 0 -872.28161331 0 11575
0.10350000 0.10349800 16634.15795138 0 45.97933376 0 6410.44277446 0 461.01372358 0 -353.51210556 0 11364
0.10450000 0.10450100 16237.61488119 0 321.73593399 0 6470.29771045 0 -432.12649461 0 -388.98568425 0 12093
0.10550000 0.10551000 15335.12239791 0 189.79364197 0 5948.15703737 0 -196.71941499 0 156.33024006 0 12067
0.10650000 0.10649700 15581.17682373 0 163.68221449 0 6844.88262005 0 540.63649639 0 -376.01619940 0 12054
0.10750000 0.10749900 15927.19086004 0 -1.48831072 0 6211.95154791 0 -106.51179819 0 -351.36572007 0 12807
0.10850000 0.10850100 15778.02036439 0 -308.19085754 0 5732.49692388 0 877.58935878 0 -437.41556630 0 12736
0.10950000 0.10950300 15541.19297954 0 -68.62183322 0 5537.47682227 0 82.03454557 0 -509.24698179 0 12933
0.11050000 0.11050200 15579.19960067 0 441.09539812 0 5008.39389932 0 219.14222300 0 -366.90559490 0 13428
0.11150000 0.11150900 15260.53715008 0 175.10836689 0 5060.25206647 0 232.79384980 0 -21.68014106 0 13453
0.11250000 0.11250000 15235.49232460 0 99.27911622 0 4691.65374894 0 545.90030358 0 -339.35628687 0 13668
0.11350000 0.11349100 15120.48384967 0 78.08097821 0 4869.38413330 0 127.84065262 0 -556.55204361 0 13791
0.11450000 0.11448600 14599.81510931 0 175.11825301 0 4330.57986361 0 112.36998059 0 86.20099395 0 14205
0.11550000 0.11549300 14710.10021803 0 163.78766639 0 4194.85448480 0 407.49359059 0 -119.55938335 0 14776
0.11650000 0.11649800 14589.92899399 0 -95.43638319 0 4195.81014261 0 632.66963931 0 521.34648848 0 14553
0.11750000 0.11747300 14710.53960093 0 -72.72962398 0 3689.92663695 0 114.62731026 0 137.07977661 0 14568
0.11850000 0.11849100 14207.33633098 0 383.32203863 0 4188.05503437 0 -704.99865593 0 232.02712664 0 16015
0.11950000 0.11950300 13917.89284347 0 462.67019713 0 4412.26114533 0 -396.86162279 0 49.07753245 0 15270
0.12050000 0.12050700 13475.76379707 0 256.71055968 0 4955.51416691 0 1.13872670 0 212.37902166 0 15999
0.12150000 0.12150000 13238.16749213 0 181.50468351 0 5377.00320143 0 125.35923767 0 703.51464017 0 15670
0.12250000 0.12250700 13453.24542327 0 -22.47608319 0 5326.40826012 0 429.16285692 0 415.79902592 0 16887
0.12350000 0.12352200 13408.86775005 0 -105.45574138 0 4814.04385664 0 599.58959898 0 437.78245103 0 16407
0.12450000 0.12449800 13513.99010965 0 -176.72639443 0 4150.94914819 0 129.20273962 0 846.19435189 0 16306
0.12550000 0.12549900 13226.74353665 0 336.82214598 0 4425.77216960 0 -392.38211409 0 793.58593843 0 17523
0.12650000 0.12650100 13072.95952051 0 366.54969475 0 4740.23851346 0 -387.48079781 0 899.52994406 0 17154
0.12750000 0.12750600 13055.93343301 0 -7.09780240 0 4957.87585002 0 326.12427074 0 147.28993683 0 18007
0.12850000 0.12850300 12782.19788428 0 -79.15691709 0 4772.42331113 0 84.28176943 0 -273.20609233 0 17496
0.12950000 0.12949900 12889.40731267 0 34.85569649 0 4519.88798748 0 208.17961956 0 517.75343479 0 18405
0.13050000 0.13049000 12532.07916660 0 327.42484413 0 4349.49529760 0 80.21528066 0 -58.16748596 0 18100
0.13150000 0.13148800 12692.23423484 0 184.92637786 0 4410.86610461 0 138.94715395 0 262.43132508 0 19059
0.13250000 0.13249300 12695.09022371 0 -130.16388972 0 4524.31477023 0 340.47671327 0 166.22404459 0 18957
0.13350000 0.13349100 12295.80101038 0 189.61459344 0 4562.65092854 0 -352.54875854 0 201.25933884 0 19468
0.13450000 0.13450700 11725.15246478 0 357.83014104 0 4473.23650773 0 -381.16796394 0 -22.10853939 0 19953
0.13550000 0.13551000 11748.11022147 0 360.38185725 0 4959.51255133 0 -156.92999773 0 -176.14311363 0 19956
0.13650000 0.13649900 11368.59323879 0 228.16824629 0 5074.12558165 0 -100.58034869 0 -316.43368081 0 19723
0.13750000 0.13749600 11290.60277346 0 35.40624326 0 5022.93747342 0 292.34121777 0 -311.47524474 0 20946
0.13850000 0.13851100 11224.80518370 0 1.32986925 0 4744.83006480 0 656.36995311 0 -119.64506301 0 20955
0.13950000 0.13949800 11102.98627377 0 51.01861627 0 4324.47244126 0 407.03663237 0 -196.14821721 0 20506
0.14050000 0.14048300 10876.68210945 0 139.95443926 0 4093.81838620 0 37.31382414 0 -216.12585937 0 21447
0.14150000 0.14148400 10738.18861834 0 237.37112120 0 3962.70652786 0 196.39866547 0 209.48568524 0 21771
0.14250000 0.14249400 10449.72275779 0 102.74958208 0 3900.81944594 0 215.59310760 0 567.80903359 0 22470
0.14350000 0.14350900 10599.85989583 0 -222.83633476 0 3506.86873488 0 535.95597002 0 264.80069739 0 22519
0.14450000 0.14449900 10444.09865662 0 101.98450660 0 3173.38809589 0 396.69136192 0 391.78565180 0 22218
0.14550000 0.14550500 10372.73188856 0 129.59928269 0 3019.65900261 0 -320.84288824 0 -25.68171100 0 23559
0.14650000 0.14650700 10358.12240703 0 130.90644682 0 3413.95023542 0 -197.38617854 0 497.19361029 0 23044
0.14750000 0.14750500 10104.04924322 0 -37.01976713 0 3184.30676103 0 17.64034480 0 -460.21624361 0 23649
0.14850000 0.14849900 10324.22401604 0 44.34417028 0 3343.11072684 0 139.51176098 0 -73.66869509 0 23640
0.14950000 0.14949500 10197.24235700 0 166.83368837 0 3249.54413759 0 -219.02139270 0 -1091.28652915 0 24457
0.15050000 0.15050000 10140.15553330 0 210.82031081 0 3378.70074201 0 -166.91607266 0 -439.49274898 0 24591
0.15150000 0.15149900 9860.24665478 0 27.82611926 0 3249.78579819 0 164.28526753 0 -1014.33849976 0 25020
0.15250000 0.15250500 9649.15612348 0 90.17609107 0 3267.50391376 0 130.18256349 0 -416.37242061 0 25297
0.15350000 0.15350100 9575.15305800 0 127.21123661 0 3152.38559311 0 194.74768421 0 -231.59433448 0 25452
0.15450000 0.15450400 9406.16639341 0 148.21264093 0 3111.70972084 0 416.80411431 0 -536.01638517 0 26061
0.15550000 0.15549900 9398.37833145 0 21.21274749 0 2820.84922346 0 330.07322458 0 259.70056034 0 26128
0.15650000 0.15649500 9191.56079889 0 18.14080193 0 2412.26706173 0 296.69769925 0 31.54132140 0 26331
0.15750000 0.15749700 9220.13167217 0 66.16755017 0 2485.55612999 0 -18.57359409 0 394.03639072 0 27345
0.15850000 0.15849900 9204.96197744 0 161.84998779 0 2543.79633381 0 -167.30163116 0 -162.42557939 0 26980
0.15950000 0.15949700 9059.81183535 0 16.05263468 0 2576.44248353 0 70.23678508 0 364.89651658 0 27777
0.16050000 0.16050000 9054.78090111 0 -165.86484906 0 2122.77963592 0 151.45418829 0 203.58257594 0 28224
0.16150000 0.16150500 9203.01770809 0 57.78840836 0 2186.83067864 0 351.96877311 0 347.44422766 0 28075
0.16250000 0.16249700 9122.24814590 0 40.21539899 0 1848.50584313 0 490.86320111 0 614.30892624 0 28590
0.16350000 0.16349900 9178.53309581 0 55.89906187 0 2087.98050998 0 47.48081498 0 291.02526597 0 29163
0.16450000 0.16449100 8791.68940321 0 262.84873884 0 1800.61310668 0 -211.21465697 0 987.32304196 0 28996
0.16550000 0.16550500 8707.82219155 0 173.40795506 0 2254.72632176 0 -135.27940517 0 1020.54478327 0 30777
0.16650000 0.16650700 8519.56858665 0 106.86945587 0 2330.28919655 0 -82.19909447 0 850.97264096 0 29211
0.16750000 0.16749900 8573.97517465 0 -32.86056857 0 1995.62222372 0 333.41692848 0 443.16269468 0 30922
0.16850000 0.16850800 8503.15763522 0 66.51345436 0 2102.95248241 0 -78.25354584 0 431.90131087 0 30867
0.16950000 0.16949900 8332.85282192 0 130.20343418 0 1816.60664436 0 -215.81279905 0 134.56870332 0 30852
0.17050000 0.17049200 8274.56867980 0 116.20139951 0 2319.65613029 0 -14.31103070 0 477.74103071 0 31257
0.17150000 0.17149500 8078.99934956 0 24.52031214 0 2111.11401984 0 50.16687252 0 387.95313443 0 32608
0.17250000 0.17250900 8290.83683179 0 31.68324208 0 2125.82236252 0 289.78620618 0 413.94483007 0 32361
0.17350000 0.17350400 8076.82440419 0 -58.48746656 0 1944.54396121 0 294.94126610 0 407.09265369 0 32508
0.17450000 0.17449800 8291.89135076 0 128.54036989 0 2204.86734682 0 -37.93280480 0 892.83704398 0 32791
0.17550000 0.17549800 8179.16766693 0 -24.88961347 0 1875.16540079 0 98.00995870 0 1084.54419850 0 33633
0.17650000 0.17650100 8157.04473775 0 128.35473061 0 2294.99576485 0 -189.48497549 0 853.74295017 0 33984
0.17750000 0.17750300 8011.09272186 0 143.10151930 0 2268.31423805 0 -236.99105499 0 995.24841107 0 34069
0.17850000 0.17849800 7878.72862226 0 196.03617457 0 2554.00100174 0 59.37908431 0 1052.21220757 0 34536
