### header ###
fiducial parameters:
Omega_m = 0.31
Omega_nu = 0
Omega_de = 0.69
Omega_k = 0
H_0 = 100
w_de = -1
zeff = 0
beta = 0
fgrowth = 0
b_1 = 2
gamma = 0.55
Lx = 3500 Ly = 3500 Lz = 3500
nx = 700 ny = 700 nz = 700
xoffset = -983.599254 yoffset = -42.9823471 zoffset = 800.977702
bins = 400 dk = 0.001
kx_ny = 0.628318531 ky_ny = 0.628318531 kz_ny = 0.628318531
############################
A(data) = 9.09990964 (not used)
A(ran) = 9.0970749 (used)
Ngal = 505378
weighted Ngal = 0
Nran = 25229228
weighted Nran = 0
SN(data) = 6732.44549
SN(ran) = 135.03981
SN(data+ran) = 6867.4853
############################
13 columns: k_central k_mean P_0(k) sigma^{lin}_{P_0(k)} P^img_1(k) sigma^{lin}_{P_1(k)} P_2(k) sigma^{lin}_{P_2(k)} P^img_3(k) sigma^{lin}_{P_3(k)} P_4(k) sigma^{lin}_{P_4(k)} N_modes
### header ###
0.00050000 0 0 0 0 0 0 0 0 0 0 0 0
0.00150000 0.00179520 67598.51043696 0 -71702.34675335 0 219.68046705 0 -116482.60456708 0 22246.83515754 0 3
0.00250000 0.00253879 83310.95290304 0 -36624.76190071 0 -17739.53549024 0 -95870.05411819 0 51883.32182773 0 6
0.00350000 0.00331552 53069.10643789 0 17525.22647918 0 1018.78285783 0 -52329.18562881 0 -6823.21005834 0 7
0.00450000 0.00420575 34369.84884122 0 12174.53132908 0 -21946.07756027 0 1035.86386819 0 8826.87298919 0 24
0.00550000 0.00557378 60031.45807712 0 -5159.95903180 0 -8925.33869781 0 -4406.50522930 0 -39318.94801774 0 45
0.00650000 0.00659388 67182.08529040 0 2574.26753816 0 -22537.70663950 0 -25138.63373531 0 -5146.25028521 0 40
0.00750000 0.00754703 54488.75259830 0 -3143.00476813 0 5673.15826280 0 -28739.59631892 0 -23169.42940865 0 57
0.00850000 0.00846663 62650.29002624 0 -5507.17038652 0 -3595.73392707 0 -12639.83782363 0 -28649.74251521 0 75
0.00950000 0.00948925 57764.46198778 0 -4286.52074299 0 -10761.70658824 0 -3175.51910297 0 -35460.61689854 0 112
0.01050000 0.01054430 66389.43853293 0 5032.91146532 0 1600.58403997 0 -18038.31586445 0 -35975.24412398 0 105
0.01150000 0.01145670 62978.50905497 0 6407.15838725 0 8993.66273927 0 -12013.27780359 0 -24842.70934997 0 144
0.01250000 0.01249090 57962.73352288 0 3319.54881865 0 15968.71254440 0 -5567.09122995 0 -24214.72133549 0 169
0.01350000 0.01339930 55087.85118689 0 -3716.28961115 0 11450.53815024 0 4759.04410172 0 -21243.50429796 0 180
0.01450000 0.01448870 57429.76206123 0 -429.23315819 0 11118.36467538 0 -2688.64989245 0 -21324.35075216 0 267
0.01550000 0.01550050 66063.30657299 0 -1264.33528869 0 8778.12345607 0 8032.19408579 0 1977.47570981 0 238
0.01650000 0.01653350 71752.87578722 0 -7386.90536950 0 12885.89224945 0 6385.69453243 0 -5172.90984287 0 315
0.01750000 0.01747870 75413.15506278 0 -2610.92305686 0 17002.58051576 0 1851.08721769 0 -9837.47563582 0 297
0.01850000 0.01844180 73274.45878119 0 4045.80481944 0 8009.88441888 0 -669.03516530 0 10096.63465673 0 388
0.01950000 0.01947590 83378.83756159 0 -679.15525202 0 21452.43086846 0 -4608.99484026 0 14570.04691762 0 399
0.02050000 0.02045430 75183.57749583 0 2393.03307514 0 23035.30777743 0 634.06028620 0 465.43062022 0 462
0.02150000 0.02154770 71806.15096424 0 5803.66596963 0 30842.15335672 0 -2008.33137419 0 12777.03513517 0 571
0.02250000 0.02255340 64954.85335381 0 -2037.35261495 0 33603.23552076 0 6806.17298627 0 20657.58719647 0 510
0.02350000 0.02348930 72244.98463887 0 313.79298956 0 27208.34690108 0 12663.01527177 0 -2036.23218855 0 555
0.02450000 0.02439640 65615.90493175 0 3224.37848181 0 38055.61232516 0 -7283.04623575 0 18633.89938981 0 592
0.02550000 0.02547300 64994.28796937 0 4033.63391302 0 30143.09515764 0 -1061.70946902 0 7382.20397244 0 837
0.02650000 0.02652900 64505.47448950 0 -938.25715315 0 38693.37660923 0 1697.88538390 0 15663.45127237 0 723
0.02750000 0.02749970 62071.62274265 0 1620.33430147 0 32688.11077901 0 5874.37366334 0 -5560.20390294 0 826
0.02850000 0.02848090 59639.85806460 0 507.22801735 0 34430.92306477 0 3070.61643482 0 11534.67997622 0 831
0.02950000 0.02946900 57140.97764807 0 1861.29188562 0 26831.68590727 0 11739.43240913 0 11946.71129374 0 996
0.03050000 0.03053250 61605.21779085 0 -2104.71001402 0 28875.69517321 0 6402.01760729 0 14546.64977802 0 1041
0.03150000 0.03150510 59362.60745264 0 2736.08127685 0 27142.98869422 0 -1407.83774489 0 10050.79603535 0 1036
0.03250000 0.03246190 51654.73287231 0 4966.88319953 0 26711.51468323 0 -4988.18228577 0 10707.02538593 0 1059
0.03350000 0.03345080 51216.55827205 0 2768.12327507 0 34823.73138028 0 25.98433598 0 18889.18085660 0 1302
0.03450000 0.03451200 49461.44326500 0 -430.42168894 0 29023.76721160 0 9400.15783221 0 17087.16172463 0 1339
0.03550000 0.03553350 51642.10061385 0 -2897.91698469 0 26853.76489816 0 8235.59541628 0 13839.57284096 0 1365
0.03650000 0.03647120 51289.16629681 0 501.04589990 0 20839.27202697 0 2992.66990778 0 14196.57144985 0 1308
0.03750000 0.03744890 51969.00149387 0 2375.02936068 0 21673.66016025 0 -3753.13186759 0 10900.92506114 0 1579
0.03850000 0.03847530 47459.28522060 0 2527.97854930 0 24809.75563222 0 -1628.51780805 0 14594.65236020 0 1662
0.03950000 0.03950240 46733.86404732 0 -1503.12891203 0 22891.62956807 0 4179.44312947 0 5550.50452535 0 1683
0.04050000 0.04050350 47167.53497284 0 1000.47706762 0 22111.72491479 0 2979.71909671 0 9364.18335701 0 1822
0.04150000 0.04152450 46362.36580262 0 2088.98010608 0 23071.77655840 0 -190.22643413 0 5887.14872125 0 1887
0.04250000 0.04250150 44655.03368631 0 272.64587913 0 18698.26898514 0 -714.22240153 0 5926.91287400 0 1920
0.04350000 0.04349210 42790.73202780 0 381.76662315 0 20427.02101799 0 4903.52418488 0 6196.10080968 0 2005
0.04450000 0.04448520 41878.90265782 0 -237.73251363 0 18997.26905080 0 2187.77535188 0 10402.39023453 0 2151
0.04550000 0.04548030 42130.88875284 0 1686.39552098 0 16241.45948160 0 1971.97243895 0 6618.68830145 0 2274
0.04650000 0.04648670 42264.57100115 0 2101.54645712 0 18501.31559876 0 2395.85611029 0 5745.53561153 0 2311
0.04750000 0.04749250 38094.38786637 0 934.73110535 0 18263.38975664 0 -4250.33756091 0 6745.12073186 0 2568
0.04850000 0.04851840 38702.27411302 0 1218.27697585 0 20716.35465978 0 1899.60607478 0 3773.61809545 0 2493
0.04950000 0.04949480 37278.56366076 0 -254.26319691 0 16662.38830291 0 624.80029151 0 4372.11253254 0 2644
0.05050000 0.05050630 34925.55836811 0 -152.85801667 0 18104.44299139 0 1480.57758452 0 1628.35303946 0 2829
0.05150000 0.05149060 35494.44938209 0 -422.79510020 0 14482.39002842 0 1045.93122896 0 2808.72225533 0 2784
0.05250000 0.05249300 36611.69025934 0 818.92295354 0 13654.81233014 0 2999.07391359 0 1252.48293487 0 3055
0.05350000 0.05348950 35456.55260669 0 43.22714910 0 13544.63706715 0 -1562.01720564 0 73.68594087 0 3009
0.05450000 0.05448610 34928.85373988 0 1315.42453576 0 12966.95839510 0 836.73114261 0 -1744.41603335 0 3336
0.05550000 0.05550870 34135.87744523 0 -94.30189654 0 12155.30832706 0 1834.11605305 0 2569.20365020 0 3349
0.05650000 0.05647670 34823.95107173 0 -939.26553691 0 12591.17616709 0 3099.64866015 0 625.81416756 0 3324
0.05750000 0.05747970 35012.33649150 0 -393.99025552 0 8378.36190612 0 1679.01388820 0 1360.64802108 0 3639
0.05850000 0.05849280 34992.01503222 0 888.84415185 0 10407.17950818 0 265.34333527 0 2019.45874622 0 3846
0.05950000 0.05951020 33864.22896530 0 868.43701291 0 8870.13023602 0 -1867.31143139 0 1954.34219995 0 3787
0.06050000 0.06049470 32793.23313862 0 1410.37518115 0 12526.91641749 0 -1563.96147499 0 1960.25190000 0 3930
0.06150000 0.06148310 31210.90545827 0 1033.27150906 0 13913.27932298 0 -1499.88846312 0 1416.86706355 0 4083
0.06250000 0.06249100 30564.35351614 0 1321.37817410 0 13990.17133105 0 1348.01576261 0 2109.81784027 0 4303
0.06350000 0.06350600 30475.81786113 0 -662.50923073 0 13263.10247189 0 -73.54017559 0 814.79714808 0 4470
0.06450000 0.06451750 29068.91380491 0 60.92768935 0 13646.90343788 0 1707.60673063 0 1465.84727269 0 4479
0.06550000 0.06550280 29375.82276283 0 525.98966731 0 13201.47901971 0 2382.40000888 0 4683.01987489 0 4636
0.06650000 0.06648880 29779.61565092 0 -208.87384455 0 11155.93191361 0 1770.78999212 0 4559.06995788 0 4653
0.06750000 0.06749660 29400.97743405 0 43.77769587 0 11296.31475120 0 1078.27200756 0 3630.19253125 0 5220
0.06850000 0.06852730 30103.33100490 0 -118.11710897 0 10406.50944925 0 -1333.80172569 0 1022.79222682 0 5029
0.06950000 0.06949320 28878.66100780 0 156.88386252 0 10270.43256411 0 -22.25595235 0 1171.01036003 0 5040
0.07050000 0.07048030 28497.38649350 0 679.91318752 0 10386.71524946 0 -648.00959492 0 684.52011727 0 5475
0.07150000 0.07148790 28752.44826884 0 478.13098303 0 11476.35189581 0 -999.93113437 0 -1223.24200266 0 5509
0.07250000 0.07249820 28039.54950831 0 1029.83553476 0 12008.11505447 0 -896.95076642 0 -4268.16552221 0 5916
0.07350000 0.07351270 27346.86236133 0 -54.99821707 0 11188.77578563 0 337.42849438 0 -2629.77258341 0 5721
0.07450000 0.07449140 26471.28208088 0 144.87882315 0 12312.16802352 0 888.32018774 0 -2753.70053127 0 6028
0.07550000 0.07549160 27282.27307456 0 730.62676222 0 11124.62588176 0 697.64448459 0 -3461.31571239 0 6183
0.07650000 0.07648840 25484.31823444 0 -236.16611358 0 11009.72725255 0 123.32928866 0 -1739.46199112 0 6330
0.07750000 0.07749960 25146.65247329 0 478.35726523 0 10428.05019608 0 729.02630999 0 -1948.94877482 0 6583
0.07850000 0.07848650 25339.32187637 0 1037.49397877 0 11303.56456911 0 67.18614958 0 -1560.42444262 0 6549
0.07950000 0.07947320 24034.02511653 0 570.34427294 0 10133.46592860 0 286.26674913 0 -581.55293080 0 6828
0.08050000 0.08048110 23538.40120166 0 99.13950230 0 10573.43101420 0 1386.43979750 0 -382.26422429 0 7147
0.08150000 0.08149960 23079.13622203 0 -54.58673499 0 10510.36858301 0 402.13311917 0 104.79084520 0 7386
0.08250000 0.08250610 23111.65055687 0 551.93852312 0 9035.99728199 0 359.47453155 0 -265.43890106 0 7227
0.08350000 0.08350160 22763.43960604 0 -18.21593640 0 9176.99525565 0 1336.27325452 0 294.90282009 0 7798
0.08450000 0.08449610 22441.48178368 0 -260.16960159 0 7214.82105544 0 1518.44140621 0 402.79219353 0 7371
0.08550000 0.08548940 22269.46337706 0 484.55256417 0 7088.09204157 0 48.03949034 0 556.21481723 0 8256
0.08650000 0.08650700 21915.76013994 0 313.76662659 0 6892.03939014 0 -73.92024180 0 1551.91139886 0 8037
0.08750000 0.08749060 21636.09292202 0 288.95796941 0 7275.52180353 0 647.41203417 0 405.13849823 0 8155
0.08850000 0.08849210 20789.40206745 0 295.50587313 0 6047.71021867 0 -332.34703111 0 25.48739391 0 8718
0.08950000 0.08949900 20334.20137968 0 615.30632543 0 7101.99851046 0 -269.20880637 0 63.10999439 0 8571
0.09050000 0.09049190 19660.62738899 0 518.37735852 0 7531.01197720 0 -933.94351150 0 -496.56639120 0 8932
0.09150000 0.09150830 19322.74193639 0 252.06847931 0 7570.49053105 0 1397.38043179 0 -47.46291013 0 9285
0.09250000 0.09250820 19558.69055544 0 6.73029156 0 7319.86652304 0 422.91483204 0 -968.31094373 0 9204
0.09350000 0.09350330 18824.04234120 0 157.12442466 0 6411.77190774 0 -162.81003943 0 -52.94289370 0 9349
0.09450000 0.09448040 18851.17423547 0 -73.01577210 0 6870.94901078 0 484.52510273 0 637.43474690 0 9564
0.09550000 0.09549270 18338.96361600 0 201.96894222 0 6290.59010302 0 -18.00283570 0 -806.16547095 0 10155
0.09650000 0.09649430 18692.55700740 0 295.69480777 0 6376.46749146 0 358.83522943 0 -72.39294683 0 9913
0.09750000 0.09749140 18257.56793318 0 287.38168324 0 6868.88391114 0 18.51295925 0 592.05418219 0 10476
0.09850000 0.09850240 18241.64030293 0 -92.51031275 0 6082.46540632 0 964.91121852 0 958.33475491 0 10575
0.09950000 0.09950330 17900.89886146 0 32.24037960 0 6281.91229068 0 125.20874903 0 347.06635837 0 10882
0.10050000 0.10051200 17929.01936727 0 521.55299845 0 6351.99386375 0 -155.47564032 0 1256.45935014 0 10875
0.10150000 0.10150300 17239.62759206 0 537.65088957 0 6847.88140836 0 -696.38125874 0 1452.75366217 0 11118
0.10250000 0.10250800 16939.08968624 0 128.45469022 0 7098.35163236 0 696.15497654 0 1687.60382396 0 11575
0.10350000 0.10349800 16748.28766050 0 -18.46957018 0 6616.45843322 0 63.82146515 0 1095.94728330 0 11364
0.10450000 0.10450100 16261.45140369 0 586.20819266 0 7079.84262756 0 40.12719287 0 466.11715600 0 12093
0.10550000 0.10551000 16044.28640376 0 484.55146571 0 7493.38981611 0 -623.35801713 0 1586.67757108 0 12067
0.10650000 0.10649700 15536.79915050 0 181.26961365 0 7218.30316495 0 -331.32217048 0 658.28126874 0 12054
0.10750000 0.10749900 15690.03393801 0 -181.97482321 0 7113.59821911 0 1339.46976514 0 -168.23641828 0 12807
0.10850000 0.10850100 15404.65474235 0 -120.84787371 0 6663.02203639 0 159.46413862 0 473.05940587 0 12736
0.10950000 0.10950300 15338.08823251 0 316.72916581 0 6812.31336234 0 53.63634977 0 506.98306138 0 12933
0.11050000 0.11050200 14934.95441877 0 417.04907028 0 6673.86380953 0 -105.72431418 0 938.58339496 0 13428
0.11150000 0.11150900 15047.21675055 0 151.23889067 0 6956.17830944 0 279.96819521 0 385.41240279 0 13453
0.11250000 0.11250000 14807.86291401 0 -60.56124401 0 6612.11952705 0 -44.29946307 0 140.10273099 0 13668
0.11350000 0.11349100 14486.12478310 0 211.29154897 0 6579.48436191 0 98.29709543 0 -381.92809637 0 13791
0.11450000 0.11448600 14401.43372850 0 264.48873553 0 6844.56406744 0 -16.96589204 0 344.06647159 0 14205
0.11550000 0.11549300 14253.69122728 0 -2.15371219 0 6487.26887509 0 73.48591180 0 108.60468880 0 14776
0.11650000 0.11649800 14195.25330114 0 -112.36668522 0 5904.92175969 0 1380.24449856 0 -236.13425832 0 14553
0.11750000 0.11747300 14325.64017768 0 -163.76569724 0 5645.60895476 0 779.79480755 0 547.33488875 0 14568
0.11850000 0.11849100 14192.39731227 0 158.40522582 0 4441.53503126 0 347.62657157 0 520.81153980 0 16015
0.11950000 0.11950300 13856.48908274 0 163.95463189 0 4647.35296771 0 -12.05512903 0 1456.91681518 0 15270
0.12050000 0.12050700 13662.17199377 0 396.65621128 0 4558.92715843 0 -252.43865941 0 -4.86735199 0 15999
0.12150000 0.12150000 13564.40929780 0 170.23341358 0 4570.19732990 0 100.68349382 0 604.19543026 0 15670
0.12250000 0.12250700 13145.34785382 0 44.44984187 0 4625.25200768 0 178.26313614 0 361.61432629 0 16887
0.12350000 0.12352200 13116.89781083 0 42.83225371 0 4115.01861128 0 457.90838491 0 351.80949681 0 16407
0.12450000 0.12449800 12945.42863284 0 247.51976780 0 4376.08894782 0 -177.10975602 0 155.80407904 0 16306
0.12550000 0.12549900 12822.40141993 0 174.97545356 0 4525.11664403 0 193.19666256 0 1107.77217568 0 17523
0.12650000 0.12650100 12957.51166268 0 -181.48381282 0 3627.30358867 0 685.28793889 0 391.09582064 0 17154
0.12750000 0.12750600 12997.05612397 0 -220.71081996 0 3595.71195792 0 832.24174780 0 812.02244505 0 18007
0.12850000 0.12850300 13139.41618463 0 57.15251145 0 3414.81801665 0 -342.15405751 0 662.92993986 0 17496
0.12950000 0.12949900 13035.94151091 0 331.45947764 0 3842.99665587 0 -963.48542100 0 341.92118457 0 18405
0.13050000 0.13049000 12461.99759353 0 160.44176558 0 3579.86121969 0 -2.20167084 0 533.08460274 0 18100
0.13150000 0.13148800 12564.48365572 0 85.56586596 0 3862.43934934 0 161.90491065 0 -126.49723939 0 19059
0.13250000 0.13249300 12572.83193088 0 47.29792185 0 3667.38629402 0 464.39147965 0 -131.65669313 0 18957
0.13350000 0.13349100 12373.68162998 0 185.08675262 0 3666.06814531 0 194.84105308 0 448.91421688 0 19468
0.13450000 0.13450700 12094.12425778 0 -28.03680337 0 3287.34205185 0 417.82238419 0 354.21511820 0 19953
0.13550000 0.13551000 12111.91926537 0 150.86761212 0 3534.39607377 0 -125.12416782 0 -114.42080029 0 19956
0.13650000 0.13649900 11644.85523921 0 348.72502883 0 3770.46552312 0 -512.00960179 0 116.85278466 0 19723
0.13750000 0.13749600 11397.15312750 0 355.95287758 0 3840.63497277 0 -704.63286966 0 -180.39414322 0 20946
0.13850000 0.13851100 11435.37944008 0 3.66164136 0 3976.98647222 0 228.88114505 0 -484.16590721 0 20955
0.13950000 0.13949800 11444.82617250 0 -173.08391016 0 3918.58149981 0 467.72639589 0 -1091.93022511 0 20506
0.14050000 0.14048300 11436.03851444 0 34.00757764 0 3615.39631199 0 61.56655210 0 -821.77454858 0 21447
0.14150000 0.14148400 11385.17994338 0 125.51192323 0 3358.25845243 0 72.95041389 0 -979.89856935 0 21771
0.14250000 0.14249400 11317.73466774 0 123.87851729 0 3748.39751680 0 -161.19420880 0 -890.72580913 0 22470
0.14350000 0.14350900 10821.15509505 0 176.77802192 0 3457.09763652 0 112.59406587 0 -657.23773434 0 22519
0.14450000 0.14449900 11021.04136231 0 -8.60819212 0 3428.53774781 0 693.54723901 0 -231.34828005 0 22218
0.14550000 0.14550500 10904.13255633 0 -15.12279061 0 3253.07018539 0 7.21890732 0 -284.12915130 0 23559
0.14650000 0.14650700 10838.12625969 0 184.36836158 0 2883.88968551 0 168.09142193 0 -389.62278946 0 23044
0.14750000 0.14750500 10710.71620232 0 98.84885051 0 3207.97851495 0 63.23357083 0 -151.71781804 0 23649
0.14850000 0.14849900 10388.40687364 0 149.60768164 0 3031.79695531 0 -118.47959986 0 -123.32050100 0 23640
0.14950000 0.14949500 10424.02984252 0 153.71261642 0 2924.87312581 0 353.92951931 0 -86.08455748 0 24457
0.15050000 0.15050000 10335.63698696 0 -37.04052797 0 2927.03708661 0 429.69341178 0 -87.70895607 0 24591
0.15150000 0.15149900 10263.66606740 0 -1.40298256 0 2439.68455489 0 -16.54452384 0 163.01545094 0 25020
0.15250000 0.15250500 10022.84029813 0 270.02386165 0 2750.86651155 0 -272.67224210 0 -346.63136929 0 25297
0.15350000 0.15350100 9766.19674434 0 345.62847781 0 2694.43876220 0 -239.13744047 0 250.20000351 0 25452
0.15450000 0.15450400 9622.33179724 0 71.78110614 0 3022.49302234 0 -64.20317905 0 -134.63900459 0 26061
0.15550000 0.15549900 9309.52412384 0 84.07558900 0 3030.61062147 0 306.84085357 0 -101.05136716 0 26128
0.15650000 0.15649500 9374.19030263 0 157.50009704 0 3317.00039782 0 -391.06286693 0 42.36881459 0 26331
0.15750000 0.15749700 9134.77055865 0 114.57897814 0 3134.19514092 0 304.30890959 0 354.61275973 0 27345
0.15850000 0.15849900 9261.03822047 0 -49.45111777 0 3458.61350753 0 44.60252743 0 -69.58133563 0 26980
0.15950000 0.15949700 9005.69084624 0 132.05433466 0 3053.64527018 0 -363.94085877 0 228.38244545 0 27777
0.16050000 0.16050000 9071.86191147 0 134.79169015 0 3721.45236026 0 241.89017436 0 285.26385765 0 28224
0.16150000 0.16150500 8903.10592290 0 0.20839821 0 3308.27864719 0 143.59472661 0 308.49952403 0 28075
0.16250000 0.16249700 9121.53414868 0 155.14500468 0 3489.68886337 0 366.62109447 0 404.71229682 0 28590
0.16350000 0.16349900 8810.90142066 0 -27.87412185 0 3083.88579849 0 75.72302986 0 558.68854297 0 29163
0.16450000 0.16449100 8951.02062850 0 9.78395880 0 3203.47484019 0 193.31200057 0 1026.72360535 0 28996
0.16550000 0.16550500 8627.07459851 0 104.02335312 0 3112.50061007 0 51.48963475 0 750.73731770 0 30777
0.16650000 0.16650700 8598.88818526 0 219.53217532 0 3196.42274459 0 -180.59406244 0 972.69708357 0 29211
0.16750000 0.16749900 8484.52780012 0 87.93293151 0 3159.65738016 0 162.29046915 0 769.82630793 0 30922
0.16850000 0.16850800 8216.81179717 0 13.39414842 0 2967.63606687 0 393.96608946 0 997.65622938 0 30867
0.16950000 0.16949900 8399.65000778 0 -72.61142998 0 2724.52550650 0 110.42021896 0 698.59465011 0 30852
0.17050000 0.17049200 8428.10005077 0 162.70568599 0 2543.86224125 0 123.86423734 0 601.03407028 0 31257
0.17150000 0.17149500 7990.60649400 0 229.25681743 0 2667.79018911 0 -366.72325100 0 632.33021602 0 32608
0.17250000 0.17250900 8113.67764520 0 77.16947837 0 2694.38383933 0 -15.59776353 0 135.35739563 0 32361
0.17350000 0.17350400 7964.03481293 0 -98.40979714 0 2587.21834923 0 188.64575414 0 167.50484575 0 32508
0.17450000 0.17449800 8210.78126682 0 -71.63270456 0 2366.77994667 0 213.32039953 0 -211.25090606 0 32791
0.17550000 0.17549800 8027.26201270 0 41.19873792 0 2287.24065661 0 59.63821038 0 -13.89482524 0 33633
0.17650000 0.17650100 7977.54583720 0 97.96744841 0 2063.40802111 0 108.86645117 0 -192.43103785 0 33984
0.17750000 0.17750300 7983.77408985 0 80.94553504 0 2015.53725381 0 38.20093822 0 -87.34569626 0 34069
0.17850000 0.17849800 7854.84816147 0 33.86060406 0 2341.85595148 0 -120.14815644 0 -101.99669948 0 34536
