### header ###
fiducial parameters:
Omega_m = 0.31
Omega_nu = 0
Omega_de = 0.69
Omega_k = 0
H_0 = 100
w_de = -1
zeff = 0
beta = 0
fgrowth = 0
b_1 = 2
gamma = 0.55
Lx = 3500 Ly = 3500 Lz = 3500
nx = 700 ny = 700 nz = 700
xoffset = -983.599254 yoffset = -42.9823471 zoffset = 800.977702
bins = 400 dk = 0.001
kx_ny = 0.628318531 ky_ny = 0.628318531 kz_ny = 0.628318531
############################
A(data) = 9.00274597 (not used)
A(ran) = 9.00119292 (used)
Ngal = 499945
weighted Ngal = 0
Nran = 25229228
weighted Nran = 0
SN(data) = 6750.24088
SN(ran) = 133.616508
SN(data+ran) = 6883.85739
############################
13 columns: k_central k_mean P_0(k) sigma^{lin}_{P_0(k)} P^img_1(k) sigma^{lin}_{P_1(k)} P_2(k) sigma^{lin}_{P_2(k)} P^img_3(k) sigma^{lin}_{P_3(k)} P_4(k) sigma^{lin}_{P_4(k)} N_modes
### header ###
0.00050000 0 0 0 0 0 0 0 0 0 0 0 0
0.00150000 0.00179520 48773.04010133 0 1725.09417018 0 -9147.99598403 0 10909.60287348 0 -133123.13357056 0 3
0.00250000 0.00253879 45165.48677416 0 24393.11079421 0 -4699.34294974 0 34744.75230342 0 65051.84712970 0 6
0.00350000 0.00331552 40994.75441075 0 -6212.70948342 0 33423.19837616 0 -8499.74143314 0 29715.57559278 0 7
0.00450000 0.00420575 27244.26645342 0 -15477.37261284 0 11622.22701969 0 21175.29010223 0 13816.94462144 0 24
0.00550000 0.00557378 54337.05565095 0 -20567.84323848 0 -32739.07919579 0 25688.74113018 0 3759.73359571 0 45
0.00650000 0.00659388 65011.53374832 0 -22859.88415331 0 -53276.16563105 0 -13395.24688004 0 -13454.89310916 0 40
0.00750000 0.00754703 96527.59063291 0 13462.69215569 0 -7542.22722580 0 -51889.25349693 0 -64418.69636611 0 57
0.00850000 0.00846663 90166.86403396 0 16945.46073833 0 -6463.98158122 0 -49250.75916289 0 27218.34286213 0 75
0.00950000 0.00948925 61599.83535029 0 132.76393805 0 15469.02433768 0 -19968.63480417 0 -17928.57998437 0 112
0.01050000 0.01054430 60697.12317555 0 1893.55357529 0 24804.37319166 0 5042.97333380 0 -30553.14925210 0 105
0.01150000 0.01145670 66156.34590275 0 3132.07511841 0 15316.77816170 0 21565.35227460 0 -21034.57772747 0 144
0.01250000 0.01249090 65364.79760254 0 4119.70902377 0 44941.51133923 0 -9020.50903465 0 -23857.28334369 0 169
0.01350000 0.01339930 64234.26539247 0 10376.57648897 0 25701.48323438 0 -11204.70341587 0 9299.26453305 0 180
0.01450000 0.01448870 58092.35147934 0 -5852.03104271 0 33658.70761230 0 12944.33017558 0 -12538.66991015 0 267
0.01550000 0.01550050 63095.93413586 0 -7971.20773882 0 33877.52029812 0 8424.12363550 0 5831.62170685 0 238
0.01650000 0.01653350 65156.53010640 0 3495.08228850 0 29677.34928019 0 7412.93880652 0 -8723.73883722 0 315
0.01750000 0.01747870 63791.69696317 0 3855.96943609 0 29312.33193331 0 -6326.80623882 0 15374.66685920 0 297
0.01850000 0.01844180 66898.79316353 0 -2336.45154177 0 18495.71346674 0 25421.04709637 0 12123.34322085 0 388
0.01950000 0.01947590 72974.25041254 0 -2406.98348231 0 29586.28717349 0 17963.73061663 0 29729.19646278 0 399
0.02050000 0.02045430 71741.67152319 0 -2157.15036352 0 6970.85369841 0 -3948.72316697 0 15986.61739771 0 462
0.02150000 0.02154770 71636.87870076 0 3576.76357022 0 23264.11642430 0 -10708.62913353 0 7700.84445388 0 571
0.02250000 0.02255340 58729.12715188 0 7273.66541076 0 22087.44900939 0 -5945.64157025 0 10653.25590314 0 510
0.02350000 0.02348930 59309.66181280 0 416.25818106 0 27213.28995875 0 1649.45440339 0 18578.09776110 0 555
0.02450000 0.02439640 59676.32684557 0 920.11063925 0 35624.72641291 0 11815.77518857 0 5818.47317347 0 592
0.02550000 0.02547300 57449.86382905 0 5482.22442219 0 33028.30299186 0 -3596.06346424 0 4139.00891780 0 837
0.02650000 0.02652900 56930.73292886 0 -9.46631791 0 25473.00412468 0 6664.51593826 0 20485.34909840 0 723
0.02750000 0.02749970 54366.05492257 0 -4545.70173305 0 28631.17858755 0 8259.02550960 0 6462.83918567 0 826
0.02850000 0.02848090 55111.68770939 0 2195.94787388 0 27947.16925291 0 493.30946543 0 12968.82577244 0 831
0.02950000 0.02946900 53015.06234079 0 1315.88588781 0 21297.76808651 0 3367.67223113 0 11593.88682243 0 996
0.03050000 0.03053250 55775.81496766 0 -388.56827049 0 22898.65969452 0 3989.25623979 0 10396.14001273 0 1041
0.03150000 0.03150510 51922.64659757 0 -103.09460750 0 19446.64791511 0 -212.70855884 0 4771.10516242 0 1036
0.03250000 0.03246190 56556.48854101 0 1012.93467139 0 22851.31618669 0 -3319.40601921 0 -566.34918389 0 1059
0.03350000 0.03345080 54091.33076231 0 113.07958398 0 21509.44080016 0 1556.60181136 0 880.01145704 0 1302
0.03450000 0.03451200 54443.82569644 0 -1714.20845875 0 20074.08670095 0 -1471.71303445 0 -11438.01573750 0 1339
0.03550000 0.03553350 52005.03089193 0 3290.72530020 0 19818.25600553 0 -4919.44083055 0 -8374.44041371 0 1365
0.03650000 0.03647120 53172.91064878 0 4594.70391133 0 24815.57745569 0 -4591.10097153 0 -11584.22039856 0 1308
0.03750000 0.03744890 46716.94780555 0 1577.82400558 0 26348.58440514 0 2305.49701624 0 -5175.09577281 0 1579
0.03850000 0.03847530 46019.75698381 0 -92.93958984 0 25734.98618075 0 5370.97267108 0 -11088.37679224 0 1662
0.03950000 0.03950240 47624.27350077 0 -669.98642928 0 21175.83933086 0 -688.68327027 0 -14701.53225142 0 1683
0.04050000 0.04050350 44912.95145052 0 1712.73652603 0 22427.31168505 0 -494.99889269 0 -9018.42196586 0 1822
0.04150000 0.04152450 44386.46088669 0 160.73175830 0 21891.26454308 0 2610.64844254 0 -11844.55476874 0 1887
0.04250000 0.04250150 44077.46485998 0 -303.42794687 0 15773.84622681 0 2730.30339167 0 -11314.65898741 0 1920
0.04350000 0.04349210 44782.34488252 0 321.59972529 0 12587.55125814 0 3841.57964601 0 -15047.87582491 0 2005
0.04450000 0.04448520 43328.64654711 0 155.56681227 0 13146.00692817 0 -1235.02844904 0 -10940.06309324 0 2151
0.04550000 0.04548030 43112.47015871 0 936.11845687 0 12365.66289200 0 -311.98163354 0 -15528.78041252 0 2274
0.04650000 0.04648670 38259.81552945 0 3499.17953408 0 14356.39698091 0 -1957.11031225 0 -9958.08624276 0 2311
0.04750000 0.04749250 36080.80586649 0 507.20385129 0 12439.91860265 0 463.01840808 0 -6563.09537962 0 2568
0.04850000 0.04851840 39307.30437080 0 -1242.26728237 0 14429.00500568 0 6363.61554154 0 -10485.92790901 0 2493
0.04950000 0.04949480 37113.02615196 0 1028.95237513 0 12304.58866844 0 1462.47500891 0 -7356.11561256 0 2644
0.05050000 0.05050630 37574.26835465 0 790.30484660 0 10132.58716279 0 -1908.37176370 0 -4113.77735458 0 2829
0.05150000 0.05149060 33503.27591027 0 963.97093911 0 13289.24575463 0 -471.10854578 0 -86.83985669 0 2784
0.05250000 0.05249300 35636.80944275 0 943.79887002 0 12448.70626071 0 146.36723273 0 -2535.55790438 0 3055
0.05350000 0.05348950 34997.39747279 0 -743.86536909 0 14833.45696812 0 706.17730057 0 -3252.86147851 0 3009
0.05450000 0.05448610 33951.11693442 0 589.34868196 0 14799.51463884 0 -822.80929532 0 -3315.56141881 0 3336
0.05550000 0.05550870 34370.17837839 0 756.98424413 0 15896.76359399 0 -879.69949518 0 -2506.26204930 0 3349
0.05650000 0.05647670 32785.87347499 0 636.29344980 0 15693.76869269 0 -933.53708231 0 -2640.87798629 0 3324
0.05750000 0.05747970 33246.78614050 0 -246.09946257 0 16142.81801982 0 748.57225844 0 -5002.40730726 0 3639
0.05850000 0.05849280 33812.16209126 0 -325.87711786 0 14119.45975033 0 3339.11234242 0 -4614.61894142 0 3846
0.05950000 0.05951020 33703.19513125 0 -317.80894930 0 12819.32573960 0 1399.50045430 0 -4036.12741100 0 3787
0.06050000 0.06049470 32771.15414773 0 820.46079370 0 11888.38321334 0 330.44670005 0 -3943.38466469 0 3930
0.06150000 0.06148310 33068.50652750 0 1034.29856660 0 12264.82451570 0 -1331.49496545 0 -4143.50160798 0 4083
0.06250000 0.06249100 30815.13130817 0 274.88233810 0 12339.29991780 0 821.21653230 0 -4558.55368297 0 4303
0.06350000 0.06350600 31746.73290879 0 -168.87242504 0 11636.61680977 0 -399.14641389 0 -6747.77899843 0 4470
0.06450000 0.06451750 31214.75005868 0 411.90609340 0 12322.60336748 0 -104.99186288 0 -4917.15603946 0 4479
0.06550000 0.06550280 31043.83010931 0 1181.35782741 0 11940.88947027 0 485.77295018 0 -5665.05164823 0 4636
0.06650000 0.06648880 29631.87314971 0 -136.91610648 0 10444.58197782 0 1420.74461767 0 -554.97136361 0 4653
0.06750000 0.06749660 30654.09747413 0 -14.76469354 0 12665.10234056 0 3470.48783049 0 -639.01213152 0 5220
0.06850000 0.06852730 29939.55102771 0 -134.41601776 0 8053.67990976 0 619.34205740 0 -1740.96687756 0 5029
0.06950000 0.06949320 29420.63981897 0 1461.93676485 0 11869.05036559 0 -192.45300700 0 2027.16991617 0 5040
0.07050000 0.07048030 27868.73940467 0 1037.97180767 0 10555.22957743 0 -745.40320925 0 3398.38509607 0 5475
0.07150000 0.07148790 27178.79840084 0 -468.64690307 0 12054.57979649 0 489.16169082 0 1803.52401841 0 5509
0.07250000 0.07249820 26814.65981977 0 401.11265238 0 10882.31719518 0 1700.31297444 0 699.53822490 0 5916
0.07350000 0.07351270 26870.79098566 0 256.39969628 0 9354.47299484 0 736.21461429 0 2885.09798849 0 5721
0.07450000 0.07449140 26888.25645606 0 30.18923036 0 9320.46475813 0 1535.62127773 0 3075.86706051 0 6028
0.07550000 0.07549160 26368.57632724 0 47.41336971 0 8571.96499787 0 418.71652840 0 2980.98232255 0 6183
0.07650000 0.07648840 26502.69795846 0 277.77457607 0 7996.59308606 0 -185.24053664 0 2251.24421226 0 6330
0.07750000 0.07749960 25755.08794857 0 661.16032521 0 8579.90684384 0 -532.04216681 0 1620.63088493 0 6583
0.07850000 0.07848650 25229.58599628 0 628.41860972 0 9263.29005785 0 -1030.79668486 0 1227.54795511 0 6549
0.07950000 0.07947320 24033.58573362 0 372.80211347 0 10118.71364762 0 -305.99613994 0 576.35063723 0 6828
0.08050000 0.08048110 24136.84071589 0 214.61328372 0 10422.67874009 0 925.57875948 0 3007.32332760 0 7147
0.08150000 0.08149960 24406.07258986 0 -130.97564963 0 9583.96268521 0 947.11071865 0 1187.11374344 0 7386
0.08250000 0.08250610 24525.91427672 0 -21.63587323 0 9757.44203999 0 -233.94832838 0 667.87299752 0 7227
0.08350000 0.08350160 23798.51588038 0 420.06872928 0 9085.27407459 0 -93.19443193 0 585.36897132 0 7798
0.08450000 0.08449610 23861.34763555 0 362.15916109 0 9358.26267239 0 -293.78019677 0 351.01421375 0 7371
0.08550000 0.08548940 23555.20759771 0 158.38435514 0 9123.80795521 0 755.69026148 0 38.90318195 0 8256
0.08650000 0.08650700 22922.49621702 0 204.94795831 0 9462.02294499 0 -144.03410952 0 -950.01174427 0 8037
0.08750000 0.08749060 22302.85647771 0 559.46844763 0 8022.26403218 0 428.35658930 0 -1614.71020031 0 8155
0.08850000 0.08849210 22091.84283842 0 288.63062915 0 8253.08285583 0 22.53056667 0 -1453.13812221 0 8718
0.08950000 0.08949900 21395.09139959 0 316.65117535 0 8014.45400107 0 811.26121417 0 -739.31665759 0 8571
0.09050000 0.09049190 21193.85402990 0 303.98706162 0 7590.08700854 0 1123.21648473 0 -703.45092965 0 8932
0.09150000 0.09150830 20286.85787185 0 195.80000626 0 6132.66490302 0 -19.48915821 0 -753.43842410 0 9285
0.09250000 0.09250820 20320.03128105 0 659.88611479 0 7137.26997302 0 1046.36951341 0 -1118.60296425 0 9204
0.09350000 0.09350330 19593.62149625 0 339.31454549 0 6690.86792788 0 -645.21951348 0 -4.56253010 0 9349
0.09450000 0.09448040 19091.73637500 0 -21.75165063 0 7142.44370670 0 444.14691238 0 515.63011691 0 9564
0.09550000 0.09549270 18528.77703021 0 412.43445134 0 6910.16393490 0 -570.75289904 0 -838.13057716 0 10155
0.09650000 0.09649430 18444.52535851 0 536.69962558 0 7133.89770924 0 -937.00381342 0 -343.10092766 0 9913
0.09750000 0.09749140 18092.90919018 0 353.01779979 0 7452.35145294 0 569.05797949 0 -906.95551512 0 10476
0.09850000 0.09850240 17743.81947355 0 75.75104052 0 7831.03360811 0 989.77370010 0 -646.02248574 0 10575
0.09950000 0.09950330 17715.14973911 0 265.19394509 0 6736.17928978 0 121.97269394 0 -741.72667281 0 10882
0.10050000 0.10051200 16980.61137060 0 -169.43922898 0 6725.32653207 0 1017.04180308 0 939.06561769 0 10875
0.10150000 0.10150300 16743.78398574 0 91.31409279 0 5988.21777357 0 623.15809791 0 -357.76203669 0 11118
0.10250000 0.10250800 16729.94342429 0 546.53191650 0 5872.57219344 0 -460.26677265 0 65.85624738 0 11575
0.10350000 0.10349800 16075.70228134 0 689.96846527 0 6106.18109853 0 301.07505142 0 -441.93901329 0 11364
0.10450000 0.10450100 15536.03023042 0 -76.02466622 0 5825.00899416 0 32.24938695 0 -51.32299878 0 12093
0.10550000 0.10551000 15297.88469686 0 -12.99376075 0 4966.53169321 0 771.98477644 0 -408.94135726 0 12067
0.10650000 0.10649700 15577.55191478 0 312.40893341 0 4827.69768036 0 215.67988572 0 1.55605258 0 12054
0.10750000 0.10749900 15139.59700596 0 82.91177354 0 4520.36032410 0 375.07152616 0 -382.66406273 0 12807
0.10850000 0.10850100 14841.25601465 0 161.28208538 0 4253.33634922 0 55.36784794 0 -148.11158286 0 12736
0.10950000 0.10950300 14808.74167981 0 -133.69103597 0 4541.56054918 0 134.51158354 0 25.17136776 0 12933
0.11050000 0.11050200 14669.01791658 0 -1.30203434 0 4560.73961291 0 295.80794887 0 10.07509391 0 13428
0.11150000 0.11150900 15021.51285071 0 422.78521408 0 4504.49860129 0 -652.02006237 0 -123.43693747 0 13453
0.11250000 0.11250000 14671.98375117 0 25.19179907 0 4899.05346384 0 -329.45808852 0 78.88417015 0 13668
0.11350000 0.11349100 14472.72360455 0 9.26852970 0 5587.59942696 0 87.05559370 0 -305.84784821 0 13791
0.11450000 0.11448600 14706.69500053 0 267.42601024 0 5004.54929891 0 180.92250116 0 -187.18041216 0 14205
0.11550000 0.11549300 14450.64461366 0 -46.78197648 0 5319.92736230 0 174.35812058 0 -549.14624477 0 14776
0.11650000 0.11649800 14269.28932034 0 169.49744722 0 5562.81823122 0 113.46184711 0 60.60639061 0 14553
0.11750000 0.11747300 14227.65779026 0 244.22549449 0 5353.52916982 0 110.62123664 0 376.33035818 0 14568
0.11850000 0.11849100 13902.95382475 0 3.50986752 0 5182.22476042 0 470.89874045 0 310.84253336 0 16015
0.11950000 0.11950300 13686.00851627 0 349.30501426 0 5247.93447360 0 -202.20291362 0 417.29073088 0 15270
0.12050000 0.12050700 13324.28654117 0 422.99172405 0 5140.29664688 0 -439.49055207 0 335.04923596 0 15999
0.12150000 0.12150000 13275.18550173 0 124.95939923 0 6031.94735702 0 504.10949719 0 787.52574973 0 15670
0.12250000 0.12250700 13072.08075470 0 -293.26172495 0 5106.61794734 0 490.37768301 0 712.35502419 0 16887
0.12350000 0.12352200 13056.15312446 0 -34.75518765 0 4897.79023800 0 399.73408852 0 854.13509941 0 16407
0.12450000 0.12449800 13148.75307132 0 422.20962248 0 5019.63111707 0 -494.80446576 0 -108.51274793 0 16306
0.12550000 0.12549900 12766.27025404 0 401.29170091 0 5350.51939694 0 -345.26159309 0 662.25329019 0 17523
0.12650000 0.12650100 12732.76730766 0 -54.82883497 0 5440.80159898 0 -25.32460255 0 113.15867290 0 17154
0.12750000 0.12750600 12439.80875692 0 -69.74357777 0 5431.09123682 0 761.01448381 0 534.68066114 0 18007
0.12850000 0.12850300 12604.68719137 0 -58.18187575 0 5115.70218887 0 339.92858310 0 766.00587359 0 17496
0.12950000 0.12949900 12493.30362539 0 148.55975342 0 4590.71651149 0 467.13432742 0 29.60836616 0 18405
0.13050000 0.13049000 12386.86311708 0 353.44729658 0 4477.50950646 0 -154.25415585 0 792.18540542 0 18100
0.13150000 0.13148800 12205.61766949 0 69.23795789 0 4742.28164396 0 29.52773940 0 972.97389479 0 19059
0.13250000 0.13249300 11804.79061599 0 -6.00682564 0 4399.74971716 0 386.11871081 0 1238.59843513 0 18957
0.13350000 0.13349100 11848.72890632 0 -27.59500386 0 4025.82388192 0 423.77053024 0 808.98521073 0 19468
0.13450000 0.13450700 11871.24728011 0 111.02107508 0 4036.03953442 0 191.44572169 0 705.88730785 0 19953
0.13550000 0.13551000 11862.56946777 0 224.74655193 0 3935.26706556 0 271.09046365 0 974.85994591 0 19956
0.13650000 0.13649900 11619.15133937 0 76.69022147 0 4126.81604223 0 -553.18746903 0 922.97431732 0 19723
0.13750000 0.13749600 11310.37500411 0 187.31881777 0 4191.50419016 0 76.64408627 0 981.39137276 0 20946
0.13850000 0.13851100 11004.67434917 0 158.40852120 0 4147.51097697 0 -118.09404136 0 362.92698272 0 20955
0.13950000 0.13949800 11125.17511038 0 120.69189278 0 3854.79408683 0 138.06728969 0 -20.08419251 0 20506
0.14050000 0.14048300 11030.81763191 0 140.76949454 0 3921.84391786 0 386.22086733 0 -11.47514359 0 21447
0.14150000 0.14148400 10783.01665905 0 177.79629180 0 3706.72204843 0 113.29598006 0 703.11150636 0 21771
0.14250000 0.14249400 10816.38779055 0 -285.23859313 0 3402.06492789 0 211.50135431 0 95.74504968 0 22470
0.14350000 0.14350900 10579.97781945 0 88.84520026 0 3171.98207060 0 238.07083847 0 -217.74278845 0 22519
0.14450000 0.14449900 10352.09187668 0 378.24057535 0 2941.63558357 0 -690.17167986 0 -522.42737043 0 22218
0.14550000 0.14550500 10160.13647082 0 247.76142840 0 3306.92754476 0 139.38214303 0 -144.15274290 0 23559
0.14650000 0.14650700 10171.17596627 0 15.26866573 0 3207.71488520 0 442.47396198 0 -492.81845503 0 23044
0.14750000 0.14750500 10011.96557127 0 -154.12343943 0 2947.32559216 0 551.47167879 0 -227.11592423 0 23649
0.14850000 0.14849900 9973.76122784 0 103.26157301 0 2742.35346780 0 397.04506515 0 200.11584483 0 23640
0.14950000 0.14949500 9922.58410418 0 53.94007320 0 2383.24582097 0 -76.50260497 0 559.81006783 0 24457
0.15050000 0.15050000 9649.29892293 0 144.64155638 0 2419.20931160 0 76.09551671 0 280.83158261 0 24591
0.15150000 0.15149900 9897.42943297 0 -27.73802299 0 2178.39452690 0 169.16022084 0 717.96155003 0 25020
0.15250000 0.15250500 9722.48913004 0 87.92952629 0 2131.22677223 0 146.99005800 0 400.75785069 0 25297
0.15350000 0.15350100 9760.90218035 0 127.40676200 0 2050.01782714 0 121.96939857 0 738.59277425 0 25452
0.15450000 0.15450400 9468.04249076 0 144.05717712 0 2183.59022973 0 -156.15448690 0 311.32695301 0 26061
0.15550000 0.15549900 9348.00308159 0 190.92395449 0 2431.29234144 0 -275.55788932 0 383.71199095 0 26128
0.15650000 0.15649500 9211.60764385 0 89.86445875 0 2395.37278910 0 -185.77109150 0 95.80491560 0 26331
0.15750000 0.15749700 9144.01956876 0 32.93240767 0 2329.55323019 0 110.07310647 0 29.14360890 0 27345
0.15850000 0.15849900 9076.42050909 0 4.19164699 0 2610.85714942 0 108.16244991 0 92.82238446 0 26980
0.15950000 0.15949700 9059.94365022 0 -20.65154568 0 2245.93866370 0 196.78532242 0 -69.81794333 0 27777
0.16050000 0.16050000 9098.41162340 0 88.94790601 0 2478.87750986 0 18.69881821 0 -335.07340202 0 28224
0.16150000 0.16150500 8854.36737436 0 316.94006960 0 2389.07862901 0 -447.02487040 0 71.31667841 0 28075
0.16250000 0.16249700 8633.97291009 0 113.89354081 0 2776.10905934 0 -76.59685260 0 151.17518015 0 28590
0.16350000 0.16349900 8603.71041263 0 -39.64046646 0 2669.06439953 0 136.08237742 0 -136.21748767 0 29163
0.16450000 0.16449100 8700.81403425 0 -5.35111256 0 2516.91708471 0 610.49837801 0 62.12819329 0 28996
0.16550000 0.16550500 8656.46931474 0 28.73036928 0 2277.50832530 0 179.05841919 0 254.35107349 0 30777
0.16650000 0.16650700 8630.21618627 0 5.23123792 0 2170.41972720 0 185.83590047 0 364.26380520 0 29211
0.16750000 0.16749900 8430.17613499 0 165.23982688 0 2046.07436558 0 -93.29856568 0 324.87862021 0 30922
0.16850000 0.16850800 8309.43371317 0 208.47839994 0 2073.08542956 0 -170.31030559 0 440.02220538 0 30867
0.16950000 0.16949900 8148.00443452 0 93.02878457 0 2069.43855146 0 -82.27082373 0 -9.10938521 0 30852
0.17050000 0.17049200 7941.81302259 0 15.69904129 0 2130.56769788 0 57.97734300 0 186.22475434 0 31257
0.17150000 0.17149500 8020.52846971 0 135.65617601 0 2068.31812506 0 128.86661170 0 -209.49557136 0 32608
0.17250000 0.17250900 7733.95195564 0 98.74087216 0 1983.15473384 0 -91.23368572 0 -164.87953290 0 32361
0.17350000 0.17350400 7878.92634457 0 13.63547948 0 1843.51884718 0 390.77397267 0 49.94004109 0 32508
0.17450000 0.17449800 7835.89977376 0 -123.47648193 0 1612.32654806 0 569.27108020 0 357.43030260 0 32791
0.17550000 0.17549800 7927.53307824 0 17.26653979 0 1307.08724517 0 -3.63312541 0 126.26876028 0 33633
0.17650000 0.17650100 7788.30362077 0 61.90037326 0 1318.44529322 0 -139.05040894 0 360.36208502 0 33984
0.17750000 0.17750300 7788.17180590 0 179.68124446 0 1284.22834963 0 78.68238355 0 434.90888684 0 34069
0.17850000 0.17849800 7555.33182089 0 47.53672646 0 1589.09417705 0 -173.83964876 0 418.87800162 0 34536
