### header ###
fiducial parameters:
Omega_m = 0.31
Omega_nu = 0
Omega_de = 0.69
Omega_k = 0
H_0 = 100
w_de = -1
zeff = 0
beta = 0
fgrowth = 0
b_1 = 2
gamma = 0.55
Lx = 3500 Ly = 3500 Lz = 3500
nx = 700 ny = 700 nz = 700
xoffset = -983.599254 yoffset = -42.9823471 zoffset = 800.977702
bins = 400 dk = 0.001
kx_ny = 0.628318531 ky_ny = 0.628318531 kz_ny = 0.628318531
############################
A(data) = 9.06135487 (not used)
A(ran) = 9.07326309 (used)
Ngal = 503659
weighted Ngal = 0
Nran = 25229228
weighted Nran = 0
SN(data) = 6727.55637
SN(ran) = 134.68634
SN(data+ran) = 6862.24271
############################
13 columns: k_central k_mean P_0(k) sigma^{lin}_{P_0(k)} P^img_1(k) sigma^{lin}_{P_1(k)} P_2(k) sigma^{lin}_{P_2(k)} P^img_3(k) sigma^{lin}_{P_3(k)} P_4(k) sigma^{lin}_{P_4(k)} N_modes
### header ###
0.00050000 0 0 0 0 0 0 0 0 0 0 0 0
0.00150000 0.00179520 18602.70320368 0 -13784.97951523 0 -1618.81843046 0 1222.09960711 0 -65097.65279736 0 3
0.00250000 0.00253879 22156.65181665 0 -4165.99801263 0 -5154.54363751 0 14734.70566061 0 46240.87642987 0 6
0.00350000 0.00331552 29294.64677146 0 -10425.58965182 0 -9247.71393393 0 -2320.72163383 0 -10999.84113723 0 7
0.00450000 0.00420575 41089.22173495 0 -20665.49608873 0 -21392.12556499 0 -4190.24096431 0 -1421.26089258 0 24
0.00550000 0.00557378 71037.88995790 0 -10764.90309886 0 -8076.73652761 0 -5001.25392714 0 -17098.14629722 0 45
0.00650000 0.00659388 78542.11056257 0 4158.68228729 0 -10361.00036505 0 -24754.50323214 0 27421.77714634 0 40
0.00750000 0.00754703 67433.52215679 0 1505.85308603 0 11246.66448313 0 -5951.59520859 0 -7874.13707092 0 57
0.00850000 0.00846663 85693.61654166 0 8712.17208230 0 29845.08370351 0 422.31836975 0 7980.51167180 0 75
0.00950000 0.00948925 77331.39097266 0 -6151.85495132 0 13447.53344553 0 27682.11151652 0 10307.84601832 0 112
0.01050000 0.01054430 70491.84685488 0 1985.09900318 0 27058.40748535 0 -21165.40398691 0 11222.82796063 0 105
0.01150000 0.01145670 71155.42488452 0 18091.04181284 0 35038.69946569 0 560.56141260 0 11302.79564902 0 144
0.01250000 0.01249090 53894.04783875 0 5601.81346388 0 47167.53497284 0 -3202.14570691 0 3443.21313678 0 169
0.01350000 0.01339930 51113.41313551 0 -704.36704301 0 37505.72462174 0 19897.56461957 0 14903.86807837 0 180
0.01450000 0.01448870 61197.14091945 0 -11014.56046449 0 31638.53486887 0 18380.70499181 0 2618.34862792 0 267
0.01550000 0.01550050 61310.39186277 0 -5600.85780607 0 -1573.96842061 0 15111.80603733 0 11316.19682757 0 238
0.01650000 0.01653350 72106.57902434 0 9010.63390390 0 13306.93091649 0 -6135.45498445 0 -1674.58710545 0 315
0.01750000 0.01747870 60388.67637747 0 3393.88142131 0 218.52489002 0 -6408.17995250 0 7739.20258133 0 297
0.01850000 0.01844180 59931.05908373 0 603.72748747 0 22088.43762092 0 5846.13232723 0 1643.58864163 0 388
0.01950000 0.01947590 58917.07318874 0 -1250.85721813 0 669.34383179 0 3878.04842698 0 13051.21006680 0 399
0.02050000 0.02045430 65018.56387478 0 -4224.54578449 0 8519.55760208 0 10799.33973390 0 12302.83113683 0 462
0.02150000 0.02154770 58285.67995677 0 1433.83822819 0 3797.14704992 0 -12912.47491509 0 -1718.17388946 0 571
0.02250000 0.02255340 60441.40232586 0 4992.80679083 0 18925.32010040 0 579.43400675 0 19906.24243191 0 510
0.02350000 0.02348930 60637.36710071 0 -777.47157045 0 9073.36679792 0 4968.86042260 0 6734.37781988 0 555
0.02450000 0.02439640 63564.53600218 0 -2054.31279502 0 15521.64044034 0 13606.26051933 0 15797.24336641 0 592
0.02550000 0.02547300 64234.26539247 0 -2382.40000888 0 7950.16129776 0 1735.51852956 0 14873.11127514 0 837
0.02650000 0.02652900 65212.44158084 0 2311.80216090 0 11983.39976616 0 1201.67928668 0 22149.51184447 0 723
0.02750000 0.02749970 61247.66995333 0 3236.85695626 0 15991.45060965 0 -3643.23121891 0 17313.22422836 0 826
0.02850000 0.02848090 66374.27982277 0 -1711.41837732 0 14496.45028132 0 6584.94369448 0 22127.65254504 0 831
0.02950000 0.02946900 63930.21242342 0 311.85750787 0 13354.60396149 0 589.21796555 0 13688.86450514 0 996
0.03050000 0.03053250 56119.19270655 0 2318.56865761 0 20925.28123028 0 -2263.94237816 0 18756.15768264 0 1041
0.03150000 0.03150510 54737.11378437 0 6933.42925963 0 27692.87639765 0 -10338.99826617 0 12111.58972819 0 1036
0.03250000 0.03246190 51328.05168375 0 6135.42203074 0 33754.05370231 0 -5773.11787329 0 13267.60614665 0 1059
0.03350000 0.03345080 49510.21476726 0 -366.13887174 0 29788.29346326 0 9023.14533207 0 12121.47584351 0 1302
0.03450000 0.03451200 51327.28276367 0 -4471.61079099 0 31378.85957304 0 8264.55074961 0 10708.79390212 0 1339
0.03550000 0.03553350 51456.24164577 0 -1129.01633906 0 25303.84170693 0 2817.69665113 0 12162.33845351 0 1365
0.03650000 0.03647120 50826.71579113 0 1078.76960870 0 20184.59150112 0 5446.07419382 0 16587.14398073 0 1308
0.03750000 0.03744890 52233.72969308 0 2143.30980207 0 23359.13297713 0 2028.66381804 0 10569.09210803 0 1579
0.03850000 0.03847530 48757.55185399 0 2546.37770837 0 21362.46721902 0 -2287.10884173 0 14213.15815445 0 1662
0.03950000 0.03950240 48603.32845494 0 -187.29465171 0 21568.31810919 0 4867.24214165 0 19224.97924042 0 1683
0.04050000 0.04050350 47871.64607530 0 -1697.44600099 0 18461.44160029 0 3341.86947014 0 10754.27003260 0 1822
0.04150000 0.04152450 47703.69196053 0 1151.12828366 0 19455.65526462 0 2914.76731903 0 11507.76777339 0 1887
0.04250000 0.04250150 46988.48643976 0 2015.10885547 0 18492.30824924 0 -1598.73863178 0 12779.34189541 0 1920
0.04350000 0.04349210 44267.27827418 0 386.61191812 0 17199.42405642 0 -1456.35660198 0 7045.51583825 0 2005
0.04450000 0.04448520 44064.94244724 0 745.89421965 0 20369.68154912 0 -778.34484397 0 3997.16513205 0 2151
0.04550000 0.04548030 41800.91219250 0 2612.86732621 0 20277.30129371 0 -1404.39957367 0 2055.09269967 0 2274
0.04650000 0.04648670 39707.58219567 0 2521.43174404 0 24564.68981793 0 -2959.43059115 0 1701.76293802 0 2311
0.04750000 0.04749250 37449.04422722 0 477.29066323 0 22339.65479586 0 2961.41879878 0 -9.01305051 0 2568
0.04850000 0.04851840 37182.11911349 0 -104.37573821 0 23219.07967672 0 1490.85914446 0 -85.38681743 0 2493
0.04950000 0.04949480 37564.60193077 0 211.02901769 0 20781.27348374 0 1790.95766738 0 -559.12023668 0 2644
0.05050000 0.05050630 36613.88717386 0 27.71363724 0 16932.60878841 0 5704.03589632 0 1705.10224808 0 2829
0.05150000 0.05149060 36157.80772028 0 -311.87618164 0 14515.45359189 0 3001.19393610 0 1427.91754357 0 2784
0.05250000 0.05249300 36498.76885321 0 -128.37120747 0 12188.48173626 0 2599.24645621 0 1801.12938159 0 3055
0.05350000 0.05348950 36471.52711320 0 239.19565870 0 10947.73032491 0 1082.61530756 0 3676.09706007 0 3009
0.05450000 0.05448610 35208.74064925 0 907.21584949 0 9319.24547058 0 245.43269901 0 3752.01144118 0 3336
0.05550000 0.05550870 34978.39416222 0 446.32185775 0 9769.64590013 0 -544.89082135 0 820.03569074 0 3349
0.05650000 0.05647670 34119.07104918 0 861.28056387 0 11292.57999652 0 -431.86616024 0 1565.87279062 0 3324
0.05750000 0.05747970 32095.49308825 0 983.88487074 0 10898.15694885 0 -2286.60355140 0 507.23021426 0 3639
0.05850000 0.05849280 31746.29352589 0 -5.14348217 0 13379.20940408 0 -279.51013853 0 267.23268176 0 3846
0.05950000 0.05951020 31827.13998009 0 753.36043363 0 12420.91529208 0 934.71243158 0 -1615.19352151 0 3787
0.06050000 0.06049470 31845.59406202 0 130.64830937 0 12146.41082327 0 1376.03740726 0 571.90078688 0 3930
0.06150000 0.06148310 32672.29299450 0 -889.61087502 0 12820.42419686 0 2261.58069506 0 2198.61712502 0 4083
0.06250000 0.06249100 32848.92492160 0 -218.58310825 0 11432.74314266 0 2579.86967017 0 2010.89077960 0 4303
0.06350000 0.06350600 32706.01563232 0 515.23467230 0 10665.36090213 0 -64.44637749 0 5280.03139468 0 4470
0.06450000 0.06451750 31949.94750155 0 1119.11923916 0 10909.28432087 0 79.12605044 0 4608.18198189 0 4479
0.06550000 0.06550280 31317.67550376 0 603.79778874 0 12916.97858985 0 167.37962162 0 6403.24787941 0 4636
0.06650000 0.06648880 30761.52659397 0 214.38700153 0 12414.87377716 0 -876.62711023 0 5668.16028227 0 4653
0.06750000 0.06749660 29375.27353421 0 899.89463187 0 14489.09061769 0 -1590.03885029 0 4465.90979782 0 5220
0.06850000 0.06852730 29508.29670817 0 316.62920620 0 14803.02970207 0 346.32160434 0 4203.93872632 0 5029
0.06950000 0.06949320 29386.14826106 0 577.51170655 0 13660.41446216 0 985.92360741 0 4085.96441680 0 5040
0.07050000 0.07048030 28623.70907819 0 -116.82092940 0 14938.24979055 0 830.82144256 0 3370.48428171 0 5475
0.07150000 0.07148790 29259.05675629 0 -316.97192486 0 14165.15557227 0 1358.11058481 0 2883.97756209 0 5509
0.07250000 0.07249820 29002.56698652 0 -101.38826400 0 12542.07512765 0 516.53854107 0 1868.20118177 0 5916
0.07350000 0.07351270 28974.99570934 0 413.83937817 0 12875.56675122 0 -489.77792534 0 2545.86143346 0 5721
0.07450000 0.07449140 27706.60711337 0 519.60982756 0 12037.11432609 0 753.70205384 0 3532.10029810 0 6028
0.07550000 0.07549160 28287.80084865 0 152.12424722 0 11158.12882813 0 923.19400877 0 1030.77910955 0 6183
0.07650000 0.07648840 27262.39099818 0 361.60773555 0 10428.42367155 0 2222.01426462 0 3197.13674181 0 6330
0.07750000 0.07749960 27284.57983480 0 -29.79202822 0 9953.59355258 0 1228.52558207 0 2236.39307013 0 6583
0.07850000 0.07848650 26249.06417756 0 589.70787749 0 9130.03620786 0 167.94862248 0 2870.82902871 0 6549
0.07950000 0.07947320 25627.55706090 0 1152.42446323 0 8211.56117147 0 90.51771128 0 1153.47898219 0 6828
0.08050000 0.08048110 24367.07735719 0 825.21271980 0 9019.78405286 0 -1092.81668011 0 2766.99186410 0 7147
0.08150000 0.08149960 23556.30605496 0 460.68089103 0 8865.30800865 0 678.40500571 0 911.75467488 0 7386
0.08250000 0.08250610 22752.89441637 0 279.77816210 0 8731.40606889 0 231.94474234 0 1330.93475225 0 7227
0.08350000 0.08350160 21779.55143993 0 351.04606901 0 8412.74361830 0 965.13750071 0 2163.12597101 0 7798
0.08450000 0.08449610 21845.89825832 0 203.96154369 0 7236.37278685 0 25.41566466 0 -669.63052913 0 7371
0.08550000 0.08548940 21791.41477832 0 251.54451520 0 7217.89673577 0 600.64631486 0 595.90097951 0 8256
0.08650000 0.08650700 21070.27758836 0 202.18863368 0 7588.21963120 0 -315.37696493 0 -477.43016730 0 8037
0.08750000 0.08749060 20714.37743672 0 179.24625538 0 7796.56401935 0 -360.10284911 0 1164.78210738 0 8155
0.08850000 0.08849210 20390.11285412 0 752.48496320 0 7351.39224635 0 493.30507160 0 -1192.79276746 0 8718
0.08950000 0.08949900 20087.37803378 0 306.51900560 0 7801.61692274 0 139.82262439 0 -647.25275787 0 8571
0.09050000 0.09049190 19581.53846641 0 62.54330029 0 7152.46163690 0 178.29938523 0 723.06498245 0 8932
0.09150000 0.09150830 19317.68903300 0 -87.81770334 0 6968.03066326 0 907.23122789 0 806.81905301 0 9285
0.09250000 0.09250820 18850.95454402 0 562.00917927 0 6976.54370701 0 671.69562878 0 902.20578594 0 9204
0.09350000 0.09350330 18768.57024966 0 352.68826261 0 7489.80884544 0 -391.45611462 0 1598.11251114 0 9349
0.09450000 0.09448040 18278.87800398 0 15.36258383 0 6555.68079313 0 1227.17447964 0 2509.24985305 0 9564
0.09550000 0.09549270 18289.64288511 0 -82.40593397 0 6349.12689031 0 578.47065974 0 1388.54883544 0 10155
0.09650000 0.09649430 17708.55899556 0 533.62833909 0 6226.60496773 0 -200.01039293 0 1273.88088226 0 9913
0.09750000 0.09749140 17699.66149177 0 684.76507323 0 6604.73789427 0 -978.47496874 0 1132.35564912 0 10476
0.09850000 0.09850240 17493.59091014 0 -300.02053246 0 6407.70761588 0 344.78486264 0 1056.82572805 0 10575
0.09950000 0.09950330 17125.93726585 0 -187.17162450 0 6457.97302002 0 644.53297770 0 79.38989987 0 10882
0.10050000 0.10051200 17156.25468617 0 515.60704931 0 5902.69189146 0 55.31457276 0 101.72900544 0 10875
0.10150000 0.10150300 16809.25203833 0 216.62675588 0 5243.60655200 0 449.14708982 0 966.29088084 0 11118
0.10250000 0.10250800 16826.60766300 0 -51.25017106 0 5950.94711881 0 594.74759939 0 210.12279045 0 11575
0.10350000 0.10349800 16152.92382659 0 289.24796213 0 5149.73239472 0 169.85774120 0 1370.35838324 0 11364
0.10450000 0.10450100 16425.78060951 0 -139.91709171 0 5294.82761395 0 403.79947883 0 1301.91351149 0 12093
0.10550000 0.10551000 16181.81325248 0 -40.19079354 0 4715.03990396 0 720.14857843 0 803.13153200 0 12067
0.10650000 0.10649700 16474.77180322 0 96.46278165 0 4328.24014965 0 324.86543872 0 184.60013606 0 12054
0.10750000 0.10749900 16132.60236732 0 56.61305909 0 4509.90301100 0 -580.45996583 0 561.03814305 0 12807
0.10850000 0.10850100 15979.69711698 0 280.46909172 0 4553.75342475 0 -682.07055758 0 -495.51736452 0 12736
0.10950000 0.10950300 15997.49212457 0 517.81714531 0 5032.97737276 0 -410.26829363 0 -483.99235096 0 12933
0.11050000 0.11050200 15327.87258001 0 46.79922225 0 4806.69517758 0 15.76066474 0 -278.85545801 0 13428
0.11150000 0.11150900 15252.73810355 0 108.80845262 0 5376.44298823 0 866.28952897 0 -103.94668080 0 13453
0.11250000 0.11250000 15374.33732203 0 188.76328907 0 4424.23432944 0 15.41552947 0 257.15213950 0 13668
0.11350000 0.11349100 15022.94084515 0 -154.19154378 0 4386.75496779 0 702.14925780 0 400.84462881 0 13791
0.11450000 0.11448600 14699.33533690 0 328.39588035 0 4373.85907958 0 49.37466514 0 396.34424942 0 14205
0.11550000 0.11549300 14322.56449736 0 575.54656651 0 4820.38195502 0 -131.62703478 0 1149.48059777 0 14776
0.11650000 0.11649800 14391.76730462 0 49.29997005 0 5114.28517900 0 -158.37666594 0 1140.46226369 0 14553
0.11750000 0.11747300 13697.87185466 0 79.51721107 0 4375.12230543 0 466.90804523 0 663.63075559 0 14568
0.11850000 0.11849100 13906.57873371 0 -22.72752005 0 3957.01651927 0 460.13715469 0 328.31788988 0 16015
0.11950000 0.11950300 13983.14120460 0 89.64191131 0 4554.48939111 0 -104.93792863 0 409.83659992 0 15270
0.12050000 0.12050700 13443.90853658 0 275.85666969 0 3652.61204389 0 -154.23438361 0 878.99428562 0 15999
0.12150000 0.12150000 13612.08234280 0 77.58074077 0 3965.66137789 0 450.22247948 0 287.45308297 0 15670
0.12250000 0.12250700 13571.10988707 0 -107.28082812 0 3752.89020699 0 282.23980482 0 -377.08939214 0 16887
0.12350000 0.12352200 13429.07936360 0 -125.89748173 0 3388.42208874 0 265.93540374 0 160.58456502 0 16407
0.12450000 0.12449800 13608.12789667 0 -53.14918397 0 3112.96196212 0 203.39364129 0 288.63392452 0 16306
0.12550000 0.12549900 13449.95005150 0 86.76384345 0 2953.69664426 0 102.59667683 0 347.30472359 0 17523
0.12650000 0.12650100 13428.96951787 0 206.85158474 0 3118.16864952 0 -343.98079193 0 -196.81168540 0 17154
0.12750000 0.12750600 13091.52344817 0 574.80510787 0 3685.23622446 0 -568.04630036 0 -279.41017892 0 18007
0.12850000 0.12850300 12902.69864550 0 58.10069975 0 4076.72639126 0 -341.03692648 0 37.20178150 0 17496
0.12950000 0.12949900 12582.38850903 0 183.00847149 0 3797.52052539 0 144.53830140 0 -855.17753535 0 18405
0.13050000 0.13049000 12382.90867095 0 28.32976192 0 3902.07168722 0 311.06332327 0 184.73414784 0 18100
0.13150000 0.13148800 12302.72129110 0 51.55675048 0 3811.58077829 0 504.43354208 0 -603.26393851 0 19059
0.13250000 0.13249300 12190.23926787 0 200.34102857 0 3562.25294984 0 203.93078689 0 43.31919981 0 18957
0.13350000 0.13349100 12145.86159464 0 121.90458959 0 3494.25844556 0 -20.35968559 0 -311.94977828 0 19468
0.13450000 0.13450700 11780.84424776 0 -5.66528232 0 3139.06130657 0 72.16787294 0 4.98429375 0 19953
0.13550000 0.13551000 11534.24059331 0 307.48564798 0 3234.44035029 0 -117.15046658 0 -388.96810893 0 19956
0.13650000 0.13649900 11526.11200960 0 183.86087432 0 3488.87600500 0 -35.06769874 0 -143.59143124 0 19723
0.13750000 0.13749600 11491.29091452 0 -176.67916077 0 2991.27486706 0 404.03345023 0 -178.81236477 0 20946
0.13850000 0.13851100 11251.93707797 0 164.41708240 0 3094.29917330 0 252.29146613 0 -592.32330422 0 20955
0.13950000 0.13949800 11076.07407095 0 317.02355236 0 2894.99508839 0 -153.39845764 0 239.29342140 0 20506
0.14050000 0.14048300 10871.34360717 0 152.11216419 0 3312.07930930 0 185.36466231 0 -112.38755591 0 21447
0.14150000 0.14148400 10850.08845923 0 -9.42380762 0 3175.78273271 0 137.18632697 0 378.61514928 0 21771
0.14250000 0.14249400 10861.19386211 0 69.06967424 0 3113.03885413 0 -163.61301168 0 -271.74294726 0 22470
0.14350000 0.14350900 10652.21236875 0 159.57618126 0 3218.31499774 0 131.41173716 0 514.32954352 0 22519
0.14450000 0.14449900 10577.93468895 0 -6.69685452 0 3272.96324634 0 -385.49588554 0 -370.57334369 0 22218
0.14550000 0.14550500 10665.41582499 0 86.38784153 0 3150.49624663 0 70.55808383 0 -490.22280053 0 23559
0.14650000 0.14650700 10679.99235281 0 112.67315480 0 3369.89111479 0 50.80892078 0 -383.41211212 0 23044
0.14750000 0.14750500 10408.13516599 0 3.56916225 0 3031.79695531 0 67.26051514 0 -36.16088340 0 23649
0.14850000 0.14849900 10391.17498593 0 68.75738284 0 3155.51619630 0 329.14942203 0 -458.21046066 0 23640
0.14950000 0.14949500 10127.14979936 0 146.84616010 0 2512.86377743 0 293.83621809 0 -126.80920125 0 24457
0.15050000 0.15050000 10249.49596877 0 46.94597614 0 2679.51072806 0 341.43456800 0 306.79801374 0 24591
0.15150000 0.15149900 9783.53039987 0 110.83214043 0 2646.38125715 0 152.70972494 0 454.93595957 0 25020
0.15250000 0.15250500 9817.69242060 0 257.54428874 0 2451.99826075 0 13.48180531 0 328.36732046 0 25297
0.15350000 0.15350100 9585.05015790 0 160.59225422 0 2758.20420603 0 -158.84131336 0 513.54634349 0 25452
0.15450000 0.15450400 9435.23157246 0 56.07690210 0 2817.12545336 0 127.45179875 0 627.51018557 0 26061
0.15550000 0.15549900 9318.34473562 0 -68.04063948 0 2532.41631662 0 319.92238106 0 1024.83975115 0 26128
0.15650000 0.15649500 9321.76093770 0 76.63079493 0 2605.87015347 0 -2.05741044 0 674.50438399 0 26331
0.15750000 0.15749700 9550.97601375 0 103.17292751 0 2524.78203868 0 46.85579280 0 767.82601726 0 27345
0.15850000 0.15849900 9368.97263065 0 110.73437774 0 2614.17449034 0 -180.42819539 0 521.96821529 0 26980
0.15950000 0.15949700 9216.61660895 0 180.62811461 0 3131.18536803 0 -475.89232714 0 683.00314779 0 27777
0.16050000 0.16050000 8951.67970286 0 130.94818820 0 3096.89153243 0 -140.22356129 0 204.88754316 0 28224
0.16150000 0.16150500 8904.28127217 0 -60.96778304 0 3125.48437486 0 363.17743097 0 494.87476702 0 28075
0.16250000 0.16249700 9028.12134345 0 15.51625800 0 3009.55319584 0 25.91238703 0 -3.70433840 0 28590
0.16350000 0.16349900 8975.32948763 0 231.13517934 0 2820.44279428 0 136.68982429 0 450.00388648 0 29163
0.16450000 0.16449100 8813.24113462 0 -84.41292522 0 2808.39271815 0 230.18391536 0 750.32649469 0 28996
0.16550000 0.16550500 8974.62647498 0 -65.09040298 0 2495.25550758 0 303.07973592 0 153.44788822 0 30777
0.16650000 0.16650700 8811.41769557 0 204.76231903 0 2882.30790705 0 -219.81008501 0 148.58611639 0 29211
0.16750000 0.16749900 8547.91976849 0 197.68495892 0 2508.56880955 0 -246.60804828 0 404.13121293 0 30922
0.16850000 0.16850800 8335.63191878 0 112.86538482 0 2876.00276239 0 19.90832950 0 263.45838262 0 30867
0.16950000 0.16949900 8416.95070960 0 79.89936435 0 2705.40136563 0 208.39491718 0 179.05622228 0 30852
0.17050000 0.17049200 8142.76479340 0 75.19994451 0 2778.84421791 0 147.49864371 0 141.90639781 0 31257
0.17150000 0.17149500 8087.51239331 0 176.88457228 0 2562.12958545 0 98.09366115 0 264.87758940 0 32608
0.17250000 0.17250900 7987.08044620 0 41.10756597 0 2602.27819824 0 230.31133640 0 418.73739909 0 32361
0.17350000 0.17350400 7993.19885313 0 -69.36032603 0 2481.43691527 0 197.34224025 0 628.48341870 0 32508
0.17450000 0.17449800 7930.97124946 0 34.54032941 0 2225.91378788 0 -140.49817560 0 354.33045621 0 32791
0.17550000 0.17549800 7762.09443059 0 172.85323414 0 2285.38426384 0 18.67849675 0 550.73681088 0 33633
0.17650000 0.17650100 7740.45482260 0 20.57190753 0 2121.09899631 0 128.85233175 0 557.05953086 0 33984
0.17750000 0.17750300 7775.00130337 0 17.98460130 0 2329.79489079 0 305.82478061 0 684.01263001 0 34069
0.17850000 0.17849800 7798.45336583 0 109.69974084 0 2129.41431776 0 10.74113248 0 192.99894025 0 34536
