### header ###
fiducial parameters:
Omega_m = 0.31
Omega_nu = 0
Omega_de = 0.69
Omega_k = 0
H_0 = 100
w_de = -1
zeff = 0
beta = 0
fgrowth = 0
b_1 = 2
gamma = 0.55
Lx = 3500 Ly = 3500 Lz = 3500
nx = 700 ny = 700 nz = 700
xoffset = -983.599254 yoffset = -42.9823471 zoffset = 800.977702
bins = 400 dk = 0.001
kx_ny = 0.628318531 ky_ny = 0.628318531 kz_ny = 0.628318531
############################
A(data) = 9.08572767 (not used)
A(ran) = 9.08203384 (used)
Ngal = 504498
weighted Ngal = 0
Nran = 25229228
weighted Nran = 0
SN(data) = 6727.99876
SN(ran) = 134.816535
SN(data+ran) = 6862.81529
############################
13 columns: k_central k_mean P_0(k) sigma^{lin}_{P_0(k)} P^img_1(k) sigma^{lin}_{P_1(k)} P_2(k) sigma^{lin}_{P_2(k)} P^img_3(k) sigma^{lin}_{P_3(k)} P_4(k) sigma^{lin}_{P_4(k)} N_modes
### header ###
0.00050000 0 0 0 0 0 0 0 0 0 0 0 0
0.00150000 0.00179520 31739.70278234 0 -41649.65462805 0 -44203.34806176 0 35706.45163291 0 60094.72921519 0 3
0.00250000 0.00253879 70770.96484417 0 -59627.99472621 0 -27975.61929589 0 -121367.44399400 0 -25683.57838107 0 6
0.00350000 0.00331552 80515.15948963 0 -9977.90241170 0 -56464.76735996 0 -35517.73667597 0 -54574.10272726 0 7
0.00450000 0.00420575 95478.67379712 0 20546.75285913 0 -18162.88091753 0 -57860.02776924 0 27578.63684280 0 24
0.00550000 0.00557378 74367.53359876 0 2855.37373508 0 149.19466171 0 -11596.08373695 0 25473.99273622 0 45
0.00650000 0.00659388 65773.53354829 0 2525.18846786 0 48285.65461589 0 44120.96376740 0 -13874.72347322 0 40
0.00750000 0.00754703 82384.40420580 0 -5548.16481139 0 16560.45146936 0 9096.97264439 0 3370.93464919 0 57
0.00850000 0.00846663 69573.53658708 0 -2940.15266627 0 -5890.78461478 0 25208.93499983 0 29395.48514776 0 75
0.00950000 0.00948925 80489.89497270 0 1772.22897113 0 4031.81047397 0 -24760.43490133 0 12327.21688796 0 112
0.01050000 0.01054430 69429.52884054 0 12443.98289450 0 6631.01299189 0 8464.70064661 0 28355.24612430 0 105
0.01150000 0.01145670 71557.24054955 0 -333.05443758 0 27335.21871440 0 2277.48635615 0 29512.91022865 0 144
0.01250000 0.01249090 63088.02524361 0 530.51201585 0 17535.44213168 0 12806.25409823 0 7385.03799216 0 169
0.01350000 0.01339930 72635.04681123 0 -2398.61323801 0 14633.64759287 0 16195.43412248 0 15118.39678088 0 180
0.01450000 0.01448870 74276.80102924 0 -12758.91059041 0 -7198.53093430 0 27584.23897482 0 46772.52974281 0 267
0.01550000 0.01550050 83231.64428900 0 -6013.89970427 0 -3409.61132925 0 12305.46743425 0 29908.90407021 0 238
0.01650000 0.01653350 99463.43734672 0 229.07996581 0 -24798.00213956 0 -12170.35719150 0 14756.78465150 0 315
0.01750000 0.01747870 83121.13948883 0 9645.73992141 0 -3389.23494711 0 -17177.67460270 0 5134.39793140 0 297
0.01850000 0.01844180 77132.89974611 0 13893.94647524 0 10991.60270780 0 -30222.07423450 0 19859.55799844 0 388
0.01950000 0.01947590 66020.02735702 0 -2325.63173778 0 18721.11689611 0 3210.45004378 0 14126.16033961 0 399
0.02050000 0.02045430 71476.61378680 0 -4101.03525038 0 25126.77039692 0 17639.13649685 0 572.68178999 0 462
0.02150000 0.02154770 75534.31489835 0 233.00804897 0 15028.54297716 0 838.14266019 0 3644.61527505 0 571
0.02250000 0.02255340 76725.15241189 0 2397.09736699 0 20622.87594712 0 -1502.04143935 0 6644.63386189 0 510
0.02350000 0.02348930 70710.76938643 0 4294.40766610 0 14255.88814179 0 -2240.87477574 0 7055.70952160 0 555
0.02450000 0.02439640 63655.48826316 0 2644.18434264 0 32909.44991653 0 250.16595134 0 17191.07578125 0 592
0.02550000 0.02547300 67328.28995146 0 2007.99085244 0 30349.71496790 0 -3134.26104835 0 4253.41324123 0 837
0.02650000 0.02652900 61187.91387849 0 1010.39393975 0 30178.13594418 0 5204.69919592 0 10322.33466956 0 723
0.02750000 0.02749970 62504.63459381 0 1959.72464052 0 31760.24393307 0 362.94126266 0 8951.08653594 0 826
0.02850000 0.02848090 61788.98969014 0 562.65507213 0 31530.66636612 0 -731.08701581 0 10082.71720327 0 831
0.02950000 0.02946900 60771.59857765 0 553.89377704 0 29856.61750472 0 9421.23722699 0 2553.22109709 0 996
0.03050000 0.03053250 63796.09079220 0 1052.46155736 0 28552.41920214 0 -2174.25334303 0 -2284.94488094 0 1041
0.03150000 0.03150510 56414.89740044 0 1862.64298805 0 29136.90830919 0 -214.72093253 0 8392.57594304 0 1036
0.03250000 0.03246190 57360.99863687 0 -352.92333247 0 32209.18341447 0 -548.62887140 0 2053.78553553 0 1059
0.03350000 0.03345080 56803.75126982 0 3024.15169280 0 29874.52235803 0 7590.41654572 0 6518.01469374 0 1302
0.03450000 0.03451200 57025.96917314 0 -2400.38175419 0 30628.06403711 0 2119.49524872 0 2971.44771355 0 1339
0.03550000 0.03553350 56034.39180622 0 1110.33158109 0 28350.52275809 0 -612.06477806 0 3937.22231948 0 1365
0.03650000 0.03647120 51115.61005002 0 3946.29557643 0 22965.00651291 0 2188.65411769 0 -4055.06481413 0 1308
0.03750000 0.03744890 52209.23409622 0 2786.54440329 0 29047.16435120 0 -866.60258929 0 3873.40195278 0 1579
0.03850000 0.03847530 48443.50292388 0 106.03682527 0 27163.96922786 0 -96.11413132 0 844.31818689 0 1662
0.03950000 0.03950240 45241.28032497 0 1228.17407575 0 26333.97492361 0 4701.08949678 0 410.92517107 0 1683
0.04050000 0.04050350 45953.41016542 0 608.19271623 0 20591.56991526 0 4808.00234172 0 -44.09449095 0 1822
0.04150000 0.04152450 45833.56847856 0 1053.40293523 0 21064.34591916 0 -328.59689803 0 -2578.83712035 0 1887
0.04250000 0.04250150 43458.37434929 0 580.10736105 0 17434.82344683 0 1713.72513756 0 957.46477677 0 1920
0.04350000 0.04349210 42058.39057380 0 282.69676304 0 20225.34426540 0 1286.73283218 0 -2641.61395265 0 2005
0.04450000 0.04448520 42367.82598342 0 851.28789820 0 17283.01665376 0 374.39377803 0 -1690.74541172 0 2151
0.04550000 0.04548030 41694.36183846 0 495.66675470 0 17710.31652717 0 3669.50631652 0 -3184.59235992 0 2274
0.04650000 0.04648670 40944.11553115 0 1054.36298688 0 18361.81152697 0 -1668.25999165 0 1745.99781180 0 2311
0.04750000 0.04749250 39032.79990200 0 620.96338031 0 18251.52641826 0 983.19284267 0 2811.11689215 0 2568
0.04850000 0.04851840 38525.09295729 0 337.68333647 0 17439.65665877 0 5818.45120433 0 3201.34383311 0 2493
0.04950000 0.04949480 38011.34449766 0 1081.54101636 0 16620.09769848 0 1712.69258774 0 8923.27359816 0 2644
0.05050000 0.05050630 37091.16685252 0 281.64224407 0 16781.57091542 0 555.34483908 0 6014.81142379 0 2829
0.05150000 0.05149060 35592.54161525 0 1773.87665702 0 18432.88171157 0 -998.15822435 0 6212.67652970 0 2784
0.05250000 0.05249300 34363.14825194 0 1529.01954961 0 16461.91985330 0 -1857.73288410 0 6497.77012648 0 3055
0.05350000 0.05348950 32289.81017721 0 85.55861614 0 19618.66632173 0 1234.84171130 0 7646.41589674 0 3009
0.05450000 0.05448610 32531.80031118 0 -716.42920216 0 17926.27322412 0 992.56048616 0 4669.31112830 0 3336
0.05550000 0.05550870 33918.82229103 0 -431.39931590 0 16523.98268839 0 3009.30055067 0 2324.82986398 0 3349
0.05650000 0.05647670 35533.33476903 0 -473.48780420 0 15246.58674290 0 319.92457797 0 1606.13124913 0 3324
0.05750000 0.05747970 33995.82414482 0 -258.16052326 0 12147.17974335 0 672.54913007 0 1052.09357418 0 3639
0.05850000 0.05849280 35254.21677974 0 1333.01083646 0 14101.77458848 0 -838.22833985 0 -1564.87319451 0 3846
0.05950000 0.05951020 33061.14686388 0 1071.79660202 0 13963.69851113 0 -1588.12753467 0 -1109.93613648 0 3787
0.06050000 0.06049470 32179.74475995 0 562.44306988 0 14863.33500554 0 364.46152751 0 -1109.25509298 0 3930
0.06150000 0.06148310 31983.67013937 0 -717.75723698 0 12569.75625056 0 3154.18706301 0 -22.97939630 0 4083
0.06250000 0.06249100 32283.43912512 0 -987.57788404 0 10996.43591973 0 4413.04104998 0 1507.41289534 0 4303
0.06350000 0.06350600 33077.95325992 0 -515.74984875 0 8314.37677083 0 1851.29592457 0 1076.91541285 0 4470
0.06450000 0.06451750 32104.39059204 0 1387.75794621 0 7315.58253973 0 12.28602474 0 2571.78502475 0 4479
0.06550000 0.06550280 32705.68609514 0 785.90662373 0 7432.54626858 0 1141.15429176 0 1431.13602333 0 4636
0.06650000 0.06648880 31804.51176057 0 202.74994533 0 7831.51692930 0 -719.92229624 0 4646.77078537 0 4653
0.06750000 0.06749660 30402.66060774 0 694.85110778 0 8458.77996199 0 -510.85182784 0 1088.42614645 0 5220
0.06850000 0.06852730 29333.64200412 0 24.23877755 0 7143.90465486 0 -1183.42292705 0 761.11444342 0 5029
0.06950000 0.06949320 28660.17785916 0 1087.24530490 0 9563.04805902 0 -195.00911704 0 -730.30271733 0 5040
0.07050000 0.07048030 27826.11926306 0 1930.73635348 0 10896.46532467 0 -1429.51030659 0 1352.66223681 0 5475
0.07150000 0.07148790 27225.04345141 0 -531.40725851 0 9645.22364650 0 696.83931542 0 -729.63155994 0 5509
0.07250000 0.07249820 27511.85064151 0 -566.50846019 0 10129.57738990 0 1533.61110094 0 -1168.09944830 0 5916
0.07350000 0.07351270 27235.47879536 0 696.00888173 0 8986.40193679 0 450.86837234 0 116.20359642 0 5721
0.07450000 0.07449140 26532.02676725 0 30.28457645 0 8606.42360205 0 245.46784965 0 853.39583767 0 6028
0.07550000 0.07549160 27062.91116011 0 117.32072746 0 8670.34282991 0 1299.92530385 0 -551.59141063 0 6183
0.07650000 0.07648840 26978.76933413 0 523.81362349 0 7987.53081368 0 -163.76789416 0 -303.97168321 0 6330
0.07750000 0.07749960 26071.88302182 0 -468.22729240 0 7606.24531481 0 -125.96338916 0 1421.46959946 0 6583
0.07850000 0.07848650 25782.32968857 0 458.73003094 0 6493.35432830 0 1942.34704670 0 -341.87285245 0 6549
0.07950000 0.07947320 25839.22977455 0 499.54650574 0 7132.34888450 0 -405.19122418 0 -368.88171951 0 6828
0.08050000 0.08048110 24757.57891246 0 1178.63365341 0 8274.08535861 0 -1475.01939080 0 -333.10936044 0 7147
0.08150000 0.08149960 24533.38378608 0 731.63844135 0 10130.55501686 0 -1357.77006306 0 -859.27807629 0 7386
0.08250000 0.08250610 23420.42689213 0 -136.97102935 0 9067.66580475 0 223.07030615 0 -1801.78845595 0 7227
0.08350000 0.08350160 22845.05498032 0 392.12068127 0 9989.60098150 0 549.95361086 0 -877.27080618 0 7798
0.08450000 0.08449610 22454.44357933 0 291.96115155 0 9225.61297389 0 470.44507760 0 -744.46512676 0 7371
0.08550000 0.08548940 22850.10788371 0 4.80690388 0 9360.75617036 0 854.43387978 0 -796.91646083 0 8256
0.08650000 0.08650700 22055.70359463 0 706.42774882 0 9831.86251923 0 -848.68125912 0 -1810.19165397 0 8037
0.08750000 0.08749060 21045.12291714 0 979.45149725 0 9012.96263329 0 3.76399561 0 185.97650300 0 8155
0.08850000 0.08849210 20638.25434873 0 96.28274451 0 9336.85374042 0 1219.52921713 0 221.25235939 0 8718
0.08950000 0.08949900 19880.20899489 0 22.31417059 0 9220.02182645 0 1560.88579466 0 493.40393275 0 8571
0.09050000 0.09049190 20069.14364329 0 343.29755151 0 7916.43865993 0 685.19566848 0 1218.03531525 0 8932
0.09150000 0.09150830 19193.67320856 0 224.49390676 0 7441.89413984 0 780.81527434 0 2087.42029678 0 9285
0.09250000 0.09250820 19147.53800372 0 106.21741164 0 7812.51361874 0 117.07686994 0 2090.64976112 0 9204
0.09350000 0.09350330 18802.95196184 0 224.67625066 0 6980.34436912 0 970.26729611 0 1567.55343022 0 9349
0.09450000 0.09448040 18936.52436443 0 122.08473658 0 6461.12559235 0 -251.19630425 0 2749.96577659 0 9564
0.09550000 0.09549270 18363.78875004 0 281.16771054 0 6800.79054571 0 -337.62951206 0 1399.31371656 0 10155
0.09650000 0.09649430 17773.36797379 0 641.84615124 0 7916.72425882 0 -525.10211385 0 1747.56860568 0 9913
0.09750000 0.09749140 17256.32414239 0 429.96473072 0 7733.71029504 0 146.67809614 0 1222.92345005 0 10476
0.09850000 0.09850240 17109.46040697 0 -218.09429477 0 7600.56629078 0 465.27134391 0 1524.61473600 0 10575
0.09950000 0.09950330 17224.90826480 0 -70.88421579 0 6610.48282573 0 1005.08070199 0 884.15703473 0 10882
0.10050000 0.10051200 17240.83589505 0 254.97719413 0 6638.71317727 0 261.18896992 0 1228.54755122 0 10875
0.10150000 0.10150300 16701.38353558 0 391.74720580 0 6285.27356989 0 -366.84627821 0 499.27628525 0 11118
0.10250000 0.10250800 16125.13285796 0 452.12061362 0 6095.33932539 0 -278.46330877 0 77.32106547 0 11575
0.10350000 0.10349800 16189.94183619 0 123.44572513 0 6829.69095617 0 95.22504002 0 490.71710630 0 11364
0.10450000 0.10450100 15588.53648736 0 -77.70980950 0 6016.54698626 0 212.93374257 0 -767.71836845 0 12093
0.10550000 0.10551000 15991.45060965 0 -88.74930494 0 5889.26874376 0 986.93528654 0 -827.31516699 0 12067
0.10650000 0.10649700 15751.43769874 0 226.59525549 0 5418.12944117 0 -554.86371480 0 -1010.86407946 0 12054
0.10750000 0.10749900 15515.59892542 0 293.91530702 0 5830.19371242 0 -183.40281765 0 -1016.19269562 0 12807
0.10850000 0.10850100 15567.33626228 0 10.69535977 0 5333.77890832 0 294.50188319 0 -889.93711682 0 12736
0.10950000 0.10950300 15441.89244340 0 -90.74124733 0 5963.56839270 0 252.29146613 0 -963.35580304 0 12933
0.11050000 0.11050200 15320.62276210 0 273.39283006 0 5685.36212293 0 -265.74976446 0 -413.27257423 0 13428
0.11150000 0.11150900 15126.85490177 0 131.47764460 0 6372.44713790 0 -77.97278017 0 -700.11052113 0 13453
0.11250000 0.11250000 15006.57383200 0 219.95508137 0 6328.55278586 0 -141.71966007 0 -900.19780607 0 13668
0.11350000 0.11349100 15027.33467418 0 127.06514179 0 6034.12230239 0 165.89011358 0 -1091.32277824 0 13791
0.11450000 0.11448600 14928.58336667 0 -121.71345803 0 5811.10252527 0 692.50260616 0 -20.06387105 0 14205
0.11550000 0.11549300 14944.73068837 0 -237.46229315 0 5747.07345170 0 387.41049654 0 -445.35301845 0 14776
0.11650000 0.11649800 14822.91177844 0 383.63619740 0 5050.09133684 0 93.38863917 0 -938.70312680 0 14553
0.11750000 0.11747300 14492.38598947 0 459.03650052 0 5592.69626864 0 310.37019674 0 128.73809220 0 14568
0.11850000 0.11849100 14109.24409783 0 172.99383667 0 5279.64693464 0 46.16167766 0 -176.56052739 0 16015
0.11950000 0.11950300 13971.27786621 0 89.86632613 0 5143.84466382 0 378.15379723 0 512.28970839 0 15270
0.12050000 0.12050700 13756.19993507 0 52.12794826 0 4943.71673596 0 812.71996540 0 666.13413968 0 15999
0.12150000 0.12150000 13628.88873885 0 -159.46413862 0 3819.79723858 0 752.39598816 0 1171.37285093 0 15670
0.12250000 0.12250700 13819.58091886 0 41.76554187 0 4029.04236168 0 189.90129079 0 638.65732982 0 16887
0.12350000 0.12352200 13632.73333925 0 163.44934155 0 3686.25778971 0 337.07479115 0 1797.16395089 0 16407
0.12450000 0.12449800 13625.04413845 0 132.25535234 0 3637.61810232 0 298.12020140 0 1865.53193063 0 16306
0.12550000 0.12549900 13529.03897409 0 -69.26465041 0 3218.65551949 0 -83.94322490 0 1290.17100340 0 17523
0.12650000 0.12650100 13227.29276528 0 322.73113627 0 3443.63055053 0 -84.99521742 0 1014.98658955 0 17154
0.12750000 0.12750600 12930.37976840 0 479.33159682 0 3892.40526334 0 -556.90245147 0 1169.62630389 0 18007
0.12850000 0.12850300 12581.50974322 0 4.36250103 0 4123.68543904 0 76.16570813 0 995.10341472 0 17496
0.12950000 0.12949900 12352.04202199 0 30.94694618 0 3597.16192150 0 217.03428352 0 266.38137738 0 18405
0.13050000 0.13049000 12440.68752273 0 28.26418402 0 3200.15749927 0 174.48993545 0 711.70034366 0 18100
0.13150000 0.13148800 12478.80398958 0 -45.47920617 0 3279.12559156 0 292.04573276 0 -155.79748829 0 19059
0.13250000 0.13249300 12111.80941964 0 136.66895360 0 3071.76981494 0 276.37514152 0 633.82301943 0 18957
0.13350000 0.13349100 12297.44869627 0 225.96474103 0 2906.53987417 0 -261.94580698 0 -492.49111477 0 19468
0.13450000 0.13450700 11975.93025681 0 349.77185859 0 3050.45974413 0 -178.72998047 0 -46.52999038 0 19953
0.13550000 0.13551000 11890.79981930 0 -56.17071035 0 3040.43082936 0 -80.48714883 0 -172.38858672 0 19956
0.13650000 0.13649900 11638.15464993 0 -14.66660131 0 3054.67782000 0 447.27092482 0 -27.20812721 0 19723
0.13750000 0.13749600 11719.00110413 0 -116.92088901 0 2625.47761553 0 622.29141513 0 478.61430423 0 20946
0.13850000 0.13851100 11665.83577284 0 8.78155064 0 2452.38272079 0 336.75953391 0 385.12790236 0 20955
0.13950000 0.13949800 11760.74247994 0 143.52662226 0 2569.48924908 0 -72.77520996 0 690.07611408 0 20506
0.14050000 0.14048300 11480.74572484 0 322.10172026 0 2648.31454193 0 -480.67940387 0 624.83873752 0 21447
0.14150000 0.14148400 11294.99660249 0 251.44235867 0 3185.99838521 0 -220.38677507 0 651.71249434 0 21771
0.14250000 0.14249400 11127.59171635 0 84.97127105 0 3394.47458823 0 -74.65181434 0 603.93729281 0 22470
0.14350000 0.14350900 11016.64753328 0 95.49899526 0 3357.63233179 0 -72.31275945 0 225.31665125 0 22519
0.14450000 0.14449900 11022.90873965 0 178.07310303 0 3509.32927914 0 109.31846633 0 174.96556745 0 22218
0.14550000 0.14550500 10608.69149218 0 108.22330444 0 3546.92947109 0 -77.63006150 0 250.50537463 0 23559
0.14650000 0.14650700 10545.47527698 0 147.16251579 0 3849.92792117 0 95.46516277 0 769.90539685 0 23044
0.14750000 0.14750500 10191.36561067 0 81.29967766 0 3353.83166968 0 94.44535505 0 673.21369671 0 23649
0.14850000 0.14849900 10312.14098620 0 93.47574683 0 3325.26079640 0 518.74753861 0 432.85147640 0 23640
0.14950000 0.14949500 10307.80208003 0 146.04208938 0 3529.05757150 0 -26.91582773 0 1010.85089797 0 24457
0.15050000 0.15050000 9927.41731611 0 4.88035772 0 3329.00653565 0 412.82440367 0 1484.29037005 0 24591
0.15150000 0.15149900 9897.24269523 0 39.13253982 0 3151.71553418 0 138.07827426 0 1405.78362982 0 25020
0.15250000 0.15250500 9974.73885480 0 75.98578083 0 2854.27527783 0 163.78327256 0 1487.35506580 0 25297
0.15350000 0.15350100 9925.96735253 0 45.96747042 0 2900.99266502 0 580.78950301 0 1991.79959246 0 25452
0.15450000 0.15450400 9875.94360900 0 -62.24144423 0 2826.97861496 0 100.81508900 0 1813.95936237 0 26061
0.15550000 0.15549900 9782.12437458 0 197.80469076 0 2729.89696249 0 -148.29502522 0 1870.21135855 0 26128
0.15650000 0.15649500 9779.91647549 0 320.18051852 0 2906.36412101 0 -396.48595041 0 1605.21952960 0 26331
0.15750000 0.15749700 9519.47225959 0 -21.18001347 0 2990.54988527 0 61.79283429 0 1583.67878277 0 27345
0.15850000 0.15849900 9525.82134254 0 19.11787966 0 3026.67814449 0 -107.08101874 0 914.02408758 0 26980
0.15950000 0.15949700 9368.18174143 0 63.29848965 0 2699.86514105 0 164.45223303 0 1115.21971589 0 27777
0.16050000 0.16050000 9271.78113245 0 -53.36854589 0 2650.95083935 0 420.87609537 0 1266.19168145 0 28224
0.16150000 0.16150500 9344.72967896 0 225.76701872 0 2734.90592759 0 -201.54383927 0 335.66547048 0 28075
0.16250000 0.16249700 9108.62727590 0 205.24344331 0 2361.81491986 0 -266.14850445 0 551.04328046 0 28590
0.16350000 0.16349900 8896.39434906 0 54.46337824 0 2874.25621535 0 126.75537685 0 457.98967075 0 29163
0.16450000 0.16449100 8673.73706283 0 82.37946115 0 2519.33369068 0 -69.25322645 0 441.72042030 0 28996
0.16550000 0.16550500 8624.76783827 0 72.03067563 0 2491.78438264 0 214.05746435 0 306.07413041 0 30777
0.16650000 0.16650700 8493.15068960 0 161.98949186 0 2509.70022052 0 92.81348695 0 179.19572635 0 29211
0.16750000 0.16749900 8442.01750423 0 168.31440875 0 2615.29491675 0 -39.32894398 0 166.88202048 0 30922
0.16850000 0.16850800 8201.52127213 0 108.67158485 0 2416.74876734 0 18.48264183 0 371.85084948 0 30867
0.16950000 0.16949900 8100.19957464 0 71.87436516 0 2607.88033025 0 -10.59656452 0 99.51748144 0 30852
0.17050000 0.17049200 8088.34722083 0 55.29458084 0 2512.56719397 0 -45.34870944 0 272.84140452 0 31257
0.17150000 0.17149500 8037.98295554 0 -76.36189260 0 2400.79916795 0 135.00039702 0 -41.52366158 0 32608
0.17250000 0.17250900 8061.47895629 0 47.90580810 0 2502.46138719 0 51.88705658 0 52.11850153 0 32361
0.17350000 0.17350400 7917.66893206 0 153.80928066 0 2366.77994667 0 -207.80394718 0 65.21024467 0 32508
0.17450000 0.17449800 7934.34351324 0 165.10581510 0 2607.07845646 0 -49.28426211 0 -234.68759011 0 32791
0.17550000 0.17549800 7641.69253053 0 134.60824778 0 2603.47551665 0 60.94548436 0 282.98895267 0 33633
0.17650000 0.17650100 7736.21477759 0 -139.98629452 0 2760.03862965 0 212.13845952 0 -40.12884055 0 33984
0.17750000 0.17750300 7759.72176291 0 84.98148670 0 2351.78600509 0 314.63880165 0 201.71959243 0 34069
0.17850000 0.17849800 7723.74728771 0 27.17934763 0 2285.71380102 0 2.86343641 0 252.67372926 0 34536
