### header ###
fiducial parameters:
Omega_m = 0.31
Omega_nu = 0
Omega_de = 0.69
Omega_k = 0
H_0 = 100
w_de = -1
zeff = 0
beta = 0
fgrowth = 0
b_1 = 2
gamma = 0.55
Lx = 3500 Ly = 3500 Lz = 3500
nx = 700 ny = 700 nz = 700
xoffset = -983.599254 yoffset = -42.9823471 zoffset = 800.977702
bins = 400 dk = 0.001
kx_ny = 0.628318531 ky_ny = 0.628318531 kz_ny = 0.628318531
############################
A(data) = 9.04449908 (not used)
A(ran) = 9.04121908 (used)
Ngal = 501893
weighted Ngal = 0
Nran = 25229228
weighted Nran = 0
SN(data) = 6768.49304
SN(ran) = 134.210668
SN(data+ran) = 6902.70371
############################
13 columns: k_central k_mean P_0(k) sigma^{lin}_{P_0(k)} P^img_1(k) sigma^{lin}_{P_1(k)} P_2(k) sigma^{lin}_{P_2(k)} P^img_3(k) sigma^{lin}_{P_3(k)} P_4(k) sigma^{lin}_{P_4(k)} N_modes
### header ###
0.00050000 0 0 0 0 0 0 0 0 0 0 0 0
0.00150000 0.00179520 370.08233330 0 -217.94819996 0 -2455.11787937 0 13911.41194564 0 28639.85639988 0 3
0.00250000 0.00253879 7808.62508004 0 88.33200103 0 12849.97269711 0 -17790.72359847 0 -20082.76451329 0 6
0.00350000 0.00331552 19294.62143058 0 -4162.37310368 0 -5852.67913249 0 15137.72962862 0 18141.46100099 0 7
0.00450000 0.00420575 18184.52052551 0 -2409.30122713 0 1566.60875698 0 5958.14201385 0 8411.70008391 0 24
0.00550000 0.00557378 31143.24049117 0 -11052.12770272 0 -4521.38188935 0 367.29444877 0 -7163.21553346 0 45
0.00650000 0.00659388 40594.03720298 0 -3202.85970412 0 -13824.74366798 0 7884.05613996 0 -4173.18192310 0 40
0.00750000 0.00754703 50298.46769570 0 -5099.37911401 0 -10886.66708593 0 -11283.02341838 0 -1925.95806440 0 57
0.00850000 0.00846663 57297.72749880 0 -20070.13225482 0 -18360.93276117 0 11150.65931877 0 -9729.34350333 0 75
0.00950000 0.00948925 82297.62608241 0 -5700.04849648 0 -19340.64678970 0 -19637.44994084 0 -16584.39783759 0 112
0.01050000 0.01054430 81006.93880410 0 -1293.57622090 0 -8126.61747170 0 -29308.59717864 0 -31662.37139137 0 105
0.01150000 0.01145670 80699.81015473 0 9617.22397099 0 -5144.85524450 0 -21096.75040828 0 -15230.98864984 0 144
0.01250000 0.01249090 70978.13388306 0 482.76866958 0 3452.92349894 0 -9187.21090815 0 -19554.62626358 0 169
0.01350000 0.01339930 77900.28198664 0 1584.09619653 0 16516.62302476 0 17916.82649170 0 -34813.51572778 0 180
0.01450000 0.01448870 80583.81306827 0 -2055.61995915 0 -1267.88330563 0 -9879.43670308 0 -20091.33247991 0 267
0.01550000 0.01550050 80069.73507146 0 -12206.27674384 0 -2388.91386042 0 1662.25143044 0 -13719.84099982 0 238
0.01650000 0.01653350 78310.33608111 0 6469.13334576 0 7211.42682251 0 -11066.40764707 0 -21656.63407275 0 315
0.01750000 0.01747870 73618.27590298 0 11092.77062127 0 3637.05788912 0 -5370.32458130 0 -8225.98391527 0 297
0.01850000 0.01844180 74995.96099614 0 2575.27811883 0 22551.21766377 0 1069.29980867 0 -24764.71888464 0 388
0.01950000 0.01947590 67898.38926843 0 4841.19772006 0 27038.63525470 0 -2397.26213558 0 -10112.29865723 0 399
0.02050000 0.02045430 59865.04180251 0 3906.61930026 0 20760.07325866 0 6796.14407150 0 5648.73955795 0 462
0.02150000 0.02154770 59369.52773337 0 -2394.92242162 0 28122.48303130 0 6114.10097536 0 8755.78083544 0 571
0.02250000 0.02255340 61057.08761904 0 -2131.16086480 0 8102.26467429 0 4723.51999399 0 -2270.12669252 0 510
0.02350000 0.02348930 62864.48919158 0 760.32025882 0 20481.06511509 0 6555.17550279 0 7638.64980392 0 555
0.02450000 0.02439640 63743.69438099 0 -907.29713533 0 12676.96567895 0 -6187.54382764 0 6746.36198857 0 592
0.02550000 0.02547300 64815.45912775 0 96.56592679 0 20584.86932599 0 -1182.56613039 0 6879.74765342 0 837
0.02650000 0.02652900 61503.06126584 0 831.81774329 0 18845.68194918 0 1019.29254200 0 336.08068733 0 723
0.02750000 0.02749970 67996.48150158 0 3313.19973570 0 23410.65062254 0 -3826.70653474 0 -8891.08880050 0 826
0.02850000 0.02848090 59008.46483262 0 2130.39194472 0 25812.64710890 0 -5470.17434607 0 2484.39176529 0 831
0.02950000 0.02946900 62674.01670302 0 -1139.04525382 0 28212.11714357 0 9085.69148835 0 704.84926574 0 996
0.03050000 0.03053250 60575.41411135 0 -1369.27091055 0 24406.40212703 0 2838.38060130 0 2781.56839191 0 1041
0.03150000 0.03150510 61652.67114440 0 1222.81360433 0 25994.00240222 0 6383.01429672 0 2370.72340822 0 1036
0.03250000 0.03246190 57108.68300468 0 3170.35635385 0 20668.35207760 0 -1752.81923138 0 -2332.67284880 0 1059
0.03350000 0.03345080 57533.67611785 0 2433.96159257 0 24813.38054117 0 -2872.52065288 0 9676.90315382 0 1302
0.03450000 0.03451200 55008.10318995 0 770.85007010 0 25618.76940284 0 3715.20213846 0 1383.62774692 0 1339
0.03550000 0.03553350 53775.08491769 0 -132.82764857 0 22734.00095153 0 3154.65939964 0 287.36630484 0 1365
0.03650000 0.03647120 53515.51946759 0 2069.52642804 0 25585.48614792 0 1441.07706152 0 -2159.95142953 0 1308
0.03750000 0.03744890 50049.77697245 0 583.63340885 0 16617.24170960 0 -721.85228564 0 -789.56888023 0 1579
0.03850000 0.03847530 48110.78022040 0 1557.65633032 0 22339.65479586 0 -1388.36209770 0 -5396.53377148 0 1662
0.03950000 0.03950240 45293.23735328 0 3724.87954691 0 20504.02287179 0 503.31531259 0 -1212.27939922 0 1683
0.04050000 0.04050350 43495.72189607 0 108.39224717 0 19363.60454639 0 6524.13310067 0 -747.49686879 0 1822
0.04150000 0.04152450 43331.61238171 0 -1462.62879292 0 14710.53960093 0 6196.54019258 0 -111.53515308 0 1887
0.04250000 0.04250150 44525.96495847 0 29.14921103 0 10798.46096810 0 2371.51429745 0 689.54336231 0 1920
0.04350000 0.04349210 41126.45943600 0 2389.28733589 0 10105.65299082 0 -2252.17790093 0 200.17296461 0 2005
0.04450000 0.04448520 39616.30039752 0 1732.66254069 0 11586.41731308 0 -2774.81287977 0 2652.24701891 0 2151
0.04550000 0.04548030 37957.08070911 0 316.78958096 0 12315.35354957 0 -644.60218050 0 -2314.08695199 0 2274
0.04650000 0.04648670 38990.06991466 0 9.78976964 0 16334.93819426 0 -91.94878140 0 -5529.88648262 0 2311
0.04750000 0.04749250 37925.33529435 0 781.92361772 0 13764.10882733 0 -316.15796804 0 -4073.76055666 0 2568
0.04850000 0.04851840 36530.84380514 0 766.44086266 0 12845.57886807 0 1886.69920200 0 -3184.28479189 0 2493
0.04950000 0.04949480 37949.83089120 0 -1486.56417658 0 13111.07598737 0 1418.58065687 0 -3148.07964066 0 2644
0.05050000 0.05050630 38987.32377151 0 281.22263340 0 12524.60965725 0 1126.58874852 0 -5722.77557715 0 2829
0.05150000 0.05149060 35987.43699955 0 1834.33574450 0 12069.51881520 0 -1286.90858534 0 -1172.85576823 0 2784
0.05250000 0.05249300 34922.04330488 0 1060.56597501 0 12549.98401991 0 1248.71522647 0 1421.45861489 0 3055
0.05350000 0.05348950 35772.79845131 0 -222.51009295 0 13100.42095196 0 3056.29255217 0 -282.73960287 0 3009
0.05450000 0.05448610 35654.60445033 0 0.10135553 0 12659.82974572 0 1186.86109827 0 -658.09123563 0 3336
0.05550000 0.05550870 34334.25882605 0 1282.76740148 0 12110.05188803 0 -2164.79562604 0 1432.45417204 0 3349
0.05650000 0.05647670 33219.32470905 0 183.91799410 0 12530.65117217 0 864.12886354 0 2754.84292682 0 3324
0.05750000 0.05747970 33639.70430173 0 -1049.35731715 0 12341.16729514 0 743.61492084 0 3448.04634871 0 3639
0.05850000 0.05849280 34225.95094040 0 93.80056064 0 12837.23059291 0 1035.84080059 0 -695.79578102 0 3846
0.05950000 0.05951020 34165.97517411 0 1496.21961588 0 12487.48180192 0 -853.47822197 0 659.89819782 0 3787
0.06050000 0.06049470 33908.38694707 0 31.62502384 0 15863.80987625 0 -1652.46417627 0 485.44011763 0 3930
0.06150000 0.06148310 32710.40946135 0 1084.38711911 0 15587.76756728 0 -953.60809333 0 -292.81575130 0 4083
0.06250000 0.06249100 33471.20095834 0 -323.41327823 0 15860.29481302 0 458.22583906 0 -1560.87481009 0 4303
0.06350000 0.06350600 32078.24730930 0 677.24723176 0 15376.31454509 0 1094.67087597 0 -1289.38011417 0 4470
0.06450000 0.06451750 31326.79269901 0 966.66325785 0 16850.99341414 0 -1010.37416752 0 1424.64414094 0 4479
0.06550000 0.06550280 30728.24333905 0 812.72875306 0 16128.31838401 0 2180.18501223 0 2290.48110552 0 4636
0.06650000 0.06648880 30334.77594919 0 -1007.25235199 0 16666.78213195 0 1823.26329534 0 4307.72096807 0 4653
0.06750000 0.06749660 31199.81103997 0 -283.94351203 0 13989.95163960 0 3198.99313457 0 3196.54357489 0 5220
0.06850000 0.06852730 30956.72244874 0 957.25387297 0 14800.94263328 0 -1503.89783211 0 2609.00075666 0 5029
0.06950000 0.06949320 29514.88745171 0 1828.89838108 0 15575.13530881 0 -1873.84725208 0 4045.23362167 0 5040
0.07050000 0.07048030 28734.32372408 0 738.25335096 0 16737.41293364 0 749.64325427 0 3081.83168342 0 5475
0.07150000 0.07148790 29216.43661468 0 -1053.72917704 0 15606.11180349 0 1614.62232373 0 2989.68210404 0 5509
0.07250000 0.07249820 28439.60764173 0 -118.38623100 0 15026.78544555 0 1892.47708718 0 3196.68637433 0 5916
0.07350000 0.07351270 28320.09549204 0 -74.52208653 0 11394.84636726 0 1138.56193263 0 3188.99717353 0 5721
0.07450000 0.07449140 28500.02279092 0 308.32377087 0 11066.51749280 0 1653.55164896 0 1598.60681691 0 6028
0.07550000 0.07549160 28166.97055026 0 522.42187814 0 10752.16099467 0 154.62213903 0 967.23006179 0 6183
0.07650000 0.07648840 26395.04914716 0 1282.69050947 0 10830.27229029 0 -990.50307572 0 2176.07678208 0 6330
0.07750000 0.07749960 25832.85872245 0 608.04222758 0 9513.03530006 0 674.00458593 0 -1336.84445229 0 6583
0.07850000 0.07848650 25199.48826741 0 41.09943739 0 10450.70038474 0 -118.32142202 0 -547.81161920 0 6549
0.07950000 0.07947320 24148.37451710 0 292.42470052 0 9262.11470858 0 433.85546633 0 -1449.29352181 0 6828
0.08050000 0.08048110 24168.47628492 0 300.49286908 0 8124.92584752 0 1414.88984049 0 30.73351593 0 7147
0.08150000 0.08149960 23910.22898354 0 -89.95870638 0 7658.24628141 0 1596.02544235 0 -982.51838991 0 7386
0.08250000 0.08250610 23991.29512919 0 262.55984458 0 7737.84049433 0 1037.04910358 0 -988.09855278 0 7227
0.08350000 0.08350160 23069.68948961 0 840.52741089 0 6862.50187447 0 -998.22852562 0 733.07851882 0 7798
0.08450000 0.08449610 22328.99976045 0 272.14498262 0 7635.60707732 0 132.32675206 0 1113.35233855 0 7371
0.08550000 0.08548940 22629.09828337 0 -128.73809220 0 7137.16012729 0 1074.02097797 0 2319.74400687 0 8256
0.08650000 0.08650700 22099.86157640 0 244.47704120 0 7355.59933764 0 506.18667986 0 1131.23522272 0 8037
0.08750000 0.08749060 21796.35783598 0 412.44323900 0 7230.29831821 0 361.47921605 0 3379.46966209 0 8155
0.08850000 0.08849210 21357.74385281 0 333.31477195 0 6950.22467110 0 -42.75657001 0 2514.47850960 0 8718
0.08950000 0.08949900 20990.20005424 0 366.01694298 0 7708.54463926 0 -657.88911950 0 1336.54786883 0 8571
0.09050000 0.09049190 20425.81271501 0 908.37142653 0 7905.53097936 0 -621.94100727 0 1208.00640049 0 8932
0.09150000 0.09150830 19725.21667577 0 264.23279499 0 8545.40430137 0 127.53637996 0 1952.61762206 0 9285
0.09250000 0.09250820 18827.44755870 0 -20.38593872 0 8253.12679412 0 447.39724741 0 647.25275787 0 9204
0.09350000 0.09350330 18962.66764717 0 449.58427581 0 7880.57403045 0 634.52603208 0 1263.87393664 0 9349
0.09450000 0.09448040 18470.77848698 0 -82.45415624 0 6972.97372092 0 1904.99949992 0 2550.79350655 0 9564
0.09550000 0.09549270 18393.77663319 0 34.33392929 0 6269.15920191 0 617.92944136 0 1943.98374801 0 10155
0.09650000 0.09649430 18068.52343905 0 676.26740788 0 6173.26388328 0 -111.74276150 0 3197.22461839 0 9913
0.09750000 0.09749140 17622.98917515 0 492.88326401 0 6307.97868142 0 64.04071722 0 2668.78978522 0 10476
0.09850000 0.09850240 17067.27964826 0 -261.49763641 0 5811.94833736 0 395.01291923 0 3278.86196181 0 10575
0.09950000 0.09950330 16683.69837372 0 206.75272358 0 6397.68968569 0 107.33256545 0 1962.05336991 0 10882
0.10050000 0.10051200 16774.10140607 0 669.26693978 0 6177.17439112 0 -755.51011449 0 2666.46105583 0 10875
0.10150000 0.10150300 16529.80451186 0 19.89811385 0 5811.61880018 0 495.71288991 0 2076.33686304 0 11118
0.10250000 0.10250800 16315.16596362 0 -3.73201952 0 6011.66983604 0 315.26602074 0 1141.31906035 0 11575
0.10350000 0.10349800 16162.26071329 0 257.13126881 0 6135.68566048 0 -27.41771285 0 1903.51658262 0 11364
0.10450000 0.10450100 16063.50940578 0 94.59683231 0 6066.20823890 0 -172.42922964 0 995.64934797 0 12093
0.10550000 0.10551000 15746.27494963 0 2.39187970 0 5645.97144566 0 -37.92138085 0 1366.53575198 0 12067
0.10650000 0.10649700 16105.36062731 0 -36.42649037 0 5684.43941884 0 470.09796511 0 -52.80327978 0 12054
0.10750000 0.10749900 16027.91939062 0 209.15395115 0 5791.72573924 0 -60.93186349 0 708.45769783 0 12807
0.10850000 0.10850100 15951.68645690 0 32.19863822 0 5844.05624302 0 -187.58244751 0 204.00987581 0 12736
0.10950000 0.10950300 15741.33189197 0 41.99720650 0 5885.52300451 0 -244.21341146 0 -422.57540875 0 12933
0.11050000 0.11050200 15340.28514702 0 52.77867434 0 6254.85728841 0 34.53088268 0 205.42578722 0 13428
0.11150000 0.11150900 15437.16907719 0 407.31454206 0 5505.65451550 0 872.81436508 0 758.33534655 0 13453
0.11250000 0.11250000 15808.55747617 0 -279.03340808 0 6049.54464230 0 801.03238018 0 981.56492901 0 13668
0.11350000 0.11349100 15522.29951470 0 74.84569204 0 4952.77900834 0 347.70675895 0 436.58732953 0 13791
0.11450000 0.11448600 15546.02619147 0 333.31587041 0 5404.49758660 0 -2.05330221 0 2199.50687540 0 14205
0.11550000 0.11549300 14889.91767119 0 97.87375000 0 4674.48486199 0 34.26934000 0 1507.69849422 0 14776
0.11650000 0.11649800 14791.82543804 0 238.14773048 0 5322.12427681 0 25.54857798 0 1759.17929890 0 14553
0.11750000 0.11747300 14434.49729197 0 180.31395584 0 5264.76283879 0 94.07978848 0 553.07982021 0 14568
0.11850000 0.11849100 14303.78087825 0 406.01506712 0 5537.32303826 0 -379.02707075 0 970.12559512 0 16015
0.11950000 0.11950300 13816.17570136 0 86.14035911 0 5128.54315421 0 -136.42948992 0 1025.04186729 0 15270
0.12050000 0.12050700 13997.20145750 0 -48.70262899 0 5226.34978848 0 769.27707930 0 191.28095310 0 15999
0.12150000 0.12150000 13789.26349854 0 55.78449278 0 4771.80817506 0 619.70454829 0 952.39649498 0 15670
0.12250000 0.12250700 13934.80908524 0 -10.62448731 0 4536.76029097 0 445.75944764 0 889.88439087 0 16887
0.12350000 0.12352200 13851.76571653 0 27.05895671 0 3764.53385392 0 -48.20008480 0 617.16052128 0 16407
0.12450000 0.12449800 13782.67275499 0 74.64137899 0 4004.30510423 0 264.01859582 0 635.20707558 0 16306
0.12550000 0.12549900 13596.48424974 0 150.99393470 0 3992.05730580 0 -384.38754217 0 461.93532922 0 17523
0.12650000 0.12650100 13209.93714060 0 307.58560759 0 4057.14089835 0 -265.40594734 0 391.38691182 0 17154
0.12750000 0.12750600 12917.19828130 0 256.16462643 0 4704.60456001 0 -133.96674874 0 251.28967311 0 18007
0.12850000 0.12850300 12947.62554736 0 60.88781536 0 4484.86917009 0 -34.62644846 0 80.27229059 0 17496
0.12950000 0.12949900 12783.51603299 0 71.93598861 0 4063.27028985 0 303.51802037 0 80.31809626 0 18405
0.13050000 0.13049000 12829.65123783 0 -15.63379293 0 4150.24613555 0 213.56096167 0 -275.29975186 0 18100
0.13150000 0.13148800 12548.44617975 0 237.95879583 0 4247.93193951 0 31.52056056 0 -360.62461630 0 19059
0.13250000 0.13249300 12515.93184491 0 43.14344665 0 3834.58247328 0 293.71099397 0 505.54518083 0 18957
0.13350000 0.13349100 12496.70884289 0 -50.59186563 0 3740.12613365 0 625.21440990 0 -230.87704189 0 19468
0.13450000 0.13450700 12322.16398457 0 168.03540061 0 3330.62126782 0 163.91728435 0 659.24681267 0 19953
0.13550000 0.13551000 12208.14412118 0 129.25766248 0 3274.95145397 0 353.96686686 0 946.29346645 0 19956
0.13650000 0.13649900 12153.99017835 0 -55.84216179 0 3112.67636323 0 453.45414073 0 530.99643550 0 19723
0.13750000 0.13749600 11860.59224471 0 158.75892906 0 3047.72458556 0 -523.91248464 0 600.40135889 0 20946
0.13850000 0.13851100 11504.80193880 0 561.35120337 0 3372.75808824 0 -341.07976631 0 804.75615028 0 20955
0.13950000 0.13949800 11345.41579064 0 -13.49103235 0 3568.37135677 0 -86.63400580 0 797.60299662 0 20506
0.14050000 0.14048300 11087.71771788 0 284.51800517 0 4116.15002225 0 -97.27904524 0 -222.40793643 0 21447
0.14150000 0.14148400 11167.46571482 0 286.19534941 0 4295.83566054 0 -273.72456415 0 243.49611887 0 21771
0.14250000 0.14249400 10693.96472913 0 -40.54526570 0 3953.25979544 0 328.81878639 0 726.17910878 0 22470
0.14350000 0.14350900 10861.86392104 0 -318.56358943 0 3652.50219817 0 556.58389887 0 -88.86068851 0 22519
0.14450000 0.14449900 10839.40047011 0 320.17502623 0 3504.61689750 0 27.07949786 0 -3.54968660 0 22218
0.14550000 0.14550500 10784.78517523 0 282.58252348 0 3761.40325074 0 -410.17712167 0 171.57902372 0 23559
0.14650000 0.14650700 10402.04971278 0 -37.42938184 0 3612.40850825 0 99.75826327 0 160.23196024 0 23044
0.14750000 0.14750500 10308.64789212 0 23.03278133 0 3423.56173643 0 349.32039266 0 -210.35017110 0 23649
0.14850000 0.14849900 10237.81936812 0 89.58929521 0 3239.97657488 0 73.05597563 0 219.41354194 0 23640
0.14950000 0.14949500 10205.89820020 0 218.74238456 0 2872.75132891 0 276.31252945 0 -442.55634627 0 24457
0.15050000 0.15050000 10037.33993394 0 115.58406653 0 3157.47145022 0 -104.57005529 0 108.20935404 0 24591
0.15150000 0.15149900 9848.83368387 0 38.92800708 0 3022.04265486 0 424.77122481 0 95.38244894 0 25020
0.15250000 0.15250500 9928.65857282 0 -54.98877034 0 2827.75851962 0 243.99262155 0 288.89975118 0 25297
0.15350000 0.15350100 9855.76494917 0 22.11908458 0 2667.13111476 0 214.34635861 0 246.14559777 0 25452
0.15450000 0.15450400 9876.21822331 0 168.10680033 0 2608.14396000 0 -224.06001614 0 116.72536362 0 26061
0.15550000 0.15549900 9546.62612301 0 158.40193045 0 2693.76870327 0 -194.38299640 0 547.37003939 0 26128
0.15650000 0.15649500 9440.57007474 0 185.81942362 0 2864.67766806 0 53.96522787 0 416.01212663 0 26331
0.15750000 0.15749700 9463.64866173 0 39.56533198 0 3028.11712350 0 -5.62482614 0 168.48357117 0 27345
0.15850000 0.15849900 9135.30880270 0 163.42956932 0 2925.38940072 0 -184.66384658 0 -437.64294696 0 26980
0.15950000 0.15949700 8944.71548384 0 161.62590250 0 3026.70011364 0 193.73600507 0 -52.05248425 0 27777
0.16050000 0.16050000 9047.81668209 0 -203.44307186 0 2779.60215342 0 310.25595719 0 63.48390924 0 28224
0.16150000 0.16150500 9081.85787252 0 64.85159837 0 2402.16125495 0 215.91605403 0 -220.04405641 0 28075
0.16250000 0.16249700 9043.51072964 0 95.30138280 0 2307.50719302 0 166.08893434 0 -206.02664334 0 28590
0.16350000 0.16349900 9070.90625366 0 39.15758465 0 2226.81452284 0 -30.55754308 0 -257.80352466 0 29163
0.16450000 0.16449100 8984.94098864 0 125.48885563 0 2035.13373129 0 95.80227931 0 -135.18603630 0 28996
0.16550000 0.16550500 8694.88236505 0 72.28826385 0 2126.62423632 0 -213.88500656 0 -177.22179866 0 30777
0.16650000 0.16650700 8617.68278895 0 117.66564303 0 2153.03114881 0 -6.94383165 0 -104.05795452 0 29211
0.16750000 0.16749900 8544.69030415 0 151.41464383 0 2096.81210633 0 144.52621837 0 -372.80431038 0 30922
0.16850000 0.16850800 8334.21490892 0 70.90915077 0 2209.73351247 0 -57.70986866 0 -53.85505261 0 30867
0.16950000 0.16949900 8334.42361580 0 154.25525430 0 2400.52455364 0 60.19512821 0 -397.27574118 0 30852
0.17050000 0.17049200 8126.92503973 0 36.86367635 0 2388.76007640 0 -29.28695757 0 408.03293311 0 31257
0.17150000 0.17149500 8149.45439810 0 131.33154978 0 2488.36818057 0 109.00320910 0 12.51527277 0 32608
0.17250000 0.17250900 8254.91727945 0 -156.38296601 0 2080.13752516 0 235.78934274 0 188.36454908 0 32361
0.17350000 0.17350400 8086.18326003 0 -14.84685815 0 2443.81475418 0 179.65378303 0 93.97115106 0 32508
0.17450000 0.17449800 8111.21710094 0 274.38144159 0 2174.06660530 0 -17.44196342 0 706.02791038 0 32791
0.17550000 0.17549800 7932.08069129 0 -9.40512286 0 2233.32837438 0 10.72051444 0 767.20538891 0 33633
0.17650000 0.17650100 7830.05598115 0 35.78268457 0 2338.46171855 0 280.55037756 0 373.37440970 0 33984
0.17750000 0.17750300 7856.86932282 0 246.96284997 0 2208.52520949 0 -267.51278836 0 522.14506691 0 34069
0.17850000 0.17849800 7594.78840560 0 67.96209979 0 2303.78342291 0 -236.78454502 0 523.33469612 0 34536
