### header ###
fiducial parameters:
Omega_m = 0.31
Omega_nu = 0
Omega_de = 0.69
Omega_k = 0
H_0 = 100
w_de = -1
zeff = 0
beta = 0
fgrowth = 0
b_1 = 2
gamma = 0.55
Lx = 3500 Ly = 3500 Lz = 3500
nx = 700 ny = 700 nz = 700
xoffset = -983.599254 yoffset = -42.9823471 zoffset = 800.977702
bins = 400 dk = 0.001
kx_ny = 0.628318531 ky_ny = 0.628318531 kz_ny = 0.628318531
############################
A(data) = 9.08234922 (not used)
A(ran) = 9.07460947 (used)
Ngal = 504576
weighted Ngal = 0
Nran = 25229228
weighted Nran = 0
SN(data) = 6731.09513
SN(ran) = 134.706326
SN(data+ran) = 6865.80146
############################
13 columns: k_central k_mean P_0(k) sigma^{lin}_{P_0(k)} P^img_1(k) sigma^{lin}_{P_1(k)} P_2(k) sigma^{lin}_{P_2(k)} P^img_3(k) sigma^{lin}_{P_3(k)} P_4(k) sigma^{lin}_{P_4(k)} N_modes
### header ###
0.00050000 0 0 0 0 0 0 0 0 0 0 0 0
0.00150000 0.00179520 47663.26873343 0 -51941.10067951 0 -30488.12058242 0 1273.39756106 0 -31698.51063516 0 3
0.00250000 0.00253879 71503.96537253 0 -39148.02806837 0 -4195.27189856 0 -66293.98259720 0 28631.72781617 0 6
0.00350000 0.00331552 65875.47038185 0 290.62652599 0 -9701.26693581 0 -39130.56259797 0 -1423.15023907 0 7
0.00450000 0.00420575 78379.86842555 0 14218.65044074 0 -3163.85348689 0 -38260.91398671 0 -18007.88859840 0 24
0.00550000 0.00557378 69658.44733314 0 11726.03123058 0 32010.69218792 0 12481.87966991 0 18085.32983510 0 45
0.00650000 0.00659388 58455.39160315 0 5024.17873012 0 29695.69351640 0 18535.25792803 0 28872.50964716 0 40
0.00750000 0.00754703 40527.91007604 0 -8401.69313828 0 -8514.63651357 0 66745.66822174 0 13532.99342021 0 57
0.00850000 0.00846663 81213.99799726 0 -14099.46782823 0 19740.15569448 0 18552.72339844 0 -3953.35865660 0 75
0.00950000 0.00948925 88073.64388286 0 7656.18118176 0 3479.16564283 0 -27047.31306704 0 17401.54019191 0 112
0.01050000 0.01054430 66211.37861139 0 6466.65083235 0 16814.74432462 0 -21514.82324072 0 23107.69611074 0 105
0.01150000 0.01145670 69592.53989765 0 -4853.05007387 0 20821.47701939 0 3885.36415232 0 -1438.38584124 0 144
0.01250000 0.01249090 75272.99191664 0 2088.41989288 0 42538.30654988 0 -14707.57376634 0 -28066.13217396 0 169
0.01350000 0.01339930 78763.12016291 0 5903.63656470 0 52413.21760906 0 -4624.93345508 0 3340.70510545 0 180
0.01450000 0.01448870 73316.31000272 0 -4012.75224055 0 56446.20343230 0 11229.63839563 0 -688.51410786 0 267
0.01550000 0.01550050 71503.85552680 0 3547.13817797 0 58435.72921823 0 86.34379339 0 15803.17503560 0 238
0.01650000 0.01653350 74348.74997964 0 9691.21605190 0 50453.02063192 0 12126.19920972 0 -3641.75928618 0 315
0.01750000 0.01747870 78243.65972554 0 287.57061789 0 63709.97174316 0 10684.40815099 0 18901.92296080 0 297
0.01850000 0.01844180 69362.96233070 0 -60.37648350 0 52308.20509518 0 7423.84648709 0 -0.51784461 0 388
0.01950000 0.01947590 69729.07813483 0 -481.38131806 0 42350.47035874 0 13570.45081272 0 24474.17693986 0 399
0.02050000 0.02045430 66365.38231898 0 -5603.41721148 0 38840.13049892 0 6065.47227254 0 8990.77379668 0 462
0.02150000 0.02154770 73105.07667198 0 3146.93724511 0 27825.24049725 0 12948.72400461 0 -768.63008798 0 571
0.02250000 0.02255340 71550.86949745 0 1778.94054498 0 29640.66080777 0 -2009.63853833 0 6434.60883413 0 510
0.02350000 0.02348930 72330.11507637 0 4452.93701760 0 24809.31624932 0 -7671.27398449 0 -8267.56052249 0 555
0.02450000 0.02439640 65638.53315127 0 243.93660023 0 31986.08674534 0 -1403.83936047 0 1407.72789916 0 592
0.02550000 0.02547300 65335.68848520 0 -3713.24688454 0 21406.84489225 0 3146.47589306 0 -10401.84100590 0 837
0.02650000 0.02652900 69683.71185007 0 -2290.49209009 0 16466.75306524 0 12419.04791474 0 -11141.98150643 0 723
0.02750000 0.02749970 67534.79991599 0 3314.64969928 0 17920.23170920 0 -2564.46929941 0 -12033.15987996 0 826
0.02850000 0.02848090 64269.41602473 0 5240.55284082 0 18116.74571268 0 -3852.08089740 0 -6725.99659100 0 831
0.02950000 0.02946900 63426.78946201 0 2408.30163102 0 21576.44669290 0 -777.18926693 0 -7214.41462626 0 996
0.03050000 0.03053250 59479.70299636 0 1829.35973312 0 25763.43622373 0 -1915.29204443 0 -11917.49233068 0 1041
0.03150000 0.03150510 55904.44431258 0 2606.03492206 0 28479.26194875 0 -4288.56387349 0 -7428.26228527 0 1036
0.03250000 0.03246190 51818.95223241 0 3613.53991922 0 29107.03027177 0 3684.42336609 0 -2267.88583972 0 1059
0.03350000 0.03345080 51553.45511311 0 -363.91669271 0 28537.69987488 0 5321.17960357 0 3082.05137487 0 1302
0.03450000 0.03451200 51200.19125890 0 -606.46264604 0 27068.95267503 0 7380.71007057 0 661.81830111 0 1339
0.03550000 0.03553350 53662.16351156 0 -1126.44594907 0 21700.90190025 0 4767.06283971 0 2734.58737498 0 1365
0.03650000 0.03647120 51869.04188338 0 611.18820917 0 20966.25368601 0 -15.39773446 0 -1425.78653649 0 1308
0.03750000 0.03744890 50599.99421305 0 4965.26846736 0 26148.33564698 0 -6557.27355615 0 6777.37143696 0 1579
0.03850000 0.03847530 44816.17736607 0 3280.04829565 0 28078.98412388 0 -2970.53599403 0 1701.49930828 0 1662
0.03950000 0.03950240 44389.31687556 0 64.24634842 0 30533.15733000 0 4255.52227917 0 4614.58598770 0 1683
0.04050000 0.04050350 44645.69679961 0 -1343.77571759 0 27740.54944265 0 5989.99727433 0 1934.26240128 0 1822
0.04150000 0.04152450 42979.66667620 0 194.88169599 0 24575.56454479 0 2959.05711568 0 -1477.38107390 0 1887
0.04250000 0.04250150 44122.94099047 0 1269.19046977 0 22097.33512471 0 749.57075609 0 5608.47011486 0 1920
0.04350000 0.04349210 41828.26377822 0 1885.24923842 0 23768.19846006 0 313.80617105 0 362.14927498 0 2005
0.04450000 0.04448520 40473.31675031 0 473.92718711 0 20883.53985447 0 -2384.60790797 0 1136.93621589 0 2151
0.04550000 0.04548030 39964.95073125 0 -149.72631503 0 22591.64089087 0 2352.51098688 0 255.49237058 0 2274
0.04650000 0.04648670 38727.64847569 0 944.51176878 0 20122.19912886 0 3807.96685391 0 -1104.20218959 0 2311
0.04750000 0.04749250 40261.09480804 0 -824.37240000 0 17665.38962532 0 4236.39813830 0 2325.67567607 0 2568
0.04850000 0.04851840 40286.57901643 0 86.04039950 0 17006.53496189 0 1595.90461205 0 -3816.17232963 0 2493
0.04950000 0.04949480 39186.58391814 0 1549.22017858 0 15243.29137113 0 -1019.97029013 0 1878.21911197 0 2644
0.05050000 0.05050630 37444.65039819 0 569.15024990 0 14533.79782810 0 -1149.37075205 0 -2520.76168511 0 2829
0.05150000 0.05149060 37149.27524147 0 -59.39435287 0 17346.61732901 0 -116.82422477 0 -604.00210179 0 2784
0.05250000 0.05249300 36053.34443503 0 1770.42750123 0 16481.03300960 0 1235.80835369 0 -3292.36200152 0 3055
0.05350000 0.05348950 35375.48646104 0 154.20362681 0 14320.58727430 0 1366.61264399 0 -222.50460066 0 3009
0.05450000 0.05448610 34905.45660028 0 220.44389485 0 15378.73115106 0 -267.78740267 0 -5652.95763382 0 3336
0.05550000 0.05550870 32533.77753424 0 1500.71230606 0 15405.42366243 0 -236.53739214 0 -1837.15877966 0 3349
0.05650000 0.05647670 31819.56062501 0 1023.79731521 0 16452.47312088 0 -956.12795428 0 -3055.96301499 0 3324
0.05750000 0.05747970 30829.41125252 0 488.52348715 0 14966.69983353 0 1967.87519338 0 -2467.14598634 0 3639
0.05850000 0.05849280 30965.83964398 0 -446.46136183 0 15081.48861701 0 1902.68175510 0 -2061.63950493 0 3846
0.05950000 0.05951020 31518.58333628 0 -380.73956561 0 12908.41062324 0 1996.53394324 0 -4018.49717201 0 3787
0.06050000 0.06049470 30440.55738314 0 429.97461684 0 12646.86795008 0 -228.88334196 0 -697.61592470 0 3930
0.06150000 0.06148310 30482.29875895 0 1130.03790431 0 12706.62402492 0 -1143.81255832 0 -1979.10142655 0 4083
0.06250000 0.06249100 31127.09316948 0 -506.84465576 0 11867.51252543 0 1910.40390963 0 -1956.25351558 0 4303
0.06350000 0.06350600 30450.11396129 0 -368.11389789 0 11539.84272533 0 1906.40552521 0 -1419.55828383 0 4470
0.06450000 0.06451750 30632.34802041 0 900.06818811 0 11400.55834500 0 530.77894096 0 -97.97898221 0 4479
0.06550000 0.06550280 30329.39350862 0 -234.79414047 0 11658.58595493 0 169.43593361 0 189.18619511 0 4636
0.06650000 0.06648880 30313.68556983 0 -288.20003390 0 10627.62889531 0 678.03043178 0 -754.85982779 0 4653
0.06750000 0.06749660 30012.04920675 0 560.30986589 0 10599.13491404 0 40.82647076 0 -473.20769760 0 5220
0.06850000 0.06852730 29155.69192830 0 210.96640563 0 10375.89544547 0 617.59660881 0 731.31110109 0 5029
0.06950000 0.06949320 30044.01431296 0 317.55959950 0 9961.82099744 0 7.35751065 0 -268.45746160 0 5040
0.07050000 0.07048030 29241.37159444 0 -51.70712928 0 10862.40216509 0 -313.68314383 0 -3036.34456836 0 5475
0.07150000 0.07148790 27805.24857515 0 1031.76222879 0 10920.38972375 0 -2182.27208102 0 -3287.86931133 0 5509
0.07250000 0.07249820 28526.27591939 0 609.30325651 0 11716.25496099 0 1158.89437648 0 -1949.17945084 0 5916
0.07350000 0.07351270 27013.81012067 0 -178.51248593 0 11052.01785699 0 1051.36859239 0 -2909.84623052 0 5721
0.07450000 0.07449140 27672.77462982 0 360.72457591 0 10867.13651588 0 737.12633381 0 -3144.14716368 0 6028
0.07550000 0.07549160 27020.18117277 0 386.04072034 0 9350.70528645 0 829.99869808 0 -1856.07421364 0 6183
0.07650000 0.07648840 26814.76966549 0 -342.13648219 0 9332.54778797 0 854.08017655 0 -64.65552375 0 6330
0.07750000 0.07749960 26450.63108442 0 541.78658114 0 7856.66061594 0 1125.86376672 0 -2776.07610562 0 6583
0.07850000 0.07848650 25557.47548783 0 359.77331193 0 8551.78633804 0 -316.81045165 0 662.19726887 0 6549
0.07950000 0.07947320 25137.42543232 0 959.92422257 0 8774.69626943 0 327.28314315 0 -1227.17447964 0 6828
0.08050000 0.08048110 24002.06001032 0 663.52640215 0 9786.33146588 0 -863.02711091 0 553.15781068 0 7147
0.08150000 0.08149960 23233.03008390 0 833.31823591 0 8826.58739030 0 487.12075723 0 -1123.10663901 0 7386
0.08250000 0.08250610 22995.32393324 0 9.58832356 0 9366.52307097 0 501.45891983 0 343.97639810 0 7227
0.08350000 0.08350160 22154.12536496 0 221.98942421 0 9472.10678262 0 1044.11657757 0 383.29787257 0 7798
0.08450000 0.08449610 21735.72299533 0 582.31526014 0 9438.42808308 0 -980.20284201 0 -377.84732765 0 7371
0.08550000 0.08548940 21387.62189023 0 743.67753290 0 9148.86376527 0 -721.43047805 0 176.60226876 0 8256
0.08650000 0.08650700 20939.56117464 0 -64.18494466 0 9592.65148213 0 445.88577022 0 -735.76424681 0 8037
0.08750000 0.08749060 20317.83436653 0 -66.72029386 0 9908.31514440 0 653.05261219 0 137.05231518 0 8155
0.08850000 0.08849210 21014.14642246 0 336.50688874 0 8884.61888725 0 658.96011533 0 -964.55421991 0 8718
0.08950000 0.08949900 20462.17165025 0 -135.15418104 0 8757.09898415 0 640.74549707 0 202.97183370 0 8571
0.09050000 0.09049190 20396.37406049 0 6.54469622 0 8073.30934096 0 724.01624644 0 324.00205132 0 8932
0.09150000 0.09150830 20453.16430074 0 419.43711636 0 8159.80186547 0 977.71044249 0 1399.40159315 0 9285
0.09250000 0.09250820 20020.48198676 0 60.29322044 0 7430.73381410 0 498.79625943 0 1915.21515242 0 9204
0.09350000 0.09350330 19898.88276828 0 219.15869986 0 7829.29804564 0 -516.36388636 0 504.91246944 0 9349
0.09450000 0.09448040 19560.11854987 0 547.14046182 0 7159.74440852 0 384.97082297 0 1128.03871210 0 9564
0.09550000 0.09549270 18936.52436443 0 138.47042350 0 7907.44229499 0 -81.62888530 0 1644.00605539 0 10155
0.09650000 0.09649430 18689.04194417 0 72.90065378 0 7631.79543063 0 266.97454430 0 1355.72693256 0 9913
0.09750000 0.09749140 18080.60646889 0 704.95691455 0 8119.80703670 0 -331.17607567 0 436.68838760 0 10476
0.09850000 0.09850240 17751.17913718 0 216.71792783 0 6857.55881681 0 218.65011415 0 1711.29754702 0 10575
0.09950000 0.09950330 17840.04432936 0 -389.23393559 0 6800.69168455 0 1274.97933952 0 449.40852265 0 10882
0.10050000 0.10051200 17387.58978473 0 369.49136329 0 6258.43825908 0 1075.97952726 0 904.66413328 0 10875
0.10150000 0.10150300 17006.53496189 0 454.17912252 0 5818.98944839 0 240.21722395 0 2308.30906682 0 11118
0.10250000 0.10250800 16800.79391744 0 434.55188823 0 6216.26848494 0 -191.04148942 0 1545.32065532 0 11575
0.10350000 0.10349800 15912.25184133 0 282.00143959 0 5960.16317520 0 -72.15040747 0 1543.46426255 0 11364
0.10450000 0.10450100 15564.80981059 0 293.41660742 0 6178.40466325 0 -76.50875633 0 586.82223027 0 12093
0.10550000 0.10551000 15323.69844243 0 353.43631201 0 6128.31501228 0 218.49852704 0 1307.93305726 0 12067
0.10650000 0.10649700 15248.23442879 0 -69.99512448 0 6421.86672994 0 39.82204144 0 1096.96555318 0 12054
0.10750000 0.10749900 15204.62567564 0 162.02793786 0 6275.21170141 0 59.16356700 0 1186.44368451 0 12807
0.10850000 0.10850100 14864.32361707 0 -223.12413056 0 5790.24282194 0 614.91197927 0 811.59953900 0 12736
0.10950000 0.10950300 15329.30057444 0 168.67140736 0 5973.43253888 0 71.10566477 0 904.86075713 0 12933
0.11050000 0.11050200 14897.49702627 0 364.83939680 0 5771.89858573 0 -65.88645495 0 1135.20065342 0 13428
0.11150000 0.11150900 14900.46286087 0 207.75671352 0 6530.81172080 0 -21.81667930 0 1199.84486306 0 13453
0.11250000 0.11250000 14339.37089341 0 32.57793552 0 6033.48519718 0 -504.08862650 0 1618.81843046 0 13668
0.11350000 0.11349100 14201.18497034 0 142.61709965 0 6084.96988887 0 1019.83298297 0 942.03145229 0 13791
0.11450000 0.11448600 14325.96971486 0 214.34086632 0 6510.85275242 0 5.32237692 0 1196.78016731 0 14205
0.11550000 0.11549300 13971.93694057 0 139.38433994 0 5646.03735309 0 578.31907263 0 1366.25015309 0 14776
0.11650000 0.11649800 14109.35394356 0 -98.99933916 0 5649.10204884 0 610.74113707 0 676.04881489 0 14553
0.11750000 0.11747300 14050.47663452 0 -66.16524341 0 4722.31169101 0 -9.24071676 0 1144.61443212 0 14568
0.11850000 0.11849100 14001.70513226 0 -13.58857536 0 5272.95732994 0 298.52992596 0 887.18218602 0 16015
0.11950000 0.11950300 13761.14299273 0 127.08381557 0 4258.27940688 0 -5.53848740 0 661.37781975 0 15270
0.12050000 0.12050700 13669.64150313 0 259.09091656 0 4514.03321029 0 424.80637544 0 1302.97901503 0 15999
0.12150000 0.12150000 13708.08750716 0 17.56246418 0 4199.28126755 0 -101.74350508 0 1071.30339471 0 15670
0.12250000 0.12250700 13355.26303585 0 278.84886726 0 4662.67644647 0 191.36773123 0 298.55848585 0 16887
0.12350000 0.12352200 13127.77253769 0 159.11373076 0 4425.67330845 0 -251.59724115 0 1396.12819052 0 16407
0.12450000 0.12449800 12983.98448260 0 27.44198876 0 4497.45749027 0 350.28154276 0 1500.76722893 0 16306
0.12550000 0.12549900 12690.47670323 0 -16.81342618 0 4681.26234327 0 465.77553579 0 1543.44229340 0 17523
0.12650000 0.12650100 13012.65421704 0 145.24570787 0 4335.54489042 0 216.59490062 0 1044.02650408 0 17154
0.12750000 0.12750600 12995.07890091 0 137.48071351 0 4246.43803764 0 -19.40864129 0 1506.74283641 0 18007
0.12850000 0.12850300 12817.34851654 0 -22.63129520 0 3926.64417608 0 -87.56483848 0 952.70516147 0 17496
0.12950000 0.12949900 12370.16656675 0 -30.84215336 0 4283.00567976 0 -287.98034245 0 824.82386593 0 18405
0.13050000 0.13049000 12553.93846604 0 408.71068123 0 4019.13427722 0 182.68113123 0 740.86328541 0 18100
0.13150000 0.13148800 12353.36017070 0 49.55239553 0 4390.70941392 0 -169.92914092 0 582.02746434 0 19059
0.13250000 0.13249300 12174.53132908 0 97.38878112 0 3809.09826489 0 551.23551048 0 236.99105499 0 18957
0.13350000 0.13349100 12147.72897198 0 84.52793370 0 4122.30138290 0 237.48755767 0 108.39806899 0 19468
0.13450000 0.13450700 12087.42366851 0 187.78346519 0 3853.91532102 0 -208.20817945 0 213.20725843 0 19953
0.13550000 0.13551000 11624.20424275 0 355.23009271 0 4134.28555159 0 -596.07673267 0 201.92829931 0 19956
0.13650000 0.13649900 11236.11929346 0 254.14126816 0 4367.77362637 0 -198.09688039 0 10.30874675 0 19723
0.13750000 0.13749600 10970.50134387 0 104.96604914 0 4484.30895689 0 304.88999348 0 -20.21446954 0 20946
0.13850000 0.13851100 11171.20046950 0 -86.67695548 0 4459.70351431 0 355.78261671 0 -68.67708562 0 20955
0.13950000 0.13949800 10949.64164053 0 99.12676020 0 3765.09406713 0 304.00903076 0 5.02544196 0 20506
0.14050000 0.14048300 10980.11284488 0 -62.45179880 0 4016.08056604 0 141.48129485 0 99.66994731 0 21447
0.14150000 0.14148400 10751.20533685 0 184.41559524 0 3708.82010179 0 337.23736282 0 326.98875660 0 21771
0.14250000 0.14249400 10805.17254194 0 119.88232978 0 3415.40019900 0 410.67032898 0 691.96985439 0 22470
0.14350000 0.14350900 10707.47575341 0 -49.14091344 0 3329.35804197 0 327.63135410 0 665.84963925 0 22519
0.14450000 0.14449900 10717.17513100 0 148.39278792 0 3459.79984137 0 -64.20032306 0 599.32706770 0 22218
0.14550000 0.14550500 10393.83325249 0 185.46681884 0 3177.30958830 0 -32.98447455 0 984.49671143 0 23559
0.14650000 0.14650700 10331.55072595 0 -18.64982702 0 3185.48211030 0 -93.86240379 0 956.16749874 0 23044
0.14750000 0.14750500 10359.91289236 0 97.37669809 0 3413.41199136 0 -77.79845500 0 565.80984138 0 23649
0.14850000 0.14849900 10162.05877102 0 192.82208864 0 3578.36731782 0 -226.65896602 0 256.07565139 0 23640
0.14950000 0.14949500 10067.28387879 0 133.80857090 0 3718.36569537 0 -27.45725732 0 55.64894315 0 24457
0.15050000 0.15050000 10030.69426752 0 76.76348857 0 3743.33362884 0 -210.72474503 0 124.56285616 0 24591
0.15150000 0.15149900 9703.00249828 0 96.92797830 0 3675.93229148 0 69.63900464 0 181.96713401 0 25020
0.15250000 0.15250500 9646.86034781 0 89.24426978 0 3571.65574397 0 397.72720711 0 352.91124944 0 25297
0.15350000 0.15350100 9753.74023903 0 0.04699387 0 3424.79200856 0 521.13448623 0 -37.22561802 0 25452
0.15450000 0.15450400 9679.61634325 0 2.94370068 0 3210.77958095 0 187.25071342 0 453.81443471 0 26061
0.15550000 0.15549900 9600.04409947 0 210.23812846 0 3108.04087360 0 -251.37645124 0 670.53455945 0 26128
0.15650000 0.15649500 9277.09766558 0 59.25056481 0 3042.69365131 0 59.71773868 0 463.89717388 0 26331
0.15750000 0.15749700 9237.16874425 0 80.57216942 0 3195.17050332 0 -6.69386672 0 23.33386846 0 27345
0.15850000 0.15849900 9029.49441503 0 297.09643924 0 3022.74566751 0 -77.55382857 0 -56.92084681 0 26980
0.15950000 0.15949700 8923.48230504 0 42.91980076 0 3285.09021447 0 -80.14036587 0 204.19112126 0 27777
0.16050000 0.16050000 8774.03719507 0 -10.07167771 0 3155.29650485 0 275.06028818 0 -40.42234833 0 28224
0.16150000 0.16150500 8707.74529955 0 94.85211378 0 2838.09500241 0 378.01758853 0 162.46512385 0 28075
0.16250000 0.16249700 8749.76128967 0 113.44207488 0 2814.95050799 0 80.62280830 0 86.15991165 0 28590
0.16350000 0.16349900 8657.35906511 0 13.61867309 0 2469.26600885 0 224.65977381 0 74.39169966 0 29163
0.16450000 0.16449100 8612.67382385 0 19.52222177 0 2811.78695108 0 -137.09735193 0 -119.78237017 0 28996
0.16550000 0.16550500 8321.61560417 0 311.62793030 0 2803.60344451 0 -477.56967138 0 57.68086939 0 30777
0.16650000 0.16650700 8204.56399874 0 23.75413821 0 2926.55376541 0 66.64812522 0 228.68671811 0 29211
0.16750000 0.16749900 8224.74265857 0 -63.24093049 0 2655.55337526 0 668.30469122 0 117.38114260 0 30922
0.16850000 0.16850800 8442.36901055 0 -133.17585952 0 2393.16489001 0 334.10895655 0 -71.79066272 0 30867
0.16950000 0.16949900 8536.78141189 0 98.00237935 0 2222.67333897 0 -145.07874237 0 224.48182373 0 30852
0.17050000 0.17049200 8341.83820229 0 21.60390812 0 2358.66234753 0 44.35680254 0 -37.07468999 0 31257
0.17150000 0.17149500 8335.87357938 0 8.48816369 0 2132.31424492 0 -98.76306100 0 33.90234543 0 32608
0.17250000 0.17250900 8415.24810085 0 83.80844420 0 2311.38474714 0 -135.26512522 0 -772.02432091 0 32361
0.17350000 0.17350400 8252.10522887 0 123.16342161 0 2330.56381087 0 -68.00109502 0 -111.14190538 0 32508
0.17450000 0.17449800 8244.31716691 0 8.64116781 0 2349.58909058 0 81.03934329 0 -342.70548305 0 32791
0.17550000 0.17549800 8134.10895020 0 4.88759655 0 2009.55066175 0 116.22227020 0 -514.83044003 0 33633
0.17650000 0.17650100 8013.90477244 0 197.97934546 0 2296.16012954 0 94.42712066 0 -481.37802269 0 33984
0.17750000 0.17750300 7868.19441715 0 212.05717368 0 2366.43942492 0 -169.04488283 0 -219.93750605 0 34069
0.17850000 0.17849800 7591.13054293 0 206.31663605 0 2316.36075852 0 236.11009226 0 189.66622093 0 34536
