### header ###
fiducial parameters:
Omega_m = 0.31
Omega_nu = 0
Omega_de = 0.69
Omega_k = 0
H_0 = 100
w_de = -1
zeff = 0
beta = 0
fgrowth = 0
b_1 = 2
gamma = 0.55
Lx = 3500 Ly = 3500 Lz = 3500
nx = 700 ny = 700 nz = 700
xoffset = -983.599254 yoffset = -42.9823471 zoffset = 800.977702
bins = 400 dk = 0.001
kx_ny = 0.628318531 ky_ny = 0.628318531 kz_ny = 0.628318531
############################
A(data) = 9.11000362 (not used)
A(ran) = 9.13084998 (used)
Ngal = 507351
weighted Ngal = 0
Nran = 25229228
weighted Nran = 0
SN(data) = 6672.1997
SN(ran) = 135.541177
SN(data+ran) = 6807.74088
############################
13 columns: k_central k_mean P_0(k) sigma^{lin}_{P_0(k)} P^img_1(k) sigma^{lin}_{P_1(k)} P_2(k) sigma^{lin}_{P_2(k)} P^img_3(k) sigma^{lin}_{P_3(k)} P_4(k) sigma^{lin}_{P_4(k)} N_modes
### header ###
0.00050000 0 0 0 0 0 0 0 0 0 0 0 0
0.00150000 0.00179520 60141.74318584 0 8586.80515542 0 55686.18085539 0 -48380.56132299 0 -186688.30330622 0 3
0.00250000 0.00253879 57494.13165656 0 10821.71530825 0 28360.95810204 0 -11557.96727009 0 61447.58917431 0 6
0.00350000 0.00331552 60754.24295297 0 -13177.20311431 0 -22806.05974766 0 6747.93278244 0 -97063.19839197 0 7
0.00450000 0.00420575 55822.93878403 0 -9011.58956172 0 4969.08011405 0 23673.95082731 0 13955.35023597 0 24
0.00550000 0.00557378 69591.11190321 0 2700.94162916 0 5200.39324347 0 7415.63002680 0 3080.70027245 0 45
0.00650000 0.00659388 76506.33972607 0 4568.60456688 0 18339.73253608 0 -30894.00053930 0 28643.70100029 0 40
0.00750000 0.00754703 62022.63154894 0 4783.37492999 0 25000.66750369 0 -9813.21071499 0 -18762.41888901 0 57
0.00850000 0.00846663 53499.04260872 0 6189.13659066 0 27067.74437204 0 19030.55230573 0 31408.07853611 0 75
0.00950000 0.00948925 57492.26427922 0 3942.75854406 0 31434.11197313 0 14284.22833905 0 36970.99562848 0 112
0.01050000 0.01054430 56731.25309078 0 -6416.50625852 0 36651.78394926 0 15542.40128252 0 12989.91615179 0 105
0.01150000 0.01145670 62898.65121230 0 -227.80795231 0 39311.69819984 0 8428.55041825 0 23050.35664187 0 144
0.01250000 0.01249090 67924.53255117 0 -2171.46326160 0 26950.20944542 0 11354.75267733 0 29663.28902729 0 169
0.01350000 0.01339930 62915.01822545 0 -4325.96634313 0 24254.59533396 0 -4202.34596330 0 12022.50484455 0 180
0.01450000 0.01448870 71212.32497049 0 5434.49645432 0 34138.84327983 0 5321.12468071 0 15466.16834881 0 267
0.01550000 0.01550050 69602.64570442 0 2437.78422383 0 32623.41164651 0 -1507.00646615 0 24848.09179053 0 238
0.01650000 0.01653350 62742.01120729 0 7317.84536168 0 34399.06780428 0 7633.13554849 0 632.15226594 0 315
0.01750000 0.01747870 69646.25445757 0 -5113.61512007 0 42964.61781176 0 7622.35968278 0 25708.40351510 0 297
0.01850000 0.01844180 69406.57108385 0 -1824.91098123 0 33008.64060694 0 7346.96546360 0 17234.02546005 0 388
0.01950000 0.01947590 62972.02815715 0 -3488.39268380 0 16649.31666154 0 13732.36341257 0 11281.15604104 0 399
0.02050000 0.02045430 70547.53863787 0 815.84617476 0 19551.33089181 0 5492.52795127 0 10304.57261570 0 462
0.02150000 0.02154770 72205.87956048 0 -3083.71004533 0 10312.38264680 0 824.40205835 0 404.35090438 0 571
0.02250000 0.02255340 68696.96769509 0 4243.90060137 0 19135.34512815 0 234.64365182 0 16401.61454983 0 510
0.02350000 0.02348930 66459.30041455 0 5789.64965502 0 11342.55980177 0 -4757.11081695 0 -4256.08249237 0 555
0.02450000 0.02439640 64222.29220836 0 -36.87180494 0 15184.52390782 0 484.01102474 0 6187.13739845 0 592
0.02550000 0.02547300 62945.55533723 0 2931.17827047 0 18210.77365398 0 454.51415198 0 -5562.45574032 0 837
0.02650000 0.02652900 55640.59487918 0 -320.24093366 0 18320.61937979 0 -6153.08522345 0 2634.91336338 0 723
0.02750000 0.02749970 56384.57998012 0 3703.03123204 0 22112.60368060 0 4637.68654384 0 -5903.75739500 0 826
0.02850000 0.02848090 52036.00738661 0 -319.45224135 0 22837.91500814 0 -2897.37874064 0 2808.29385700 0 831
0.02950000 0.02946900 57455.79549825 0 -559.82215086 0 18737.48390926 0 11317.62482201 0 1420.89840169 0 996
0.03050000 0.03053250 58334.45145903 0 -2266.09535439 0 16768.82881123 0 7230.60588624 0 3449.94667977 0 1041
0.03150000 0.03150510 59343.05491345 0 -260.92753710 0 9688.48089333 0 -1849.95580671 0 9944.83884823 0 1036
0.03250000 0.03246190 59323.94175716 0 1078.03254388 0 15531.63640139 0 1444.03191154 0 3316.50609205 0 1059
0.03350000 0.03345080 55477.69366780 0 1393.64567711 0 13205.32362011 0 -3909.89270289 0 10415.67058278 0 1302
0.03450000 0.03451200 51842.67890918 0 3289.57192008 0 19629.65089431 0 360.40162948 0 8772.85086123 0 1339
0.03550000 0.03553350 52243.83549985 0 2116.46350668 0 17837.95726057 0 1787.58540360 0 6503.76770311 0 1365
0.03650000 0.03647120 52295.57283671 0 1114.47276496 0 20716.02512261 0 145.30502456 0 529.76286800 0 1308
0.03750000 0.03744890 48574.76856623 0 48.16383571 0 18594.35492852 0 1238.44465111 0 5710.09938039 0 1579
0.03850000 0.03847530 47915.69421135 0 -563.26581437 0 19652.16926810 0 1677.59687834 0 4398.80504392 0 1662
0.03950000 0.03950240 45517.98170830 0 1786.15740916 0 19082.39948831 0 -3328.27056928 0 1005.24327367 0 1683
0.04050000 0.04050350 46914.45042056 0 1467.31920542 0 17654.51489846 0 4546.54754514 0 3533.07792506 0 1822
0.04150000 0.04152450 45603.88106588 0 268.71010677 0 16151.27614070 0 1337.20694319 0 -2984.50837035 0 1887
0.04250000 0.04250150 45948.35726203 0 218.90385777 0 17256.21429666 0 -3922.83252939 0 -532.66609053 0 1920
0.04350000 0.04349210 42531.16657770 0 1637.10774381 0 18437.93461496 0 -1454.44528635 0 -3630.92849762 0 2005
0.04450000 0.04448520 42255.67349736 0 1619.91688772 0 17540.71472652 0 1728.21378880 0 -2290.67882782 0 2151
0.04550000 0.04548030 42191.63343921 0 -230.75291622 0 18809.87224257 0 1224.29652163 0 -5899.37455054 0 2274
0.04650000 0.04648670 40486.38839169 0 746.15235710 0 16038.13504312 0 1788.66189171 0 -4961.03940692 0 2311
0.04750000 0.04749250 39293.02442645 0 1009.97213216 0 16304.40108249 0 594.02042068 0 -3419.13495368 0 2568
0.04850000 0.04851840 37215.29252269 0 867.95808554 0 16363.71777443 0 -746.74772094 0 -5200.28339774 0 2493
0.04950000 0.04949480 37177.61543873 0 1510.55448310 0 15734.41161124 0 362.02954314 0 -1621.46571245 0 2644
0.05050000 0.05050630 36137.70595246 0 -298.60242414 0 15235.49232460 0 1716.88869446 0 -5330.00021535 0 2829
0.05150000 0.05149060 35534.21353484 0 -881.61410618 0 14536.98335415 0 3699.73586027 0 -1236.33561318 0 2784
0.05250000 0.05249300 37574.37820037 0 -40.28987439 0 12399.49537555 0 1151.33699054 0 -4911.42209257 0 3055
0.05350000 0.05348950 36906.73587888 0 766.73415075 0 12647.74671588 0 1367.19482634 0 -1226.22980640 0 3009
0.05450000 0.05448610 35960.30510527 0 636.43185542 0 11470.96945525 0 -1064.93344107 0 -603.42431327 0 3336
0.05550000 0.05550870 35197.09700232 0 13.99873930 0 13914.04824306 0 -1919.40027457 0 -310.06372717 0 3349
0.05650000 0.05647670 34570.09759937 0 1178.11737849 0 11893.43611672 0 -775.18677935 0 -825.69054871 0 3324
0.05750000 0.05747970 33243.05138582 0 730.26536978 0 16263.64831821 0 741.47951993 0 -3149.18908249 0 3639
0.05850000 0.05849280 32626.26763538 0 1109.26607755 0 16384.25892515 0 674.23745887 0 658.03082049 0 3846
0.05950000 0.05951020 32493.79369005 0 -68.84734649 0 13838.03500080 0 2083.75144954 0 -251.21607648 0 3787
0.06050000 0.06049470 32997.87572581 0 -512.57750419 0 14911.33758772 0 2155.67843080 0 668.49033050 0 3930
0.06150000 0.06148310 33473.94710148 0 -90.69785827 0 12361.26906296 0 140.79036523 0 25.65150343 0 4083
0.06250000 0.06249100 31421.04033175 0 1180.22641643 0 11103.75519385 0 912.45439216 0 3739.70871989 0 4303
0.06350000 0.06350600 31618.54294677 0 488.06652893 0 12925.76624792 0 1495.16509691 0 3597.46948954 0 4470
0.06450000 0.06451750 30661.34729203 0 -274.08375968 0 11893.76565390 0 -148.33566814 0 3073.61522313 0 4479
0.06550000 0.06550280 30639.04860969 0 1177.90867162 0 12519.66659959 0 692.79369733 0 3909.56316572 0 4636
0.06650000 0.06648880 29059.24738104 0 372.66590477 0 10536.34709716 0 37.82933013 0 4993.24617373 0 4653
0.06750000 0.06749660 30174.95041813 0 341.29945776 0 12456.61515297 0 878.52194900 0 1872.70485653 0 5220
0.06850000 0.06852730 29824.10316988 0 -459.14195241 0 12171.01626585 0 281.31160844 0 1910.11831074 0 5029
0.06950000 0.06949320 29459.30551445 0 -256.16242951 0 11036.41976393 0 514.62173315 0 2329.09187814 0 5040
0.07050000 0.07048030 29044.19851660 0 946.50217333 0 12140.91853698 0 -1979.43096373 0 -857.45573570 0 5475
0.07150000 0.07148790 28147.30816534 0 1142.29668731 0 11165.15895458 0 -862.07365001 0 -16.59768917 0 5509
0.07250000 0.07249820 27103.99346156 0 59.58559428 0 13348.45260085 0 1463.70528104 0 693.44178712 0 5916
0.07350000 0.07351270 27824.80111435 0 273.55210636 0 11885.52722446 0 2049.64435167 0 -1457.98231872 0 5721
0.07450000 0.07449140 27127.82998406 0 156.86518875 0 11086.83895208 0 901.32921705 0 564.87615271 0 6028
0.07550000 0.07549160 26716.56758662 0 876.12181989 0 10784.86206724 0 590.52732660 0 769.08814465 0 6183
0.07650000 0.07648840 25291.86852282 0 327.20185731 0 11205.47233595 0 -492.61084661 0 1967.65550192 0 6330
0.07750000 0.07749960 25164.00809797 0 -276.79145682 0 9389.55771967 0 1261.50126896 0 681.62128856 0 6583
0.07850000 0.07848650 24273.70849025 0 -38.10691028 0 9160.19984417 0 1165.02376798 0 252.99997107 0 6549
0.07950000 0.07947320 25089.86223305 0 619.95060272 0 7992.42993305 0 839.00824451 0 1730.77319421 0 6828
0.08050000 0.08048110 24265.68975227 0 283.63923937 0 8285.13583862 0 21.66498235 0 2606.29855180 0 7147
0.08150000 0.08149960 25140.94049555 0 -579.49112653 0 6637.55979715 0 1923.58539673 0 659.78615518 0 7386
0.08250000 0.08250610 24428.04173502 0 381.09656422 0 7883.26525073 0 -88.42910465 0 1023.74239235 0 7227
0.08350000 0.08350160 23140.53998276 0 1198.04339316 0 6831.72310210 0 -2001.78456893 0 1324.53074643 0 7798
0.08450000 0.08449610 22879.65638395 0 292.46424498 0 9579.00864298 0 -532.66169670 0 1608.52588595 0 7371
0.08550000 0.08548940 22572.63758031 0 347.15533340 0 8551.03938710 0 884.91606870 0 383.81085211 0 8256
0.08650000 0.08650700 22370.52144481 0 84.74103441 0 9358.73500901 0 -178.17306264 0 210.94553494 0 8037
0.08750000 0.08749060 21645.64950017 0 615.90168926 0 9365.52347486 0 418.30790230 0 428.29946952 0 8155
0.08850000 0.08849210 21009.31321053 0 726.95901343 0 9311.90777609 0 -348.02641001 0 487.27454125 0 8718
0.08950000 0.08949900 20224.57534532 0 437.84286618 0 9940.37911176 0 39.09233629 0 1542.96995678 0 8571
0.09050000 0.09049190 20382.75319049 0 -208.33669895 0 8496.45704594 0 1655.81447091 0 1564.23608930 0 8932
0.09150000 0.09150830 20217.10583596 0 -320.45073900 0 7988.53040978 0 1769.66956572 0 240.74448344 0 9285
0.09250000 0.09250820 19951.38902522 0 570.20147350 0 6885.15206313 0 -181.11692809 0 1417.48219961 0 9204
0.09350000 0.09350330 18682.45120062 0 887.27555489 0 6397.74460855 0 -390.54109973 0 1319.65359620 0 9349
0.09450000 0.09448040 18617.53237667 0 397.13184328 0 7650.72184919 0 -429.53852931 0 732.60618220 0 9564
0.09550000 0.09549270 17698.67288024 0 313.38985575 0 7223.12539231 0 16.54858813 0 326.83607104 0 10155
0.09650000 0.09649430 17705.59316096 0 -46.42640586 0 7044.39541184 0 563.60853303 0 91.02750530 0 9913
0.09750000 0.09749140 17234.02546005 0 -81.63130191 0 6689.64864033 0 438.04168694 0 -282.32658294 0 10476
0.09850000 0.09850240 17276.09637303 0 363.22027080 0 5884.85294558 0 -108.60919248 0 -389.80183799 0 10575
0.09950000 0.09950330 16849.89495688 0 589.13997508 0 6759.71922882 0 59.25166327 0 -201.91511782 0 10882
0.10050000 0.10051200 16696.66016937 0 248.75553222 0 6245.22381826 0 319.34019871 0 -429.08266954 0 10875
0.10150000 0.10150300 16120.84887465 0 -182.85908130 0 6531.63556375 0 443.11985485 0 -139.82811667 0 11118
0.10250000 0.10250800 16096.57296925 0 6.90319972 0 5669.73107615 0 1102.45564255 0 205.31264612 0 11575
0.10350000 0.10349800 16263.86800966 0 6.53403020 0 5082.46287223 0 760.24116990 0 1069.04936042 0 11364
0.10450000 0.10450100 16117.33381143 0 -3.96945106 0 4686.40312324 0 398.64332046 0 647.18685043 0 12093
0.10550000 0.10551000 15806.03102447 0 441.17997933 0 4830.05936346 0 -220.58010355 0 1074.73167982 0 12067
0.10650000 0.10649700 15391.14371807 0 365.86315897 0 4915.32161584 0 -262.99373520 0 867.78013547 0 12054
0.10750000 0.10749900 14946.92760289 0 361.14638350 0 5364.49177326 0 -524.09043471 0 1142.23077987 0 12807
0.10850000 0.10850100 14683.62739811 0 191.79063727 0 5591.90537941 0 274.53083178 0 401.09068324 0 12736
0.10950000 0.10950300 14313.33745639 0 66.96085600 0 4858.60826760 0 552.96228529 0 600.44200181 0 12933
0.11050000 0.11050200 14742.72439860 0 90.08909326 0 5332.71340478 0 416.54597686 0 1774.66754624 0 13428
0.11150000 0.11150900 14529.07446189 0 -300.85755689 0 4876.04078429 0 438.25039382 0 335.99390920 0 13453
0.11250000 0.11250000 14639.90879924 0 53.64162236 0 4886.25643679 0 -186.29395715 0 1408.81537185 0 13668
0.11350000 0.11349100 14351.45392325 0 77.67564748 0 4407.92223916 0 69.05792075 0 190.08363469 0 13791
0.11450000 0.11448600 14917.26925692 0 -86.70156092 0 4150.29007384 0 266.73837599 0 1132.74010916 0 14205
0.11550000 0.11549300 14793.25343247 0 136.72058109 0 4136.60329640 0 -238.31249907 0 -201.63830659 0 14776
0.11650000 0.11649800 14793.80266110 0 52.32512134 0 4073.74957209 0 214.77475694 0 -21.95047139 0 14553
0.11750000 0.11747300 14352.55238051 0 23.23061348 0 4277.53536262 0 147.70844904 0 -99.23924222 0 14568
0.11850000 0.11849100 14462.17841487 0 333.33344572 0 4458.48422675 0 304.06065825 0 1095.88137586 0 16015
0.11950000 0.11950300 14205.35910792 0 -160.72846292 0 4297.59319215 0 288.39995312 0 1589.48962167 0 15270
0.12050000 0.12050700 14246.33156365 0 183.00297921 0 4414.06261523 0 -50.25584755 0 879.93346657 0 15999
0.12150000 0.12150000 14081.67282065 0 328.32338217 0 4263.33231027 0 181.03454380 0 1193.32002695 0 15670
0.12250000 0.12250700 14063.65812162 0 55.60753132 0 4642.99209240 0 -256.13606654 0 1080.45464213 0 16887
0.12350000 0.12352200 13627.02136151 0 211.63975992 0 4977.71398810 0 -308.80928898 0 1051.30268496 0 16407
0.12450000 0.12449800 13393.15981125 0 193.54267660 0 4517.25169006 0 178.13022281 0 638.19597778 0 16306
0.12550000 0.12549900 13306.60137931 0 76.54852048 0 4975.79168790 0 27.14123116 0 923.80804638 0 17523
0.12650000 0.12650100 13184.45293221 0 254.20058485 0 5000.19940817 0 -49.90379200 0 141.31213243 0 17154
0.12750000 0.12750600 12882.48703195 0 407.38594178 0 4629.22842296 0 201.81735512 0 788.41879548 0 18007
0.12850000 0.12850300 12429.15372152 0 -116.72316671 0 4956.48080930 0 11.52457417 0 928.49076967 0 17496
0.12950000 0.12949900 12576.23714838 0 40.88150347 0 4416.43528291 0 470.88006667 0 261.36582154 0 18405
0.13050000 0.13049000 12350.61402756 0 298.20038878 0 4649.75858911 0 -162.56508346 0 216.45100272 0 18100
0.13150000 0.13148800 12254.27932602 0 102.15311979 0 4195.06319168 0 167.57734393 0 858.33010768 0 19059
0.13250000 0.13249300 12151.90310956 0 -311.21600883 0 4286.60861957 0 431.14227690 0 504.90478024 0 18957
0.13350000 0.13349100 12370.27641248 0 195.85383067 0 3804.49572898 0 75.53530351 0 4.57031816 0 19468
0.13450000 0.13450700 11944.73407068 0 289.07770125 0 3826.31109012 0 -263.29581095 0 393.24220613 0 19953
0.13550000 0.13551000 11637.93495848 0 151.31248731 0 4302.70101840 0 -222.68474766 0 108.35819499 0 19956
0.13650000 0.13649900 11528.52861557 0 171.81848740 0 4021.80352835 0 263.61546201 0 406.71917823 0 19723
0.13750000 0.13749600 11562.36109912 0 150.18547016 0 4282.53334314 0 239.02979166 0 -46.49516929 0 20946
0.13850000 0.13851100 11134.07261418 0 164.54889727 0 3821.67560049 0 -158.59416047 0 10.56950952 0 20955
0.13950000 0.13949800 11042.46127885 0 140.58385527 0 4130.28716717 0 152.70972494 0 192.03010095 0 20506
0.14050000 0.14048300 10879.76877434 0 -35.77763166 0 3874.30268773 0 584.72197999 0 181.22567536 0 21447
0.14150000 0.14148400 10854.72394886 0 -124.08063342 0 3424.30868736 0 734.23409585 0 607.63909377 0 21771
0.14250000 0.14249400 11191.74162023 0 -27.77910529 0 2831.91068805 0 532.46507285 0 702.41947829 0 22470
0.14350000 0.14350900 11166.80664047 0 -47.52365482 0 2275.70685539 0 300.60491172 0 1041.99435815 0 22519
0.14450000 0.14449900 10820.99032646 0 144.76568205 0 2643.84382089 0 -306.36851695 0 493.25014874 0 22218
0.14550000 0.14550500 10615.83146436 0 459.35065929 0 2837.49085092 0 -443.28682035 0 425.79059314 0 23559
0.14650000 0.14650700 10284.51478616 0 312.63301869 0 2979.25774466 0 -414.87851874 0 946.72955398 0 23044
0.14750000 0.14750500 9920.50801996 0 -61.94178509 0 3220.03957564 0 197.59818079 0 584.80656120 0 23649
0.14850000 0.14849900 10170.59378392 0 5.41174740 0 3006.78508355 0 593.80841843 0 -125.70635016 0 23640
0.14950000 0.14949500 9916.23502123 0 180.78189863 0 2948.56684886 0 -286.02508853 0 57.38274809 0 24457
0.15050000 0.15050000 9732.36426079 0 239.61307246 0 2817.98225002 0 -168.32539332 0 426.81765068 0 24591
0.15150000 0.15149900 9611.42411667 0 101.25403252 0 3216.62337357 0 37.64764530 0 566.28437491 0 25020
0.15250000 0.15250500 9603.51522441 0 204.78428818 0 3102.36184958 0 147.24270317 0 -236.29792846 0 25297
0.15350000 0.15350100 9289.41137145 0 -173.25966333 0 3021.93280914 0 126.83117040 0 730.77395549 0 25452
0.15450000 0.15450400 9475.72070700 0 -142.48748170 0 2788.42276520 0 208.33010821 0 -30.57094426 0 26061
0.15550000 0.15549900 9437.15387266 0 142.60721354 0 2493.08056221 0 -109.33032967 0 -118.32361893 0 26128
0.15650000 0.15649500 9430.98054287 0 174.74148217 0 2500.94551618 0 3.18636088 0 94.87320416 0 26331
0.15750000 0.15749700 9542.11146368 0 49.36115412 0 2787.26938508 0 56.43763547 0 -294.07018949 0 27345
0.15850000 0.15849900 9258.64358364 0 12.75045247 0 2608.81401892 0 -192.24869395 0 -602.31047761 0 26980
0.15950000 0.15949700 9056.39563328 0 336.74305705 0 2858.92175203 0 -252.80444567 0 -804.55513261 0 27777
0.16050000 0.16050000 8896.96554683 0 203.37496751 0 3033.40070291 0 -495.60194573 0 -1025.45378876 0 28224
0.16150000 0.16150500 8678.48239819 0 -25.62217462 0 3129.15322210 0 360.43018937 0 -892.59098956 0 28075
0.16250000 0.16249700 8759.15309923 0 -60.98546821 0 2970.51402488 0 309.79570360 0 -979.34165152 0 28590
0.16350000 0.16349900 8771.46680509 0 58.14441835 0 2568.23700781 0 132.05872849 0 -792.43585368 0 29163
0.16450000 0.16449100 8553.42303935 0 100.02749515 0 2748.46089015 0 -39.81017810 0 -641.49464492 0 28996
0.16550000 0.16550500 8666.65201352 0 56.14445722 0 2541.00625238 0 396.99453612 0 -270.41820781 0 30777
0.16650000 0.16650700 8686.94051908 0 -35.70897808 0 2641.00980116 0 388.58914118 0 -122.96020702 0 29211
0.16750000 0.16749900 8655.28298090 0 55.14365282 0 2400.19501646 0 -48.08859138 0 -40.15223769 0 30922
0.16850000 0.16850800 8285.39946837 0 146.39030033 0 2449.59263936 0 -45.78655451 0 417.77624899 0 30867
0.16950000 0.16949900 8367.52013298 0 241.40136088 0 2607.10042560 0 -93.89085383 0 208.25541311 0 30852
0.17050000 0.17049200 8234.31022129 0 105.82811839 0 2800.97813166 0 81.32318465 0 312.44518250 0 31257
0.17150000 0.17149500 8219.88747749 0 -9.54651628 0 2759.51137017 0 103.54629313 0 110.88376792 0 32608
0.17250000 0.17250900 8054.96510475 0 -97.35022527 0 2516.29096407 0 95.67705518 0 368.42915512 0 32361
0.17350000 0.17350400 8036.67579141 0 128.14602373 0 2317.29444719 0 460.38430757 0 464.88798233 0 32508
0.17450000 0.17449800 7987.88232000 0 50.51760992 0 1899.05684615 0 45.60519921 0 586.25432787 0 32791
0.17550000 0.17549800 7964.70487185 0 66.75698233 0 1991.86549989 0 276.62998360 0 355.23558499 0 33633
0.17650000 0.17650100 7776.38535952 0 174.64921176 0 1747.88715829 0 94.38120515 0 480.21585491 0 33984
0.17750000 0.17750300 7704.32656338 0 3.35022873 0 1903.47264433 0 62.85877721 0 598.36481914 0 34069
0.17850000 0.17849800 7608.80472022 0 37.79582718 0 1723.17186998 0 -199.17776233 0 125.77665143 0 34536
