### header ###
fiducial parameters:
Omega_m = 0.31
Omega_nu = 0
Omega_de = 0.69
Omega_k = 0
H_0 = 100
w_de = -1
zeff = 0
beta = 0
fgrowth = 0
b_1 = 2
gamma = 0.55
Lx = 3500 Ly = 3500 Lz = 3500
nx = 700 ny = 700 nz = 700
xoffset = -983.599254 yoffset = -42.9823471 zoffset = 800.977702
bins = 400 dk = 0.001
kx_ny = 0.628318531 ky_ny = 0.628318531 kz_ny = 0.628318531
############################
A(data) = 9.02110858 (not used)
A(ran) = 9.02394686 (used)
Ngal = 501268
weighted Ngal = 0
Nran = 25229228
weighted Nran = 0
SN(data) = 6744.61546
SN(ran) = 133.954274
SN(data+ran) = 6878.56973
############################
13 columns: k_central k_mean P_0(k) sigma^{lin}_{P_0(k)} P^img_1(k) sigma^{lin}_{P_1(k)} P_2(k) sigma^{lin}_{P_2(k)} P^img_3(k) sigma^{lin}_{P_3(k)} P_4(k) sigma^{lin}_{P_4(k)} N_modes
### header ###
0.00050000 0 0 0 0 0 0 0 0 0 0 0 0
0.00150000 0.00179520 30967.37748415 0 -40439.81380394 0 2581.28668004 0 -56542.97751674 0 17881.56601372 0 3
0.00250000 0.00253879 55005.79642971 0 -45531.05334967 0 -14402.86172293 0 -76118.25477677 0 -11357.05943758 0 6
0.00350000 0.00331552 50759.16066976 0 -4696.97028206 0 -26823.99670646 0 3552.64144883 0 14076.72976299 0 7
0.00450000 0.00420575 62103.36815741 0 17551.15007047 0 -4228.85173694 0 -25295.82296895 0 25911.28857068 0 24
0.00550000 0.00557378 54866.73174083 0 8687.97306890 0 31909.74396590 0 1240.04839871 0 -10059.13332594 0 45
0.00650000 0.00659388 46751.98859208 0 10096.34905784 0 60816.19594233 0 34403.13209614 0 20560.59342058 0 40
0.00750000 0.00754703 42029.83068509 0 1722.27113503 0 40629.29768097 0 17167.78848738 0 23875.07835128 0 57
0.00850000 0.00846663 38492.35893099 0 -3187.20668819 0 31624.69430741 0 22607.34882966 0 11081.01712861 0 75
0.00950000 0.00948925 53193.01241661 0 -9410.57120702 0 21908.94970494 0 25535.06695977 0 30175.49964676 0 112
0.01050000 0.01054430 62142.69292726 0 -8681.08574189 0 14518.85880939 0 11215.02891410 0 14243.25588332 0 105
0.01150000 0.01145670 74666.09428152 0 -3905.41099728 0 12911.70599501 0 -13996.76207460 0 4215.64828070 0 144
0.01250000 0.01249090 78224.76626070 0 4621.34149984 0 25278.68703572 0 -14239.08174574 0 13188.18768689 0 169
0.01350000 0.01339930 75677.00449618 0 -4637.20322265 0 23839.92771902 0 9020.76167982 0 -8768.18241789 0 180
0.01450000 0.01448870 82137.80055135 0 -4055.67995019 0 31023.06926713 0 13086.25085333 0 -2673.78776574 0 267
0.01550000 0.01550050 94663.39882013 0 6624.97147697 0 29315.62730509 0 -8438.74410160 0 3167.91777874 0 238
0.01650000 0.01653350 79818.40805080 0 7302.56582122 0 54606.94659928 0 -7307.16835713 0 16013.09021763 0 315
0.01750000 0.01747870 71123.67946976 0 7106.73286124 0 52863.14570199 0 4811.92383413 0 5201.42579329 0 297
0.01850000 0.01844180 72771.03581979 0 -1883.40383022 0 52069.94971589 0 9933.37095445 0 7924.34755219 0 388
0.01950000 0.01947590 75397.22743253 0 5773.05196585 0 57104.50886710 0 9203.25936869 0 11760.74247994 0 399
0.02050000 0.02045430 67509.42555332 0 3449.25465170 0 47778.49689981 0 -8169.56715049 0 11616.95442485 0 462
0.02150000 0.02154770 66668.99590512 0 -617.91845679 0 45675.93986202 0 22239.36564819 0 1297.11325327 0 571
0.02250000 0.02255340 67032.91479474 0 -5644.07111460 0 43497.58927341 0 10228.31771284 0 21809.20978590 0 510
0.02350000 0.02348930 66130.86169436 0 519.04631899 0 25926.11774366 0 8270.51537252 0 2131.32563339 0 555
0.02450000 0.02439640 70291.15871382 0 1811.45487982 0 20792.03836487 0 4597.83451452 0 10927.41985020 0 592
0.02550000 0.02547300 66539.04841149 0 3162.55730732 0 27899.05682500 0 3809.53764779 0 -822.23590063 0 837
0.02650000 0.02652900 60687.01736878 0 5645.67486220 0 23505.33763819 0 -9745.90823878 0 10504.21722236 0 723
0.02750000 0.02749970 57527.52475720 0 1144.61443212 0 27969.02855234 0 -396.93961326 0 3673.96605299 0 826
0.02850000 0.02848090 54686.47490477 0 -1804.75429054 0 26321.45251087 0 5548.40647199 0 -1005.90344648 0 831
0.02950000 0.02946900 58146.06603926 0 -1916.54428570 0 18591.49893965 0 11421.75857008 0 159.71898070 0 996
0.03050000 0.03053250 59485.08543693 0 -1601.36394463 0 17441.41419038 0 131.62154250 0 1095.66827516 0 1041
0.03150000 0.03150510 57965.04028312 0 3598.94142226 0 17207.33294867 0 -5309.31626518 0 -3675.27321713 0 1036
0.03250000 0.03246190 55899.61110065 0 6791.53055102 0 24840.73212690 0 -8064.24706859 0 710.32837055 0 1059
0.03350000 0.03345080 49044.35904408 0 2278.31019910 0 30237.89201902 0 1034.84340140 0 493.86967863 0 1302
0.03450000 0.03451200 48650.67196277 0 916.44069355 0 30433.19771951 0 4265.48528650 0 704.41098130 0 1339
0.03550000 0.03553350 46549.76261086 0 -718.76671920 0 25263.08894265 0 3904.43337032 0 -2722.50434514 0 1365
0.03650000 0.03647120 49648.18099888 0 644.46816872 0 27335.76794303 0 3588.59395489 0 448.19582584 0 1308
0.03750000 0.03744890 45249.62860013 0 -701.16174473 0 19239.03949332 0 3128.36233288 0 1185.36719640 0 1579
0.03850000 0.03847530 46891.60250959 0 92.80667652 0 18240.43199995 0 2313.75741482 0 -1132.60829429 0 1662
0.03950000 0.03950240 44765.64833220 0 1837.01598021 0 20774.90243164 0 -2078.14931752 0 1206.49052947 0 1683
0.04050000 0.04050350 42208.76937244 0 2263.12951979 0 17976.58256655 0 -487.01091151 0 -2645.98581254 0 1822
0.04150000 0.04152450 44584.07334743 0 -865.04277998 0 15596.33553389 0 5171.88827762 0 525.30752536 0 1887
0.04250000 0.04250150 42727.79042691 0 -1024.99902745 0 17803.90508557 0 3167.45642669 0 -3942.45097602 0 1920
0.04350000 0.04349210 43300.41619557 0 1995.32564026 0 13829.46703419 0 1686.75801187 0 5147.81009452 0 2005
0.04450000 0.04448520 41798.93496943 0 272.60413775 0 15342.48206154 0 1589.88506628 0 6202.14232460 0 2151
0.04550000 0.04548030 41971.39275896 0 1418.99807063 0 17663.30255653 0 -1182.19265492 0 4133.12118689 0 2274
0.04650000 0.04648670 40014.16161641 0 1332.93394446 0 19602.18946286 0 -1746.68983988 0 5080.93601665 0 2311
0.04750000 0.04749250 38447.54187486 0 21.70243974 0 20014.77000901 0 -1181.07222852 0 9242.05687905 0 2568
0.04850000 0.04851840 37303.93802342 0 1062.64645306 0 19790.13549973 0 4098.71750557 0 6628.59638592 0 2493
0.04950000 0.04949480 39585.32390284 0 149.69445977 0 20463.48979896 0 2364.03380352 0 7588.42833808 0 2644
0.05050000 0.05050630 37624.68754279 0 -218.75117221 0 18431.56356286 0 1212.67484384 0 5688.86620159 0 2829
0.05150000 0.05149060 37599.75256303 0 1380.33237514 0 19020.66619040 0 735.00521285 0 8980.16269956 0 2784
0.05250000 0.05249300 36595.21340047 0 443.97225768 0 19282.09901784 0 949.13188001 0 8446.13671895 0 3055
0.05350000 0.05348950 35474.23776854 0 348.92604650 0 18720.01843885 0 1037.98059533 0 6078.70868250 0 3009
0.05450000 0.05448610 36117.49433891 0 -395.27215514 0 15784.83079939 0 1563.25846234 0 5446.72228360 0 3336
0.05550000 0.05550870 34685.43561148 0 595.08921959 0 17066.29103673 0 1542.00331440 0 3221.87399926 0 3349
0.05650000 0.05647670 35663.61179985 0 1422.73282531 0 17549.50238458 0 -1033.52964652 0 5677.63996841 0 3324
0.05750000 0.05747970 33868.18341143 0 837.92955948 0 16980.28183342 0 559.63980696 0 3618.77956034 0 3639
0.05850000 0.05849280 32486.76356360 0 -14.52896462 0 16566.27329283 0 1460.99209161 0 4973.16637505 0 3846
0.05950000 0.05951020 32394.27346246 0 -403.72588220 0 14572.02414068 0 -135.07619058 0 1891.48847564 0 3787
0.06050000 0.06049470 31511.00398120 0 1243.40967792 0 15112.24542023 0 1104.90520224 0 1628.28713202 0 3930
0.06150000 0.06148310 31715.86625984 0 1401.19207848 0 16146.11339159 0 -1317.47865083 0 2303.98114522 0 4083
0.06250000 0.06249100 29273.66623783 0 702.91927634 0 14701.31255997 0 252.56937582 0 2420.13201569 0 4303
0.06350000 0.06350600 30061.04040046 0 -278.03051661 0 16673.37287550 0 2954.99282382 0 1815.55212539 0 4470
0.06450000 0.06451750 29486.32756300 0 -206.85927394 0 14014.66692791 0 2262.58029116 0 3246.27073496 0 4479
0.06550000 0.06550280 30497.01808621 0 -382.02146523 0 13477.96071158 0 785.95056202 0 3116.58687107 0 4636
0.06650000 0.06648880 29531.03477341 0 576.31768351 0 11272.47822870 0 -1617.08286799 0 1211.31275684 0 4653
0.06750000 0.06749660 29374.39476840 0 537.49161326 0 12897.97527929 0 -800.72481215 0 1347.41161112 0 5220
0.06850000 0.06852730 28531.87805141 0 222.56940964 0 11896.95117995 0 109.35152989 0 -7.48124088 0 5029
0.06950000 0.06949320 28423.13078285 0 90.76903830 0 13187.52861253 0 1954.29826166 0 -2295.34727117 0 5040
0.07050000 0.07048030 28314.71305148 0 186.58394987 0 11289.94369910 0 5.72402782 0 -2031.61866806 0 5475
0.07150000 0.07148790 27417.49316303 0 533.14172252 0 10950.41056062 0 633.79775491 0 -1104.29006618 0 5509
0.07250000 0.07249820 27949.80555032 0 -331.81427934 0 9834.38897092 0 1428.08231216 0 -2747.15372601 0 5916
0.07350000 0.07351270 27918.71920992 0 -345.58673644 0 7895.51304916 0 742.33741505 0 -1897.16749967 0 5721
0.07450000 0.07449140 28003.95949315 0 369.50893861 0 7795.60836154 0 -436.68399377 0 -3570.22774953 0 6028
0.07550000 0.07549160 26364.62188111 0 469.03905231 0 8857.30025524 0 -909.53688968 0 -1646.02721674 0 6183
0.07650000 0.07648840 26029.37272593 0 544.61840395 0 9005.92152227 0 1214.95963493 0 -1789.35391978 0 6330
0.07750000 0.07749960 26732.82475404 0 114.79207885 0 8382.65687400 0 682.11559433 0 -1377.08094166 0 6583
0.07850000 0.07848650 25982.68829246 0 -462.47906556 0 7658.35612713 0 2406.31342339 0 -1150.08474927 0 6549
0.07950000 0.07947320 26653.62598573 0 121.68819351 0 5821.30719320 0 1348.93846671 0 -126.78064136 0 6828
0.08050000 0.08048110 26252.68908651 0 427.12851408 0 5820.07692107 0 769.62638871 0 771.18180419 0 7147
0.08150000 0.08149960 25172.57606458 0 647.20442575 0 5250.87833905 0 -862.10330836 0 585.85119405 0 7386
0.08250000 0.08250610 24358.28969913 0 1272.34304210 0 6651.27952830 0 -946.52194556 0 560.08138678 0 7227
0.08350000 0.08350160 23112.85885986 0 412.04559747 0 6827.80160968 0 272.87765361 0 977.75657770 0 7798
0.08450000 0.08449610 22387.10814941 0 -318.50756811 0 6025.94978039 0 880.91658582 0 12.82822324 0 7371
0.08550000 0.08548940 22506.40060764 0 472.85179745 0 6693.61407103 0 254.56417420 0 1519.49592518 0 8256
0.08650000 0.08650700 21853.91699631 0 1096.37018934 0 6063.52800319 0 -131.53805975 0 1576.81342491 0 8037
0.08750000 0.08749060 21401.13291451 0 230.25092125 0 6722.42660491 0 -416.87441558 0 1998.59904289 0 8155
0.08850000 0.08849210 20508.74623800 0 212.64594677 0 7593.30548831 0 -31.28922546 0 813.92716993 0 8718
0.08950000 0.08949900 20211.39385822 0 756.37569881 0 8406.42748907 0 -513.67486299 0 1539.64163129 0 8571
0.09050000 0.09049190 19616.35956149 0 568.44943417 0 8990.21358347 0 -654.28727815 0 1428.54366420 0 8932
0.09150000 0.09150830 19416.11080333 0 185.24053664 0 9044.07094284 0 466.64331703 0 1351.61870242 0 9285
0.09250000 0.09250820 19427.53475882 0 -189.97818279 0 9049.01400050 0 541.02205489 0 1649.19077365 0 9204
0.09350000 0.09350330 18522.40597811 0 155.01648518 0 8178.29988570 0 496.69820607 0 462.71633233 0 9349
0.09450000 0.09448040 18715.18522692 0 506.94022154 0 7898.86334380 0 790.29386202 0 1534.53380504 0 9564
0.09550000 0.09549270 18219.45146632 0 329.33615976 0 7530.55062515 0 895.70182051 0 2114.10182358 0 10155
0.09650000 0.09649430 18136.07856043 0 -109.41117612 0 7450.33029159 0 617.75588512 0 1931.64807300 0 9913
0.09750000 0.09749140 17332.00784747 0 235.21484960 0 5797.43771698 0 405.02755405 0 1183.14831274 0 10476
0.09850000 0.09850240 17225.67718489 0 319.49617964 0 5602.81305999 0 574.56893956 0 2165.21303980 0 10575
0.09950000 0.09950330 16956.88469382 0 138.19910456 0 5655.72574611 0 439.78933244 0 1739.06654651 0 10882
0.10050000 0.10051200 16764.87436510 0 143.03011958 0 5430.77268422 0 352.39607298 0 2367.49394388 0 10875
0.10150000 0.10150300 16175.11266321 0 82.37792331 0 4951.06541502 0 60.62748099 0 1649.71803313 0 11118
0.10250000 0.10250800 16146.11339159 0 736.01689198 0 5597.93590976 0 -786.95125659 0 458.47848423 0 11575
0.10350000 0.10349800 15533.72347018 0 381.62162679 0 5596.81548336 0 20.98393885 0 2405.73124104 0 11364
0.10450000 0.10450100 15334.24363210 0 -401.88706475 0 5834.80723290 0 521.77818219 0 902.41998510 0 12093
0.10550000 0.10551000 15451.22933009 0 124.84406122 0 5890.61984619 0 24.57875007 0 671.21450450 0 12067
0.10650000 0.10649700 15150.14219564 0 224.04024391 0 5360.31763568 0 87.18598057 0 1374.23593736 0 12054
0.10750000 0.10749900 15483.96335639 0 6.72300879 0 5814.54069649 0 230.09384186 0 995.31212160 0 12807
0.10850000 0.10850100 15242.30275960 0 356.70861618 0 6083.10251153 0 -756.58111031 0 382.31914715 0 12736
0.10950000 0.10950300 14940.11716788 0 381.65677742 0 6534.86502808 0 -438.58322637 0 778.83146053 0 12933
0.11050000 0.11050200 15222.96991185 0 -203.92968843 0 6700.16087629 0 200.71670095 0 738.45546710 0 13428
0.11150000 0.11150900 14941.87469950 0 -455.83120224 0 6557.60309333 0 525.87213239 0 298.09054305 0 13453
0.11250000 0.11250000 14999.10432265 0 243.28851045 0 6606.34164187 0 160.55490668 0 878.58895489 0 13668
0.11350000 0.11349100 15258.12054411 0 440.83286683 0 6273.54204637 0 -90.83648358 0 248.14259307 0 13791
0.11450000 0.11448600 15239.33692500 0 5.28964290 0 6840.58765217 0 163.31203440 0 985.78739871 0 14205
0.11550000 0.11549300 14412.41830108 0 -102.22770504 0 5764.93436671 0 826.96036530 0 707.06155866 0 14776
0.11650000 0.11649800 14768.09876126 0 60.86277053 0 5611.91927066 0 668.76714173 0 543.14317586 0 14553
0.11750000 0.11747300 14744.26223876 0 328.87590617 0 5461.18896569 0 446.40534050 0 1153.56685877 0 14568
0.11850000 0.11849100 14121.98620203 0 197.48394124 0 4729.58347806 0 -192.05866084 0 1351.71756357 0 16015
0.11950000 0.11950300 13910.64302556 0 -32.21819076 0 4635.01729271 0 635.21146940 0 1480.40183136 0 15270
0.12050000 0.12050700 13664.91813692 0 208.20488408 0 4586.44351275 0 237.57653270 0 838.75010705 0 15999
0.12150000 0.12150000 13658.32739337 0 163.68441141 0 4184.69375516 0 14.62518947 0 1144.03224977 0 15670
0.12250000 0.12250700 13488.94528416 0 231.75361078 0 4770.01768973 0 -668.67487132 0 539.97852050 0 16887
0.12350000 0.12352200 13285.29130851 0 299.92826205 0 4713.78766269 0 -165.69678510 0 725.27398000 0 16407
0.12450000 0.12449800 12975.74605316 0 -94.22709160 0 5134.31005482 0 144.90628458 0 387.15565446 0 16306
0.12550000 0.12549900 13092.07267680 0 52.99924456 0 5172.14092279 0 43.62599893 0 60.13306537 0 17523
0.12650000 0.12650100 13273.31812439 0 97.18216131 0 4626.68000212 0 507.93871919 0 -72.64888737 0 17154
0.12750000 0.12750600 13062.74386801 0 -0.50030005 0 4640.11413438 0 221.52917062 0 866.88049897 0 18007
0.12850000 0.12850300 13204.66454576 0 8.72410133 0 4583.93903020 0 154.01469216 0 305.81709141 0 17496
0.12950000 0.12949900 12734.30514783 0 269.33842432 0 4237.11213552 0 59.95467591 0 318.99418468 0 18405
0.13050000 0.13049000 12558.22244935 0 100.72018230 0 4271.08741851 0 88.53565501 0 456.46611053 0 18100
0.13150000 0.13148800 12348.63680449 0 21.77241147 0 3979.13944845 0 465.79860340 0 245.58099074 0 19059
0.13250000 0.13249300 12361.81829159 0 148.41475706 0 3519.19342532 0 116.75282505 0 92.59137889 0 18957
0.13350000 0.13349100 12024.48206762 0 98.27523613 0 3452.41820860 0 135.00808623 0 -100.19764618 0 19468
0.13450000 0.13450700 11732.73181986 0 564.86297122 0 3991.78269149 0 -396.22341912 0 -378.62393693 0 19953
0.13550000 0.13551000 11250.39923781 0 302.02302004 0 3828.03566802 0 -400.17896371 0 489.48573571 0 19956
0.13650000 0.13649900 11263.03149628 0 -178.22139476 0 4093.74149419 0 673.94636770 0 80.11861642 0 19723
0.13750000 0.13749600 11266.98594241 0 -227.41470461 0 3581.88238104 0 678.25012324 0 417.15891601 0 20946
0.13850000 0.13851100 11344.31733338 0 162.54640969 0 3353.20554904 0 247.27041801 0 334.83613525 0 20955
0.13950000 0.13949800 11225.24456660 0 242.67447284 0 3214.15184474 0 65.14411754 0 1207.05074267 0 20506
0.14050000 0.14048300 11036.41976393 0 77.09654081 0 3513.59129330 0 10.02144526 0 1101.23635500 0 21447
0.14150000 0.14148400 10993.47008513 0 85.56169182 0 3252.74064821 0 -134.39844245 0 578.03896603 0 21771
0.14250000 0.14249400 10906.40636285 0 22.16862500 0 3019.24158885 0 463.48195704 0 551.87810797 0 22470
0.14350000 0.14350900 10751.73259634 0 47.34647366 0 2893.52315566 0 146.40567874 0 912.88938123 0 22519
0.14450000 0.14449900 10553.51598411 0 178.21041019 0 2601.84979991 0 -161.23265481 0 248.82912886 0 22218
0.14550000 0.14550500 10515.76200814 0 209.33959043 0 2572.46606825 0 25.97873385 0 60.08121819 0 23559
0.14650000 0.14650700 10092.99876321 0 155.47783723 0 2554.44038465 0 113.85839018 0 102.84866292 0 23044
0.14750000 0.14750500 9893.58483256 0 115.22816638 0 2727.49134109 0 -25.10414218 0 185.29655796 0 23649
0.14850000 0.14849900 9801.50116061 0 119.42756848 0 2708.43310766 0 -43.76473408 0 289.74995709 0 23640
0.14950000 0.14949500 9895.40827161 0 9.00286781 0 2700.63406113 0 -279.95940755 0 -343.08225389 0 24457
0.15050000 0.15050000 9764.25247499 0 144.63826101 0 2797.77063647 0 205.10284078 0 194.27424913 0 24591
0.15150000 0.15149900 9919.06904095 0 -219.60137813 0 2550.38707736 0 519.09355265 0 353.99322984 0 25020
0.15250000 0.15250500 9954.94465500 0 87.74476578 0 2900.54229754 0 -271.54192958 0 -73.59367046 0 25297
0.15350000 0.15350100 9654.98893152 0 358.30247766 0 2943.39311518 0 -551.93962158 0 99.78989884 0 25452
0.15450000 0.15450400 9313.34675510 0 243.46646052 0 3230.39802758 0 -148.35873574 0 197.59488542 0 26061
0.15550000 0.15549900 9088.34975492 0 -10.11127709 0 3565.16386157 0 343.47000930 0 23.95900049 0 26128
0.15650000 0.15649500 9316.96067948 0 75.11074978 0 3197.35643326 0 336.26742506 0 204.70080543 0 26331
0.15750000 0.15749700 9267.68388688 0 -44.25695278 0 2791.48746095 0 296.54611215 0 210.55887798 0 27345
0.15850000 0.15849900 8967.71717883 0 138.71977330 0 2687.61734262 0 176.52757367 0 96.57065016 0 26980
0.15950000 0.15949700 8992.44345171 0 85.40274506 0 2503.79052047 0 -96.65600029 0 142.66872714 0 27777
0.16050000 0.16050000 8736.04155851 0 280.31750462 0 2849.80455679 0 -61.94200479 0 495.90402147 0 28224
0.16150000 0.16150500 8698.89173404 0 37.32535794 0 2564.87572860 0 68.44564067 0 86.45221112 0 28075
0.16250000 0.16249700 8496.45704594 0 -53.92612279 0 2652.64246352 0 305.92913405 0 614.76149063 0 28590
0.16350000 0.16349900 8549.98486813 0 4.63009620 0 2320.28225093 0 210.86974139 0 302.93034573 0 29163
0.16450000 0.16449100 8424.15658921 0 -0.75354717 0 2204.02153473 0 505.21674211 0 1093.19125404 0 28996
0.16550000 0.16550500 8726.58384152 0 22.95808623 0 2092.19858585 0 -22.89679232 0 760.16647480 0 30777
0.16650000 0.16650700 8517.96483906 0 126.84435188 0 2006.87042604 0 71.84437728 0 876.26461933 0 29211
0.16750000 0.16749900 8494.32603886 0 153.07770812 0 2164.15852083 0 -291.81835211 0 629.68293402 0 30922
0.16850000 0.16850800 8156.16597195 0 232.62578584 0 2414.83745171 0 -231.92716703 0 717.30577105 0 30867
0.16950000 0.16949900 8068.23446843 0 98.83621825 0 2326.78511790 0 164.56098030 0 696.62182088 0 30852
0.17050000 0.17049200 8075.91268467 0 -56.57582139 0 2542.98347544 0 -62.52770220 0 326.98106740 0 31257
0.17150000 0.17149500 7962.05758986 0 -2.15015319 0 2142.55186656 0 -40.66598615 0 187.88781863 0 32608
0.17250000 0.17250900 7776.84671157 0 161.13379365 0 2353.46664470 0 14.12011882 0 -81.78585485 0 32361
0.17350000 0.17350400 7803.34150063 0 106.12129663 0 2265.76581721 0 -88.49720900 0 -60.68943397 0 32508
0.17450000 0.17449800 7705.80948068 0 105.97564120 0 2309.94576813 0 60.61847364 0 -295.43117803 0 32791
0.17550000 0.17549800 7654.85204848 0 -110.38287141 0 1957.38492656 0 308.42592740 0 -59.02329401 0 33633
0.17650000 0.17650100 7865.56910431 0 -80.91576685 0 1745.75615121 0 521.24103659 0 -228.59993999 0 33984
0.17750000 0.17750300 7691.51855175 0 119.11340970 0 1689.80073848 0 21.29117734 0 270.45775227 0 34069
0.17850000 0.17849800 7705.08449889 0 71.67675270 0 1536.18149093 0 -17.70021072 0 276.49816873 0 34536
