### header ###
fiducial parameters:
Omega_m = 0.31
Omega_nu = 0
Omega_de = 0.69
Omega_k = 0
H_0 = 100
w_de = -1
zeff = 0
beta = 0
fgrowth = 0
b_1 = 2
gamma = 0.55
Lx = 3500 Ly = 3500 Lz = 3500
nx = 700 ny = 700 nz = 700
xoffset = -983.599254 yoffset = -42.9823471 zoffset = 800.977702
bins = 400 dk = 0.001
kx_ny = 0.628318531 ky_ny = 0.628318531 kz_ny = 0.628318531
############################
A(data) = 9.16584129 (not used)
A(ran) = 9.18280128 (used)
Ngal = 510088
weighted Ngal = 0
Nran = 25229228
weighted Nran = 0
SN(data) = 6650.34941
SN(ran) = 136.312359
SN(data+ran) = 6786.66177
############################
13 columns: k_central k_mean P_0(k) sigma^{lin}_{P_0(k)} P^img_1(k) sigma^{lin}_{P_1(k)} P_2(k) sigma^{lin}_{P_2(k)} P^img_3(k) sigma^{lin}_{P_3(k)} P_4(k) sigma^{lin}_{P_4(k)} N_modes
### header ###
0.00050000 0 0 0 0 0 0 0 0 0 0 0 0
0.00150000 0.00179520 50660.51920798 0 -16871.53456486 0 -24194.83925912 0 44209.71911386 0 -116484.80148160 0 3
0.00250000 0.00253879 38410.96324817 0 -25312.73921072 0 -8151.58540518 0 77154.75904555 0 42121.00263752 0 6
0.00350000 0.00331552 67050.92949378 0 -18333.03194681 0 -5485.87130028 0 29676.25082293 0 7262.15357870 0 7
0.00450000 0.00420575 74821.52598355 0 -3263.20894588 0 7467.44425567 0 -9114.72371368 0 -4393.63131023 0 24
0.00550000 0.00557378 73057.51347271 0 1617.48929718 0 -15384.33328307 0 2377.17135233 0 6116.96794880 0 45
0.00650000 0.00659388 87228.93025135 0 -6543.32314897 0 -9299.36339420 0 35680.96742453 0 20713.60851664 0 40
0.00750000 0.00754703 84870.65236386 0 -4462.75722549 0 1045.97736417 0 -8822.96248135 0 5403.90441968 0 57
0.00850000 0.00846663 88577.94561006 0 6624.34535633 0 -5515.12321707 0 -46268.66739850 0 15823.82603205 0 75
0.00950000 0.00948925 76192.62033315 0 4113.98606145 0 20784.12947261 0 1027.16957900 0 -9746.69912801 0 112
0.01050000 0.01054430 65669.18010877 0 6040.53729278 0 8745.10383089 0 -11659.02533784 0 -9357.97707350 0 105
0.01150000 0.01145670 77659.50015566 0 3897.99641079 0 41052.20372535 0 -4113.21714137 0 -16391.28905161 0 144
0.01250000 0.01249090 69740.17255314 0 -4458.83573307 0 19992.47132667 0 -1155.65392757 0 -5557.40283693 0 169
0.01350000 0.01339930 72554.52989421 0 -2674.54570125 0 30243.71384249 0 12574.15007959 0 -9411.13142022 0 180
0.01450000 0.01448870 82425.26681580 0 223.83263549 0 23701.74179594 0 4762.49325751 0 1074.22529102 0 267
0.01550000 0.01550050 77335.89464741 0 -4689.83030989 0 4920.53928781 0 6438.00306706 0 4367.91642582 0 238
0.01650000 0.01653350 81336.03659864 0 3365.28857888 0 20792.14821060 0 1847.49526246 0 -7686.12512662 0 315
0.01750000 0.01747870 75855.06441772 0 8471.32434388 0 17153.17900585 0 -3974.04260677 0 2123.19704968 0 297
0.01850000 0.01844180 75988.08759168 0 2491.65256777 0 29090.88295007 0 -6340.78959972 0 4817.51498157 0 388
0.01950000 0.01947590 67553.58353510 0 -2270.64296743 0 25631.62135276 0 -687.74958160 0 -2541.34677413 0 399
0.02050000 0.02045430 71694.87724399 0 2452.70127340 0 24712.10278197 0 8700.25382104 0 -9463.56078515 0 462
0.02150000 0.02154770 72970.95504077 0 -1637.49220385 0 22144.56878681 0 8857.76160729 0 -5456.38870748 0 571
0.02250000 0.02255340 72795.97079955 0 239.47137147 0 13568.36374393 0 -6257.20798695 0 -7966.25369659 0 510
0.02350000 0.02348930 69247.84401005 0 5148.52409174 0 25426.64922839 0 -4903.69993805 0 -1950.21200066 0 555
0.02450000 0.02439640 62893.26877174 0 235.76188131 0 18132.56349720 0 5453.12628942 0 -2153.77809974 0 592
0.02550000 0.02547300 65012.41251413 0 125.79422674 0 16070.20999505 0 5122.12816383 0 -5606.83341355 0 837
0.02650000 0.02652900 63707.33544574 0 -1161.94808765 0 14852.46027869 0 5135.95774071 0 2719.69229456 0 723
0.02750000 0.02749970 70688.91008699 0 -907.27296927 0 13132.49590390 0 4184.40815627 0 -10277.21004540 0 826
0.02850000 0.02848090 63697.44933042 0 4856.76285941 0 15146.07790379 0 -8629.33742046 0 2040.81275532 0 831
0.02950000 0.02946900 62262.64445984 0 3998.90069452 0 11884.20907576 0 -4425.94792277 0 -637.73133036 0 996
0.03050000 0.03053250 59542.53475153 0 -430.95773608 0 23301.24427963 0 -753.06275172 0 3302.99506777 0 1041
0.03150000 0.03150510 55537.88912555 0 2005.16781729 0 18712.32923804 0 10958.38536031 0 1713.73612213 0 1036
0.03250000 0.03246190 56197.07332615 0 -577.67098285 0 21210.00135159 0 2372.86539988 0 12103.57099020 0 1059
0.03350000 0.03345080 55063.79497293 0 1995.79797688 0 18572.27593763 0 4794.39245629 0 4669.39900489 0 1302
0.03450000 0.03451200 52536.02513052 0 2705.82976396 0 20688.56369115 0 -4414.95236561 0 7776.90163443 0 1339
0.03550000 0.03553350 50647.44756661 0 2329.38846160 0 22684.46052918 0 1491.06785134 0 17001.37221277 0 1365
0.03650000 0.03647120 49835.35811567 0 -1308.16373328 0 21515.15277790 0 4842.50488419 0 10643.50160269 0 1308
0.03750000 0.03744890 50388.98057377 0 -1718.11896659 0 15051.06135096 0 5075.58652980 0 5936.73308189 0 1579
0.03850000 0.03847530 47780.03473997 0 2589.39329460 0 17309.92885658 0 -378.01868699 0 7988.26678004 0 1662
0.03950000 0.03950240 45962.08797776 0 2732.66507478 0 17351.67023239 0 -2895.23674898 0 8437.56875233 0 1683
0.04050000 0.04050350 43649.61575794 0 1705.93707560 0 15588.53648736 0 1138.80359323 0 7914.54931345 0 1822
0.04150000 0.04152450 43860.29986005 0 -336.38715690 0 18056.22071776 0 4767.30450030 0 1112.67129505 0 1887
0.04250000 0.04250150 42465.58867939 0 -16.73411756 0 15870.07108262 0 -844.90366461 0 5105.86001183 0 1920
0.04350000 0.04349210 42377.93179019 0 1209.87377783 0 15716.61660366 0 -1699.54405436 0 -214.29802649 0 2005
0.04450000 0.04448520 39726.80519769 0 435.84587088 0 13091.63329390 0 1152.51233981 0 7415.32245877 0 2151
0.04550000 0.04548030 42305.10407398 0 -197.08739817 0 14052.34401186 0 4176.07086568 0 -611.24203358 0 2274
0.04650000 0.04648670 40380.71680345 0 -972.71465888 0 15115.32110056 0 998.98316575 0 782.29050244 0 2311
0.04750000 0.04749250 39737.57007882 0 3678.64548091 0 13311.43459125 0 -3404.48153385 0 876.56779353 0 2568
0.04850000 0.04851840 37905.45321797 0 558.29859065 0 13616.36632611 0 -27.22064962 0 765.71038859 0 2493
0.04950000 0.04949480 37700.26140215 0 -411.82810293 0 15755.94137350 0 5456.89399781 0 4223.72194154 0 2644
0.05050000 0.05050630 38078.35039040 0 -1357.05606584 0 10966.22834513 0 1550.91180276 0 1356.05646974 0 2829
0.05150000 0.05149060 36762.83797806 0 1032.25653456 0 12436.95276805 0 -353.02768591 0 174.48883700 0 2784
0.05250000 0.05249300 36134.63027214 0 1353.28835745 0 10878.51653307 0 -1136.03548094 0 1566.26823523 0 3055
0.05350000 0.05348950 34264.61663589 0 865.53708575 0 14361.34003857 0 -3590.30754821 0 343.18001659 0 3009
0.05450000 0.05448610 34821.53446576 0 2260.08679318 0 15602.48689454 0 792.15135325 0 -1738.72602476 0 3336
0.05550000 0.05550870 35231.91809740 0 -1508.79695148 0 15900.16881149 0 2709.68534894 0 -1988.49323611 0 3349
0.05650000 0.05647670 34928.74389416 0 -1063.34067805 0 14905.84530143 0 541.37465967 0 -3143.80664193 0 3324
0.05750000 0.05747970 33983.41157780 0 1802.23882342 0 16136.55681344 0 -2094.08793233 0 -349.93992255 0 3639
0.05850000 0.05849280 33380.35854309 0 338.00408599 0 15490.88363711 0 996.97738280 0 2716.72645996 0 3846
0.05950000 0.05951020 33890.70178522 0 -155.17795840 0 15652.79623696 0 1450.86431569 0 -2610.64844254 0 3787
0.06050000 0.06049470 35140.08707062 0 -151.63103991 0 15034.03526346 0 138.48360499 0 -2777.27342403 0 3930
0.06150000 0.06148310 33451.09919051 0 472.42559604 0 14084.85834670 0 753.53728525 0 236.77465891 0 4083
0.06250000 0.06249100 32150.74548833 0 -71.79549593 0 13768.83219354 0 1167.83581856 0 2948.02860481 0 4303
0.06350000 0.06350600 32684.59571579 0 753.63285103 0 11632.99190082 0 2704.92902901 0 1108.02482085 0 4470
0.06450000 0.06451750 32382.73966125 0 445.52547624 0 11476.90112444 0 912.84654140 0 888.99793587 0 4479
0.06550000 0.06550280 32091.31895067 0 718.73376548 0 11743.38685526 0 207.77319038 0 89.50152847 0 4636
0.06650000 0.06648880 30094.98272974 0 540.54312753 0 11303.56456911 0 -1532.99596488 0 1652.72780602 0 4653
0.06750000 0.06749660 29077.37192580 0 712.38468253 0 11771.61720680 0 392.31181283 0 -644.48135021 0 5220
0.06850000 0.06852730 29198.53176137 0 209.01115171 0 11658.36626348 0 -1665.49187936 0 -214.05856281 0 5029
0.06950000 0.06949320 28348.65538075 0 283.09550302 0 10793.53987958 0 2418.39645323 0 -2145.16619484 0 5040
0.07050000 0.07048030 28783.97399215 0 -247.79328366 0 11434.50067428 0 638.33658030 0 -298.50905527 0 5475
0.07150000 0.07148790 28586.03199424 0 -59.96599002 0 8508.79272095 0 1396.82021859 0 -1943.35762737 0 5509
0.07250000 0.07249820 28949.51150095 0 558.71929978 0 9888.44405260 0 658.72284856 0 -1297.36589844 0 5916
0.07350000 0.07351270 27877.52706274 0 604.09656911 0 9566.25555421 0 -1221.16591844 0 -935.08261167 0 5721
0.07450000 0.07449140 27249.31935681 0 604.20751329 0 10082.70621870 0 -61.59423322 0 -460.88959791 0 6028
0.07550000 0.07549160 26251.04140062 0 851.91841266 0 11443.72771524 0 -599.36661216 0 -1860.56690383 0 6183
0.07650000 0.07648840 24735.82945875 0 1298.87078488 0 11764.69692607 0 117.89851597 0 459.14634624 0 6330
0.07750000 0.07749960 24412.44364195 0 -132.10486369 0 10837.55506191 0 1015.82471243 0 457.00655150 0 6583
0.07850000 0.07848650 24576.11377342 0 -679.02563406 0 10582.69100888 0 2434.71952808 0 1016.54639885 0 6549
0.07950000 0.07947320 24553.37570817 0 223.43719088 0 9360.72321664 0 682.64614918 0 679.65614853 0 6828
0.08050000 0.08048110 24307.10159090 0 533.86780277 0 8667.08041185 0 -343.05039863 0 1411.22099324 0 7147
0.08150000 0.08149960 24230.97850291 0 50.59955483 0 9198.36024932 0 258.00234542 0 261.78653067 0 7386
0.08250000 0.08250610 23203.04220075 0 513.66387842 0 9617.64138475 0 -969.08206073 0 -533.40095843 0 7227
0.08350000 0.08350160 23118.68068332 0 784.00629268 0 9655.08779268 0 -1025.86571023 0 -783.77232128 0 7798
0.08450000 0.08449610 22677.65009418 0 73.39441031 0 10414.94560099 0 176.63741939 0 -1045.69066683 0 7371
0.08550000 0.08548940 21705.62526646 0 258.35714711 0 9664.41369480 0 831.53214441 0 -1035.69031195 0 8256
0.08650000 0.08650700 22196.41596939 0 186.77398297 0 9211.76142787 0 1205.26025734 0 -754.53248753 0 8037
0.08750000 0.08749060 21501.20237072 0 106.39700941 0 9046.99283915 0 689.89706554 0 -188.16792523 0 8155
0.08850000 0.08849210 21095.76179674 0 774.50353894 0 9079.43028198 0 -83.28920345 0 -1444.52621731 0 8718
0.08950000 0.08949900 20308.93686274 0 414.09422026 0 8149.02599977 0 40.98640614 0 620.28013990 0 8571
0.09050000 0.09049190 20103.52535547 0 -5.82797483 0 8698.97961063 0 963.08338564 0 341.93985834 0 8932
0.09150000 0.09150830 19951.82840812 0 222.44089014 0 7934.66206584 0 705.87412636 0 -319.26660208 0 9285
0.09250000 0.09250820 19403.25885341 0 57.20304048 0 7170.58618166 0 653.62930225 0 737.03845723 0 9204
0.09350000 0.09350330 19167.52992581 0 -170.83317124 0 5994.76457883 0 1065.83856985 0 -241.95608179 0 9349
0.09450000 0.09448040 18889.73008523 0 740.73147054 0 6468.48525598 0 283.69635914 0 1695.39188592 0 9564
0.09550000 0.09549270 18714.52615256 0 380.50449576 0 5841.60668333 0 -326.86243402 0 750.02002511 0 10155
0.09650000 0.09649430 18191.99003487 0 -259.20515612 0 5955.70343873 0 930.34276861 0 1141.61564381 0 9913
0.09750000 0.09749140 18085.21998938 0 132.47833916 0 5503.55646214 0 401.08299403 0 241.84623607 0 10476
0.09850000 0.09850240 17334.42445344 0 974.37332934 0 6305.68290575 0 -565.44625203 0 1994.57868932 0 10575
0.09950000 0.09950330 16948.20688148 0 477.68720630 0 6375.69857138 0 -768.49497774 0 1839.25683302 0 10882
0.10050000 0.10051200 16647.88866711 0 -191.01292953 0 7322.74448105 0 195.71322814 0 939.08538992 0 10875
0.10150000 0.10150300 16434.67811330 0 308.87409796 0 6892.16022044 0 144.58553506 0 893.49392142 0 11118
0.10250000 0.10250800 16514.64580169 0 82.65594284 0 6615.60163656 0 658.82500508 0 914.72160794 0 11575
0.10350000 0.10349800 16577.47755686 0 -45.06629608 0 6656.05781737 0 510.97265814 0 1963.66810208 0 11364
0.10450000 0.10450100 16224.54323982 0 -15.22813266 0 5879.69019647 0 851.59656468 0 1847.95661450 0 12093
0.10550000 0.10551000 16284.51900612 0 -57.75128050 0 5886.40177032 0 303.31480577 0 2160.92905649 0 12067
0.10650000 0.10649700 16184.22985845 0 178.30048368 0 5222.02186688 0 210.48747826 0 2043.78957448 0 12054
0.10750000 0.10749900 16226.30077143 0 289.43689677 0 5239.26764583 0 356.51309079 0 1553.59203847 0 12807
0.10850000 0.10850100 15771.10008366 0 205.83221640 0 5267.38815164 0 -487.82926217 0 1441.18690724 0 12736
0.10950000 0.10950300 15298.21423404 0 396.42553526 0 5123.72092685 0 -158.12841459 0 646.58160048 0 12933
0.11050000 0.11050200 15178.15285572 0 179.84381613 0 5445.70071835 0 410.53412028 0 1900.62764003 0 13428
0.11150000 0.11150900 14705.92608045 0 -187.96690755 0 4551.17205019 0 273.32143034 0 638.53979490 0 13453
0.11250000 0.11250000 14758.87172029 0 -98.88312238 0 4327.50418329 0 522.00116901 0 792.86535046 0 13668
0.11350000 0.11349100 14614.31474512 0 466.06333160 0 4019.33199952 0 -22.28769777 0 325.43553804 0 13791
0.11450000 0.11448600 14590.14868544 0 205.89153309 0 4410.75625889 0 129.02039571 0 600.26515019 0 14205
0.11550000 0.11549300 14320.91681147 0 183.99708302 0 4443.86376065 0 -665.25098004 0 -497.21448098 0 14776
0.11650000 0.11649800 14042.78743371 0 -75.66184579 0 4519.20694398 0 318.65915521 0 123.68628727 0 14553
0.11750000 0.11747300 14006.42849847 0 -18.77153608 0 4105.42907941 0 161.44355860 0 -495.17794122 0 14568
0.11850000 0.11849100 14246.00202647 0 30.02896545 0 4224.02950957 0 192.57603421 0 -344.10381914 0 16015
0.11950000 0.11950300 14058.16583533 0 153.07001892 0 4079.36268868 0 219.55524293 0 333.64760450 0 15270
0.12050000 0.12050700 14036.19669017 0 222.69902760 0 4001.58093023 0 -59.01714264 0 -506.61397974 0 15999
0.12150000 0.12150000 13771.24879950 0 91.39955277 0 4360.61168505 0 -561.62801460 0 17.74283086 0 15670
0.12250000 0.12250700 13619.33216070 0 108.63028286 0 4636.48922543 0 180.46664140 0 -402.66257557 0 16887
0.12350000 0.12352200 13441.38208489 0 113.52885300 0 4582.02771457 0 50.97698474 0 236.91306452 0 16407
0.12450000 0.12449800 13509.81597207 0 68.39192611 0 4091.70934826 0 115.34020902 0 -379.04464606 0 16306
0.12550000 0.12549900 13319.89271214 0 81.72543970 0 3991.93647550 0 158.42609651 0 -405.99419644 0 17523
0.12650000 0.12650100 13246.95515020 0 299.71186597 0 4282.90681861 0 298.67602077 0 -714.65189831 0 17154
0.12750000 0.12750600 12819.87496823 0 175.27313548 0 4054.99890669 0 3.38732363 0 -412.76618543 0 18007
0.12850000 0.12850300 12571.51378217 0 240.83785230 0 4360.97417595 0 -317.67274060 0 7.88750530 0 17496
0.12950000 0.12949900 12186.28482174 0 85.50193575 0 4221.97539450 0 404.43768250 0 -522.59104056 0 18405
0.13050000 0.13049000 12285.36566643 0 -33.55852831 0 3764.77551452 0 485.35443796 0 -149.49673746 0 18100
0.13150000 0.13148800 12440.68752273 0 37.76364239 0 3893.41584402 0 274.74503095 0 -413.59002838 0 19059
0.13250000 0.13249300 12519.77644531 0 -31.85130604 0 3328.08383155 0 -45.17383505 0 383.13200552 0 18957
0.13350000 0.13349100 12424.43035531 0 -171.67678642 0 3335.27872659 0 580.26004661 0 20.77567135 0 19468
0.13450000 0.13450700 12385.98435127 0 52.39509306 0 3164.53453039 0 -34.68609469 0 -92.90388998 0 19953
0.13550000 0.13551000 12325.56920207 0 197.57401473 0 3042.35312956 0 -78.70797761 0 240.37210643 0 19956
0.13650000 0.13649900 12149.04712069 0 281.62796413 0 3368.04570660 0 26.88078695 0 653.11632271 0 19723
0.13750000 0.13749600 11990.42989262 0 91.98525018 0 3670.31917489 0 -228.15836017 0 316.10414363 0 20946
0.13850000 0.13851100 11654.74135453 0 282.28703848 0 3423.93521190 0 -178.41692015 0 30.55699385 0 20955
0.13950000 0.13949800 11449.54953871 0 271.15307571 0 3856.40881900 0 -21.47077510 0 -270.91580895 0 20506
0.14050000 0.14048300 11162.85219434 0 17.71712696 0 3478.98988967 0 288.17037556 0 -31.55845733 0 21447
0.14150000 0.14148400 11185.26072240 0 97.03167267 0 3597.11798321 0 502.22893836 0 -171.27145569 0 21771
0.14250000 0.14249400 11063.77134965 0 217.03208660 0 3326.41417652 0 -319.73564333 0 -14.19118901 0 22470
0.14350000 0.14350900 10651.79495499 0 242.37239709 0 3398.72561782 0 193.04727237 0 -168.47368505 0 22519
0.14450000 0.14449900 10472.37294645 0 56.33306233 0 3238.59251873 0 232.63347504 0 86.29831726 0 22218
0.14550000 0.14550500 10268.90570852 0 59.51694070 0 3004.45635416 0 358.66167318 0 84.92118140 0 23559
0.14650000 0.14650700 10201.99867693 0 177.60625870 0 3132.85502306 0 -188.18220518 0 155.94248465 0 23044
0.14750000 0.14750500 9940.30221975 0 225.17604872 0 2852.12230160 0 108.76791955 0 -180.34141727 0 23649
0.14850000 0.14849900 9668.47798665 0 136.07688514 0 3262.73660926 0 -208.53332280 0 344.12798520 0 23640
0.14950000 0.14949500 9598.72595076 0 64.97528466 0 3197.93861561 0 27.42507252 0 -43.53471713 0 24457
0.15050000 0.15050000 9554.19449352 0 109.45137966 0 3266.71302454 0 -152.04625676 0 -192.07074387 0 24591
0.15150000 0.15149900 9659.20700740 0 -29.00004053 0 2929.22301655 0 383.74714159 0 11.27610314 0 25020
0.15250000 0.15250500 9560.12616271 0 -129.41803724 0 2801.43948371 0 662.67509777 0 536.58538603 0 25297
0.15350000 0.15350100 9878.44809155 0 -199.45896739 0 2295.79763865 0 634.46891230 0 129.62894103 0 25452
0.15450000 0.15450400 9781.58613052 0 130.85591779 0 2064.14398748 0 -103.44040185 0 449.57329124 0 26061
0.15550000 0.15549900 9609.86430736 0 245.81825751 0 2084.49840047 0 -217.61097358 0 627.77051994 0 26128
0.15650000 0.15649500 9328.39561954 0 270.98061792 0 2524.28773291 0 -318.96123096 0 462.65042490 0 26331
0.15750000 0.15749700 9224.42664005 0 133.46145841 0 2783.28198523 0 -103.17435550 0 322.59492757 0 27345
0.15850000 0.15849900 8958.99542820 0 108.60117374 0 2595.41284037 0 191.70495760 0 379.31706346 0 26980
0.15950000 0.15949700 9132.88121216 0 88.46623251 0 2713.36518075 0 -199.10526415 0 36.23579819 0 27777
0.16050000 0.16050000 8807.27651170 0 108.97179322 0 2782.76571032 0 -42.32597476 0 29.01651739 0 28224
0.16150000 0.16150500 8742.67624035 0 -39.75668324 0 2675.06197616 0 250.73055837 0 -0.81139742 0 28075
0.16250000 0.16249700 8591.44064505 0 72.69919672 0 2775.49392327 0 -132.37178881 0 319.83120911 0 28590
0.16350000 0.16349900 8558.13542099 0 183.64337979 0 2488.04962796 0 59.19608133 0 138.28917806 0 29163
0.16450000 0.16449100 8507.26586536 0 65.31558672 0 2760.66475029 0 112.06680639 0 109.56869489 0 28996
0.16550000 0.16550500 8460.94392279 0 116.73524974 0 2581.37455662 0 193.47127688 0 250.38015050 0 30777
0.16650000 0.16650700 8330.89756800 0 -30.23514588 0 2670.53633226 0 -120.35796177 0 227.59704851 0 29211
0.16750000 0.16749900 8323.24132091 0 77.81284479 0 2610.87911857 0 184.55180394 0 89.12025396 0 30922
0.16850000 0.16850800 8299.45972127 0 15.48198613 0 2341.61429088 0 9.95736126 0 -48.30850253 0 30867
0.16950000 0.16949900 8151.79411206 0 1.85935860 0 2337.40719958 0 133.52077510 0 113.45305945 0 30852
0.17050000 0.17049200 8295.05490766 0 25.80012470 0 2138.74021988 0 277.92396625 0 -167.51143649 0 31257
0.17150000 0.17149500 8247.00838719 0 66.31606159 0 2106.06111645 0 -69.91834232 0 -0.99617771 0 32608
0.17250000 0.17250900 8220.29390668 0 42.22162132 0 1786.34414690 0 112.01408044 0 -224.19292947 0 32361
0.17350000 0.17350400 8060.95169681 0 36.16725445 0 1829.97486919 0 80.29173328 0 -145.11608991 0 32508
0.17450000 0.17449800 8129.66019831 0 38.75686744 0 1730.31184216 0 57.08737293 0 -202.43029427 0 32791
0.17550000 0.17549800 7789.68767691 0 84.03714300 0 1719.84354449 0 177.75564888 0 285.85153228 0 33633
0.17650000 0.17650100 7891.94306307 0 13.57253788 0 1590.48921777 0 200.53655396 0 316.19092175 0 33984
0.17750000 0.17750300 7938.08925249 0 126.32917543 0 1522.49471349 0 167.13905948 0 281.97507662 0 34069
0.17850000 0.17849800 7831.67071332 0 212.30103119 0 1655.88037835 0 -100.83222494 0 487.51290648 0 34536
