### header ###
fiducial parameters:
Omega_m = 0.31
Omega_nu = 0
Omega_de = 0.69
Omega_k = 0
H_0 = 100
w_de = -1
zeff = 0
beta = 0
fgrowth = 0
b_1 = 2
gamma = 0.55
Lx = 3500 Ly = 3500 Lz = 3500
nx = 700 ny = 700 nz = 700
xoffset = -983.599254 yoffset = -42.9823471 zoffset = 800.977702
bins = 400 dk = 0.001
kx_ny = 0.628318531 ky_ny = 0.628318531 kz_ny = 0.628318531
############################
A(data) = 9.04234878 (not used)
A(ran) = 9.03675677 (used)
Ngal = 502117
weighted Ngal = 0
Nran = 25229228
weighted Nran = 0
SN(data) = 6753.20054
SN(ran) = 134.144428
SN(data+ran) = 6887.34497
############################
13 columns: k_central k_mean P_0(k) sigma^{lin}_{P_0(k)} P^img_1(k) sigma^{lin}_{P_1(k)} P_2(k) sigma^{lin}_{P_2(k)} P^img_3(k) sigma^{lin}_{P_3(k)} P_4(k) sigma^{lin}_{P_4(k)} N_modes
### header ###
0.00050000 0 0 0 0 0 0 0 0 0 0 0 0
0.00150000 0.00179520 17676.15450645 0 -18806.13748789 0 -8675.30785671 0 3188.67862092 0 51630.45696691 0 3
0.00250000 0.00253879 26407.68140563 0 -17598.93296120 0 -10095.65702977 0 -41966.66939275 0 -14293.12584284 0 6
0.00350000 0.00331552 41630.65131748 0 -14826.20715022 0 -35265.09150660 0 -8002.92019986 0 -56141.38154316 0 7
0.00450000 0.00420575 39815.67038987 0 -2605.39781685 0 -19498.49509769 0 -18412.67009802 0 18.57754853 0 24
0.00550000 0.00557378 41101.63430197 0 1528.85478102 0 -12749.13432081 0 -17318.38697747 0 -3400.79071747 0 45
0.00650000 0.00659388 58591.71014888 0 1073.24217177 0 700.57956238 0 -23567.94970190 0 9474.81997205 0 40
0.00750000 0.00754703 52117.62276089 0 -4234.53076096 0 -463.67418706 0 -10057.51859377 0 -32049.35788341 0 57
0.00850000 0.00846663 57407.46337889 0 -5174.54654418 0 8374.93471948 0 773.27436527 0 5038.19504473 0 75
0.00950000 0.00948925 59339.97923313 0 -2432.85215074 0 -8930.05107945 0 8937.45468137 0 -20180.74690072 0 112
0.01050000 0.01054430 57620.89362415 0 1113.12166253 0 3872.47924868 0 -3291.32945169 0 4684.41491560 0 105
0.01150000 0.01145670 62914.90837972 0 3002.49011567 0 13901.96521322 0 -4150.01545952 0 -2264.14010047 0 144
0.01250000 0.01249090 59772.77139283 0 4294.70424956 0 14137.91383227 0 -6746.95515549 0 11812.69950825 0 169
0.01350000 0.01339930 55319.84535981 0 -728.29803283 0 17201.29143375 0 -1267.18029298 0 12535.81392128 0 180
0.01450000 0.01448870 62400.94022864 0 -3898.38087083 0 14325.31064051 0 18408.38611472 0 7506.51638034 0 267
0.01550000 0.01550050 67695.50421285 0 -2792.89348624 0 6835.67754822 0 9363.50231351 0 11851.25535801 0 238
0.01650000 0.01653350 75502.56948359 0 -6090.59399003 0 2627.33400830 0 3237.10960143 0 17935.82980227 0 315
0.01750000 0.01747870 68644.02205525 0 -3178.89136675 0 5495.94415334 0 628.84481114 0 24655.53223318 0 297
0.01850000 0.01844180 75991.27311773 0 7784.30523635 0 16275.73134805 0 -18247.13258922 0 11725.37215623 0 388
0.01950000 0.01947590 66030.79223815 0 5409.82510430 0 20597.50158445 0 -5049.99247568 0 7054.66598721 0 399
0.02050000 0.02045430 72246.96186193 0 -4031.10746133 0 23415.70352592 0 11377.16120540 0 1943.81897942 0 462
0.02150000 0.02154770 75911.19558361 0 -5428.56478513 0 22525.29407248 0 2864.34813088 0 5102.24608745 0 571
0.02250000 0.02255340 79845.10056217 0 1469.50513536 0 20709.10484188 0 -1114.97805530 0 -11031.69639772 0 510
0.02350000 0.02348930 78010.78678681 0 3577.16999940 0 22760.14423427 0 -11711.75128623 0 1470.08731771 0 555
0.02450000 0.02439640 73227.55465627 0 5793.39539427 0 35125.14805191 0 -6062.82499055 0 -1095.83304374 0 592
0.02550000 0.02547300 71442.12222889 0 1290.10509596 0 34837.24240455 0 4080.70280653 0 -8456.40729431 0 837
0.02650000 0.02652900 67905.30954915 0 1667.42516413 0 31118.96458577 0 8405.05441749 0 3903.41180507 0 723
0.02750000 0.02749970 68472.00364863 0 -580.71920174 0 35174.68847425 0 5887.66499616 0 933.91714852 0 826
0.02850000 0.02848090 63806.96551905 0 2255.49524184 0 25870.20626922 0 4214.56080801 0 12170.90642013 0 831
0.02950000 0.02946900 68495.07125105 0 3061.77385389 0 32152.50301995 0 1014.66144620 0 4837.74856427 0 996
0.03050000 0.03053250 60243.78986512 0 2778.54763445 0 29624.84302325 0 394.78553857 0 6787.31247515 0 1041
0.03150000 0.03150510 59249.02697215 0 2939.92199024 0 36323.01569191 0 -1786.51990006 0 1917.10449890 0 1036
0.03250000 0.03246190 52252.84284937 0 1688.71326579 0 30771.63240075 0 -3127.21993733 0 -2865.23788126 0 1059
0.03350000 0.03345080 53441.15391122 0 -1861.12711703 0 26234.23500457 0 9427.04806589 0 -6732.31272023 0 1302
0.03450000 0.03451200 53395.78762646 0 946.39232760 0 23388.68147737 0 5357.05521762 0 -6938.36133272 0 1339
0.03550000 0.03553350 52038.53383831 0 2609.29734012 0 20680.76464462 0 190.61418955 0 -553.04027575 0 1365
0.03650000 0.03647120 51465.46868674 0 1012.25143097 0 18514.05770295 0 7105.89803373 0 3741.66397381 0 1308
0.03750000 0.03744890 50683.14742750 0 -1723.35860771 0 15567.77564518 0 2251.96919405 0 -4007.54555314 0 1579
0.03850000 0.03847530 47857.91535957 0 1171.87814127 0 12859.74896670 0 -873.01208739 0 -812.82431884 0 1662
0.03950000 0.03950240 44690.95323865 0 3611.24414355 0 16715.33394276 0 -468.88856366 0 3703.13009320 0 1683
0.04050000 0.04050350 43973.11142046 0 572.72243290 0 12978.60204203 0 699.28557973 0 5645.96046108 0 1822
0.04150000 0.04152450 46456.28389819 0 -674.98880364 0 19973.46801611 0 697.21059397 0 -3420.35424123 0 1887
0.04250000 0.04250150 42773.37640312 0 1652.00282423 0 12042.49676665 0 -672.02626441 0 -1109.36493871 0 1920
0.04350000 0.04349210 42892.22947845 0 709.13874133 0 19130.62176194 0 -4404.61588281 0 -2267.06199677 0 2005
0.04450000 0.04448520 40442.34025563 0 823.40465915 0 17653.19674975 0 562.40242696 0 -1786.87140638 0 2151
0.04550000 0.04548030 42081.67786767 0 1106.28925838 0 22305.71246658 0 -634.49857064 0 -8113.63370691 0 2274
0.04650000 0.04648670 40380.71680345 0 777.05635361 0 17922.31877799 0 440.11557424 0 -5674.61921095 0 2311
0.04750000 0.04749250 40564.04931984 0 -191.61049028 0 18895.55190870 0 3967.92419984 0 -3040.56264423 0 2568
0.04850000 0.04851840 38884.28848070 0 -1584.59050229 0 16904.70797406 0 1886.50147969 0 -4144.98452528 0 2493
0.04950000 0.04949480 40028.77109795 0 1554.83329517 0 14891.12597417 0 4554.23674594 0 717.06960274 0 2644
0.05050000 0.05050630 38456.76891583 0 68.29921632 0 9993.57739677 0 2731.34692607 0 1243.72823052 0 2829
0.05150000 0.05149060 38384.27073679 0 -472.47063278 0 10754.92910696 0 3262.84645499 0 4778.32202660 0 2784
0.05250000 0.05249300 39362.33707944 0 764.44386737 0 9197.40459150 0 583.32803773 0 -1040.21485739 0 3055
0.05350000 0.05348950 37530.33006432 0 837.66263437 0 10037.24107278 0 -4009.81935967 0 816.27457309 0 3009
0.05450000 0.05448610 35897.36350438 0 645.90934464 0 9434.63840554 0 -1357.61627905 0 -16.76026084 0 3336
0.05550000 0.05550870 36369.59027965 0 424.69433280 0 12205.28813231 0 2032.90386306 0 -1888.94005481 0 3349
0.05650000 0.05647670 35980.29702737 0 -329.07582539 0 11371.77876484 0 -516.67584822 0 -1712.57175744 0 3324
0.05750000 0.05747970 35960.74448817 0 1194.12190075 0 13263.43200907 0 -1587.13892313 0 -897.85809211 0 3639
0.05850000 0.05849280 34146.31278919 0 1342.53446089 0 12650.16332185 0 -860.51274225 0 1092.96497184 0 3846
0.05950000 0.05951020 34281.53287766 0 264.11745697 0 14169.87893848 0 2684.97006063 0 -1068.04756740 0 3787
0.06050000 0.06049470 33618.94345956 0 289.82465219 0 15059.18993467 0 -343.81822025 0 758.08709521 0 3930
0.06150000 0.06148310 32017.17308574 0 1223.91206159 0 14497.76843003 0 921.50018768 0 3030.68751348 0 4083
0.06250000 0.06249100 32158.87407204 0 80.81668601 0 15559.20767857 0 141.65155572 0 3129.24109868 0 4303
0.06350000 0.06350600 30992.09277245 0 86.81338387 0 14614.31474512 0 1458.80616167 0 3091.10266268 0 4470
0.06450000 0.06451750 31469.04291394 0 198.05623747 0 14343.76472244 0 1452.24837183 0 2158.79804941 0 4479
0.06550000 0.06550280 31274.06675062 0 259.43363523 0 14341.01857930 0 -1129.77427456 0 2061.28799861 0 4636
0.06650000 0.06648880 30932.33669761 0 171.91954547 0 11792.92727760 0 1413.27510832 0 1036.05939359 0 4653
0.06750000 0.06749660 30299.40562547 0 -612.70737556 0 11798.30971817 0 1555.02003291 0 1351.83839387 0 5220
0.06850000 0.06852730 30819.19560002 0 437.19587485 0 10517.14606429 0 1755.33469850 0 761.17376011 0 5029
0.06950000 0.06949320 30684.85427735 0 171.85363804 0 9660.14069607 0 701.69010267 0 981.42542494 0 5040
0.07050000 0.07048030 30098.38794724 0 840.23851664 0 9569.88046316 0 -819.14923574 0 -225.85269839 0 5475
0.07150000 0.07148790 28294.50143793 0 1084.62328743 0 9509.41039110 0 -192.23551246 0 -681.22474549 0 5509
0.07250000 0.07249820 27788.99140773 0 651.95525339 0 10700.07215149 0 -1245.02441009 0 53.01956602 0 5916
0.07350000 0.07351270 26015.53216448 0 274.41329686 0 8203.04812772 0 2605.40880142 0 1949.32225029 0 5721
0.07450000 0.07449140 27204.83183786 0 -477.11161470 0 8766.38094798 0 2842.11535598 0 2094.31860836 0 6028
0.07550000 0.07549160 26653.40629427 0 254.16982805 0 6988.63772142 0 613.66413183 0 1111.47397664 0 6183
0.07650000 0.07648840 26203.91758425 0 1152.21575635 0 6850.86921210 0 -997.35964592 0 1608.36111736 0 6330
0.07750000 0.07749960 24646.74457511 0 381.37776928 0 8251.44615452 0 -439.47407521 0 2713.77160994 0 6583
0.07850000 0.07848650 24477.14277446 0 488.94309783 0 8979.38279491 0 367.27797192 0 2390.37480857 0 6549
0.07950000 0.07947320 23905.94500023 0 76.67550214 0 8490.55833047 0 -221.57420737 0 2199.60573655 0 6828
0.08050000 0.08048110 24166.60890758 0 394.87121824 0 9185.09088564 0 -836.29175971 0 1079.03213998 0 7147
0.08150000 0.08149960 23389.67008891 0 546.14635800 0 9339.43511498 0 277.72185012 0 737.46465865 0 7386
0.08250000 0.08250610 23001.91467678 0 -134.15348648 0 9642.82900968 0 323.25400192 0 1203.82127833 0 7227
0.08350000 0.08350160 23244.12450220 0 226.42060079 0 9274.05493898 0 454.12639657 0 -271.95494951 0 7798
0.08450000 0.08449610 22667.21475023 0 736.76164600 0 9629.59259972 0 -689.56533145 0 -28.23661274 0 7371
0.08550000 0.08548940 21543.16343798 0 846.87210002 0 9477.87368322 0 -71.21243482 0 140.07417110 0 8256
0.08650000 0.08650700 20910.23236584 0 311.25225792 0 9562.83935214 0 629.68403248 0 302.36024642 0 8037
0.08750000 0.08749060 20641.76941196 0 154.23438361 0 9009.99679869 0 1401.02730989 0 644.05185342 0 8155
0.08850000 0.08849210 20988.77205980 0 -330.37639879 0 8327.59121165 0 218.81707965 0 83.03238414 0 8718
0.08950000 0.08949900 19791.45364844 0 356.46585712 0 8019.06752156 0 584.09036707 0 644.82406887 0 8571
0.09050000 0.09049190 19899.21230546 0 470.67685208 0 7354.34709637 0 -510.53876752 0 263.28153100 0 8932
0.09150000 0.09150830 19417.75848922 0 479.69408771 0 7888.96624390 0 425.01398386 0 -461.77824983 0 9285
0.09250000 0.09250820 19370.08544421 0 -3.42275986 0 7377.24993020 0 746.91798181 0 527.35285277 0 9204
0.09350000 0.09350330 18670.14847933 0 95.08059289 0 7490.30315121 0 772.16272652 0 831.87486307 0 9349
0.09450000 0.09448040 18941.57726782 0 361.01017480 0 6992.40542982 0 325.17849904 0 1012.22287108 0 9564
0.09550000 0.09549270 18174.85410164 0 101.77832617 0 6439.76059868 0 440.03428841 0 613.01714050 0 10155
0.09650000 0.09649430 18308.53634995 0 -16.97160402 0 6267.58840804 0 746.09633578 0 806.35330714 0 9913
0.09750000 0.09749140 17931.32612751 0 -10.83569867 0 6159.37938354 0 -93.46135704 0 1204.34853782 0 10476
0.09850000 0.09850240 17722.39955701 0 449.64359250 0 5780.51049063 0 -272.56788866 0 1283.25072267 0 10575
0.09950000 0.09950330 17409.77862135 0 353.39127526 0 5720.47980148 0 275.17123236 0 371.93762760 0 10882
0.10050000 0.10051200 17589.59607450 0 104.35409860 0 5930.49384466 0 -154.70891715 0 65.59525394 0 10875
0.10150000 0.10150300 16866.70135293 0 274.06508590 0 5613.69877141 0 -12.45628562 0 -632.89811842 0 11118
0.10250000 0.10250800 16845.61097357 0 133.06161996 0 6051.95026369 0 -24.55293633 0 34.70663584 0 11575
0.10350000 0.10349800 16120.84887465 0 146.14204899 0 5617.60927925 0 -15.56755595 0 304.55057019 0 11364
0.10450000 0.10450100 16270.45875321 0 125.65032884 0 5598.66089155 0 1044.65262472 0 -635.34657965 0 12093
0.10550000 0.10551000 16154.24197530 0 366.30254187 0 5807.24694030 0 -58.46121343 0 525.95781205 0 12067
0.10650000 0.10649700 15552.72678075 0 362.98520095 0 5612.01813181 0 27.89224639 0 672.28440187 0 12054
0.10750000 0.10749900 15307.88065791 0 152.84044135 0 5735.22109788 0 -202.49290634 0 861.19158883 0 12807
0.10850000 0.10850100 14755.13696562 0 373.28653312 0 5929.79083201 0 319.38523546 0 657.31572481 0 12736
0.10950000 0.10950300 14929.90151538 0 180.11733199 0 6014.74551636 0 -110.45536959 0 581.43429742 0 12933
0.11050000 0.11050200 14427.35731979 0 201.57459607 0 5800.33764414 0 102.82570517 0 630.06080332 0 13428
0.11150000 0.11150900 14156.80729711 0 10.48727901 0 5864.72920861 0 510.34763596 0 161.92028905 0 13453
0.11250000 0.11250000 14223.81318986 0 -133.48672292 0 5341.63287772 0 421.51979132 0 1329.99007900 0 13668
0.11350000 0.11349100 14331.57184688 0 76.10738005 0 4722.80599678 0 401.09178169 0 251.41599570 0 13791
0.11450000 0.11448600 14048.49941146 0 116.72646208 0 4926.24028098 0 27.77471146 0 1063.33518576 0 14205
0.11550000 0.11549300 14214.36645744 0 85.02322808 0 4582.87352666 0 216.12036708 0 578.84633212 0 14776
0.11650000 0.11649800 13947.22165226 0 50.51980683 0 4786.74719377 0 78.97413380 0 -35.88451155 0 14553
0.11750000 0.11747300 13989.29256524 0 174.65470404 0 4381.93274043 0 -261.37680612 0 607.62481382 0 14568
0.11850000 0.11849100 13944.36566339 0 -40.69048175 0 4529.98280968 0 -174.24717640 0 -46.56580009 0 16015
0.11950000 0.11950300 13706.22012982 0 -30.53897915 0 4293.22133226 0 445.36290457 0 -275.38762844 0 15270
0.12050000 0.12050700 13997.09161178 0 -83.16980115 0 3938.18896186 0 286.73359346 0 -522.42517351 0 15999
0.12150000 0.12150000 14191.62839219 0 136.98421083 0 3987.08129442 0 270.40392786 0 -566.00207140 0 15670
0.12250000 0.12250700 13737.08677878 0 41.59451207 0 3477.70469468 0 -175.22590182 0 -1116.26325029 0 16887
0.12350000 0.12352200 13940.63090871 0 177.18884494 0 3459.68999565 0 214.70555413 0 -805.81176771 0 16407
0.12450000 0.12449800 13671.17934329 0 172.53907536 0 3714.20254236 0 -368.41487518 0 -1031.31625515 0 16306
0.12550000 0.12549900 12922.25118469 0 297.37105355 0 3815.44734784 0 80.43815764 0 -716.21390453 0 17523
0.12650000 0.12650100 12958.93965711 0 145.62687254 0 3998.47229619 0 40.17958928 0 -596.22722131 0 17154
0.12750000 0.12750600 12662.46604314 0 231.80304136 0 3835.23056306 0 128.25806637 0 -1577.18690037 0 18007
0.12850000 0.12850300 12254.16948029 0 372.34295833 0 4419.22536435 0 58.23317370 0 -389.10212072 0 17496
0.12950000 0.12949900 12016.68302109 0 199.44798282 0 3792.63239059 0 108.43948083 0 -343.65235321 0 18405
0.13050000 0.13049000 12187.27343327 0 -101.25524083 0 3899.27062121 0 668.74517258 0 261.95569309 0 18100
0.13150000 0.13148800 12181.56145553 0 -138.00138225 0 3370.63806573 0 536.95336921 0 -282.53968365 0 19059
0.13250000 0.13249300 12079.84431343 0 -55.31237585 0 3159.09716696 0 19.62097308 0 422.69294367 0 18957
0.13350000 0.13349100 12173.32302610 0 188.79184896 0 3420.00273491 0 88.12615014 0 471.41501536 0 19468
0.13450000 0.13450700 11838.62309954 0 147.25039237 0 2946.91916298 0 -439.14783340 0 275.20967837 0 19953
0.13550000 0.13551000 11876.41002922 0 127.15191992 0 3522.89522628 0 169.38760149 0 -125.18787834 0 19956
0.13650000 0.13649900 11550.49776073 0 271.51336969 0 3694.57311115 0 -417.35224448 0 -416.65362567 0 19723
0.13750000 0.13749600 11552.47498380 0 88.33200103 0 3854.14599704 0 -165.29584820 0 302.42176002 0 20946
0.13850000 0.13851100 11291.48153927 0 24.30951820 0 3797.11409620 0 436.99705409 0 130.57690965 0 20955
0.13950000 0.13949800 11385.61932629 0 70.47537000 0 3625.33735017 0 87.40369480 0 -303.60699540 0 20506
0.14050000 0.14048300 11246.77432886 0 144.97109356 0 3612.24373966 0 -37.65225882 0 -316.91041126 0 21447
0.14150000 0.14148400 11102.98627377 0 154.19154378 0 3325.37064212 0 688.07362650 0 366.19489306 0 21771
0.14250000 0.14249400 10709.21131587 0 -4.50367476 0 3326.56796053 0 194.42254086 0 877.76621040 0 22470
0.14350000 0.14350900 10808.57775944 0 39.37398073 0 2917.72216906 0 412.68709651 0 1004.08549972 0 22519
0.14450000 0.14449900 10677.99316060 0 167.81680761 0 3361.82843852 0 215.10539257 0 861.80782336 0 22218
0.14550000 0.14550500 10604.78098434 0 289.60715765 0 2861.40426543 0 -357.76862743 0 959.05973671 0 23559
0.14650000 0.14650700 10596.39975546 0 -9.59373895 0 3413.71955939 0 -176.88567073 0 883.21565686 0 23044
0.14750000 0.14750500 10437.14542218 0 -60.46106471 0 3143.85058022 0 110.85191266 0 412.09832342 0 23649
0.14850000 0.14849900 10321.15932029 0 36.82918480 0 3252.49898762 0 -301.58363714 0 309.56392912 0 23640
0.14950000 0.14949500 10275.74909724 0 198.17157548 0 3497.45495618 0 -310.88866857 0 77.11169952 0 24457
0.15050000 0.15050000 10146.37280138 0 147.57224034 0 3400.15361226 0 119.05958529 0 -475.01246288 0 24591
0.15150000 0.15149900 9979.28646784 0 127.88019708 0 3540.97583275 0 91.36517106 0 -462.66580330 0 25020
0.15250000 0.15250500 9991.73198858 0 176.60666259 0 3210.84548839 0 142.24582110 0 -551.41785438 0 25297
0.15350000 0.15350100 9654.91203952 0 45.35310327 0 3197.42234070 0 190.10011155 0 -185.51515095 0 25452
0.15450000 0.15450400 9426.41096068 0 128.82487032 0 2764.88282616 0 244.41552759 0 -165.50675200 0 26061
0.15550000 0.15549900 9320.38786612 0 190.29563694 0 2806.98669286 0 201.77561375 0 -248.68413250 0 26128
0.15650000 0.15649500 9211.19023009 0 104.79205351 0 2629.46501538 0 90.33284093 0 27.42825804 0 26331
0.15750000 0.15749700 8918.18774106 0 -9.16179261 0 2649.34709175 0 106.64064723 0 129.78382351 0 27345
0.15850000 0.15849900 8835.91329242 0 185.86226345 0 2470.92467931 0 126.21932970 0 24.54744404 0 26980
0.15950000 0.15949700 8710.61227299 0 65.96785064 0 2663.84672756 0 -54.58717437 0 366.42227371 0 27777
0.16050000 0.16050000 8727.96789767 0 27.08905444 0 2547.71782623 0 391.70436596 0 360.76192346 0 28224
0.16150000 0.16150500 8799.70814120 0 9.08908572 0 2636.83566358 0 -38.18698781 0 703.52013246 0 28075
0.16250000 0.16249700 8781.57261186 0 35.32759372 0 2366.91176154 0 -89.59368904 0 514.46355530 0 28590
0.16350000 0.16349900 8815.77857088 0 81.77234382 0 2578.17804599 0 30.61532193 0 207.57107424 0 29163
0.16450000 0.16449100 8620.59370068 0 42.86070376 0 2581.03403487 0 -201.82614278 0 585.61941957 0 28996
0.16550000 0.16550500 8551.69846145 0 95.68155885 0 2868.96165137 0 138.23535365 0 598.99862898 0 30777
0.16650000 0.16650700 8589.99068147 0 50.68699203 0 2614.59190410 0 -58.31226262 0 452.27329918 0 29211
0.16750000 0.16749900 8464.03058768 0 42.71900277 0 2831.53721258 0 -72.50597808 0 -232.20397825 0 30922
0.16850000 0.16850800 8505.91476294 0 229.54790860 0 2616.32746657 0 157.32873771 0 15.67190939 0 30867
0.16950000 0.16949900 8269.48282269 0 26.81685673 0 2496.38691855 0 127.65830871 0 124.62876359 0 30852
0.17050000 0.17049200 8228.65316641 0 32.52323234 0 2442.55152833 0 -16.68424760 0 161.95543968 0 31257
0.17150000 0.17149500 8055.20676535 0 122.01882915 0 2311.17604026 0 130.57910656 0 -127.40895891 0 32608
0.17250000 0.17250900 8018.75995353 0 82.44009599 0 2226.43006279 0 248.22278045 0 139.47111807 0 32361
0.17350000 0.17350400 8017.82626486 0 -86.45462773 0 2194.22329599 0 161.94665202 0 18.50230421 0 32508
0.17450000 0.17449800 7960.21218167 0 53.10162077 0 1910.77738510 0 49.71507705 0 53.37996984 0 32791
0.17550000 0.17549800 7878.12447077 0 97.37065658 0 1996.94037243 0 -89.85567109 0 221.49841382 0 33633
0.17650000 0.17650100 7692.61700901 0 184.39033072 0 2081.17007498 0 -25.73070220 0 129.98813656 0 33984
0.17750000 0.17750300 7705.89735726 0 79.28027384 0 2020.41440403 0 139.89402411 0 147.40527484 0 34069
0.17850000 0.17849800 7663.59576825 0 -58.47560322 0 2097.82268701 0 211.23772457 0 -9.91928873 0 34536
