### header ###
fiducial parameters:
Omega_m = 0.31
Omega_nu = 0
Omega_de = 0.69
Omega_k = 0
H_0 = 100
w_de = -1
zeff = 0
beta = 0
fgrowth = 0
b_1 = 2
gamma = 0.55
Lx = 3500 Ly = 3500 Lz = 3500
nx = 700 ny = 700 nz = 700
xoffset = -983.599254 yoffset = -42.9823471 zoffset = 800.977702
bins = 400 dk = 0.001
kx_ny = 0.628318531 ky_ny = 0.628318531 kz_ny = 0.628318531
############################
A(data) = 9.08771078 (not used)
A(ran) = 9.09203557 (used)
Ngal = 505244
weighted Ngal = 0
Nran = 25229228
weighted Nran = 0
SN(data) = 6712.0533
SN(ran) = 134.965004
SN(data+ran) = 6847.01831
############################
13 columns: k_central k_mean P_0(k) sigma^{lin}_{P_0(k)} P^img_1(k) sigma^{lin}_{P_1(k)} P_2(k) sigma^{lin}_{P_2(k)} P^img_3(k) sigma^{lin}_{P_3(k)} P_4(k) sigma^{lin}_{P_4(k)} N_modes
### header ###
0.00050000 0 0 0 0 0 0 0 0 0 0 0 0
0.00150000 0.00179520 16656.34678799 0 -8313.51997417 0 -14580.70195302 0 10559.94195907 0 12600.62289951 0 3
0.00250000 0.00253879 37361.27749229 0 -16095.69420344 0 -20349.46993557 0 14538.52119431 0 -3019.63703347 0 6
0.00350000 0.00331552 47816.17398376 0 -18718.81013587 0 22986.31658372 0 -48045.97124217 0 16084.70963086 0 7
0.00450000 0.00420575 61706.38570432 0 -17327.17463554 0 4339.67508971 0 -1576.56077974 0 11714.38758365 0 24
0.00550000 0.00557378 77299.75540362 0 -12808.67070420 0 -13418.31448247 0 17029.49271858 0 16348.33937281 0 45
0.00650000 0.00659388 107450.53976207 0 5607.54741077 0 4789.76795123 0 -20210.07570951 0 -3174.65132173 0 40
0.00750000 0.00754703 95199.88534500 0 18380.70499181 0 20370.67016065 0 -13841.65990975 0 898.85878667 0 57
0.00850000 0.00846663 93822.09040612 0 13589.34427756 0 21377.07670055 0 5927.94542382 0 51248.41353253 0 75
0.00950000 0.00948925 74771.54617830 0 -9542.47395457 0 29078.03100015 0 12980.57926510 0 6649.10458293 0 112
0.01050000 0.01054430 75344.83102132 0 -10121.00942329 0 10588.49086321 0 30883.45534962 0 6474.18624915 0 105
0.01150000 0.01145670 89031.49861195 0 -2522.88170762 0 10350.53206738 0 -951.37602818 0 6008.01197337 0 144
0.01250000 0.01249090 95022.81403499 0 3153.39617379 0 1141.22019919 0 -13420.73108843 0 -5716.79996966 0 169
0.01350000 0.01339930 91343.97083177 0 -2827.37405957 0 22334.38220102 0 -13654.15325579 0 -21017.11225706 0 180
0.01450000 0.01448870 89963.42974975 0 8012.86123805 0 18074.45510825 0 -5200.53604291 0 -8889.25437688 0 267
0.01550000 0.01550050 94861.01128087 0 6012.77927787 0 32831.78898838 0 -14073.54423694 0 -6686.82560517 0 238
0.01650000 0.01653350 85053.10611444 0 4572.94347305 0 49548.77061702 0 12155.96740142 0 -15074.78802773 0 315
0.01750000 0.01747870 79393.19524617 0 4229.67557988 0 45416.48425764 0 9119.57889477 0 2394.14251697 0 297
0.01850000 0.01844180 80422.12015987 0 -4401.95761625 0 45441.74877458 0 13030.88860752 0 17265.44133763 0 388
0.01950000 0.01947590 88010.04320761 0 21.81865652 0 50189.72042714 0 7191.31407012 0 13612.30203425 0 399
0.02050000 0.02045430 76484.91980954 0 -2044.96492375 0 36701.43421733 0 -17516.76835829 0 8354.78901336 0 462
0.02150000 0.02154770 76595.09507253 0 12566.46087878 0 51319.70340858 0 -4901.59090011 0 -4255.10486541 0 571
0.02250000 0.02255340 72345.49347798 0 5287.33613545 0 58766.03531575 0 -2096.48256916 0 11780.62455631 0 510
0.02350000 0.02348930 66450.73244793 0 -1333.03280561 0 55878.30102984 0 18026.12298889 0 120.53810876 0 555
0.02450000 0.02439640 75394.15175221 0 -4556.14806157 0 44022.87153425 0 29074.29624548 0 554.63084186 0 592
0.02550000 0.02547300 70612.89684473 0 -537.23237735 0 31439.27472224 0 9518.64841665 0 5248.03333475 0 837
0.02650000 0.02652900 69127.89247746 0 2918.52404285 0 26368.24679006 0 -2506.64650934 0 16345.70307539 0 723
0.02750000 0.02749970 64718.90473476 0 3484.91057429 0 28245.40039849 0 -5646.03735309 0 4030.28361839 0 826
0.02850000 0.02848090 64997.25380397 0 3450.08947921 0 29903.96101255 0 2331.78309842 0 3886.27587184 0 831
0.02950000 0.02946900 59884.81403316 0 765.29736866 0 25834.83594551 0 1048.49173283 0 -1669.05088087 0 996
0.03050000 0.03053250 56844.94341700 0 840.63835508 0 25734.21726067 0 4277.63422377 0 -3790.85288983 0 1041
0.03150000 0.03150510 56799.46728651 0 2349.24856883 0 30334.77594919 0 -2176.43927298 0 -317.97152097 0 1036
0.03250000 0.03246190 57392.30466873 0 3597.41456667 0 30507.45343016 0 -91.47886138 0 -2804.21858057 0 1059
0.03350000 0.03345080 50892.18384372 0 -251.12710144 0 25709.06258946 0 3429.09796101 0 1227.52598597 0 1302
0.03450000 0.03451200 49776.59065236 0 -183.79386843 0 26197.54653215 0 1256.66805702 0 -6300.79477095 0 1339
0.03550000 0.03553350 51875.08339830 0 1602.30861787 0 25209.15469128 0 6688.59412136 0 -447.91352232 0 1365
0.03650000 0.03647120 51570.81073779 0 -1430.90534731 0 19341.19601833 0 5332.68045106 0 -1638.65656854 0 1308
0.03750000 0.03744890 48183.05870798 0 84.75839003 0 18968.59931637 0 -405.88544917 0 3568.59104822 0 1579
0.03850000 0.03847530 47275.62316704 0 3928.75321402 0 16732.46987598 0 -678.79495804 0 -777.40785993 0 1662
0.03950000 0.03950240 44459.39844863 0 2017.85499862 0 19204.98731832 0 2348.47964875 0 3754.70266146 0 1683
0.04050000 0.04050350 44189.61734603 0 898.75882706 0 18978.92481459 0 1872.06775132 0 7204.73721781 0 1822
0.04150000 0.04152450 41138.87200302 0 -263.26066031 0 19175.21912662 0 861.21905027 0 1931.94465646 0 1887
0.04250000 0.04250150 42654.74301924 0 -102.94324009 0 15717.93475237 0 1886.10603508 0 6107.38940151 0 1920
0.04350000 0.04349210 42284.12354035 0 -1018.63346764 0 16528.70605460 0 2666.12053408 0 3783.32845761 0 2005
0.04450000 0.04448520 43673.23258899 0 748.39320991 0 16377.00910725 0 1352.55239109 0 3165.85267910 0 2151
0.04550000 0.04548030 42790.07295345 0 2241.01757518 0 15301.61945154 0 -1859.91881405 0 4625.68040601 0 2274
0.04650000 0.04648670 39859.71852592 0 518.48390887 0 17302.45934723 0 492.34501995 0 5887.02789095 0 2311
0.04750000 0.04749250 39359.59093629 0 463.17988129 0 16373.05466112 0 1554.06437509 0 2736.88315065 0 2568
0.04850000 0.04851840 38740.17088843 0 926.47949443 0 16635.91548299 0 1222.41815971 0 4381.89978671 0 2493
0.04950000 0.04949480 37275.26828898 0 -167.52242107 0 16531.67188920 0 2434.55475949 0 6015.16293012 0 2644
0.05050000 0.05050630 37735.41203441 0 -179.22758161 0 13387.11829633 0 2057.58619765 0 4728.83652712 0 2829
0.05150000 0.05149060 38365.04773478 0 -82.34079545 0 11349.26039104 0 2997.33835113 0 6075.67694047 0 2784
0.05250000 0.05249300 37930.71773491 0 350.50233267 0 10360.28636783 0 -2017.86598319 0 2879.51782562 0 3055
0.05350000 0.05348950 37866.45798531 0 263.85822106 0 10352.30058356 0 137.61142993 0 1137.62824396 0 3009
0.05450000 0.05448610 37267.68893390 0 315.32643589 0 10974.73040431 0 1230.56871257 0 1825.33937956 0 3336
0.05550000 0.05550870 36280.94477892 0 35.97623274 0 10001.15675185 0 -1090.04087862 0 -465.38228810 0 3349
0.05650000 0.05647670 36204.71184520 0 1182.63203783 0 10612.60200002 0 2145.33096343 0 2703.22642026 0 3324
0.05750000 0.05747970 35482.69588943 0 -67.72054904 0 10637.04267401 0 -157.85160337 0 2705.43431935 0 3639
0.05850000 0.05849280 35000.47315311 0 820.34655415 0 10709.55183762 0 769.86145856 0 4027.20793806 0 3846
0.05950000 0.05951020 33908.49679280 0 347.96599486 0 10193.81517036 0 1304.73654664 0 2795.23320020 0 3787
0.06050000 0.06049470 33463.18222035 0 661.71175076 0 10312.50347710 0 1573.45214570 0 7268.85416797 0 3930
0.06150000 0.06148310 34478.92564695 0 -996.78734969 0 10090.83480241 0 1826.24011451 0 4627.91027425 0 4083
0.06250000 0.06249100 33687.04780956 0 453.89901592 0 8827.94947730 0 388.63198101 0 3346.38412947 0 4303
0.06350000 0.06350600 32925.04800959 0 1935.08624422 0 9482.30046597 0 -2545.35614312 0 4915.20078554 0 4470
0.06450000 0.06451750 31113.91168238 0 1342.58938375 0 9979.67092788 0 -735.11066475 0 4570.36209849 0 4479
0.06550000 0.06550280 30107.83467966 0 -70.17823731 0 10990.39440481 0 943.15187869 0 3111.59987512 0 4636
0.06650000 0.06648880 29830.69391343 0 28.21969650 0 10332.93478210 0 769.97459966 0 -316.23705696 0 4653
0.06750000 0.06749660 28496.83726488 0 991.32252483 0 9825.65623572 0 -238.51461520 0 1832.84184263 0 5220
0.06850000 0.06852730 27905.97710573 0 395.51930802 0 9837.49760496 0 -344.31032910 0 1891.19189218 0 5029
0.06950000 0.06949320 27544.80435925 0 308.63243736 0 9818.24164923 0 1194.39651506 0 536.59087831 0 5040
0.07050000 0.07048030 27635.86646595 0 -210.61160393 0 8723.58505321 0 1200.62476771 0 -372.76696283 0 5475
0.07150000 0.07148790 27729.56487007 0 -203.31235545 0 6775.93245795 0 853.56500009 0 -25.59504273 0 5509
0.07250000 0.07249820 27899.16667072 0 345.13636896 0 7977.20531545 0 -945.79147148 0 -962.86589110 0 5916
0.07350000 0.07351270 27515.14601328 0 698.20579624 0 8149.37750609 0 166.93035260 0 -131.67536690 0 5721
0.07450000 0.07449140 27009.63598309 0 -248.59405900 0 8524.94004265 0 -23.92527785 0 -311.18305511 0 6028
0.07550000 0.07549160 26566.51832516 0 689.04466271 0 9282.18352269 0 702.57436076 0 73.60498457 0 6183
0.07650000 0.07648840 26270.81363127 0 -13.31143459 0 8046.66076788 0 -242.12853958 0 1114.51670325 0 6330
0.07750000 0.07749960 26058.15230609 0 885.56855231 0 10242.14728972 0 95.45242067 0 249.65407026 0 6583
0.07850000 0.07848650 25152.58414249 0 670.72019873 0 9228.44699362 0 -815.42546563 0 432.03422420 0 6549
0.07950000 0.07947320 24360.81615082 0 153.52917405 0 11303.67441483 0 -452.96972108 0 1612.66706981 0 6828
0.08050000 0.08048110 23804.66724103 0 656.43366363 0 10471.53811893 0 333.47075288 0 1049.30019738 0 7147
0.08150000 0.08149960 23558.06358658 0 140.10382945 0 9905.87656928 0 1046.05425618 0 1001.31299360 0 7386
0.08250000 0.08250610 23683.28771401 0 276.86175808 0 9868.24342362 0 1623.21225949 0 519.75811929 0 7227
0.08350000 0.08350160 22904.92090089 0 179.70650897 0 9529.09474517 0 346.46220687 0 1205.87539341 0 7798
0.08450000 0.08449610 23307.94486890 0 -26.97701180 0 8455.20997590 0 -461.36522990 0 483.57713412 0 7371
0.08550000 0.08548940 21993.42106809 0 398.22151288 0 8238.49534344 0 -331.35622266 0 -664.94011664 0 8256
0.08650000 0.08650700 21747.03710509 0 723.93496060 0 8608.21408739 0 95.33807127 0 -570.86494168 0 8037
0.08750000 0.08749060 21426.94666007 0 204.86118018 0 9087.63575770 0 -474.71038713 0 -2076.53458535 0 8155
0.08850000 0.08849210 20706.13900728 0 335.70611340 0 8654.53602996 0 24.84886071 0 -2520.12457990 0 8718
0.08950000 0.08949900 19874.93640005 0 721.84130107 0 8681.25051048 0 -125.11428170 0 -2399.34920437 0 8571
0.09050000 0.09049190 19656.45325141 0 423.59258017 0 8494.76542177 0 253.36905270 0 -1807.59929484 0 8932
0.09150000 0.09150830 19161.37856517 0 98.98637736 0 8811.81314018 0 813.29006472 0 -2042.08696573 0 9285
0.09250000 0.09250820 18938.94097040 0 341.30055622 0 8472.41181656 0 792.44793671 0 -1179.38060434 0 9204
0.09350000 0.09350330 18536.24653957 0 258.69766886 0 8141.85307387 0 201.55482384 0 -926.29605207 0 9349
0.09450000 0.09448040 17894.96719227 0 -112.56880136 0 8112.06291303 0 362.29536979 0 46.69970203 0 9564
0.09550000 0.09549270 17917.26587461 0 536.50849402 0 8697.32094017 0 289.00080924 0 197.39606466 0 10155
0.09650000 0.09649430 17665.60931677 0 213.64883825 0 7418.42010824 0 133.39115714 0 114.53503985 0 9913
0.09750000 0.09749140 17280.92958497 0 28.16620163 0 7915.50497126 0 804.38816710 0 285.61646243 0 10476
0.09850000 0.09850240 16937.33215462 0 414.05687271 0 7736.93975938 0 662.08412777 0 1346.40103044 0 10575
0.09950000 0.09950330 16511.35042992 0 -15.72562395 0 6419.35126282 0 821.38569471 0 785.85279933 0 10882
0.10050000 0.10051200 16740.59845969 0 -23.25390077 0 6097.90971537 0 1092.07741838 0 1111.72662181 0 10875
0.10150000 0.10150300 16687.98235703 0 81.10063721 0 5516.19970518 0 472.71558875 0 1082.48129577 0 11118
0.10250000 0.10250800 16346.36214975 0 -82.43987630 0 4434.36210536 0 294.66445487 0 968.90960294 0 11575
0.10350000 0.10349800 16722.36406921 0 -18.54635235 0 4786.14304228 0 -113.43109030 0 296.77788663 0 11364
0.10450000 0.10450100 16064.93740021 0 553.98385054 0 4519.41565086 0 -1045.24469318 0 -98.31950396 0 12093
0.10550000 0.10551000 15596.66507107 0 383.37146920 0 5373.71881423 0 -174.77223897 0 429.57697531 0 12067
0.10650000 0.10649700 15664.76942108 0 185.03402668 0 5563.82881189 0 -42.87992676 0 -1070.20274054 0 12054
0.10750000 0.10749900 15089.83689217 0 249.74194684 0 5368.55606512 0 417.30281391 0 707.29662851 0 12807
0.10850000 0.10850100 15076.32586789 0 -102.23242840 0 5814.91417196 0 410.27817974 0 -248.45345647 0 12736
0.10950000 0.10950300 14733.05797473 0 57.20007465 0 5031.80202349 0 618.70165682 0 954.12217133 0 12933
0.11050000 0.11050200 14997.67632821 0 281.86083707 0 5050.81631863 0 424.93379648 0 1129.00535448 0 13428
0.11150000 0.11150900 14580.15272439 0 80.96047406 0 4736.66852737 0 81.18137382 0 1482.24723955 0 13453
0.11250000 0.11250000 14829.50252199 0 23.82839392 0 4579.58913946 0 477.22036197 0 1166.96803732 0 13668
0.11350000 0.11349100 14441.30772697 0 -20.20842802 0 4270.43932873 0 152.28462198 0 450.24444862 0 13791
0.11450000 0.11448600 14277.41790405 0 -33.53337364 0 3994.68261865 0 124.66281577 0 1524.90033489 0 14205
0.11550000 0.11549300 14429.44438858 0 329.75577043 0 4373.10114408 0 -660.30462701 0 -307.86571419 0 14776
0.11650000 0.11649800 14017.19337960 0 379.08309207 0 4332.93056215 0 -506.27785182 0 -348.80411775 0 14553
0.11750000 0.11747300 13803.32375144 0 149.79661629 0 4758.89031771 0 -266.68565004 0 -670.62902678 0 14568
0.11850000 0.11849100 13394.91734287 0 2.33951624 0 4614.02577450 0 294.22177659 0 -771.85076466 0 16015
0.11950000 0.11950300 13735.98832152 0 -62.89381800 0 4504.61943159 0 632.27749007 0 -1416.80115611 0 15270
0.12050000 0.12050700 13568.80312683 0 -3.94780046 0 3817.47949377 0 725.46950539 0 -341.86406479 0 15999
0.12150000 0.12150000 13777.72969733 0 5.00977796 0 3836.46083519 0 575.04017772 0 110.76293762 0 15670
0.12250000 0.12250700 13643.38837466 0 83.80328145 0 3093.42040749 0 -122.34397250 0 -572.79712800 0 16887
0.12350000 0.12352200 13228.17153108 0 450.81674485 0 4001.76766796 0 -753.02101034 0 3.46611597 0 16407
0.12450000 0.12449800 12893.58145025 0 333.36639944 0 3780.78003677 0 -220.03307183 0 396.32996948 0 16306
0.12550000 0.12549900 12870.73353929 0 116.37605421 0 4730.51716673 0 274.92957177 0 499.98369173 0 17523
0.12650000 0.12650100 12797.79597735 0 -171.45050422 0 4283.41210895 0 466.03257479 0 193.64812849 0 17154
0.12750000 0.12750600 12630.94031983 0 92.05994527 0 4217.69141120 0 397.82936364 0 787.11932055 0 18007
0.12850000 0.12850300 12675.86722169 0 81.68622477 0 3823.91645330 0 -119.03102541 0 1452.38018671 0 17496
0.12950000 0.12949900 12644.89072701 0 -45.72350306 0 3860.03372795 0 794.72284169 0 1694.12866008 0 18405
0.13050000 0.13049000 12694.98037798 0 -114.33072680 0 3410.99538539 0 306.71782636 0 1163.40903581 0 18100
0.13150000 0.13148800 12561.62766685 0 332.14161960 0 3678.17314429 0 -407.97581333 0 1230.99711090 0 19059
0.13250000 0.13249300 12284.81643780 0 230.64307049 0 3415.40019900 0 -146.93183976 0 1169.45055073 0 18957
0.13350000 0.13349100 12129.71427295 0 69.08801848 0 3871.44669886 0 -104.29708867 0 721.70069854 0 19468
0.13450000 0.13450700 12085.88582835 0 214.78683997 0 3939.04575852 0 -128.13064533 0 67.74152957 0 19953
0.13550000 0.13551000 11569.50107130 0 144.19997656 0 3809.47174035 0 -69.17721321 0 -143.79244892 0 19956
0.13650000 0.13649900 11701.86517090 0 -86.90686258 0 3707.68869082 0 305.09320808 0 421.42422554 0 19723
0.13750000 0.13749600 11833.02096753 0 -171.64383270 0 3106.21743455 0 515.92340500 0 -142.27108562 0 20946
0.13850000 0.13851100 11694.28581582 0 149.71642891 0 2789.52122246 0 400.94788379 0 -169.05367048 0 20955
0.13950000 0.13949800 11903.21238632 0 205.18961890 0 2793.33286915 0 170.36962228 0 549.42305600 0 20506
0.14050000 0.14048300 11393.52821855 0 9.71698586 0 2694.41679305 0 -56.62986549 0 765.78508368 0 21447
0.14150000 0.14148400 11224.03626362 0 148.52460279 0 2624.89543318 0 181.68263358 0 380.25294905 0 21771
0.14250000 0.14249400 11198.33236378 0 227.20929310 0 2578.14509228 0 -80.70343506 0 475.06738574 0 22470
0.14350000 0.14350900 10991.49286207 0 165.03331692 0 2829.97740328 0 42.37232966 0 325.76507522 0 22519
0.14450000 0.14449900 10783.68671798 0 214.36722930 0 2942.78896369 0 -456.09593044 0 210.05688302 0 22218
0.14550000 0.14550500 10330.29848468 0 177.94458353 0 2977.59907420 0 180.77311097 0 961.22918979 0 23559
0.14650000 0.14650700 10445.55960478 0 -101.57192605 0 2580.35299137 0 316.83901154 0 160.30335997 0 23044
0.14750000 0.14750500 10316.62269182 0 59.78024090 0 2221.55291257 0 1023.16021000 0 1015.53691663 0 23649
0.14850000 0.14849900 10606.40670109 0 -49.39740321 0 2288.64668190 0 133.75474649 0 969.48519454 0 23640
0.14950000 0.14949500 10294.81831524 0 136.72717183 0 1979.87034663 0 -171.00233366 0 1382.70504282 0 24457
0.15050000 0.15050000 10198.80216631 0 78.63833542 0 2182.94213995 0 -45.12616200 0 892.16478814 0 24591
0.15150000 0.15149900 10040.26183024 0 184.57377308 0 2108.68642930 0 -294.81714043 0 926.87493904 0 25020
0.15250000 0.15250500 10022.82931356 0 166.08673743 0 2506.85521622 0 -126.57742677 0 970.88902292 0 25297
0.15350000 0.15350100 9861.11443601 0 -26.39790514 0 2311.23096312 0 38.18182506 0 317.01037087 0 25452
0.15450000 0.15450400 9937.24850858 0 118.25331767 0 2261.65758706 0 46.90687107 0 280.39879045 0 26061
0.15550000 0.15549900 9859.85121017 0 -22.52562361 0 2134.66494345 0 -16.62460137 0 276.65414966 0 26128
0.15650000 0.15649500 9564.15750085 0 5.09987342 0 2429.26019551 0 71.75474316 0 131.40624488 0 26331
0.15750000 0.15749700 9497.32736126 0 237.54907127 0 2444.16626050 0 -19.01308684 0 -9.68685518 0 27345
0.15850000 0.15849900 9315.11527129 0 259.73790789 0 2219.31205976 0 32.39075840 0 96.81275014 0 26980
0.15950000 0.15949700 9345.24595388 0 105.68729617 0 2553.11125136 0 -109.75708031 0 79.30356113 0 27777
0.16050000 0.16050000 9200.16171922 0 125.32079167 0 2354.45525623 0 77.08094272 0 171.33516621 0 28224
0.16150000 0.16150500 8889.50702205 0 -24.50844881 0 2483.57890692 0 77.43673302 0 287.23119460 0 28075
0.16250000 0.16249700 9002.64811964 0 30.84402073 0 2251.77147174 0 275.69299956 0 230.70678101 0 28590
0.16350000 0.16349900 8954.72242946 0 54.17744981 0 2373.57939709 0 64.80458440 0 334.29569428 0 29163
0.16450000 0.16449100 8685.89698468 0 102.88392340 0 2090.28727022 0 65.73607616 0 893.16767962 0 28996
0.16550000 0.16550500 8746.38902589 0 190.58672812 0 2345.46987586 0 187.48798019 0 736.09048862 0 30777
0.16650000 0.16650700 8755.89068117 0 -0.86931688 0 2091.40769662 0 212.80741999 0 1128.18151154 0 29211
0.16750000 0.16749900 8601.28282209 0 -75.24959478 0 2062.10085698 0 157.05302494 0 902.88902635 0 30922
0.16850000 0.16850800 8553.47796221 0 142.14146766 0 1980.06806894 0 -14.62277287 0 1071.03646960 0 30867
0.16950000 0.16949900 8432.92227813 0 171.31319706 0 2038.79159396 0 -74.58414937 0 856.70548939 0 30852
0.17050000 0.17049200 8271.02066286 0 69.30716070 0 2092.39630816 0 -218.49083784 0 780.98004293 0 31257
0.17150000 0.17149500 8099.57345401 0 253.00766027 0 2353.74125901 0 -167.43234757 0 396.73639866 0 32608
0.17250000 0.17250900 7971.08690852 0 158.32393999 0 2177.01047075 0 -189.38940970 0 313.26463162 0 32361
0.17350000 0.17350400 7797.51967716 0 48.35299005 0 2278.01361564 0 236.13206141 0 214.23102060 0 32508
0.17450000 0.17449800 7814.52379552 0 -11.80599892 0 2315.52593100 0 28.02988308 0 141.22425585 0 32791
0.17550000 0.17549800 7680.34724144 0 -15.11411280 0 2039.39574545 0 315.88774755 0 71.40620268 0 33633
0.17650000 0.17650100 7675.12956946 0 114.48341236 0 1831.10628016 0 -97.44183661 0 -45.43801402 0 33984
0.17750000 0.17750300 7692.69390102 0 1.29760756 0 1857.44728521 0 62.52418713 0 12.87227138 0 34069
0.17850000 0.17849800 7595.55732568 0 71.85514216 0 1808.39018407 0 28.49628804 0 -114.80855571 0 34536
