### header ###
fiducial parameters:
Omega_m = 0.31
Omega_nu = 0
Omega_de = 0.69
Omega_k = 0
H_0 = 100
w_de = -1
zeff = 0
beta = 0
fgrowth = 0
b_1 = 2
gamma = 0.55
Lx = 3500 Ly = 3500 Lz = 3500
nx = 700 ny = 700 nz = 700
xoffset = -983.599254 yoffset = -42.9823471 zoffset = 800.977702
bins = 400 dk = 0.001
kx_ny = 0.628318531 ky_ny = 0.628318531 kz_ny = 0.628318531
############################
A(data) = 9.1721608 (not used)
A(ran) = 9.17320347 (used)
Ngal = 509425
weighted Ngal = 0
Nran = 25229228
weighted Nran = 0
SN(data) = 6709.5321
SN(ran) = 136.169886
SN(data+ran) = 6845.70199
############################
13 columns: k_central k_mean P_0(k) sigma^{lin}_{P_0(k)} P^img_1(k) sigma^{lin}_{P_1(k)} P_2(k) sigma^{lin}_{P_2(k)} P^img_3(k) sigma^{lin}_{P_3(k)} P_4(k) sigma^{lin}_{P_4(k)} N_modes
### header ###
0.00050000 0 0 0 0 0 0 0 0 0 0 0 0
0.00150000 0.00179520 -2171.94658279 0 -8127.06783918 0 -2833.36065163 0 -2800.58268705 0 -4754.56239611 0 3
0.00250000 0.00253879 1615.22647522 0 -1790.96865195 0 798.29612315 0 -2090.60582283 0 13667.33474288 0 6
0.00350000 0.00331552 8162.20748687 0 2980.47703221 0 -5508.66428839 0 -3529.20037094 0 13875.49239330 0 7
0.00450000 0.00420575 20014.00108893 0 -11130.11816805 0 -338.50168712 0 -10804.84300477 0 -6320.12761869 0 24
0.00550000 0.00557378 43316.89305445 0 -16392.27766314 0 8993.93735358 0 1778.55608494 0 -8833.46373274 0 45
0.00650000 0.00659388 59949.95254857 0 332.61835005 0 1885.09545440 0 -13120.19318261 0 34341.94802686 0 40
0.00750000 0.00754703 75477.19512093 0 -9569.04563565 0 12075.99971303 0 -10530.62413485 0 -12071.60588399 0 57
0.00850000 0.00846663 94004.10477380 0 -10960.53833654 0 18407.28765746 0 3760.20593233 0 25730.81204317 0 75
0.00950000 0.00948925 82036.52279215 0 3885.14446087 0 24787.45694988 0 8606.61033979 0 -2607.08944103 0 112
0.01050000 0.01054430 98184.94294398 0 6308.15443458 0 45103.09440190 0 4442.71038052 0 61614.66452327 0 105
0.01150000 0.01145670 82641.77274138 0 5672.67494160 0 28867.89612667 0 6729.67642281 0 15275.36632307 0 144
0.01250000 0.01249090 78680.18663992 0 13539.80385522 0 76816.32436432 0 18418.38207577 0 49751.32613542 0 169
0.01350000 0.01339930 62137.96956105 0 6658.82592967 0 44651.73831453 0 12495.17100273 0 34083.15149684 0 180
0.01450000 0.01448870 66041.11773637 0 -4297.61516130 0 53734.77153632 0 25679.73378066 0 64945.51646711 0 267
0.01550000 0.01550050 75873.18896248 0 -7330.87306476 0 36674.19247733 0 29613.85845067 0 46455.51497811 0 238
0.01650000 0.01653350 70121.22737599 0 -2483.64481436 0 27683.86904813 0 2783.02934006 0 39744.60020527 0 315
0.01750000 0.01747870 80743.19921642 0 10702.63155690 0 24553.26586245 0 -2986.80414602 0 25127.20977982 0 297
0.01850000 0.01844180 65361.83176794 0 5678.31002734 0 37537.25034505 0 -15170.24396346 0 26137.90030303 0 388
0.01950000 0.01947590 66762.80415497 0 -4733.65875449 0 37963.78129838 0 684.58272933 0 7164.51171302 0 399
0.02050000 0.02045430 71037.99980363 0 -5142.96589801 0 31042.51196060 0 9884.51157561 0 -10733.99251162 0 462
0.02150000 0.02154770 75656.90272836 0 -509.47216552 0 22581.42523837 0 3944.03275448 0 -19690.28573496 0 571
0.02250000 0.02255340 75093.61384639 0 5855.35936820 0 36865.76342315 0 -10218.73916554 0 -1734.93634722 0 510
0.02350000 0.02348930 71808.89710739 0 2134.04980739 0 25477.94718234 0 4461.63679908 0 -11688.68368381 0 555
0.02450000 0.02439640 73134.95470941 0 -4001.66880681 0 26338.80813554 0 5665.65579972 0 -5855.27149162 0 592
0.02550000 0.02547300 71215.94987945 0 1526.11962244 0 27400.90645843 0 -5745.89810243 0 -22162.80317730 0 837
0.02650000 0.02652900 66247.29816373 0 10551.19823929 0 32244.00450955 0 -4697.68427928 0 -7045.53780739 0 723
0.02750000 0.02749970 59612.61632459 0 3625.34833475 0 37368.74700165 0 -3188.46991404 0 -4484.30895689 0 826
0.02850000 0.02848090 53964.67864045 0 -155.04834044 0 38751.70468964 0 12701.57112153 0 -3963.99172286 0 831
0.02950000 0.02946900 58964.74623375 0 -2006.35415113 0 33068.50652750 0 10382.47520444 0 -5357.84610685 0 996
0.03050000 0.03053250 56857.02644684 0 -953.59930568 0 25587.57321671 0 7696.50554771 0 1117.27383097 0 1041
0.03150000 0.03150510 62747.72318504 0 19.74378060 0 28175.86805405 0 320.48479118 0 7209.76815205 0 1036
0.03250000 0.03246190 56129.29851333 0 2121.24179576 0 20306.84979395 0 -4368.99291393 0 308.77413835 0 1059
0.03350000 0.03345080 59306.58613248 0 1441.17592267 0 25975.43847455 0 1014.40221028 0 3255.46482221 0 1302
0.03450000 0.03451200 53342.84198662 0 1027.93410525 0 26932.30459211 0 2092.59403046 0 -2489.09316236 0 1339
0.03550000 0.03553350 54071.77822311 0 2796.78202494 0 29549.15931817 0 -975.24550440 0 -4974.82504551 0 1365
0.03650000 0.03647120 50387.77227078 0 3071.06680229 0 32218.52030116 0 -5307.69054844 0 -2852.95712912 0 1308
0.03750000 0.03744890 48663.96329559 0 608.92428876 0 29141.19229250 0 2905.05695687 0 -3068.83693406 0 1579
0.03850000 0.03847530 46535.37282078 0 -803.79170481 0 28908.64889095 0 1241.36654742 0 -8070.64008983 0 1662
0.03950000 0.03950240 48510.39897091 0 2146.31957496 0 27352.24480190 0 3501.58515547 0 -7270.88631390 0 1683
0.04050000 0.04050350 47190.16319235 0 107.33333437 0 24783.17296657 0 2071.63546598 0 -6676.31336921 0 1822
0.04150000 0.04152450 45685.16690298 0 -1067.38080384 0 25006.26963570 0 2222.99189158 0 -4798.08327268 0 1887
0.04250000 0.04250150 46570.41360731 0 2269.79715535 0 19959.73730038 0 5157.25682694 0 -4061.46881994 0 1920
0.04350000 0.04349210 45899.03653114 0 -1297.26703728 0 20215.01876717 0 -516.24415452 0 -4082.49329186 0 2005
0.04450000 0.04448520 45012.58152383 0 909.32049360 0 16622.18476727 0 2224.54071631 0 -4936.34608776 0 2151
0.04550000 0.04548030 44206.64343354 0 1392.39343584 0 19161.04902799 0 230.56837540 0 -5452.25850819 0 2274
0.04650000 0.04648670 41366.47234690 0 763.06640197 0 19486.41206785 0 -2684.15720226 0 -2992.90058380 0 2311
0.04750000 0.04749250 42444.71799149 0 1570.91470943 0 18630.27448086 0 1420.75560224 0 -4762.58113409 0 2568
0.04850000 0.04851840 39668.58696300 0 -1187.12472801 0 19080.97149387 0 1604.67030097 0 -1153.88541138 0 2493
0.04950000 0.04949480 41650.42354813 0 824.65799889 0 16915.14331801 0 3672.06572193 0 -3355.50132471 0 2644
0.05050000 0.05050630 41146.89074100 0 175.02708105 0 16553.75088008 0 124.24650047 0 -2391.81378758 0 2829
0.05150000 0.05149060 38976.99827328 0 1905.10934565 0 17077.49530076 0 -1049.83734297 0 643.40046826 0 2784
0.05250000 0.05249300 37851.84850378 0 764.63170356 0 16703.90998727 0 30.54919481 0 -769.83729250 0 3055
0.05350000 0.05348950 37018.22929058 0 -424.82065538 0 17768.53476185 0 3712.47796446 0 1217.91448496 0 3009
0.05450000 0.05448610 37122.80242155 0 374.04337017 0 17087.93064471 0 -28.58273662 0 -2565.45791095 0 3336
0.05550000 0.05550870 35251.69032805 0 2154.20649807 0 16425.67076379 0 -2455.07394108 0 1921.95967999 0 3349
0.05650000 0.05647670 34993.44302666 0 418.52649529 0 16203.12332329 0 3052.82142723 0 159.43667719 0 3324
0.05750000 0.05747970 33424.07714196 0 107.53303390 0 15849.31024044 0 1692.96429538 0 974.25799133 0 3639
0.05850000 0.05849280 34451.68390695 0 -53.57890045 0 14072.88516259 0 3266.58120967 0 1907.71268935 0 3846
0.05950000 0.05951020 34509.79229590 0 -784.61264108 0 12965.42055494 0 823.45079436 0 371.92883995 0 3787
0.06050000 0.06049470 33812.82116562 0 868.15141402 0 11598.93972582 0 -374.25207705 0 -976.98875607 0 3930
0.06150000 0.06148310 32163.70728398 0 1129.75230542 0 12296.35023901 0 -2327.34533110 0 904.18081209 0 4083
0.06250000 0.06249100 31202.44733739 0 1318.09378690 0 13836.93654354 0 54.49336612 0 1498.35062296 0 4303
0.06350000 0.06350600 30642.01444429 0 73.86894385 0 13475.21456844 0 2719.85706315 0 -769.53521676 0 4470
0.06450000 0.06451750 31113.14276230 0 -444.64341506 0 12374.88993296 0 3153.13254405 0 1876.72521010 0 4479
0.06550000 0.06550280 31464.42939345 0 -328.11247838 0 10632.80262900 0 414.16561998 0 2984.24474061 0 4636
0.06650000 0.06648880 30735.93253986 0 346.81920548 0 9550.14118624 0 1569.71739102 0 4950.62603211 0 4653
0.06750000 0.06749660 31200.47011432 0 -72.72347262 0 10421.75603599 0 891.82536485 0 4386.61216835 0 5220
0.06850000 0.06852730 30068.50990981 0 1062.09392906 0 10577.37447575 0 291.20541296 0 5888.42293167 0 5029
0.06950000 0.06949320 29281.35543864 0 1076.85719461 0 11224.36580079 0 -1156.48875508 0 6535.04078125 0 5040
0.07050000 0.07048030 28587.89937157 0 609.58446157 0 12119.16908327 0 1114.19815064 0 8229.23534876 0 5475
0.07150000 0.07148790 27759.99213612 0 74.26449831 0 11137.36798595 0 -77.85162033 0 4449.36703151 0 5509
0.07250000 0.07249820 26678.23142831 0 757.07871145 0 12489.56887071 0 107.36573886 0 5348.63005045 0 5916
0.07350000 0.07351270 25902.39106689 0 831.70130683 0 12144.98282884 0 -246.79808139 0 6393.43865610 0 5721
0.07450000 0.07449140 25746.41013623 0 175.54884825 0 10685.15510192 0 2700.98556745 0 6977.45542653 0 6028
0.07550000 0.07549160 25513.75688896 0 -250.97990817 0 10733.21260696 0 76.81434714 0 3041.89177752 0 6183
0.07650000 0.07648840 25973.35140576 0 389.71615833 0 10268.51026391 0 -637.64674915 0 1881.36069972 0 6330
0.07750000 0.07749960 24601.70782753 0 774.29593052 0 9907.32653286 0 -324.57544601 0 2824.29837925 0 6583
0.07850000 0.07848650 24193.85064759 0 -319.88173814 0 9578.97568926 0 -287.08070596 0 2067.76889643 0 6549
0.07950000 0.07947320 24191.54388734 0 259.39409076 0 9988.50252424 0 430.59414673 0 -802.25606156 0 6828
0.08050000 0.08048110 24266.45867235 0 854.05271511 0 9531.58824315 0 291.50639025 0 -393.49814667 0 7147
0.08150000 0.08149960 23496.11059722 0 -269.08028687 0 9941.35673872 0 -44.77410645 0 603.20681873 0 7386
0.08250000 0.08250610 23716.68081465 0 27.35993400 0 9506.74113997 0 1603.13246081 0 3.97995231 0 7227
0.08350000 0.08350160 23039.48191501 0 252.71217526 0 8987.00608828 0 -552.61297588 0 75.32692617 0 7798
0.08450000 0.08449610 23003.67220840 0 319.02164611 0 9362.57960941 0 224.05781923 0 -157.47812790 0 7371
0.08550000 0.08548940 22462.57216304 0 782.56401830 0 8760.93259998 0 -284.88379144 0 -925.06907531 0 8256
0.08650000 0.08650700 21789.32770953 0 668.21791310 0 9468.53679653 0 27.97594883 0 -103.09526658 0 8037
0.08750000 0.08749060 21248.33750990 0 56.15258581 0 8777.65111945 0 598.57682139 0 -38.31748454 0 8155
0.08850000 0.08849210 20744.91454850 0 -269.26372923 0 8525.67600901 0 1948.79499080 0 366.54859630 0 8718
0.08950000 0.08949900 21148.70743659 0 -226.58536938 0 6048.69883021 0 1369.97392320 0 678.98279423 0 8571
0.09050000 0.09049190 20793.57620503 0 674.03094891 0 6383.16808074 0 635.62558779 0 168.76038240 0 8932
0.09150000 0.09150830 20074.63592958 0 563.14608253 0 5879.06407583 0 -624.52128337 0 1788.53007684 0 9285
0.09250000 0.09250820 18843.26534321 0 487.49862653 0 6614.50317930 0 -460.08992103 0 1112.37471159 0 9204
0.09350000 0.09350330 19194.77166582 0 528.36343345 0 7330.94995677 0 527.23312093 0 882.81691688 0 9349
0.09450000 0.09448040 18109.27620333 0 -69.68074602 0 6389.44027168 0 109.75268648 0 1890.24721894 0 9564
0.09550000 0.09549270 18149.36989325 0 64.83501167 0 6902.37587294 0 438.78204713 0 135.75174179 0 10155
0.09650000 0.09649430 18377.08008286 0 438.39099635 0 6638.03213377 0 -485.70155046 0 583.50488935 0 9913
0.09750000 0.09749140 17841.14278662 0 -184.52763788 0 6804.71203812 0 451.47801612 0 969.51375443 0 10476
0.09850000 0.09850240 18010.08551292 0 34.07326538 0 7206.05536652 0 -81.87955325 0 225.68024060 0 10575
0.09950000 0.09950330 17917.92494896 0 156.03914889 0 5681.78115227 0 -78.48136588 0 -1744.42701793 0 10882
0.10050000 0.10051200 17905.84191912 0 529.05546152 0 7110.02823302 0 -366.45083360 0 -865.20645011 0 10875
0.10150000 0.10150300 16964.02466600 0 387.25890944 0 6755.58902953 0 -311.01169578 0 -619.45629695 0 11118
0.10250000 0.10250800 16890.31818398 0 91.23247742 0 7252.42124739 0 133.37687720 0 -1387.83483822 0 11575
0.10350000 0.10349800 16364.48669451 0 48.56762859 0 6767.54024450 0 680.09443297 0 -872.63311964 0 11364
0.10450000 0.10450100 16392.16781741 0 192.89348836 0 5729.15761382 0 796.81320585 0 -127.88019708 0 12093
0.10550000 0.10551000 16382.94077644 0 208.90899518 0 5641.10528000 0 1103.44425409 0 -338.76861224 0 12067
0.10650000 0.10649700 15902.14603456 0 182.98101006 0 4978.49389275 0 423.79909013 0 1106.09153608 0 12054
0.10750000 0.10749900 15887.31686157 0 89.34093402 0 4973.17735962 0 443.26045737 0 612.40529981 0 12807
0.10850000 0.10850100 15041.94415571 0 321.30314183 0 5340.34768273 0 -467.72529743 0 964.53334922 0 12736
0.10950000 0.10950300 14923.42061756 0 431.50696471 0 4934.87415503 0 144.37682818 0 1167.93467971 0 12933
0.11050000 0.11050200 14833.12743094 0 -175.32256606 0 5488.58448971 0 619.85174156 0 1066.23840830 0 13428
0.11150000 0.11150900 14681.97971222 0 -49.08588073 0 4541.89008636 0 -40.16926378 0 1003.17817402 0 13453
0.11250000 0.11250000 14783.03777997 0 291.06371197 0 5398.17047279 0 -45.43482849 0 1120.82184791 0 13668
0.11350000 0.11349100 14666.49146488 0 223.49321220 0 4616.18973530 0 -165.61440081 0 673.94526924 0 13791
0.11450000 0.11448600 14365.29448470 0 202.91251701 0 5431.68440374 0 -188.00645202 0 987.67015445 0 14205
0.11550000 0.11549300 14140.33043824 0 170.44212046 0 5212.45430416 0 -103.49027181 0 714.19823547 0 14776
0.11650000 0.11649800 13860.33368314 0 211.82759612 0 5917.91650905 0 332.80948161 0 816.41956945 0 14553
0.11750000 0.11747300 14018.51152831 0 30.55479694 0 5131.49800424 0 464.93082216 0 868.95328782 0 14568
0.11850000 0.11849100 13711.05334176 0 -220.77562894 0 5084.38517244 0 437.98896099 0 862.17800345 0 16015
0.11950000 0.11950300 13967.76280298 0 41.85825166 0 4386.60118378 0 628.87666640 0 1054.00049598 0 15270
0.12050000 0.12050700 13806.06989459 0 62.35557394 0 4488.79066250 0 -431.37624830 0 215.25807813 0 15999
0.12150000 0.12150000 13641.63084304 0 471.55891326 0 4137.67978451 0 -329.96887114 0 308.34574002 0 15670
0.12250000 0.12250700 13298.03341270 0 202.53135234 0 4852.94022815 0 104.89596756 0 222.78251035 0 16887
0.12350000 0.12352200 13147.87430551 0 -238.01042332 0 4578.28197532 0 -31.21387129 0 -255.26169456 0 16407
0.12450000 0.12449800 13094.48928277 0 232.49726634 0 4444.17132868 0 205.33681218 0 -400.59088518 0 16306
0.12550000 0.12549900 13037.69904252 0 194.74988112 0 4149.30146230 0 -65.62040861 0 -562.74404717 0 17523
0.12650000 0.12650100 13023.74863534 0 26.19282317 0 4470.36953428 0 -115.47641772 0 -1064.40508313 0 17154
0.12750000 0.12750600 12512.41678168 0 283.79412184 0 4414.38116784 0 -123.87082809 0 77.58919889 0 18007
0.12850000 0.12850300 12726.17656412 0 -210.05029227 0 4226.86352930 0 680.46021924 0 -479.42935951 0 17496
0.12950000 0.12949900 13013.42313712 0 -228.63289371 0 4073.67268008 0 428.73336014 0 -732.27664502 0 18405
0.13050000 0.13049000 13037.47935107 0 331.01899628 0 4224.99615196 0 -189.09502316 0 -779.33784933 0 18100
0.13150000 0.13148800 12542.07512765 0 39.08860153 0 3977.96409918 0 -552.31639242 0 -118.06548148 0 19059
0.13250000 0.13249300 12438.49060821 0 232.05568652 0 4559.50934078 0 453.19051099 0 122.26817895 0 18957
0.13350000 0.13349100 12620.50497588 0 149.02110547 0 4237.39773441 0 -25.25715727 0 -352.99692910 0 19468
0.13450000 0.13450700 12449.58502652 0 118.36206494 0 4324.83493215 0 345.96790111 0 277.19568909 0 19953
0.13550000 0.13551000 12292.39579288 0 -42.01906580 0 4316.91505532 0 49.06841526 0 3.38457749 0 19956
0.13650000 0.13649900 12067.65143786 0 61.03017542 0 4066.45581590 0 443.38787842 0 42.42132085 0 19723
0.13750000 0.13749600 12015.69440955 0 238.64093779 0 3907.37723577 0 -103.12789076 0 447.87397786 0 20946
0.13850000 0.13851100 11827.30898978 0 201.18574220 0 4198.76499264 0 117.47560993 0 131.72260057 0 20955
0.13950000 0.13949800 11653.75274300 0 82.00258046 0 3753.07694472 0 179.70650897 0 743.99388859 0 20506
0.14050000 0.14048300 11253.36507241 0 50.63613346 0 3558.28751914 0 609.78767617 0 579.06931894 0 21447
0.14150000 0.14148400 11218.76366878 0 88.65978068 0 3471.42151916 0 196.40305930 0 950.78615664 0 21771
0.14250000 0.14249400 11082.55496877 0 344.71785675 0 3602.74208437 0 101.86785044 0 809.25103738 0 22470
0.14350000 0.14350900 10769.65941879 0 190.22313876 0 3597.62327355 0 -352.32796863 0 1254.14160533 0 22519
0.14450000 0.14449900 10514.67453546 0 157.56600448 0 3499.24544151 0 47.03110658 0 791.06827439 0 22218
0.14550000 0.14550500 10221.19970980 0 178.99690558 0 3955.53360197 0 -88.95790198 0 823.76934696 0 23559
0.14650000 0.14650700 10392.71282609 0 215.98196147 0 3703.26190807 0 -99.31734253 0 811.12061164 0 23044
0.14750000 0.14750500 10072.38072047 0 12.37587854 0 3959.35623323 0 209.98658175 0 898.97302623 0 23649
0.14850000 0.14849900 10051.01572680 0 -158.99949120 0 3750.91298392 0 630.12671076 0 1120.32754214 0 23640
0.14950000 0.14949500 10132.33451762 0 32.96338417 0 3494.28041471 0 92.60730652 0 938.37798345 0 24457
0.15050000 0.15050000 10004.93544482 0 335.26233667 0 3415.94942763 0 -183.86197278 0 1165.91351836 0 24591
0.15150000 0.15149900 9963.78723593 0 32.22170583 0 3684.61010382 0 -38.70084612 0 699.70848577 0 25020
0.15250000 0.15250500 9793.04303973 0 -42.86938157 0 3560.42951079 0 73.88542071 0 742.35828574 0 25297
0.15350000 0.15350100 9848.27347067 0 123.76647465 0 3536.70283402 0 -64.75647197 0 475.55290385 0 25452
0.15450000 0.15450400 9605.50343205 0 48.53698164 0 3489.85363196 0 -301.77916253 0 269.16706499 0 26061
0.15550000 0.15549900 9554.79864501 0 97.51389540 0 3282.88231538 0 303.45540830 0 -167.02481993 0 26128
0.15650000 0.15649500 9407.06712836 0 195.46607526 0 3467.00572099 0 200.75185158 0 172.31718700 0 26331
0.15750000 0.15749700 9335.67839116 0 33.90058790 0 3055.04031090 0 286.59628631 0 474.66644884 0 27345
0.15850000 0.15849900 9294.17867595 0 -4.93023867 0 2872.05930084 0 458.68060036 0 186.45872574 0 26980
0.15950000 0.15949700 9354.62677886 0 -27.79558215 0 2714.79317519 0 214.10469801 0 684.47837589 0 27777
0.16050000 0.16050000 9272.80269770 0 122.11000110 0 2514.86296964 0 -18.07775048 0 172.58191520 0 28224
0.16150000 0.16150500 8926.59093908 0 244.23318369 0 2752.92062662 0 -383.45714887 0 387.79275967 0 28075
0.16250000 0.16249700 8677.72446268 0 247.38246065 0 3047.86738500 0 -102.98179594 0 664.02070791 0 28590
0.16350000 0.16349900 8620.56074697 0 15.57008241 0 2828.17593337 0 194.92233891 0 431.58715209 0 29163
0.16450000 0.16449100 8639.89359471 0 -24.48571074 0 2843.74107272 0 71.08512362 0 -23.03772438 0 28996
0.16550000 0.16550500 8543.08655655 0 13.67030058 0 2463.41123166 0 489.44728971 0 442.74418246 0 30777
0.16650000 0.16650700 8437.51382947 0 -17.37847259 0 2275.87162398 0 642.28223878 0 748.94902928 0 29211
0.16750000 0.16749900 8521.37005656 0 44.50751088 0 2083.74046496 0 -375.15830429 0 485.23580458 0 30922
0.16850000 0.16850800 8283.63095218 0 326.37252208 0 2235.30559744 0 -249.17953672 0 362.34919420 0 30867
0.16950000 0.16949900 8158.13221044 0 130.15180669 0 2301.74029241 0 -41.53695291 0 243.17097552 0 30852
0.17050000 0.17049200 8272.85508648 0 -100.51718739 0 2162.25818977 0 31.87668040 0 173.60567736 0 31257
0.17150000 0.17149500 8068.84960450 0 34.61293743 0 2240.53425399 0 93.83790819 0 -79.60376950 0 32608
0.17250000 0.17250900 7990.96898489 0 125.13625085 0 2216.65379320 0 135.50019508 0 -56.62821780 0 32361
0.17350000 0.17350400 7969.97746669 0 31.40192718 0 2283.38507163 0 -168.45940511 0 -68.05931326 0 32508
0.17450000 0.17449800 7853.84856536 0 78.51684605 0 2113.33290350 0 -33.12529677 0 -161.01955410 0 32791
0.17550000 0.17549800 7924.33656762 0 37.64995206 0 2053.56584408 0 304.60988688 0 80.47199012 0 33633
0.17650000 0.17650100 7857.85793435 0 74.23527934 0 2135.60961669 0 -11.27775082 0 -85.44624397 0 33984
0.17750000 0.17750300 7866.00848721 0 128.07352555 0 2028.87252492 0 117.09774063 0 78.67183836 0 34069
0.17850000 0.17849800 7700.41605555 0 9.02120106 0 1865.13648602 0 116.57487498 0 70.86092849 0 34536
