### header ###
fiducial parameters:
Omega_m = 0.31
Omega_nu = 0
Omega_de = 0.69
Omega_k = 0
H_0 = 100
w_de = -1
zeff = 0
beta = 0
fgrowth = 0
b_1 = 2
gamma = 0.55
Lx = 3500 Ly = 3500 Lz = 3500
nx = 700 ny = 700 nz = 700
xoffset = -983.599254 yoffset = -42.9823471 zoffset = 800.977702
bins = 400 dk = 0.001
kx_ny = 0.628318531 ky_ny = 0.628318531 kz_ny = 0.628318531
############################
A(data) = 9.07787002 (not used)
A(ran) = 9.07807161 (used)
Ngal = 504371
weighted Ngal = 0
Nran = 25229228
weighted Nran = 0
SN(data) = 6718.39711
SN(ran) = 134.757719
SN(data+ran) = 6853.15483
############################
13 columns: k_central k_mean P_0(k) sigma^{lin}_{P_0(k)} P^img_1(k) sigma^{lin}_{P_1(k)} P_2(k) sigma^{lin}_{P_2(k)} P^img_3(k) sigma^{lin}_{P_3(k)} P_4(k) sigma^{lin}_{P_4(k)} N_modes
### header ###
0.00050000 0 0 0 0 0 0 0 0 0 0 0 0
0.00150000 0.00179520 12377.85576756 0 -8068.83861992 0 7131.14058152 0 -17170.20509335 0 -16623.50291598 0 3
0.00250000 0.00253879 33183.18546525 0 -6636.51626275 0 684.90238039 0 -10096.26118126 0 77198.14810724 0 6
0.00350000 0.00331552 25393.69551065 0 3564.95515469 0 11798.74910107 0 -41417.11122650 0 -16285.39777192 0 7
0.00450000 0.00420575 45996.90907284 0 -19166.43146856 0 -16299.89740773 0 -1480.74235311 0 17622.00056362 0 24
0.00550000 0.00557378 49907.96614043 0 5713.14210699 0 6302.45344141 0 -21114.65526158 0 -9911.94005335 0 45
0.00650000 0.00659388 42943.74712386 0 12314.80432094 0 22962.26036977 0 -22708.29705169 0 11750.19729026 0 40
0.00750000 0.00754703 59465.86243491 0 -5916.84002094 0 1969.94029302 0 15262.40452742 0 -20291.25170089 0 57
0.00850000 0.00846663 82360.34799185 0 -27724.07258378 0 -6035.69309627 0 39283.79738548 0 -7970.06534327 0 75
0.00950000 0.00948925 63922.19368543 0 -1733.35456876 0 4746.58759641 0 -18115.64725543 0 -3186.59155213 0 112
0.01050000 0.01054430 73459.54882918 0 8399.32047061 0 -9517.58291310 0 2041.10933877 0 24013.48396580 0 105
0.01150000 0.01145670 73974.61543752 0 1781.20336693 0 2005.99166023 0 -6847.32119516 0 -2985.54092017 0 144
0.01250000 0.01249090 79891.34561274 0 -329.47236846 0 3731.23961443 0 7497.37721595 0 9446.02940731 0 169
0.01350000 0.01339930 73342.45328547 0 2795.00252418 0 10762.26680144 0 -561.72028501 0 2939.79017537 0 180
0.01450000 0.01448870 78792.55881743 0 -7668.16535045 0 -1469.53808908 0 5922.31033809 0 4458.18764329 0 267
0.01550000 0.01550050 78112.28423746 0 855.05121276 0 7455.13054980 0 13821.88767910 0 10329.13411999 0 238
0.01650000 0.01653350 86305.01785153 0 5397.69813617 0 11748.32991292 0 -33092.34305001 0 -10032.85822832 0 315
0.01750000 0.01747870 77024.81155191 0 8559.89295260 0 28913.81164006 0 -3791.24833444 0 17250.06293602 0 297
0.01850000 0.01844180 66253.99875300 0 -75.00145328 0 34951.37211367 0 6710.34357507 0 -1013.37075892 0 388
0.01950000 0.01947590 72128.21863233 0 1583.85453593 0 39588.39958316 0 9187.89195165 0 14921.33354877 0 399
0.02050000 0.02045430 70952.53982894 0 -1179.31469691 0 30734.39469970 0 14931.87873845 0 15778.67943874 0 462
0.02150000 0.02154770 71009.54976064 0 437.08712758 0 31396.10535200 0 5678.94713255 0 21173.97195352 0 571
0.02250000 0.02255340 71471.45103769 0 3416.14714993 0 19750.70088416 0 4023.05576963 0 21299.74530958 0 510
0.02350000 0.02348930 71096.76726694 0 1954.90241316 0 36174.61411633 0 -6541.31297219 0 20743.81609124 0 555
0.02450000 0.02439640 67192.08125145 0 -120.23054073 0 29283.22281597 0 6862.39202874 0 27944.97233839 0 592
0.02550000 0.02547300 65926.87818153 0 2917.12900214 0 29885.94631351 0 4665.80704965 0 13042.86179164 0 837
0.02650000 0.02652900 64330.05086538 0 1158.38908614 0 31408.51791901 0 -1498.50440697 0 16468.29090540 0 723
0.02750000 0.02749970 62593.93916890 0 -321.46461505 0 32257.18599665 0 -1703.36668562 0 5413.80151958 0 826
0.02850000 0.02848090 59118.64009561 0 516.17165634 0 33806.55995925 0 5432.11280207 0 11886.18629882 0 831
0.02950000 0.02946900 63948.88619681 0 1867.62998400 0 26770.83137517 0 2012.35172776 0 1635.74565681 0 996
0.03050000 0.03053250 63763.90599454 0 120.22394999 0 29728.09800552 0 1493.18787384 0 4397.06948145 0 1041
0.03150000 0.03150510 59915.90037357 0 730.73770640 0 28043.72364590 0 -1985.19786434 0 -2952.33455726 0 1036
0.03250000 0.03246190 59906.01425824 0 4567.13263415 0 31113.36245375 0 -899.92319176 0 -4107.23054932 0 1059
0.03350000 0.03345080 55799.32195298 0 684.39709005 0 30700.56221614 0 2619.68874578 0 -1873.27605430 0 1302
0.03450000 0.03451200 56463.66890270 0 1131.39999131 0 33417.59624414 0 -749.82340126 0 -474.33251784 0 1339
0.03550000 0.03553350 52006.89826927 0 1685.45084774 0 26219.51567731 0 5200.86558009 0 -1981.26538735 0 1365
0.03650000 0.03647120 53712.25316253 0 -1129.11520021 0 28115.89228775 0 4463.08676266 0 -2054.06014985 0 1308
0.03750000 0.03744890 51277.41280415 0 999.98276186 0 23774.23997498 0 1046.29591677 0 -1621.33389758 0 1579
0.03850000 0.03847530 50913.93329743 0 1434.20071908 0 25266.49416015 0 5060.99901741 0 3243.26096208 0 1662
0.03950000 0.03950240 49078.41121909 0 833.27539608 0 19965.44927812 0 30.46461360 0 -319.03043377 0 1683
0.04050000 0.04050350 49786.91615058 0 -832.50427908 0 18681.57243482 0 4155.96909786 0 -1520.01220009 0 1822
0.04150000 0.04152450 47363.71943914 0 2477.16391654 0 20565.64632397 0 -1558.77675673 0 2076.39178591 0 1887
0.04250000 0.04250150 45775.67978105 0 2745.79163901 0 20144.93719410 0 -2465.67405362 0 2174.27531218 0 1920
0.04350000 0.04349210 42283.68415745 0 897.89104583 0 23118.13145469 0 -1072.40734426 0 -3001.77611845 0 2005
0.04450000 0.04448520 42110.34760211 0 1314.65561568 0 24771.85885682 0 565.37595076 0 -1977.54161725 0 2151
0.04550000 0.04548030 41214.11632520 0 109.77289810 0 22724.33452765 0 1564.36790417 0 -3628.08349332 0 2274
0.04650000 0.04648670 41365.37388964 0 -757.17757260 0 24598.08291858 0 5376.78350998 0 -277.87453568 0 2311
0.04750000 0.04749250 41015.07587003 0 395.23151222 0 18625.99049755 0 3301.21556702 0 813.62289727 0 2568
0.04850000 0.04851840 42640.79261206 0 -620.75796880 0 18891.15807967 0 278.19967902 0 638.49585661 0 2493
0.04950000 0.04949480 39902.33866754 0 205.41809801 0 17848.28275880 0 2257.19785060 0 1618.70858473 0 2644
0.05050000 0.05050630 40520.77010387 0 487.42832527 0 15769.78193495 0 2644.78849413 0 3441.54348174 0 2829
0.05150000 0.05149060 38383.50181671 0 1718.51441121 0 16659.53231404 0 -1812.09198503 0 5426.73036151 0 2784
0.05250000 0.05249300 38079.44884766 0 2379.75272689 0 15672.23893043 0 132.78371028 0 3480.62659099 0 3055
0.05350000 0.05348950 37422.90094447 0 -781.84672571 0 15427.39280759 0 4437.87716859 0 6684.43096835 0 3009
0.05450000 0.05448610 36526.77951329 0 -1236.17084459 0 13799.36930531 0 3488.20594607 0 3795.31262630 0 3336
0.05550000 0.05550870 37507.92153625 0 741.73546047 0 11140.22397482 0 540.18283355 0 5158.06968531 0 3349
0.05650000 0.05647670 36270.94881787 0 1217.36525633 0 12689.15855452 0 -2477.19687025 0 2506.77832422 0 3324
0.05750000 0.05747970 33515.46878584 0 846.09878611 0 15071.16311878 0 -1861.77520681 0 4163.68026781 0 3639
0.05850000 0.05849280 34008.45640329 0 1277.60465236 0 16182.14278966 0 431.76729908 0 2019.22807019 0 3846
0.05950000 0.05951020 33586.09958754 0 -235.68608776 0 15991.01122674 0 26.01739954 0 1246.26566679 0 3787
0.06050000 0.06049470 33120.79309299 0 6.75729164 0 15721.77935277 0 1278.79098620 0 -867.43082606 0 3930
0.06150000 0.06148310 33316.97755929 0 544.77768026 0 14790.83682650 0 -262.08421259 0 720.12990466 0 4083
0.06250000 0.06249100 32460.51043513 0 928.50395116 0 14879.59217296 0 -387.99048197 0 134.93119422 0 4303
0.06350000 0.06350600 32048.80865478 0 855.25882118 0 17873.76696718 0 -685.81190300 0 -1325.93677172 0 4470
0.06450000 0.06451750 30517.99861984 0 479.83578870 0 15803.72426423 0 966.23485952 0 1272.78242500 0 4479
0.06550000 0.06550280 30428.58419903 0 -154.23108824 0 15401.57906203 0 2646.77670176 0 2396.74586067 0 4636
0.06650000 0.06648880 31319.87241828 0 -1005.26524281 0 11777.43903026 0 4577.12859520 0 2065.35229046 0 4653
0.06750000 0.06749660 32215.22492939 0 -426.44856904 0 11687.03599792 0 1604.72522384 0 2778.00939039 0 5220
0.06850000 0.06852730 31572.73727910 0 470.04194379 0 9812.10127316 0 557.78561111 0 4062.41349319 0 5029
0.06950000 0.06949320 30502.40052678 0 894.50230519 0 10220.23306742 0 -191.43803249 0 4838.33074661 0 5040
0.07050000 0.07048030 29559.37497067 0 493.96085058 0 10170.37409247 0 371.67839169 0 4556.45562960 0 5475
0.07150000 0.07148790 29479.07774510 0 343.06687549 0 9964.72092460 0 1165.00179883 0 3141.08246793 0 5509
0.07250000 0.07249820 28515.40119254 0 418.22441955 0 10397.17256256 0 -353.97016223 0 4812.11057186 0 5916
0.07350000 0.07351270 28857.46078272 0 334.00899694 0 9246.09920176 0 386.16264910 0 2789.76288306 0 5721
0.07450000 0.07449140 28019.77727767 0 -40.04195259 0 9184.16818154 0 894.67366452 0 3477.25432720 0 6028
0.07550000 0.07549160 27647.72980434 0 685.28024969 0 8776.33297074 0 -1010.17314984 0 1601.70446638 0 6183
0.07650000 0.07648840 27321.92738157 0 248.24694651 0 9012.36946637 0 -42.61420995 0 1580.55916416 0 6330
0.07750000 0.07749960 26386.81071773 0 795.30722095 0 9605.85493837 0 -610.16334855 0 -970.37274801 0 6583
0.07850000 0.07848650 25260.34279951 0 503.69757572 0 9366.52307097 0 1164.14500217 0 1772.49260087 0 6549
0.07950000 0.07947320 25128.41808281 0 156.84321960 0 9134.24329916 0 984.93279896 0 417.73999990 0 6828
0.08050000 0.08048110 24117.94725105 0 696.98321332 0 8171.54437356 0 518.07747968 0 1180.80859878 0 7147
0.08150000 0.08149960 23670.76530126 0 376.57201878 0 8507.71623284 0 668.10477200 0 422.84672769 0 7386
0.08250000 0.08250610 23266.31333882 0 91.31035804 0 6547.57417856 0 372.93502679 0 2295.56696262 0 7227
0.08350000 0.08350160 22976.10093122 0 -49.22395681 0 7003.41197154 0 1008.06081653 0 1426.91794746 0 7798
0.08450000 0.08449610 23062.98890034 0 312.74396288 0 5931.77903965 0 670.66307895 0 957.01550775 0 7371
0.08550000 0.08548940 22635.24964402 0 630.49908777 0 6276.87037187 0 -936.00421731 0 581.73966854 0 8256
0.08650000 0.08650700 21292.16595450 0 577.87200053 0 7224.49846389 0 -541.47791465 0 1642.20458548 0 8037
0.08750000 0.08749060 21149.58620239 0 297.30294920 0 7231.55055948 0 -64.88543086 0 185.25371813 0 8155
0.08850000 0.08849210 20906.71730262 0 122.80312763 0 7183.13056355 0 106.48279892 0 -379.29070049 0 8718
0.08950000 0.08949900 20712.61990511 0 559.44867540 0 7042.36326592 0 486.69894965 0 -964.38725441 0 8571
0.09050000 0.09049190 20565.97586115 0 179.83063464 0 8219.19544942 0 -1334.75738350 0 4.26895641 0 8932
0.09150000 0.09150830 19327.46530260 0 210.24252229 0 7887.49431118 0 300.92785815 0 -890.21392805 0 9285
0.09250000 0.09250820 19646.89667326 0 459.99105987 0 8629.53514277 0 119.04969918 0 -648.77302271 0 9204
0.09350000 0.09350330 18868.85939733 0 278.31611549 0 7861.04346040 0 49.32128012 0 -965.14299300 0 9349
0.09450000 0.09448040 19012.64745242 0 205.18522508 0 8508.71582894 0 907.89689299 0 -490.84672425 0 9564
0.09550000 0.09549270 18327.21012334 0 202.62252429 0 7648.99727129 0 -73.61728729 0 -549.07923888 0 10155
0.09650000 0.09649430 17906.61083920 0 480.95401819 0 8080.41635942 0 -415.47278412 0 32.86979561 0 9913
0.09750000 0.09749140 17840.37386654 0 -42.77535363 0 8073.39721755 0 824.07252117 0 -565.29905875 0 10476
0.09850000 0.09850240 17729.42968347 0 -257.06426292 0 7045.81242171 0 576.62195617 0 -1272.50781069 0 10575
0.09950000 0.09950330 17517.09789547 0 17.13714153 0 5850.13071165 0 1465.85825726 0 -314.45426083 0 10882
0.10050000 0.10051200 17930.77689888 0 -19.79288164 0 5458.09131623 0 686.84115745 0 -652.25952605 0 10875
0.10150000 0.10150300 17881.01678509 0 515.78609784 0 5385.54919890 0 -501.17991168 0 -644.43851037 0 11118
0.10250000 0.10250800 17452.06922579 0 322.78825605 0 5446.71129903 0 -292.74215466 0 -1272.23319637 0 11575
0.10350000 0.10349800 16652.72187904 0 78.32033204 0 5264.41133247 0 -524.58803585 0 -166.41627461 0 11364
0.10450000 0.10450100 16151.05644925 0 106.79662816 0 5168.37321439 0 66.03749283 0 -1366.63461314 0 12093
0.10550000 0.10551000 16250.90621402 0 300.63127469 0 5676.94794034 0 512.80818022 0 -1232.07359901 0 12067
0.10650000 0.10649700 16266.83384426 0 638.81660613 0 5580.77800739 0 55.13420608 0 -1661.18592690 0 12054
0.10750000 0.10749900 15719.03320963 0 296.57686895 0 6205.53655752 0 -411.35906168 0 -479.46560860 0 12807
0.10850000 0.10850100 15111.91588306 0 83.14354802 0 5944.44425184 0 1017.23183618 0 -10.21906870 0 12736
0.10950000 0.10950300 15475.83477268 0 -152.08580122 0 6116.70431906 0 410.70987344 0 -61.98726123 0 12933
0.11050000 0.11050200 15264.93097912 0 48.62277115 0 5529.69974488 0 49.27130031 0 698.54302262 0 13428
0.11150000 0.11150900 14930.56058974 0 124.91106711 0 5525.74529875 0 337.95904924 0 933.11197935 0 13453
0.11250000 0.11250000 15123.33983854 0 152.24617598 0 5451.33580409 0 408.24383690 0 2147.01160303 0 13668
0.11350000 0.11349100 15343.25098162 0 -160.68013081 0 5968.72015724 0 666.55924264 0 1305.01116095 0 13791
0.11450000 0.11448600 14932.20827563 0 276.04121051 0 5159.94804722 0 -261.19665913 0 1509.53291785 0 14205
0.11550000 0.11549300 15021.18331354 0 216.66849725 0 5469.05391966 0 -305.32827793 0 1289.88540451 0 14776
0.11650000 0.11649800 14533.68798238 0 304.14304255 0 6171.52832081 0 -499.47840139 0 1360.94460454 0 14553
0.11750000 0.11747300 14192.17762082 0 24.25701194 0 6017.31590634 0 -106.72160353 0 1147.34959069 0 14568
0.11850000 0.11849100 14496.45028132 0 -93.94819330 0 5939.30347187 0 445.36290457 0 68.71520209 0 16015
0.11950000 0.11950300 14422.63395358 0 -155.56791073 0 5613.55597197 0 516.27820669 0 595.50333798 0 15270
0.12050000 0.12050700 14534.67659391 0 149.38689173 0 5369.86322925 0 11.50546101 0 27.22625175 0 15999
0.12150000 0.12150000 14478.65527374 0 192.49474837 0 4873.78894691 0 25.67237412 0 345.88551681 0 15670
0.12250000 0.12250700 14344.53364252 0 -38.69634244 0 4675.36362780 0 462.90856235 0 -411.76988470 0 16887
0.12350000 0.12352200 14350.68500317 0 -22.68830513 0 4479.68445183 0 768.31043692 0 252.01465490 0 16407
0.12450000 0.12449800 14340.57919640 0 249.44316646 0 4193.58027438 0 121.65963362 0 -286.85112839 0 16306
0.12550000 0.12549900 13784.43028660 0 158.24704798 0 3801.23331092 0 64.58522249 0 556.20712803 0 17523
0.12650000 0.12650100 13424.24615166 0 280.39219971 0 4108.44983687 0 -204.30645927 0 -303.32139652 0 17154
0.12750000 0.12750600 13240.80378955 0 348.63385687 0 3956.87371982 0 303.03909300 0 -9.99187479 0 18007
0.12850000 0.12850300 12760.44843057 0 192.26407235 0 3825.23460201 0 115.87955153 0 279.90338623 0 17496
0.12950000 0.12949900 12628.85325104 0 180.61822850 0 3759.79950314 0 22.82275630 0 -156.78060754 0 18405
0.13050000 0.13049000 12194.08386827 0 272.84469989 0 3793.25851122 0 -143.36624750 0 -66.18139073 0 18100
0.13150000 0.13148800 11971.75611923 0 13.77399494 0 3291.46126656 0 475.18272375 0 220.69544156 0 19059
0.13250000 0.13249300 12117.08201448 0 -30.14144747 0 3564.97712384 0 64.43418461 0 -15.43145710 0 18957
0.13350000 0.13349100 12007.78551730 0 77.59897516 0 3232.03472890 0 -196.23389688 0 -472.73426253 0 19468
0.13450000 0.13450700 11838.73294527 0 202.84990495 0 3309.71762619 0 47.60559973 0 -449.78639195 0 19953
0.13550000 0.13551000 11832.03235599 0 -15.54833295 0 3328.78684420 0 292.19951678 0 -24.97298638 0 19956
0.13650000 0.13649900 11607.83722961 0 131.09318456 0 3195.74170109 0 220.75365980 0 192.17729423 0 19723
0.13750000 0.13749600 11643.86662768 0 -10.27115755 0 3168.08254733 0 271.76052258 0 323.19468523 0 20946
0.13850000 0.13851100 11522.15756347 0 242.15929638 0 3166.07237055 0 145.78834576 0 111.86139488 0 20955
0.13950000 0.13949800 11601.90556041 0 230.78037765 0 3251.82892869 0 -105.35556208 0 804.08169753 0 20506
0.14050000 0.14048300 11160.10605119 0 -91.77050179 0 3064.14652157 0 -123.76317927 0 586.26531244 0 21447
0.14150000 0.14148400 11018.73460207 0 114.24724405 0 3488.56843696 0 36.28742568 0 924.72635665 0 21771
0.14250000 0.14249400 10921.82870276 0 236.42534950 0 3261.86882803 0 -206.97351349 0 358.14759519 0 22470
0.14350000 0.14350900 10909.37219745 0 111.08149023 0 3447.45318179 0 357.35890287 0 610.25781587 0 22519
0.14450000 0.14449900 10872.28828042 0 51.75150696 0 3418.75049364 0 -114.00228808 0 -248.81814428 0 22218
0.14550000 0.14550500 10728.33545674 0 71.54526737 0 3314.21031638 0 -148.87391219 0 345.21875326 0 23559
0.14650000 0.14650700 10732.52057889 0 5.66333805 0 3592.54840102 0 43.49231668 0 -0.14517211 0 23044
0.14750000 0.14750500 10447.69061186 0 26.38164797 0 3070.00129875 0 -52.80437824 0 -200.28830262 0 23649
0.14850000 0.14849900 10451.51324312 0 477.24342957 0 3732.52480942 0 31.91457718 0 -282.59350806 0 23640
0.14950000 0.14949500 10159.25770502 0 224.28519988 0 3753.12088301 0 -251.94655055 0 -1.01231514 0 24457
0.15050000 0.15050000 10047.57755558 0 -121.07964819 0 3670.11046802 0 185.18451532 0 -80.26943460 0 24591
0.15150000 0.15149900 9808.81688595 0 46.36851716 0 3721.47432941 0 305.68307962 0 -236.43303870 0 25020
0.15250000 0.15250500 9644.32291155 0 214.11128876 0 3669.94569943 0 15.42871096 0 271.59575399 0 25297
0.15350000 0.15350100 9820.62530148 0 87.53814597 0 3525.08115622 0 251.17763047 0 345.72184668 0 25452
0.15450000 0.15450400 9609.01849527 0 100.47017342 0 3313.99062493 0 142.10302166 0 179.24405847 0 26061
0.15550000 0.15549900 9388.72289215 0 57.42679623 0 3449.60615802 0 305.08881425 0 579.14181712 0 26128
0.15650000 0.15649500 9228.78751537 0 140.74203311 0 2990.03361036 0 111.27591716 0 868.83794981 0 26331
0.15750000 0.15749700 9326.63808792 0 68.55977038 0 3192.80882021 0 152.01549995 0 977.99604138 0 27345
0.15850000 0.15849900 9251.32785831 0 -63.97524917 0 2740.44215217 0 297.33700138 0 549.54498476 0 26980
0.15950000 0.15949700 9192.15396581 0 -82.64550750 0 2756.05122980 0 47.91020193 0 720.86696948 0 27777
0.16050000 0.16050000 9104.83759836 0 353.30998942 0 2946.79833268 0 -463.34355143 0 510.63872713 0 28224
0.16150000 0.16150500 8808.04543179 0 234.02961422 0 3221.90695298 0 -353.14741775 0 549.59221842 0 28075
0.16250000 0.16249700 8755.94560403 0 -47.67029886 0 3224.49931211 0 177.59197875 0 619.72761589 0 28590
0.16350000 0.16349900 8838.22005267 0 -115.08646539 0 3246.69913330 0 537.14010694 0 -61.26074159 0 29163
0.16450000 0.16449100 8908.55427090 0 141.80094591 0 3008.08126311 0 -106.86451281 0 327.28424160 0 28996
0.16550000 0.16550500 8692.08129904 0 90.52408233 0 2803.17504618 0 -26.63561129 0 342.11341459 0 30777
0.16650000 0.16650700 8795.67680306 0 16.01715451 0 3171.15822765 0 43.30513956 0 394.80860618 0 29211
0.16750000 0.16749900 8706.94342575 0 19.47356012 0 2956.22309595 0 -159.95624747 0 -332.71611275 0 30922
0.16850000 0.16850800 8489.02049031 0 207.19210649 0 3028.99588931 0 -125.56025535 0 -146.60559796 0 30867
0.16950000 0.16949900 8401.57230799 0 35.09570940 0 2803.76821310 0 44.44281174 0 -413.63616358 0 30852
0.17050000 0.17049200 8331.63353436 0 -76.52226736 0 2639.01060895 0 436.32040442 0 -475.72096781 0 31257
0.17150000 0.17149500 8370.55187502 0 157.58907208 0 2346.76605542 0 327.95100516 0 -380.21120767 0 32608
0.17250000 0.17250900 7996.68096264 0 269.81185940 0 2285.58198615 0 -46.11664091 0 -362.93796729 0 32361
0.17350000 0.17350400 7905.09159645 0 87.79771142 0 2345.22821526 0 144.46360630 0 200.72109478 0 32508
0.17450000 0.17449800 7786.44722800 0 -38.08735774 0 2211.15052233 0 351.92922865 0 112.07669250 0 32791
0.17550000 0.17549800 7899.15992726 0 -62.60756004 0 1754.79645444 0 269.69761985 0 68.57525863 0 33633
0.17650000 0.17650100 7992.25417989 0 55.81316251 0 1685.40690945 0 -56.65359216 0 -216.85303807 0 33984
0.17750000 0.17750300 7693.49577482 0 117.51515439 0 2052.75298571 0 -277.63836737 0 56.61844153 0 34069
0.17850000 0.17849800 7727.42711952 0 217.40226670 0 2049.31481449 0 -126.00183517 0 288.90304655 0 34536
