### header ###
fiducial parameters:
Omega_m = 0.31
Omega_nu = 0
Omega_de = 0.69
Omega_k = 0
H_0 = 100
w_de = -1
zeff = 0
beta = 0
fgrowth = 0
b_1 = 2
gamma = 0.55
Lx = 3500 Ly = 3500 Lz = 3500
nx = 700 ny = 700 nz = 700
xoffset = -983.599254 yoffset = -42.9823471 zoffset = 800.977702
bins = 400 dk = 0.001
kx_ny = 0.628318531 ky_ny = 0.628318531 kz_ny = 0.628318531
############################
A(data) = 9.03660928 (not used)
A(ran) = 9.03821856 (used)
Ngal = 502519
weighted Ngal = 0
Nran = 25229228
weighted Nran = 0
SN(data) = 6723.1249
SN(ran) = 134.166128
SN(data+ran) = 6857.29103
############################
13 columns: k_central k_mean P_0(k) sigma^{lin}_{P_0(k)} P^img_1(k) sigma^{lin}_{P_1(k)} P_2(k) sigma^{lin}_{P_2(k)} P^img_3(k) sigma^{lin}_{P_3(k)} P_4(k) sigma^{lin}_{P_4(k)} N_modes
### header ###
0.00050000 0 0 0 0 0 0 0 0 0 0 0 0
0.00150000 0.00179520 39379.47301266 0 -56571.53740545 0 -30467.24989452 0 -18950.03538870 0 58211.31440039 0 3
0.00250000 0.00253879 43496.27112470 0 -26837.06834783 0 -7967.09950868 0 -73451.53009120 0 -21004.37015287 0 6
0.00350000 0.00331552 82663.19265791 0 -24881.81442836 0 -49829.42644647 0 -67698.68973890 0 -62861.41351125 0 7
0.00450000 0.00420575 96642.04987921 0 -2632.37592711 0 -52492.96560600 0 -30983.85434302 0 3439.37952094 0 24
0.00550000 0.00557378 80122.02163695 0 12990.35553470 0 6113.47485472 0 -50360.53053078 0 -9983.72423517 0 45
0.00650000 0.00659388 63757.53494244 0 21056.76656408 0 14856.41472482 0 -12448.04718636 0 13327.58191294 0 40
0.00750000 0.00754703 65189.37397842 0 13109.31845575 0 38118.11454315 0 10960.48341367 0 10908.38358592 0 57
0.00850000 0.00846663 50828.69301420 0 -9104.63987605 0 23525.65909746 0 15930.04684892 0 -21631.47940154 0 75
0.00950000 0.00948925 58889.83144874 0 3805.39646393 0 33219.10501759 0 4807.45311309 0 -5592.72922236 0 112
0.01050000 0.01054430 46659.71818240 0 8762.26173327 0 27712.31909112 0 6231.39424138 0 25629.75397542 0 105
0.01150000 0.01145670 55626.86416345 0 -3065.55254686 0 41452.15201304 0 3765.06111341 0 17096.60845705 0 144
0.01250000 0.01249090 55176.16715044 0 -6127.56806134 0 20951.97374165 0 27422.65591215 0 19738.17847142 0 169
0.01350000 0.01339930 64377.72391038 0 -7899.93983191 0 28142.80449058 0 20200.40928564 0 21731.54885775 0 180
0.01450000 0.01448870 70422.09481899 0 1660.03254678 0 16953.69916777 0 5636.67849725 0 21126.84813715 0 267
0.01550000 0.01550050 73126.71627997 0 5559.47892115 0 27652.23347910 0 -7337.38691630 0 34003.18380845 0 238
0.01650000 0.01653350 63381.97240588 0 6238.47929069 0 34822.96246020 0 -5527.63464524 0 27813.04762169 0 315
0.01750000 0.01747870 64394.09092353 0 112.43039574 0 44557.60052751 0 17878.16079622 0 35085.93312779 0 297
0.01850000 0.01844180 64785.03186170 0 -3564.23017290 0 27142.65915705 0 14749.42498787 0 25005.06133272 0 388
0.01950000 0.01947590 65830.65332572 0 -1474.92052964 0 39550.39296203 0 7586.50603788 0 23518.40927956 0 399
0.02050000 0.02045430 65856.90645419 0 2101.40365767 0 31630.29643943 0 -1409.73807594 0 32605.17725602 0 462
0.02150000 0.02154770 66015.19414508 0 2489.98291274 0 35614.84029759 0 3392.10192055 0 16794.31301962 0 571
0.02250000 0.02255340 69659.54579039 0 -996.03270956 0 37021.96404526 0 -11748.00037575 0 14534.01751955 0 510
0.02350000 0.02348930 66789.16712916 0 1166.47373156 0 33516.12786019 0 8690.27982914 0 -1883.87616685 0 555
0.02450000 0.02439640 68987.39979414 0 -4403.82499359 0 32694.15229393 0 1387.01099527 0 12152.45233819 0 592
0.02550000 0.02547300 71836.79792174 0 318.46362982 0 32025.85089808 0 6464.33308754 0 -390.32799902 0 837
0.02650000 0.02652900 70668.58862772 0 2925.93862935 0 32387.57287319 0 -3454.74693799 0 -5545.93494316 0 723
0.02750000 0.02749970 66687.01060416 0 5444.77801426 0 35018.59769787 0 -8213.18688822 0 -6447.27404632 0 826
0.02850000 0.02848090 63056.16998312 0 2905.89178439 0 37341.50526165 0 -101.04938994 0 -4253.01779662 0 831
0.02950000 0.02946900 57652.08981028 0 303.92335110 0 38066.48705202 0 6568.04942185 0 1659.51627187 0 996
0.03050000 0.03053250 59531.55017894 0 1101.97232136 0 31877.88870541 0 10020.78618306 0 -13301.54847593 0 1041
0.03150000 0.03150510 58850.61652463 0 2777.80068352 0 27947.60863581 0 -1518.70503595 0 -3632.16975432 0 1036
0.03250000 0.03246190 53700.60951559 0 1564.62054934 0 30092.01689514 0 1126.78647082 0 -7150.61622870 0 1059
0.03350000 0.03345080 52487.47331971 0 -1617.61012747 0 23363.30711471 0 6062.07803961 0 2372.81047701 0 1302
0.03450000 0.03451200 51871.78802652 0 614.37263676 0 20850.47629100 0 5927.73671694 0 -7909.11195002 0 1339
0.03550000 0.03553350 52667.18092714 0 1129.70836713 0 18174.74425591 0 1115.43940735 0 319.16554401 0 1365
0.03650000 0.03647120 48405.49630275 0 1248.11107498 0 18718.26090724 0 -303.70585656 0 -6252.85809620 0 1308
0.03750000 0.03744890 49582.60310057 0 1027.21241883 0 22750.47781040 0 -2391.67098814 0 -833.06119691 0 1579
0.03850000 0.03847530 46586.56092901 0 4128.07926808 0 18619.07021683 0 -422.48863062 0 -4270.03289955 0 1662
0.03950000 0.03950240 45515.34541088 0 -1515.32178760 0 21599.95367823 0 4058.82153795 0 4778.54171805 0 1683
0.04050000 0.04050350 45498.75870628 0 -1715.61448404 0 19757.40147343 0 5925.95721618 0 -1080.27449514 0 1822
0.04150000 0.04152450 47367.67388527 0 1326.43107749 0 20358.25759363 0 -213.66751202 0 2371.97564950 0 1887
0.04250000 0.04250150 43940.70693134 0 1567.58638394 0 17364.74187376 0 333.15988948 0 9627.53848464 0 1920
0.04350000 0.04349210 42137.91887929 0 69.85529087 0 19487.94990801 0 4201.21455232 0 9854.32597016 0 2005
0.04450000 0.04448520 45164.38831690 0 337.47572804 0 17970.98043453 0 5585.52334274 0 13142.82140213 0 2151
0.04550000 0.04548030 45700.98468750 0 961.10945795 0 18369.72041923 0 3401.98803588 0 17957.24971880 0 2274
0.04650000 0.04648670 43182.55173178 0 -582.31745705 0 16912.72671204 0 -1950.67335271 0 14507.32500818 0 2311
0.04750000 0.04749250 42205.25430921 0 2038.48402593 0 17573.00936991 0 -2558.94405940 0 10081.99222148 0 2568
0.04850000 0.04851840 39377.93517250 0 1565.80688318 0 19009.46192637 0 307.41974055 0 11508.64653920 0 2493
0.04950000 0.04949480 39123.64231724 0 483.92314816 0 21518.44814967 0 -966.90821381 0 9753.80614647 0 2644
0.05050000 0.05050630 37531.97775021 0 765.46982645 0 20157.34976112 0 1990.07501456 0 4804.00395730 0 2829
0.05150000 0.05149060 37559.98841029 0 1613.18334472 0 19957.32069441 0 -273.10613272 0 4574.21768347 0 2784
0.05250000 0.05249300 35990.07329696 0 -529.94411344 0 15555.36307817 0 2200.01216574 0 2619.06262514 0 3055
0.05350000 0.05348950 37382.03833447 0 -393.64314303 0 15644.55780753 0 3718.12403477 0 2523.60668941 0 3009
0.05450000 0.05448610 35799.38111695 0 197.86181054 0 14286.20556212 0 -67.10310621 0 940.16517341 0 3336
0.05550000 0.05550870 34158.50566475 0 1567.35570791 0 11776.12088155 0 -770.20527569 0 1861.34680848 0 3349
0.05650000 0.05647670 34158.61551048 0 593.59531772 0 11667.81299590 0 1760.14594129 0 -1401.17010933 0 3324
0.05750000 0.05747970 32955.58512137 0 837.35067250 0 12851.73022872 0 1317.07222165 0 -1258.89792526 0 3639
0.05850000 0.05849280 31704.66199581 0 588.55998965 0 12106.20728762 0 -1598.92536951 0 -249.12571232 0 3846
0.05950000 0.05951020 30174.95041813 0 -162.10373141 0 9369.21429125 0 3032.36815309 0 2171.50719989 0 3787
0.06050000 0.06049470 31633.37211975 0 -505.00364140 0 10209.96249205 0 2815.79632007 0 60.52224878 0 3930
0.06150000 0.06148310 31227.93154577 0 13.06867554 0 7080.55662478 0 1485.69639534 0 1844.62828901 0 4083
0.06250000 0.06249100 32387.79256464 0 -249.39593280 0 6821.81501763 0 2475.97758270 0 3216.21694438 0 4303
0.06350000 0.06350600 31939.95154050 0 -451.60653562 0 4691.75261009 0 -1520.25386069 0 2563.64545647 0 4470
0.06450000 0.06451750 31126.32424940 0 851.02536691 0 7040.68262631 0 404.93748055 0 3879.79497402 0 4479
0.06550000 0.06550280 31585.04000039 0 931.79932293 0 7258.59457718 0 -487.92702486 0 2685.92571844 0 4636
0.06650000 0.06648880 31074.91644972 0 -421.30339524 0 6719.84523035 0 -1199.15283499 0 1211.78509346 0 4653
0.06750000 0.06749660 30479.00338718 0 925.00646325 0 8494.96314407 0 -104.33806112 0 -846.71831600 0 5220
0.06850000 0.06852730 29114.06039822 0 710.41295175 0 7815.96277453 0 -2054.81808536 0 415.60899282 0 5029
0.06950000 0.06949320 28664.68153392 0 70.60872271 0 8953.44821904 0 415.01582590 0 -846.46017855 0 5040
0.07050000 0.07048030 28296.25896954 0 1199.83387849 0 9313.96189116 0 327.70714765 0 -1052.95476467 0 5475
0.07150000 0.07148790 27247.12244230 0 320.26839510 0 9987.86541903 0 -533.28342351 0 -895.86329373 0 5509
0.07250000 0.07249820 26777.09258154 0 320.23324446 0 9387.71231148 0 739.61324105 0 -1577.94483588 0 5916
0.07350000 0.07351270 26718.54480968 0 919.89753854 0 10094.95401713 0 -654.19610620 0 -1348.31234607 0 5721
0.07450000 0.07449140 24571.93963584 0 634.74242816 0 10501.89947755 0 50.59197548 0 -958.12714649 0 6028
0.07550000 0.07549160 24883.13257707 0 377.29590211 0 10504.55774411 0 409.99807314 0 -472.45635284 0 6183
0.07650000 0.07648840 24142.99207653 0 -365.41279149 0 10651.27868008 0 2643.81086717 0 1097.91462025 0 6330
0.07750000 0.07749960 24971.55838634 0 -479.54359907 0 8559.95886004 0 1763.68297366 0 1278.99969308 0 6583
0.07850000 0.07848650 24856.00068279 0 203.39803512 0 7390.25566414 0 913.21562304 0 2799.38536864 0 6549
0.07950000 0.07947320 24756.26076375 0 750.03210814 0 6896.55404947 0 455.51704346 0 1535.18189482 0 6828
0.08050000 0.08048110 24422.54944873 0 -118.31922510 0 6760.51011805 0 948.25091729 0 5514.47512729 0 7147
0.08150000 0.08149960 23644.51217279 0 -111.77351830 0 7043.34089288 0 926.00935472 0 4672.89209897 0 7386
0.08250000 0.08250610 23706.57500788 0 684.29493353 0 6639.25142133 0 -1458.56450107 0 2418.26463836 0 7227
0.08350000 0.08350160 22941.82906476 0 821.55266022 0 7760.86415846 0 -929.91986256 0 3719.46415262 0 7798
0.08450000 0.08449610 22162.80317730 0 772.02541936 0 7884.92392119 0 -447.15229144 0 1385.95647631 0 7371
0.08550000 0.08548940 21729.13225178 0 164.59722939 0 9303.12011803 0 -613.18959829 0 2958.61773278 0 8256
0.08650000 0.08650700 21417.60977338 0 278.93674384 0 8898.84390874 0 1186.19103934 0 1065.24979676 0 8037
0.08750000 0.08749060 21435.73431814 0 -482.49515372 0 8653.65726415 0 551.16850459 0 2682.88299184 0 8155
0.08850000 0.08849210 21413.76517297 0 195.29910975 0 7961.03602461 0 358.58258426 0 1005.01149918 0 8718
0.08950000 0.08949900 21652.24024371 0 540.35529134 0 7752.80148219 0 -177.99511257 0 1321.57589641 0 8571
0.09050000 0.09049190 20697.79073212 0 252.84179322 0 7443.17933484 0 -47.86758178 0 1548.79178025 0 8932
0.09150000 0.09150830 20092.65062862 0 298.67492232 0 8724.54071102 0 438.88310520 0 1198.20816175 0 9285
0.09250000 0.09250820 19561.54654431 0 396.42333835 0 7725.65860334 0 196.68975664 0 1708.14497469 0 9204
0.09350000 0.09350330 19491.57481696 0 38.00826882 0 7026.89698772 0 1228.78921181 0 829.91631378 0 9349
0.09450000 0.09448040 19704.45583359 0 -44.85912704 0 6975.67592577 0 569.42706113 0 1984.48386712 0 9564
0.09550000 0.09549270 19337.13172647 0 434.76169357 0 6649.09359836 0 52.73418682 0 573.97796955 0 10155
0.09650000 0.09649430 18411.35194932 0 617.49445229 0 6565.53395473 0 -856.06948264 0 1532.21606023 0 9913
0.09750000 0.09749140 17911.66374259 0 364.67792359 0 7326.95157235 0 37.50847076 0 1361.86730863 0 10476
0.09850000 0.09850240 17547.08577862 0 355.61784812 0 7456.21802249 0 233.90329163 0 402.96245440 0 10575
0.09950000 0.09950330 16997.74730382 0 237.06465162 0 6691.10958848 0 508.76366059 0 925.46671684 0 10882
0.10050000 0.10051200 16876.14808535 0 213.34786096 0 6878.77002646 0 35.83519082 0 738.57959277 0 10875
0.10150000 0.10150300 16070.75922368 0 352.61576443 0 6908.95563191 0 -239.85912689 0 972.45102914 0 11118
0.10250000 0.10250800 16064.38817159 0 217.03538198 0 6856.29559096 0 519.09135573 0 -263.28482637 0 11575
0.10350000 0.10349800 15799.76981810 0 113.66066787 0 6046.09548651 0 252.92857134 0 -81.90152240 0 11364
0.10450000 0.10450100 15572.93839430 0 -92.86192892 0 5756.44329211 0 1068.98674836 0 101.43297121 0 12093
0.10550000 0.10551000 15815.47775689 0 -139.39532451 0 4762.97657871 0 302.28225595 0 348.42734691 0 12067
0.10650000 0.10649700 15759.34659100 0 10.64185392 0 4179.12457686 0 839.44323358 0 -200.34542240 0 12054
0.10750000 0.10749900 15807.89840181 0 56.10688999 0 4122.76273495 0 -241.62874153 0 -341.23355032 0 12807
0.10850000 0.10850100 15546.24588292 0 340.40860892 0 3830.94657975 0 10.70020397 0 -219.60796888 0 12736
0.10950000 0.10950300 15093.46180112 0 253.39871105 0 4291.37592407 0 -213.00074847 0 -178.91561975 0 12933
0.11050000 0.11050200 14615.74273956 0 344.89800374 0 4730.17664498 0 -420.86840617 0 -35.62472641 0 13428
0.11150000 0.11150900 14466.35255245 0 348.94032645 0 4642.34400262 0 53.03747087 0 -500.56477562 0 13453
0.11250000 0.11250000 14286.53509929 0 -62.01505219 0 5490.27611389 0 247.30666710 0 370.50414088 0 13668
0.11350000 0.11349100 14379.90396624 0 14.00500050 0 5114.09844127 0 217.60767821 0 29.28640834 0 13791
0.11450000 0.11448600 14514.46498036 0 306.20814219 0 5192.05595288 0 -450.42569407 0 -66.77686441 0 14205
0.11550000 0.11549300 13902.51444185 0 288.15609561 0 5663.81039153 0 -245.88855878 0 546.11230583 0 14776
0.11650000 0.11649800 14119.24005888 0 -134.87297598 0 5557.45775980 0 954.23970626 0 874.70700694 0 14553
0.11750000 0.11747300 14014.77677363 0 -43.51121014 0 5869.96884974 0 100.36922520 0 153.34792861 0 14568
0.11850000 0.11849100 13593.95779804 0 364.45603522 0 5250.19729555 0 -82.46766727 0 1280.31784179 0 16015
0.11950000 0.11950300 13526.84205957 0 -104.52304132 0 5738.62631538 0 323.46270880 0 1454.14870289 0 15270
0.12050000 0.12050700 13539.36447231 0 132.87488223 0 5215.77164508 0 604.54034584 0 1104.10332844 0 15999
0.12150000 0.12150000 13585.71936861 0 79.24182784 0 4952.42750202 0 539.53034994 0 875.29797694 0 15670
0.12250000 0.12250700 13316.81703181 0 254.89261292 0 4672.17810175 0 164.37863639 0 1526.27340646 0 16887
0.12350000 0.12352200 13165.88900455 0 42.26940421 0 4377.83549486 0 -183.04691750 0 1555.60221525 0 16407
0.12450000 0.12449800 12537.79114435 0 167.14015794 0 4464.60263368 0 250.64817408 0 737.87108784 0 16306
0.12550000 0.12549900 12542.40466483 0 308.79940286 0 4039.44475192 0 98.26403187 0 686.74559167 0 17523
0.12650000 0.12650100 12581.50974322 0 -158.17894363 0 4118.22610647 0 82.11297542 0 1086.43464344 0 17154
0.12750000 0.12750600 12513.29554749 0 -227.73106030 0 3578.89457730 0 373.12945373 0 7.73265578 0 18007
0.12850000 0.12850300 12437.17245950 0 249.02026042 0 3775.29873505 0 -127.39687588 0 -29.79642205 0 17496
0.12950000 0.12949900 12430.14233305 0 388.56827049 0 3587.30875990 0 -318.88763432 0 311.29729467 0 18405
0.13050000 0.13049000 12218.90900231 0 -14.99844525 0 4081.77929465 0 -137.54222712 0 208.33560049 0 18100
0.13150000 0.13148800 12208.80319553 0 29.41954136 0 3921.21779722 0 330.21822094 0 -375.51859827 0 19059
0.13250000 0.13249300 12047.76936149 0 262.13364317 0 4345.43100574 0 -358.79678343 0 -344.78596110 0 18957
0.13350000 0.13349100 11559.17557307 0 295.91999151 0 4105.59384800 0 -528.79622561 0 -37.01669145 0 19468
0.13450000 0.13450700 11642.76817042 0 162.23884165 0 4773.19223121 0 740.05921469 0 255.25510382 0 19953
0.13550000 0.13551000 11425.16378758 0 -147.57224034 0 4486.61571713 0 296.92947373 0 201.99860057 0 19956
0.13650000 0.13649900 11309.49623830 0 107.32125134 0 3748.45243967 0 493.76422673 0 1038.31232942 0 19723
0.13750000 0.13749600 11257.42936426 0 26.48435372 0 3768.81783723 0 354.36780376 0 817.47628533 0 20946
0.13850000 0.13851100 11075.41499659 0 160.69111538 0 3992.74933387 0 -69.91614541 0 831.79138032 0 20955
0.13950000 0.13949800 10993.68977659 0 318.20659082 0 3850.64191839 0 -141.19569596 0 707.49105545 0 20506
0.14050000 0.14048300 10641.43650305 0 142.72694538 0 3812.21788350 0 -150.38648784 0 1267.60869131 0 21447
0.14150000 0.14148400 10822.91262666 0 -152.27693278 0 3789.35898796 0 294.55900297 0 726.87553068 0 21771
0.14250000 0.14249400 10730.42252553 0 77.84085545 0 3593.40519768 0 311.54115218 0 -124.85834116 0 22470
0.14350000 0.14350900 10804.01916182 0 213.53020487 0 3489.45818734 0 -289.37867854 0 334.31217114 0 22519
0.14450000 0.14449900 10340.42626060 0 -22.56527792 0 3535.21991672 0 -100.93053686 0 199.12613484 0 22218
0.14550000 0.14550500 10257.44879932 0 90.38271089 0 3552.52061853 0 -26.85277629 0 -300.39950021 0 23559
0.14650000 0.14650700 10045.84199311 0 221.10516612 0 3650.60186711 0 120.49307202 0 -43.34896801 0 23044
0.14750000 0.14750500 10137.39840558 0 124.39589065 0 3220.14942137 0 547.11300039 0 -226.89733124 0 23649
0.14850000 0.14849900 10156.34679328 0 -66.72765352 0 3045.07730356 0 234.95451523 0 372.28034627 0 23640
0.14950000 0.14949500 9924.68215754 0 29.76621447 0 2748.01052267 0 423.91332969 0 606.82184157 0 24457
0.15050000 0.15050000 9677.25466015 0 179.21330166 0 2850.77119917 0 83.19858073 0 812.61780888 0 24591
0.15150000 0.15149900 9381.80261143 0 323.52422241 0 2800.75844021 0 -163.72175895 0 909.41276401 0 25020
0.15250000 0.15250500 9346.10275054 0 236.17599970 0 3119.14627648 0 34.82647752 0 871.42481665 0 25297
0.15350000 0.15350100 9087.73461885 0 21.09279596 0 2805.44885270 0 169.67979112 0 1222.28634484 0 25452
0.15450000 0.15450400 9066.06205715 0 13.03055907 0 3157.82295654 0 24.53832684 0 922.40092263 0 26061
0.15550000 0.15549900 8774.87202259 0 99.00395268 0 2560.09743953 0 157.19802130 0 1153.47898219 0 26128
0.15650000 0.15649500 8950.78995248 0 17.21853721 0 3010.95922113 0 11.43988311 0 863.65982229 0 26331
0.15750000 0.15749700 8798.26916219 0 88.74337327 0 2538.29306295 0 -42.40868859 0 634.05589237 0 27345
0.15850000 0.15849900 8742.72017864 0 86.37839480 0 2687.57340433 0 33.78096591 0 599.53467612 0 26980
0.15950000 0.15949700 8776.77235365 0 -44.37921107 0 2540.63277691 0 184.39142918 0 269.79977637 0 27777
0.16050000 0.16050000 8713.32546242 0 169.72812324 0 2574.86070507 0 -95.03632506 0 145.85315474 0 28224
0.16150000 0.16150500 8590.49597181 0 54.77358257 0 2483.89745953 0 -14.70790330 0 128.98854045 0 28075
0.16250000 0.16249700 8606.37966376 0 -121.47838818 0 2238.64490751 0 241.10807279 0 198.20672612 0 28590
0.16350000 0.16349900 8600.48094829 0 -55.42211173 0 2037.91282815 0 269.68553682 0 113.20480811 0 29163
0.16450000 0.16449100 8735.76694420 0 -5.15856399 0 1839.13600272 0 337.65148121 0 4.99509158 0 28996
0.16550000 0.16550500 8629.98551024 0 125.14613696 0 1860.30327409 0 -154.61664674 0 248.67424638 0 30777
0.16650000 0.16650700 8636.53231550 0 171.37031684 0 1984.35205225 0 -326.12756611 0 20.00444451 0 29211
0.16750000 0.16749900 8398.96896428 0 93.71521051 0 1979.91428492 0 -127.80220661 0 -97.80641457 0 30922
0.16850000 0.16850800 8225.16007233 0 124.87921185 0 2370.04236472 0 8.00475462 0 69.31627790 0 30867
0.16950000 0.16949900 8354.63522935 0 81.09272832 0 2278.26626081 0 20.60617940 0 -57.23138068 0 30852
0.17050000 0.17049200 8092.68612700 0 75.75334728 0 2274.16901523 0 110.24336734 0 64.49130439 0 31257
0.17150000 0.17149500 8092.59825042 0 154.65728966 0 2430.43554478 0 13.70654967 0 -35.03144965 0 32608
0.17250000 0.17250900 7868.02964856 0 195.23320232 0 2688.45217014 0 -378.86559753 0 99.78177026 0 32361
0.17350000 0.17350400 7675.33827634 0 129.99582576 0 2664.75844708 0 110.01488823 0 226.70180585 0 32508
0.17450000 0.17449800 7657.13683958 0 -42.70768866 0 2797.44109929 0 40.67905779 0 52.82876399 0 32791
0.17550000 0.17549800 7690.79356996 0 -65.73827307 0 2436.83955059 0 312.53745291 0 98.25689189 0 33633
0.17650000 0.17650100 7632.36662840 0 53.84044312 0 2338.42876483 0 210.33369424 0 157.88126171 0 33984
0.17750000 0.17750300 7645.65796123 0 37.49177421 0 2228.09971783 0 321.52832557 0 763.07079579 0 34069
0.17850000 0.17849800 7608.81570479 0 56.93128216 0 2190.73020191 0 42.04949307 0 394.81519692 0 34536
