### header ###
fiducial parameters:
Omega_m = 0.31
Omega_nu = 0
Omega_de = 0.69
Omega_k = 0
H_0 = 100
w_de = -1
zeff = 0
beta = 0
fgrowth = 0
b_1 = 2
gamma = 0.55
Lx = 3500 Ly = 3500 Lz = 3500
nx = 700 ny = 700 nz = 700
xoffset = -983.599254 yoffset = -42.9823471 zoffset = 800.977702
bins = 400 dk = 0.001
kx_ny = 0.628318531 ky_ny = 0.628318531 kz_ny = 0.628318531
############################
A(data) = 9.04498168 (not used)
A(ran) = 9.05699104 (used)
Ngal = 502688
weighted Ngal = 0
Nran = 25229228
weighted Nran = 0
SN(data) = 6708.32585
SN(ran) = 134.444792
SN(data+ran) = 6842.77065
############################
13 columns: k_central k_mean P_0(k) sigma^{lin}_{P_0(k)} P^img_1(k) sigma^{lin}_{P_1(k)} P_2(k) sigma^{lin}_{P_2(k)} P^img_3(k) sigma^{lin}_{P_3(k)} P_4(k) sigma^{lin}_{P_4(k)} N_modes
### header ###
0.00050000 0 0 0 0 0 0 0 0 0 0 0 0
0.00150000 0.00179520 33238.21817389 0 -37957.30040056 0 10168.04536308 0 -63488.30306847 0 -89230.75875857 0 3
0.00250000 0.00253879 75309.35085188 0 -54130.76537788 0 -14107.15702904 0 -47347.68196317 0 128.80290117 0 6
0.00350000 0.00331552 66620.88347722 0 -10848.93507911 0 -22382.27493747 0 7411.03847546 0 62174.98757064 0 7
0.00450000 0.00420575 63523.78323791 0 13068.56569148 0 -4336.01722704 0 -43129.38640048 0 14518.30958076 0 24
0.00550000 0.00557378 71350.62073929 0 16480.70347242 0 61408.81363310 0 12911.15676639 0 -19749.93196408 0 45
0.00650000 0.00659388 80629.06950730 0 16447.96944613 0 90543.08564487 0 12091.37811464 0 33447.47428156 0 40
0.00750000 0.00754703 57427.12576381 0 -497.23974550 0 58497.90189904 0 8224.03964593 0 22715.87640677 0 57
0.00850000 0.00846663 58094.76808530 0 2756.16107553 0 85087.70751807 0 39654.96609300 0 8004.20539486 0 75
0.00950000 0.00948925 67308.73741226 0 -3805.49532508 0 54354.30142991 0 56170.82019768 0 49323.47703338 0 112
0.01050000 0.01054430 72260.47288621 0 -15297.11577678 0 33692.32040440 0 44194.56040370 0 54673.62295485 0 105
0.01150000 0.01145670 72885.82460326 0 -5178.64378976 0 27698.14899249 0 5080.95798579 0 14159.55344025 0 144
0.01250000 0.01249090 91343.97083177 0 8427.61672958 0 20104.40412128 0 -5928.26397643 0 14307.73532438 0 169
0.01350000 0.01339930 76728.55762939 0 2822.29918704 0 27749.55679217 0 -1030.04753701 0 28251.44191341 0 180
0.01450000 0.01448870 88353.31110078 0 -4633.27074567 0 26621.33134234 0 13532.44419159 0 12570.30547919 0 267
0.01550000 0.01550050 83107.84815601 0 -3489.86461653 0 24329.40027324 0 -5108.59517041 0 -449.75453669 0 238
0.01650000 0.01653350 86719.68546648 0 7979.49010655 0 10283.99851125 0 -2165.39977753 0 -10964.92118100 0 315
0.01750000 0.01747870 73348.49480039 0 6209.24934306 0 27293.58718432 0 -7258.01239483 0 11169.44293789 0 297
0.01850000 0.01844180 70032.25233808 0 2684.66249260 0 33582.25498713 0 -533.81178145 0 6376.88490522 0 388
0.01950000 0.01947590 69131.95676931 0 -36.93342839 0 29549.37900962 0 15393.01109541 0 -1402.46628890 0 399
0.02050000 0.02045430 71180.57955573 0 -1056.44895721 0 20790.93990761 0 -1180.38020045 0 2145.28702514 0 462
0.02150000 0.02154770 71574.81586568 0 -874.87287398 0 13698.09154611 0 12862.60495558 0 -5057.14343243 0 571
0.02250000 0.02255340 73167.46904425 0 2515.62090514 0 20228.63963717 0 -2934.29788908 0 -5291.35648901 0 510
0.02350000 0.02348930 69018.81567172 0 3799.24510328 0 16108.87569054 0 -7568.86481431 0 -3422.66100148 0 555
0.02450000 0.02439640 67237.55738193 0 2487.51138391 0 20517.20435888 0 438.57883254 0 4977.69201895 0 592
0.02550000 0.02547300 66728.31259706 0 -2677.56645871 0 15823.93587778 0 11451.30707032 0 881.30214432 0 837
0.02650000 0.02652900 71205.95391840 0 -5138.25351637 0 11430.54622815 0 7197.31164675 0 685.82178912 0 723
0.02750000 0.02749970 67168.79395757 0 2900.49835925 0 5913.86320177 0 3485.04238917 0 6197.62766526 0 826
0.02850000 0.02848090 63763.68630308 0 7011.58449354 0 13384.81153609 0 -9941.26886214 0 10088.76970276 0 831
0.02950000 0.02946900 57002.02280491 0 5433.92525655 0 16995.44054358 0 -3774.33209267 0 14219.85874373 0 996
0.03050000 0.03053250 53646.56541849 0 2287.53724006 0 19922.60944506 0 6799.79094960 0 11318.83312499 0 1041
0.03150000 0.03150510 53239.25746717 0 -1687.49397824 0 24051.27089548 0 -815.53860673 0 14427.46716551 0 1036
0.03250000 0.03246190 47488.28449221 0 4610.51071128 0 19460.81801374 0 4045.69497372 0 9429.75027074 0 1059
0.03350000 0.03345080 48931.54748367 0 1561.24828556 0 22999.93745372 0 -928.12168803 0 17808.62845178 0 1302
0.03450000 0.03451200 45675.39063339 0 -362.77429716 0 19190.04829961 0 3777.90207876 0 16399.63732677 0 1339
0.03550000 0.03553350 47429.29733745 0 -1025.60647432 0 22763.00022314 0 6324.85098490 0 12856.78313211 0 1365
0.03650000 0.03647120 46061.49835962 0 1344.72039084 0 15667.51556422 0 3946.24065357 0 15418.60514953 0 1308
0.03750000 0.03744890 48646.82736237 0 -284.62894936 0 17780.50794597 0 414.55776922 0 10928.18877028 0 1579
0.03850000 0.03847530 45692.63641234 0 262.85752650 0 16795.63116833 0 -2180.17402765 0 10946.50005278 0 1662
0.03950000 0.03950240 44346.03765959 0 2638.88977865 0 16463.23800201 0 887.82807889 0 10891.89574247 0 1683
0.04050000 0.04050350 43360.06242469 0 -61.20614827 0 17577.84258184 0 2040.05481981 0 12614.02407806 0 1822
0.04150000 0.04152450 44048.24589691 0 784.45226632 0 17685.71108459 0 -40.26395080 0 1470.20814800 0 1887
0.04250000 0.04250150 42143.63085703 0 1983.01193439 0 19315.38227276 0 -415.23881272 0 2262.16287740 0 1920
0.04350000 0.04349210 43819.32740432 0 281.67739470 0 16170.38929700 0 -1199.96569336 0 1415.92239031 0 2005
0.04450000 0.04448520 39825.88604237 0 -1485.66344163 0 15841.51119391 0 2931.61765337 0 5069.08366283 0 2151
0.04550000 0.04548030 41682.49850007 0 -394.04078455 0 15563.93104478 0 3739.65379703 0 1090.92623517 0 2274
0.04650000 0.04648670 40844.26576639 0 794.43175051 0 11866.74360535 0 -1860.45705810 0 -2298.12636803 0 2311
0.04750000 0.04749250 39544.46129284 0 1827.38251006 0 14552.14206431 0 -964.98261824 0 -83.44496469 0 2568
0.04850000 0.04851840 40434.98059201 0 1655.73757890 0 14647.81769150 0 -959.87698891 0 -3680.32612052 0 2493
0.04950000 0.04949480 37225.28848374 0 135.87367054 0 15728.26025060 0 -658.71076553 0 -1316.29231699 0 2644
0.05050000 0.05050630 36174.39442488 0 1149.10712231 0 15806.47040738 0 361.74504271 0 -5742.67962266 0 2829
0.05150000 0.05149060 36077.18095753 0 994.08075101 0 16496.08187403 0 -781.59847437 0 -4840.36289254 0 2784
0.05250000 0.05249300 34524.62146889 0 112.21509812 0 14672.09359690 0 2493.32222280 0 -3891.61437412 0 3055
0.05350000 0.05348950 33891.14116812 0 -807.14199945 0 13684.58052184 0 2824.78170045 0 -3876.98292344 0 3009
0.05450000 0.05448610 35036.17301400 0 346.50394825 0 11291.48153927 0 1185.13652037 0 -3954.90748133 0 3336
0.05550000 0.05550870 35303.20797345 0 248.74015382 0 10733.99251162 0 2214.84133872 0 -3923.00828256 0 3349
0.05650000 0.05647670 33999.77859095 0 -44.52102190 0 11039.05606135 0 -1809.59848705 0 -2450.88881892 0 3324
0.05750000 0.05747970 33604.55366947 0 808.09326343 0 10613.60159613 0 -31.95708747 0 -2047.52432916 0 3639
0.05850000 0.05849280 33041.48447895 0 181.44756373 0 10850.40701183 0 -640.94102246 0 -2343.41576079 0 3846
0.05950000 0.05951020 32851.78091047 0 -327.15901748 0 11114.41022925 0 674.64388806 0 -5513.84900665 0 3787
0.06050000 0.06049470 33798.21168408 0 1337.36072721 0 14736.13365505 0 -1010.47742250 0 -5553.48134452 0 3930
0.06150000 0.06148310 31562.63147233 0 1234.31445182 0 11884.31892148 0 -1746.71180902 0 -2255.82477902 0 4083
0.06250000 0.06249100 32568.37893788 0 -1699.40125491 0 12978.05281341 0 3285.73830425 0 -1920.42183982 0 4303
0.06350000 0.06350600 33011.60644153 0 -739.99660263 0 11516.11604855 0 4415.99590001 0 -2534.59126199 0 4470
0.06450000 0.06451750 33375.08594825 0 1203.77734004 0 9899.06613428 0 -851.65917675 0 -216.35543693 0 4479
0.06550000 0.06550280 32081.87221825 0 1818.55091370 0 12098.62793254 0 -968.34938974 0 2748.63664331 0 4636
0.06650000 0.06648880 30146.93975804 0 13.22202017 0 11180.09797329 0 465.27573774 0 1751.40222151 0 4653
0.06750000 0.06749660 30266.56175346 0 -402.98002972 0 10933.46136512 0 3008.42178486 0 3580.97066152 0 5220
0.06850000 0.06852730 30481.85937605 0 29.58090473 0 8697.22207901 0 389.02962254 0 1984.75848143 0 5029
0.06950000 0.06949320 29592.65822559 0 1172.80084536 0 8578.68755629 0 256.20526934 0 2747.38440204 0 5040
0.07050000 0.07048030 29031.89579531 0 527.72193441 0 9009.91990669 0 679.26619620 0 3510.75727358 0 5475
0.07150000 0.07148790 28429.50183495 0 -28.32646654 0 9359.59180567 0 516.12771805 0 3713.98285091 0 5509
0.07250000 0.07249820 28415.99081068 0 999.06774696 0 9290.90527332 0 -330.99043639 0 1396.04031394 0 5916
0.07350000 0.07351270 27126.95121826 0 74.63665563 0 9361.18456869 0 -1415.10953194 0 1450.73250082 0 5721
0.07450000 0.07449140 26655.71305452 0 375.35163276 0 10644.28150735 0 -1858.05143671 0 -678.11830836 0 6028
0.07550000 0.07549160 26020.03583923 0 1149.33779833 0 11044.76803909 0 356.98982124 0 211.43434842 0 6183
0.07650000 0.07648840 25590.53905130 0 131.58309649 0 12466.17173111 0 83.94344459 0 1176.00834056 0 6330
0.07750000 0.07749960 25114.68736708 0 176.87468616 0 10530.25065938 0 610.12160717 0 -2553.40783482 0 6583
0.07850000 0.07848650 25413.24804984 0 214.92634404 0 11230.62700717 0 1418.40490371 0 -1030.94717351 0 6549
0.07950000 0.07947320 24592.15124939 0 -222.22778944 0 9846.43904705 0 1151.04040708 0 2098.49274594 0 6828
0.08050000 0.08048110 24314.57110025 0 418.71982377 0 9192.00018179 0 1479.65488042 0 1337.00922088 0 7147
0.08150000 0.08149960 24253.71656815 0 859.55269061 0 8303.23841424 0 -451.81524250 0 1080.39532544 0 7386
0.08250000 0.08250610 23441.62711722 0 345.21326097 0 9526.84290779 0 55.95749980 0 515.51477890 0 7227
0.08350000 0.08350160 22685.44914072 0 252.37934271 0 9035.79955969 0 -538.50768623 0 1634.40553895 0 7798
0.08450000 0.08449610 22367.88514739 0 -20.97954502 0 8788.74553776 0 293.14419002 0 -224.89264674 0 7371
0.08550000 0.08548940 22574.83449482 0 86.16232825 0 8957.75417150 0 586.66954471 0 613.33349619 0 8256
0.08650000 0.08650700 22053.94606301 0 239.02429937 0 7749.56103327 0 627.06091655 0 -1552.07616745 0 8037
0.08750000 0.08749060 22146.10662697 0 153.68405653 0 7850.43236329 0 533.15819938 0 625.43080598 0 8155
0.08850000 0.08849210 22024.28771704 0 511.58669575 0 8166.40359359 0 0.76340143 0 -638.59691467 0 8718
0.08950000 0.08949900 20800.71617721 0 96.89227844 0 7653.00664028 0 -36.96704118 0 1680.80437353 0 8571
0.09050000 0.09049190 20518.52250759 0 331.26395225 0 7034.49831195 0 1472.63573855 0 164.37424256 0 8932
0.09150000 0.09150830 20917.59202947 0 447.20501739 0 7906.14611542 0 20.04464805 0 634.10971677 0 9285
0.09250000 0.09250820 19667.10828681 0 301.76268567 0 7274.96159033 0 315.23855931 0 968.10223685 0 9204
0.09350000 0.09350330 19882.84529231 0 319.34678946 0 7611.00163473 0 -6.25642808 0 917.49301560 0 9349
0.09450000 0.09448040 18883.02949596 0 256.10201436 0 7260.71459969 0 -315.12431976 0 1741.54905991 0 9564
0.09550000 0.09549270 18527.67857295 0 511.85911315 0 7759.31533373 0 614.13097616 0 1154.31380971 0 10155
0.09650000 0.09649430 17787.64791815 0 258.23851373 0 7025.01862581 0 181.53983414 0 2555.68164135 0 9913
0.09750000 0.09749140 18131.68473139 0 98.34762446 0 7035.99221382 0 1095.82205917 0 1146.30605630 0 10476
0.09850000 0.09850240 17498.64381353 0 357.33473681 0 6463.14675370 0 886.13865162 0 2005.73901506 0 10575
0.09950000 0.09950330 17007.30388197 0 258.85694517 0 5957.24127889 0 13.32944929 0 2094.81291413 0 10882
0.10050000 0.10051200 17014.00447124 0 -47.47499316 0 6247.31088705 0 -149.54836495 0 1668.27097622 0 10875
0.10150000 0.10150300 16854.94786026 0 164.45772532 0 5629.35178734 0 495.53164446 0 1321.18045179 0 11118
0.10250000 0.10250800 16579.78431710 0 -100.54750481 0 5065.87616764 0 -24.94925970 0 661.94022987 0 11575
0.10350000 0.10349800 16349.98705870 0 500.77787633 0 5601.13242038 0 -487.00322231 0 65.75518931 0 11364
0.10450000 0.10450100 15890.28269617 0 237.41396103 0 5520.64845708 0 -169.59960374 0 187.46930642 0 12093
0.10550000 0.10551000 15854.91237246 0 220.07591167 0 5482.65282052 0 521.60023211 0 159.47292628 0 12067
0.10650000 0.10649700 15486.05042518 0 -10.43690376 0 5720.57866263 0 115.42588868 0 -946.12320558 0 12054
0.10750000 0.10749900 15829.20847262 0 345.94483351 0 5017.03875794 0 652.89223743 0 -3.27776350 0 12807
0.10850000 0.10850100 15110.04850572 0 206.33860520 0 5664.20583614 0 -259.32708487 0 965.53404378 0 12736
0.10950000 0.10950300 14789.51867779 0 -119.44514379 0 4858.21282299 0 417.24130030 0 1372.35757545 0 12933
0.11050000 0.11050200 14947.25714006 0 99.63040285 0 4957.18382194 0 835.25481606 0 404.40253187 0 13428
0.11150000 0.11150900 14633.64759287 0 425.55552329 0 5274.59403125 0 -751.42824732 0 901.99817752 0 13453
0.11250000 0.11250000 14118.47113880 0 414.22823204 0 5540.10213512 0 -229.72146485 0 2048.24931095 0 13668
0.11350000 0.11349100 14104.85026880 0 114.48780619 0 5248.11022676 0 479.55678056 0 1133.36622980 0 13791
0.11450000 0.11448600 14136.15630066 0 -139.41180137 0 5236.34574953 0 219.80239581 0 900.67673344 0 14205
0.11550000 0.11549300 13986.43657637 0 79.20909381 0 5233.06136232 0 350.14203869 0 593.98417159 0 14776
0.11650000 0.11649800 13631.63488200 0 240.98175020 0 5229.42546880 0 -286.07671602 0 1185.19144324 0 14553
0.11750000 0.11747300 13802.44498564 0 137.09515502 0 5470.43797581 0 117.38443798 0 911.37351022 0 14568
0.11850000 0.11849100 13678.86854410 0 -270.60824091 0 5061.14181685 0 329.13843746 0 692.73767601 0 16015
0.11950000 0.11950300 13946.12319500 0 7.91883330 0 4838.38566948 0 -9.56624457 0 145.58622962 0 15270
0.12050000 0.12050700 13838.03500080 0 291.66127272 0 5015.87439325 0 -308.95758071 0 222.28051538 0 15999
0.12150000 0.12150000 13483.01361497 0 352.95079390 0 5623.68374789 0 91.35495540 0 702.33270016 0 15670
0.12250000 0.12250700 13329.55913601 0 -143.40249659 0 4766.38179621 0 72.85935178 0 214.72642482 0 16887
0.12350000 0.12352200 13521.02023610 0 -72.96864828 0 5168.30730696 0 652.52535271 0 240.46547529 0 16407
0.12450000 0.12449800 13592.96918651 0 300.05678155 0 4577.67782383 0 33.42220976 0 -34.40093518 0 16306
0.12550000 0.12549900 13086.36069906 0 108.42904549 0 4818.73426913 0 -86.41870818 0 500.98658320 0 17523
0.12650000 0.12650100 13151.38936874 0 133.86019839 0 4662.06131040 0 70.74844647 0 433.53691373 0 17154
0.12750000 0.12750600 12595.24045895 0 48.02202487 0 4646.21057217 0 204.80955269 0 543.40900251 0 18007
0.12850000 0.12850300 12561.07843822 0 134.29079364 0 4321.85811298 0 717.89564260 0 1060.21996098 0 17496
0.12950000 0.12949900 12731.88854186 0 291.52835939 0 4413.33763344 0 47.02122047 0 1089.77175659 0 18405
0.13050000 0.13049000 12107.41559061 0 94.63088449 0 3855.00279370 0 417.89817774 0 1188.54173787 0 18100
0.13150000 0.13148800 12305.68712570 0 -68.68466497 0 3973.92177647 0 467.06622307 0 1545.05702557 0 19059
0.13250000 0.13249300 12019.86854713 0 80.70178738 0 3686.62028061 0 84.48091973 0 1476.51329267 0 18957
0.13350000 0.13349100 11993.61541867 0 43.60853346 0 3300.05120232 0 97.69942484 0 1560.74299522 0 19468
0.13450000 0.13450700 11929.79505197 0 149.40556551 0 3646.29591466 0 277.09902485 0 1215.35507954 0 19953
0.13550000 0.13551000 12001.74400238 0 144.43065259 0 2909.59358535 0 -176.29689764 0 1041.93943529 0 19956
0.13650000 0.13649900 11773.26489268 0 53.56341220 0 3388.91639451 0 35.26399305 0 988.31604732 0 19723
0.13750000 0.13749600 11655.07089171 0 147.30201986 0 3656.39073686 0 99.11127195 0 759.27013368 0 20946
0.13850000 0.13851100 11401.43711081 0 237.89508531 0 3395.58403006 0 -461.95070762 0 756.71182673 0 20955
0.13950000 0.13949800 11129.67878514 0 57.79016589 0 3456.55939246 0 206.52314602 0 938.59218261 0 20506
0.14050000 0.14048300 11239.08512805 0 -70.38804264 0 3397.86882116 0 418.12336148 0 658.35925921 0 21447
0.14150000 0.14148400 11007.75002949 0 122.40219073 0 3432.19561048 0 156.52796237 0 929.88690884 0 21771
0.14250000 0.14249400 11026.42380288 0 219.49372932 0 3475.35399615 0 -263.57591755 0 1036.47461043 0 22470
0.14350000 0.14350900 10877.65973641 0 116.72975745 0 3773.10182054 0 67.87279521 0 1042.77755818 0 22519
0.14450000 0.14449900 10712.16616590 0 112.62262576 0 3674.08688329 0 40.62611215 0 1056.35998217 0 22218
0.14550000 0.14550500 10648.18103061 0 96.35458361 0 3982.74238825 0 -17.99525634 0 1163.76054213 0 23559
0.14650000 0.14650700 10703.60918386 0 102.10248091 0 3619.74620273 0 201.35160925 0 1043.71893605 0 23044
0.14750000 0.14750500 10507.20502610 0 84.05867276 0 3756.57003880 0 85.03860648 0 1105.71806061 0 23649
0.14850000 0.14849900 10192.21142276 0 -31.00175920 0 3605.16967491 0 102.99234113 0 932.25298578 0 23640
0.14950000 0.14949500 10373.39096292 0 209.97999101 0 3361.97123796 0 -102.87799173 0 526.60370492 0 24457
0.15050000 0.15050000 10140.55097791 0 168.83068366 0 3352.65632041 0 -104.56983560 0 172.96637524 0 24591
0.15150000 0.15149900 9867.76010243 0 96.93918257 0 3174.03618567 0 52.33511730 0 194.75317650 0 25020
0.15250000 0.15250500 9819.18632247 0 -0.69560026 0 3263.16500759 0 252.81652870 0 -324.10091247 0 25297
0.15350000 0.15350100 9578.73402867 0 205.62131261 0 2792.99234740 0 166.93364798 0 45.03048638 0 25452
0.15450000 0.15450400 9286.56636715 0 200.09717106 0 2875.59633321 0 -109.57177057 0 -200.38936069 0 26061
0.15550000 0.15549900 9268.48576068 0 194.35333805 0 2918.69979602 0 269.91621284 0 -222.25525087 0 26128
0.15650000 0.15649500 9079.15566767 0 101.44736100 0 2791.76207527 0 152.43840600 0 156.05013346 0 26331
0.15750000 0.15749700 8963.86159385 0 2.61303209 0 2716.78138283 0 51.05277829 0 365.97190624 0 27345
0.15850000 0.15849900 8861.54030026 0 -101.69088897 0 2755.34821716 0 169.42494904 0 394.09900279 0 26980
0.15950000 0.15949700 8974.06626178 0 30.23141112 0 2497.11190034 0 265.90245002 0 455.88942047 0 27777
0.16050000 0.16050000 8951.09752051 0 235.02701341 0 2831.69099660 0 -227.11262886 0 520.32602169 0 28224
0.16150000 0.16150500 8797.12676664 0 96.22496566 0 2688.01278724 0 -46.79647611 0 789.12620196 0 28075
0.16250000 0.16249700 8807.56211059 0 31.19805351 0 2868.90672850 0 85.43965322 0 503.06376588 0 28590
0.16350000 0.16349900 8731.65871405 0 11.84631230 0 2964.60432483 0 84.17741599 0 452.84449695 0 29163
0.16450000 0.16449100 8682.04139970 0 37.43871873 0 2834.26138658 0 101.68539669 0 649.77591419 0 28996
0.16550000 0.16550500 8609.80685041 0 -21.50471743 0 2571.25776527 0 408.81723159 0 996.47209246 0 30777
0.16650000 0.16650700 8822.38029900 0 -57.07737697 0 2384.78366113 0 350.65391977 0 824.20872987 0 29211
0.16750000 0.16749900 8637.98227908 0 190.03749949 0 2141.36553272 0 59.55890176 0 969.45443774 0 30922
0.16850000 0.16850800 8392.93843394 0 216.66190651 0 2214.02848035 0 -66.37087461 0 1078.78279018 0 30867
0.16950000 0.16949900 8238.78094233 0 0.57014216 0 2272.56526764 0 -11.52622186 0 776.89707730 0 30852
0.17050000 0.17049200 8157.80267326 0 51.89727223 0 1948.59726849 0 170.86173113 0 485.86741750 0 31257
0.17150000 0.17149500 7950.19425147 0 195.74398494 0 2022.47950368 0 -9.07881515 0 785.11243914 0 32608
0.17250000 0.17250900 7775.11114910 0 177.50410217 0 1854.81098780 0 -25.24474471 0 623.36241096 0 32361
0.17350000 0.17350400 7761.96261572 0 -20.87508173 0 1757.21306041 0 358.61443952 0 433.69509157 0 32508
0.17450000 0.17449800 7829.05638505 0 -17.23841929 0 1403.34505470 0 216.08521645 0 423.95177569 0 32791
0.17550000 0.17549800 7687.91561195 0 -70.91618089 0 1311.34925933 0 79.79863582 0 514.91172587 0 33633
0.17650000 0.17650100 7751.96665467 0 42.35728079 0 1099.84131428 0 147.41296404 0 553.95968448 0 33984
0.17750000 0.17750300 7701.56943567 0 79.20744612 0 1359.70334784 0 -22.43302366 0 370.38880287 0 34069
0.17850000 0.17849800 7703.77733476 0 78.91690418 0 1057.40900886 0 -134.02716389 0 699.86666362 0 34536
