### header ###
fiducial parameters:
Omega_m = 0.31
Omega_nu = 0
Omega_de = 0.69
Omega_k = 0
H_0 = 100
w_de = -1
zeff = 0
beta = 0
fgrowth = 0
b_1 = 2
gamma = 0.55
Lx = 3500 Ly = 3500 Lz = 3500
nx = 700 ny = 700 nz = 700
xoffset = -983.599254 yoffset = -42.9823471 zoffset = 800.977702
bins = 400 dk = 0.001
kx_ny = 0.628318531 ky_ny = 0.628318531 kz_ny = 0.628318531
############################
A(data) = 9.08909277 (not used)
A(ran) = 9.09578622 (used)
Ngal = 505224
weighted Ngal = 0
Nran = 25229228
weighted Nran = 0
SN(data) = 6721.33162
SN(ran) = 135.02068
SN(data+ran) = 6856.3523
############################
13 columns: k_central k_mean P_0(k) sigma^{lin}_{P_0(k)} P^img_1(k) sigma^{lin}_{P_1(k)} P_2(k) sigma^{lin}_{P_2(k)} P^img_3(k) sigma^{lin}_{P_3(k)} P_4(k) sigma^{lin}_{P_4(k)} N_modes
### header ###
0.00050000 0 0 0 0 0 0 0 0 0 0 0 0
0.00150000 0.00179520 2156.15076742 0 -10379.31164754 0 12311.72864062 0 -53639.31560059 0 -13900.64706451 0 3
0.00250000 0.00253879 27276.12171391 0 -19327.13576542 0 -35239.27776103 0 23174.48231204 0 5921.38763399 0 6
0.00350000 0.00331552 51777.54039377 0 -19166.54131428 0 -2674.01844177 0 -64771.74052887 0 -36872.46401242 0 7
0.00450000 0.00420575 55956.18164944 0 6549.66124735 0 -15049.63335652 0 -24320.61261517 0 27423.64452368 0 24
0.00550000 0.00557378 48331.78982073 0 2273.12548084 0 1978.89271967 0 -10796.29700730 0 7652.19378191 0 45
0.00650000 0.00659388 38000.14023362 0 -5241.03616202 0 -6099.37066352 0 -29506.64902228 0 -34445.42270058 0 40
0.00750000 0.00754703 50389.31011094 0 8794.11699375 0 15840.08319947 0 9198.55797162 0 -20600.02803615 0 57
0.00850000 0.00846663 54832.67956582 0 -5652.15576002 0 3925.35898109 0 6720.86679560 0 -14827.74499038 0 75
0.00950000 0.00948925 61384.31803624 0 -12114.00633416 0 -3221.89596841 0 -4153.15704728 0 6769.10005381 0 112
0.01050000 0.01054430 60598.81125095 0 -3321.63588744 0 -11555.55066412 0 19699.07339303 0 -4771.87408250 0 105
0.01150000 0.01145670 71048.21545613 0 -434.37174124 0 5226.51455707 0 -10635.82338646 0 -5726.04897978 0 144
0.01250000 0.01249090 73628.49155549 0 5263.96096500 0 -664.50952139 0 -4157.91336721 0 -4754.45255038 0 169
0.01350000 0.01339930 64932.55467147 0 2873.48729527 0 5471.94286225 0 -10359.48449403 0 -7690.62880138 0 180
0.01450000 0.01448870 70539.30020843 0 -346.85106074 0 15021.29315926 0 3850.71881040 0 -714.68704895 0 267
0.01550000 0.01550050 63935.48501826 0 -8913.39846741 0 13300.23032722 0 7740.52073004 0 14334.31799002 0 238
0.01650000 0.01653350 80824.48505352 0 -5377.90393638 0 13501.79723408 0 -7947.54696948 0 -18437.82476924 0 315
0.01750000 0.01747870 73566.86810330 0 4485.52824445 0 19271.88336534 0 -6317.93070418 0 4813.25296741 0 297
0.01850000 0.01844180 82705.15372518 0 9797.25013103 0 25496.29141856 0 -5219.78101407 0 -4737.22874058 0 388
0.01950000 0.01947590 80823.82597917 0 -1840.81664233 0 29929.22552948 0 7188.45808125 0 4416.76482009 0 399
0.02050000 0.02045430 77764.18313236 0 -2255.27555039 0 33762.29213174 0 8667.92622394 0 -2634.82548680 0 462
0.02150000 0.02154770 75959.30801152 0 640.69386958 0 26376.81475668 0 1928.01217948 0 12606.00534008 0 571
0.02250000 0.02255340 69087.57909608 0 6885.96492150 0 29489.84262623 0 -2753.56871640 0 20003.89528216 0 510
0.02350000 0.02348930 63992.27525850 0 9056.28578755 0 38262.45182687 0 6726.37006647 0 15173.75902669 0 555
0.02450000 0.02439640 64063.23559738 0 1547.41870868 0 32431.40131779 0 5395.99552742 0 20511.60222687 0 592
0.02550000 0.02547300 59755.30592243 0 854.87216423 0 37351.83075987 0 -385.23555117 0 5267.39913621 0 837
0.02650000 0.02652900 54641.10862000 0 2998.64551526 0 37519.78487464 0 5053.80412237 0 19084.37671137 0 723
0.02750000 0.02749970 54214.57766667 0 -267.62263409 0 30090.58890070 0 1491.13375877 0 10822.95656495 0 826
0.02850000 0.02848090 55188.36002601 0 367.60201681 0 32660.97888474 0 5303.17588911 0 7033.42182383 0 831
0.02950000 0.02946900 56767.94156320 0 -256.45242223 0 27558.09569207 0 5830.80884848 0 -802.78441951 0 996
0.03050000 0.03053250 55008.54257285 0 -716.64999207 0 26162.28605416 0 3082.32598919 0 9387.70132690 0 1041
0.03150000 0.03150510 52163.42842856 0 -1159.09209878 0 21309.85111635 0 2150.21909823 0 10818.40895191 0 1036
0.03250000 0.03246190 54416.47411072 0 2048.91936988 0 21249.32612143 0 6818.08026295 0 2166.31149706 0 1059
0.03350000 0.03345080 53547.59441953 0 549.91296794 0 20686.36677664 0 678.84658553 0 8114.44656528 0 1302
0.03450000 0.03451200 51853.77332749 0 1671.32468740 0 21721.55289670 0 -3213.65753897 0 5999.16939244 0 1339
0.03550000 0.03553350 49647.30223307 0 2783.93007502 0 20608.59600276 0 1203.84324748 0 6130.29223534 0 1365
0.03650000 0.03647120 49295.02699039 0 262.70813631 0 22788.26474008 0 -80.13772958 0 -2008.66091137 0 1308
0.03750000 0.03744890 50457.96368958 0 504.86743270 0 24233.39510888 0 2177.47182280 0 -723.93825597 0 1579
0.03850000 0.03847530 45521.49677152 0 -521.91329243 0 22553.96380692 0 -129.75855899 0 1297.25605271 0 1662
0.03950000 0.03950240 46989.69474274 0 1629.38558928 0 18924.11179741 0 527.58352880 0 -3016.14393939 0 1683
0.04050000 0.04050350 46089.39917398 0 1917.93932642 0 22349.87044836 0 714.71011655 0 1042.79293658 0 1822
0.04150000 0.04152450 45900.02514267 0 -1133.81659727 0 19147.86754089 0 3974.76758856 0 -2652.55458694 0 1887
0.04250000 0.04250150 45070.03083843 0 -961.75754773 0 16966.44127197 0 3676.74514985 0 109.66415083 0 1920
0.04350000 0.04349210 44094.71063893 0 2342.58093327 0 15696.40499011 0 -4430.69325812 0 -5203.27120148 0 2005
0.04450000 0.04448520 41451.60278441 0 3041.97965410 0 17194.26130730 0 -1041.75709138 0 -32.34594134 0 2151
0.04550000 0.04548030 40435.52982063 0 499.52893042 0 17744.91793081 0 158.58976664 0 -5603.63690293 0 2274
0.04650000 0.04648670 37705.86353417 0 262.63563813 0 17147.90641101 0 6076.13829252 0 717.08278423 0 2311
0.04750000 0.04749250 39202.40170265 0 -945.87715115 0 14976.91548603 0 3071.55012349 0 -1737.56166006 0 2568
0.04850000 0.04851840 40047.00548843 0 344.99137260 0 13614.93833167 0 1732.60761783 0 122.81960449 0 2493
0.04950000 0.04949480 38293.53816727 0 1147.14088381 0 11014.01123586 0 966.71927917 0 6521.81535586 0 2644
0.05050000 0.05050630 37087.43209784 0 -558.80717636 0 11685.60800348 0 429.14967544 0 2177.20819306 0 2829
0.05150000 0.05149060 38693.37660923 0 1451.66618949 0 13716.10624515 0 561.68842975 0 3684.52222724 0 2784
0.05250000 0.05249300 37341.61510737 0 496.35109358 0 11555.99004702 0 211.64195684 0 4165.28401541 0 3055
0.05350000 0.05348950 35190.50625877 0 -420.75196970 0 13475.87364279 0 -350.98565386 0 4079.07708979 0 3009
0.05450000 0.05448610 37150.26385301 0 992.67472572 0 11970.65766197 0 2051.77535875 0 5063.02017877 0 3336
0.05550000 0.05550870 35547.17533048 0 -91.37297010 0 11608.82584114 0 1996.76461926 0 1370.74284328 0 3349
0.05650000 0.05647670 36152.42527972 0 -17.44097481 0 10496.22045352 0 235.29503698 0 3626.88617491 0 3324
0.05750000 0.05747970 34928.19466553 0 711.06323845 0 11988.45266955 0 38.25761861 0 5382.67124088 0 3639
0.05850000 0.05849280 34855.58664076 0 1127.66523663 0 9996.23566334 0 -1483.27978938 0 3180.41822234 0 3846
0.05950000 0.05951020 32720.73495958 0 505.71434324 0 13300.45001867 0 219.48164629 0 1602.86883107 0 3787
0.06050000 0.06049470 31796.60286831 0 1129.90608943 0 13673.92548643 0 -118.52024278 0 2287.75693152 0 3930
0.06150000 0.06148310 30798.87414075 0 1455.13731442 0 14646.93892569 0 -1831.41384820 0 1061.55678346 0 4083
0.06250000 0.06249100 29681.08403487 0 262.56533687 0 14723.17185940 0 -343.83909094 0 3795.49936403 0 4303
0.06350000 0.06350600 29536.85659688 0 -426.21349919 0 13599.34023861 0 3407.16176956 0 401.69263781 0 4470
0.06450000 0.06451750 30222.95300031 0 -41.29891723 0 12995.73797526 0 1944.92842125 0 2550.01360190 0 4479
0.06550000 0.06550280 30371.13488443 0 1.94479661 0 11461.08333992 0 701.31113491 0 -509.14482526 0 4636
0.06650000 0.06648880 29724.47309657 0 830.82363948 0 11558.29680727 0 221.69723458 0 3051.86576942 0 4653
0.06750000 0.06749660 28987.07873918 0 -88.96482226 0 10055.91484617 0 243.79709616 0 3362.77311176 0 5220
0.06850000 0.06852730 28949.51150095 0 -17.97877948 0 9729.47531820 0 868.88847884 0 -281.81909569 0 5029
0.06950000 0.06949320 28222.44264179 0 759.15040184 0 9171.36016991 0 569.75330294 0 -413.13746399 0 5040
0.07050000 0.07048030 28211.67776066 0 550.29523106 0 10823.72548503 0 -349.17539630 0 -469.23677462 0 5475
0.07150000 0.07148790 26884.85123856 0 502.35745786 0 9323.85899106 0 -544.27458683 0 1839.97083024 0 5509
0.07250000 0.07249820 26398.23467321 0 -137.73775251 0 9432.18884586 0 2200.94585441 0 588.82801322 0 5916
0.07350000 0.07351270 27137.93579084 0 -240.89826745 0 7716.59633096 0 1332.95591360 0 1366.09636908 0 5721
0.07450000 0.07449140 26668.01577581 0 564.90690951 0 7791.08271763 0 402.71639998 0 1288.01802717 0 6028
0.07550000 0.07549160 26084.62512601 0 650.96554340 0 8270.21878906 0 -427.50198955 0 1518.05694617 0 6183
0.07650000 0.07648840 25608.22421316 0 183.69610574 0 8246.37128198 0 1502.75543656 0 4302.60215725 0 6330
0.07750000 0.07749960 25651.50342913 0 -223.33393589 0 8301.99715754 0 -459.43963433 0 2474.38481967 0 6583
0.07850000 0.07848650 25279.23626435 0 228.86576665 0 8203.13600430 0 275.89731261 0 3328.83078249 0 6549
0.07950000 0.07947320 25876.02809269 0 145.41377183 0 7604.59762892 0 967.78917654 0 1487.36605038 0 6828
0.08050000 0.08048110 25951.93148923 0 -131.74676663 0 6982.40946877 0 -319.89052580 0 1512.12527698 0 7147
0.08150000 0.08149960 25009.89454465 0 415.09381636 0 7649.97489825 0 -553.99153974 0 1167.26462078 0 7386
0.08250000 0.08250610 23988.21944886 0 1043.85624320 0 9021.33287760 0 -1756.02672657 0 863.64773926 0 7227
0.08350000 0.08350160 23540.48827045 0 458.39939531 0 8049.05540471 0 284.32687361 0 23.02256567 0 7798
0.08450000 0.08449610 23281.58189471 0 5.08092503 0 9146.68881990 0 1221.80302365 0 -1329.66054183 0 7371
0.08550000 0.08548940 23037.83422913 0 -141.12209932 0 7279.78381769 0 1005.22459989 0 -1169.12101355 0 8256
0.08650000 0.08650700 23265.32472728 0 632.14457674 0 7416.94817551 0 -355.25975105 0 -1598.88143122 0 8037
0.08750000 0.08749060 22102.71756528 0 476.25371958 0 6765.56302144 0 -239.73060739 0 -1110.78194857 0 8155
0.08850000 0.08849210 21522.62228725 0 346.32270280 0 8038.82876763 0 350.70335035 0 -1339.52468800 0 8718
0.08950000 0.08949900 21639.82767670 0 -107.86707475 0 7078.98583090 0 170.97597069 0 -1402.68598035 0 8571
0.09050000 0.09049190 21354.33863531 0 253.76669423 0 7287.30824991 0 -809.23236361 0 -2452.45961280 0 8932
0.09150000 0.09150830 20675.38220406 0 592.30572890 0 7470.78356573 0 150.50292431 0 -1113.02280138 0 9285
0.09250000 0.09250820 20416.25613686 0 60.00410649 0 7712.15856364 0 -157.46604487 0 -1668.57854425 0 9204
0.09350000 0.09350330 20289.60401500 0 547.46560517 0 7606.14645365 0 297.12609758 0 -2109.48830309 0 9349
0.09450000 0.09448040 19776.73432118 0 530.04187614 0 7616.93330393 0 719.25882805 0 -1118.47114938 0 9564
0.09550000 0.09549270 19223.88078316 0 -149.41764854 0 7399.41679767 0 894.14310966 0 235.24121257 0 10155
0.09650000 0.09649430 18374.99301407 0 373.62266104 0 7260.24226307 0 887.36892375 0 151.16419558 0 9913
0.09750000 0.09749140 18536.68592247 0 796.71873853 0 6226.45118372 0 308.33365699 0 979.14612613 0 10476
0.09850000 0.09850240 17240.94574077 0 65.63721500 0 6344.28269380 0 801.79580797 0 1743.28462238 0 10575
0.09950000 0.09950330 17221.94243021 0 243.89925268 0 6635.72537353 0 444.45997270 0 2059.91492703 0 10882
0.10050000 0.10051200 17010.48940802 0 619.64962543 0 5993.31461525 0 59.85625414 0 1693.44761658 0 10875
0.10150000 0.10150300 16585.93567775 0 69.55200682 0 6343.31605141 0 -1021.54108401 0 1329.59463439 0 11118
0.10250000 0.10250800 15859.96527585 0 346.45451767 0 6626.10288795 0 434.80343494 0 669.69533811 0 11575
0.10350000 0.10349800 15840.41273665 0 6.99389933 0 6169.92457321 0 182.41859994 0 1018.49616049 0 11364
0.10450000 0.10450100 15800.53873818 0 -84.61405275 0 5694.39144160 0 618.43912553 0 1062.15324575 0 12093
0.10550000 0.10551000 15854.91237246 0 105.20364544 0 5306.14172371 0 596.87201572 0 -107.50623155 0 12067
0.10650000 0.10649700 15421.68082985 0 188.94123914 0 4833.68427241 0 -26.35198962 0 447.76413213 0 12054
0.10750000 0.10749900 15193.86079451 0 430.07677336 0 5447.60104941 0 -39.78326590 0 1018.60161238 0 12807
0.10850000 0.10850100 15070.94342733 0 -143.31791538 0 4574.88774240 0 494.11024077 0 422.44029850 0 12736
0.10950000 0.10950300 15041.94415571 0 -172.47206947 0 4629.27236125 0 653.45025372 0 487.24817828 0 12933
0.11050000 0.11050200 14965.38168482 0 265.83544413 0 4135.84536089 0 385.33331387 0 1188.88225962 0 13428
0.11150000 0.11150900 14695.93011940 0 245.82374980 0 3740.63142399 0 -470.51537886 0 989.67813432 0 13453
0.11250000 0.11250000 14698.12703392 0 126.45330110 0 4468.46920323 0 406.58846181 0 819.36343490 0 13668
0.11350000 0.11349100 14383.96825809 0 63.05562075 0 4055.65798105 0 -89.19275214 0 1132.25678797 0 13791
0.11450000 0.11448600 14708.12299497 0 -35.75170807 0 4281.67654648 0 728.03220617 0 1063.42196389 0 14205
0.11550000 0.11549300 14513.69606028 0 -174.48883700 0 3813.33830990 0 -85.67230647 0 823.31458566 0 14776
0.11650000 0.11649800 14653.74936069 0 310.00660739 0 4252.25986111 0 -511.36370892 0 626.05363124 0 14553
0.11750000 0.11747300 14224.25257276 0 334.88446737 0 4532.46532309 0 -354.93350925 0 1134.94800825 0 14568
0.11850000 0.11849100 14274.67176091 0 -150.76435714 0 4342.58600145 0 770.42167177 0 1353.04669685 0 16015
0.11950000 0.11950300 14283.89880188 0 -243.05783442 0 3955.00634249 0 638.63865605 0 1232.96334939 0 15270
0.12050000 0.12050700 14534.45690246 0 266.12214147 0 3673.48273180 0 -28.00846317 0 591.17541638 0 15999
0.12150000 0.12150000 14089.91125009 0 292.35989154 0 3961.71791633 0 -439.63994225 0 1262.76449481 0 15670
0.12250000 0.12250700 13963.58866540 0 165.03880921 0 4451.21243970 0 -100.69414886 0 750.04748654 0 16887
0.12350000 0.12352200 13397.55364029 0 145.25339707 0 3946.53723702 0 -163.97769949 0 750.67360718 0 16407
0.12450000 0.12449800 13655.36155877 0 56.14665414 0 3920.39395428 0 566.63148741 0 42.20195894 0 16306
0.12550000 0.12549900 13587.36705449 0 41.17193557 0 3759.10747507 0 362.45354764 0 178.30268060 0 17523
0.12650000 0.12650100 13399.42101763 0 143.81881189 0 3736.67697786 0 -289.19084235 0 -201.67126031 0 17154
0.12750000 0.12750600 12839.53735315 0 249.52225539 0 3546.86356365 0 178.37517878 0 173.26405715 0 18007
0.12850000 0.12850300 12635.22430314 0 266.29130389 0 3690.65161874 0 -297.82801177 0 98.83731671 0 17496
0.12950000 0.12949900 12334.35686014 0 117.95893112 0 3485.20715775 0 26.00257037 0 -183.45993742 0 18405
0.13050000 0.13049000 12603.25919693 0 144.14065987 0 3742.19123329 0 584.28040017 0 94.11845417 0 18100
0.13150000 0.13148800 12447.05857482 0 -85.03465203 0 3246.21581210 0 224.66416763 0 -465.29221460 0 19059
0.13250000 0.13249300 12432.00971039 0 15.09543902 0 3175.65091784 0 -99.79692897 0 100.34692652 0 18957
0.13350000 0.13349100 12383.34805385 0 121.70357191 0 3131.24029089 0 75.81628888 0 -295.64647566 0 19468
0.13450000 0.13450700 12066.22344343 0 106.99039602 0 3581.68465874 0 -295.57727285 0 339.90331859 0 19953
0.13550000 0.13551000 12010.97104334 0 272.85129063 0 3605.56511953 0 112.40842660 0 455.71037194 0 19956
0.13650000 0.13649900 11964.17676415 0 -17.66879484 0 3948.09704633 0 -135.56170868 0 221.54015519 0 19723
0.13750000 0.13749600 11832.03235599 0 69.95305357 0 3656.98390378 0 69.77576257 0 65.51122196 0 20946
0.13850000 0.13851100 11962.63892399 0 165.69898202 0 3719.34332233 0 386.42957421 0 382.43009133 0 20955
0.13950000 0.13949800 11744.15577534 0 -14.64177618 0 3618.32919287 0 177.32505364 0 620.14283274 0 20506
0.14050000 0.14048300 11509.85484218 0 30.76899610 0 3239.70196056 0 381.14489634 0 959.23768678 0 21447
0.14150000 0.14148400 11583.34163275 0 276.85956117 0 3273.84201214 0 518.07747968 0 1057.67922934 0 21771
0.14250000 0.14249400 11290.49292773 0 153.34353478 0 2888.51419056 0 -155.52177552 0 749.60700518 0 22470
0.14350000 0.14350900 10911.17366735 0 307.08251417 0 2906.18836785 0 -82.29389133 0 1111.40806921 0 22519
0.14450000 0.14449900 10743.47219776 0 127.84724336 0 3182.41741455 0 33.74965987 0 1111.60579151 0 22218
0.14550000 0.14550500 10406.82800185 0 -81.49685074 0 2633.96869014 0 176.96366120 0 751.64354494 0 23559
0.14650000 0.14650700 10335.74683268 0 216.59490062 0 2791.58632210 0 123.08872652 0 462.01881197 0 23044
0.14750000 0.14750500 10221.77090758 0 298.80234336 0 2704.30290837 0 -297.43586253 0 401.84422491 0 23649
0.14850000 0.14849900 10066.11951410 0 83.68981081 0 2820.40984056 0 233.32110929 0 767.17902594 0 23640
0.14950000 0.14949500 9852.56843855 0 -41.37350247 0 2635.78114461 0 35.12679574 0 488.15879934 0 24457
0.15050000 0.15050000 9890.20158421 0 95.36322594 0 2821.96964986 0 181.73645799 0 564.59604611 0 24591
0.15150000 0.15149900 9956.91089350 0 168.50114648 0 2669.18522983 0 -52.85194144 0 680.23064167 0 25020
0.15250000 0.15250500 9608.56812780 0 18.38235268 0 2652.40080293 0 17.50501487 0 880.03562310 0 25297
0.15350000 0.15350100 9683.28519049 0 25.19827996 0 2871.41121105 0 41.61955690 0 701.25511359 0 25452
0.15450000 0.15450400 9659.67934402 0 89.36795607 0 2825.35289822 0 44.82518472 0 428.92119633 0 26061
0.15550000 0.15549900 9388.42630869 0 93.65139015 0 2783.43576925 0 167.79483847 0 801.25976083 0 26128
0.15650000 0.15649500 9305.52573942 0 115.33032290 0 2720.18660033 0 -199.53585940 0 541.47022545 0 26331
0.15750000 0.15749700 9188.99040891 0 187.44294344 0 2917.26081701 0 302.16362257 0 627.38166607 0 27345
0.15850000 0.15849900 9198.15154244 0 149.11447433 0 2708.85052142 0 -80.91093364 0 676.25202948 0 26980
0.15950000 0.15949700 8995.47519374 0 -55.15309955 0 2781.28279302 0 125.89528481 0 438.13615427 0 27777
0.16050000 0.16050000 8854.32343607 0 15.26163561 0 2554.96764413 0 207.71716906 0 616.53110527 0 28224
0.16150000 0.16150500 8923.99857995 0 98.04785548 0 2450.71306576 0 218.52708693 0 970.95822573 0 28075
0.16250000 0.16249700 8849.14970238 0 7.14118048 0 2091.72624923 0 132.40254561 0 730.56305170 0 28590
0.16350000 0.16349900 8890.68237131 0 45.65089504 0 2473.69279160 0 -0.69223129 0 409.06328601 0 29163
0.16450000 0.16449100 8592.24251885 0 159.85958323 0 2265.77680178 0 -209.31542437 0 863.76197882 0 28996
0.16550000 0.16550500 8673.05601933 0 106.32692783 0 2347.54596008 0 82.08946843 0 737.50640003 0 30777
0.16650000 0.16650700 8646.35252339 0 17.12374035 0 2429.91926986 0 112.26123332 0 556.91782987 0 29211
0.16750000 0.16749900 8782.78091485 0 13.15391582 0 2109.46633395 0 210.25570378 0 249.64418414 0 30922
0.16850000 0.16850800 8401.49541598 0 -40.97410341 0 1952.14528544 0 73.53655068 0 447.18085133 0 30867
0.16950000 0.16949900 8576.83116352 0 260.05536203 0 1978.64007450 0 -129.04456177 0 261.03518591 0 30852
0.17050000 0.17049200 8238.80291148 0 185.54041547 0 2073.25019815 0 -189.21255809 0 367.86235118 0 31257
0.17150000 0.17149500 8060.02899271 0 33.88894425 0 2086.01427149 0 -36.95374985 0 297.20408805 0 32608
0.17250000 0.17250900 8027.27299728 0 -51.63627879 0 2004.60760409 0 185.03182976 0 -136.62281839 0 32361
0.17350000 0.17350400 7970.28503472 0 9.98845859 0 1863.14827838 0 239.80090865 0 213.22373529 0 32508
0.17450000 0.17449800 8092.43348183 0 125.48556025 0 1984.34106767 0 -132.02138094 0 -70.37178548 0 32791
0.17550000 0.17549800 7871.03942145 0 220.32635992 0 1946.11475509 0 -117.36466575 0 172.04586806 0 33633
0.17650000 0.17650100 7888.29618498 0 -34.64292532 0 2217.99391105 0 95.13936035 0 6.85996444 0 33984
0.17750000 0.17750300 8017.25506708 0 -42.05531489 0 1955.62739495 0 75.02474058 0 -77.00130457 0 34069
0.17850000 0.17849800 7760.76529731 0 143.94623293 0 2042.91080868 0 -294.87206329 0 -229.68301885 0 34536
