### header ###
fiducial parameters:
Omega_m = 0.31
Omega_nu = 0
Omega_de = 0.69
Omega_k = 0
H_0 = 100
w_de = -1
zeff = 0
beta = 0
fgrowth = 0
b_1 = 2
gamma = 0.55
Lx = 3500 Ly = 3500 Lz = 3500
nx = 700 ny = 700 nz = 700
xoffset = -983.599254 yoffset = -42.9823471 zoffset = 800.977702
bins = 400 dk = 0.001
kx_ny = 0.628318531 ky_ny = 0.628318531 kz_ny = 0.628318531
############################
A(data) = 9.13494039 (not used)
A(ran) = 9.14635266 (used)
Ngal = 507690
weighted Ngal = 0
Nran = 25229228
weighted Nran = 0
SN(data) = 6687.45941
SN(ran) = 135.771304
SN(data+ran) = 6823.23072
############################
13 columns: k_central k_mean P_0(k) sigma^{lin}_{P_0(k)} P^img_1(k) sigma^{lin}_{P_1(k)} P_2(k) sigma^{lin}_{P_2(k)} P^img_3(k) sigma^{lin}_{P_3(k)} P_4(k) sigma^{lin}_{P_4(k)} N_modes
### header ###
0.00050000 0 0 0 0 0 0 0 0 0 0 0 0
0.00150000 0.00179520 10366.33886732 0 -10632.76967528 0 -17237.87006045 0 25588.67167396 0 33934.20069264 0 3
0.00250000 0.00253879 29431.84408300 0 -19923.04882796 0 12483.19781862 0 10146.55953911 0 23591.01730432 0 6
0.00350000 0.00331552 39961.65535948 0 -10566.47777975 0 -8186.09893223 0 -5662.34944338 0 -18969.14854500 0 7
0.00450000 0.00420575 43530.43314543 0 8221.68894739 0 22563.74007651 0 -20989.43113416 0 16486.96467879 0 24
0.00550000 0.00557378 45279.83617473 0 4334.24871086 0 32831.56929693 0 17805.99215436 0 19905.91289473 0 45
0.00650000 0.00659388 53025.38783901 0 -24468.68465357 0 14340.90873357 0 37309.21061826 0 11951.32481423 0 40
0.00750000 0.00754703 59505.29705048 0 -15193.20172016 0 -7484.88775693 0 47410.18418116 0 -1933.44954291 0 57
0.00850000 0.00846663 79228.97588608 0 3333.49922583 0 -5417.79990400 0 -21478.13476830 0 9380.50643186 0 75
0.00950000 0.00948925 84050.54417494 0 1070.62344967 0 2353.43369098 0 -938.89975065 0 27508.44542401 0 112
0.01050000 0.01054430 68445.75052016 0 -869.77054002 0 -3999.10940140 0 -25371.83621121 0 -93.41829752 0 105
0.01150000 0.01145670 70274.57200922 0 3817.72115436 0 15019.20609047 0 -7457.81078551 0 10467.34201221 0 144
0.01250000 0.01249090 69057.59121294 0 6631.25465249 0 11494.03705767 0 -4756.58355746 0 -17168.44756174 0 169
0.01350000 0.01339930 62999.70928005 0 4570.24126819 0 23697.23812118 0 -6804.14084034 0 -7785.77716908 0 180
0.01450000 0.01448870 60188.97684794 0 197.40375386 0 22421.92924449 0 11397.59251040 0 9001.83526127 0 267
0.01550000 0.01550050 65981.36166153 0 -3496.25763777 0 20508.41670082 0 8082.63524309 0 3100.57136425 0 238
0.01650000 0.01653350 63120.64942417 0 2167.75047607 0 27425.51190102 0 -13018.36619478 0 1604.93393071 0 315
0.01750000 0.01747870 68047.55976408 0 4222.83219116 0 24991.76999989 0 17081.66943834 0 2417.99002404 0 297
0.01850000 0.01844180 68006.25777118 0 -5798.61306625 0 20488.09524154 0 14074.31315702 0 13961.83113379 0 388
0.01950000 0.01947590 69767.96352177 0 118.01165707 0 22148.63307867 0 1543.20063281 0 11352.22622564 0 399
0.02050000 0.02045430 72968.42858907 0 2963.70358988 0 31425.54400651 0 -6081.34497992 0 18372.46656238 0 462
0.02150000 0.02154770 64387.71987143 0 3406.61254093 0 36408.80520377 0 -4562.50812910 0 12701.90065871 0 571
0.02250000 0.02255340 68584.59551758 0 910.53319041 0 42941.22067216 0 7067.24332281 0 6718.56003536 0 510
0.02350000 0.02348930 64747.13508629 0 -5461.15601198 0 32445.57141642 0 10108.84950144 0 9982.28525616 0 555
0.02450000 0.02439640 69916.03556017 0 1938.18389369 0 34612.38820381 0 5146.34914637 0 10241.16966276 0 592
0.02550000 0.02547300 67144.84758935 0 1353.35426488 0 28749.04305134 0 -5503.58941586 0 2041.54872168 0 837
0.02650000 0.02652900 68366.55175184 0 3250.10435080 0 36019.62179721 0 6053.09265924 0 2406.45622283 0 723
0.02750000 0.02749970 63978.87407995 0 1967.73239393 0 32610.34000514 0 570.07405245 0 -3412.86276273 0 826
0.02850000 0.02848090 61843.14363296 0 -35.85122830 0 33962.21135272 0 -2136.85087339 0 7303.79609335 0 831
0.02950000 0.02946900 63837.61247656 0 -997.50903611 0 26269.05609965 0 7496.42155814 0 -10623.36688115 0 996
0.03050000 0.03053250 58474.28506799 0 2242.50049248 0 21007.66552464 0 1979.46391745 0 -4767.24957744 0 1041
0.03150000 0.03150510 59549.12549507 0 4792.67886297 0 25249.79760983 0 1114.47276496 0 -666.43072314 0 1036
0.03250000 0.03246190 55495.04929248 0 1443.90009667 0 28060.20050477 0 3126.63775498 0 4561.47557927 0 1059
0.03350000 0.03345080 53309.00950307 0 -242.80738617 0 22834.18025347 0 5148.94150550 0 1693.29383256 0 1302
0.03450000 0.03451200 53208.06128104 0 -333.28071978 0 20262.91150363 0 5206.24802065 0 8516.98721210 0 1339
0.03550000 0.03553350 49493.73790839 0 906.61938720 0 16771.68480010 0 310.64371260 0 5372.13703578 0 1365
0.03650000 0.03647120 50637.34175983 0 2181.39331521 0 16432.92058169 0 2039.76922092 0 7653.66571464 0 1308
0.03750000 0.03744890 49343.46895547 0 429.55500617 0 16635.69579154 0 2520.95940742 0 4857.90525495 0 1579
0.03850000 0.03847530 50641.18636023 0 1451.60028205 0 18515.15616021 0 -1516.25547627 0 5649.09106427 0 1662
0.03950000 0.03950240 44293.42155693 0 2519.09203008 0 18197.48232116 0 -3814.06329169 0 1961.02082008 0 1683
0.04050000 0.04050350 43530.10360825 0 477.69269859 0 22448.07252723 0 -2593.73220077 0 -872.14869998 0 1822
0.04150000 0.04152450 44404.47558573 0 -1339.16219711 0 18544.37512328 0 3396.82528676 0 -7210.54805671 0 1887
0.04250000 0.04250150 46164.86318761 0 -746.85866512 0 17825.21515637 0 2621.87467572 0 -9006.03136799 0 1920
0.04350000 0.04349210 45889.15041582 0 1747.15119193 0 14923.53046329 0 -2178.96572467 0 -10382.10172897 0 2005
0.04450000 0.04448520 45090.68183488 0 -385.36407067 0 14740.41763836 0 -1461.16784477 0 -7626.69858895 0 2151
0.04550000 0.04548030 43296.79128662 0 703.87383570 0 16878.45484559 0 750.41327281 0 -13439.73439900 0 2274
0.04650000 0.04648670 41886.15247573 0 2678.09371819 0 16125.90177804 0 2877.14515794 0 -6918.54516378 0 2311
0.04750000 0.04749250 41556.61529829 0 1115.93371311 0 13094.15974559 0 3966.11174536 0 -6425.66739205 0 2568
0.04850000 0.04851840 41315.61377585 0 -1581.10839279 0 11743.05731808 0 3322.06428578 0 -4389.58898752 0 2493
0.04950000 0.04949480 38853.86121465 0 1105.17981655 0 9946.50850326 0 476.22186432 0 -5398.68674771 0 2644
0.05050000 0.05050630 36451.20565393 0 1145.42729049 0 9237.25662083 0 -1320.58728487 0 -650.40313328 0 2829
0.05150000 0.05149060 36466.47420982 0 97.58957911 0 6608.74726327 0 3073.52734655 0 -490.03716126 0 2784
0.05250000 0.05249300 36015.33781390 0 850.49261514 0 9935.41408495 0 821.75038252 0 -2590.42584442 0 3055
0.05350000 0.05348950 34969.49665843 0 -54.89342425 0 5626.63859791 0 -710.89737140 0 -1526.76771223 0 3009
0.05450000 0.05448610 35282.44713127 0 -142.21616275 0 7303.79609335 0 2852.79236053 0 -170.25757964 0 3336
0.05550000 0.05550870 35175.01801143 0 -395.40726538 0 5138.98948274 0 211.19488474 0 -2181.47020722 0 3349
0.05650000 0.05647670 36925.18996081 0 1725.19303134 0 5495.36197099 0 -675.52045695 0 -1525.37267151 0 3324
0.05750000 0.05747970 33540.95299423 0 1177.34845841 0 8803.14631241 0 -1308.88871508 0 -82.69999098 0 3639
0.05850000 0.05849280 33993.07800168 0 96.50792825 0 8306.46787858 0 -1452.84153875 0 -157.03215425 0 3846
0.05950000 0.05951020 33105.19499993 0 255.14745500 0 10015.65638766 0 669.73707949 0 -1469.39528963 0 3787
0.06050000 0.06049470 32113.39794156 0 -122.90528416 0 9619.72845354 0 -35.51828590 0 1511.31241860 0 3930
0.06150000 0.06148310 32708.98146692 0 -91.63407339 0 9928.06540590 0 347.60570088 0 -437.16072422 0 4083
0.06250000 0.06249100 33002.37940057 0 739.65168705 0 9897.69306271 0 167.39280311 0 24.97551283 0 4303
0.06350000 0.06350600 31150.05092617 0 1145.11972246 0 11243.47895709 0 -572.75978045 0 1486.38842342 0 4470
0.06450000 0.06451750 31124.34702633 0 216.48066106 0 12004.92952842 0 318.99418468 0 2303.83834578 0 4479
0.06550000 0.06550280 31610.85374596 0 673.52456011 0 12760.55827629 0 179.70321360 0 -939.52367437 0 4636
0.06650000 0.06648880 30803.92704413 0 17.71635804 0 11335.85921249 0 30.28139093 0 -143.19269126 0 4653
0.06750000 0.06749660 30301.49269426 0 174.42073265 0 12796.80736581 0 -1515.18997273 0 -790.15765332 0 5220
0.06850000 0.06852730 29531.47415631 0 493.61263963 0 12577.22575991 0 881.17472327 0 1632.53816161 0 5029
0.06950000 0.06949320 29477.32021349 0 493.19522587 0 13955.35023597 0 -204.28229321 0 -382.61243524 0 5040
0.07050000 0.07048030 28642.82223448 0 479.32939990 0 13423.03784868 0 832.47242382 0 -295.39163357 0 5475
0.07150000 0.07148790 28244.85116986 0 359.41082103 0 13475.87364279 0 231.08574877 0 508.82407574 0 5509
0.07250000 0.07249820 28075.24936920 0 357.01508575 0 12426.40757837 0 1105.68510689 0 -38.04122254 0 5916
0.07350000 0.07351270 28098.75635453 0 -189.03790338 0 13378.11094682 0 457.81062222 0 422.04265698 0 5721
0.07450000 0.07449140 27404.75105884 0 526.33238598 0 11331.90476637 0 -208.34768352 0 -1238.43366654 0 6028
0.07550000 0.07549160 27016.00703518 0 387.29845390 0 11119.02374974 0 806.20391695 0 83.13113545 0 6183
0.07650000 0.07648840 26990.74251825 0 -4.82325991 0 10056.58490510 0 1481.82982580 0 -1258.97481727 0 6330
0.07750000 0.07749960 26997.44310752 0 -460.18438835 0 9437.28568754 0 945.29277189 0 -978.61337436 0 6583
0.07850000 0.07848650 26724.80601605 0 66.14305457 0 8671.25454943 0 687.77374766 0 -1942.42393870 0 6549
0.07950000 0.07947320 25768.37928140 0 810.70429634 0 7579.43197313 0 -811.03493197 0 -2322.02879797 0 6828
0.08050000 0.08048110 25647.32929155 0 1193.03442806 0 8372.69386667 0 -237.53149596 0 -2260.22959263 0 7147
0.08150000 0.08149960 24878.95843948 0 191.71813909 0 9047.86062038 0 -604.22399015 0 -3382.69912642 0 7386
0.08250000 0.08250610 24392.78125703 0 286.06353454 0 9058.79027010 0 409.52793343 0 -3284.77166186 0 7227
0.08350000 0.08350160 23268.62009906 0 333.05883141 0 8027.19610527 0 638.42225997 0 -3276.96163076 0 7798
0.08450000 0.08449610 23047.61049872 0 316.58636637 0 8070.39842923 0 718.66895651 0 -4231.90544812 0 7371
0.08550000 0.08548940 22335.59050400 0 496.76081813 0 8862.44103521 0 -650.85789459 0 -2314.16384400 0 8256
0.08650000 0.08650700 21902.24911567 0 371.63994569 0 7356.68681033 0 900.74044396 0 -1924.79369971 0 8037
0.08750000 0.08749060 21779.88097711 0 -231.32960628 0 7862.68016172 0 991.26320814 0 -2162.22523606 0 8155
0.08850000 0.08849210 21170.23719885 0 682.42096544 0 7110.40170848 0 319.39512158 0 -1927.55082743 0 8718
0.08950000 0.08949900 21026.00976085 0 484.26696528 0 7068.84707041 0 -536.22838742 0 -1395.60093103 0 8571
0.09050000 0.09049190 20681.20402752 0 164.49726978 0 7331.19161737 0 1226.64722016 0 -592.33758416 0 8932
0.09150000 0.09150830 20368.91262904 0 -250.90411462 0 6977.22475051 0 73.17054472 0 -1300.14499530 0 9285
0.09250000 0.09250820 19891.52310465 0 566.21517211 0 6550.32032171 0 968.78987110 0 288.91622803 0 9204
0.09350000 0.09350330 19531.99804406 0 625.40554146 0 7187.33765484 0 -30.93629114 0 704.79763825 0 9349
0.09450000 0.09448040 19125.23932138 0 -182.67454048 0 6170.57266300 0 758.09258750 0 539.01956731 0 9564
0.09550000 0.09549270 19524.19899753 0 303.14674181 0 6348.39092394 0 696.90082902 0 -219.02468807 0 10155
0.09650000 0.09649430 18500.54667868 0 98.09805497 0 5772.54667551 0 -356.33623917 0 302.72054040 0 9913
0.09750000 0.09749140 18075.22402833 0 335.50399727 0 6415.48469327 0 -745.16264712 0 357.02826724 0 10476
0.09850000 0.09850240 17894.74750081 0 661.71504613 0 6226.83564376 0 -46.03700276 0 60.03618144 0 10575
0.09950000 0.09950330 17166.03095577 0 198.93170791 0 6223.72700972 0 -48.10210241 0 -1056.49399396 0 10882
0.10050000 0.10051200 16994.23224060 0 179.04633616 0 6566.18204451 0 268.55742121 0 -1010.10504549 0 10875
0.10150000 0.10150300 17006.75465334 0 304.11887649 0 6328.31112527 0 586.89253153 0 -535.38916607 0 11118
0.10250000 0.10250800 16534.19834089 0 -347.40688012 0 5288.22588583 0 490.30188945 0 -511.24287862 0 11575
0.10350000 0.10349800 16516.62302476 0 86.61873724 0 5815.13386341 0 440.96358325 0 -332.17237640 0 11364
0.10450000 0.10450100 15907.52847512 0 837.85596284 0 5928.85714334 0 -623.33385107 0 -981.82526338 0 12093
0.10550000 0.10551000 15817.12544278 0 675.65227182 0 6327.84977322 0 -542.05130934 0 -156.51478088 0 12067
0.10650000 0.10649700 15456.83146211 0 -284.18077879 0 6315.93151197 0 993.78416755 0 475.44855041 0 12054
0.10750000 0.10749900 15733.31315398 0 -427.34271325 0 6022.05025712 0 757.93221274 0 -747.30683568 0 12807
0.10850000 0.10850100 15670.26170737 0 131.20083337 0 5326.21053781 0 -286.38428405 0 -1033.61752310 0 12736
0.10950000 0.10950300 15059.51947184 0 688.64152890 0 6115.66078466 0 -1016.99676633 0 -492.03086118 0 12933
0.11050000 0.11050200 14983.61607531 0 -1.60784484 0 6015.50345187 0 -13.11909473 0 -170.44980966 0 13428
0.11150000 0.11150900 15134.87363975 0 -62.96016482 0 5842.78203260 0 514.25484843 0 -2031.94820524 0 13453
0.11250000 0.11250000 14847.51722102 0 481.05287934 0 6266.23730561 0 -0.52460232 0 -1297.93709621 0 13668
0.11350000 0.11349100 14632.32944416 0 -3.27364429 0 5542.66154053 0 -76.40011891 0 -788.00248018 0 13791
0.11450000 0.11448600 14670.11637384 0 -141.60871589 0 5561.08266875 0 951.01243883 0 -927.74821256 0 14205
0.11550000 0.11549300 14543.13471480 0 95.07411199 0 5023.88214666 0 523.35556681 0 -1252.55982688 0 14776
0.11650000 0.11649800 14225.90025865 0 192.33986590 0 5012.50212946 0 86.23032276 0 71.32623499 0 14553
0.11750000 0.11747300 14265.77425712 0 50.75619484 0 4406.93362763 0 608.52225340 0 -168.94492322 0 14568
0.11850000 0.11849100 14018.18199113 0 5.95547276 0 4574.41540577 0 650.35480117 0 620.93152505 0 16015
0.11950000 0.11950300 13948.53980097 0 177.78860260 0 3843.66671480 0 194.52469739 0 554.64951564 0 15270
0.12050000 0.12050700 13990.17133105 0 203.15198069 0 4564.73799733 0 148.80800476 0 987.68992668 0 15999
0.12150000 0.12150000 13606.91959369 0 48.52544784 0 4074.72719905 0 -272.20210239 0 1039.86774490 0 15670
0.12250000 0.12250700 13349.11167520 0 280.80521964 0 4264.22206065 0 11.28137573 0 1018.73891954 0 16887
0.12350000 0.12352200 13232.56536012 0 146.67040694 0 4547.60206410 0 -93.70883946 0 1307.15315261 0 16407
0.12450000 0.12449800 13341.09293722 0 -135.24754991 0 4008.45727267 0 447.66966481 0 510.91553836 0 16306
0.12550000 0.12549900 13262.99262617 0 32.66899762 0 4258.83962009 0 97.83651230 0 147.32069363 0 17523
0.12650000 0.12650100 13057.91065607 0 409.37414942 0 4423.08094932 0 -559.06091998 0 -219.61565808 0 17154
0.12750000 0.12750600 12808.34116702 0 266.16058747 0 4516.02141793 0 -420.75087124 0 478.19029973 0 18007
0.12850000 0.12850300 12568.54794757 0 -4.49579882 0 5056.06694432 0 15.42904049 0 -578.21142382 0 17496
0.12950000 0.12949900 12659.39036282 0 4.88056643 0 4458.70391820 0 357.61813879 0 -127.18377518 0 18405
0.13050000 0.13049000 12444.31243168 0 -79.13560702 0 3956.74190495 0 673.27191494 0 21.64048675 0 18100
0.13150000 0.13148800 12728.70301581 0 35.23312640 0 3962.25616039 0 825.00840675 0 614.68459862 0 19059
0.13250000 0.13249300 12729.03255299 0 -122.38351696 0 3495.74136286 0 203.70560315 0 201.40982748 0 18957
0.13350000 0.13349100 12632.36831427 0 269.75583808 0 3814.60153575 0 -421.71311980 0 209.99866478 0 19468
0.13450000 0.13450700 12001.52431092 0 572.45770470 0 3802.57342877 0 -601.37349357 0 397.05604973 0 19953
0.13550000 0.13551000 11982.52100036 0 -14.84202493 0 3835.49419280 0 90.06811273 0 272.31963732 0 19956
0.13650000 0.13649900 11660.67302372 0 162.26959846 0 4144.20462063 0 375.85252927 0 -123.80492065 0 19723
0.13750000 0.13749600 11278.51974362 0 251.09744309 0 4062.44644690 0 -187.79994205 0 -75.51761835 0 20946
0.13850000 0.13851100 11066.73718425 0 99.44882787 0 4080.34031564 0 -233.07285795 0 36.98988909 0 20955
0.13950000 0.13949800 10937.06430493 0 286.10747283 0 4219.49288110 0 249.21688427 0 -729.25149373 0 20506
0.14050000 0.14048300 11156.26145079 0 -73.36552089 0 3721.00199278 0 63.96766982 0 -557.88996455 0 21447
0.14150000 0.14148400 10854.68001057 0 -77.48616360 0 3802.12306130 0 286.22061392 0 -726.42296629 0 21771
0.14250000 0.14249400 10834.22673642 0 198.09578193 0 3419.23381483 0 80.99046195 0 -463.05795254 0 22470
0.14350000 0.14350900 10633.29693476 0 61.57303299 0 3406.99700097 0 409.27528827 0 -338.26112498 0 22519
0.14450000 0.14449900 10811.34587174 0 -21.53437578 0 3207.33042516 0 159.31255152 0 -172.26006722 0 22218
0.14550000 0.14550500 10685.68236140 0 191.39299574 0 3391.90419825 0 152.68555888 0 -184.85937197 0 23559
0.14650000 0.14650700 10431.14784555 0 112.40183585 0 3213.76738470 0 -303.60589695 0 19.50146093 0 23044
0.14750000 0.14750500 10091.28516988 0 294.06140183 0 3730.82220067 0 -75.39854558 0 264.47225867 0 23649
0.14850000 0.14849900 9937.46820003 0 94.12460554 0 3732.29413340 0 130.01999182 0 706.53979146 0 23640
0.14950000 0.14949500 10041.68982468 0 -65.37149819 0 3568.84369339 0 622.73848724 0 592.98896932 0 24457
0.15050000 0.15050000 9993.46755105 0 16.64788867 0 3163.88644060 0 262.70374248 0 921.40462190 0 24591
0.15150000 0.15149900 9844.63757714 0 192.07843307 0 3494.92850449 0 -89.37916033 0 834.38593636 0 25020
0.15250000 0.15250500 9711.72424891 0 269.36368884 0 3192.21565329 0 34.87469980 0 684.74420255 0 25297
0.15350000 0.15350100 9636.94127877 0 -24.76482873 0 3329.59970257 0 -220.45817479 0 694.10635376 0 25452
0.15450000 0.15450400 9412.47153807 0 -137.45215362 0 3025.67854839 0 309.65839644 0 778.50192336 0 26061
0.15550000 0.15549900 9475.46806183 0 0.33760644 0 2857.20815871 0 326.43733106 0 64.02138438 0 26128
0.15650000 0.15649500 9545.56061947 0 196.39097627 0 2496.55168714 0 31.20826916 0 515.63011691 0 26331
0.15750000 0.15749700 9388.81076873 0 218.33485691 0 2736.59755176 0 -143.29374932 0 265.73768143 0 27345
0.15850000 0.15849900 9205.87369696 0 78.12700356 0 2626.94954826 0 160.35828283 0 486.64951907 0 26980
0.15950000 0.15949700 9234.09306393 0 -122.30552649 0 2498.51792563 0 366.13228100 0 462.54167763 0 27777
0.16050000 0.16050000 9244.07804040 0 10.84016939 0 2371.17377570 0 58.91839134 0 42.79567509 0 28224
0.16150000 0.16150500 9175.50135378 0 145.82129947 0 2118.35285317 0 218.89397166 0 755.40795796 0 28075
0.16250000 0.16249700 9017.49926177 0 44.05154127 0 2424.02055439 0 -182.85468748 0 670.43789522 0 28590
0.16350000 0.16349900 8897.95415836 0 132.17846033 0 2384.89350685 0 -149.02110547 0 565.22326520 0 29163
0.16450000 0.16449100 8947.13208981 0 8.07417712 0 2457.50153162 0 162.84189469 0 340.19221284 0 28996
0.16550000 0.16550500 8916.77073120 0 218.22940502 0 2737.66305530 0 -328.38928961 0 70.32971456 0 30777
0.16650000 0.16650700 8464.05255683 0 294.75452836 0 2695.83380291 0 -188.23822650 0 271.76271949 0 29211
0.16750000 0.16749900 8470.15997918 0 82.99426768 0 2858.01003250 0 102.71607913 0 366.91218565 0 30922
0.16850000 0.16850800 8322.62618484 0 -76.25171733 0 3008.28996999 0 188.92695920 0 -94.45886608 0 30867
0.16950000 0.16949900 8277.08414692 0 160.04522251 0 2726.10728495 0 110.09727253 0 182.93926868 0 30852
0.17050000 0.17049200 8036.20345478 0 133.02207550 0 2851.84768729 0 -46.14432204 0 420.42682635 0 31257
0.17150000 0.17149500 7815.14991616 0 68.75683362 0 2498.66072508 0 212.74370947 0 394.27585441 0 32608
0.17250000 0.17250900 7887.17575857 0 -28.31295552 0 2485.81975973 0 449.91600990 0 124.18718378 0 32361
0.17350000 0.17350400 7828.61700214 0 184.15196550 0 2244.76331443 0 40.66532708 0 544.07027378 0 32508
0.17450000 0.17449800 7715.37704340 0 161.52264752 0 2261.41592647 0 -54.09297845 0 697.66205990 0 32791
0.17550000 0.17549800 7606.99226574 0 19.31856780 0 2203.16473807 0 21.87127262 0 591.86964137 0 33633
0.17650000 0.17650100 7595.07400449 0 2.86752267 0 2296.37982099 0 -22.84648297 0 266.15839056 0 33984
0.17750000 0.17750300 7380.19379565 0 122.55817166 0 2380.78527671 0 -283.21193949 0 417.36103214 0 34069
0.17850000 0.17849800 7300.21512269 0 -73.59872336 0 2066.64847003 0 181.32014269 0 253.89081990 0 34536
