### header ###
fiducial parameters:
Omega_m = 0.31
Omega_nu = 0
Omega_de = 0.69
Omega_k = 0
H_0 = 100
w_de = -1
zeff = 0
beta = 0
fgrowth = 0
b_1 = 2
gamma = 0.55
Lx = 3500 Ly = 3500 Lz = 3500
nx = 700 ny = 700 nz = 700
xoffset = -983.599254 yoffset = -42.9823471 zoffset = 800.977702
bins = 400 dk = 0.001
kx_ny = 0.628318531 ky_ny = 0.628318531 kz_ny = 0.628318531
############################
A(data) = 9.06722092 (not used)
A(ran) = 9.0720321 (used)
Ngal = 504071
weighted Ngal = 0
Nran = 25229228
weighted Nran = 0
SN(data) = 6715.58874
SN(ran) = 134.668066
SN(data+ran) = 6850.25681
############################
13 columns: k_central k_mean P_0(k) sigma^{lin}_{P_0(k)} P^img_1(k) sigma^{lin}_{P_1(k)} P_2(k) sigma^{lin}_{P_2(k)} P^img_3(k) sigma^{lin}_{P_3(k)} P_4(k) sigma^{lin}_{P_4(k)} N_modes
### header ###
0.00050000 0 0 0 0 0 0 0 0 0 0 0 0
0.00150000 0.00179520 40133.67376610 0 -33829.73740739 0 -14039.05267904 0 -53843.73849632 0 -116737.44665097 0 3
0.00250000 0.00253879 51457.55979448 0 -17572.46014128 0 -32603.52957014 0 43274.60245001 0 100725.67458205 0 6
0.00350000 0.00331552 37380.61034004 0 4506.01447231 0 23827.51515200 0 -52158.70506235 0 34737.94186842 0 7
0.00450000 0.00420575 35932.29444519 0 1669.13875745 0 -2768.17819793 0 -6421.55916191 0 -1683.74823899 0 24
0.00550000 0.00557378 52909.17106110 0 -3798.48716777 0 14398.46789390 0 -7980.44576436 0 -29212.04278565 0 45
0.00650000 0.00659388 44358.56007234 0 6377.77465560 0 8231.67392387 0 -23455.68737012 0 3942.62672919 0 40
0.00750000 0.00754703 41393.60424118 0 5817.77016083 0 29911.54036763 0 -14156.80729711 0 -1907.86647336 0 57
0.00850000 0.00846663 45148.24099521 0 -212.07584746 0 34033.06184587 0 -7318.27376001 0 -23529.61354359 0 75
0.00950000 0.00948925 52354.66983720 0 -1858.91921794 0 42747.89219473 0 11685.27846631 0 -24276.67432485 0 112
0.01050000 0.01054430 58343.01942564 0 579.02098682 0 43389.39123348 0 -6311.19716118 0 -15482.97474485 0 105
0.01150000 0.01145670 57020.91626975 0 -1017.88541825 0 28848.23374175 0 19617.45801875 0 7230.40816394 0 144
0.01250000 0.01249090 63680.75278010 0 -6078.80754365 0 29728.53738842 0 20401.09742670 0 -16292.31805265 0 169
0.01350000 0.01339930 80246.14730712 0 -4081.16415858 0 12716.94952315 0 5218.24317391 0 -10611.88800280 0 180
0.01450000 0.01448870 73243.81182369 0 -661.35694906 0 17548.29408160 0 -10459.61985768 0 -1163.70561927 0 267
0.01550000 0.01550050 70108.70496325 0 886.33307856 0 11053.88523433 0 48.86761727 0 -2140.35495205 0 238
0.01650000 0.01653350 76626.40110439 0 -2158.40260480 0 14034.21946710 0 10831.66733101 0 -11492.27952605 0 315
0.01750000 0.01747870 77928.95172108 0 3948.93187385 0 15381.14775703 0 -13560.78438885 0 -27016.99564672 0 297
0.01850000 0.01844180 77509.23120275 0 -4253.64391725 0 -2821.85980414 0 3193.08343453 0 -3511.24059477 0 388
0.01950000 0.01947590 78076.80406803 0 -4396.77289799 0 16321.42716999 0 6545.42120234 0 -23685.92401142 0 399
0.02050000 0.02045430 92322.03717442 0 998.36143894 0 -5327.03438076 0 -2134.70888174 0 -27274.25433657 0 462
0.02150000 0.02154770 84928.87059854 0 296.01226192 0 11177.68136732 0 -10920.31283174 0 -15581.28666946 0 571
0.02250000 0.02255340 76258.41792291 0 5204.49048904 0 13125.02639454 0 -12516.37122781 0 -21624.33942936 0 510
0.02350000 0.02348930 73688.46732178 0 7615.05494202 0 27693.31578055 0 -11986.47544649 0 -26357.70160038 0 555
0.02450000 0.02439640 72560.90094630 0 5535.71929066 0 33529.85857592 0 1578.05468161 0 -17226.22641351 0 592
0.02550000 0.02547300 68726.29650388 0 -2994.96568345 0 27818.53990798 0 9311.17180973 0 -24992.09953707 0 837
0.02650000 0.02652900 70485.69549424 0 -2183.40349199 0 28907.33074224 0 5689.86579769 0 -14211.40062284 0 723
0.02750000 0.02749970 69810.58366339 0 3372.50544307 0 18783.28957692 0 4882.99401873 0 -10446.15277170 0 826
0.02850000 0.02848090 71818.23399408 0 1178.97417516 0 20825.98069415 0 -1582.26177291 0 -10851.82402170 0 831
0.02950000 0.02946900 63019.70120215 0 -239.72072127 0 13615.37771457 0 -196.28881974 0 -14361.01050140 0 996
0.03050000 0.03053250 61696.60943473 0 2840.34683979 0 17059.48060173 0 -3147.64025776 0 -20275.65360782 0 1041
0.03150000 0.03150510 61192.30770752 0 3990.80506453 0 18217.03486035 0 -5302.18727758 0 -14422.85364503 0 1036
0.03250000 0.03246190 56168.95282034 0 1915.74241190 0 21150.79450538 0 1612.04094918 0 -16249.80775676 0 1059
0.03350000 0.03345080 58338.62559661 0 -2015.64709953 0 18352.47464028 0 5565.82800410 0 -19686.11159738 0 1302
0.03450000 0.03451200 58445.61533355 0 2231.72462678 0 14675.49881440 0 -338.43797660 0 -19287.04207550 0 1339
0.03550000 0.03553350 54988.55065075 0 946.27479268 0 15054.02718555 0 -312.57370200 0 -13941.39982879 0 1365
0.03650000 0.03647120 52928.17437167 0 1893.85015875 0 22678.30916854 0 -6769.46254470 0 -15369.06472719 0 1308
0.03750000 0.03744890 47923.60310361 0 4553.89622419 0 22782.11337943 0 -903.57116831 0 -10127.23767594 0 1579
0.03850000 0.03847530 49039.30614070 0 345.12977822 0 26475.78575563 0 57.83992600 0 -6801.70226523 0 1662
0.03950000 0.03950240 48889.58641641 0 -1068.31778789 0 25779.69339115 0 3311.92552528 0 -16926.34758204 0 1683
0.04050000 0.04050350 47016.16756267 0 3440.91736111 0 29016.40754797 0 1237.20339441 0 -6344.67813841 0 1822
0.04150000 0.04152450 45173.94489505 0 148.60259325 0 25277.91811564 0 -1524.65867429 0 -5895.34321240 0 1887
0.04250000 0.04250150 45327.28952828 0 -528.40956865 0 24773.50654270 0 5096.44623313 0 -4530.42219259 0 1920
0.04350000 0.04349210 45185.91807916 0 -692.80358345 0 22633.49211241 0 7686.76223183 0 -2478.78963328 0 2005
0.04450000 0.04448520 43245.05394976 0 753.65811555 0 19311.42782663 0 2369.92153442 0 3442.46618584 0 2151
0.04550000 0.04548030 42805.12181788 0 1953.23275812 0 17224.90826480 0 306.50472565 0 -501.83239529 0 2274
0.04650000 0.04648670 41407.77433981 0 2248.57496112 0 18702.44312272 0 -1990.83295007 0 1361.87829321 0 2311
0.04750000 0.04749250 38377.02091889 0 1229.09677984 0 16817.27077631 0 1187.92660181 0 2343.74529796 0 2568
0.04850000 0.04851840 37761.66516288 0 -456.77367856 0 17340.79550554 0 3654.77600469 0 -904.35876216 0 2493
0.04950000 0.04949480 35920.21141535 0 573.34965200 0 15963.65964101 0 1809.57651791 0 1899.32047589 0 2644
0.05050000 0.05050630 37797.25517805 0 255.40888783 0 14245.12326066 0 642.10319024 0 -1064.42046153 0 2829
0.05150000 0.05149060 35552.44792532 0 335.07669739 0 13598.68116425 0 345.76908034 0 -1866.32281986 0 2784
0.05250000 0.05249300 35984.36131922 0 1684.48420535 0 15285.58197557 0 -2173.12193206 0 81.58439778 0 3055
0.05350000 0.05348950 33165.71999485 0 759.33713957 0 14672.64282553 0 519.93057708 0 -350.75168247 0 3009
0.05450000 0.05448610 33337.51871002 0 -605.27850912 0 14839.82802022 0 2626.58705736 0 -1355.45231825 0 3336
0.05550000 0.05550870 34078.64782209 0 -476.89302170 0 13291.99189778 0 3205.92439987 0 922.80735182 0 3349
0.05650000 0.05647670 35905.71177954 0 -818.09142140 0 10055.05804951 0 4939.09223090 0 4904.84233359 0 3324
0.05750000 0.05747970 34798.46686334 0 -661.36683518 0 8557.56422321 0 1908.06419567 0 7132.33789993 0 3639
0.05850000 0.05849280 35367.79726023 0 1223.24200266 0 9240.74971491 0 -1862.98350980 0 4063.77558019 0 3846
0.05950000 0.05951020 33722.19844182 0 1316.53397759 0 8750.55217889 0 -1650.09150860 0 3491.08390408 0 3787
0.06050000 0.06049470 33860.49421062 0 566.59523832 0 13160.83610116 0 -1146.72347006 0 2639.48294557 0 3930
0.06150000 0.06148310 31456.63034692 0 621.31159126 0 12495.50053991 0 -2033.51899912 0 2933.67176844 0 4083
0.06250000 0.06249100 31691.48050871 0 514.12523047 0 14150.76578219 0 730.47517512 0 47.48257251 0 4303
0.06350000 0.06350600 31858.33616622 0 451.66365540 0 13416.55695085 0 985.40623404 0 852.10624885 0 4470
0.06450000 0.06451750 31378.85957304 0 -16.11337937 0 14009.83371597 0 925.00646325 0 282.96588507 0 4479
0.06550000 0.06550280 30934.20407495 0 95.77075358 0 12776.59575226 0 467.05194313 0 2133.75322393 0 4636
0.06650000 0.06648880 30950.02185947 0 304.73730792 0 13110.08737583 0 143.84078104 0 284.62455553 0 4653
0.06750000 0.06749660 30182.96915611 0 378.21970466 0 12885.56271227 0 768.51035614 0 786.72607285 0 5220
0.06850000 0.06852730 29808.06569391 0 500.76249792 0 13374.59588359 0 343.77647888 0 1035.83091448 0 5029
0.06950000 0.06949320 29609.46462164 0 -78.02517658 0 11638.92357001 0 -109.28013017 0 -680.13617435 0 5040
0.07050000 0.07048030 30107.17560530 0 132.65628924 0 10701.84066767 0 1323.69591891 0 395.51711111 0 5475
0.07150000 0.07148790 28911.39503410 0 -168.68898267 0 10158.62059981 0 385.52883926 0 -65.15466273 0 5509
0.07250000 0.07249820 28996.52547160 0 330.21492557 0 10226.61510409 0 1246.05695991 0 -1335.76796418 0 5916
0.07350000 0.07351270 28910.18673111 0 877.50477758 0 10356.18912225 0 -1012.36127670 0 -2768.01342935 0 5721
0.07450000 0.07449140 27457.25731578 0 456.28596354 0 9691.04029874 0 96.40796864 0 -1744.44898707 0 6028
0.07550000 0.07549160 26904.51362348 0 546.35616334 0 10768.23142435 0 516.81315538 0 -929.35525553 0 6183
0.07650000 0.07648840 26595.29790532 0 754.64123480 0 9815.24286091 0 -678.77628426 0 -1422.46919557 0 6330
0.07750000 0.07749960 25936.66293334 0 127.10248934 0 9316.04895995 0 2005.94772194 0 -506.72492392 0 6583
0.07850000 0.07848650 25033.40152998 0 26.22083383 0 9351.97949687 0 1520.40764470 0 -625.78121384 0 6549
0.07950000 0.07947320 24629.93817907 0 165.78026785 0 8415.44582316 0 532.14212642 0 918.77821059 0 6828
0.08050000 0.08048110 23957.79218281 0 986.46185147 0 8856.21278255 0 -424.26263910 0 477.99697125 0 7147
0.08150000 0.08149960 23692.62460070 0 834.59354479 0 8812.42827625 0 351.56014701 0 578.36410938 0 7386
0.08250000 0.08250610 23149.32764083 0 318.18242476 0 8147.45520589 0 879.76759953 0 1483.77409514 0 7227
0.08350000 0.08350160 22565.60745385 0 -462.58122209 0 8252.54461177 0 705.21175664 0 1225.30710230 0 7798
0.08450000 0.08449610 21715.40153606 0 505.87361955 0 7778.49439745 0 -501.26229598 0 734.10337944 0 7371
0.08550000 0.08548940 21786.14218348 0 842.42774195 0 8157.85759612 0 -307.04736354 0 286.48863749 0 8256
0.08650000 0.08650700 20978.77609875 0 656.95652929 0 8441.64402876 0 -885.98926144 0 853.83631903 0 8037
0.08750000 0.08749060 20810.93182971 0 69.09109416 0 9504.79687062 0 200.67605803 0 420.23899016 0 8155
0.08850000 0.08849210 20025.64473587 0 57.27949311 0 8980.42632930 0 493.18204439 0 -1037.26549966 0 8718
0.08950000 0.08949900 19845.71743699 0 302.38221556 0 8439.01871592 0 609.50866802 0 521.24433196 0 8571
0.09050000 0.09049190 19680.07008246 0 138.52644482 0 8174.97156020 0 598.01441127 0 -444.24137971 0 8932
0.09150000 0.09150830 19652.71849673 0 396.49363961 0 8278.53411050 0 395.69506118 0 654.48719737 0 9285
0.09250000 0.09250820 18986.94355258 0 183.40940839 0 7488.55660417 0 324.45241879 0 937.21252030 0 9204
0.09350000 0.09350330 19742.02307182 0 -264.22400733 0 7369.20922307 0 1318.59907724 0 576.71422658 0 9349
0.09450000 0.09448040 19418.08802640 0 -270.45885073 0 6265.29263237 0 416.56465063 0 815.52432678 0 9564
0.09550000 0.09549270 18995.95090209 0 281.55985978 0 5866.17917220 0 -310.67666632 0 189.65853173 0 10155
0.09650000 0.09649430 18839.64043426 0 410.76040248 0 5586.72066115 0 -230.60242757 0 122.05947207 0 9913
0.09750000 0.09749140 18099.82947091 0 261.03628437 0 6141.13400848 0 107.13462345 0 35.40009190 0 10476
0.09850000 0.09850240 17735.58104411 0 316.75223341 0 5697.36826077 0 497.29356990 0 8.29520869 0 10575
0.09950000 0.09950330 17919.79232630 0 295.04452108 0 5422.96265311 0 763.99020452 0 -150.74788028 0 10882
0.10050000 0.10051200 17086.61249601 0 317.75951872 0 4827.85146437 0 958.24358296 0 617.55816281 0 10875
0.10150000 0.10150300 17213.70400077 0 -49.43573937 0 5366.02961342 0 186.45762728 0 883.74621172 0 11118
0.10250000 0.10250800 16434.56826758 0 418.26616092 0 4770.70971780 0 75.14491180 0 585.91600303 0 11575
0.10350000 0.10349800 16066.80477755 0 563.10983344 0 4975.87956448 0 -774.21684159 0 1614.06211053 0 11364
0.10450000 0.10450100 15440.46444897 0 17.67901050 0 4981.05329816 0 175.00181654 0 1118.80068655 0 12093
0.10550000 0.10551000 15434.20324259 0 156.86189338 0 5310.82115163 0 217.83066503 0 650.38226260 0 12067
0.10650000 0.10649700 15296.67639388 0 339.66715027 0 5453.68650262 0 -176.14970437 0 -138.00687454 0 12054
0.10750000 0.10749900 15175.40671258 0 206.79666187 0 5675.01465556 0 -422.71491282 0 229.96751928 0 12807
0.10850000 0.10850100 14929.46213248 0 112.07010176 0 5343.03890301 0 343.67102698 0 -73.29840515 0 12736
0.10950000 0.10950300 14718.11895602 0 -117.04831006 0 5392.18388074 0 869.55743931 0 129.09728772 0 12933
0.11050000 0.11050200 14910.67851337 0 -40.45991557 0 4666.64187717 0 418.70115000 0 496.83551323 0 13428
0.11150000 0.11150900 14654.84781795 0 197.75745710 0 4611.80689084 0 623.59089007 0 784.69722229 0 13453
0.11250000 0.11250000 14336.40505881 0 39.32433046 0 4108.27408371 0 144.58114123 0 2120.00053905 0 13668
0.11350000 0.11349100 14822.69208699 0 -9.99533493 0 4385.03038990 0 432.47800093 0 1088.70295768 0 13791
0.11450000 0.11448600 14295.65229454 0 478.44294490 0 3942.68165205 0 -407.98569944 0 927.38682012 0 14205
0.11550000 0.11549300 14209.20370832 0 235.91236996 0 4480.98063140 0 -365.92247566 0 1484.92747526 0 14776
0.11650000 0.11649800 13906.02950508 0 -161.55999507 0 4219.27318965 0 -127.01021893 0 1303.13279904 0 14553
0.11750000 0.11747300 14055.52953791 0 -147.71174442 0 4914.86026379 0 1065.96708935 0 1106.38811954 0 14568
0.11850000 0.11849100 14119.78928751 0 -59.87262116 0 3711.35753806 0 89.07137261 0 687.37610614 0 16015
0.11950000 0.11950300 13877.90899927 0 306.30590489 0 3717.10246952 0 -194.50712207 0 1169.29676671 0 15270
0.12050000 0.12050700 14006.09896129 0 355.24327420 0 4126.47552048 0 334.40334309 0 1389.12003321 0 15999
0.12150000 0.12150000 13649.10035240 0 -15.08588245 0 4253.84163956 0 -281.84875404 0 1201.74519412 0 15670
0.12250000 0.12250700 13278.15133633 0 224.19622484 0 4028.17458045 0 187.43964807 0 801.51789829 0 16887
0.12350000 0.12352200 13346.47537778 0 120.83579068 0 4371.15687473 0 87.64293879 0 800.97416194 0 16407
0.12450000 0.12449800 13026.05539559 0 -0.15312714 0 3765.62132661 0 -242.73269107 0 641.04647436 0 16306
0.12550000 0.12549900 12854.25668041 0 237.21514027 0 4232.14710871 0 -4.56170626 0 441.26565899 0 17523
0.12650000 0.12650100 12736.28237089 0 271.27280755 0 3776.36423859 0 81.19609314 0 729.48985896 0 17154
0.12750000 0.12750600 12766.59979121 0 -162.05539929 0 3764.99520597 0 1090.51651062 0 909.96418955 0 18007
0.12850000 0.12850300 12813.28422469 0 -65.79033994 0 3356.51190539 0 386.72176384 0 928.17221706 0 17496
0.12950000 0.12949900 12565.58211298 0 149.81968389 0 3089.88337512 0 -348.74260414 0 838.32390563 0 18405
0.13050000 0.13049000 12495.93992281 0 111.94268072 0 3428.19722606 0 -219.73319300 0 1261.96262101 0 18100
0.13150000 0.13148800 12357.86384546 0 220.39116890 0 3326.50205310 0 -51.65418364 0 1043.75738205 0 19059
0.13250000 0.13249300 12354.45862796 0 63.71985786 0 3871.24897655 0 101.51096168 0 1502.51377597 0 18957
0.13350000 0.13349100 12303.60005691 0 171.67019567 0 3978.64514268 0 -155.49980638 0 351.41624911 0 19468
0.13450000 0.13450700 12020.41777576 0 184.15306395 0 3790.32563035 0 -242.19005319 0 524.33429223 0 19953
0.13550000 0.13551000 11900.02686027 0 -45.32333508 0 3951.61210956 0 208.30923752 0 863.01063405 0 19956
0.13650000 0.13649900 11917.71202213 0 -101.51985918 0 3793.73084785 0 460.78524447 0 999.61148330 0 19723
0.13750000 0.13749600 12042.05738375 0 233.00585205 0 3737.90724999 0 234.92375843 0 379.31376809 0 20946
0.13850000 0.13851100 11521.60833485 0 316.88075291 0 3580.02598828 0 -538.16167219 0 263.13433773 0 20955
0.13950000 0.13949800 11417.36474105 0 284.19945257 0 3830.33144369 0 -131.93130745 0 522.40649974 0 20506
0.14050000 0.14048300 11068.27502441 0 -117.75681499 0 3701.59225303 0 201.45925806 0 107.26643833 0 21447
0.14150000 0.14148400 11184.60164805 0 -50.53694277 0 3586.32014837 0 695.58377877 0 114.77670045 0 21771
0.14250000 0.14249400 11000.39036586 0 276.20597910 0 3169.75220236 0 -1.61646773 0 242.16478867 0 22470
0.14350000 0.14350900 10865.93919746 0 3.45681204 0 3154.59349220 0 142.15135378 0 96.35656084 0 22519
0.14450000 0.14449900 10846.35370455 0 135.68034207 0 3331.91744738 0 -125.00333752 0 -103.75609847 0 22218
0.14550000 0.14550500 10372.18265993 0 225.60115168 0 2915.28359394 0 -151.79800542 0 71.99893021 0 23559
0.14650000 0.14650700 10496.07765408 0 95.57489865 0 3211.46062445 0 234.71724846 0 411.84787516 0 23044
0.14750000 0.14750500 10510.68713561 0 27.08982336 0 3181.50569502 0 299.52952206 0 105.20024022 0 23649
0.14850000 0.14849900 10264.06151202 0 39.78030007 0 3107.46967583 0 -12.43025218 0 412.34987013 0 23640
0.14950000 0.14949500 10277.96798090 0 49.00832965 0 2934.86908686 0 83.28843453 0 443.12424867 0 24457
0.15050000 0.15050000 10093.85555987 0 201.33293547 0 2806.27269565 0 7.76002933 0 456.54410100 0 24591
0.15150000 0.15149900 9880.59008320 0 127.75716986 0 3146.83838396 0 227.34989563 0 607.27330750 0 25020
0.15250000 0.15250500 9821.89951190 0 36.23601788 0 2847.58567312 0 41.60890186 0 537.30377707 0 25297
0.15350000 0.15350100 9754.01485335 0 156.37857218 0 2994.17479422 0 -55.28919840 0 586.65856014 0 25452
0.15450000 0.15450400 9670.70785489 0 93.43697129 0 2916.82143410 0 82.14296330 0 654.64427676 0 26061
0.15550000 0.15549900 9520.81237744 0 1.01078170 0 2710.37737701 0 21.65740299 0 394.14074416 0 26128
0.15650000 0.15649500 9558.55536883 0 16.51453596 0 2825.99000343 0 101.98362783 0 -78.04681618 0 26331
0.15750000 0.15749700 9417.98579351 0 35.87056115 0 2561.37164995 0 194.94650497 0 186.00945672 0 27345
0.15850000 0.15849900 9396.69769185 0 52.44880762 0 2437.45468665 0 15.92565302 0 74.02316725 0 26980
0.15950000 0.15949700 9286.14895339 0 111.59776514 0 2318.39290445 0 62.55208795 0 -98.28292533 0 27777
0.16050000 0.16050000 9236.04831785 0 205.56968512 0 2376.01797221 0 81.23541791 0 -216.09400411 0 28224
0.16150000 0.16150500 8913.67308173 0 137.85199207 0 2351.37957591 0 8.73489916 0 176.59897339 0 28075
0.16250000 0.16249700 8912.08031870 0 141.49667325 0 2586.98767320 0 -67.30137775 0 -32.29090863 0 28590
0.16350000 0.16349900 8564.92388684 0 189.14115836 0 2490.82872483 0 -201.73387237 0 112.68304091 0 29163
0.16450000 0.16449100 8609.45534409 0 144.45152327 0 3050.19611439 0 -246.44218123 0 -273.56858322 0 28996
0.16550000 0.16550500 8273.23954652 0 72.23531821 0 2939.99888225 0 125.75468228 0 114.25822862 0 30777
0.16650000 0.16650700 8403.71429964 0 -20.88628600 0 2972.51321709 0 22.89448556 0 371.04568031 0 29211
0.16750000 0.16749900 8347.72593319 0 41.65844229 0 2863.55724166 0 180.02945541 0 270.11723052 0 30922
0.16850000 0.16850800 8408.64637273 0 49.22824079 0 2989.01204511 0 236.71644067 0 642.52060400 0 30867
0.16950000 0.16949900 8390.97219544 0 -2.04478917 0 2947.06196242 0 330.84763695 0 692.31147460 0 30852
0.17050000 0.17049200 8385.49089373 0 110.16757379 0 2679.42285148 0 25.57933479 0 1021.15772242 0 31257
0.17150000 0.17149500 8241.32936317 0 61.33796314 0 3005.48890398 0 21.72770426 0 828.21150812 0 32608
0.17250000 0.17250900 8204.42119930 0 47.66711333 0 2672.39272502 0 -24.08817906 0 922.54482053 0 32361
0.17350000 0.17350400 7980.53364094 0 108.00526068 0 2708.54295339 0 251.62470258 0 865.80401086 0 32508
0.17450000 0.17449800 8027.64647274 0 -156.26543108 0 2150.32894395 0 439.94091954 0 1329.56168067 0 32791
0.17550000 0.17549800 7986.67401702 0 -23.23676484 0 1943.84094857 0 485.22042618 0 735.20293516 0 33633
0.17650000 0.17650100 8132.25255744 0 193.86122920 0 1838.91631127 0 -123.37762078 0 895.55133187 0 33984
0.17750000 0.17750300 7816.31428085 0 206.80105570 0 1811.18026550 0 -274.83400599 0 882.92676260 0 34069
0.17850000 0.17849800 7550.71830041 0 187.55388763 0 2070.74571560 0 -164.97949251 0 705.73901612 0 34536
