### header ###
fiducial parameters:
Omega_m = 0.31
Omega_nu = 0
Omega_de = 0.69
Omega_k = 0
H_0 = 100
w_de = -1
zeff = 0
beta = 0
fgrowth = 0
b_1 = 2
gamma = 0.55
Lx = 3500 Ly = 3500 Lz = 3500
nx = 700 ny = 700 nz = 700
xoffset = -983.599254 yoffset = -42.9823471 zoffset = 800.977702
bins = 400 dk = 0.001
kx_ny = 0.628318531 ky_ny = 0.628318531 kz_ny = 0.628318531
############################
A(data) = 9.07469804 (not used)
A(ran) = 9.06978171 (used)
Ngal = 503847
weighted Ngal = 0
Nran = 25229228
weighted Nran = 0
SN(data) = 6743.61265
SN(ran) = 134.634661
SN(data+ran) = 6878.24731
############################
13 columns: k_central k_mean P_0(k) sigma^{lin}_{P_0(k)} P^img_1(k) sigma^{lin}_{P_1(k)} P_2(k) sigma^{lin}_{P_2(k)} P^img_3(k) sigma^{lin}_{P_3(k)} P_4(k) sigma^{lin}_{P_4(k)} N_modes
### header ###
0.00050000 0 0 0 0 0 0 0 0 0 0 0 0
0.00150000 0.00179520 5391.12936177 0 -10051.08163424 0 -44523.43850678 0 61625.09986722 0 32307.71503052 0 3
0.00250000 0.00253879 22171.70068109 0 -18730.23409135 0 -10086.44097337 0 -19600.87131415 0 9403.92554061 0 6
0.00350000 0.00331552 63206.21924458 0 -53017.47894676 0 -64088.60996004 0 -50583.84689136 0 -80001.52087573 0 7
0.00450000 0.00420575 78999.94754776 0 -29618.14243398 0 -53782.88396422 0 -51063.54317599 0 -64830.61783791 0 24
0.00550000 0.00557378 72672.50420373 0 13004.08625042 0 -27318.96154698 0 -47003.09592129 0 10014.55793040 0 45
0.00650000 0.00659388 54990.08849091 0 9570.23196949 0 -4394.55401433 0 -17622.76948370 0 310.89306240 0 40
0.00750000 0.00754703 74899.51644887 0 -894.84282694 0 -7242.31544061 0 4489.10921511 0 -4190.24096431 0 57
0.00850000 0.00846663 78358.33866329 0 1402.30152031 0 14073.98361985 0 3151.79242619 0 -31511.55320983 0 75
0.00950000 0.00948925 64835.01166694 0 3072.97811792 0 10924.80552193 0 -23752.71021272 0 -13163.36255285 0 112
0.01050000 0.01054430 72833.64788350 0 1867.49816913 0 29723.15494786 0 -9104.59593776 0 -23729.97214748 0 105
0.01150000 0.01145670 52845.24084868 0 4946.30909509 0 25327.89792088 0 -10094.28395820 0 -14643.64355391 0 144
0.01250000 0.01249090 57910.33711166 0 8785.56001171 0 54802.25229977 0 -10080.46536589 0 -21962.99380204 0 169
0.01350000 0.01339930 62176.74510226 0 -3130.30660222 0 53862.30242399 0 19168.18900017 0 6126.76618754 0 180
0.01450000 0.01448870 63509.50329355 0 -9041.83009003 0 35820.58134203 0 22208.60884496 0 -16818.91846220 0 267
0.01550000 0.01550050 76316.30662041 0 2789.96060536 0 46056.11591906 0 -10837.18158645 0 -17620.13318628 0 238
0.01650000 0.01653350 70524.80057263 0 10322.41156157 0 47234.10148268 0 -14339.15120196 0 608.94735636 0 315
0.01750000 0.01747870 65511.66133795 0 -9369.09346095 0 41060.11261761 0 20448.66062598 0 8824.74198211 0 297
0.01850000 0.01844180 74089.62391245 0 -1584.76625546 0 42291.48320398 0 15103.01837927 0 -18367.96288762 0 388
0.01950000 0.01947590 78004.52558044 0 3270.12922661 0 32453.04092577 0 1538.64203519 0 -8807.22158884 0 399
0.02050000 0.02045430 78420.18180692 0 -3430.82253890 0 32283.21943366 0 -256.10750665 0 -8681.63497052 0 462
0.02150000 0.02154770 76724.27364609 0 -323.30782633 0 27840.39920741 0 2107.74175605 0 -13336.47941673 0 571
0.02250000 0.02255340 77562.50637977 0 -1256.89873305 0 30297.31855668 0 5989.45903028 0 -23919.78556168 0 510
0.02350000 0.02348930 72369.54969194 0 6343.39294342 0 22080.52872866 0 -7938.00137591 0 -18330.94487802 0 555
0.02450000 0.02439640 71445.19790922 0 9502.02875833 0 27262.17130673 0 -7346.95447902 0 -18169.80119825 0 592
0.02550000 0.02547300 62640.07437374 0 257.75848791 0 31417.63511425 0 8839.49426309 0 -4311.81821364 0 837
0.02650000 0.02652900 67047.74396773 0 -5766.21956171 0 23682.95817683 0 14935.39380167 0 -16026.27170473 0 723
0.02750000 0.02749970 60606.50045175 0 -52.07225648 0 10117.50534463 0 6251.07859545 0 -4250.93072783 0 826
0.02850000 0.02848090 67936.83527246 0 2903.38730184 0 19213.33559348 0 -3282.90428452 0 -8770.01684151 0 831
0.02950000 0.02946900 61586.87355464 0 4841.01098232 0 10914.54593114 0 -3953.34767203 0 -5883.95221063 0 996
0.03050000 0.03053250 58614.11867695 0 108.77066569 0 21231.31142240 0 3315.87997141 0 -1494.25337739 0 1041
0.03150000 0.03150510 59175.86971876 0 -3803.38628714 0 8429.30835375 0 4988.79742183 0 331.90105746 0 1036
0.03250000 0.03246190 59430.05272829 0 1582.50343350 0 17108.03241254 0 5336.72277377 0 -5976.68397236 0 1059
0.03350000 0.03345080 55007.55396132 0 5008.63555992 0 8177.33324331 0 -5223.65856819 0 3147.15693656 0 1302
0.03450000 0.03451200 55912.02366767 0 2485.55612999 0 19707.42166819 0 -5662.89867201 0 -11187.34779119 0 1339
0.03550000 0.03553350 50287.70281457 0 808.52056331 0 18523.28474392 0 -765.72576699 0 -8381.71220076 0 1365
0.03650000 0.03647120 47827.70778497 0 -687.35853082 0 19725.43636722 0 -827.10865703 0 -5848.18644231 0 1308
0.03750000 0.03744890 49696.95250114 0 987.35379876 0 17391.76392231 0 4017.11311586 0 -12469.57694862 0 1579
0.03850000 0.03847530 49523.50610008 0 -246.65857731 0 11686.48676929 0 4593.33083976 0 -7909.89185467 0 1662
0.03950000 0.03950240 52510.65076785 0 -2781.97482110 0 10125.46915976 0 2339.97758957 0 -13377.23218101 0 1683
0.04050000 0.04050350 50245.63190158 0 1997.01726443 0 9608.01889917 0 -1471.50432757 0 -10883.06414612 0 1822
0.04150000 0.04152450 47036.15948476 0 3113.80777421 0 13017.37758325 0 -6027.61943542 0 -9019.52042312 0 1887
0.04250000 0.04250150 44221.58245225 0 2464.01538316 0 15751.76723592 0 -2324.68706453 0 -3357.65430094 0 1920
0.04350000 0.04349210 43065.56603379 0 208.73214356 0 15830.41677560 0 4607.97327501 0 -9597.26500261 0 2005
0.04450000 0.04448520 41200.27576375 0 -339.45954185 0 14241.38850599 0 3023.21800413 0 -4064.08314822 0 2151
0.04550000 0.04548030 41801.02203822 0 1708.38663529 0 14307.07625002 0 1459.12471427 0 -4662.73136933 0 2274
0.04650000 0.04648670 41579.24351780 0 122.87123198 0 15170.35380919 0 -843.09889934 0 1373.30224869 0 2311
0.04750000 0.04749250 39563.68429485 0 431.68601325 0 10833.07335630 0 2382.11440999 0 -22.60449284 0 2568
0.04850000 0.04851840 40068.97463359 0 561.29957588 0 12542.84404773 0 -275.02403909 0 -1536.60988926 0 2493
0.04950000 0.04949480 39597.07739550 0 61.90542616 0 11665.17669848 0 1479.79767987 0 -2607.22125590 0 2644
0.05050000 0.05050630 36956.60583840 0 1867.64096857 0 13908.00672814 0 194.47856218 0 -852.98721157 0 2829
0.05150000 0.05149060 35644.93802646 0 1753.48929030 0 13007.60131365 0 -3150.80381466 0 -440.65381830 0 2784
0.05250000 0.05249300 35945.25624083 0 -258.62956451 0 13480.26747182 0 3418.09141928 0 -283.13834286 0 3055
0.05350000 0.05348950 35661.96411396 0 -558.65339234 0 12274.05155667 0 108.41421631 0 -3736.18267209 0 3009
0.05450000 0.05448610 34406.20777646 0 807.60005612 0 10978.90454189 0 -106.53563471 0 -1808.78562868 0 3336
0.05550000 0.05550870 34926.98636254 0 77.00734608 0 11872.78512027 0 96.06052661 0 -1206.25985345 0 3349
0.05650000 0.05647670 34609.09283204 0 510.68046851 0 11520.07049468 0 883.12558336 0 -4910.29068159 0 3324
0.05750000 0.05747970 35147.88611715 0 161.43367248 0 13723.35606305 0 -1281.91060482 0 -2910.36250543 0 3639
0.05850000 0.05849280 33948.37079127 0 516.04972759 0 12078.52616472 0 -812.65295951 0 -4972.30957839 0 3846
0.05950000 0.05951020 33724.39535634 0 -458.55867161 0 13294.29865802 0 1689.31741728 0 -800.20743878 0 3787
0.06050000 0.06049470 32888.13984572 0 -486.39028316 0 12329.96303111 0 2483.07361659 0 -291.52945785 0 3930
0.06150000 0.06148310 34187.39509064 0 1080.65675827 0 12025.69037060 0 476.53053081 0 -196.65899984 0 4083
0.06250000 0.06249100 33095.52857605 0 2319.51333085 0 13011.44591405 0 -1225.49384004 0 -649.63091783 0 4303
0.06350000 0.06350600 30681.88844276 0 1139.68235903 0 14695.93011940 0 -1351.01455092 0 2820.16817996 0 4470
0.06450000 0.06451750 30276.22817733 0 -171.98655136 0 16316.37426660 0 2483.99632068 0 1062.65743763 0 4479
0.06550000 0.06550280 29963.93677884 0 -848.97894104 0 14066.73380194 0 87.54418748 0 2269.69829419 0 4636
0.06650000 0.06648880 29139.10522371 0 268.19932415 0 12573.82054241 0 2108.51067613 0 2373.64530453 0 4653
0.06750000 0.06749660 30017.54149304 0 147.53159743 0 11879.59555527 0 838.61609527 0 2730.47914483 0 5220
0.06850000 0.06852730 29524.99325849 0 676.42668419 0 10714.14338896 0 2069.76808864 0 2383.93784904 0 5029
0.06950000 0.06949320 30002.16309142 0 -57.08374802 0 9469.62426921 0 1657.81366312 0 2913.33932460 0 5040
0.07050000 0.07048030 29221.92890097 0 6.12922673 0 10106.39994176 0 -261.45809195 0 2468.40921219 0 5475
0.07150000 0.07148790 28108.75231558 0 382.26532275 0 8478.29954747 0 1178.74349913 0 3630.53305300 0 5509
0.07250000 0.07249820 28005.71702476 0 837.42756451 0 9754.47620539 0 -1357.17689614 0 1034.06349675 0 5916
0.07350000 0.07351270 27286.22752069 0 811.99058979 0 9627.54946922 0 -992.00576525 0 2628.76200273 0 5721
0.07450000 0.07449140 26706.46177984 0 567.51904087 0 12351.27310191 0 -457.52612179 0 681.76408800 0 6028
0.07550000 0.07549160 26189.30810271 0 -103.10053917 0 11918.48094221 0 -1028.94029210 0 910.10369362 0 6183
0.07650000 0.07648840 26686.68954920 0 -454.78547093 0 11873.00481172 0 1764.08940285 0 85.46447836 0 6330
0.07750000 0.07749960 26690.31445815 0 154.31786637 0 11365.40771274 0 392.24370848 0 -162.32122595 0 6583
0.07850000 0.07848650 27116.29618285 0 583.78060212 0 12469.46710289 0 -1115.07691645 0 1845.60591597 0 6549
0.07950000 0.07947320 25480.91301694 0 985.78630025 0 12619.95574725 0 407.44416002 0 -71.56547898 0 6828
0.08050000 0.08048110 25050.97684611 0 98.11057739 0 12796.80736581 0 568.23084118 0 2846.67395360 0 7147
0.08150000 0.08149960 24838.31552093 0 230.08285729 0 12159.37261892 0 1848.33008997 0 1506.87465128 0 7386
0.08250000 0.08250610 25122.26672216 0 -122.87233044 0 10797.07691195 0 1148.20638736 0 1517.47476382 0 7227
0.08350000 0.08350160 24278.21216501 0 329.76565655 0 9804.26927291 0 215.95999232 0 903.51844236 0 7798
0.08450000 0.08449610 23447.66863214 0 538.50548931 0 9255.61184161 0 -55.68694978 0 1436.34271074 0 7371
0.08550000 0.08548940 22863.06967936 0 498.90830207 0 8822.09470012 0 1382.10089133 0 1503.72207895 0 8256
0.08650000 0.08650700 22363.38147263 0 441.71602647 0 8010.24690978 0 767.02743884 0 408.69530283 0 8037
0.08750000 0.08749060 21957.72120720 0 125.58442141 0 7363.33247674 0 113.01807037 0 -98.84632406 0 8155
0.08850000 0.08849210 21241.52707490 0 532.43431605 0 7003.87332359 0 -31.54274940 0 -884.58543306 0 8718
0.08950000 0.08949900 20587.94500631 0 352.76844999 0 6756.46779534 0 171.17698836 0 -155.13731548 0 8571
0.09050000 0.09049190 20241.60143282 0 124.37392151 0 6775.65784364 0 702.12728866 0 311.39505736 0 8932
0.09150000 0.09150830 19551.55058326 0 143.20257737 0 6028.01488004 0 612.27128803 0 -96.35590176 0 9285
0.09250000 0.09250820 19913.93163272 0 506.43163583 0 6457.28099194 0 -14.07848729 0 -172.61267200 0 9204
0.09350000 0.09350330 19247.60745993 0 499.57067180 0 6499.03335232 0 -33.94990863 0 494.28599393 0 9349
0.09450000 0.09448040 18253.61348705 0 46.50110095 0 6165.25612987 0 195.39906936 0 2101.41464225 0 9564
0.09550000 0.09549270 18745.17311006 0 224.38076566 0 7207.86782100 0 189.96170594 0 318.10443430 0 10155
0.09650000 0.09649430 18340.50145617 0 595.32099408 0 7231.61646692 0 -174.41084653 0 -94.80839518 0 9913
0.09750000 0.09749140 17582.67579378 0 349.66530824 0 7189.74327624 0 -1163.46395867 0 1055.86457795 0 10476
0.09850000 0.09850240 17072.33255165 0 66.18853070 0 7773.00211116 0 713.89835663 0 605.37737027 0 10575
0.09950000 0.09950330 17008.73187640 0 -84.67457774 0 6774.85596984 0 653.29207587 0 215.87211574 0 10882
0.10050000 0.10051200 17105.83549802 0 494.35519674 0 7092.25519458 0 703.08514339 0 -173.62874496 0 10875
0.10150000 0.10150300 16543.97461049 0 241.49802512 0 6047.41363521 0 -415.56944835 0 -130.96796043 0 11118
0.10250000 0.10250800 16835.61501252 0 -49.43859535 0 6837.57787928 0 723.55159902 0 -77.92016406 0 11575
0.10350000 0.10349800 15984.20079174 0 11.43307268 0 5775.75417071 0 -274.32102645 0 -925.68640829 0 11364
0.10450000 0.10450100 15911.59276698 0 148.63444851 0 5306.19664657 0 -125.38560064 0 -454.53502267 0 12093
0.10550000 0.10551000 16372.50543249 0 182.25712673 0 5477.27037995 0 179.42640237 0 -1421.30483087 0 12067
0.10650000 0.10649700 15649.83040237 0 61.17681946 0 5477.44613311 0 682.93614190 0 -453.36296878 0 12054
0.10750000 0.10749900 15880.39658085 0 150.78522782 0 5116.64686211 0 220.03087492 0 -1401.31290877 0 12807
0.10850000 0.10850100 15831.73492431 0 -48.61991516 0 4464.45983424 0 369.39909288 0 -966.38315125 0 12736
0.10950000 0.10950300 15705.19264818 0 220.37029821 0 5144.50373817 0 -51.62716160 0 -1011.16285983 0 12933
0.11050000 0.11050200 15076.32586789 0 380.48032970 0 4795.76552786 0 -336.31246181 0 -409.98379320 0 13428
0.11150000 0.11150900 14855.75565046 0 165.88462129 0 4775.80655948 0 101.09860082 0 -716.01068994 0 13453
0.11250000 0.11250000 14962.74538740 0 162.36955807 0 5282.18437091 0 701.51215259 0 -30.28984905 0 13668
0.11350000 0.11349100 14632.32944416 0 72.44830908 0 4778.34399575 0 489.75375928 0 -244.37708159 0 13791
0.11450000 0.11448600 14296.09167744 0 -79.03509818 0 4425.27786384 0 304.70984649 0 777.07832275 0 14205
0.11550000 0.11549300 14584.54655343 0 103.50707821 0 4321.96795871 0 730.50263655 0 481.76797502 0 14776
0.11650000 0.11649800 14072.44577968 0 361.75602728 0 4426.62896627 0 -972.43345382 0 926.74422263 0 14553
0.11750000 0.11747300 13852.42479088 0 498.06358844 0 4668.99257570 0 -255.79005250 0 760.20711772 0 14568
0.11850000 0.11849100 13601.42730740 0 -9.49167031 0 5019.53225592 0 236.43084178 0 855.60263831 0 16015
0.11950000 0.11950300 13515.74764126 0 -64.48625149 0 4848.63427570 0 512.90923828 0 211.29923817 0 15270
0.12050000 0.12050700 13439.18517037 0 203.94286992 0 4823.90800281 0 80.59875209 0 562.29367970 0 15999
0.12150000 0.12150000 13326.26376423 0 236.46709087 0 4973.48492765 0 -250.34719679 0 811.60612975 0 15670
0.12250000 0.12250700 13206.42207737 0 9.30082434 0 4838.60536093 0 137.82233372 0 841.84995343 0 16887
0.12350000 0.12352200 12987.49954583 0 31.20782978 0 4779.21177698 0 237.00972876 0 649.95825810 0 16407
0.12450000 0.12449800 13115.90919930 0 53.38370460 0 4660.01817990 0 40.79461550 0 471.17994550 0 16306
0.12550000 0.12549900 12736.06267944 0 337.61962595 0 4374.66095338 0 136.60414462 0 508.89657392 0 17523
0.12650000 0.12650100 12397.62799821 0 281.91136610 0 4976.95605259 0 -309.36181298 0 774.39039784 0 17154
0.12750000 0.12750600 12466.17173111 0 -128.02409498 0 4555.02763517 0 521.37834374 0 719.20280673 0 18007
0.12850000 0.12850300 12470.12617724 0 -58.48933393 0 4240.03403183 0 419.27564314 0 428.20280528 0 17496
0.12950000 0.12949900 12358.30322837 0 68.83932776 0 3939.80369403 0 121.99026926 0 27.88301935 0 18405
0.13050000 0.13049000 12526.03765168 0 -13.41633726 0 3947.61372514 0 -87.69105122 0 76.05586240 0 18100
0.13150000 0.13148800 12259.33222941 0 342.25401712 0 3967.32004835 0 -9.95183602 0 -455.38962242 0 19059
0.13250000 0.13249300 12118.72970037 0 144.35376058 0 3820.08283747 0 -255.47040144 0 184.87475037 0 18957
0.13350000 0.13349100 11829.83544148 0 -64.21251594 0 3672.47215112 0 732.29641725 0 -295.50147930 0 19468
0.13450000 0.13450700 11912.21973584 0 -17.11692992 0 4070.00383284 0 161.06568930 0 93.26868764 0 19953
0.13550000 0.13551000 11623.65501413 0 339.03773427 0 3418.02551185 0 -35.02529829 0 18.94717940 0 19956
0.13650000 0.13649900 11558.84603590 0 58.85830573 0 3480.40689954 0 130.70652760 0 341.84648947 0 19723
0.13750000 0.13749600 11420.98965000 0 -47.62031905 0 3405.73377513 0 233.73522767 0 361.14198967 0 20946
0.13850000 0.13851100 11254.35368394 0 351.19326228 0 3747.73844245 0 -117.11092212 0 341.15775677 0 20955
0.13950000 0.13949800 11069.81286457 0 275.78197460 0 3830.91362603 0 -557.09797686 0 620.14612811 0 20506
0.14050000 0.14048300 10988.19749030 0 -27.50580913 0 3566.18542682 0 634.54360739 0 134.10405590 0 21447
0.14150000 0.14148400 11001.92820602 0 -43.53823219 0 3880.34420265 0 302.37232945 0 583.89923551 0 21771
0.14250000 0.14249400 10914.52396199 0 31.84460545 0 3470.37798477 0 195.40895548 0 671.63521363 0 22470
0.14350000 0.14350900 10986.22026723 0 115.29517227 0 3435.31522909 0 -97.11987879 0 650.66236920 0 22519
0.14450000 0.14449900 10820.36420582 0 77.45639541 0 3135.27162903 0 124.71554172 0 914.64471593 0 22218
0.14550000 0.14550500 10676.64205817 0 -2.60121269 0 3519.55591622 0 218.14262689 0 783.03415800 0 23559
0.14650000 0.14650700 10539.76329923 0 320.21676761 0 3214.98667225 0 -192.25308778 0 1027.87808393 0 23044
0.14750000 0.14750500 10283.21860660 0 281.75758208 0 3845.21553953 0 -143.85066715 0 778.77434076 0 23649
0.14850000 0.14849900 9909.64427768 0 225.00249247 0 3721.10085394 0 -114.42629258 0 1053.85000734 0 23640
0.14950000 0.14949500 10027.91517066 0 9.05174916 0 3934.56405291 0 169.35904160 0 190.40877804 0 24457
0.15050000 0.15050000 9702.16767076 0 -39.40517691 0 3648.78941264 0 57.45195090 0 666.95139188 0 24591
0.15150000 0.15149900 9751.90581541 0 70.59213600 0 3612.68312256 0 39.25413904 0 393.06864988 0 25020
0.15250000 0.15250500 9753.67433160 0 49.39103215 0 3515.00830317 0 230.93855549 0 492.79538743 0 25297
0.15350000 0.15350100 9821.38323699 0 -16.54254662 0 3117.42169859 0 29.23236424 0 -111.59556823 0 25452
0.15450000 0.15450400 9493.03239339 0 54.36880107 0 2999.34852791 0 410.39022238 0 234.58982742 0 26061
0.15550000 0.15549900 9670.05976511 0 100.26014840 0 2596.74197366 0 364.85038137 0 527.74060818 0 26128
0.15650000 0.15649500 9511.64025934 0 24.74692388 0 2684.71741546 0 -13.31824503 0 138.10683415 0 26331
0.15750000 0.15749700 9401.51991921 0 228.81084378 0 2565.51283381 0 -13.75125688 0 248.57868060 0 27345
0.15850000 0.15849900 8974.52761383 0 169.75558467 0 2322.58901117 0 -234.77876207 0 116.13329516 0 26980
0.15950000 0.15949700 8919.08847601 0 105.05777032 0 2756.02926066 0 189.01593424 0 699.77768858 0 27777
0.16050000 0.16050000 8830.50888271 0 65.48068484 0 2541.12708268 0 434.18170814 0 149.03538541 0 28224
0.16150000 0.16150500 8802.58609921 0 42.43702879 0 2246.79546036 0 290.43868979 0 810.39453139 0 28075
0.16250000 0.16249700 8681.20657219 0 124.77156304 0 2569.81878626 0 -143.95502059 0 1105.97070578 0 28590
0.16350000 0.16349900 8559.62932286 0 56.86537472 0 2465.86079135 0 154.06082737 0 933.22731737 0 29163
0.16450000 0.16449100 8525.92865418 0 -116.58146572 0 2151.31755548 0 228.72077029 0 1185.64181071 0 28996
0.16550000 0.16550500 8668.12394624 0 13.84869004 0 2308.55072741 0 147.38440415 0 1028.56132434 0 30777
0.16650000 0.16650700 8627.21739795 0 181.66835364 0 2385.87113381 0 -597.01151980 0 844.00732349 0 29211
0.16750000 0.16749900 8422.11345871 0 317.66395294 0 2608.72614234 0 -441.31618803 0 385.82652118 0 30922
0.16850000 0.16850800 8187.34018893 0 82.30729251 0 3072.23116699 0 -265.62454033 0 118.68720828 0 30867
0.16950000 0.16949900 8213.24181108 0 -10.81944150 0 2970.78863920 0 283.27235464 0 13.68842512 0 30852
0.17050000 0.17049200 8135.05362344 0 9.93552393 0 2869.26921940 0 184.01136297 0 192.87591304 0 31257
0.17150000 0.17149500 8131.50560650 0 13.51552795 0 2506.16318815 0 321.97979150 0 283.10429068 0 32608
0.17250000 0.17250900 8250.08406752 0 12.44442228 0 2501.02240818 0 149.40995934 0 47.73906228 0 32361
0.17350000 0.17350400 8008.22574842 0 67.20053937 0 2428.08484624 0 -92.99451271 0 366.79904455 0 32508
0.17450000 0.17449800 8117.57716847 0 75.82156147 0 2232.59240801 0 40.76638515 0 324.41946507 0 32791
0.17550000 0.17549800 7972.64671783 0 -52.65630620 0 2307.81476105 0 380.76263322 0 262.73999157 0 33633
0.17650000 0.17650100 8077.27477167 0 128.40745656 0 2322.68787233 0 -146.22223637 0 199.88077498 0 33984
0.17750000 0.17750300 7864.30587846 0 58.78525832 0 1859.75404546 0 82.57707361 0 368.03480897 0 34069
0.17850000 0.17849800 7880.62895332 0 3.03179696 0 2078.56673128 0 309.56063374 0 345.45382311 0 34536
