### header ###
fiducial parameters:
Omega_m = 0.31
Omega_nu = 0
Omega_de = 0.69
Omega_k = 0
H_0 = 100
w_de = -1
zeff = 0
beta = 0
fgrowth = 0
b_1 = 2
gamma = 0.55
Lx = 3500 Ly = 3500 Lz = 3500
nx = 700 ny = 700 nz = 700
xoffset = -983.599254 yoffset = -42.9823471 zoffset = 800.977702
bins = 400 dk = 0.001
kx_ny = 0.628318531 ky_ny = 0.628318531 kz_ny = 0.628318531
############################
A(data) = 9.04979441 (not used)
A(ran) = 9.04029584 (used)
Ngal = 501767
weighted Ngal = 0
Nran = 25229228
weighted Nran = 0
SN(data) = 6747.80937
SN(ran) = 134.196964
SN(data+ran) = 6882.00634
############################
13 columns: k_central k_mean P_0(k) sigma^{lin}_{P_0(k)} P^img_1(k) sigma^{lin}_{P_1(k)} P_2(k) sigma^{lin}_{P_2(k)} P^img_3(k) sigma^{lin}_{P_3(k)} P_4(k) sigma^{lin}_{P_4(k)} N_modes
### header ###
0.00050000 0 0 0 0 0 0 0 0 0 0 0 0
0.00150000 0.00179520 16392.38750886 0 -18357.30785221 0 -19339.98771534 0 16785.08597865 0 29112.85209524 0 3
0.00250000 0.00253879 58685.18886155 0 -42749.64972635 0 -15425.74512171 0 -55533.38545079 0 48905.95342956 0 6
0.00350000 0.00331552 72348.56915831 0 -23077.48853614 0 -44160.50822869 0 -70988.23968983 0 -81343.39626227 0 7
0.00450000 0.00420575 120228.34381732 0 -17683.51417008 0 -56210.91388760 0 -24625.43450431 0 22832.09318468 0 24
0.00550000 0.00557378 128538.17297510 0 4968.46497799 0 -14646.27985133 0 -67770.63868931 0 -14270.16808615 0 45
0.00650000 0.00659388 114583.37196777 0 15639.06552124 0 28011.97823113 0 -52154.42107904 0 12390.70771748 0 40
0.00750000 0.00754703 85979.98434885 0 16197.08180837 0 31598.44117894 0 21132.01088626 0 -10444.84560756 0 57
0.00850000 0.00846663 74183.10262512 0 7626.18231404 0 55702.98725144 0 -954.34955198 0 1815.16766535 0 75
0.00950000 0.00948925 68435.09548475 0 7356.51105717 0 44767.62555526 0 22316.80688489 0 3875.47803700 0 112
0.01050000 0.01054430 71745.07674069 0 377.88797057 0 30910.58724390 0 39681.43891292 0 -408.35478108 0 105
0.01150000 0.01145670 71747.49334666 0 -10070.01903737 0 9522.07560329 0 17187.56071803 0 22911.07226154 0 144
0.01250000 0.01249090 84445.98878787 0 -6193.72814200 0 9481.79517563 0 7112.20317839 0 14580.26257012 0 169
0.01350000 0.01339930 79820.60496531 0 5228.04141265 0 -4715.16073426 0 -22526.06299256 0 12921.92164751 0 180
0.01450000 0.01448870 77415.97218153 0 1058.80295112 0 1373.45603271 0 146.38920188 0 -6088.28722979 0 267
0.01550000 0.01550050 73796.88505316 0 4755.30934704 0 14467.23131826 0 2155.84319939 0 8596.46059472 0 238
0.01650000 0.01653350 78187.19902247 0 2522.73890818 0 19876.14470304 0 -9149.83040765 0 -4317.64003711 0 315
0.01750000 0.01747870 67474.16507534 0 9073.16907561 0 31504.85262055 0 -1073.55083826 0 8402.92341041 0 297
0.01850000 0.01844180 63271.46760571 0 2192.76234783 0 39936.61053399 0 -1591.12632298 0 4028.32836447 0 388
0.01950000 0.01947590 57173.38213718 0 2564.23862339 0 37025.36926276 0 438.89518823 0 10323.82857143 0 399
0.02050000 0.02045430 59881.73835284 0 -717.39804146 0 39870.15386987 0 9945.54186087 0 7025.73262303 0 462
0.02150000 0.02154770 63235.43820765 0 -499.52893042 0 37556.69303852 0 5295.57456488 0 -1595.34439885 0 571
0.02250000 0.02255340 66000.58466355 0 927.26489137 0 41065.16552100 0 3776.29833116 0 10633.98896284 0 510
0.02350000 0.02348930 64836.43966138 0 -942.46424445 0 35345.27888644 0 3175.01381263 0 6252.41871330 0 555
0.02450000 0.02439640 60346.93500166 0 -2068.38403249 0 30403.42952782 0 2707.37858870 0 11540.83133686 0 592
0.02550000 0.02547300 63186.00763103 0 2949.61038326 0 29222.69782105 0 8630.34800114 0 2503.68067475 0 837
0.02650000 0.02652900 62469.37411582 0 1983.11079555 0 22428.84952522 0 6504.30594716 0 12110.05188803 0 723
0.02750000 0.02749970 63843.65399148 0 -1527.05331111 0 25715.43364155 0 6989.72519411 0 2964.63727855 0 826
0.02850000 0.02848090 60564.75907595 0 2632.01343622 0 18313.04002471 0 -4005.86491354 0 8941.25534348 0 831
0.02950000 0.02946900 55879.50933283 0 728.35954644 0 15772.30838665 0 6659.13349770 0 5558.30357189 0 996
0.03050000 0.03053250 57863.32314102 0 -945.24004594 0 17708.11961266 0 -2164.92744091 0 -86.50098263 0 1041
0.03150000 0.03150510 54282.57217095 0 4203.51032799 0 18128.82874252 0 -6239.18230334 0 -6435.77319883 0 1036
0.03250000 0.03246190 52283.92918977 0 5192.16579860 0 24465.16959035 0 -4619.60593737 0 -5481.03808835 0 1059
0.03350000 0.03345080 47746.42194787 0 569.64016184 0 24719.46244560 0 1589.74226683 0 470.10455585 0 1302
0.03450000 0.03451200 48519.29647470 0 -1365.81077019 0 24438.80661615 0 4756.04531341 0 -8418.43362690 0 1339
0.03550000 0.03553350 48292.90443379 0 812.93086920 0 20400.98758097 0 6567.70890010 0 -2225.88083417 0 1365
0.03650000 0.03647120 48434.49557437 0 -673.24335505 0 17892.44074057 0 -493.44896950 0 -5056.93472556 0 1308
0.03750000 0.03744890 47254.97217058 0 1549.09934828 0 16149.51860909 0 1025.24178651 0 -2849.43108132 0 1579
0.03850000 0.03847530 45627.93727984 0 2433.57713253 0 20958.23494803 0 -760.70471886 0 -507.11048242 0 1662
0.03950000 0.03950240 44316.70885080 0 -417.65761560 0 18385.20866657 0 -2514.61032447 0 -7033.07031751 0 1683
0.04050000 0.04050350 42166.36892228 0 1931.08785980 0 20706.57839019 0 -1664.06388492 0 -8593.16522295 0 1822
0.04150000 0.04152450 41796.95774637 0 1945.48863445 0 20722.72571188 0 -788.66704682 0 -8154.01299572 0 1887
0.04250000 0.04250150 42295.76718728 0 -2321.32578532 0 19810.67665045 0 2585.44983304 0 -10252.30801935 0 1920
0.04350000 0.04349210 43277.78797606 0 -1085.04070118 0 17087.71095326 0 6201.25257422 0 -8619.87970347 0 2005
0.04450000 0.04448520 44249.48326660 0 -1043.01372649 0 12267.68050457 0 2925.23561670 0 -5229.26070021 0 2151
0.04550000 0.04548030 43252.74315057 0 -643.16979224 0 9611.62183897 0 1600.97948459 0 -8456.83569264 0 2274
0.04650000 0.04648670 44675.90437421 0 1193.48479554 0 10358.40800592 0 -1153.97328796 0 -10373.74246924 0 2311
0.04750000 0.04749250 42174.71719744 0 2786.66523359 0 10088.52804217 0 -1364.15209973 0 -4906.08359030 0 2568
0.04850000 0.04851840 38265.30781574 0 2653.18070758 0 15803.17503560 0 149.27814447 0 -2208.77785466 0 2493
0.04950000 0.04949480 38675.69144738 0 94.52026984 0 11031.80624344 0 3633.40002645 0 2282.95667330 0 2644
0.05050000 0.05050630 37919.73316233 0 -416.00883126 0 12877.43412856 0 3649.95377733 0 414.08872797 0 2829
0.05150000 0.05149060 38450.28801801 0 277.42746357 0 8908.29064116 0 2263.90942444 0 2132.87445812 0 2784
0.05250000 0.05249300 37477.93365311 0 -561.77520787 0 11446.03447549 0 -506.74799152 0 2800.02247385 0 3055
0.05350000 0.05348950 36451.31549966 0 1088.93143679 0 10208.64434334 0 -2495.74981334 0 6349.90679496 0 3009
0.05450000 0.05448610 35593.31053533 0 241.71881502 0 11375.95290242 0 461.64094268 0 4027.06513862 0 3336
0.05550000 0.05550870 35905.71177954 0 311.37418668 0 12200.89430328 0 -109.38129808 0 1662.00976985 0 3349
0.05650000 0.05647670 36292.25888868 0 28.97949938 0 11110.01640022 0 2896.78557372 0 3136.90833034 0 3324
0.05750000 0.05747970 37427.51446496 0 -814.44454330 0 10201.80095462 0 2429.38102581 0 4626.37243408 0 3639
0.05850000 0.05849280 36366.84413650 0 1146.25113344 0 11736.68626599 0 -1524.64768972 0 4235.57429536 0 3846
0.05950000 0.05951020 35631.86638509 0 1872.34236564 0 12267.24112167 0 -1919.82867290 0 2352.01668112 0 3787
0.06050000 0.06049470 33311.48527300 0 804.52547426 0 14292.68645994 0 -1108.57404948 0 6385.71650158 0 3930
0.06150000 0.06148310 32200.17606495 0 429.21997670 0 15042.49338434 0 1003.99982005 0 4917.50754578 0 4083
0.06250000 0.06249100 32548.49686150 0 880.55958721 0 15593.58939075 0 1267.61967589 0 2928.55295762 0 4303
0.06350000 0.06350600 31862.83984098 0 377.79240479 0 15142.89237774 0 1151.06237623 0 4713.11760376 0 4470
0.06450000 0.06451750 30493.61286871 0 702.84458125 0 15702.00712213 0 33.49613594 0 3993.45234652 0 4479
0.06550000 0.06550280 29823.66378698 0 270.73236658 0 14135.49722630 0 71.49902231 0 5406.18921078 0 4636
0.06650000 0.06648880 29747.21116181 0 -257.58712858 0 14305.86794704 0 2079.48943537 0 3314.11145523 0 4653
0.06750000 0.06749660 29872.43528924 0 -31.88832405 0 12568.10856467 0 1170.88952974 0 5151.01758971 0 5220
0.06850000 0.06852730 29312.11224186 0 495.83481866 0 11153.84484482 0 468.88197292 0 1208.57759826 0 5029
0.06950000 0.06949320 29279.26836984 0 796.91316546 0 11707.35745720 0 205.88164698 0 3651.19503403 0 5040
0.07050000 0.07048030 29016.29770225 0 391.44952388 0 11648.91953106 0 -1216.66224368 0 844.68836699 0 5475
0.07150000 0.07148790 27392.66802900 0 -116.07507692 0 10300.18977124 0 1144.98790759 0 993.78306909 0 5509
0.07250000 0.07249820 28132.03960945 0 11.77765872 0 10876.96770834 0 1029.13581749 0 -380.61873532 0 5916
0.07350000 0.07351270 27189.01405334 0 854.35698777 0 10220.74934233 0 -1065.35195329 0 -1216.39861394 0 5721
0.07450000 0.07449140 26810.48568219 0 806.03145916 0 10945.85196299 0 -506.07463722 0 -879.94225423 0 6028
0.07550000 0.07549160 26146.68796110 0 65.95862360 0 10506.29330658 0 901.99488215 0 -1736.33138793 0 6183
0.07650000 0.07648840 25446.75099621 0 326.12097537 0 9994.37927057 0 166.80732539 0 -2227.68230407 0 6330
0.07750000 0.07749960 24823.37650222 0 446.31856238 0 9355.70326697 0 510.80788955 0 -1508.65415204 0 6583
0.07850000 0.07848650 24761.86289577 0 65.89656076 0 9036.41469575 0 2064.93487670 0 -881.35047644 0 6549
0.07950000 0.07947320 24138.70809323 0 -10.65130065 0 8217.44890238 0 972.70696968 0 -715.64819905 0 6828
0.08050000 0.08048110 24146.94652266 0 175.09298849 0 7042.96741741 0 680.77108264 0 -150.67428364 0 7147
0.08150000 0.08149960 23610.24030634 0 210.98947323 0 6350.82949906 0 1182.71991441 0 731.33966098 0 7386
0.08250000 0.08250610 24171.88150242 0 -264.74357761 0 5851.16326148 0 594.07094972 0 88.79939459 0 7227
0.08350000 0.08350160 23985.69299717 0 561.48082132 0 5785.94785406 0 14.02982564 0 700.96621933 0 7798
0.08450000 0.08449610 22817.92308605 0 291.96334847 0 5302.42893818 0 -798.06434867 0 -68.78473443 0 7371
0.08550000 0.08548940 22006.82224664 0 527.96798884 0 6373.61150259 0 562.92089879 0 1652.58500657 0 8256
0.08650000 0.08650700 21844.58010961 0 468.79299788 0 6032.46363193 0 -273.64108140 0 -546.50115970 0 8037
0.08750000 0.08749060 21301.94222410 0 641.70994254 0 6708.68490461 0 225.34521113 0 753.60209423 0 8155
0.08850000 0.08849210 20568.72200429 0 576.12655195 0 7437.88477085 0 -813.67232785 0 614.80982275 0 8718
0.08950000 0.08949900 19646.01790746 0 874.64219796 0 7228.23321856 0 -11.19207116 0 1144.06520349 0 8571
0.09050000 0.09049190 19193.89290001 0 -246.42899975 0 7262.51606959 0 470.57579401 0 1149.98588811 0 8932
0.09150000 0.09150830 18838.87151418 0 174.49872311 0 7015.85749228 0 1278.04403527 0 1942.45689242 0 9285
0.09250000 0.09250820 19150.28414686 0 263.55834223 0 7069.19857673 0 417.99154661 0 2118.12217714 0 9204
0.09350000 0.09350330 18619.72929118 0 100.59111357 0 6469.01251546 0 571.63166485 0 2959.91391234 0 9349
0.09450000 0.09448040 19151.60229557 0 -600.58260434 0 5867.36550603 0 1109.16721640 0 2453.09671801 0 9564
0.09550000 0.09549270 18695.63268772 0 461.13455388 0 6418.43954329 0 -797.75568218 0 2239.64450361 0 10155
0.09650000 0.09649430 18515.04631448 0 955.33486814 0 7194.34581215 0 -1613.62272763 0 1613.94128023 0 9913
0.09750000 0.09749140 17409.33923845 0 619.39807872 0 8114.22687383 0 -737.23947491 0 1977.17912635 0 10476
0.09850000 0.09850240 17045.96957745 0 -45.60816505 0 8903.44644465 0 737.54484603 0 1611.78830401 0 10575
0.09950000 0.09950330 17148.12610246 0 -121.39270851 0 7641.26413220 0 610.80924142 0 12.60007367 0 10882
0.10050000 0.10051200 17137.91044996 0 329.90186525 0 7674.85495515 0 200.52996322 0 299.03521630 0 10875
0.10150000 0.10150300 16990.38764019 0 159.68273161 0 6572.11371371 0 271.12012200 0 348.55037412 0 11118
0.10250000 0.10250800 16807.27481526 0 -23.28674464 0 7521.75198251 0 151.14002952 0 487.45139287 0 11575
0.10350000 0.10349800 16348.66890999 0 198.10676650 0 5844.79220938 0 403.57759047 0 69.43227498 0 11364
0.10450000 0.10450100 16200.04764296 0 292.40163291 0 5846.80238616 0 593.86334129 0 390.28296227 0 12093
0.10550000 0.10551000 15931.91422625 0 94.88429857 0 6093.07650344 0 90.02450397 0 -726.85685691 0 12067
0.10650000 0.10649700 15645.32672761 0 415.39589211 0 6046.39206996 0 -94.28355230 0 508.08920784 0 12054
0.10750000 0.10749900 15085.33321741 0 167.42026454 0 5807.60943119 0 312.28261083 0 657.52553015 0 12807
0.10850000 0.10850100 15021.73254216 0 -97.39306511 0 5742.19630147 0 995.22644193 0 1476.50230809 0 12736
0.10950000 0.10950300 15303.92621178 0 -111.64499880 0 5358.38435091 0 830.77860273 0 998.07584006 0 12933
0.11050000 0.11050200 15115.87032919 0 141.29236020 0 4389.34732692 0 -131.52158289 0 1506.27049979 0 13428
0.11150000 0.11150900 15213.96256234 0 235.59930964 0 4871.92156957 0 612.17572224 0 1793.41821164 0 13453
0.11250000 0.11250000 15150.25204137 0 -172.31938391 0 4343.70642785 0 64.03753170 0 1858.53475790 0 13668
0.11350000 0.11349100 15063.03453507 0 -157.44407572 0 4420.03822272 0 -90.27099778 0 932.11348171 0 13791
0.11450000 0.11448600 15371.48133315 0 245.59527069 0 4268.54998225 0 124.46399500 0 394.00563392 0 14205
0.11550000 0.11549300 14853.00950731 0 285.12435358 0 4602.38212757 0 -1153.31421361 0 -337.03195131 0 14776
0.11650000 0.11649800 14546.86946947 0 486.82087840 0 5031.29673315 0 -225.80766164 0 -155.40643751 0 14553
0.11750000 0.11747300 13878.56807362 0 96.78693639 0 5022.24544534 0 -171.91954547 0 -176.23099021 0 14568
0.11850000 0.11849100 14035.64746154 0 108.45420016 0 5268.89303808 0 674.57798062 0 -729.77435939 0 16015
0.11950000 0.11950300 13784.32044088 0 198.72300103 0 5012.09570028 0 175.01389957 0 -380.00909154 0 15270
0.12050000 0.12050700 13518.60363013 0 122.75040168 0 4966.67449265 0 -49.48791608 0 -278.94772842 0 15999
0.12150000 0.12150000 13514.97872118 0 -78.31791544 0 4683.05282860 0 320.47270815 0 -550.74120471 0 15670
0.12250000 0.12250700 13583.74214554 0 175.97834504 0 4448.49925027 0 351.23720057 0 -685.09351195 0 16887
0.12350000 0.12352200 13627.46074441 0 -212.65912826 0 4245.38351867 0 258.25279367 0 123.06236354 0 16407
0.12450000 0.12449800 13335.82034238 0 171.62845430 0 4355.37204393 0 -203.09376246 0 -460.82918276 0 16306
0.12550000 0.12549900 13285.95038286 0 500.12978654 0 4229.58770330 0 -363.77938555 0 -458.89260262 0 17523
0.12650000 0.12650100 12789.66739364 0 71.94323843 0 4126.76111937 0 399.72969469 0 -331.92192815 0 17154
0.12750000 0.12750600 12809.43962428 0 23.66516317 0 4589.43131649 0 485.37530865 0 -391.28914912 0 18007
0.12850000 0.12850300 12833.27614678 0 56.14489661 0 3773.96960177 0 321.54919626 0 -672.64579430 0 17496
0.12950000 0.12949900 12726.72579274 0 -161.08765845 0 3735.80919662 0 -189.89030621 0 -83.76121053 0 18405
0.13050000 0.13049000 12513.62508467 0 344.21915715 0 3416.64145570 0 126.09081020 0 -39.04257617 0 18100
0.13150000 0.13148800 12694.65084081 0 -170.44321892 0 3570.55728671 0 641.37271617 0 -180.47433060 0 19059
0.13250000 0.13249300 12616.66037548 0 12.22099607 0 3155.27453570 0 188.30852776 0 -10.95312375 0 18957
0.13350000 0.13349100 12291.95640997 0 387.97510357 0 3253.36676885 0 -24.44792381 0 -84.39545975 0 19468
0.13450000 0.13450700 11999.98647076 0 226.96433713 0 3480.84628244 0 -322.25879965 0 319.08206126 0 19953
0.13550000 0.13551000 11463.93932879 0 230.51125562 0 3686.16991313 0 290.15748474 0 819.82039312 0 19956
0.13650000 0.13649900 11837.30495083 0 101.71066121 0 3679.33750898 0 144.77117434 0 815.37603506 0 19723
0.13750000 0.13749600 11528.96799847 0 73.23315679 0 3525.74023058 0 330.42033708 0 1119.14120830 0 20946
0.13850000 0.13851100 11377.16120540 0 58.80975391 0 3623.87640202 0 39.06388624 0 937.91882832 0 20955
0.13950000 0.13949800 11305.32210072 0 252.70558452 0 3517.13931025 0 -185.14057703 0 972.84098147 0 20506
0.14050000 0.14048300 11104.63395966 0 2.27248838 0 3835.45025451 0 -230.06638043 0 912.83006454 0 21447
0.14150000 0.14148400 11121.76989288 0 99.06623520 0 3411.30295343 0 308.01290747 0 887.70175630 0 21771
0.14250000 0.14249400 10690.33982018 0 61.77844450 0 3282.25619474 0 275.88632804 0 907.52781135 0 22470
0.14350000 0.14350900 10861.09500096 0 153.71701025 0 3225.64170766 0 86.95069103 0 806.55762019 0 22519
0.14450000 0.14449900 10680.42075114 0 197.17637321 0 3356.16039907 0 291.16367158 0 679.60671795 0 22218
0.14550000 0.14550500 10572.74997070 0 -70.37584977 0 2979.01608406 0 -4.72644189 0 746.65325361 0 23559
0.14650000 0.14650700 10361.74731598 0 165.50016125 0 3265.39487583 0 -139.21298061 0 662.29283465 0 23044
0.14750000 0.14750500 10138.93624574 0 131.34143590 0 2661.83655077 0 -22.65864678 0 236.36273743 0 23649
0.14850000 0.14849900 10164.67309930 0 93.03295871 0 3202.39835207 0 71.15784149 0 689.14681924 0 23640
0.14950000 0.14949500 10124.14002647 0 170.97487223 0 3114.11534224 0 -274.58026236 0 -99.59942636 0 24457
0.15050000 0.15050000 9818.19771094 0 128.97865434 0 3270.10725747 0 180.18653480 0 541.37795504 0 24591
0.15150000 0.15149900 9766.69105010 0 -28.10435849 0 3051.12980306 0 -79.69790729 0 -171.62076510 0 25020
0.15250000 0.15250500 9806.61997144 0 184.47820730 0 3118.63000157 0 254.61250632 0 427.80626221 0 25297
0.15350000 0.15350100 9663.28228382 0 133.45596612 0 3181.15418870 0 134.74006265 0 412.36524853 0 25452
0.15450000 0.15450400 9553.51345002 0 -59.28725328 0 2736.00438484 0 98.22492679 0 587.40111724 0 26061
0.15550000 0.15549900 9479.31266223 0 84.54353179 0 3112.96196212 0 236.82299102 0 321.83479515 0 26128
0.15650000 0.15649500 9452.51030513 0 61.28084336 0 2640.18595822 0 59.07788733 0 730.78713698 0 26331
0.15750000 0.15749700 9332.97618630 0 55.13014179 0 2895.96173077 0 143.44313951 0 659.03371196 0 27345
0.15850000 0.15849900 9409.95607095 0 125.47128031 0 2834.20646372 0 -361.35509038 0 167.98816694 0 26980
0.15950000 0.15949700 9145.33771747 0 170.56514767 0 2608.64925034 0 -1.47264672 0 -109.89955022 0 27777
0.16050000 0.16050000 8849.79779217 0 26.95559189 0 2873.32252668 0 -74.35830656 0 396.61556837 0 28224
0.16150000 0.16150500 8846.72211184 0 111.23307733 0 2655.88291243 0 643.96617375 0 267.25904473 0 28075
0.16250000 0.16249700 8953.06375900 0 87.97049875 0 2574.15769243 0 -116.44745393 0 250.10224082 0 28590
0.16350000 0.16349900 8853.22497881 0 43.07655061 0 2322.79771805 0 241.01799929 0 -78.05044109 0 29163
0.16450000 0.16449100 8583.31206134 0 140.75082077 0 2395.66937256 0 110.26863186 0 64.60664240 0 28996
0.16550000 0.16550500 8362.19261528 0 123.49515570 0 2469.47471573 0 -315.29348217 0 428.17314693 0 30777
0.16650000 0.16650700 8231.57506272 0 183.11502185 0 2565.56775667 0 -140.93755850 0 419.03288409 0 29211
0.16750000 0.16749900 8131.89006654 0 51.12747339 0 2524.10099518 0 13.81925138 0 1.89375130 0 30922
0.16850000 0.16850800 8005.99588019 0 -5.26490564 0 2547.95948682 0 156.24785577 0 -1.70183983 0 30867
0.16950000 0.16949900 8351.87810163 0 -8.02807487 0 2582.47301387 0 290.42660676 0 -28.95137888 0 30852
0.17050000 0.17049200 8233.73902352 0 -104.58872907 0 2219.72947352 0 398.63233589 0 273.67733049 0 31257
0.17150000 0.17149500 8359.58927158 0 128.55355138 0 2270.06078509 0 -38.94470363 0 251.61591492 0 32608
0.17250000 0.17250900 8138.63459411 0 229.71707102 0 2312.91160273 0 -245.84791586 0 144.35485903 0 32361
0.17350000 0.17350400 8171.93981817 0 -37.59711627 0 2297.75289257 0 230.08066037 0 689.40935052 0 32508
0.17450000 0.17449800 8049.26411158 0 -137.56859009 0 2278.42004482 0 15.82723125 0 65.58426936 0 32791
0.17550000 0.17549800 7805.76909117 0 296.29786081 0 2314.69110349 0 166.29434585 0 852.23037452 0 33633
0.17650000 0.17650100 7754.99839670 0 177.15479276 0 2330.64070287 0 -212.63715912 0 319.44894598 0 33984
0.17750000 0.17750300 7628.10461424 0 124.86493190 0 2567.38021115 0 -56.74168843 0 297.02943334 0 34069
0.17850000 0.17849800 7574.55482291 0 41.09778970 0 2494.66234066 0 72.25926458 0 304.84275982 0 34536
