### header ###
fiducial parameters:
Omega_m = 0.31
Omega_nu = 0
Omega_de = 0.69
Omega_k = 0
H_0 = 100
w_de = -1
zeff = 0
beta = 0
fgrowth = 0
b_1 = 2
gamma = 0.55
Lx = 3500 Ly = 3500 Lz = 3500
nx = 700 ny = 700 nz = 700
xoffset = -983.599254 yoffset = -42.9823471 zoffset = 800.977702
bins = 400 dk = 0.001
kx_ny = 0.628318531 ky_ny = 0.628318531 kz_ny = 0.628318531
############################
A(data) = 9.06445896 (not used)
A(ran) = 9.05974152 (used)
Ngal = 503633
weighted Ngal = 0
Nran = 25229228
weighted Nran = 0
SN(data) = 6737.64343
SN(ran) = 134.485621
SN(data+ran) = 6872.12905
############################
13 columns: k_central k_mean P_0(k) sigma^{lin}_{P_0(k)} P^img_1(k) sigma^{lin}_{P_1(k)} P_2(k) sigma^{lin}_{P_2(k)} P^img_3(k) sigma^{lin}_{P_3(k)} P_4(k) sigma^{lin}_{P_4(k)} N_modes
### header ###
0.00050000 0 0 0 0 0 0 0 0 0 0 0 0
0.00150000 0.00179520 109213.78335283 0 -47594.94469198 0 25330.09483540 0 -100523.11906365 0 -76514.24861833 0 3
0.00250000 0.00253879 108956.30497152 0 22047.90454809 0 -25303.73186120 0 18591.27924820 0 41071.31688164 0 6
0.00350000 0.00331552 103166.44660962 0 15243.07167968 0 83279.64687118 0 -159932.08141258 0 47184.45121461 0 7
0.00450000 0.00420575 59372.05418506 0 20767.65261374 0 21561.94705710 0 11357.93820338 0 6764.40964132 0 24
0.00550000 0.00557378 62459.59784623 0 7218.79747072 0 50593.84285241 0 10354.18993005 0 -15789.88370278 0 45
0.00650000 0.00659388 50462.02798143 0 13227.07307382 0 55694.96851346 0 -8961.24726558 0 6545.58597092 0 40
0.00750000 0.00754703 53520.57237098 0 3348.17461480 0 57921.98075860 0 45021.36918189 0 10511.44507112 0 57
0.00850000 0.00846663 56200.47854365 0 -13214.99004398 0 52752.64090182 0 21010.41166779 0 28059.98081332 0 75
0.00950000 0.00948925 79071.45711527 0 -27045.11615253 0 -1547.88006073 0 69064.07211076 0 16951.72194471 0 112
0.01050000 0.01054430 89368.50529874 0 4037.88494261 0 10954.48583704 0 -6610.96614693 0 32370.98616859 0 105
0.01150000 0.01145670 93548.02532022 0 10341.42585671 0 -11829.94528720 0 -13626.80167006 0 28091.50653662 0 144
0.01250000 0.01249090 84844.17954394 0 274.22765758 0 13041.76333438 0 -620.37790259 0 20528.29877719 0 169
0.01350000 0.01339930 80622.03938085 0 -2938.85648670 0 18720.45782175 0 13002.54841026 0 14047.95018283 0 180
0.01450000 0.01448870 83330.28575078 0 5664.17288242 0 9707.29746616 0 -11239.52451096 0 -204.61512576 0 267
0.01550000 0.01550050 80164.75162429 0 1745.48153689 0 8727.40768447 0 -4239.59464892 0 25571.31604929 0 238
0.01650000 0.01653350 71856.24061521 0 2868.78589821 0 23098.13953260 0 1491.71594112 0 3531.94651409 0 315
0.01750000 0.01747870 76875.42136480 0 3719.87058181 0 23958.12171999 0 3898.33693254 0 23364.18588052 0 297
0.01850000 0.01844180 72184.23995249 0 -1605.45020563 0 27620.48806434 0 12554.15815749 0 11193.49915184 0 388
0.01950000 0.01947590 82085.40414014 0 -7036.06910583 0 25611.62943066 0 3214.59122764 0 21569.41656645 0 399
0.02050000 0.02045430 78037.36945246 0 4864.36418363 0 24070.27420605 0 -4271.88929231 0 -1026.41164349 0 462
0.02150000 0.02154770 81801.78247609 0 4943.45310622 0 35754.34436937 0 -4668.90469912 0 25036.47721030 0 571
0.02250000 0.02255340 72756.31649253 0 26.48468326 0 40068.42540497 0 -625.14960092 0 16372.72512394 0 510
0.02350000 0.02348930 78264.53041344 0 -252.59903417 0 45051.46691077 0 16498.60832573 0 20592.44868107 0 555
0.02450000 0.02439640 75629.77083408 0 547.98078162 0 42921.55828724 0 7359.43295348 0 20421.19919452 0 592
0.02550000 0.02547300 71248.79375146 0 4650.17600287 0 42612.45241480 0 -3163.29327368 0 20365.72710299 0 837
0.02650000 0.02652900 71723.21744125 0 5802.46865122 0 45631.12280588 0 4674.78144545 0 18184.85006269 0 723
0.02750000 0.02749970 64405.84441619 0 2002.80613418 0 44594.72838283 0 177.80617792 0 16229.48629748 0 826
0.02850000 0.02848090 64194.94062263 0 -1486.41039256 0 44834.96098519 0 10442.52786274 0 20945.16330665 0 831
0.02950000 0.02946900 60335.51104617 0 2090.94634458 0 38298.59107066 0 5124.28114005 0 9125.18102678 0 996
0.03050000 0.03053250 59629.09318347 0 2457.87500708 0 41066.04428680 0 2701.71054924 0 13144.79862519 0 1041
0.03150000 0.03150510 57718.54647439 0 3020.50481470 0 40153.88537965 0 1211.38964884 0 15206.38320726 0 1036
0.03250000 0.03246190 53723.45742656 0 620.52180049 0 32275.74992431 0 6015.69018960 0 8436.08583504 0 1059
0.03350000 0.03345080 55133.65685455 0 -1824.19698401 0 31761.01285315 0 8124.36563432 0 18905.21833257 0 1302
0.03450000 0.03451200 54052.66506682 0 -1563.79670640 0 23889.02875845 0 10210.83027329 0 11634.09035808 0 1339
0.03550000 0.03553350 57218.96811339 0 294.58756286 0 20948.78821561 0 4802.58694743 0 15002.83907732 0 1365
0.03650000 0.03647120 55181.87912818 0 2664.57170935 0 17118.35791077 0 -1724.02866664 0 10744.79034647 0 1308
0.03750000 0.03744890 52896.42895691 0 1855.70073817 0 19495.19972592 0 -3860.02274337 0 6727.05110997 0 1579
0.03850000 0.03847530 51156.91204293 0 978.64522962 0 18149.26004752 0 1177.41436585 0 7613.70383959 0 1662
0.03950000 0.03950240 49524.60455734 0 -977.03049745 0 17004.00851019 0 1966.41424522 0 -2023.91848269 0 1683
0.04050000 0.04050350 48563.56430220 0 2332.81564825 0 14796.32911280 0 435.92166443 0 -146.70775448 0 1822
0.04150000 0.04152450 45840.59860501 0 2465.63011533 0 16505.85814363 0 -2542.08274049 0 1041.51323387 0 1887
0.04250000 0.04250150 43081.93304693 0 1644.86285205 0 18379.38684310 0 -401.29060246 0 -1202.36033018 0 1920
0.04350000 0.04349210 43535.59589454 0 616.39160120 0 19485.86283922 0 1004.26894208 0 -3436.01824173 0 2005
0.04450000 0.04448520 40813.83850034 0 711.93651197 0 16350.75597878 0 1714.21944333 0 -5131.45406595 0 2151
0.04550000 0.04548030 40726.18161114 0 1383.18836402 0 20199.75021128 0 -3009.89371759 0 -2720.73582896 0 2274
0.04650000 0.04648670 36434.94848651 0 2151.66906181 0 18758.79398006 0 2367.24129871 0 -234.79304201 0 2311
0.04750000 0.04749250 36817.21161234 0 -461.07413873 0 18069.62189631 0 3915.70354179 0 2051.36892957 0 2568
0.04850000 0.04851840 36651.34456636 0 613.93545077 0 17615.84920297 0 1499.86649397 0 -2640.72420227 0 2493
0.04950000 0.04949480 36104.53254326 0 2165.76226843 0 15802.07657834 0 -143.79794121 0 1065.24430448 0 2644
0.05050000 0.05050630 34448.16884372 0 -1331.72564147 0 15315.35016726 0 2855.48358081 0 3609.60744224 0 2829
0.05150000 0.05149060 34884.47606665 0 -1119.72339065 0 12530.21178926 0 3043.31977195 0 3154.28592417 0 2784
0.05250000 0.05249300 35050.67264981 0 1109.62856845 0 12510.21986717 0 -1815.43129509 0 -1292.60957851 0 3055
0.05350000 0.05348950 34303.17248565 0 1369.80915461 0 14130.99355154 0 -1317.13812908 0 367.88212341 0 3009
0.05450000 0.05448610 33613.01179036 0 510.48054929 0 13458.40817239 0 1412.29748136 0 412.20377532 0 3336
0.05550000 0.05550870 33297.53486583 0 -503.88541191 0 12814.93191057 0 111.88995477 0 -2527.24258293 0 3349
0.05650000 0.05647670 32657.02443861 0 349.33577106 0 13783.11213789 0 697.18093562 0 -124.12237480 0 3324
0.05750000 0.05747970 32319.35867746 0 1031.51946974 0 12077.42770746 0 1214.50926746 0 -353.47475801 0 3639
0.05850000 0.05849280 32572.88261263 0 728.08163675 0 13372.39896908 0 14.23325992 0 -517.06799746 0 3846
0.05950000 0.05951020 31146.75555440 0 361.96143879 0 13820.67937612 0 -1249.11067109 0 -1789.92511756 0 3787
0.06050000 0.06049470 30442.86414339 0 611.02344058 0 13011.00653115 0 254.16104039 0 374.33116597 0 3930
0.06150000 0.06148310 29251.25770976 0 -211.60021546 0 13482.46438634 0 121.10710962 0 -830.01847031 0 4083
0.06250000 0.06249100 29506.42933083 0 350.03548833 0 13337.02864536 0 785.17065737 0 -1809.30190359 0 4303
0.06350000 0.06350600 29678.33789172 0 1345.36848062 0 13566.93574949 0 -483.33437507 0 -2136.23573733 0 4470
0.06450000 0.06451750 28764.53129868 0 -683.78415090 0 13124.58701164 0 839.01044142 0 -1626.41975468 0 4479
0.06550000 0.06550280 29116.36715846 0 -376.41164402 0 12390.81756321 0 1410.55093432 0 -1483.77409514 0 4636
0.06650000 0.06648880 29567.61340010 0 -274.48689349 0 11142.42088934 0 1517.87020844 0 -1597.37654478 0 4653
0.06750000 0.06749660 29605.62002124 0 -491.41023283 0 9900.75775846 0 1831.23809504 0 -1834.43460566 0 5220
0.06850000 0.06852730 29714.36728979 0 583.77840521 0 8879.24743126 0 871.77851989 0 -1384.15500640 0 5029
0.06950000 0.06949320 29734.90844052 0 888.90676391 0 8330.61196911 0 -1088.83477255 0 -2231.40607417 0 5040
0.07050000 0.07048030 28317.12965744 0 330.85422769 0 10323.53198797 0 -65.85954275 0 -1285.04120800 0 5475
0.07150000 0.07148790 28116.33167066 0 301.79454093 0 8928.38142441 0 1306.97739945 0 731.58132158 0 5509
0.07250000 0.07249820 27269.42112464 0 -399.84503270 0 8035.89588675 0 632.06988165 0 -1279.51596799 0 5916
0.07350000 0.07351270 28236.50289470 0 73.43768953 0 7153.15366497 0 1929.42918934 0 -1237.40111672 0 5721
0.07450000 0.07449140 27169.24182269 0 476.89851399 0 6785.17048350 0 -423.61235240 0 695.29817988 0 6028
0.07550000 0.07549160 26220.06490594 0 1130.52122550 0 6404.84064244 0 -222.87038693 0 91.67921999 0 6183
0.07650000 0.07648840 26150.64240723 0 486.13763799 0 7242.95254582 0 -313.06910623 0 -1238.38972825 0 6330
0.07750000 0.07749960 24797.89229383 0 265.54435295 0 6823.95700928 0 -67.44230981 0 -408.57447253 0 6583
0.07850000 0.07848650 24912.79092303 0 155.74146697 0 7041.61631498 0 868.50731417 0 -1016.62109395 0 6549
0.07950000 0.07947320 24391.02372542 0 316.98950018 0 7182.71314979 0 1045.77854341 0 -1042.50843615 0 6828
0.08050000 0.08048110 24367.18720292 0 176.06951699 0 6551.00136521 0 -752.34326221 0 -761.19682771 0 7147
0.08150000 0.08149960 23771.60367756 0 312.93509444 0 6793.58466609 0 -135.87147363 0 -714.28721050 0 7386
0.08250000 0.08250610 23173.05431760 0 210.74561572 0 6967.09697459 0 415.13665619 0 -264.52498462 0 7227
0.08350000 0.08350160 23017.51276985 0 384.05251270 0 6657.31005865 0 208.63657778 0 -1029.20062647 0 7798
0.08450000 0.08449610 23039.04253211 0 -1.27762662 0 7418.34321623 0 506.02081282 0 -400.22509892 0 7371
0.08550000 0.08548940 23008.50542033 0 354.88407867 0 6693.38339501 0 346.13926044 0 -569.97848667 0 8256
0.08650000 0.08650700 22187.62831133 0 407.61551935 0 6395.36095630 0 -170.64423659 0 -145.24460941 0 8037
0.08750000 0.08749060 21804.15688251 0 594.62676909 0 6993.43797964 0 -522.15055920 0 -326.47687552 0 8155
0.08850000 0.08849210 20739.97149083 0 278.50285323 0 6259.44883975 0 364.15615639 0 -74.59019088 0 8718
0.08950000 0.08949900 20751.06590914 0 -29.88649554 0 6496.56182349 0 1513.17979594 0 -507.76735986 0 8571
0.09050000 0.09049190 20061.23475103 0 432.65814792 0 5230.07355858 0 295.90021928 0 -174.64481793 0 8932
0.09150000 0.09150830 19932.05617748 0 573.88789606 0 4872.26209132 0 -347.13446272 0 -113.01257809 0 9285
0.09250000 0.09250820 18482.20244246 0 452.56329189 0 5454.43345356 0 -46.55426629 0 124.12347325 0 9204
0.09350000 0.09350330 18766.48318087 0 232.11280630 0 4524.57839997 0 656.15465549 0 -643.42133895 0 9349
0.09450000 0.09448040 17949.34082654 0 75.92514599 0 5745.54659611 0 -362.29317288 0 -772.91516974 0 9564
0.09550000 0.09549270 17699.66149177 0 416.59321052 0 4891.30934017 0 -392.64794075 0 -1114.43981124 0 10155
0.09650000 0.09649430 17282.46742513 0 435.14835052 0 5501.04099502 0 -64.98033756 0 -777.71103413 0 9913
0.09750000 0.09749140 17083.97619859 0 318.71847190 0 5920.93726651 0 -537.97383600 0 -1754.30214868 0 10476
0.09850000 0.09850240 16806.28620373 0 403.63031642 0 6335.87949577 0 115.69061688 0 -2255.90167103 0 10575
0.09950000 0.09950330 16789.58965341 0 136.65027983 0 6249.33204841 0 10.54278406 0 -875.78129814 0 10882
0.10050000 0.10051200 16190.82060200 0 -225.60225013 0 6209.12851276 0 521.85727111 0 -589.75071732 0 10875
0.10150000 0.10150300 16090.42160860 0 50.38217014 0 5888.55474654 0 426.18713621 0 -736.14321457 0 11118
0.10250000 0.10250800 15912.69122424 0 280.31311079 0 6248.43131345 0 504.92565093 0 -390.20057798 0 11575
0.10350000 0.10349800 16127.65930965 0 350.52979410 0 6306.26508809 0 -297.51165608 0 -50.10733613 0 11364
0.10450000 0.10450100 15674.98507358 0 227.66295595 0 6040.42744705 0 646.30478925 0 879.50287133 0 12093
0.10550000 0.10551000 15646.31533914 0 -139.95773463 0 5700.15834220 0 163.07586609 0 645.44250031 0 12067
0.10650000 0.10649700 15732.43438818 0 -72.83661372 0 5820.36251996 0 983.25325782 0 812.62769500 0 12054
0.10750000 0.10749900 15452.10809590 0 83.05929635 0 5134.38694683 0 239.19456025 0 1513.57524056 0 12807
0.10850000 0.10850100 15246.03751428 0 317.95614257 0 5400.16966500 0 134.87956673 0 1996.83052670 0 12736
0.10950000 0.10950300 15376.20469936 0 78.37305799 0 5052.77157255 0 264.28002865 0 1424.30361919 0 12933
0.11050000 0.11050200 15057.10286588 0 -140.17413071 0 4628.23981142 0 198.23199063 0 1313.46928184 0 13428
0.11150000 0.11150900 15070.28435297 0 338.44237043 0 5136.16644758 0 181.18063861 0 1336.91035973 0 13453
0.11250000 0.11250000 14765.35261812 0 196.39646855 0 4392.58777584 0 -422.91702895 0 1428.70843279 0 13668
0.11350000 0.11349100 14528.63507899 0 68.74837549 0 4707.75713234 0 338.87845796 0 504.00843912 0 13791
0.11450000 0.11448600 14158.01560009 0 160.66694932 0 4545.53696446 0 190.07704395 0 397.24388592 0 14205
0.11550000 0.11549300 14054.87046355 0 386.05500029 0 4641.89363514 0 -450.98920264 0 742.31544590 0 14776
0.11650000 0.11649800 13732.91264120 0 83.55074612 0 4477.74018249 0 273.95414172 0 817.39170412 0 14553
0.11750000 0.11747300 13611.53311417 0 -55.42507757 0 4805.91527293 0 557.72190059 0 582.87437488 0 14568
0.11850000 0.11849100 13767.62389055 0 271.42878848 0 3937.15641204 0 -79.04882890 0 395.43362836 0 16015
0.11950000 0.11950300 13744.66613386 0 -121.67501203 0 4508.06858738 0 144.14175833 0 787.39503332 0 15270
0.12050000 0.12050700 13668.54304587 0 -135.74405259 0 4153.01424784 0 325.41027352 0 347.38051714 0 15999
0.12150000 0.12150000 13963.80835686 0 325.76507522 0 3960.03727673 0 -246.31146482 0 193.84694926 0 15670
0.12250000 0.12250700 13359.21748198 0 181.75073793 0 4219.06448277 0 -339.16735222 0 581.78360683 0 16887
0.12350000 0.12352200 13485.86960384 0 -31.82867782 0 4920.37451922 0 554.62205420 0 767.68871011 0 16407
0.12450000 0.12449800 13335.16126802 0 -32.68393664 0 4015.52035284 0 654.13129722 0 602.98493037 0 16306
0.12550000 0.12549900 13230.14875415 0 204.31195156 0 4400.81522070 0 -404.86058855 0 616.50034847 0 17523
0.12650000 0.12650100 12819.98481396 0 490.53146702 0 4492.56935547 0 -159.78818351 0 825.58509681 0 17154
0.12750000 0.12750600 12567.88887322 0 165.32990038 0 4572.03175352 0 289.48522889 0 1550.57128101 0 18007
0.12850000 0.12850300 12477.92522378 0 -211.67930439 0 4360.80940736 0 594.73112253 0 1208.97304288 0 17496
0.12950000 0.12949900 12635.99322322 0 -36.23909356 0 3839.77817611 0 258.70535806 0 830.14259598 0 18405
0.13050000 0.13049000 12334.13716869 0 303.06216060 0 3645.84554718 0 -370.73261999 0 855.14677854 0 18100
0.13150000 0.13148800 12433.98693345 0 185.45144043 0 4119.89576150 0 -192.61557867 0 702.02073830 0 19059
0.13250000 0.13249300 11995.26310455 0 69.28222572 0 4034.46874054 0 166.38881318 0 1126.13838104 0 18957
0.13350000 0.13349100 11837.85417946 0 48.25951133 0 3775.10101275 0 445.67486643 0 353.46706881 0 19468
0.13450000 0.13450700 11991.30865842 0 100.79839245 0 3735.07323026 0 370.60190358 0 730.78603852 0 19953
0.13550000 0.13551000 11727.34937929 0 30.54139576 0 3285.17809105 0 173.31788156 0 580.12273945 0 19956
0.13650000 0.13649900 11854.44088406 0 34.00428227 0 3301.09473672 0 217.87350486 0 800.97526040 0 19723
0.13750000 0.13749600 11624.20424275 0 109.97754068 0 2931.91423683 0 -82.61497038 0 974.23492373 0 20946
0.13850000 0.13851100 11549.72884065 0 153.29739957 0 3166.85227520 0 207.18881111 0 660.15303991 0 20955
0.13950000 0.13949800 11316.52636475 0 108.93730166 0 3298.91979135 0 -292.29508256 0 963.04713655 0 20506
0.14050000 0.14048300 11320.81034806 0 140.54211389 0 3398.84644812 0 -95.40958084 0 526.70586145 0 21447
0.14150000 0.14148400 10997.64422272 0 74.22099940 0 3364.46473594 0 387.99158043 0 989.61222688 0 21771
0.14250000 0.14249400 10939.76650978 0 62.07392950 0 3232.60592667 0 152.71631568 0 661.94791907 0 22470
0.14350000 0.14350900 11001.59866884 0 213.49615269 0 3071.60504635 0 -168.26168280 0 368.76747996 0 22519
0.14450000 0.14449900 10649.89462393 0 305.90606645 0 3387.55430751 0 -53.19290257 0 512.93450280 0 22218
0.14550000 0.14550500 10400.32513489 0 177.56561578 0 3503.83699285 0 -392.68748521 0 397.78322843 0 23559
0.14650000 0.14650700 10114.82510893 0 -78.59977957 0 3206.20999876 0 571.43504100 0 547.55238329 0 23044
0.14750000 0.14750500 10384.46341208 0 -147.06365463 0 3083.80890649 0 526.55866817 0 388.61001187 0 23649
0.14850000 0.14849900 10180.85337471 0 142.55888142 0 2785.43496146 0 -214.62426830 0 -12.30755450 0 23640
0.14950000 0.14949500 10022.85128270 0 399.93290929 0 3014.44133064 0 -381.77980464 0 151.45308984 0 24457
0.15050000 0.15050000 9793.20780832 0 151.25646599 0 3159.55851901 0 -86.37894403 0 196.57002480 0 24591
0.15150000 0.15149900 9570.69332154 0 95.45846218 0 3554.36602673 0 59.55538670 0 -136.49759427 0 25020
0.15250000 0.15250500 9606.62385845 0 50.12546068 0 3230.77150305 0 262.69165945 0 -92.35641889 0 25297
0.15350000 0.15350100 9624.25409744 0 -58.96145086 0 3257.89241276 0 92.44792038 0 248.70720010 0 25452
0.15450000 0.15450400 9491.69227553 0 19.78123800 0 3128.01082655 0 47.62822795 0 184.63199132 0 26061
0.15550000 0.15549900 9388.48123156 0 197.35652020 0 3236.26378934 0 -82.42328959 0 18.51922045 0 26128
0.15650000 0.15649500 9235.77370353 0 275.39092382 0 3282.35505589 0 -102.05118296 0 662.22582875 0 26331
0.15750000 0.15749700 9161.50700831 0 61.16023276 0 3415.04869268 0 263.45618571 0 494.90112999 0 27345
0.15850000 0.15849900 8979.65740922 0 35.81036569 0 3434.95273819 0 532.43761142 0 717.40243529 0 26980
0.15950000 0.15949700 8960.29160776 0 -80.95135687 0 3003.51168092 0 148.43672621 0 863.19297796 0 27777
0.16050000 0.16050000 8740.60015614 0 102.37105371 0 2827.76950419 0 315.92289818 0 1160.39926292 0 28224
0.16150000 0.16150500 8882.74052534 0 139.75452004 0 2747.42834033 0 -6.27701317 0 1140.37438710 0 28075
0.16250000 0.16249700 8728.24251198 0 -9.95428558 0 2480.73390263 0 186.87284413 0 1344.78629827 0 28590
0.16350000 0.16349900 8639.81670270 0 123.76977002 0 2506.15220358 0 294.25802568 0 1221.13296472 0 29163
0.16450000 0.16449100 8601.12903807 0 132.24876159 0 2753.55773183 0 -406.79057795 0 994.76289297 0 28996
0.16550000 0.16550500 8390.57675083 0 234.79633738 0 2667.69132796 0 -265.15000680 0 612.53272085 0 30777
0.16650000 0.16650700 8150.78353138 0 43.67619842 0 2985.07956813 0 -211.86933749 0 761.80317612 0 29211
0.16750000 0.16749900 8031.16153597 0 -34.95829239 0 2742.48528267 0 0.77866559 0 105.58184427 0 30922
0.16850000 0.16850800 8103.08851723 0 123.01732680 0 2602.90431888 0 523.05898335 0 437.85494921 0 30867
0.16950000 0.16949900 8176.32266263 0 -112.85330179 0 2265.67794063 0 477.90360238 0 62.89952998 0 30852
0.17050000 0.17049200 8143.92915809 0 -19.37876326 0 2043.41609902 0 121.14006334 0 368.41817055 0 31257
0.17150000 0.17149500 8042.76124462 0 197.31038499 0 1961.33937269 0 -64.64201273 0 139.27010039 0 32608
0.17250000 0.17250900 7793.05994070 0 180.95765179 0 1880.89934768 0 -133.40324017 0 304.66041592 0 32361
0.17350000 0.17350400 7713.59754264 0 84.27484915 0 1806.24819241 0 87.66347994 0 388.40789573 0 32508
0.17450000 0.17449800 7602.09314637 0 -12.79032647 0 1798.26240815 0 229.30185418 0 246.07859188 0 32791
0.17550000 0.17549800 7607.49755608 0 31.73959294 0 1910.17323361 0 -77.12806653 0 21.60401797 0 33633
0.17650000 0.17650100 7491.85197594 0 244.20462380 0 1992.05223763 0 -162.60243101 0 255.89220903 0 33984
0.17750000 0.17750300 7452.82378956 0 -38.16139376 0 1932.36207022 0 75.26013997 0 325.40258432 0 34069
0.17850000 0.17849800 7409.44571244 0 -26.07957222 0 1942.01750952 0 215.00982679 0 520.27329574 0 34536
