### header ###
fiducial parameters:
Omega_m = 0.31
Omega_nu = 0
Omega_de = 0.69
Omega_k = 0
H_0 = 100
w_de = -1
zeff = 0
beta = 0
fgrowth = 0
b_1 = 2
gamma = 0.55
Lx = 3500 Ly = 3500 Lz = 3500
nx = 700 ny = 700 nz = 700
xoffset = -983.599254 yoffset = -42.9823471 zoffset = 800.977702
bins = 400 dk = 0.001
kx_ny = 0.628318531 ky_ny = 0.628318531 kz_ny = 0.628318531
############################
A(data) = 9.13435801 (not used)
A(ran) = 9.15585431 (used)
Ngal = 508072
weighted Ngal = 0
Nran = 25229228
weighted Nran = 0
SN(data) = 6676.79293
SN(ran) = 135.912349
SN(data+ran) = 6812.70528
############################
13 columns: k_central k_mean P_0(k) sigma^{lin}_{P_0(k)} P^img_1(k) sigma^{lin}_{P_1(k)} P_2(k) sigma^{lin}_{P_2(k)} P^img_3(k) sigma^{lin}_{P_3(k)} P_4(k) sigma^{lin}_{P_4(k)} N_modes
### header ###
0.00050000 0 0 0 0 0 0 0 0 0 0 0 0
0.00150000 0.00179520 67075.31524491 0 -12374.34070433 0 -12721.34335218 0 11354.53298588 0 -199851.11663044 0 3
0.00250000 0.00253879 66228.29485316 0 4305.56799185 0 29039.80468757 0 10408.40978031 0 97614.40424411 0 6
0.00350000 0.00331552 54144.71578505 0 13806.94866039 0 38025.73428774 0 -6727.88593748 0 -11124.95541893 0 7
0.00450000 0.00420575 39576.31655332 0 5008.47079133 0 25316.25427395 0 36129.90690593 0 29943.17593666 0 24
0.00550000 0.00557378 64475.48660636 0 -16143.69678562 0 8235.58443171 0 38765.32555964 0 -20966.14384028 0 45
0.00650000 0.00659388 84453.23860577 0 -17315.42114287 0 -456.65284827 0 -2702.46848475 0 16014.51821207 0 40
0.00750000 0.00754703 89684.97083481 0 -8167.17251367 0 813.14836374 0 -30219.32809136 0 5144.29503129 0 57
0.00850000 0.00846663 97984.25480292 0 4995.19044308 0 -19707.09213101 0 -3803.32037971 0 22060.42696084 0 75
0.00950000 0.00948925 96040.75437610 0 4099.65119424 0 -2582.13249212 0 -7163.59999350 0 -4284.79616509 0 112
0.01050000 0.01054430 92647.40021427 0 7668.03353558 0 29327.60048920 0 -25500.02617323 0 4054.31786319 0 105
0.01150000 0.01145670 77460.24000904 0 8761.41592118 0 31596.35411015 0 -1229.26154843 0 -12960.80703445 0 144
0.01250000 0.01249090 77333.03865854 0 6216.81771356 0 38894.61397892 0 5095.64435933 0 -5905.04258999 0 169
0.01350000 0.01339930 58582.15357074 0 -2764.78396501 0 13087.12961914 0 5758.02507056 0 -2897.26889491 0 180
0.01450000 0.01448870 79942.31402952 0 -6779.70016635 0 26949.00114244 0 14937.81040764 0 -20181.29612935 0 267
0.01550000 0.01550050 79663.08619450 0 -3985.37868567 0 12194.08386827 0 -1918.19197159 0 -17299.82304981 0 238
0.01650000 0.01653350 84208.83186584 0 4513.58284282 0 16002.43518223 0 -11472.39744968 0 -22014.51144745 0 315
0.01750000 0.01747870 76051.57842120 0 3703.08615490 0 11779.41625333 0 -10452.33708606 0 -9853.65591123 0 297
0.01850000 0.01844180 85124.17629904 0 689.16329610 0 28193.44337018 0 808.08667269 0 -20404.06326130 0 388
0.01950000 0.01947590 79967.57854645 0 -5524.52601120 0 20163.72081322 0 11458.11750532 0 -13521.02023610 0 399
0.02050000 0.02045430 85207.32951348 0 -819.99614628 0 7859.27494422 0 12509.89032999 0 -17287.08094561 0 462
0.02150000 0.02154770 84215.20291793 0 4150.09235153 0 13439.07532464 0 -7375.49239859 0 253.84468470 0 571
0.02250000 0.02255340 80323.14916091 0 -1635.40513506 0 17876.51311033 0 7146.12353852 0 -2485.45726884 0 510
0.02350000 0.02348930 80847.44281022 0 3952.82041254 0 14673.74128279 0 -9134.94631181 0 -5775.15001921 0 555
0.02450000 0.02439640 73835.11136574 0 7161.20535667 0 19707.42166819 0 -1237.18142526 0 7081.39145230 0 592
0.02550000 0.02547300 70482.61981391 0 2277.10189611 0 25378.53680048 0 -1743.51529840 0 -3870.12855015 0 837
0.02650000 0.02652900 70202.07383019 0 -709.76925580 0 23389.12086028 0 5940.58866686 0 722.71127922 0 723
0.02750000 0.02749970 68641.16606638 0 -2401.22756628 0 25178.17819660 0 5359.93317564 0 -8044.47483794 0 826
0.02850000 0.02848090 67735.81759422 0 3766.74175301 0 21783.72557751 0 582.57229914 0 6559.61327011 0 831
0.02950000 0.02946900 64556.66259773 0 3213.40489380 0 21266.90143756 0 -7722.97836763 0 1418.94314777 0 996
0.03050000 0.03053250 62422.25029945 0 1064.68518973 0 27323.13568456 0 11973.62349657 0 2848.33262406 0 1041
0.03150000 0.03150510 61564.02564367 0 1316.40216272 0 22200.26056980 0 5528.07402814 0 7188.29331266 0 1036
0.03250000 0.03246190 58473.51614791 0 2701.05147489 0 22293.40974529 0 -183.21058763 0 1252.77951833 0 1059
0.03350000 0.03345080 58621.36849485 0 306.20045299 0 20837.18495818 0 1836.48872073 0 5948.90398831 0 1302
0.03450000 0.03451200 56904.15026321 0 -597.18397759 0 15302.60806307 0 -2362.72663938 0 -1547.55052355 0 1339
0.03550000 0.03553350 54439.10233023 0 -497.44186163 0 15714.63938060 0 -1240.25710559 0 718.96224459 0 1365
0.03650000 0.03647120 54882.32983389 0 976.57244077 0 18203.30414462 0 3222.76374964 0 -6441.03480909 0 1308
0.03750000 0.03744890 54471.17728217 0 4088.62268336 0 16900.42399075 0 -5177.00708844 0 -6879.03365620 0 1579
0.03850000 0.03847530 50264.52536642 0 4123.59756246 0 21718.58706211 0 -3855.10165486 0 -8501.40010360 0 1662
0.03950000 0.03950240 47522.66620439 0 -960.67007505 0 22756.29963387 0 3515.40374778 0 -3133.98643404 0 1683
0.04050000 0.04050350 48335.30488396 0 -760.62343302 0 21407.06458370 0 2678.99445315 0 -8189.44922687 0 1822
0.04150000 0.04152450 45712.29879726 0 4235.54134164 0 22240.68379690 0 3108.66699424 0 -862.77226883 0 1887
0.04250000 0.04250150 44462.36428323 0 1172.48229276 0 22597.57256007 0 802.31757517 0 4858.20183841 0 1920
0.04350000 0.04349210 41663.16565233 0 -338.89273791 0 20038.60653152 0 4255.80787805 0 4149.09275542 0 2005
0.04450000 0.04448520 40869.85982050 0 846.40415723 0 23223.58335148 0 2908.82466527 0 4632.61167131 0 2151
0.04550000 0.04548030 41762.35634273 0 839.24770819 0 16880.43206865 0 -152.61745453 0 4094.98275089 0 2274
0.04650000 0.04648670 41349.77579658 0 -1321.04863692 0 17315.64083433 0 2698.12957858 0 3163.97431718 0 2311
0.04750000 0.04749250 38978.53611344 0 187.24961497 0 18311.28249310 0 598.48015715 0 4334.64415547 0 2568
0.04850000 0.04851840 39467.56928477 0 1956.57206819 0 14778.09472231 0 -4322.38537247 0 -1011.11672463 0 2493
0.04950000 0.04949480 38524.43388293 0 2080.18146345 0 21188.14205215 0 -349.52800108 0 -1597.65115909 0 2644
0.05050000 0.05050630 37432.01813972 0 1078.37965637 0 18886.87409636 0 -1441.18690724 0 -5193.58280847 0 2829
0.05150000 0.05149060 34991.24611214 0 -378.00330858 0 19676.11563633 0 3476.15586995 0 -1429.10387741 0 2784
0.05250000 0.05249300 37094.24253284 0 -240.36771260 0 18929.93362088 0 1370.29247580 0 -5598.07870920 0 3055
0.05350000 0.05348950 34926.21744246 0 1322.15807875 0 18101.58700252 0 1440.85737007 0 -4761.86713688 0 3009
0.05450000 0.05448610 33711.87294359 0 1105.21277027 0 17566.41862636 0 -881.73164110 0 480.94962436 0 3336
0.05550000 0.05550870 33631.79540948 0 797.95340448 0 18342.36883350 0 835.73264496 0 -3287.82537304 0 3349
0.05650000 0.05647670 32953.71774403 0 -351.87210887 0 16698.30785525 0 2787.57695311 0 -540.55081673 0 3324
0.05750000 0.05747970 31946.54228405 0 -268.24106552 0 14660.99917859 0 2716.30904620 0 -792.15464862 0 3639
0.05850000 0.05849280 32177.76753688 0 -53.43071857 0 12763.96349380 0 2304.09099094 0 1946.02687851 0 3846
0.05950000 0.05951020 31550.54844249 0 854.36907080 0 12104.66944746 0 -284.83106549 0 -359.30646759 0 3787
0.06050000 0.06049470 30798.32491212 0 720.00138516 0 11743.38685526 0 996.02282344 0 549.01333144 0 3930
0.06150000 0.06148310 30454.39794460 0 538.84161723 0 10563.17142341 0 1193.56168754 0 607.51057427 0 4083
0.06250000 0.06249100 30791.84401430 0 -343.21736413 0 9509.33349910 0 226.74025185 0 1322.49860050 0 4303
0.06350000 0.06350600 30771.52255502 0 -421.44399777 0 10494.29815332 0 1055.75912605 0 871.99162060 0 4470
0.06450000 0.06451750 29222.80766678 0 940.74625730 0 9770.51368136 0 1011.51766152 0 1417.69090649 0 4479
0.06550000 0.06550280 30111.45958861 0 76.28489074 0 9795.96493603 0 229.05140592 0 2080.41213947 0 4636
0.06650000 0.06648880 29123.28743919 0 -143.78366126 0 8949.18620488 0 1210.89534308 0 4154.63996458 0 4653
0.06750000 0.06749660 28496.94711060 0 773.13486119 0 9579.68968648 0 660.64185339 0 1511.55407920 0 5220
0.06850000 0.06852730 28756.95194360 0 1083.67641727 0 10386.49555801 0 -947.71157477 0 5177.90782339 0 5029
0.06950000 0.06949320 28155.76628622 0 -155.91831859 0 9687.05289889 0 1348.45514551 0 3615.18760511 0 5040
0.07050000 0.07048030 28290.76668325 0 -518.02365528 0 9842.77019980 0 -225.13650426 0 1879.95467443 0 5475
0.07150000 0.07148790 27474.06371183 0 791.26599670 0 10081.12444025 0 -581.35191312 0 3180.35231490 0 5509
0.07250000 0.07249820 27457.91639013 0 -105.46573734 0 9655.54914473 0 -355.72659539 0 1995.32564026 0 5916
0.07350000 0.07351270 27254.59195165 0 583.93438614 0 9982.35116359 0 509.18766509 0 1057.11901614 0 5721
0.07450000 0.07449140 27107.83806196 0 841.76207685 0 10862.63284112 0 -646.04665180 0 -417.73231070 0 6028
0.07550000 0.07549160 26035.30439512 0 435.40319261 0 10207.75459296 0 -1294.75157016 0 -631.42948107 0 6183
0.07650000 0.07648840 25455.86819146 0 -117.93037123 0 10442.42900159 0 1752.72037022 0 1159.65231198 0 6330
0.07750000 0.07749960 25736.74371236 0 -244.28920501 0 9520.42791740 0 2088.77139921 0 -922.76011815 0 6583
0.07850000 0.07848650 25548.46813832 0 420.21702101 0 8981.29411054 0 330.81248632 0 55.95156813 0 6549
0.07950000 0.07947320 24429.79926663 0 808.07788503 0 9646.65164094 0 -805.71070964 0 -694.49081380 0 6828
0.08050000 0.08048110 24226.03544525 0 748.72164863 0 9373.55319742 0 -733.54975698 0 526.98816496 0 7147
0.08150000 0.08149960 23050.68617905 0 59.82802379 0 10192.29929934 0 565.58905147 0 -465.27683620 0 7386
0.08250000 0.08250610 23105.60904195 0 587.71198065 0 9224.94291497 0 1011.83182030 0 -323.21335901 0 7227
0.08350000 0.08350160 23119.12006623 0 -329.18567112 0 8107.91074460 0 1320.54334658 0 755.38489036 0 7798
0.08450000 0.08449610 22751.68611338 0 -327.20185731 0 7645.95454469 0 814.96740896 0 -160.42309181 0 7371
0.08550000 0.08548940 22317.90534214 0 1132.37761827 0 6735.04787881 0 841.82249200 0 882.55768096 0 8256
0.08650000 0.08650700 21911.47615663 0 53.14094554 0 6421.41636246 0 145.06556088 0 1911.24972172 0 8037
0.08750000 0.08749060 20844.65446753 0 388.16953051 0 6855.86719263 0 382.35100241 0 1571.99119754 0 8155
0.08850000 0.08849210 20875.96049939 0 244.31117415 0 6314.71222441 0 -136.97322626 0 278.15354382 0 8718
0.08950000 0.08949900 20079.46914152 0 675.65117336 0 6993.59176365 0 -771.24771162 0 1204.79890529 0 8571
0.09050000 0.09049190 19998.51284159 0 248.99499590 0 7517.40209177 0 -440.45389908 0 -93.25374862 0 8932
0.09150000 0.09150830 19205.75623840 0 64.85379529 0 7319.74569274 0 -19.68808882 0 381.23387138 0 9285
0.09250000 0.09250820 19439.94732583 0 517.78748697 0 7724.04387117 0 401.01049586 0 -412.24441823 0 9204
0.09350000 0.09350330 18713.53754103 0 303.23242148 0 7778.72507348 0 -347.70895586 0 171.52849469 0 9349
0.09450000 0.09448040 18511.20171408 0 322.61250289 0 8305.56714362 0 700.45543671 0 820.04118303 0 9564
0.09550000 0.09549270 18209.56535100 0 -73.05235072 0 7125.11005117 0 411.48758118 0 -102.12796512 0 10155
0.09650000 0.09649430 18159.14616285 0 31.52583315 0 7095.49564349 0 1400.02771378 0 1088.91495993 0 9913
0.09750000 0.09749140 17780.28825452 0 245.74575933 0 6562.33744411 0 325.46849176 0 457.06037591 0 10476
0.09850000 0.09850240 17634.96235927 0 233.60560972 0 6565.79758447 0 -8.24505313 0 1458.57548564 0 10575
0.09950000 0.09950330 17488.53800676 0 161.25132858 0 5568.16771806 0 497.90541060 0 578.52777951 0 10882
0.10050000 0.10051200 17210.73816617 0 -163.84258925 0 5657.69198460 0 274.96582086 0 1145.46024421 0 10875
0.10150000 0.10150300 17235.12391730 0 108.69113739 0 5068.54541877 0 -162.64087701 0 807.60994224 0 11118
0.10250000 0.10250800 17463.93256417 0 285.26825148 0 5598.40824638 0 -51.49073320 0 -655.74822630 0 11575
0.10350000 0.10349800 16527.71744307 0 307.76245921 0 5501.99665283 0 -799.15072290 0 540.53763524 0 11364
0.10450000 0.10450100 16387.55429693 0 235.73991217 0 6245.48744800 0 397.04726207 0 184.64187743 0 12093
0.10550000 0.10551000 16263.31878103 0 312.57919429 0 6719.24107886 0 -612.10651944 0 -833.19411024 0 12067
0.10650000 0.10649700 15957.83781755 0 458.50045337 0 6734.20206672 0 -65.36776344 0 -6.24020387 0 12054
0.10750000 0.10749900 15754.73307052 0 -100.15271928 0 7193.68673780 0 768.71137381 0 363.89911739 0 12807
0.10850000 0.10850100 15905.11186916 0 63.44853892 0 6590.10644360 0 406.75323040 0 218.16239912 0 12736
0.10950000 0.10950300 15964.97778972 0 74.62633013 0 6612.13051162 0 464.85832398 0 1085.12638085 0 12933
0.11050000 0.11050200 15437.82815155 0 -42.50908759 0 6308.52791005 0 415.61448510 0 1475.83224917 0 13428
0.11150000 0.11150900 15271.30203121 0 86.14563170 0 5535.34581519 0 772.70646286 0 1311.56895078 0 13453
0.11250000 0.11250000 15263.61283041 0 362.22616699 0 5479.91766195 0 339.24314577 0 1619.99377972 0 13668
0.11350000 0.11349100 15084.12491443 0 56.80309220 0 5057.33017017 0 -239.80969631 0 949.00885279 0 13791
0.11450000 0.11448600 14706.69500053 0 312.36609358 0 5268.96993009 0 117.31743208 0 1372.91778865 0 14205
0.11550000 0.11549300 14163.94726929 0 335.56111704 0 4888.24464442 0 428.75423082 0 1743.19674580 0 14776
0.11650000 0.11649800 14400.11557979 0 -129.32686529 0 4571.53744776 0 451.99978332 0 1208.79728971 0 14553
0.11750000 0.11747300 14208.43478824 0 -18.36488721 0 4114.79891983 0 435.86454466 0 548.68489272 0 14568
0.11850000 0.11849100 13918.33222637 0 218.78522439 0 4120.99421876 0 -153.98173845 0 1066.88320271 0 16015
0.11950000 0.11950300 13649.86927248 0 165.63527150 0 3889.04398413 0 219.28062861 0 1470.28504001 0 15270
0.12050000 0.12050700 13830.23595427 0 195.19475631 0 4446.95042554 0 -256.86983599 0 663.63624787 0 15999
0.12150000 0.12150000 13374.81557504 0 238.69805756 0 4522.44739289 0 -401.97713824 0 1027.09817927 0 15670
0.12250000 0.12250700 13281.88609101 0 127.37051291 0 4805.37702887 0 -384.18762295 0 120.52822265 0 16887
0.12350000 0.12352200 13021.22218365 0 40.76221101 0 4995.09158192 0 12.43387709 0 964.14888918 0 16407
0.12450000 0.12449800 13095.80743148 0 191.60499799 0 5075.55357608 0 614.84277647 0 281.22592877 0 16306
0.12550000 0.12549900 12979.04142494 0 -13.52530422 0 5080.82617092 0 290.80996835 0 1246.94671029 0 17523
0.12650000 0.12650100 13177.75234293 0 75.43446513 0 4515.63695789 0 165.01903698 0 629.59395899 0 17154
0.12750000 0.12750600 12760.88781347 0 114.83491868 0 4988.31410064 0 -364.88003972 0 823.62984289 0 18007
0.12850000 0.12850300 12640.49689798 0 266.30558383 0 5372.54346496 0 80.50373553 0 955.29642214 0 17496
0.12950000 0.12949900 12506.81464967 0 -5.45916780 0 5465.92331648 0 88.48930011 0 1583.28333816 0 18405
0.13050000 0.13049000 12419.92668055 0 -89.60225700 0 4347.04573791 0 937.39047037 0 1006.92281481 0 18100
0.13150000 0.13148800 12558.99136943 0 56.39106088 0 4368.94897564 0 554.81098885 0 1173.53681173 0 19059
0.13250000 0.13249300 12640.27720653 0 61.78909954 0 3504.14456088 0 339.11902010 0 1671.77505487 0 18957
0.13350000 0.13349100 12566.13134161 0 44.44039514 0 3668.52868956 0 220.38677507 0 1530.95283438 0 19468
0.13450000 0.13450700 12224.62098005 0 73.56357273 0 3207.49519375 0 15.02887251 0 1510.84008198 0 19953
0.13550000 0.13551000 11953.41188302 0 168.80541914 0 3328.50124531 0 -99.10775689 0 1114.69245641 0 19956
0.13650000 0.13649900 11798.09002672 0 228.65376440 0 3266.54825595 0 -219.53766761 0 1133.38819894 0 19723
0.13750000 0.13749600 11662.76009252 0 272.42948305 0 3528.71704975 0 315.47143225 0 1134.56354821 0 20946
0.13850000 0.13851100 11431.64468540 0 -35.17963153 0 3159.64639559 0 98.68847575 0 1147.79995817 0 20955
0.13950000 0.13949800 11385.94886347 0 23.58277887 0 3279.41119044 0 188.01963350 0 1055.24175268 0 20506
0.14050000 0.14048300 11204.48372442 0 165.24971300 0 3370.33049770 0 -186.27528338 0 831.07298927 0 21447
0.14150000 0.14148400 11087.93740933 0 436.46759769 0 3531.69386892 0 -320.96591546 0 1055.43178579 0 21771
0.14250000 0.14249400 10704.61976454 0 102.29020725 0 3735.57852060 0 -332.21192086 0 915.05663740 0 22470
0.14350000 0.14350900 10842.43221214 0 88.34562190 0 3927.00666698 0 386.50866313 0 572.67190387 0 22519
0.14450000 0.14449900 10708.07990490 0 -140.78157757 0 3809.02137288 0 375.81737864 0 583.13910308 0 22218
0.14550000 0.14550500 10631.01214367 0 40.35116830 0 3533.12186335 0 -124.81769824 0 212.94582560 0 23559
0.14650000 0.14650700 10363.26318700 0 239.58341411 0 3459.17372074 0 -104.92309946 0 597.25208194 0 23044
0.14750000 0.14750500 10307.35171256 0 286.34583805 0 3887.07774564 0 -238.88809067 0 -24.84216012 0 23649
0.14850000 0.14849900 9967.79660492 0 185.39102528 0 3554.42094959 0 -174.14831525 0 -171.42633816 0 23640
0.14950000 0.14949500 10065.10893342 0 96.44169128 0 3697.93439036 0 88.65604592 0 -532.92972027 0 24457
0.15050000 0.15050000 9689.60131973 0 -5.06797422 0 3669.91274571 0 175.42252567 0 -530.45269915 0 24591
0.15150000 0.15149900 9573.32961896 0 119.64835839 0 3583.53006693 0 273.99808001 0 -143.80343349 0 25020
0.15250000 0.15250500 9633.36030811 0 12.47221325 0 3450.99021416 0 288.20442773 0 -420.35872200 0 25297
0.15350000 0.15350100 9532.81851528 0 133.19673021 0 3361.87237681 0 291.85569966 0 352.36861155 0 25452
0.15450000 0.15450400 9440.71287418 0 -1.78213706 0 2876.13457726 0 385.63978344 0 622.30349816 0 26061
0.15550000 0.15549900 9628.65891105 0 25.55330135 0 2943.21736202 0 192.10809142 0 734.94040387 0 26128
0.15650000 0.15649500 9239.66224222 0 186.75091537 0 3313.58419574 0 -161.92907671 0 940.73417427 0 26331
0.15750000 0.15749700 9114.40516108 0 124.01472599 0 2985.68371962 0 4.09689407 0 1563.97245956 0 27345
0.15850000 0.15849900 9213.06859200 0 -171.21213900 0 2861.61297231 0 458.62457904 0 1414.76901019 0 26980
0.15950000 0.15949700 9264.53131455 0 -8.79799455 0 2780.21728948 0 414.97188761 0 787.77290262 0 27777
0.16050000 0.16050000 9156.68478094 0 298.69359609 0 2701.98516356 0 -324.09981401 0 1037.56757540 0 28224
0.16150000 0.16150500 8962.67526001 0 163.97660104 0 2938.58187239 0 -222.71440600 0 1395.04071783 0 28075
0.16250000 0.16249700 8523.34727962 0 4.53360772 0 3095.76012145 0 -114.62950717 0 962.34851774 0 28590
0.16350000 0.16349900 8821.17199602 0 129.30269923 0 2915.82183800 0 82.30256914 0 688.20214599 0 29163
0.16450000 0.16449100 8602.82066225 0 110.92331238 0 2787.44513824 0 -120.79295085 0 276.27957574 0 28996
0.16550000 0.16550500 8564.78108740 0 185.27458881 0 2896.87345030 0 153.41822987 0 -97.48599459 0 30777
0.16650000 0.16650700 8368.51972909 0 -34.01735391 0 2836.22762508 0 140.76400226 0 326.14404297 0 29211
0.16750000 0.16749900 8303.87551945 0 14.07332455 0 2598.34572125 0 -92.94760858 0 196.79630700 0 30922
0.16850000 0.16850800 8435.65743671 0 -12.58897925 0 2441.10156475 0 183.26221512 0 -185.41738826 0 30867
0.16950000 0.16949900 8420.80629458 0 76.36551751 0 2403.27069678 0 290.66167662 0 -194.21603090 0 30852
0.17050000 0.17049200 8307.92882673 0 83.90203275 0 2297.10480278 0 -130.48244232 0 67.16044568 0 31257
0.17150000 0.17149500 8023.26362828 0 77.29975540 0 2115.69458660 0 11.39484637 0 98.73373219 0 32608
0.17250000 0.17250900 8051.90040900 0 178.18844104 0 2311.23096312 0 125.21094594 0 -266.91522761 0 32361
0.17350000 0.17350400 7783.37154768 0 204.44156951 0 2497.67211355 0 -119.44843916 0 217.34075309 0 32508
0.17450000 0.17449800 7781.04281829 0 -21.95508491 0 2345.84335133 0 271.33871499 0 411.77977081 0 32791
0.17550000 0.17549800 7566.70085351 0 -88.32002785 0 2100.94230563 0 382.97053230 0 415.13885311 0 33633
0.17650000 0.17650100 7727.40515038 0 86.17748696 0 1937.01952899 0 339.41670202 0 508.28363477 0 33984
0.17750000 0.17750300 7648.21736664 0 153.19634151 0 1940.85314482 0 -36.74284606 0 855.10284025 0 34069
0.17850000 0.17849800 7719.07884436 0 -38.21708554 0 1813.99231608 0 -71.64116268 0 452.72146974 0 34536
