### header ###
fiducial parameters:
Omega_m = 0.31
Omega_nu = 0
Omega_de = 0.69
Omega_k = 0
H_0 = 100
w_de = -1
zeff = 0
beta = 0
fgrowth = 0
b_1 = 2
gamma = 0.55
Lx = 3500 Ly = 3500 Lz = 3500
nx = 700 ny = 700 nz = 700
xoffset = -983.599254 yoffset = -42.9823471 zoffset = 800.977702
bins = 400 dk = 0.001
kx_ny = 0.628318531 ky_ny = 0.628318531 kz_ny = 0.628318531
############################
A(data) = 9.0744046 (not used)
A(ran) = 9.08109136 (used)
Ngal = 504225
weighted Ngal = 0
Nran = 25229228
weighted Nran = 0
SN(data) = 6732.88796
SN(ran) = 134.802545
SN(data+ran) = 6867.69051
############################
13 columns: k_central k_mean P_0(k) sigma^{lin}_{P_0(k)} P^img_1(k) sigma^{lin}_{P_1(k)} P_2(k) sigma^{lin}_{P_2(k)} P^img_3(k) sigma^{lin}_{P_3(k)} P_4(k) sigma^{lin}_{P_4(k)} N_modes
### header ###
0.00050000 0 0 0 0 0 0 0 0 0 0 0 0
0.00150000 0.00179520 18483.08120827 0 -11945.28329931 0 1340.39246924 0 -41452.48155021 0 -33911.90201030 0 3
0.00250000 0.00253879 33345.20791083 0 -4769.45747653 0 -14845.64984369 0 8993.04760320 0 -8616.05707221 0 6
0.00350000 0.00331552 47567.70295197 0 -21429.14357459 0 -1153.43504390 0 -23107.14688211 0 29340.67213057 0 7
0.00450000 0.00420575 47237.50670018 0 -9868.07865503 0 1382.89178056 0 -3266.77893197 0 -3786.70072139 0 24
0.00550000 0.00557378 68655.77554791 0 -7200.42028079 0 -20773.14490003 0 3359.69743144 0 4690.40150766 0 45
0.00650000 0.00659388 73981.09633535 0 -25059.87434990 0 -11156.48114224 0 -7313.42956351 0 -12968.05685236 0 40
0.00750000 0.00754703 88435.69539514 0 2538.42487782 0 5169.76825511 0 -17948.02267783 0 -19827.48304650 0 57
0.00850000 0.00846663 88616.28176837 0 18652.90270038 0 13887.57542314 0 -24097.18640887 0 -1790.65009935 0 75
0.00950000 0.00948925 85526.87072987 0 6320.30337185 0 38465.22703672 0 -7386.80650835 0 9961.23881509 0 112
0.01050000 0.01054430 72411.73045065 0 -2131.21578766 0 29976.23950013 0 25500.13601896 0 7043.69239920 0 105
0.01150000 0.01145670 80030.52014734 0 -5424.67624643 0 12546.02957378 0 15976.07220803 0 10541.48787713 0 144
0.01250000 0.01249090 84299.89397253 0 -2351.68714394 0 27150.12866640 0 -2668.14169544 0 3687.38920069 0 169
0.01350000 0.01339930 85678.01844859 0 4463.65796044 0 22697.75186201 0 -1680.63960495 0 -11885.08784156 0 180
0.01450000 0.01448870 78542.98932838 0 2256.96717457 0 21933.77483897 0 -5791.78066210 0 1272.88128615 0 267
0.01550000 0.01550050 84905.03407604 0 -507.14343614 0 32591.77607747 0 12557.78306644 0 4001.39419250 0 238
0.01650000 0.01653350 84902.83716152 0 -2371.20672942 0 22142.26202657 0 -3275.25902201 0 -13225.75492511 0 315
0.01750000 0.01747870 87651.06737565 0 6411.44237056 0 31646.00437822 0 -7169.65249299 0 -17247.09710142 0 297
0.01850000 0.01844180 75501.69071778 0 5016.17097671 0 26397.68544458 0 5255.83238129 0 13546.72413594 0 388
0.01950000 0.01947590 69353.29590683 0 3870.51301019 0 31347.11415828 0 6831.27273462 0 9521.17486834 0 399
0.02050000 0.02045430 70057.95623792 0 3673.13122548 0 47518.82160399 0 9293.86012334 0 7624.64447388 0 462
0.02150000 0.02154770 61539.09066391 0 2788.41178063 0 30159.79170797 0 8521.06248853 0 19051.20330218 0 571
0.02250000 0.02255340 69185.34179206 0 -5476.19389184 0 29257.29922468 0 5971.53220782 0 1372.40151374 0 510
0.02350000 0.02348930 66623.40992891 0 -634.12509518 0 22989.61195549 0 3279.58694360 0 13671.83841764 0 555
0.02450000 0.02439640 67131.66610225 0 3850.46616523 0 34450.25591251 0 -14460.42088326 0 -1116.57081832 0 592
0.02550000 0.02547300 62596.13608341 0 1583.60189076 0 26750.50991589 0 -5822.89995622 0 -3510.25198324 0 837
0.02650000 0.02652900 63156.67882224 0 423.76613641 0 33394.30895027 0 8051.86745529 0 -13736.64739587 0 723
0.02750000 0.02749970 58576.77113017 0 1780.24770911 0 28161.36841824 0 4370.12432491 0 771.31252060 0 826
0.02850000 0.02848090 64516.12952491 0 374.41355026 0 33015.67073339 0 12763.63395662 0 -1045.38749262 0 831
0.02950000 0.02946900 62505.18382244 0 -272.64697758 0 24824.03557658 0 -2065.76970422 0 -2240.11684023 0 996
0.03050000 0.03053250 59931.49846663 0 1727.88425162 0 26845.30677727 0 3562.27491898 0 247.68893022 0 1041
0.03150000 0.03150510 58443.08888186 0 1701.78490716 0 24483.73351801 0 -2776.37268908 0 7334.34418970 0 1036
0.03250000 0.03246190 58892.02836326 0 -1728.20280422 0 25614.37557381 0 4163.26285405 0 296.65046559 0 1059
0.03350000 0.03345080 59004.83992367 0 1147.12989924 0 23135.59692510 0 1482.79646818 0 -1883.06330847 0 1302
0.03450000 0.03451200 57626.71544761 0 2250.71695277 0 23002.24421396 0 -3867.76686704 0 -3654.84191213 0 1339
0.03550000 0.03553350 52593.58429084 0 4224.24920103 0 27067.96406349 0 -2023.64386837 0 -3489.23849589 0 1365
0.03650000 0.03647120 52782.40909352 0 2002.81711876 0 28202.23102824 0 -3053.90889992 0 -8299.43775212 0 1308
0.03750000 0.03744890 48907.49126972 0 325.08183480 0 24322.37014679 0 8182.71568387 0 -10263.90772800 0 1579
0.03850000 0.03847530 48574.98825768 0 -669.87438664 0 23235.66638132 0 3694.05683624 0 -6763.60776752 0 1662
0.03950000 0.03950240 47189.06473510 0 883.45621900 0 18673.66354256 0 15.44277121 0 -3963.91483085 0 1683
0.04050000 0.04050350 44099.10446796 0 1984.37402139 0 19479.38194140 0 1693.72223089 0 -7933.36588628 0 1822
0.04150000 0.04152450 43665.54338818 0 -538.71309774 0 15457.60038219 0 2530.57090843 0 -5055.04537907 0 1887
0.04250000 0.04250150 44103.93767990 0 158.22398038 0 13299.79094431 0 4577.58994725 0 -7950.08440575 0 1920
0.04350000 0.04349210 42679.23861610 0 2371.87678834 0 15253.50702363 0 -3319.31814263 0 -4699.71642521 0 2005
0.04450000 0.04448520 40833.61073098 0 443.06493198 0 11515.67666565 0 600.89896003 0 -5316.08276189 0 2151
0.04550000 0.04548030 40769.46082711 0 -249.24434570 0 14756.56496005 0 1933.06508286 0 -7040.93527148 0 2274
0.04650000 0.04648670 39109.58206434 0 828.08628399 0 12912.03553219 0 -666.92942273 0 -7023.90918398 0 2311
0.04750000 0.04749250 37621.83155392 0 1384.62734302 0 12210.67057287 0 1722.17227388 0 -3159.64639559 0 2568
0.04850000 0.04851840 39614.32317445 0 406.64668005 0 10799.09807331 0 3045.36290245 0 -4821.24973625 0 2493
0.04950000 0.04949480 37528.35284126 0 -1.88417275 0 12425.74850402 0 -205.58506352 0 752.51681846 0 2644
0.05050000 0.05050630 35632.41561372 0 1254.92150998 0 10778.06261681 0 -190.40658113 0 -2697.44853508 0 2829
0.05150000 0.05149060 33524.69582681 0 502.11030498 0 11602.12525187 0 395.80380845 0 677.06928168 0 2784
0.05250000 0.05249300 33733.29286013 0 175.68505695 0 10372.49022797 0 1681.43049417 0 -3376.47087377 0 3055
0.05350000 0.05348950 34280.87380331 0 1740.65930953 0 11532.92244460 0 -15.00778213 0 1829.83206975 0 3009
0.05450000 0.05448610 33948.37079127 0 116.78138494 0 10121.21813017 0 -66.71227512 0 764.61522670 0 3336
0.05550000 0.05550870 32801.58141378 0 -365.92906640 0 12614.90284387 0 -257.44103376 0 -3412.81882444 0 3349
0.05650000 0.05647670 32225.22089043 0 643.08960486 0 12064.46591182 0 -1194.55029908 0 -1908.27290255 0 3324
0.05750000 0.05747970 31320.09210973 0 1416.77918697 0 12442.77459152 0 -3000.85341435 0 -3182.16476938 0 3639
0.05850000 0.05849280 30296.43979088 0 653.68532357 0 15514.17093099 0 1857.73288410 0 305.97417080 0 3846
0.05950000 0.05951020 32116.58346761 0 -218.49413322 0 14220.95720098 0 2412.67349091 0 -2372.03057236 0 3787
0.06050000 0.06049470 31656.98895080 0 -816.39869876 0 12738.80882258 0 1757.42176729 0 -1305.00017638 0 3930
0.06150000 0.06148310 32068.80057688 0 50.45247140 0 13252.22774504 0 -268.02247253 0 -309.10038015 0 4083
0.06250000 0.06249100 30336.75317225 0 87.06833580 0 10891.09386868 0 966.88075238 0 2874.09144676 0 4303
0.06350000 0.06350600 31774.41403170 0 -730.53339335 0 11042.35143312 0 2794.55215670 0 2329.88276737 0 4470
0.06450000 0.06451750 31178.17143198 0 954.18807877 0 9499.70002894 0 -260.85723583 0 576.61536543 0 4479
0.06550000 0.06550280 31204.53440618 0 833.66974223 0 10325.86071736 0 928.85875285 0 1348.51006838 0 4636
0.06650000 0.06648880 30325.87844539 0 314.98920951 0 9557.36903499 0 172.01950508 0 2490.47721851 0 4653
0.06750000 0.06749660 29993.59512481 0 68.93950706 0 9754.39931339 0 -8.45202445 0 3218.55665834 0 5220
0.06850000 0.06852730 28578.56248488 0 336.75404163 0 9733.90210095 0 870.98213838 0 1271.71692146 0 5029
0.06950000 0.06949320 28721.25208271 0 577.42273151 0 9010.94147194 0 688.51630477 0 1594.12511129 0 5040
0.07050000 0.07048030 28519.24579294 0 95.89389064 0 8738.97443939 0 1057.19371123 0 604.64799465 0 5475
0.07150000 0.07148790 28304.82693615 0 378.63272459 0 10079.68546124 0 -923.11052602 0 2568.50063755 0 5509
0.07250000 0.07249820 27258.10701488 0 394.19676548 0 8451.90361955 0 123.39190072 0 1176.25000116 0 5916
0.07350000 0.07351270 27259.53500931 0 689.43461504 0 9544.06671760 0 15.62720218 0 901.35228465 0 5721
0.07450000 0.07449140 26090.00756658 0 667.41494084 0 9584.22631496 0 -497.09145377 0 497.29247145 0 6028
0.07550000 0.07549160 25913.37563947 0 61.54018912 0 8918.30857136 0 1412.70391054 0 912.32147883 0 6183
0.07650000 0.07648840 25722.79330518 0 -167.72234029 0 8175.88327973 0 1889.42337600 0 1992.72229655 0 6330
0.07750000 0.07749960 24568.42457261 0 389.36575046 0 8022.38486248 0 -1565.37848485 0 982.56782049 0 6583
0.07850000 0.07848650 23779.95195272 0 1601.52871321 0 8485.53838080 0 -35.12580713 0 1382.52928966 0 6549
0.07950000 0.07947320 23880.57063757 0 302.07245062 0 9306.66813497 0 55.66212464 0 67.67935689 0 6828
0.08050000 0.08048110 23433.38868778 0 -243.95856937 0 9241.90309503 0 -123.00963759 0 170.91116171 0 7147
0.08150000 0.08149960 22900.19753468 0 -82.56894503 0 8829.90473122 0 844.24129488 0 -1029.13032520 0 7386
0.08250000 0.08250610 22717.74378410 0 14.21810121 0 7864.44867790 0 -206.96033201 0 946.57137614 0 7227
0.08350000 0.08350160 23189.97055938 0 739.03545253 0 8744.06029650 0 67.04598644 0 -1570.57418768 0 7798
0.08450000 0.08449610 21855.67452792 0 667.57970943 0 8149.82787357 0 303.18738473 0 515.06550988 0 7371
0.08550000 0.08548940 21825.02757042 0 -76.09485764 0 8321.52772759 0 1033.90641736 0 134.91581582 0 8256
0.08650000 0.08650700 21313.14648813 0 65.79110886 0 7027.11667917 0 1303.82482712 0 103.28870490 0 8037
0.08750000 0.08749060 21162.32830659 0 499.89581515 0 7312.40799826 0 -73.87487552 0 1084.01144673 0 8155
0.08850000 0.08849210 20605.30063099 0 85.68153351 0 6541.56561736 0 -602.55543358 0 -46.72002349 0 8718
0.08950000 0.08949900 20148.56210305 0 116.05200932 0 6516.69654504 0 870.86350499 0 262.89707096 0 8571
0.09050000 0.09049190 19392.16443510 0 381.96764083 0 5711.13193021 0 742.35608882 0 1623.98117957 0 8932
0.09150000 0.09150830 20185.14072975 0 165.46171525 0 5548.05496567 0 1381.46378612 0 673.42679742 0 9285
0.09250000 0.09250820 19646.67698181 0 -197.36750477 0 4558.60860583 0 865.67878673 0 653.31953731 0 9204
0.09350000 0.09350330 19688.41835762 0 210.52043198 0 4518.77854565 0 -393.31799968 0 355.68595247 0 9349
0.09450000 0.09448040 18755.49860829 0 809.64648200 0 4881.90654604 0 -1521.75874713 0 850.61893773 0 9564
0.09550000 0.09549270 18028.53959486 0 415.28494792 0 5728.03718741 0 -125.31859475 0 221.99711341 0 10155
0.09650000 0.09649430 18151.56680777 0 121.36414862 0 5841.51880675 0 -231.07037036 0 -715.20881614 0 9913
0.09750000 0.09749140 17896.83456961 0 -221.80158802 0 5252.91048498 0 275.91928176 0 -1533.86374611 0 10476
0.09850000 0.09850240 17831.25667129 0 56.78705472 0 5128.35641648 0 695.70241215 0 -1826.18519165 0 10575
0.09950000 0.09950330 17645.50754894 0 747.99556838 0 5613.38021881 0 -649.68913607 0 -1316.79760733 0 10882
0.10050000 0.10051200 17177.56475698 0 485.71583040 0 5721.44644386 0 -511.05723935 0 -620.71183360 0 10875
0.10150000 0.10150300 16755.20794123 0 -34.89139635 0 5746.49126935 0 642.32398015 0 -1040.60480972 0 11118
0.10250000 0.10250800 16630.09365952 0 -381.89733956 0 4925.01000885 0 791.67132742 0 -690.71981003 0 11575
0.10350000 0.10349800 16487.51390742 0 311.89156005 0 4817.32824384 0 361.33531815 0 -517.74464713 0 11364
0.10450000 0.10450100 16185.32831571 0 608.79576926 0 5357.71429198 0 -708.46648549 0 -438.18338793 0 12093
0.10550000 0.10551000 15828.87893544 0 580.17436694 0 6228.87877426 0 258.17260629 0 326.76027749 0 12067
0.10650000 0.10649700 15169.14550621 0 120.31951577 0 6116.93499508 0 -362.70729126 0 -211.92096498 0 12054
0.10750000 0.10749900 15240.21569081 0 73.50052128 0 6472.25296437 0 296.56258901 0 276.56517462 0 12807
0.10850000 0.10850100 15004.48676321 0 -259.67309891 0 5822.01020585 0 438.19437250 0 -154.52877016 0 12736
0.10950000 0.10950300 15170.57350064 0 234.97868129 0 5756.80578300 0 1226.25177555 0 1075.03705093 0 12933
0.11050000 0.11050200 15277.78292904 0 -51.95406248 0 5113.85678067 0 327.33037681 0 1562.57741884 0 13428
0.11150000 0.11150900 14815.88165199 0 305.80390992 0 5213.32208540 0 258.95031403 0 1205.84243969 0 13453
0.11250000 0.11250000 14954.72664942 0 316.06350071 0 4852.81939785 0 -55.56447179 0 1856.62344227 0 13668
0.11350000 0.11349100 14510.84007141 0 -143.68040628 0 5600.20971628 0 240.04586462 0 2266.07338524 0 13791
0.11450000 0.11448600 14252.70261574 0 173.12455308 0 4937.48848331 0 149.98884631 0 2128.96395028 0 14205
0.11550000 0.11549300 14313.44730212 0 26.08154945 0 4554.47840654 0 148.06325074 0 1914.34737119 0 14776
0.11650000 0.11649800 14406.15709471 0 -17.49897335 0 4854.14853113 0 289.02717222 0 1550.64817302 0 14553
0.11750000 0.11747300 13887.68526887 0 204.86447556 0 4164.37229589 0 173.46287792 0 1686.46142841 0 14568
0.11850000 0.11849100 13950.40717831 0 170.54537544 0 4530.69680690 0 -208.47510456 0 1011.35069602 0 16015
0.11950000 0.11950300 13725.77266902 0 346.83238697 0 4322.22060388 0 -163.48888601 0 1475.63452686 0 15270
0.12050000 0.12050700 13403.70500093 0 39.28698291 0 4023.17659993 0 445.07071494 0 773.31610664 0 15999
0.12150000 0.12150000 13545.18629578 0 92.83908101 0 4068.66371498 0 870.80748367 0 1425.19336957 0 15670
0.12250000 0.12250700 13472.79796247 0 -161.43257403 0 3475.83731734 0 -142.15355069 0 135.83961837 0 16887
0.12350000 0.12352200 13078.56165252 0 105.54900040 0 3197.27954125 0 264.07022331 0 720.30785474 0 16407
0.12450000 0.12449800 13171.16159939 0 220.38128278 0 3453.87915675 0 -342.95702976 0 228.15836017 0 16306
0.12550000 0.12549900 12453.31978119 0 190.23961562 0 3113.41232959 0 46.64708592 0 832.58226955 0 17523
0.12650000 0.12650100 12764.95210533 0 -20.87354389 0 3124.33099474 0 136.35369637 0 -540.05541250 0 17154
0.12750000 0.12750600 12464.08466232 0 560.45705916 0 3433.83231179 0 -360.77840032 0 -96.19124302 0 18007
0.12850000 0.12850300 12047.11028714 0 267.74785821 0 3658.17023762 0 -209.65594612 0 63.91329618 0 17496
0.12950000 0.12949900 12049.63673883 0 -107.15055108 0 3579.54266708 0 551.96818147 0 360.32913130 0 18405
0.13050000 0.13049000 11994.71387592 0 -170.27295804 0 3322.64646812 0 433.80823267 0 -5.28105296 0 18100
0.13150000 0.13148800 12277.89615707 0 -90.27198639 0 2858.25169310 0 350.20135538 0 319.20728538 0 19059
0.13250000 0.13249300 12402.02182724 0 -147.95999576 0 3104.41596465 0 193.18677645 0 610.76530313 0 18957
0.13350000 0.13349100 12430.25217877 0 -97.08758414 0 2334.11182781 0 250.85248713 0 753.59660194 0 19468
0.13450000 0.13450700 12433.54755055 0 316.53034505 0 2691.31914358 0 -114.71738375 0 540.24215024 0 19953
0.13550000 0.13551000 12259.99130376 0 18.14431699 0 2715.58406441 0 -576.75706641 0 489.08150344 0 19956
0.13650000 0.13649900 11946.93098519 0 274.76590164 0 3156.99911360 0 51.48787721 0 184.03443057 0 19723
0.13750000 0.13749600 11919.68924519 0 291.29438800 0 3156.42791582 0 -142.49077707 0 84.84989152 0 20946
0.13850000 0.13851100 11499.96872686 0 163.95792726 0 2990.28625553 0 -38.72512202 0 193.24169931 0 20955
0.13950000 0.13949800 11569.06168840 0 176.09917534 0 3638.78246701 0 -264.69414704 0 -391.75489500 0 20506
0.14050000 0.14048300 11254.90291257 0 30.48251845 0 3380.10676730 0 405.95245506 0 -292.53784161 0 21447
0.14150000 0.14148400 11104.85365111 0 199.18654999 0 3458.51464638 0 -89.15749166 0 -309.32666235 0 21771
0.14250000 0.14249400 10777.32665045 0 119.11011433 0 3106.06365054 0 -116.98899336 0 -625.73617710 0 22470
0.14350000 0.14350900 11096.28568450 0 -4.58932147 0 3191.27098005 0 430.42388586 0 -337.93598164 0 22519
0.14450000 0.14449900 10766.00155612 0 -71.86228213 0 2972.93063085 0 116.00477566 0 -623.05264601 0 22218
0.14550000 0.14550500 10744.81231561 0 230.21247525 0 3071.69292293 0 -142.79065590 0 -389.53491288 0 23559
0.14650000 0.14650700 10272.34387974 0 387.17432823 0 2920.77588023 0 -33.57159995 0 172.14143384 0 23044
0.14750000 0.14750500 10171.67027203 0 55.25349854 0 2997.33835113 0 266.82954795 0 -14.24600203 0 23649
0.14850000 0.14849900 10171.72519490 0 155.53385855 0 3136.26024056 0 546.20897006 0 273.79376696 0 23640
0.14950000 0.14949500 9874.12016995 0 180.78739092 0 3017.49504181 0 -156.04244426 0 709.57812424 0 24457
0.15050000 0.15050000 9597.67143180 0 240.97076563 0 3210.99927241 0 -146.73082208 0 1235.53373938 0 24591
0.15150000 0.15149900 9568.91382078 0 -80.94498581 0 3022.64680635 0 22.77651125 0 792.29964498 0 25020
0.15250000 0.15250500 9467.64704615 0 39.39023789 0 3031.34658784 0 455.43136380 0 714.74746409 0 25297
0.15350000 0.15350100 9507.37824518 0 -3.48360341 0 3129.42783642 0 -130.16608663 0 898.74235020 0 25452
0.15450000 0.15450400 9385.30669008 0 106.93470423 0 3037.73960908 0 207.40630565 0 1039.06147727 0 26061
0.15550000 0.15549900 9617.11412526 0 -2.56977485 0 2695.61411146 0 226.90502044 0 677.27469319 0 26128
0.15650000 0.15649500 9445.00784206 0 51.48480153 0 2838.27075558 0 -312.61654184 0 621.91025047 0 26331
0.15750000 0.15749700 9447.07294171 0 163.16484112 0 2790.50983399 0 -51.17723350 0 363.62999536 0 27345
0.15850000 0.15849900 9262.40030747 0 11.09936136 0 2990.17640980 0 27.95650614 0 347.47168909 0 26980
0.15950000 0.15949700 9260.74163701 0 -53.72719218 0 2652.66443267 0 35.87319744 0 -270.80596322 0 27777
0.16050000 0.16050000 9122.62162137 0 274.16943934 0 2904.68348140 0 -366.53871018 0 -313.61284257 0 28224
0.16150000 0.16150500 8901.75482048 0 182.87555816 0 3119.61861310 0 95.05499883 0 -160.10783457 0 28075
0.16250000 0.16249700 8814.53731418 0 17.00170175 0 2979.63122012 0 183.23804906 0 -240.28972213 0 28590
0.16350000 0.16349900 8762.92080762 0 28.70774106 0 2823.04613798 0 278.76977834 0 -474.98280453 0 29163
0.16450000 0.16449100 8632.39113164 0 99.73969935 0 2713.47502648 0 122.83058906 0 -32.71996604 0 28996
0.16550000 0.16550500 8521.53482515 0 128.32177690 0 2590.22812212 0 -2.83337164 0 40.17014255 0 30777
0.16650000 0.16650700 8415.16022427 0 61.11157110 0 2781.75512964 0 -163.23404393 0 38.66415765 0 29211
0.16750000 0.16749900 8343.67262591 0 71.37698371 0 2461.02757941 0 308.90265785 0 -46.17354100 0 30922
0.16850000 0.16850800 8362.75282848 0 8.35976502 0 2432.61049015 0 434.65074939 0 187.48138945 0 30867
0.16950000 0.16949900 8292.01218106 0 16.39733057 0 2369.94350357 0 108.95806250 0 108.65466861 0 30852
0.17050000 0.17049200 8240.64831967 0 125.60858747 0 2023.46811521 0 -37.12620764 0 82.36682889 0 31257
0.17150000 0.17149500 8050.42847628 0 56.08316331 0 2142.91435746 0 121.20706923 0 507.61906813 0 32608
0.17250000 0.17250900 7996.36241003 0 92.95123349 0 1993.13971031 0 115.58186962 0 216.24119738 0 32361
0.17350000 0.17350400 7900.77465943 0 115.64667859 0 2022.72116427 0 17.74085364 0 436.46100695 0 32508
0.17450000 0.17449800 7908.28810708 0 39.36014016 0 1906.02106517 0 -30.10025532 0 274.82741524 0 32791
0.17550000 0.17549800 7740.24611573 0 -18.57897653 0 2039.35180716 0 126.60928203 0 316.52045893 0 33633
0.17650000 0.17650100 7786.63396574 0 7.24263399 0 1848.39599741 0 44.96249187 0 229.74343400 0 33984
0.17750000 0.17750300 7784.36015921 0 110.21480745 0 1828.14044557 0 155.29769024 0 137.33681561 0 34069
0.17850000 0.17849800 7960.40990397 0 5.86322432 0 1781.69767269 0 -134.12492659 0 303.18848319 0 34536
