### header ###
fiducial parameters:
Omega_m = 0.31
Omega_nu = 0
Omega_de = 0.69
Omega_k = 0
H_0 = 100
w_de = -1
zeff = 0
beta = 0
fgrowth = 0
b_1 = 2
gamma = 0.55
Lx = 3500 Ly = 3500 Lz = 3500
nx = 700 ny = 700 nz = 700
xoffset = -983.599254 yoffset = -42.9823471 zoffset = 800.977702
bins = 400 dk = 0.001
kx_ny = 0.628318531 ky_ny = 0.628318531 kz_ny = 0.628318531
############################
A(data) = 9.05156107 (not used)
A(ran) = 9.05391358 (used)
Ngal = 503174
weighted Ngal = 0
Nran = 25229228
weighted Nran = 0
SN(data) = 6711.09907
SN(ran) = 134.39911
SN(data+ran) = 6845.49818
############################
13 columns: k_central k_mean P_0(k) sigma^{lin}_{P_0(k)} P^img_1(k) sigma^{lin}_{P_1(k)} P_2(k) sigma^{lin}_{P_2(k)} P^img_3(k) sigma^{lin}_{P_3(k)} P_4(k) sigma^{lin}_{P_4(k)} N_modes
### header ###
0.00050000 0 0 0 0 0 0 0 0 0 0 0 0
0.00150000 0.00179520 -1981.93544628 0 2122.38419130 0 2002.37773585 0 14760.95878908 0 12814.71221912 0 3
0.00250000 0.00253879 10453.83098793 0 -5389.51462960 0 -1384.35272871 0 -22377.88110844 0 -19180.82125864 0 6
0.00350000 0.00331552 23884.08570079 0 -14395.94144221 0 -14418.45981600 0 -31753.54334379 0 -12525.04904015 0 7
0.00450000 0.00420575 38349.66933316 0 -8281.06056220 0 -21247.45874409 0 -8971.68260953 0 22922.27652557 0 24
0.00550000 0.00557378 59246.50052046 0 -14103.64196582 0 -23653.29983086 0 -15798.23197794 0 5673.39992339 0 45
0.00650000 0.00659388 61746.47939425 0 -24307.65081953 0 -43845.58053279 0 4322.80278623 0 -14632.76882706 0 40
0.00750000 0.00754703 123629.16748850 0 -17069.80609996 0 -49761.98117082 0 -6293.00670899 0 -43327.32839840 0 57
0.00850000 0.00846663 89900.48814886 0 -7889.71319484 0 -41004.31098890 0 -42866.41573289 0 -1857.13971718 0 75
0.00950000 0.00948925 102888.75661476 0 9146.97441878 0 -13311.54443697 0 -23274.22223108 0 -28682.03715860 0 112
0.01050000 0.01054430 99951.81144369 0 19808.69942739 0 -9865.71697193 0 -41589.78870748 0 -32521.47481295 0 105
0.01150000 0.01145670 84095.69076825 0 12760.33858484 0 23912.64558950 0 -12935.21298034 0 -12301.95237102 0 144
0.01250000 0.01249090 65251.21712205 0 2452.39370537 0 24650.36948407 0 9500.11744270 0 -31985.53751671 0 169
0.01350000 0.01339930 70862.24664233 0 -1835.25844860 0 29386.80733542 0 6893.42344628 0 -23972.73120152 0 180
0.01450000 0.01448870 59721.69313033 0 495.28339312 0 16815.40339897 0 13773.33586829 0 -930.22303676 0 267
0.01550000 0.01550050 68506.82474371 0 109.14655777 0 19811.99479916 0 -9818.56020183 0 -6814.29058541 0 238
0.01650000 0.01653350 60254.66459197 0 2929.40975428 0 18501.53529021 0 -3453.29697440 0 -5913.41283430 0 315
0.01750000 0.01747870 65337.77555399 0 1894.64104798 0 20192.39054765 0 8777.73899603 0 660.89999084 0 297
0.01850000 0.01844180 66195.78051832 0 -2668.13071086 0 17722.94878564 0 9385.46047410 0 -2634.63874906 0 388
0.01950000 0.01947590 68419.49739169 0 1188.28909270 0 18044.46722510 0 5581.88744922 0 -1134.46468706 0 399
0.02050000 0.02045430 67224.26604911 0 -4469.22713874 0 19620.97308197 0 -1454.87368468 0 -2174.85749453 0 462
0.02150000 0.02154770 68389.83904572 0 -370.07793947 0 13259.25787149 0 -1012.61941415 0 3478.00127814 0 571
0.02250000 0.02255340 71130.81944194 0 4046.21124863 0 17306.52363908 0 -9809.20134599 0 -69.08021943 0 510
0.02350000 0.02348930 68753.31855243 0 3735.28193714 0 20672.41636946 0 6235.65625554 0 -8205.98100860 0 555
0.02450000 0.02439640 67825.12216931 0 -983.98702726 0 24847.32287045 0 1299.29918321 0 -1423.00743962 0 592
0.02550000 0.02547300 69134.48322101 0 -5593.60798816 0 12156.29693860 0 8976.94421980 0 -4032.84302380 0 837
0.02650000 0.02652900 73050.92272916 0 -3997.05528633 0 5323.85983928 0 5253.40479075 0 -10742.91198455 0 723
0.02750000 0.02749970 73525.01688177 0 4061.80934169 0 5858.19338793 0 -8442.75347059 0 -18005.58183816 0 826
0.02850000 0.02848090 72350.76607282 0 4575.68961619 0 9368.77490835 0 -8848.40275145 0 -18842.93580604 0 831
0.02950000 0.02946900 65108.30783277 0 3499.36627181 0 12959.81842292 0 -7957.37816194 0 -16160.61302740 0 996
0.03050000 0.03053250 62238.58824589 0 1685.79136949 0 19827.81258368 0 -3933.76217911 0 -25788.70074067 0 1041
0.03150000 0.03150510 61012.49025436 0 3332.73030575 0 17614.75074572 0 3673.84522269 0 -15817.01559705 0 1036
0.03250000 0.03246190 54128.67830908 0 252.68691075 0 20269.39240145 0 1864.79596427 0 -16264.19754684 0 1059
0.03350000 0.03345080 57911.54541465 0 1831.84224653 0 18928.61547217 0 4606.53429600 0 -8568.53781122 0 1302
0.03450000 0.03451200 53583.29428042 0 1030.29468990 0 16431.16305008 0 3917.19744366 0 -7695.09952242 0 1339
0.03550000 0.03553350 53192.90257088 0 1286.72184761 0 16922.06359874 0 -2395.86709486 0 -3805.48434051 0 1365
0.03650000 0.03647120 51812.36148886 0 1479.89654102 0 21925.75610099 0 666.61196859 0 -1349.00437414 0 1308
0.03750000 0.03744890 49256.58098636 0 1963.59121007 0 20684.60924502 0 -1090.23750247 0 1312.28294800 0 1579
0.03850000 0.03847530 47074.60548880 0 801.65740236 0 19845.93712844 0 1588.51199471 0 -1467.53889687 0 1662
0.03950000 0.03950240 47948.97746627 0 2420.40663001 0 26259.16998433 0 514.96335336 0 -5269.37635928 0 1683
0.04050000 0.04050350 44502.67766460 0 1348.25742321 0 23358.25421132 0 252.46721930 0 6395.08634199 0 1822
0.04150000 0.04152450 44298.91384322 0 -1314.51281624 0 20609.36492284 0 6735.95959833 0 3630.56600672 0 1887
0.04250000 0.04250150 44630.53808945 0 -1932.97720628 0 18746.71095022 0 5373.77373709 0 7855.63905069 0 1920
0.04350000 0.04349210 46324.46902722 0 1242.87143386 0 12890.72546138 0 5221.58248398 0 5555.18395327 0 2005
0.04450000 0.04448520 44794.09837519 0 1445.99815004 0 16491.13881637 0 -1472.88838371 0 11217.11598289 0 2151
0.04550000 0.04548030 42216.89795615 0 1886.82003230 0 12917.74750993 0 239.14622813 0 8635.95013315 0 2274
0.04650000 0.04648670 42148.57391469 0 -455.61151079 0 16649.53635299 0 3198.32307565 0 10345.80870117 0 2311
0.04750000 0.04749250 39536.66224630 0 778.18776458 0 14874.97865248 0 -2847.71748800 0 6666.75679107 0 2568
0.04850000 0.04851840 38863.74732997 0 1686.04401466 0 15120.70354112 0 1730.09215071 0 7187.16190168 0 2493
0.04950000 0.04949480 38600.33727947 0 -180.21289777 0 14421.86503350 0 -679.44634319 0 6541.90613911 0 2644
0.05050000 0.05050630 38393.71746921 0 132.99022024 0 15066.22006112 0 41.77542798 0 4012.36778050 0 2829
0.05150000 0.05149060 37523.19009214 0 975.06425896 0 16486.52529589 0 -1149.19499889 0 -837.90099959 0 2784
0.05250000 0.05249300 35384.71350201 0 1720.55754171 0 15691.68162390 0 -1816.63959808 0 2626.32342762 0 3055
0.05350000 0.05348950 35609.23816557 0 620.48774832 0 17463.49318127 0 1400.06066750 0 76.05772978 0 3009
0.05450000 0.05448610 35098.67523199 0 179.07269914 0 17650.12106943 0 -611.87694187 0 -2861.92054034 0 3336
0.05550000 0.05550870 33933.65146401 0 327.32927835 0 17497.87489345 0 476.17243374 0 -2316.00925220 0 3349
0.05650000 0.05647670 34000.10812813 0 411.80942916 0 16987.31195987 0 1081.25541747 0 -1808.97236641 0 3324
0.05750000 0.05747970 32872.98113556 0 -19.21981649 0 16038.68427175 0 1241.13587139 0 -1069.68207180 0 3639
0.05850000 0.05849280 35023.98013844 0 119.02443466 0 14595.09174310 0 2756.87507275 0 -1472.72361513 0 3846
0.05950000 0.05951020 34482.77024735 0 -361.97022644 0 14796.43895852 0 440.63953836 0 -426.39694155 0 3787
0.06050000 0.06049470 34211.78084177 0 -119.82191463 0 13120.30302833 0 2794.59609499 0 -409.25441758 0 3930
0.06150000 0.06148310 34169.49023733 0 34.51100060 0 10525.93372235 0 -381.43928289 0 424.55482873 0 4083
0.06250000 0.06249100 33545.89605189 0 441.16789630 0 11603.66309203 0 516.36937865 0 1380.92554206 0 4303
0.06350000 0.06350600 32419.53797940 0 636.83059540 0 11737.01580317 0 966.09865082 0 1398.61070392 0 4470
0.06450000 0.06451750 32698.21658579 0 1193.12230464 0 11739.76194631 0 314.14888971 0 1070.22470969 0 4479
0.06550000 0.06550280 31305.92201110 0 485.63015074 0 11675.50219671 0 575.32687506 0 1354.79324389 0 4636
0.06650000 0.06648880 29790.38053205 0 702.87643651 0 11992.62680713 0 -1781.04958291 0 3405.31636137 0 4653
0.06750000 0.06749660 29350.88778307 0 628.99310287 0 12727.71440428 0 598.06274339 0 437.42764933 0 5220
0.06850000 0.06852730 29532.57261357 0 -95.08278980 0 11087.05864353 0 2358.80514697 0 998.19667036 0 5029
0.06950000 0.06949320 28629.53090166 0 9.25521640 0 10434.47617104 0 2703.94041748 0 680.50086216 0 5040
0.07050000 0.07048030 29320.68020848 0 -107.63156552 0 9208.54294810 0 66.47171298 0 1724.63281813 0 5475
0.07150000 0.07148790 27861.48958677 0 833.84988922 0 8268.52716488 0 21.59940445 0 842.54198151 0 5509
0.07250000 0.07249820 27271.17865625 0 797.35254836 0 8852.28030557 0 -135.62322229 0 1607.81188873 0 5916
0.07350000 0.07351270 26530.48892709 0 565.98120071 0 7836.61377098 0 82.55345678 0 887.06574955 0 5721
0.07450000 0.07449140 25919.52700011 0 504.92674939 0 9214.67233960 0 -27.02248793 0 117.17023881 0 6028
0.07550000 0.07549160 25080.74503780 0 270.24025773 0 8259.13535532 0 -1418.54770315 0 -638.09272279 0 6183
0.07650000 0.07648840 25130.06576869 0 542.50607065 0 9644.10322010 0 545.10721743 0 -983.96945195 0 6330
0.07750000 0.07749960 24315.77940324 0 -171.31868935 0 9278.30596857 0 870.18026458 0 -524.43754721 0 6583
0.07850000 0.07848650 25082.83210659 0 -535.71430942 0 8261.70574531 0 889.82397573 0 -1410.94637893 0 6549
0.07950000 0.07947320 24907.51832820 0 208.02034326 0 7668.85737852 0 884.01643220 0 -1683.94596129 0 6828
0.08050000 0.08048110 24876.65167924 0 473.75143395 0 7561.83468786 0 -954.27046306 0 -1657.29738821 0 7147
0.08150000 0.08149960 24003.26831330 0 1035.69141040 0 8916.69383919 0 144.38341892 0 -7.73903781 0 7386
0.08250000 0.08250610 23210.18217293 0 317.07737676 0 8420.66349513 0 467.12004748 0 -700.96731779 0 7227
0.08350000 0.08350160 22409.73636892 0 241.48484363 0 7435.77573292 0 874.68723471 0 -283.94680740 0 7798
0.08450000 0.08449610 22432.36458844 0 37.51780765 0 6810.52287701 0 1445.61369000 0 355.45967028 0 7371
0.08550000 0.08548940 21985.29248438 0 137.84320441 0 6791.68433504 0 1090.26606236 0 1477.96325625 0 8256
0.08650000 0.08650700 21864.57203171 0 344.50805141 0 6379.56514093 0 -581.68254876 0 55.30172082 0 8037
0.08750000 0.08749060 21130.80258328 0 416.00773280 0 6058.50805352 0 -481.00784259 0 1210.43399103 0 8155
0.08850000 0.08849210 20870.13867592 0 -88.93131931 0 6222.49673759 0 410.06727595 0 204.01317118 0 8718
0.08950000 0.08949900 20427.89978380 0 145.99815109 0 5602.94487486 0 362.33930808 0 221.98832575 0 8571
0.09050000 0.09049190 20432.84284146 0 602.46096625 0 6625.55365932 0 -241.29590898 0 -795.07434801 0 8932
0.09150000 0.09150830 20551.58607106 0 246.27851110 0 6149.09782360 0 -509.02729033 0 325.27736019 0 9285
0.09250000 0.09250820 19760.91653666 0 71.13927756 0 6594.06088973 0 -75.60857061 0 -56.16368023 0 9204
0.09350000 0.09350330 19813.20310215 0 158.42280114 0 6974.48959194 0 -393.61787851 0 -1332.48357698 0 9349
0.09450000 0.09448040 19176.20773815 0 695.08288226 0 7635.76086133 0 508.26935483 0 -1328.27648568 0 9564
0.09550000 0.09549270 18811.51992845 0 269.53944200 0 7624.00736867 0 -903.04500728 0 -1141.22019919 0 10155
0.09650000 0.09649430 18837.99274837 0 130.17267738 0 7891.43777274 0 363.54651261 0 -878.41759556 0 9913
0.09750000 0.09749140 18521.74690376 0 -223.97104110 0 6789.49840509 0 111.58897748 0 -1901.37459097 0 10476
0.09850000 0.09850240 17815.98811541 0 224.55542037 0 6767.00200045 0 1188.89324420 0 -2134.59903601 0 10575
0.09950000 0.09950330 18165.29752349 0 61.38563618 0 7034.81686455 0 166.13836492 0 -1356.59471380 0 10882
0.10050000 0.10051200 17765.56892726 0 771.09722298 0 6190.32292450 0 383.27700188 0 -530.20334936 0 10875
0.10150000 0.10150300 17822.57885896 0 176.01569259 0 6230.69122873 0 149.87790213 0 -761.36049784 0 11118
0.10250000 0.10250800 17182.50781464 0 79.60871256 0 5898.51775387 0 -21.30908220 0 -1340.62314526 0 11575
0.10350000 0.10349800 16930.63156535 0 -0.31727620 0 6387.77061665 0 259.15462708 0 -353.85152885 0 11364
0.10450000 0.10450100 16504.21045774 0 243.34233485 0 5666.65539583 0 12.27844539 0 -1015.11730596 0 12093
0.10550000 0.10551000 16323.84377596 0 440.57912321 0 5505.12725602 0 618.04038555 0 183.20509534 0 12067
0.10650000 0.10649700 16143.03771127 0 -93.44663772 0 5830.78687934 0 488.82556290 0 -61.35136432 0 12054
0.10750000 0.10749900 16092.28898594 0 9.24832907 0 4547.89864756 0 742.05291462 0 -17.15636453 0 12807
0.10850000 0.10850100 15774.72499262 0 343.29205923 0 4602.88741791 0 378.90514199 0 149.54836495 0 12736
0.10950000 0.10950300 15541.19297954 0 345.64715159 0 4494.50264025 0 -255.05738151 0 400.48213791 0 12933
0.11050000 0.11050200 14919.79570861 0 263.96916525 0 4997.33243473 0 -116.97691033 0 1256.26162784 0 13428
0.11150000 0.11150900 14897.05764337 0 -35.10570536 0 4744.10508301 0 254.29615063 0 -106.05582858 0 13453
0.11250000 0.11250000 14889.03890538 0 203.68363400 0 4516.04338708 0 -62.39149350 0 -216.22911435 0 13668
0.11350000 0.11349100 14706.69500053 0 286.70173820 0 4850.17211586 0 -141.41209204 0 -517.71828416 0 13791
0.11450000 0.11448600 14334.97706438 0 -72.14788102 0 4530.98240579 0 56.74135890 0 321.42067676 0 14205
0.11550000 0.11549300 14138.02367800 0 360.40492485 0 4823.73224965 0 180.64019764 0 -456.54629791 0 14776
0.11650000 0.11649800 13838.80392088 0 -64.71527983 0 4216.17554018 0 499.25321765 0 339.91979544 0 14553
0.11750000 0.11747300 14175.48107050 0 -28.06206788 0 4374.70489167 0 910.82318313 0 219.86830325 0 14568
0.11850000 0.11849100 14003.68235533 0 24.98880417 0 3619.80112559 0 281.52251223 0 617.13745368 0 16015
0.11950000 0.11950300 14007.19741855 0 -148.26316996 0 3222.97245652 0 148.64653154 0 1504.10653899 0 15270
0.12050000 0.12050700 13993.02731992 0 88.38659436 0 3325.38162670 0 429.77140225 0 451.38574571 0 15999
0.12150000 0.12150000 13926.79034726 0 370.34815995 0 3194.25878379 0 -466.91463597 0 1043.83537252 0 15670
0.12250000 0.12250700 13563.64037772 0 247.54832769 0 3435.88642686 0 -411.36345551 0 224.76522570 0 16887
0.12350000 0.12352200 13187.08922963 0 159.52784914 0 4124.56420485 0 19.31878749 0 794.68769106 0 16407
0.12450000 0.12449800 13049.45253518 0 135.16846099 0 3793.11571178 0 -232.74881305 0 -193.06484769 0 16306
0.12550000 0.12549900 12904.78571429 0 262.77074838 0 3797.24591107 0 27.55666770 0 132.72878741 0 17523
0.12650000 0.12650100 12791.97415388 0 121.27846896 0 4045.05786851 0 243.51479264 0 -149.72411811 0 17154
0.12750000 0.12750600 12867.32832179 0 -11.05970706 0 3873.67656709 0 323.84387347 0 565.06948119 0 18007
0.12850000 0.12850300 12712.88523129 0 -285.78013256 0 3346.75760494 0 403.11404150 0 -45.69900746 0 17496
0.12950000 0.12949900 12701.46127581 0 128.78532586 0 3373.74669977 0 -18.98485648 0 73.63376415 0 18405
0.13050000 0.13049000 12576.78637701 0 277.76139458 0 3180.94548182 0 -54.93527547 0 -211.81990692 0 18100
0.13150000 0.13148800 12503.51927789 0 235.56415901 0 3432.50317851 0 -94.91176001 0 8.01975955 0 19059
0.13250000 0.13249300 12393.45386063 0 39.30126286 0 3385.47822329 0 188.56007447 0 116.09594761 0 18957
0.13350000 0.13349100 12003.06215109 0 123.41057449 0 3595.89869566 0 -69.75533126 0 199.45567202 0 19468
0.13450000 0.13450700 11883.33030995 0 92.22691078 0 3232.35328150 0 161.53802592 0 -450.13130752 0 19953
0.13550000 0.13551000 11811.16166809 0 235.00065043 0 3568.98649283 0 -488.96067314 0 -73.29818546 0 19956
0.13650000 0.13649900 11504.14286444 0 314.38286111 0 3649.12993439 0 131.18984880 0 -313.19433035 0 19723
0.13750000 0.13749600 11209.09724491 0 102.76155526 0 3839.44863893 0 -54.53433857 0 397.36471622 0 20946
0.13850000 0.13851100 11524.02494081 0 -125.04398044 0 3706.23872724 0 459.50883714 0 -526.96509736 0 20955
0.13950000 0.13949800 11378.03997121 0 -131.21511331 0 3128.21953343 0 463.91914303 0 60.13789859 0 20506
0.14050000 0.14048300 11295.65567685 0 132.06092540 0 3288.89087658 0 -209.62079548 0 -122.07594893 0 21447
0.14150000 0.14148400 11118.91390401 0 249.30146548 0 3251.43348408 0 184.41889061 0 174.00002352 0 21771
0.14250000 0.14249400 11190.97270015 0 26.29245324 0 3290.78022306 0 35.02266199 0 -15.51922383 0 22470
0.14350000 0.14350900 10943.28157301 0 56.63843345 0 2940.07577426 0 289.23807601 0 100.99161108 0 22519
0.14450000 0.14449900 10787.06996633 0 187.35616532 0 2986.71626944 0 78.39359914 0 252.60452645 0 22218
0.14550000 0.14550500 10576.31995679 0 173.70124314 0 2779.94267517 0 154.54854239 0 773.75658800 0 23559
0.14650000 0.14650700 10744.21914869 0 -59.73135955 0 2727.42543366 0 502.59802000 0 389.25590474 0 23044
0.14750000 0.14750500 10487.43279546 0 47.17950816 0 2231.57084276 0 432.65045872 0 1044.05726088 0 23649
0.14850000 0.14849900 10369.84294597 0 88.63792138 0 2326.01619782 0 -21.26492421 0 1167.98960257 0 23640
0.14950000 0.14949500 10183.01733551 0 198.07051742 0 2193.72899022 0 -204.41520654 0 1066.90736877 0 24457
0.15050000 0.15050000 10205.17321841 0 154.85171659 0 2538.23814009 0 -211.43764379 0 666.57791641 0 24591
0.15150000 0.15149900 9922.43032016 0 83.58205215 0 2778.56960360 0 0.64609608 0 844.88608929 0 25020
0.15250000 0.15250500 9925.96735253 0 132.21910325 0 2741.30993340 0 -215.57443382 0 651.70041131 0 25297
0.15350000 0.15350100 9870.14375468 0 -24.92091951 0 2863.86480969 0 206.02774179 0 575.58720943 0 25452
0.15450000 0.15450400 9811.54105995 0 -37.23297768 0 2808.67831704 0 212.80302616 0 452.46552920 0 26061
0.15550000 0.15549900 9855.73199545 0 237.69516609 0 2732.39046046 0 -168.54508477 0 713.79510165 0 26128
0.15650000 0.15649500 9422.46749912 0 251.79386500 0 2911.62573127 0 -57.59134512 0 766.03882731 0 26331
0.15750000 0.15749700 9389.72248826 0 172.71373007 0 2852.44085421 0 187.75490530 0 1003.55604332 0 27345
0.15850000 0.15849900 9166.02166764 0 -52.31875028 0 2855.51653453 0 281.17430128 0 796.24090962 0 26980
0.15950000 0.15949700 9211.89324274 0 87.11502023 0 2775.43900041 0 84.65436613 0 1103.36736208 0 27777
0.16050000 0.16050000 8918.35250965 0 57.28553462 0 2456.30421320 0 383.80975365 0 1195.27528087 0 28224
0.16150000 0.16150500 9229.63332746 0 -19.70401645 0 2255.19865839 0 81.46565456 0 1122.85399384 0 28075
0.16250000 0.16249700 8930.97378354 0 -61.94541000 0 1855.76664561 0 159.35648981 0 1003.79001471 0 28590
0.16350000 0.16349900 9028.53875721 0 100.12350031 0 2065.95644195 0 215.13395246 0 837.24961444 0 29163
0.16450000 0.16449100 8946.70369148 0 233.02782120 0 2048.68869386 0 -341.86845862 0 979.32627312 0 28996
0.16550000 0.16550500 8508.45219920 0 245.30637643 0 2274.32279925 0 -112.71160080 0 735.48304176 0 30777
0.16650000 0.16650700 8542.29566733 0 125.73710697 0 2409.53190315 0 -95.78723044 0 720.44735881 0 29211
0.16750000 0.16749900 8177.36619703 0 75.29957458 0 2402.09534752 0 -161.64897011 0 356.96126135 0 30922
0.16850000 0.16850800 8273.84369801 0 84.20509711 0 2501.07733105 0 101.31785289 0 371.85634177 0 30867
0.16950000 0.16949900 8039.93820946 0 91.98063666 0 2539.62219623 0 -238.20265334 0 292.53234933 0 30852
0.17050000 0.17049200 8059.90816242 0 62.97092970 0 2547.44321191 0 247.77680680 0 251.33361140 0 31257
0.17150000 0.17149500 8079.80122336 0 53.86680610 0 2660.97975411 0 75.42721532 0 216.80909978 0 32608
0.17250000 0.17250900 7985.12519228 0 -77.67388995 0 2247.56438044 0 288.20113236 0 504.23252440 0 32361
0.17350000 0.17350400 7976.71100968 0 -97.98678125 0 2208.44831748 0 338.52805010 0 491.95177226 0 32508
0.17450000 0.17449800 7892.38244598 0 347.13446272 0 2350.73148613 0 -242.39546470 0 655.11441647 0 32791
0.17550000 0.17549800 7967.91236705 0 143.90449156 0 2207.41576766 0 -121.38172394 0 902.80664206 0 33633
0.17650000 0.17650100 7780.04322219 0 -71.24846421 0 2384.42117023 0 175.76853970 0 763.27620730 0 33984
0.17750000 0.17750300 7833.94451984 0 -60.00696248 0 2440.85990416 0 103.02935914 0 388.40240345 0 34069
0.17850000 0.17849800 7770.34384460 0 142.77747441 0 2355.14728430 0 -310.47125481 0 647.51309224 0 34536
