### header ###
fiducial parameters:
Omega_m = 0.31
Omega_nu = 0
Omega_de = 0.69
Omega_k = 0
H_0 = 100
w_de = -1
zeff = 0
beta = 0
fgrowth = 0
b_1 = 2
gamma = 0.55
Lx = 3500 Ly = 3500 Lz = 3500
nx = 700 ny = 700 nz = 700
xoffset = -983.599254 yoffset = -42.9823471 zoffset = 800.977702
bins = 400 dk = 0.001
kx_ny = 0.628318531 ky_ny = 0.628318531 kz_ny = 0.628318531
############################
A(data) = 9.07321561 (not used)
A(ran) = 9.07120504 (used)
Ngal = 503951
weighted Ngal = 0
Nran = 25229228
weighted Nran = 0
SN(data) = 6701.23218
SN(ran) = 134.655789
SN(data+ran) = 6835.88797
############################
13 columns: k_central k_mean P_0(k) sigma^{lin}_{P_0(k)} P^img_1(k) sigma^{lin}_{P_1(k)} P_2(k) sigma^{lin}_{P_2(k)} P^img_3(k) sigma^{lin}_{P_3(k)} P_4(k) sigma^{lin}_{P_4(k)} N_modes
### header ###
0.00050000 0 0 0 0 0 0 0 0 0 0 0 0
0.00150000 0.00179520 54864.86436349 0 -23910.00929208 0 -14518.08988931 0 -21747.25679654 0 -87992.35804575 0 3
0.00250000 0.00253879 49898.08002511 0 -8461.31739826 0 -27460.77237900 0 22418.08464409 0 95256.78543097 0 6
0.00350000 0.00331552 31028.23201625 0 3842.62318041 0 17546.64639571 0 -7664.15598145 0 13203.23655132 0 7
0.00450000 0.00420575 31082.16626762 0 -14291.14861978 0 -3912.07863284 0 15585.13126986 0 -1566.78451014 0 24
0.00550000 0.00557378 55803.93547347 0 -8237.24310217 0 -19517.93779116 0 14805.00692513 0 -37017.89975340 0 45
0.00650000 0.00659388 58223.06789305 0 4426.91456515 0 -2280.60597477 0 -36203.06415932 0 40458.70726878 0 40
0.00750000 0.00754703 45434.71864813 0 16419.51940314 0 -165.94283953 0 -26328.81217450 0 5747.19428199 0 57
0.00850000 0.00846663 37114.12460921 0 -2759.80795363 0 1721.49123038 0 15641.04274430 0 15097.08671007 0 75
0.00950000 0.00948925 55945.41676831 0 -16894.93170446 0 -3090.61934149 0 3216.67829643 0 -40506.38031378 0 112
0.01050000 0.01054430 62696.42523108 0 -5550.10908074 0 -16630.75273388 0 3183.44996437 0 -3715.37789162 0 105
0.01150000 0.01145670 68659.29061114 0 4339.88379659 0 -9303.93297640 0 -28127.20639751 0 -4800.91729240 0 144
0.01250000 0.01249090 68301.19354499 0 3034.98248136 0 5360.64717286 0 -18578.09776110 0 -20392.30976863 0 169
0.01350000 0.01339930 71550.97934318 0 845.71212915 0 17997.78279163 0 -641.64073974 0 -32383.06919843 0 180
0.01450000 0.01448870 69450.50937417 0 721.33161690 0 20853.55197133 0 1072.06133022 0 -15509.66725623 0 267
0.01550000 0.01550050 69907.24790210 0 -1279.84550517 0 20944.06484940 0 386.25491951 0 12069.84835238 0 238
0.01650000 0.01653350 65690.92956248 0 3286.80380779 0 24045.00968911 0 -208.42018170 0 -15227.80312379 0 315
0.01750000 0.01747870 62656.88076979 0 4195.35977514 0 33397.49447632 0 14923.96984619 0 15539.65513937 0 297
0.01850000 0.01844180 70865.54201410 0 3732.70056258 0 30010.07198368 0 -2736.15816886 0 -10437.67268166 0 388
0.01950000 0.01947590 61366.19349148 0 -1101.78558363 0 35103.72813538 0 2663.27552978 0 9011.76531488 0 399
0.02050000 0.02045430 57400.32340671 0 -2225.80394216 0 26092.20448109 0 -2620.05123667 0 279.17840444 0 462
0.02150000 0.02154770 61473.51276560 0 488.22360832 0 24330.49873050 0 10849.05590941 0 1486.59713030 0 571
0.02250000 0.02255340 62742.99981883 0 1403.77345303 0 27960.13104855 0 4914.99207866 0 -2629.87144456 0 510
0.02350000 0.02348930 61830.62122022 0 1276.98951630 0 19324.82900518 0 2368.86701546 0 -924.52533897 0 555
0.02450000 0.02439640 64857.42019501 0 356.62183805 0 16741.69691695 0 1434.22268823 0 5874.28578676 0 592
0.02550000 0.02547300 60658.67717152 0 -1499.81157111 0 21250.09504151 0 -132.17516496 0 4220.25081661 0 837
0.02650000 0.02652900 63543.55546855 0 1645.71964871 0 20612.44060316 0 1876.03318202 0 -1031.95995110 0 723
0.02750000 0.02749970 59244.41345167 0 840.85804653 0 18530.86409900 0 2502.81289351 0 3684.15973635 0 826
0.02850000 0.02848090 63190.62115152 0 -1661.75712468 0 21678.16383501 0 5651.94705314 0 13504.21384005 0 831
0.02950000 0.02946900 62470.25288163 0 -104.20954162 0 19149.62507251 0 6058.61789925 0 7428.60280702 0 996
0.03050000 0.03053250 61613.78575746 0 2492.34459584 0 20690.98029712 0 -974.10091194 0 7904.55335240 0 1041
0.03150000 0.03150510 59920.18435687 0 4344.70602395 0 26025.74781698 0 -7146.47504484 0 12212.20841303 0 1036
0.03250000 0.03246190 56159.39624220 0 1713.81301414 0 25292.41775145 0 -437.35954498 0 6689.27516486 0 1059
0.03350000 0.03345080 52431.12246236 0 952.45691013 0 31002.41827068 0 -1896.16790356 0 10049.98317698 0 1302
0.03450000 0.03451200 54535.32718605 0 3069.22139410 0 33991.43031579 0 1937.87632566 0 5783.80586241 0 1339
0.03550000 0.03553350 49689.59283751 0 -350.43532678 0 32975.35735201 0 2863.56822623 0 6691.58192510 0 1365
0.03650000 0.03647120 50767.39909919 0 -1594.57547877 0 27365.09675182 0 7799.57379224 0 6920.89586231 0 1308
0.03750000 0.03744890 54095.61474562 0 44.45676215 0 24446.49581696 0 8046.96833591 0 2800.27511902 0 1579
0.03850000 0.03847530 51196.12696704 0 50.92305049 0 18401.90521690 0 926.58604478 0 10595.53197423 0 1662
0.03950000 0.03950240 50706.65441282 0 1040.96070987 0 19965.88866103 0 3201.96995374 0 2393.47245804 0 1683
0.04050000 0.04050350 49899.83755672 0 2127.66777072 0 20544.99532752 0 -3578.79571615 0 9424.57653706 0 1822
0.04150000 0.04152450 46112.57662212 0 1626.94701417 0 18558.21568473 0 -1468.50553925 0 3242.50302657 0 1887
0.04250000 0.04250150 43950.04381803 0 229.95543625 0 20874.42265923 0 203.46394255 0 -67.08311429 0 1920
0.04350000 0.04349210 44539.69567420 0 2282.71501270 0 23260.16197817 0 -1062.81781239 0 -3708.39170346 0 2005
0.04450000 0.04448520 42895.19531305 0 1484.61990723 0 22679.62731725 0 410.62639069 0 -3477.33121921 0 2151
0.04550000 0.04548030 40311.07461329 0 153.67966270 0 21660.80821033 0 746.10512344 0 -3064.00372212 0 2274
0.04650000 0.04648670 41227.73719520 0 757.36101497 0 23430.53269891 0 -824.97435458 0 -5087.01048528 0 2311
0.04750000 0.04749250 39125.07031168 0 238.44431394 0 20132.52462709 0 2449.54870107 0 -3089.60876081 0 2568
0.04850000 0.04851840 39186.91345531 0 1096.60306228 0 21147.49913360 0 2467.48650809 0 -3830.27652082 0 2493
0.04950000 0.04949480 39040.37925708 0 837.22325146 0 21395.75047394 0 -422.87748449 0 -2446.53892818 0 2644
0.05050000 0.05050630 37930.05866056 0 -506.49754327 0 19624.04876230 0 2624.59884972 0 -1761.85953461 0 2829
0.05150000 0.05149060 38734.56875641 0 -216.33896008 0 17144.06181061 0 3211.26290215 0 -1469.85664168 0 2784
0.05250000 0.05249300 38724.90233254 0 -535.69014336 0 15130.26011927 0 831.65956545 0 176.31996525 0 3055
0.05350000 0.05348950 36572.91471813 0 1468.30781695 0 15223.84867766 0 -108.67663775 0 1153.05058386 0 3009
0.05450000 0.05448610 36938.15175646 0 1020.98416618 0 13675.57317232 0 2152.14139843 0 259.63904673 0 3336
0.05550000 0.05550870 36986.04449291 0 -561.18533632 0 14762.93601215 0 2562.10761631 0 -1215.36606412 0 3349
0.05650000 0.05647670 35843.31940728 0 1266.70795636 0 14461.62918624 0 -305.29202884 0 72.86121916 0 3324
0.05750000 0.05747970 33783.82189400 0 1317.32486682 0 13920.30944943 0 -3383.25933963 0 943.81314996 0 3639
0.05850000 0.05849280 33415.94855825 0 137.88604424 0 15706.95017979 0 459.42315747 0 511.50211454 0 3846
0.05950000 0.05951020 33583.57313584 0 97.46710113 0 14745.69023320 0 104.27588844 0 -3277.86236571 0 3787
0.06050000 0.06049470 34220.01927121 0 -510.95618128 0 14868.38790893 0 1789.84822555 0 -3682.98438708 0 3930
0.06150000 0.06148310 32475.77899102 0 138.51655871 0 13184.23324076 0 1588.16048838 0 -1213.86117767 0 4083
0.06250000 0.06249100 33671.77925367 0 558.36669500 0 13372.72850625 0 339.42988351 0 -1540.43252052 0 4303
0.06350000 0.06350600 33277.21340655 0 -126.21054205 0 10849.35249287 0 1360.57112907 0 -1903.34082946 0 4470
0.06450000 0.06451750 33176.04549308 0 432.75371370 0 12621.05420451 0 780.63512735 0 -1899.99053482 0 4479
0.06550000 0.06550280 31237.37827819 0 1257.73356056 0 10741.07756093 0 -1528.93167302 0 -1123.23845388 0 4636
0.06650000 0.06648880 30262.71715305 0 1281.91060482 0 14148.23933050 0 -1386.92311869 0 -2552.36430043 0 4653
0.06750000 0.06749660 29081.43621765 0 837.12109494 0 13724.34467458 0 -63.42613039 0 -2666.31825639 0 5220
0.06850000 0.06852730 28749.15289707 0 431.07527101 0 13306.16199641 0 2532.21859431 0 -1386.97804156 0 5029
0.06950000 0.06949320 28012.08807686 0 -575.86402066 0 12794.28091412 0 1413.82433694 0 -24.04413092 0 5040
0.07050000 0.07048030 29425.14349372 0 -329.40975640 0 10543.83857566 0 2347.32626862 0 -745.26150827 0 5475
0.07150000 0.07148790 28492.44343584 0 576.88668437 0 10903.94581860 0 -357.22379263 0 1175.97538684 0 5509
0.07250000 0.07249820 27466.04497384 0 866.53228802 0 9713.40488851 0 1149.33779833 0 2145.78133090 0 5916
0.07350000 0.07351270 26798.84203525 0 -51.51962263 0 11361.67295806 0 934.27634405 0 5507.54386199 0 5721
0.07450000 0.07449140 27491.96856513 0 216.38399682 0 10148.91023764 0 2191.79570545 0 4599.09774036 0 6028
0.07550000 0.07549160 26861.45409897 0 -29.37098955 0 9396.52193869 0 1207.78670904 0 5732.65070790 0 6183
0.07650000 0.07648840 26671.42099331 0 -99.72541940 0 9052.26543399 0 972.61469927 0 5938.30387576 0 6330
0.07750000 0.07749960 26211.27724788 0 669.59537850 0 8735.74497506 0 -1745.36070659 0 4665.34569760 0 6583
0.07850000 0.07848650 25705.87706341 0 1067.47197580 0 10066.29526726 0 -631.14827601 0 4454.54076519 0 6549
0.07950000 0.07947320 24793.93784770 0 414.67750106 0 10308.14260178 0 -1202.99743539 0 2897.81812354 0 6828
0.08050000 0.08048110 24832.60354319 0 -62.08897837 0 10453.04009870 0 562.62541379 0 1208.08329250 0 7147
0.08150000 0.08149960 24332.36610784 0 123.57204771 0 9903.42700960 0 292.41701132 0 -221.39735575 0 7386
0.08250000 0.08250610 23892.21428450 0 267.97633732 0 9729.96962397 0 256.70726431 0 117.12630052 0 7227
0.08350000 0.08350160 23520.05696545 0 591.52472579 0 9449.69825455 0 -591.01504162 0 -107.78512984 0 7798
0.08450000 0.08449610 23301.46397108 0 759.95666947 0 10276.52900190 0 -544.58215487 0 -2275.09171933 0 7371
0.08550000 0.08548940 21266.79159184 0 682.58243866 0 10208.71025078 0 104.51502259 0 -127.21782735 0 8256
0.08650000 0.08650700 21659.16052444 0 30.66804788 0 10112.41948753 0 2187.55566043 0 -586.48280698 0 8037
0.08750000 0.08749060 21962.33472769 0 -245.91821712 0 9389.19522877 0 746.72245642 0 1305.93386505 0 8155
0.08850000 0.08849210 21918.06690018 0 -185.76779612 0 8885.31091532 0 317.95394565 0 -183.23914752 0 8718
0.08950000 0.08949900 21546.45880976 0 31.95126565 0 8082.95379569 0 1475.29400511 0 1159.85003429 0 8571
0.09050000 0.09049190 21298.31731514 0 618.59071263 0 8314.22298682 0 -1036.05499976 0 1423.10630078 0 8932
0.09150000 0.09150830 20841.90832439 0 684.54977561 0 7731.32664279 0 172.82796962 0 1433.66247503 0 9285
0.09250000 0.09250820 20372.97692089 0 152.59438693 0 8802.73988323 0 470.76692558 0 790.20488698 0 9204
0.09350000 0.09350330 19938.53707530 0 282.28484157 0 8407.33920859 0 -7.74018021 0 655.82511831 0 9349
0.09450000 0.09448040 19633.60534044 0 370.69856782 0 8336.14819369 0 339.24424423 0 397.89746799 0 9564
0.09550000 0.09549270 19177.41604114 0 132.68155375 0 7062.33321887 0 417.65871406 0 -287.96496405 0 10155
0.09650000 0.09649430 18413.54886383 0 662.93323523 0 7556.89163020 0 -274.01895070 0 -762.51058259 0 9913
0.09750000 0.09749140 17632.87529048 0 460.53809159 0 7073.96588123 0 165.77807094 0 -811.03712889 0 10476
0.09850000 0.09850240 17097.81676004 0 471.18983162 0 7223.12539231 0 280.55257447 0 -743.12500890 0 10575
0.09950000 0.09950330 16578.46616839 0 257.05986909 0 6565.91841477 0 729.92594649 0 -378.07031448 0 10882
0.10050000 0.10051200 15909.17616101 0 -148.98046255 0 5751.93961735 0 828.14340377 0 174.63493181 0 10875
0.10150000 0.10150300 16465.76445371 0 97.37483072 0 5636.04139204 0 798.89258544 0 155.51079095 0 11118
0.10250000 0.10250800 16189.61229901 0 221.71371144 0 5493.24194849 0 359.89853606 0 406.93777122 0 11575
0.10350000 0.10349800 15585.35096131 0 -21.82140266 0 4852.80841328 0 206.91419680 0 2088.23315515 0 11364
0.10450000 0.10450100 16010.01453731 0 269.60425098 0 5538.86087842 0 166.25809676 0 1034.86427209 0 12093
0.10550000 0.10551000 15652.79623696 0 314.69372451 0 5697.57696764 0 -830.17664815 0 1828.10749185 0 12067
0.10650000 0.10649700 15530.97732704 0 -56.59262778 0 6011.05469997 0 -12.54064713 0 654.33890564 0 12054
0.10750000 0.10749900 15409.48795429 0 86.75922993 0 6640.09723341 0 17.69021476 0 888.59370360 0 12807
0.10850000 0.10850100 15829.75770125 0 186.75311228 0 6999.13897281 0 -662.69267309 0 531.55555024 0 12736
0.10950000 0.10950300 15177.49378137 0 215.14274012 0 6754.85306317 0 -193.08791529 0 542.15126895 0 12933
0.11050000 0.11050200 15379.82960832 0 -113.93747910 0 6593.21507764 0 1127.29176116 0 541.36916739 0 13428
0.11150000 0.11150900 15311.94494976 0 -28.20959069 0 6738.06863627 0 178.60805172 0 203.80666122 0 13453
0.11250000 0.11250000 15288.87734734 0 371.10609546 0 6224.28722292 0 393.39489168 0 1139.49562130 0 13668
0.11350000 0.11349100 15307.22158355 0 -214.38590307 0 5897.11172858 0 606.25723454 0 959.73089409 0 13791
0.11450000 0.11448600 15137.29024572 0 17.28268712 0 5534.22538879 0 237.18877729 0 715.91292725 0 14205
0.11550000 0.11549300 14835.54403691 0 163.81842319 0 5366.83148722 0 92.42507247 0 932.82857738 0 14776
0.11650000 0.11649800 14691.42644464 0 332.55573799 0 5757.03645903 0 -65.45849601 0 907.30482453 0 14553
0.11750000 0.11747300 14452.07260810 0 283.92373980 0 4876.51312091 0 117.21966939 0 479.50954689 0 14568
0.11850000 0.11849100 14044.32527388 0 198.80208995 0 5154.78529811 0 99.22924626 0 445.12783471 0 16015
0.11950000 0.11950300 13692.59925982 0 129.52129222 0 5319.78456285 0 83.81481525 0 657.95283002 0 15270
0.12050000 0.12050700 13615.92694320 0 11.40681955 0 4992.43331536 0 531.86531519 0 -117.61181863 0 15999
0.12150000 0.12150000 13771.35864523 0 87.41017570 0 4286.94914132 0 227.87715511 0 699.63818451 0 15670
0.12250000 0.12250700 13407.00037271 0 11.06728641 0 4527.54423457 0 0.94092201 0 -342.86036552 0 16887
0.12350000 0.12352200 13202.68732269 0 257.55087949 0 3973.43845528 0 25.63876132 0 51.77413518 0 16407
0.12450000 0.12449800 13062.63402228 0 256.20636780 0 4750.23447451 0 -279.09272477 0 -438.98086790 0 16306
0.12550000 0.12549900 13118.76518817 0 16.31857118 0 4443.34748573 0 113.99240196 0 -63.07418468 0 17523
0.12650000 0.12650100 12858.21112654 0 -50.62119444 0 4373.55151155 0 190.03310566 0 -422.58859023 0 17154
0.12750000 0.12750600 12927.19424235 0 15.73133593 0 4512.73703073 0 190.64055252 0 -306.85403506 0 18007
0.12850000 0.12850300 13175.33573697 0 146.88790147 0 4126.57438163 0 354.75116534 0 174.18895817 0 17496
0.12950000 0.12949900 12862.60495558 0 -79.60442858 0 4021.16642314 0 -302.71175274 0 -405.39224186 0 18405
0.13050000 0.13049000 12919.39519582 0 214.71983408 0 4735.33939409 0 226.52165886 0 484.27465448 0 18100
0.13150000 0.13148800 12534.38592684 0 313.70840835 0 3955.43474082 0 378.56242333 0 396.48595041 0 19059
0.13250000 0.13249300 12491.21655660 0 167.78495235 0 4622.87934000 0 47.92700832 0 822.23040835 0 18957
0.13350000 0.13349100 12121.36599779 0 318.65036755 0 4414.55692100 0 -196.08011286 0 607.42928843 0 19468
0.13450000 0.13450700 11656.71857760 0 213.38850388 0 4801.64227419 0 179.66916143 0 973.32430266 0 19953
0.13550000 0.13551000 11680.00587147 0 -97.66130837 0 4328.22916508 0 -163.83160468 0 981.69125159 0 19956
0.13650000 0.13649900 11360.02527217 0 42.28555153 0 4320.16648881 0 525.95781205 0 375.08360919 0 19723
0.13750000 0.13749600 11650.34752550 0 113.06750095 0 3983.29161688 0 551.65402269 0 1275.34183041 0 20946
0.13850000 0.13851100 11415.82690089 0 -7.04427458 0 3870.49104104 0 212.66791592 0 1145.24055276 0 20955
0.13950000 0.13949800 11659.68441219 0 107.75722903 0 3407.80985935 0 345.01114484 0 703.15214928 0 20506
0.14050000 0.14048300 11331.35553774 0 86.09477313 0 3456.03213298 0 56.88723402 0 1399.90688348 0 21447
0.14150000 0.14148400 11044.65819336 0 40.40532225 0 3070.97892571 0 6.67402858 0 1414.63719532 0 21771
0.14250000 0.14249400 11025.87457425 0 103.51114250 0 3351.81050833 0 92.67475180 0 998.64484092 0 22470
0.14350000 0.14350900 11118.03513821 0 165.42436770 0 3269.52507512 0 -228.85258516 0 587.04192172 0 22519
0.14450000 0.14449900 10797.77992460 0 124.22013749 0 3459.71196479 0 -334.14850101 0 314.90352985 0 22218
0.14550000 0.14550500 10697.30403920 0 122.77566620 0 3399.13204701 0 -272.37785556 0 243.43460526 0 23559
0.14650000 0.14650700 10445.37286704 0 107.32158088 0 3847.92872896 0 134.17435717 0 -174.21532114 0 23044
0.14750000 0.14750500 10330.56211442 0 217.87460332 0 3584.60655504 0 -136.16695863 0 -494.38705200 0 23649
0.14850000 0.14849900 10239.09357854 0 177.77212574 0 3543.56819188 0 219.74966986 0 -47.17456510 0 23640
0.14950000 0.14949500 10140.93543795 0 -153.28641500 0 3310.69525315 0 572.67519924 0 -312.46934856 0 24457
0.15050000 0.15050000 10183.59951786 0 187.58025060 0 3272.58977087 0 178.06870920 0 103.59231849 0 24591
0.15150000 0.15149900 9935.32620837 0 139.25911581 0 3038.54148288 0 -126.24679113 0 -93.64809478 0 25020
0.15250000 0.15250500 9715.67869504 0 26.95273590 0 2964.82401629 0 491.78041292 0 444.93450624 0 25297
0.15350000 0.15350100 9854.04037127 0 -52.74220556 0 2957.71699783 0 230.35966852 0 451.95254966 0 25452
0.15450000 0.15450400 9403.23351253 0 251.74004059 0 2754.56831251 0 -215.87431265 0 668.18715629 0 26061
0.15550000 0.15549900 9545.05532913 0 168.63845364 0 3104.20725777 0 -35.98513024 0 771.08513995 0 26128
0.15650000 0.15649500 9044.16980399 0 253.35367430 0 3225.05952531 0 -238.59919641 0 841.95101150 0 26331
0.15750000 0.15749700 9249.46048097 0 90.20146544 0 3367.27678652 0 70.69418268 0 429.53303702 0 27345
0.15850000 0.15849900 9110.68139097 0 80.46287292 0 3583.81566582 0 -233.26508797 0 211.08943284 0 26980
0.15950000 0.15949700 8976.05446942 0 -105.55064809 0 3370.37443599 0 180.09975667 0 587.94814896 0 27777
0.16050000 0.16050000 8984.23797599 0 -162.06638387 0 3103.11978508 0 359.20980335 0 316.24364770 0 28224
0.16150000 0.16150500 9172.52453461 0 96.23715853 0 2856.92255982 0 90.93765149 0 -14.13780399 0 28075
0.16250000 0.16249700 9251.71231835 0 203.32224157 0 2627.69649919 0 433.87414010 0 611.20358757 0 28590
0.16350000 0.16349900 9044.48835660 0 -0.43778025 0 2557.70280270 0 162.26300771 0 294.68422710 0 29163
0.16450000 0.16449100 8759.09817636 0 127.59679510 0 2526.58350858 0 26.33935736 0 401.96835058 0 28996
0.16550000 0.16550500 8683.10690325 0 140.32242244 0 2366.87880782 0 75.50399748 0 619.58261954 0 30777
0.16650000 0.16650700 8546.32700546 0 -28.59690672 0 2195.01418521 0 176.79449878 0 782.56291984 0 29211
0.16750000 0.16749900 8524.95102722 0 125.37461607 0 2450.53731260 0 1.62509062 0 154.86160271 0 30922
0.16850000 0.16850800 8454.74862385 0 129.00831268 0 2262.34961514 0 -296.84159715 0 365.46661590 0 30867
0.16950000 0.16949900 8260.55236519 0 -45.42560145 0 2278.04656935 0 208.90460135 0 375.64821622 0 30852
0.17050000 0.17049200 8286.13543473 0 150.48754591 0 2485.61105285 0 103.39327803 0 418.17059514 0 31257
0.17150000 0.17149500 8237.02341072 0 143.60680964 0 2345.55775244 0 -143.95062676 0 481.29673685 0 32608
0.17250000 0.17250900 8083.49203975 0 113.34870601 0 2584.24153006 0 51.04629740 0 243.87728354 0 32361
0.17350000 0.17350400 7983.36766067 0 37.17036562 0 2522.89269219 0 -65.81329770 0 406.36657345 0 32508
0.17450000 0.17449800 7856.25418676 0 7.36245371 0 2442.99091124 0 294.57657829 0 640.01062917 0 32791
0.17550000 0.17549800 8147.98246537 0 -12.32655781 0 2389.33127418 0 71.77561385 0 380.05742366 0 33633
0.17650000 0.17650100 8028.61311513 0 10.65333280 0 2168.48644243 0 -56.33811524 0 18.64938764 0 33984
0.17750000 0.17750300 7934.89274187 0 55.93344358 0 2221.23435996 0 -80.11433244 0 130.89436379 0 34069
0.17850000 0.17849800 7891.14118928 0 108.45925306 0 1957.26409626 0 38.63164331 0 -143.24981103 0 34536
