### header ###
fiducial parameters:
Omega_m = 0.31
Omega_nu = 0
Omega_de = 0.69
Omega_k = 0
H_0 = 100
w_de = -1
zeff = 0
beta = 0
fgrowth = 0
b_1 = 2
gamma = 0.55
Lx = 3500 Ly = 3500 Lz = 3500
nx = 700 ny = 700 nz = 700
xoffset = -983.599254 yoffset = -42.9823471 zoffset = 800.977702
bins = 400 dk = 0.001
kx_ny = 0.628318531 ky_ny = 0.628318531 kz_ny = 0.628318531
############################
A(data) = 9.05522015 (not used)
A(ran) = 9.06624264 (used)
Ngal = 503250
weighted Ngal = 0
Nran = 25229228
weighted Nran = 0
SN(data) = 6717.38279
SN(ran) = 134.582126
SN(data+ran) = 6851.96492
############################
13 columns: k_central k_mean P_0(k) sigma^{lin}_{P_0(k)} P^img_1(k) sigma^{lin}_{P_1(k)} P_2(k) sigma^{lin}_{P_2(k)} P^img_3(k) sigma^{lin}_{P_3(k)} P_4(k) sigma^{lin}_{P_4(k)} N_modes
### header ###
0.00050000 0 0 0 0 0 0 0 0 0 0 0 0
0.00150000 0.00179520 78372.72845337 0 16823.64182841 0 90950.83297909 0 -70564.23518819 0 -55750.11106782 0 3
0.00250000 0.00253879 95003.70087870 0 56638.54329820 0 17115.94130480 0 -16613.28726348 0 58566.66532340 0 6
0.00350000 0.00331552 65930.28339903 0 35492.03277613 0 26472.81992104 0 22928.42788622 0 58242.07120362 0 7
0.00450000 0.00420575 45178.66826126 0 -10566.84027065 0 38089.00542581 0 17594.53913217 0 3217.54607766 0 24
0.00550000 0.00557378 37967.62589878 0 -7646.66854191 0 15781.64527334 0 23666.81085513 0 -20614.19813478 0 45
0.00650000 0.00659388 54214.57766667 0 8215.98795422 0 -826.39685673 0 -13953.48285863 0 6062.16591619 0 40
0.00750000 0.00754703 52305.01956913 0 12749.24416654 0 37909.40766410 0 -17327.94355562 0 -7941.05508709 0 57
0.00850000 0.00846663 53854.83291463 0 2353.00529265 0 25806.16621108 0 -2259.77922515 0 -6465.94781971 0 75
0.00950000 0.00948925 59544.51197459 0 -15684.32196027 0 42852.46532571 0 1132.00414280 0 -41074.50240769 0 112
0.01050000 0.01054430 63243.45694563 0 1194.74802138 0 24950.57785271 0 -15231.75756992 0 -38798.16943166 0 105
0.01150000 0.01145670 60438.54633699 0 4155.50774581 0 34814.17480213 0 -11817.31302873 0 -20076.06392402 0 144
0.01250000 0.01249090 61386.18541358 0 -459.31111483 0 41276.17916028 0 1466.66013106 0 -13874.28409032 0 169
0.01350000 0.01339930 69932.84195622 0 -8040.23479292 0 36805.45811968 0 33415.61902108 0 -23766.55077417 0 180
0.01450000 0.01448870 88480.07306836 0 -8414.02881329 0 24653.33531866 0 4720.37840624 0 -33680.67675746 0 267
0.01550000 0.01550050 93978.18118250 0 3783.02088958 0 18792.62646361 0 -14037.73453033 0 -7691.94695009 0 238
0.01650000 0.01653350 82207.11320434 0 6559.53637810 0 32264.10627737 0 -15724.30580447 0 -12976.18543607 0 315
0.01750000 0.01747870 83086.97746810 0 2232.99883720 0 41057.80585737 0 9658.69073248 0 2438.17966845 0 297
0.01850000 0.01844180 75577.15473142 0 2942.41548822 0 43556.79611962 0 6095.32834081 0 -7328.09396790 0 388
0.01950000 0.01947590 75318.46804713 0 3962.11336095 0 47481.25436576 0 2463.77372256 0 1776.06258696 0 399
0.02050000 0.02045430 78542.76963693 0 3869.15092319 0 51556.97017634 0 -308.64342193 0 -6807.56802699 0 462
0.02150000 0.02154770 70786.01370861 0 987.90083047 0 51184.15378293 0 8299.28396811 0 6836.07299284 0 571
0.02250000 0.02255340 71168.82606307 0 1084.94513540 0 53336.36108879 0 9345.82813622 0 7694.30863319 0 510
0.02350000 0.02348930 69430.29776062 0 -1939.84256415 0 41774.65906403 0 8841.49345530 0 -4070.92653694 0 555
0.02450000 0.02439640 70856.31497313 0 -846.59419033 0 39395.07110573 0 12294.15332449 0 11606.07969800 0 592
0.02550000 0.02547300 72428.09746380 0 1139.59448245 0 38511.25239583 0 -350.85933128 0 12993.54106075 0 837
0.02650000 0.02652900 66546.95730375 0 1349.83920166 0 28406.65392398 0 6438.14586651 0 13301.87801310 0 723
0.02750000 0.02749970 65729.37556652 0 3724.49508687 0 38312.43163211 0 682.89769590 0 3741.99351099 0 826
0.02850000 0.02848090 67653.21360841 0 -689.31158783 0 24205.27460307 0 5853.57986744 0 5198.50389698 0 831
0.02950000 0.02946900 66070.77608234 0 -1088.68208699 0 29716.34451286 0 3055.39181722 0 5525.83317534 0 996
0.03050000 0.03053250 66984.91221256 0 -888.05545954 0 20824.00347108 0 2239.79828763 0 -6843.42167189 0 1041
0.03150000 0.03150510 65005.38238768 0 7202.12288954 0 27541.61883320 0 -11082.66481449 0 -2735.65287852 0 1036
0.03250000 0.03246190 56497.61123198 0 5953.67129281 0 29845.19354924 0 -4849.68879466 0 -11806.21861043 0 1059
0.03350000 0.03345080 53667.43610639 0 1036.79645841 0 33349.16235696 0 767.07577096 0 -10027.70646378 0 1302
0.03450000 0.03451200 50572.64262733 0 586.37625662 0 30517.77892839 0 3405.28340765 0 -12064.24622036 0 1339
0.03550000 0.03553350 49570.95945363 0 668.03776611 0 28433.45628108 0 10043.44735629 0 -7586.54997617 0 1365
0.03650000 0.03647120 51031.68791550 0 855.58286607 0 26081.43959996 0 948.81442586 0 -2923.47808509 0 1308
0.03750000 0.03744890 47283.53205930 0 1743.37249896 0 21153.10126562 0 3702.83350974 0 -619.02680016 0 1579
0.03850000 0.03847530 45709.77234557 0 -64.57072285 0 23475.02021786 0 3945.61453293 0 2767.35435499 0 1662
0.03950000 0.03950240 44634.82207276 0 1643.94014795 0 20841.02955858 0 1717.08641677 0 6153.78823609 0 1683
0.04050000 0.04050350 43789.33952117 0 849.65009842 0 20302.56581065 0 3909.90368747 0 8935.13693655 0 1822
0.04150000 0.04152450 42932.54285983 0 -300.56426880 0 19203.88886106 0 799.77904045 0 9694.13794820 0 1887
0.04250000 0.04250150 42574.55563940 0 810.35498693 0 19511.45689334 0 5073.51044558 0 12580.63097741 0 1920
0.04350000 0.04349210 42800.61814312 0 1600.41927138 0 20292.13046669 0 496.42469021 0 8631.50138126 0 2005
0.04450000 0.04448520 41611.86769837 0 227.77280167 0 18399.04922802 0 1092.44869693 0 10767.39659684 0 2151
0.04550000 0.04548030 40691.79989896 0 1005.05433902 0 19496.18833745 0 402.64829563 0 5632.51534425 0 2274
0.04650000 0.04648670 39596.63801260 0 588.00966257 0 20008.83833982 0 -2609.28635554 0 7429.61338770 0 2311
0.04750000 0.04749250 37558.01118723 0 436.56645884 0 18992.21614742 0 -2893.62201681 0 1935.41578140 0 2568
0.04850000 0.04851840 37954.99364032 0 1053.26672653 0 19282.97778364 0 762.75334165 0 -2621.70990713 0 2493
0.04950000 0.04949480 37816.80771724 0 -1272.18925808 0 17867.17622364 0 1541.27833261 0 -2811.58922878 0 2644
0.05050000 0.05050630 39810.83717793 0 -1574.75930983 0 15679.04936543 0 5679.65014519 0 -4440.91989519 0 2829
0.05150000 0.05149060 39469.54650783 0 687.47057346 0 13240.25456092 0 1947.03745919 0 319.18971007 0 2784
0.05250000 0.05249300 39529.41242840 0 1114.48374953 0 12267.24112167 0 -1096.39984769 0 -3325.76608674 0 3055
0.05350000 0.05348950 37529.78083569 0 1291.17059950 0 15286.57058710 0 -519.85038970 0 86.15551782 0 3009
0.05450000 0.05448610 36638.93199934 0 1460.01446465 0 15634.34215503 0 -1132.33367998 0 -152.09458888 0 3336
0.05550000 0.05550870 34144.77494902 0 836.83769296 0 16991.92548035 0 -40.94158908 0 1217.93645410 0 3349
0.05650000 0.05647670 33020.39409960 0 1428.06034301 0 19500.36247503 0 -168.49126037 0 2258.72470618 0 3324
0.05750000 0.05747970 32162.38913527 0 902.32222241 0 19769.37465755 0 1666.89790465 0 6933.83568881 0 3639
0.05850000 0.05849280 32375.27015190 0 -593.27127283 0 18402.34459980 0 2877.46371055 0 4503.91641895 0 3846
0.05950000 0.05951020 32877.48481032 0 -256.13057425 0 17202.71942819 0 2324.76395654 0 5740.47172357 0 3787
0.06050000 0.06049470 32633.29776183 0 207.92587593 0 15412.56363461 0 503.87003351 0 4402.96819692 0 3930
0.06150000 0.06148310 32651.86168949 0 -299.75250889 0 16209.82391256 0 1459.34440572 0 8281.64274454 0 4083
0.06250000 0.06249100 32453.80984585 0 -477.32032158 0 13883.18159411 0 2092.78076820 0 8710.12895180 0 4303
0.06350000 0.06350600 33608.72780706 0 79.61717068 0 12133.11949045 0 1484.77369125 0 5617.03808148 0 4470
0.06450000 0.06451750 32189.63087527 0 662.57953199 0 12370.27641248 0 430.70289400 0 7497.48706168 0 4479
0.06550000 0.06550280 33961.33258692 0 434.78695809 0 12227.80650610 0 526.14015596 0 6152.79962456 0 4636
0.06650000 0.06648880 31794.73549097 0 278.32380469 0 13176.32434850 0 -2304.27772868 0 4262.59634391 0 4653
0.06750000 0.06749660 31454.76296958 0 1485.82821022 0 14782.26885989 0 -1794.68143749 0 2735.21349562 0 5220
0.06850000 0.06852730 28442.24393915 0 1137.16689191 0 14063.65812162 0 -292.87287108 0 1843.95823008 0 5029
0.06950000 0.06949320 29402.40542848 0 258.04298834 0 15955.31136585 0 645.93131379 0 2663.09977662 0 5040
0.07050000 0.07048030 28449.71344850 0 -223.91392133 0 14412.41830108 0 2752.47025914 0 -536.38217143 0 5475
0.07150000 0.07148790 28579.00186778 0 274.94165480 0 13047.03592922 0 988.46543751 0 -581.22009825 0 5509
0.07250000 0.07249820 27750.87494088 0 695.09386683 0 12384.55635684 0 529.93422733 0 -813.78656740 0 5916
0.07350000 0.07351270 27066.75576051 0 -54.31695388 0 11503.04440718 0 -207.68091997 0 91.36868612 0 5721
0.07450000 0.07449140 26217.09907134 0 -3.26866828 0 10230.66841137 0 1372.32462173 0 -435.00445262 0 6028
0.07550000 0.07549160 26873.09774590 0 853.08936810 0 10821.25395620 0 -573.21783713 0 -622.18047095 0 6183
0.07650000 0.07648840 25715.98287018 0 698.97581478 0 9911.68740818 0 669.57340935 0 -1394.27179775 0 6330
0.07750000 0.07749960 25394.13489355 0 43.29832913 0 10033.91274729 0 1299.99121128 0 1251.26364731 0 6583
0.07850000 0.07848650 24467.58619631 0 -61.37311377 0 9171.74462995 0 1396.00736022 0 2062.45236330 0 6549
0.07950000 0.07947320 24761.42351286 0 261.49104567 0 9847.68030375 0 534.80588527 0 1810.72989803 0 6828
0.08050000 0.08048110 23985.91268862 0 377.88797057 0 8725.82590601 0 1181.37979655 0 2530.10955638 0 7147
0.08150000 0.08149960 24116.29956516 0 234.06586331 0 8287.67327489 0 648.15239436 0 2944.10711240 0 7386
0.08250000 0.08250610 23864.86269877 0 103.23641834 0 7359.71855236 0 588.74013664 0 1662.14158472 0 7227
0.08350000 0.08350160 23618.03935287 0 -45.80918273 0 7450.17650757 0 254.81352400 0 3786.00869332 0 7798
0.08450000 0.08449610 23411.41954262 0 193.76346651 0 6501.01057539 0 648.56541429 0 1595.77279718 0 7371
0.08550000 0.08548940 22101.50926229 0 466.66089234 0 6706.69669697 0 -139.11851329 0 2394.60386902 0 8256
0.08650000 0.08650700 21986.72047882 0 1018.95421716 0 6599.23462341 0 -629.46324257 0 1259.57896876 0 8037
0.08750000 0.08749060 21223.73206732 0 477.98049439 0 6978.03760888 0 728.15523339 0 2893.58906310 0 8155
0.08850000 0.08849210 20499.51919703 0 418.33096990 0 7226.06925777 0 169.58861917 0 733.99243526 0 8718
0.08950000 0.08949900 19895.80708796 0 287.73099265 0 6570.29027466 0 134.28200598 0 2170.71631066 0 8571
0.09050000 0.09049190 19951.71856240 0 -7.54172194 0 6298.75164045 0 1214.44336002 0 2263.12951979 0 8932
0.09150000 0.09150830 19158.19303912 0 39.92694411 0 5834.11520483 0 228.96682471 0 2445.82493096 0 9285
0.09250000 0.09250820 19103.16033049 0 628.20331210 0 5794.91126529 0 13.23333428 0 2097.99844017 0 9204
0.09350000 0.09350330 18495.93315819 0 407.66824530 0 6553.41797117 0 -277.17481840 0 1680.39794435 0 9349
0.09450000 0.09448040 18405.31043440 0 285.05515077 0 6406.58718948 0 -368.53680393 0 1324.91520647 0 9564
0.09550000 0.09549270 18141.24130954 0 55.19110617 0 7025.45800871 0 -532.27613820 0 331.57811103 0 10155
0.09650000 0.09649430 17366.16986820 0 499.78047713 0 6653.71810341 0 -641.30131644 0 -524.41557806 0 9913
0.09750000 0.09749140 17202.71942819 0 300.94213810 0 6849.63893998 0 -626.54464164 0 -1483.35668138 0 10476
0.09850000 0.09850240 17000.27375552 0 303.90357886 0 7675.31630720 0 577.89726505 0 -945.44655591 0 10575
0.09950000 0.09950330 16813.75571308 0 -37.29317314 0 6720.30658240 0 850.25095454 0 -621.55984260 0 10882
0.10050000 0.10051200 16582.53046025 0 58.15507339 0 6383.72829394 0 617.51751989 0 -230.79246068 0 10875
0.10150000 0.10150300 16602.63222807 0 108.54086844 0 6263.99645280 0 278.28865406 0 159.47072936 0 11118
0.10250000 0.10250800 16530.35374049 0 234.49316318 0 6376.08303142 0 839.86613963 0 -291.73596782 0 11575
0.10350000 0.10349800 15840.08319947 0 483.48596217 0 6503.83361054 0 -884.73702016 0 759.99511547 0 11364
0.10450000 0.10450100 15832.94322730 0 123.04808360 0 7145.55234074 0 -404.40582724 0 854.99738836 0 12093
0.10550000 0.10551000 15294.04009646 0 95.17011715 0 6973.52294955 0 790.72226035 0 1373.82950818 0 12067
0.10650000 0.10649700 15588.09710446 0 -97.59386309 0 6834.64499840 0 320.68361194 0 644.51100855 0 12054
0.10750000 0.10749900 15441.12352332 0 133.66467300 0 5860.21454928 0 656.35896854 0 911.26256603 0 12807
0.10850000 0.10850100 15741.11220052 0 -22.87723978 0 6585.06452478 0 15.19419033 0 818.53739504 0 12736
0.10950000 0.10950300 15155.96401911 0 284.13684050 0 5979.38617722 0 14.03586715 0 704.92286238 0 12933
0.11050000 0.11050200 15028.87251434 0 193.87221377 0 6224.75955954 0 41.55716453 0 1155.03879150 0 13428
0.11150000 0.11150900 14730.64136876 0 20.26950225 0 5610.07386246 0 231.87883491 0 831.66066391 0 13453
0.11250000 0.11250000 15113.67341467 0 -0.21741435 0 5682.40727291 0 741.38065878 0 820.79582317 0 13668
0.11350000 0.11349100 14784.24608296 0 -271.56060336 0 4523.09548267 0 981.71541765 0 60.30398532 0 13791
0.11450000 0.11448600 15096.42763572 0 346.12278358 0 5012.51311404 0 277.59223216 0 1408.00251348 0 14205
0.11550000 0.11549300 14505.23793939 0 348.21754157 0 4086.66742945 0 -415.72213391 0 1071.29790243 0 14776
0.11650000 0.11649800 13898.01076709 0 329.71952135 0 4762.57014952 0 -122.46699971 0 1294.40006384 0 14553
0.11750000 0.11747300 13918.66176355 0 3.25576141 0 4945.51820586 0 275.17892156 0 843.63165111 0 14568
0.11850000 0.11849100 13640.86192296 0 132.30697983 0 4553.52274872 0 242.15380410 0 642.23830049 0 16015
0.11950000 0.11950300 13790.47180152 0 30.83874814 0 4477.05913899 0 531.29192050 0 1281.30645332 0 15270
0.12050000 0.12050700 13636.79763111 0 -56.41171187 0 3832.26472846 0 -260.33876401 0 605.02806087 0 15999
0.12150000 0.12150000 13563.20099481 0 100.89044317 0 4108.84528149 0 298.66943003 0 763.17624769 0 15670
0.12250000 0.12250700 13708.63673579 0 140.98039834 0 4264.95802701 0 158.87756244 0 162.72435976 0 16887
0.12350000 0.12352200 13379.97832416 0 141.07706258 0 3861.05529320 0 -370.90068395 0 1327.46362731 0 16407
0.12450000 0.12449800 13396.67487448 0 -291.59756220 0 4224.67759936 0 312.01019343 0 138.48250653 0 16306
0.12550000 0.12549900 13633.72195079 0 -45.44207831 0 3730.55857093 0 281.81470186 0 249.96383520 0 17523
0.12650000 0.12650100 13725.77266902 0 190.26158477 0 3689.33347003 0 -111.23307733 0 -105.97662981 0 17154
0.12750000 0.12750600 13534.20172320 0 195.28373135 0 4036.50088647 0 -286.72810118 0 566.54690620 0 18007
0.12850000 0.12850300 13215.64911834 0 165.90878735 0 3993.40840823 0 96.75211530 0 363.60582930 0 17496
0.12950000 0.12949900 13305.72261351 0 196.86001752 0 4312.10381253 0 223.06371541 0 -272.37346173 0 18405
0.13050000 0.13049000 12983.21556252 0 66.73435411 0 3829.43070874 0 83.39311751 0 488.27633427 0 18100
0.13150000 0.13148800 12742.10419436 0 50.03472811 0 4210.01319496 0 -74.18507985 0 -22.08217641 0 19059
0.13250000 0.13249300 12372.03394409 0 398.92562398 0 3957.24719529 0 -74.24384731 0 922.73265672 0 18957
0.13350000 0.13349100 12243.62429062 0 410.48359125 0 3931.46640344 0 319.17982395 0 291.08677958 0 19468
0.13450000 0.13450700 11987.13452084 0 -44.12645605 0 4257.90593142 0 342.89551616 0 440.00023623 0 19953
0.13550000 0.13551000 11869.70943995 0 112.24475647 0 3759.94230259 0 359.57558962 0 -199.67536347 0 19956
0.13650000 0.13649900 11487.11677694 0 17.11945637 0 3733.56834382 0 -207.59304339 0 972.83329227 0 19723
0.13750000 0.13749600 11509.19576783 0 98.13386468 0 3570.06298094 0 -125.08022953 0 508.90206621 0 20946
0.13850000 0.13851100 11524.02494081 0 74.91544408 0 3247.39116137 0 467.54734735 0 211.86604212 0 20955
0.13950000 0.13949800 11497.22258371 0 -10.67653221 0 3534.40705835 0 47.38733627 0 193.95240115 0 20506
0.14050000 0.14048300 11347.06347653 0 275.55898778 0 3270.01938089 0 99.73947966 0 191.44791861 0 21447
0.14150000 0.14148400 11346.29455645 0 -59.84329235 0 3283.75009661 0 20.67164745 0 357.25674635 0 21771
0.14250000 0.14249400 11170.76108660 0 -30.21262750 0 3034.54309846 0 197.33674797 0 239.44061467 0 22470
0.14350000 0.14350900 11179.54874466 0 211.23772457 0 3025.79937868 0 -156.10615478 0 347.60899625 0 22519
0.14450000 0.14449900 10722.45871041 0 135.88355666 0 3219.03997954 0 208.97380416 0 569.80822580 0 22218
0.14550000 0.14550500 10968.96350371 0 226.57548326 0 3344.29706068 0 115.34240593 0 286.22500775 0 23559
0.14650000 0.14650700 10583.95423473 0 8.75293583 0 3048.40562906 0 126.05785649 0 740.88086072 0 23044
0.14750000 0.14750500 10543.38820819 0 107.08200735 0 3135.07390672 0 208.01375252 0 371.11378466 0 23649
0.14850000 0.14849900 10234.18347459 0 281.86193552 0 3310.95888290 0 -222.63751399 0 524.91317920 0 23640
0.14950000 0.14949500 9975.49679030 0 202.26772260 0 3053.76610048 0 -59.33338849 0 930.09341881 0 24457
0.15050000 0.15050000 9999.31134366 0 -68.03119275 0 3216.49155870 0 364.25282063 0 935.89217467 0 24591
0.15150000 0.15149900 10068.17362917 0 -88.92670579 0 3038.35474514 0 289.10076885 0 552.40207209 0 25020
0.15250000 0.15250500 9958.95402400 0 197.46416901 0 2876.56297559 0 159.14009373 0 810.13859085 0 25297
0.15350000 0.15350100 9945.16838541 0 12.19375433 0 2728.97425839 0 -228.26820590 0 401.66737330 0 25452
0.15450000 0.15450400 9836.06961053 0 127.92084000 0 2903.82668474 0 -156.52137163 0 197.86620436 0 26061
0.15550000 0.15549900 9684.76810779 0 23.67230314 0 2691.59375790 0 -53.11040843 0 413.38681378 0 26128
0.15650000 0.15649500 9360.06414229 0 129.45868016 0 2841.06083701 0 219.95178600 0 231.63278048 0 26331
0.15750000 0.15749700 9565.44269584 0 195.41115239 0 2883.26356487 0 212.99415772 0 266.44398945 0 27345
0.15850000 0.15849900 9215.91359630 0 219.40804965 0 2819.02578441 0 -221.46655856 0 127.19695666 0 26980
0.15950000 0.15949700 9077.07958345 0 91.44568797 0 3001.66627272 0 27.57149687 0 140.84309118 0 27777
0.16050000 0.16050000 8762.33862527 0 94.61946053 0 2957.69502868 0 139.34259857 0 495.63160407 0 28224
0.16150000 0.16150500 9017.72993779 0 -48.54379207 0 2665.84591977 0 138.52534637 0 173.62105576 0 28075
0.16250000 0.16249700 8998.36413633 0 -18.35071711 0 2296.19308326 0 593.93144564 0 496.80475642 0 28590
0.16350000 0.16349900 8849.02887209 0 88.69822668 0 2251.34307341 0 -4.44990528 0 438.48985750 0 29163
0.16450000 0.16449100 8869.25147021 0 131.65229930 0 2167.47586175 0 -123.97847690 0 834.41889008 0 28996
0.16550000 0.16550500 8674.22038403 0 -6.74452756 0 2275.80571655 0 132.87817760 0 409.74213260 0 30777
0.16650000 0.16650700 8520.06289242 0 222.83633476 0 2397.85530250 0 -129.29061620 0 416.90627084 0 29211
0.16750000 0.16749900 8386.10602979 0 122.12977333 0 2110.64168321 0 97.79850568 0 610.35118474 0 30922
0.16850000 0.16850800 8357.39235706 0 -46.19243446 0 2361.47439811 0 308.18646371 0 896.19173245 0 30867
0.16950000 0.16949900 8342.69499895 0 63.63769326 0 2167.09140171 0 5.44554693 0 386.46362639 0 30852
0.17050000 0.17049200 8116.07228202 0 263.90435627 0 2240.67705343 0 -334.70212347 0 738.43239949 0 31257
0.17150000 0.17149500 8048.86866697 0 134.52806040 0 2508.83243929 0 -97.32045708 0 436.97398649 0 32608
0.17250000 0.17250900 7826.16744246 0 39.35080328 0 2423.43837204 0 0.42129461 0 659.00405362 0 32361
0.17350000 0.17350400 7870.99548316 0 -6.10086457 0 2486.86329413 0 473.13300251 0 652.78019479 0 32508
0.17450000 0.17449800 8030.85396794 0 -73.27610647 0 2287.38345605 0 62.87821991 0 591.18200713 0 32791
0.17550000 0.17549800 7998.16387994 0 -28.45059221 0 2032.28872699 0 240.59838862 0 609.22746296 0 33633
0.17650000 0.17650100 8014.82747654 0 58.45352423 0 1998.09375255 0 -107.93737602 0 610.30944336 0 33984
0.17750000 0.17750300 8049.28608073 0 86.41958694 0 2186.27046544 0 -112.25464258 0 809.02695210 0 34069
0.17850000 0.17849800 7709.61014280 0 130.50331301 0 2103.78730992 0 -175.26764319 0 281.84985249 0 34536
