### header ###
fiducial parameters:
Omega_m = 0.31
Omega_nu = 0
Omega_de = 0.69
Omega_k = 0
H_0 = 100
w_de = -1
zeff = 0
beta = 0
fgrowth = 0
b_1 = 2
gamma = 0.55
Lx = 3500 Ly = 3500 Lz = 3500
nx = 700 ny = 700 nz = 700
xoffset = -983.599254 yoffset = -42.9823471 zoffset = 800.977702
bins = 400 dk = 0.001
kx_ny = 0.628318531 ky_ny = 0.628318531 kz_ny = 0.628318531
############################
A(data) = 9.16061772 (not used)
A(ran) = 9.16175918 (used)
Ngal = 508495
weighted Ngal = 0
Nran = 25229228
weighted Nran = 0
SN(data) = 6697.01834
SN(ran) = 136.000003
SN(data+ran) = 6833.01834
############################
13 columns: k_central k_mean P_0(k) sigma^{lin}_{P_0(k)} P^img_1(k) sigma^{lin}_{P_1(k)} P_2(k) sigma^{lin}_{P_2(k)} P^img_3(k) sigma^{lin}_{P_3(k)} P_4(k) sigma^{lin}_{P_4(k)} N_modes
### header ###
0.00050000 0 0 0 0 0 0 0 0 0 0 0 0
0.00150000 0.00179520 28152.91029735 0 -26528.51170402 0 -16799.14623155 0 15884.35102698 0 40852.94357873 0 3
0.00250000 0.00253879 62578.12138438 0 -33626.63266036 0 8871.22869327 0 -74036.56842688 0 15802.84549842 0 6
0.00350000 0.00331552 63173.04583539 0 -1505.92997804 0 -9183.02578599 0 -51045.63832268 0 3212.75680402 0 7
0.00450000 0.00420575 62695.65631100 0 19274.62950848 0 16827.92581171 0 -49906.42830027 0 5842.77104802 0 24
0.00550000 0.00557378 43767.59006746 0 14259.18351357 0 31492.87943644 0 18944.98248532 0 25278.24765282 0 45
0.00650000 0.00659388 44011.44757876 0 -7985.10322314 0 56245.18575406 0 43745.18153939 0 7782.08635269 0 40
0.00750000 0.00754703 40823.94430711 0 -10300.95869132 0 25359.97287282 0 9641.85138272 0 -4746.26904381 0 57
0.00850000 0.00846663 60793.12833991 0 -1771.87746481 0 24923.66564989 0 14178.33705937 0 -18761.21058603 0 75
0.00950000 0.00948925 59050.31605416 0 3619.65832615 0 25080.52534635 0 -12920.05427018 0 7913.24214931 0 112
0.01050000 0.01054430 57884.19382892 0 7286.17683893 0 36510.19280869 0 11926.49968019 0 18308.75604141 0 105
0.01150000 0.01145670 60988.21434896 0 -3592.39461700 0 37279.88180947 0 -1426.31379597 0 -1619.56538139 0 144
0.01250000 0.01249090 64943.86878122 0 -446.66018259 0 31099.41204657 0 13846.82265886 0 -10169.18775863 0 169
0.01350000 0.01339930 63139.32319756 0 -319.87844277 0 38603.74249697 0 1713.12098607 0 2746.67040482 0 180
0.01450000 0.01448870 62907.65856182 0 1575.86875166 0 35709.96669614 0 -3185.33931086 0 3268.74517047 0 267
0.01550000 0.01550050 64619.38450717 0 3003.25903575 0 38985.89577707 0 11833.57019616 0 7140.32368420 0 238
0.01650000 0.01653350 68776.71569203 0 -2053.22532233 0 36501.62484208 0 6499.74734954 0 17422.63057127 0 315
0.01750000 0.01747870 69417.22611925 0 -9372.13618756 0 27917.84044411 0 26084.40543456 0 -4464.69051026 0 297
0.01850000 0.01844180 75212.68661317 0 -501.48857817 0 16530.68327766 0 4491.25120676 0 15041.94415571 0 388
0.01950000 0.01947590 79540.16882731 0 -2062.12282612 0 17267.19886924 0 13522.33838481 0 19664.80152657 0 399
0.02050000 0.02045430 88474.14139917 0 -1358.06664652 0 19838.13808191 0 -13884.49974282 0 -719.52135934 0 462
0.02150000 0.02154770 73860.81526558 0 6953.90450292 0 20668.46192333 0 -11048.94217667 0 -7764.85155831 0 571
0.02250000 0.02255340 71564.81990463 0 5795.61427793 0 34656.76587704 0 -7075.72341284 0 2341.80102862 0 510
0.02350000 0.02348930 68771.33325147 0 -709.06844007 0 31894.47541001 0 4941.89329691 0 -2247.60831873 0 555
0.02450000 0.02439640 68661.48752565 0 1887.23744606 0 35340.44567450 0 7553.46444355 0 -11208.98739918 0 592
0.02550000 0.02547300 62692.69047640 0 4597.06559444 0 30353.66941403 0 -2318.56865761 0 -6993.94326998 0 837
0.02650000 0.02652900 58709.35492123 0 2990.71465386 0 34761.11931656 0 3570.77697816 0 3926.10593202 0 723
0.02750000 0.02749970 54963.61567099 0 1117.80109045 0 30379.26346814 0 5769.19638087 0 -1290.17100340 0 826
0.02850000 0.02848090 55081.04075189 0 -388.74731903 0 25887.89143108 0 9353.96770451 0 5785.08007283 0 831
0.02950000 0.02946900 59419.61738434 0 -2236.34913184 0 17740.41425605 0 9281.65626320 0 1364.00930029 0 996
0.03050000 0.03053250 58961.67055342 0 -189.33448684 0 15670.15186164 0 -945.58276461 0 -7359.09243173 0 1041
0.03150000 0.03150510 54665.82390831 0 3532.62755759 0 13941.83921169 0 -2077.33645915 0 12837.23059291 0 1036
0.03250000 0.03246190 53097.11709797 0 -213.90807416 0 14927.92429232 0 2686.23328648 0 4417.34700243 0 1059
0.03350000 0.03345080 51024.21840615 0 105.29976045 0 16337.24495451 0 1591.44487559 0 2377.23725976 0 1302
0.03450000 0.03451200 51970.64917975 0 4395.60853330 0 17575.53582160 0 -2604.85957279 0 -4756.80324892 0 1339
0.03550000 0.03553350 48472.39234977 0 617.09900768 0 17223.26057892 0 2273.41107973 0 9099.57598809 0 1365
0.03650000 0.03647120 47892.29707175 0 -3728.27377983 0 14982.18808087 0 5699.87274331 0 9324.02375965 0 1308
0.03750000 0.03744890 52479.56442745 0 -1968.68805175 0 14967.57859934 0 4388.55643770 0 7229.91385817 0 1579
0.03850000 0.03847530 49964.09730632 0 2020.74394121 0 8868.64731872 0 577.87968973 0 3021.39456508 0 1662
0.03950000 0.03950240 51164.49139801 0 2715.79277129 0 16169.07114829 0 -5488.76024287 0 2213.81977347 0 1683
0.04050000 0.04050350 49009.64779473 0 1406.36581216 0 13892.95786371 0 -1614.20490997 0 370.43164270 0 1822
0.04150000 0.04152450 48472.72188695 0 -1139.19903784 0 19285.83377252 0 -2247.13598211 0 -4694.67450640 0 1887
0.04250000 0.04250150 46504.83570900 0 1032.90682126 0 18471.76709851 0 -5048.13608292 0 -7370.23078832 0 1920
0.04350000 0.04349210 45340.58086111 0 2788.66442580 0 20154.05438935 0 1291.88459672 0 -7362.79423269 0 2005
0.04450000 0.04448520 43864.14446045 0 1144.07618806 0 19505.85476132 0 -1288.08393461 0 -9115.18506573 0 2151
0.04550000 0.04548030 42815.66700756 0 304.63734831 0 20286.30864322 0 2921.76449177 0 -11489.64322863 0 2274
0.04650000 0.04648670 42053.66720759 0 96.32536465 0 17450.53138563 0 3774.55178412 0 -6789.81695770 0 2311
0.04750000 0.04749250 41844.08156274 0 109.48598106 0 14475.46974769 0 3886.05618039 0 -4675.39658151 0 2568
0.04850000 0.04851840 40325.02502047 0 1420.99726284 0 14499.30627020 0 -2067.03293007 0 -6848.92494276 0 2493
0.04950000 0.04949480 37932.14572935 0 3894.96466876 0 17001.81159568 0 -1152.30363293 0 -2802.75763242 0 2644
0.05050000 0.05050630 36982.09004679 0 -1291.63195155 0 15733.31315398 0 1133.31130693 0 -3516.42531303 0 2829
0.05150000 0.05149060 35585.40164307 0 943.43967449 0 15964.97778972 0 1192.19960054 0 -6230.57039844 0 2784
0.05250000 0.05249300 35152.60948336 0 726.44493544 0 13583.63229981 0 1192.64996802 0 -2267.72107113 0 3055
0.05350000 0.05348950 34278.45719734 0 239.79541637 0 15054.13703128 0 -1382.73799654 0 -3774.38701553 0 3009
0.05450000 0.05448610 34366.99285235 0 1234.34740554 0 14272.58469212 0 1787.35472757 0 -4460.07698978 0 3336
0.05550000 0.05550870 33734.50116311 0 -582.89524557 0 13885.37850862 0 2028.12557398 0 -3654.90781956 0 3349
0.05650000 0.05647670 32870.34483814 0 -80.80636051 0 13062.41433083 0 680.42616706 0 -3712.96128566 0 3324
0.05750000 0.05747970 33384.09329777 0 959.99122846 0 11779.30640760 0 -223.51518134 0 -3282.21225645 0 3639
0.05850000 0.05849280 32160.96114083 0 -391.73072894 0 12382.24959659 0 356.77122824 0 -594.97168467 0 3846
0.05950000 0.05951020 31979.16646461 0 769.51434607 0 11660.12379510 0 1322.04823303 0 -2237.71121884 0 3787
0.06050000 0.06049470 32412.28816150 0 307.09130183 0 13581.76492248 0 1157.69705807 0 -140.80903901 0 3930
0.06150000 0.06148310 32583.42780231 0 -106.96436258 0 13225.86477084 0 -1977.17912635 0 -3385.07179410 0 4083
0.06250000 0.06249100 31846.69251928 0 640.05127208 0 13402.38685222 0 -1451.46846718 0 -1125.54521412 0 4303
0.06350000 0.06350600 29975.69027150 0 1419.69009870 0 15559.53721575 0 -868.12175568 0 -3086.62095707 0 4470
0.06450000 0.06451750 29400.86758832 0 971.44374383 0 17082.21866697 0 616.06865477 0 -71.67807085 0 4479
0.06550000 0.06550280 30880.81905220 0 -724.31063298 0 15682.12504575 0 2437.08121119 0 -2329.32255416 0 4636
0.06650000 0.06648880 29762.26002625 0 -1081.51355493 0 13475.98348852 0 3844.88600236 0 1955.06718175 0 4653
0.06750000 0.06749660 30258.43316975 0 -168.82079755 0 11314.43929596 0 1542.48663559 0 1170.63688457 0 5220
0.06850000 0.06852730 30150.23512982 0 1112.35274245 0 11389.13438951 0 1116.37309601 0 2193.53126791 0 5029
0.06950000 0.06949320 29922.08555730 0 469.87937211 0 9386.81157652 0 109.57308872 0 2689.30896680 0 5040
0.07050000 0.07048030 27883.78826911 0 357.73237834 0 10016.69992206 0 369.48587100 0 2000.03802189 0 5475
0.07150000 0.07148790 28313.61459422 0 766.78797516 0 9997.49888918 0 -8.87468883 0 2062.34251757 0 5509
0.07250000 0.07249820 27337.41562891 0 299.93265588 0 10005.10021341 0 -338.13040857 0 -788.54072424 0 5916
0.07350000 0.07351270 26771.16091235 0 307.76026230 0 8471.59895819 0 -464.85173324 0 -291.46794425 0 5721
0.07450000 0.07449140 26312.44516135 0 -625.43190444 0 8838.61549728 0 386.08575709 0 -1183.88427910 0 6028
0.07550000 0.07549160 26280.80959232 0 534.27203504 0 8617.91346498 0 -79.00653829 0 -3561.24236916 0 6183
0.07650000 0.07648840 26721.29095283 0 250.56359287 0 7486.67824226 0 809.44107049 0 -3198.48784424 0 6330
0.07750000 0.07749960 26160.08913965 0 -388.30573921 0 7610.00203863 0 1041.57255056 0 -2345.07443125 0 6583
0.07850000 0.07848650 26268.61671675 0 814.56976743 0 6667.38291171 0 -114.86018320 0 -1988.37240581 0 6549
0.07950000 0.07947320 25417.42218742 0 861.55078436 0 8070.05790748 0 7.44089454 0 -3415.32330699 0 6828
0.08050000 0.08048110 24424.41682607 0 619.83526471 0 7554.84849970 0 -504.23691823 0 -1470.74639206 0 7147
0.08150000 0.08149960 24061.48654798 0 256.46889909 0 8765.46922846 0 654.05879904 0 236.85045246 0 7386
0.08250000 0.08250610 23148.66856647 0 12.90127065 0 8314.56350857 0 508.99323816 0 449.65457707 0 7227
0.08350000 0.08350160 22936.88600710 0 746.92347410 0 8953.50314191 0 917.00200521 0 703.61569824 0 7798
0.08450000 0.08449610 22809.13542798 0 47.83737421 0 8242.98803363 0 156.41372281 0 896.29828280 0 7371
0.08550000 0.08548940 21813.38392348 0 299.33399667 0 7913.15427273 0 772.81191476 0 2182.21715815 0 8256
0.08650000 0.08650700 21669.37617694 0 706.59471432 0 8629.26052845 0 -1244.90357979 0 702.60731448 0 8037
0.08750000 0.08749060 21187.70266925 0 544.69639442 0 8488.21861651 0 1274.47404918 0 3293.82294967 0 8155
0.08850000 0.08849210 20792.03836487 0 -467.08709376 0 7652.53430366 0 389.32620600 0 1684.87964996 0 8718
0.08950000 0.08949900 21159.36247199 0 -105.79560406 0 7109.12749806 0 335.01957762 0 515.79488550 0 8571
0.09050000 0.09049190 20546.09378477 0 378.35042108 0 6960.06684814 0 402.15618678 0 1738.07793497 0 8932
0.09150000 0.09150830 20460.30427291 0 125.66351033 0 6594.85177895 0 286.97086023 0 683.99285778 0 9285
0.09250000 0.09250820 20168.77371660 0 677.82611873 0 6670.64532976 0 578.42562299 0 129.30379768 0 9204
0.09350000 0.09350330 19384.36538857 0 397.42513136 0 6598.94902452 0 -1053.94117929 0 -62.29021574 0 9349
0.09450000 0.09448040 18645.43319102 0 200.95506617 0 6840.64257503 0 90.02329567 0 1011.74723909 0 9564
0.09550000 0.09549270 18626.64957191 0 501.86754593 0 7154.37295253 0 -398.11386407 0 -814.54889674 0 10155
0.09650000 0.09649430 17749.53145129 0 280.84256719 0 7074.49314072 0 879.07447300 0 325.50913467 0 9913
0.09750000 0.09749140 17976.69241227 0 86.66641029 0 6925.28969134 0 578.77822777 0 -321.73263862 0 10476
0.09850000 0.09850240 17649.24230362 0 -76.95396106 0 5928.26397643 0 839.70466641 0 377.14211809 0 10575
0.09950000 0.09950330 17644.84847459 0 278.18759599 0 6280.36346595 0 121.31361959 0 588.97630495 0 10882
0.10050000 0.10051200 17229.52178529 0 113.43218876 0 5679.05697827 0 -563.57557932 0 635.36745034 0 10875
0.10150000 0.10150300 16882.07975454 0 219.40914811 0 6154.38140301 0 36.79084864 0 41.97545705 0 11118
0.10250000 0.10250800 16668.21012638 0 283.27015773 0 5956.13183706 0 120.89510737 0 -70.98175879 0 11575
0.10350000 0.10349800 16666.56244049 0 210.38092791 0 6239.65463996 0 -31.41917295 0 -370.62277427 0 11364
0.10450000 0.10450100 16747.18920324 0 10.25809689 0 5252.42716379 0 705.56655833 0 -494.15527752 0 12093
0.10550000 0.10551000 16556.71671468 0 -249.24873953 0 5118.95362235 0 565.91089945 0 -213.72682872 0 12067
0.10650000 0.10649700 16156.10935264 0 262.19845214 0 4791.55843656 0 8.94218903 0 -862.02421944 0 12054
0.10750000 0.10749900 16104.59170723 0 564.47521581 0 4735.02084149 0 -527.23421939 0 -857.20748436 0 12807
0.10850000 0.10850100 15567.11657083 0 196.48324668 0 4983.01953666 0 565.32432327 0 192.60679101 0 12736
0.10950000 0.10950300 15534.82192744 0 -223.72828205 0 4425.53050901 0 949.68330555 0 -33.48690890 0 12933
0.11050000 0.11050200 15471.55078937 0 -119.30893509 0 4423.15784133 0 -104.68473423 0 -635.21037095 0 13428
0.11150000 0.11150900 15416.07869783 0 675.44136803 0 4417.98410764 0 7.77858227 0 16.88625389 0 13453
0.11250000 0.11250000 15178.15285572 0 -89.28656039 0 4469.55667591 0 -87.46191304 0 641.27495347 0 13668
0.11350000 0.11349100 14490.40876640 0 117.44595158 0 4302.89874071 0 761.13751102 0 841.61708049 0 13791
0.11450000 0.11448600 15072.81080467 0 55.10202129 0 4456.16648194 0 254.64326312 0 728.87472289 0 14205
0.11550000 0.11549300 14866.74022304 0 211.17071868 0 4329.08596174 0 29.61330922 0 1164.80407653 0 14776
0.11650000 0.11649800 14728.77399142 0 144.81401417 0 4019.71645956 0 544.63817619 0 1464.99047603 0 14553
0.11750000 0.11747300 14496.34043560 0 -158.52385921 0 4241.37414968 0 -411.53591330 0 1906.37257149 0 14568
0.11850000 0.11849100 14082.99096936 0 242.94798870 0 4363.79721110 0 98.23536213 0 979.28233483 0 16015
0.11950000 0.11950300 14127.47848832 0 518.32353411 0 4676.81359138 0 -736.37389059 0 785.20910337 0 15270
0.12050000 0.12050700 13762.57098716 0 194.65541380 0 4605.26008558 0 -258.85364979 0 377.58479637 0 15999
0.12150000 0.12150000 13908.33626532 0 -102.04096730 0 5017.41223341 0 301.69348286 0 405.43618015 0 15670
0.12250000 0.12250700 13730.93541813 0 -137.12481336 0 4533.61870321 0 -19.58790952 0 -1038.23104359 0 16887
0.12350000 0.12352200 13843.96666999 0 264.58210440 0 4326.66935577 0 -136.72497492 0 -1169.06609069 0 16407
0.12450000 0.12449800 13423.80676876 0 309.19704439 0 4162.15341222 0 -176.42651560 0 -1019.47049207 0 16306
0.12550000 0.12549900 13123.70824583 0 81.96138832 0 4747.35651650 0 -50.03659549 0 -1322.52056965 0 17523
0.12650000 0.12650100 13129.85960648 0 46.70200879 0 4189.80158141 0 870.70422869 0 -1115.40645363 0 17154
0.12750000 0.12750600 13055.05466720 0 11.14406858 0 4214.16536340 0 470.03864841 0 -1298.39844826 0 18007
0.12850000 0.12850300 12876.77505421 0 308.72031394 0 3832.39654333 0 -314.89364373 0 -540.59585348 0 17496
0.12950000 0.12949900 12446.83888337 0 436.42585631 0 4608.37970420 0 -604.47224149 0 -815.71216298 0 18405
0.13050000 0.13049000 12147.39943480 0 211.82100537 0 5006.81212087 0 -454.23514384 0 -153.14800939 0 18100
0.13150000 0.13148800 11840.38063116 0 -31.83230273 0 4771.44568417 0 730.74319869 0 -941.30647050 0 19059
0.13250000 0.13249300 12195.40201698 0 -77.83832900 0 4357.66781960 0 368.03590742 0 -535.09038570 0 18957
0.13350000 0.13349100 12222.09452836 0 113.69252313 0 4365.77443416 0 -155.69423331 0 -1374.87304257 0 19468
0.13450000 0.13450700 11927.48829173 0 -7.37485529 0 4360.22722501 0 -158.44916411 0 -810.93277545 0 19953
0.13550000 0.13551000 11907.82590681 0 114.44167098 0 4153.59643018 0 608.87375973 0 -624.92771255 0 19956
0.13650000 0.13649900 11871.79650874 0 -129.08740160 0 3654.83092755 0 325.75409064 0 -460.73142007 0 19723
0.13750000 0.13749600 12018.98978133 0 118.47630449 0 3501.01395770 0 267.51168990 0 -1090.32977288 0 20946
0.13850000 0.13851100 11830.82405301 0 255.16393186 0 3458.22904749 0 -74.67191610 0 -283.28443767 0 20955
0.13950000 0.13949800 11425.16378758 0 106.39569126 0 3547.68740660 0 164.28307061 0 -143.67930782 0 20506
0.14050000 0.14048300 11514.90774557 0 -110.59597212 0 2950.47816449 0 151.50471733 0 -676.41020733 0 21447
0.14150000 0.14148400 11426.26224484 0 259.67090199 0 3666.87001910 0 214.77915077 0 -520.55999309 0 21771
0.14250000 0.14249400 11102.54689087 0 72.02595226 0 3121.73863561 0 -190.95361284 0 93.39852529 0 22470
0.14350000 0.14350900 11189.54470571 0 72.70227240 0 3325.20587353 0 723.95253592 0 258.73831178 0 22519
0.14450000 0.14449900 11130.11816805 0 69.55299544 0 3204.16686826 0 -244.13981482 0 -329.23839707 0 22218
0.14550000 0.14550500 10773.99832496 0 258.37911626 0 2567.50104145 0 95.53875941 0 356.69213932 0 23559
0.14650000 0.14650700 10766.84736821 0 102.78022904 0 3385.03884038 0 205.95304670 0 469.36419566 0 23044
0.14750000 0.14750500 10165.89238686 0 215.62825823 0 3176.21113104 0 148.84535231 0 1013.44106018 0 23649
0.14850000 0.14849900 10104.41173412 0 378.00111167 0 3078.05299045 0 38.88373925 0 987.45156146 0 23640
0.14950000 0.14949500 9809.64072890 0 111.89874243 0 3134.06332605 0 93.31855760 0 705.17111372 0 24457
0.15050000 0.15050000 9811.59598282 0 -64.26502220 0 3044.90155040 0 277.42526666 0 944.63699291 0 24591
0.15150000 0.15149900 9494.98764731 0 -19.10414894 0 2783.02934006 0 251.02384646 0 881.19998779 0 25020
0.15250000 0.15250500 9446.28205248 0 213.15343403 0 2723.31720351 0 -205.96293281 0 1166.82523788 0 25297
0.15350000 0.15350100 9317.61975383 0 77.38312831 0 2459.99502959 0 296.11222153 0 952.85015783 0 25452
0.15450000 0.15450400 9727.60794086 0 -119.05079764 0 2568.08322379 0 218.87639634 0 694.24036554 0 26061
0.15550000 0.15549900 9659.37177598 0 -47.10470322 0 2275.61897881 0 -67.86928015 0 409.79485855 0 26128
0.15650000 0.15649500 9539.79371886 0 79.35365078 0 2437.44370208 0 -283.94790586 0 261.74039547 0 26331
0.15750000 0.15749700 9296.45248247 0 276.58934068 0 2745.34127154 0 -558.59737102 0 284.57402649 0 27345
0.15850000 0.15849900 9097.89534849 0 204.79197738 0 3073.94476031 0 -69.47862988 0 184.45953353 0 26980
0.15950000 0.15949700 9107.56177236 0 136.18673086 0 3119.54172109 0 25.95511702 0 -305.74239631 0 27777
0.16050000 0.16050000 8971.01255060 0 -56.66776226 0 2904.16720649 0 353.11336557 0 -60.04090481 0 28224
0.16150000 0.16150500 9120.11713882 0 -10.61673220 0 2829.64786610 0 469.58388711 0 -77.62698582 0 28075
0.16250000 0.16249700 8980.64602076 0 60.72161877 0 2559.93267094 0 -159.79697117 0 169.06026123 0 28590
0.16350000 0.16349900 8832.24444518 0 167.52022415 0 2491.46583004 0 90.75365990 0 -45.53566687 0 29163
0.16450000 0.16449100 8808.49579926 0 -43.21836144 0 2337.89052078 0 169.97966995 0 -56.96599341 0 28996
0.16550000 0.16550500 8622.38418602 0 135.06191063 0 2426.23943805 0 162.16744193 0 133.47683681 0 30777
0.16650000 0.16650700 8489.75645667 0 81.37426291 0 2037.45147611 0 238.10598910 0 625.00240765 0 29211
0.16750000 0.16749900 8494.06240912 0 66.91570941 0 2054.56544019 0 131.92142133 0 364.86246440 0 30922
0.16850000 0.16850800 8344.16693168 0 164.96631103 0 2307.32045528 0 -117.95673421 0 121.20706923 0 30867
0.16950000 0.16949900 8257.22403969 0 179.34182116 0 2215.37958278 0 -138.01236683 0 355.20482819 0 30852
0.17050000 0.17049200 7995.30789106 0 -64.85028022 0 2604.44215904 0 -151.39157623 0 621.25886531 0 31257
0.17150000 0.17149500 8238.11088340 0 27.30292407 0 2473.60491502 0 180.54023803 0 391.22324169 0 32608
0.17250000 0.17250900 8324.09811757 0 -102.11873808 0 2256.48385338 0 241.26075835 0 146.88350764 0 32361
0.17350000 0.17350400 8272.82213276 0 -5.82269125 0 2089.25472040 0 245.94787547 0 242.10437352 0 32508
0.17450000 0.17449800 8326.92115272 0 168.58353078 0 2220.72906962 0 -207.42937325 0 254.82121320 0 32791
0.17550000 0.17549800 8156.23187938 0 138.68572113 0 2258.74667533 0 -566.59194295 0 -85.97141638 0 33633
0.17650000 0.17650100 7902.49923732 0 105.84371648 0 2581.27569546 0 -29.69009138 0 -325.73102304 0 33984
0.17750000 0.17750300 7917.17462629 0 -11.90266316 0 2374.34831718 0 324.36783758 0 -139.62380362 0 34069
0.17850000 0.17849800 7905.39916449 0 45.78457728 0 2127.06361922 0 268.20371798 0 -492.77781211 0 34536
