### header ###
fiducial parameters:
Omega_m = 0.31
Omega_nu = 0
Omega_de = 0.69
Omega_k = 0
H_0 = 100
w_de = -1
zeff = 0
beta = 0
fgrowth = 0
b_1 = 2
gamma = 0.55
Lx = 3500 Ly = 3500 Lz = 3500
nx = 700 ny = 700 nz = 700
xoffset = -983.599254 yoffset = -42.9823471 zoffset = 800.977702
bins = 400 dk = 0.001
kx_ny = 0.628318531 ky_ny = 0.628318531 kz_ny = 0.628318531
############################
A(data) = 9.06292409 (not used)
A(ran) = 9.05608704 (used)
Ngal = 503583
weighted Ngal = 0
Nran = 25229228
weighted Nran = 0
SN(data) = 6750.24251
SN(ran) = 134.431373
SN(data+ran) = 6884.67389
############################
13 columns: k_central k_mean P_0(k) sigma^{lin}_{P_0(k)} P^img_1(k) sigma^{lin}_{P_1(k)} P_2(k) sigma^{lin}_{P_2(k)} P^img_3(k) sigma^{lin}_{P_3(k)} P_4(k) sigma^{lin}_{P_4(k)} N_modes
### header ###
0.00050000 0 0 0 0 0 0 0 0 0 0 0 0
0.00150000 0.00179520 20759.08464713 0 -19157.31427331 0 -35960.74448817 0 27319.07139270 0 -34779.57339850 0 3
0.00250000 0.00253879 32696.01967127 0 -28935.23155660 0 -26396.25745015 0 -1607.68007386 0 -24822.71742787 0 6
0.00350000 0.00331552 35763.13202743 0 -16822.54337115 0 -23277.51760285 0 -29161.40390605 0 6240.50045205 0 7
0.00450000 0.00420575 56369.20157850 0 -8500.30164635 0 -23627.92546820 0 -21212.63764901 0 -1244.62896547 0 24
0.00550000 0.00557378 50728.95309516 0 2442.81515807 0 -11709.22483453 0 -12634.45538306 0 -3235.34108525 0 45
0.00650000 0.00659388 67516.01629687 0 3918.26294720 0 4965.42225138 0 -21342.58514265 0 -4204.88339957 0 40
0.00750000 0.00754703 47250.35865010 0 9090.25008597 0 -910.10369362 0 -16917.77961543 0 -7834.28504159 0 57
0.00850000 0.00846663 53096.45802362 0 3711.02800088 0 24971.77807780 0 7149.64958632 0 6200.35183926 0 75
0.00950000 0.00948925 40950.59642897 0 -3502.77148931 0 9679.81406556 0 12766.81948267 0 8338.36707735 0 112
0.01050000 0.01054430 56268.80258511 0 -13983.58058750 0 -4648.58323984 0 36865.54373170 0 31820.21969936 0 105
0.01150000 0.01145670 66937.78839619 0 -6496.33114747 0 -389.79634571 0 13796.07393354 0 8828.33393734 0 144
0.01250000 0.01249090 78726.76122766 0 -1724.87447873 0 -19504.09722971 0 -2672.66733934 0 27077.96002454 0 169
0.01350000 0.01339930 66030.57254670 0 5406.34299480 0 13992.91747420 0 -25281.32333314 0 10643.74326329 0 180
0.01450000 0.01448870 70499.64590142 0 6224.79251326 0 17794.45835315 0 -3659.12589543 0 30254.80826079 0 267
0.01550000 0.01550050 71696.41508415 0 -2230.70306153 0 30583.90605533 0 6165.60763619 0 30811.83593639 0 238
0.01650000 0.01653350 75380.86041939 0 -5218.53975737 0 29430.96531719 0 -430.13938543 0 13445.99560537 0 315
0.01750000 0.01747870 79456.79592142 0 3160.40433110 0 40051.61900892 0 341.51255847 0 19165.66254848 0 297
0.01850000 0.01844180 74811.96940540 0 4148.60943423 0 38118.88346323 0 455.63457839 0 6717.27484037 0 388
0.01950000 0.01947590 70443.18519835 0 3189.16194211 0 51192.61190382 0 4950.15369549 0 40552.51551863 0 399
0.02050000 0.02045430 76664.73726269 0 -3169.29085031 0 52420.90680986 0 11066.62733853 0 18367.30381326 0 462
0.02150000 0.02154770 72367.24293170 0 1485.72934906 0 42477.78155496 0 14063.98765880 0 20409.88508476 0 571
0.02250000 0.02255340 72577.92703381 0 4426.95850344 0 34714.76442027 0 1007.22708747 0 30432.86818234 0 510
0.02350000 0.02348930 72187.20578709 0 2820.01439595 0 34473.54320638 0 9342.66457932 0 24433.97340421 0 555
0.02450000 0.02439640 75755.98357304 0 -3605.67496525 0 39895.96761544 0 6416.41838194 0 18679.70505748 0 592
0.02550000 0.02547300 71871.83870828 0 -225.61872699 0 31320.53149264 0 -2139.15763364 0 15043.48199588 0 837
0.02650000 0.02652900 66349.56453446 0 2514.57737075 0 32638.46051095 0 -4708.94346618 0 11192.84007749 0 723
0.02750000 0.02749970 64790.08476509 0 4045.68398914 0 32232.47070834 0 1988.99852645 0 3846.18218192 0 826
0.02850000 0.02848090 64220.20513957 0 1086.80372508 0 37743.32092667 0 -240.21942087 0 3987.35590874 0 831
0.02950000 0.02946900 63825.19990954 0 2408.78495222 0 32494.23307295 0 9885.51117172 0 -6244.74049707 0 996
0.03050000 0.03053250 65276.48163899 0 474.13809090 0 33149.57267316 0 -3748.91379171 0 -2796.30968831 0 1041
0.03150000 0.03150510 59426.75735652 0 388.87254315 0 26465.67994886 0 3951.64506328 0 -5476.77607419 0 1036
0.03250000 0.03246190 57102.97102694 0 1133.01472348 0 30700.23267897 0 -2043.97631222 0 -7689.24474523 0 1059
0.03350000 0.03345080 54525.22137927 0 2030.27855021 0 25689.72974171 0 1296.80568524 0 -8251.01775619 0 1302
0.03450000 0.03451200 53272.54072210 0 2897.59843209 0 27654.75993079 0 3818.57795102 0 -8643.01321332 0 1339
0.03550000 0.03553350 51269.50391189 0 1682.88045775 0 25826.48767035 0 1708.07906725 0 -6346.72126891 0 1365
0.03650000 0.03647120 47895.48259780 0 320.80444224 0 22789.47304306 0 3640.99036610 0 -1849.34067065 0 1308
0.03750000 0.03744890 50836.49206073 0 -1010.01936582 0 20688.12430825 0 5918.90512059 0 -8280.45641070 0 1579
0.03850000 0.03847530 46284.59502875 0 882.68290509 0 17203.48834827 0 -685.35604324 0 -2063.30915996 0 1662
0.03950000 0.03950240 47455.88000310 0 2108.65347558 0 18935.31606145 0 -1692.74460393 0 -1729.59784494 0 1683
0.04050000 0.04050350 44438.19822355 0 1237.57686988 0 17899.03148412 0 3593.92147259 0 -567.49707173 0 1822
0.04150000 0.04152450 47380.63568091 0 206.03213562 0 22030.87846059 0 -814.79714808 0 -1857.50220808 0 1887
0.04250000 0.04250150 41650.09401095 0 -696.78109718 0 17341.23488844 0 796.13875309 0 1710.48468865 0 1920
0.04350000 0.04349210 44409.85802629 0 1932.79046855 0 21841.17489211 0 -2582.57187503 0 -7334.55289658 0 2005
0.04450000 0.04448520 40980.58431212 0 2224.84828434 0 20190.41332459 0 -3304.57684623 0 -3424.68216283 0 2151
0.04550000 0.04548030 41334.28754924 0 357.04144873 0 26471.28208088 0 3643.38500293 0 -1196.93395133 0 2274
0.04650000 0.04648670 42257.32118325 0 -810.42968202 0 20612.66029462 0 6640.10821799 0 -2662.71531658 0 2311
0.04750000 0.04749250 40926.65006075 0 -775.89638274 0 20608.70584849 0 135.84181528 0 -1911.91978065 0 2568
0.04850000 0.04851840 40211.22484852 0 2122.17548443 0 17048.60587487 0 2299.73011563 0 -1324.88225275 0 2493
0.04950000 0.04949480 40498.25173007 0 289.36330014 0 19385.46384583 0 -1352.77208254 0 794.29334490 0 2644
0.05050000 0.05050630 38404.15281317 0 703.82440512 0 17277.52436747 0 1842.92568026 0 221.44349095 0 2829
0.05150000 0.05149060 38704.69071899 0 26.32661526 0 16658.87323969 0 1918.56544706 0 -1762.16710264 0 2784
0.05250000 0.05249300 37243.74256567 0 1070.49053634 0 14527.75631318 0 2079.39057422 0 443.71741559 0 3055
0.05350000 0.05348950 35677.56220703 0 946.11441792 0 14795.67003844 0 1344.64349883 0 4967.38848987 0 3009
0.05450000 0.05448610 36055.10196665 0 -485.87620516 0 12398.28707256 0 2491.37795346 0 1701.80687631 0 3336
0.05550000 0.05550870 35312.87439732 0 189.69697774 0 10977.81706921 0 2486.98412442 0 4707.95485465 0 3349
0.05650000 0.05647670 35257.73184297 0 -3.57312768 0 11302.46611185 0 1570.46434195 0 2355.27909917 0 3324
0.05750000 0.05747970 34470.57737179 0 487.50851265 0 8652.29517715 0 -280.02311807 0 3418.32209531 0 3639
0.05850000 0.05849280 34530.88267526 0 691.49092703 0 10789.43164944 0 329.43282400 0 3829.89206078 0 3846
0.05950000 0.05951020 33275.34602921 0 92.27809888 0 9539.36532053 0 -135.83851991 0 1027.08170242 0 3787
0.06050000 0.06049470 33848.96040941 0 -210.45013071 0 8594.25269563 0 727.88611136 0 1230.64560458 0 3930
0.06150000 0.06148310 34373.36390444 0 -319.95313786 0 8541.73545412 0 -1513.00404278 0 -3528.20077484 0 4083
0.06250000 0.06249100 33076.19572831 0 1496.50521476 0 9547.21928993 0 -789.86656215 0 -2922.65424215 0 4303
0.06350000 0.06350600 31286.58916336 0 1402.03789056 0 9016.85117198 0 -1461.71707340 0 -2722.07594681 0 4470
0.06450000 0.06451750 30755.59492478 0 195.40785702 0 12644.89072701 0 -462.78443668 0 -1646.77416768 0 4479
0.06550000 0.06550280 29580.79488720 0 738.37088589 0 11137.14829450 0 2331.61832983 0 -3482.91138208 0 4636
0.06650000 0.06648880 30095.86149554 0 412.97818768 0 11424.94409613 0 -637.98617244 0 56.08063686 0 4653
0.06750000 0.06749660 28998.50269467 0 74.97234417 0 9665.27049146 0 2616.59109631 0 -1740.63734038 0 5220
0.06850000 0.06852730 29399.65928534 0 121.32240725 0 10486.51009136 0 218.64022803 0 1218.71635875 0 5029
0.06950000 0.06949320 28587.89937157 0 395.74229485 0 11103.09611950 0 302.12407811 0 1897.87051231 0 5040
0.07050000 0.07048030 28815.93909836 0 283.62166405 0 11255.56198692 0 -585.36677440 0 1902.73667797 0 5475
0.07150000 0.07148790 28074.70014057 0 45.41637441 0 11871.24728011 0 -611.45513428 0 306.47067348 0 5509
0.07250000 0.07249820 28300.65279857 0 520.66874036 0 11528.30892412 0 -287.77932477 0 430.29866173 0 5916
0.07350000 0.07351270 27363.00968303 0 310.38337823 0 11747.34130139 0 935.97346051 0 1930.00038711 0 5721
0.07450000 0.07449140 27613.78747506 0 -510.04226484 0 11289.17477902 0 1197.68090226 0 931.32698631 0 6028
0.07550000 0.07549160 27881.92089177 0 1443.83418924 0 12508.68202700 0 598.68666711 0 905.55388366 0 6183
0.07650000 0.07648840 26276.52560901 0 729.01642388 0 10470.04421706 0 -1211.00518880 0 1990.17387572 0 6330
0.07750000 0.07749960 25289.56176257 0 101.59125890 0 12282.83921473 0 1288.64414781 0 1841.56359326 0 6583
0.07850000 0.07848650 24821.06974198 0 231.94144697 0 11605.31077791 0 463.99164121 0 2023.54500722 0 6549
0.07950000 0.07947320 24443.20044518 0 512.32705594 0 10579.78009715 0 1091.26895384 0 1572.16695070 0 6828
0.08050000 0.08048110 24124.31830315 0 446.40424205 0 10634.25259258 0 613.05009422 0 2849.44206589 0 7147
0.08150000 0.08149960 23150.64578954 0 571.40977648 0 10313.41519662 0 72.99523095 0 1181.83016403 0 7386
0.08250000 0.08250610 22343.82893344 0 532.86051746 0 10299.10229855 0 444.46436653 0 4131.74811532 0 7227
0.08350000 0.08350160 21869.84462655 0 61.04654243 0 9394.89622194 0 1615.87456501 0 2365.46179796 0 7798
0.08450000 0.08449610 22445.10669264 0 -21.27964354 0 9144.22827564 0 1013.03023717 0 2616.07482140 0 7371
0.08550000 0.08548940 21851.72008179 0 -261.00882293 0 7583.04589751 0 1175.68978795 0 3129.91115761 0 8256
0.08650000 0.08650700 21414.53409305 0 610.93885937 0 8119.10402406 0 -288.95796941 0 2402.17223952 0 8037
0.08750000 0.08749060 20656.81827639 0 804.11574970 0 7368.75885560 0 -987.55042261 0 4079.46154983 0 8155
0.08850000 0.08849210 20005.10358514 0 184.84838740 0 7643.81255303 0 448.28040704 0 2055.35632941 0 8718
0.08950000 0.08949900 20388.13563105 0 22.67743040 0 7481.15300225 0 1638.61263025 0 1309.38302084 0 8571
0.09050000 0.09049190 20210.62493814 0 -109.65327610 0 6270.29061289 0 119.14965879 0 2466.25623596 0 8932
0.09150000 0.09150830 20161.41405297 0 61.12991534 0 6673.55624150 0 111.29678785 0 1851.50463145 0 9285
0.09250000 0.09250820 19629.65089431 0 378.26803678 0 6280.19869736 0 -331.78352253 0 1623.22324406 0 9204
0.09350000 0.09350330 19259.80033550 0 344.32900288 0 6009.90131985 0 292.89154485 0 2104.36949227 0 9349
0.09450000 0.09448040 19141.27679735 0 -59.30790428 0 6276.93627930 0 519.12650637 0 2466.08048280 0 9564
0.09550000 0.09549270 18716.17383845 0 150.49413665 0 5834.79624833 0 1258.90890983 0 1766.45108595 0 10155
0.09650000 0.09649430 18998.14781661 0 528.19976332 0 5299.27636584 0 -275.36346238 0 1862.10474399 0 9913
0.09750000 0.09749140 18257.12855027 0 107.37002285 0 5419.65629676 0 -338.86417802 0 1968.64411346 0 10476
0.09850000 0.09850240 18014.91872485 0 57.47073452 0 5378.02476668 0 -276.39711066 0 920.50828077 0 10575
0.09950000 0.09950330 17303.11842158 0 614.86254870 0 5916.65328321 0 -81.16127205 0 161.45783854 0 10882
0.10050000 0.10051200 17007.19403624 0 647.50430458 0 5344.90628035 0 -760.45207369 0 48.94615697 0 10875
0.10150000 0.10150300 16382.17185636 0 3.97503122 0 5917.89453991 0 897.11663346 0 -545.90909123 0 11118
0.10250000 0.10250800 16490.04035911 0 -183.10623419 0 4991.10418208 0 479.53481141 0 -989.16076095 0 11575
0.10350000 0.10349800 16408.20529338 0 -51.06387271 0 3901.10504483 0 937.52228525 0 -625.59886994 0 11364
0.10450000 0.10450100 16335.70711434 0 110.12253704 0 3591.71357350 0 125.28893641 0 -582.81505819 0 12093
0.10550000 0.10551000 15757.14967649 0 88.63407678 0 3662.19059118 0 377.82645697 0 -704.88331792 0 12067
0.10650000 0.10649700 15670.37155309 0 541.40871185 0 3507.80242355 0 -264.61395966 0 -963.71060474 0 12054
0.10750000 0.10749900 15271.74141412 0 449.99509882 0 3880.68472440 0 -690.48144481 0 -791.92726797 0 12807
0.10850000 0.10850100 14794.90111836 0 71.58623982 0 4193.73405840 0 116.95823656 0 -860.40399498 0 12736
0.10950000 0.10950300 14867.39929740 0 -101.51502597 0 3779.09939717 0 200.81556210 0 -1068.30350794 0 12933
0.11050000 0.11050200 15007.56244353 0 185.59094451 0 3816.41399023 0 316.53254196 0 -972.46201371 0 13428
0.11150000 0.11150900 14986.58190990 0 34.02251666 0 4430.29781351 0 -293.07498721 0 -1035.53323256 0 13453
0.11250000 0.11250000 14667.04069351 0 -75.07120532 0 3614.11111700 0 331.93620809 0 -262.99043983 0 13668
0.11350000 0.11349100 15023.49007378 0 -23.24566234 0 3748.08994877 0 461.27295949 0 -606.78998631 0 13791
0.11450000 0.11448600 14877.83464135 0 150.67977593 0 3859.79206735 0 -126.16440684 0 -300.36764495 0 14205
0.11550000 0.11549300 14478.54542802 0 384.54132618 0 3793.06078892 0 55.61708789 0 158.67764322 0 14776
0.11650000 0.11649800 14225.02149284 0 206.88893228 0 4757.71496844 0 -265.20602812 0 746.43685753 0 14553
0.11750000 0.11747300 14141.97812412 0 308.69504942 0 4640.04822695 0 -35.89527644 0 438.85124994 0 14568
0.11850000 0.11849100 14104.19119444 0 10.96902941 0 4777.67393682 0 263.16729145 0 199.74676319 0 16015
0.11950000 0.11950300 13886.47696588 0 14.33772321 0 4629.21743838 0 -7.47560579 0 870.44499278 0 15270
0.12050000 0.12050700 13672.27780055 0 142.36115911 0 4681.52597302 0 57.63824925 0 430.18881600 0 15999
0.12150000 0.12150000 13625.48352135 0 212.08024129 0 4663.98361060 0 -334.41652458 0 681.29724367 0 15670
0.12250000 0.12250700 13001.34010728 0 321.53162094 0 4963.86244207 0 484.06594760 0 569.63796492 0 16887
0.12350000 0.12352200 13399.42101763 0 -156.65428495 0 4240.49538387 0 833.99268867 0 959.52987641 0 16407
0.12450000 0.12449800 13424.79538029 0 -20.09232109 0 3825.55315461 0 767.07796787 0 952.27786159 0 16306
0.12550000 0.12549900 13279.35963931 0 -151.98034932 0 3557.58450649 0 41.26695212 0 1606.09829541 0 17523
0.12650000 0.12650100 13100.75048914 0 149.12875428 0 3222.90654908 0 279.88910629 0 1389.55941611 0 17154
0.12750000 0.12750600 13204.99408294 0 260.46618505 0 2960.12261922 0 -183.89822187 0 1232.11753730 0 18007
0.12850000 0.12850300 12847.33639969 0 134.28200598 0 3479.67093317 0 -148.95739495 0 860.65004941 0 17496
0.12950000 0.12949900 12497.69745442 0 305.62925522 0 3509.43912487 0 -454.41968466 0 161.75112663 0 18405
0.13050000 0.13049000 12259.88145804 0 340.22956039 0 4263.72775488 0 -311.54005372 0 583.46424643 0 18100
0.13150000 0.13148800 11993.72526439 0 175.34563366 0 3796.96031218 0 -390.70586832 0 193.26147154 0 19059
0.13250000 0.13249300 11969.11982181 0 -67.77953619 0 4314.66321794 0 591.32700349 0 349.12706418 0 18957
0.13350000 0.13349100 11935.61687544 0 -23.35539822 0 3576.88440052 0 325.77825670 0 -497.28368379 0 19468
0.13450000 0.13450700 11867.07314253 0 69.89889963 0 3195.20345703 0 493.31385926 0 346.25020462 0 19953
0.13550000 0.13551000 11770.73844099 0 70.10771635 0 3448.10127157 0 113.83202720 0 410.86146055 0 19956
0.13650000 0.13649900 11775.35196147 0 178.87827220 0 3349.19618005 0 5.41132999 0 57.76863613 0 19723
0.13750000 0.13749600 11496.01428073 0 161.51166295 0 3067.90324539 0 105.61809336 0 301.93734037 0 20946
0.13850000 0.13851100 11209.97601071 0 252.36396431 0 3142.23584805 0 -68.08282024 0 461.55416455 0 20955
0.13950000 0.13949800 11106.72102845 0 75.82024332 0 3361.02656472 0 -26.08594327 0 509.27993550 0 20506
0.14050000 0.14048300 10666.54723597 0 -37.32140349 0 2857.48277302 0 821.83825910 0 570.21465498 0 21447
0.14150000 0.14148400 10960.87885829 0 48.41768918 0 2598.64230471 0 279.29593937 0 761.08368661 0 21771
0.14250000 0.14249400 10908.44949335 0 33.79425724 0 2298.92824183 0 137.64218673 0 678.30614456 0 22470
0.14350000 0.14350900 10869.90462817 0 67.23140602 0 2388.96878328 0 -82.73118716 0 699.44046220 0 22519
0.14450000 0.14449900 10834.60021189 0 -60.06155581 0 1812.45447592 0 317.46293526 0 926.72005657 0 22218
0.14550000 0.14550500 10659.56104781 0 49.65191575 0 2166.16869761 0 -60.24422925 0 474.84769429 0 23559
0.14650000 0.14650700 10618.55563836 0 198.32096567 0 2050.83068551 0 -306.11257641 0 520.09534567 0 23044
0.14750000 0.14750500 10439.16658353 0 326.21104886 0 2350.86330100 0 -138.70549336 0 196.48654205 0 23649
0.14850000 0.14849900 10095.37143088 0 196.79520854 0 2540.40210089 0 -310.10327163 0 894.18265413 0 23640
0.14950000 0.14949500 9850.64613834 0 87.21860475 0 2840.17108663 0 264.52608307 0 517.24594754 0 24457
0.15050000 0.15050000 9910.52304348 0 45.25665873 0 2577.93638540 0 37.39005707 0 448.58797508 0 24591
0.15150000 0.15149900 9812.24407260 0 115.66754928 0 2884.21922268 0 210.15574417 0 745.39771697 0 25020
0.15250000 0.15250500 9697.53218113 0 173.52109615 0 3006.82902184 0 -440.06174984 0 550.59071607 0 25297
0.15350000 0.15350100 9419.87513999 0 219.59039356 0 2901.38810963 0 -90.48816278 0 520.65775578 0 25452
0.15450000 0.15450400 9372.38883272 0 -71.60161822 0 3329.64364086 0 33.70253606 0 -1.38437470 0 26061
0.15550000 0.15549900 9283.21607251 0 80.54349969 0 3072.58267331 0 105.26175383 0 347.16082569 0 26128
0.15650000 0.15649500 9198.15154244 0 138.16505239 0 2956.73937087 0 -102.62106258 0 6.05506988 0 26331
0.15750000 0.15749700 9081.93476453 0 76.73613698 0 3022.44908405 0 -96.13005895 0 -209.65594612 0 27345
0.15850000 0.15849900 8996.84826531 0 192.80780869 0 2953.70762883 0 44.77223908 0 -290.10036496 0 26980
0.15950000 0.15949700 8813.41688778 0 -57.43206882 0 2700.79882972 0 330.59828715 0 -253.94574276 0 27777
0.16050000 0.16050000 8857.17942494 0 -43.60556762 0 2878.39739922 0 242.12414575 0 -388.49028003 0 28224
0.16150000 0.16150500 8824.25866092 0 176.72309906 0 2329.02597070 0 89.50932752 0 -434.36954433 0 28075
0.16250000 0.16249700 8720.11392827 0 59.87558699 0 2300.02669909 0 305.54796938 0 14.74612962 0 28590
0.16350000 0.16349900 8663.82897837 0 -1.76015693 0 2235.99762551 0 16.71764070 0 -160.36926740 0 29163
0.16450000 0.16449100 8631.89682587 0 150.40186624 0 2214.44589411 0 277.80533287 0 231.20328369 0 28996
0.16550000 0.16550500 8453.82591975 0 -4.67522083 0 1981.56197081 0 197.55534096 0 442.13124331 0 30777
0.16650000 0.16650700 8436.90967798 0 -5.03998553 0 2152.85539564 0 -31.04481872 0 663.70654914 0 29211
0.16750000 0.16749900 8306.91824605 0 206.43087561 0 2115.26618827 0 -109.71797523 0 600.89346775 0 30922
0.16850000 0.16850800 8330.91953714 0 120.28546359 0 2110.49888377 0 192.49145300 0 822.77194777 0 30867
0.16950000 0.16949900 8314.29987883 0 -88.13153258 0 2094.91177528 0 284.79042257 0 1045.44241548 0 30852
0.17050000 0.17049200 8383.89813070 0 -78.97105812 0 1918.76316936 0 30.42858420 0 803.92022431 0 31257
0.17150000 0.17149500 8295.50527514 0 163.15715192 0 2043.64677504 0 -280.62836802 0 523.12269387 0 32608
0.17250000 0.17250900 8172.43412394 0 245.17785693 0 2080.81856866 0 -197.87059819 0 436.18639263 0 32361
0.17350000 0.17350400 8089.87407642 0 85.48534905 0 2610.22004421 0 -354.38208370 0 373.39857576 0 32508
0.17450000 0.17449800 7854.62847002 0 -53.51870499 0 2439.40994057 0 134.58627864 0 23.27729791 0 32791
0.17550000 0.17549800 7864.76723051 0 170.48715721 0 2571.34564185 0 32.60649540 0 126.12925621 0 33633
0.17650000 0.17650100 7848.30135621 0 105.88040496 0 2250.73892192 0 202.18204293 0 360.77840032 0 33984
0.17750000 0.17750300 7683.93919667 0 -69.85430226 0 2334.86976332 0 300.46211227 0 335.33813022 0 34069
0.17850000 0.17849800 7754.64689038 0 78.71127298 0 1985.99973813 0 335.00200230 0 524.23433262 0 34536
