### header ###
fiducial parameters:
Omega_m = 0.31
Omega_nu = 0
Omega_de = 0.69
Omega_k = 0
H_0 = 100
w_de = -1
zeff = 0
beta = 0
fgrowth = 0
b_1 = 2
gamma = 0.55
Lx = 3500 Ly = 3500 Lz = 3500
nx = 700 ny = 700 nz = 700
xoffset = -983.599254 yoffset = -42.9823471 zoffset = 800.977702
bins = 400 dk = 0.001
kx_ny = 0.628318531 ky_ny = 0.628318531 kz_ny = 0.628318531
############################
A(data) = 8.99495276 (not used)
A(ran) = 8.99686525 (used)
Ngal = 499690
weighted Ngal = 0
Nran = 25229228
weighted Nran = 0
SN(data) = 6752.76945
SN(ran) = 133.552266
SN(data+ran) = 6886.32172
############################
13 columns: k_central k_mean P_0(k) sigma^{lin}_{P_0(k)} P^img_1(k) sigma^{lin}_{P_1(k)} P_2(k) sigma^{lin}_{P_2(k)} P^img_3(k) sigma^{lin}_{P_3(k)} P_4(k) sigma^{lin}_{P_4(k)} N_modes
### header ###
0.00050000 0 0 0 0 0 0 0 0 0 0 0 0
0.00150000 0.00179520 70894.76097717 0 -11304.99256354 0 -4770.85251725 0 35724.02694904 0 -3729.74571256 0 3
0.00250000 0.00253879 103783.66974297 0 2510.87556979 0 4441.43617010 0 -23838.38987885 0 26724.14694170 0 6
0.00350000 0.00331552 85576.63084366 0 8382.50308998 0 37945.65675362 0 -124822.09207084 0 36786.67450056 0 7
0.00450000 0.00420575 72933.05826536 0 9731.14497323 0 15278.33215766 0 2331.56340697 0 4402.55078317 0 24
0.00550000 0.00557378 59339.32015877 0 11136.59906587 0 26644.28909903 0 24937.94559425 0 14869.37652046 0 45
0.00650000 0.00659388 55410.57792933 0 1625.24440542 0 55053.57932043 0 19091.84622073 0 45144.72593198 0 40
0.00750000 0.00754703 58436.71782976 0 -12657.41313976 0 7691.43067517 0 21144.20376183 0 -14991.19543039 0 57
0.00850000 0.00846663 74138.83479761 0 -3436.43565549 0 27567.43257877 0 20176.68260886 0 -11569.61091703 0 75
0.00950000 0.00948925 75369.76600108 0 5901.98887881 0 25879.54315592 0 -13240.36440665 0 12423.88112668 0 112
0.01050000 0.01054430 59972.36107663 0 5719.48020537 0 43955.31641287 0 -31665.44707169 0 9601.12058759 0 105
0.01150000 0.01145670 65411.15249883 0 3367.43057054 0 39316.86094895 0 16063.61925150 0 -2771.22092454 0 144
0.01250000 0.01249090 68705.31597025 0 -4710.72296694 0 54855.74716824 0 5365.34856992 0 -3456.48250045 0 169
0.01350000 0.01339930 68907.65179720 0 1198.87822067 0 56677.97791376 0 11453.28429339 0 -5232.35834968 0 180
0.01450000 0.01448870 74788.90180298 0 1289.02860785 0 42336.51995156 0 74.04447732 0 -13471.04043086 0 267
0.01550000 0.01550050 72325.72124734 0 5243.33193769 0 38635.37806600 0 -168.38471001 0 5841.36502273 0 238
0.01650000 0.01653350 73054.98702101 0 54.44338631 0 53257.71154911 0 8754.97896165 0 -9223.97627258 0 315
0.01750000 0.01747870 71353.25703671 0 -3627.63312584 0 40871.28781494 0 2480.07482827 0 -7735.92917870 0 297
0.01850000 0.01844180 76974.83174667 0 -8463.76695794 0 33597.41369730 0 21919.60474034 0 -17676.70373507 0 388
0.01950000 0.01947590 92626.96890927 0 -5648.69561966 0 23504.34902665 0 17465.25071288 0 -3513.37160185 0 399
0.02050000 0.02045430 86612.25634663 0 3745.95894169 0 6212.58865312 0 -12070.28773528 0 -19191.47629404 0 462
0.02150000 0.02154770 85774.24330440 0 5860.60999390 0 26136.25261714 0 -10841.77313779 0 -8586.35478795 0 571
0.02250000 0.02255340 72186.10732983 0 5265.91621892 0 23166.68326550 0 -9425.23561141 0 -8703.85676085 0 510
0.02350000 0.02348930 72461.92994735 0 5874.23086390 0 33800.84798150 0 1623.51982752 0 -8795.89649451 0 555
0.02450000 0.02439640 69707.43852685 0 -2642.52567218 0 28515.62088399 0 19044.94209581 0 973.64395372 0 592
0.02550000 0.02547300 71605.35297745 0 -702.72814478 0 28271.43383551 0 7164.31399071 0 -8946.86846007 0 837
0.02650000 0.02652900 70560.06105061 0 4313.97118987 0 24007.99167951 0 -3225.54284650 0 11503.15425291 0 723
0.02750000 0.02749970 65401.81561214 0 3554.62965647 0 26591.34345919 0 3742.66356992 0 17152.08054859 0 826
0.02850000 0.02848090 60957.89692863 0 -644.07931485 0 23963.28446910 0 3486.52530646 0 13200.92979108 0 831
0.02950000 0.02946900 63820.91592623 0 1187.94857095 0 22850.65711234 0 4044.49765531 0 7835.37251428 0 996
0.03050000 0.03053250 59056.90679770 0 3232.74872612 0 22651.50681144 0 1550.47241986 0 4772.98352433 0 1041
0.03150000 0.03150510 57142.07610532 0 1332.17600895 0 21999.68227446 0 -484.87441214 0 13076.69427519 0 1036
0.03250000 0.03246190 58836.22673455 0 -1319.71950364 0 18814.04638015 0 7786.30442856 0 2779.71199914 0 1059
0.03350000 0.03345080 57593.65188414 0 -1672.58791324 0 15452.54747880 0 576.11007509 0 1219.22164909 0 1302
0.03450000 0.03451200 54821.03591889 0 3012.36524642 0 13816.50523854 0 -3481.40649564 0 -3437.17162186 0 1339
0.03550000 0.03553350 53347.23581565 0 3793.87364729 0 18898.73743475 0 -3985.34573195 0 -1596.93716188 0 1365
0.03650000 0.03647120 52313.25799857 0 1160.27843262 0 19715.11086899 0 -1516.26646084 0 -8249.06250227 0 1308
0.03750000 0.03744890 48563.23476502 0 1317.36880511 0 21820.08451276 0 2547.26745875 0 -6737.45350020 0 1579
0.03850000 0.03847530 48422.96177316 0 -1084.51563861 0 19600.87131415 0 663.45170705 0 -6803.65751915 0 1662
0.03950000 0.03950240 45946.48988469 0 2920.95163340 0 23361.98896600 0 -1490.95800561 0 -7160.71105091 0 1683
0.04050000 0.04050350 46178.04467471 0 3798.83867410 0 25145.55401603 0 -3410.38024933 0 -5705.63964392 0 1822
0.04150000 0.04152450 42851.58655990 0 -468.86988989 0 24511.08510374 0 1640.95234421 0 -5653.96821450 0 1887
0.04250000 0.04250150 41106.68720535 0 -131.63142861 0 28893.27048934 0 6125.87643716 0 698.73305573 0 1920
0.04350000 0.04349210 43441.45810752 0 566.75121925 0 20614.63751768 0 2980.50998593 0 -4556.91698165 0 2005
0.04450000 0.04448520 41807.50293604 0 552.13514697 0 21944.97910301 0 645.35242681 0 4606.88580233 0 2151
0.04550000 0.04548030 40304.15433256 0 1543.12374080 0 21575.89746427 0 2108.24704639 0 671.56161699 0 2274
0.04650000 0.04648670 38513.11977317 0 1517.79331643 0 24731.87501262 0 531.90925348 0 12047.54967004 0 2311
0.04750000 0.04749250 36627.83758104 0 844.52689377 0 23977.23487628 0 3153.84654126 0 10510.43449044 0 2568
0.04850000 0.04851840 37226.49678672 0 110.01049440 0 23111.43086542 0 3473.22298907 0 11381.77472588 0 2493
0.04950000 0.04949480 36203.39369649 0 905.64615407 0 25344.37477976 0 945.20159994 0 13563.53053199 0 2644
0.05050000 0.05050630 35419.53459709 0 402.61973574 0 22444.66730973 0 2734.62032870 0 16311.54105467 0 2829
0.05150000 0.05149060 36645.30305144 0 -402.47254247 0 26799.28141815 0 2183.97468977 0 17952.74604404 0 2784
0.05250000 0.05249300 35998.97080076 0 -120.32281114 0 20317.72452081 0 1536.58792011 0 16560.78100654 0 3055
0.05350000 0.05348950 36613.44779096 0 272.74364182 0 22841.53991710 0 1556.66771879 0 12925.21701929 0 3009
0.05450000 0.05448610 36883.55843073 0 807.01567686 0 22378.97956570 0 -808.39094535 0 10686.52817349 0 3336
0.05550000 0.05550870 34984.32583142 0 709.80220952 0 22992.24825291 0 -728.52651194 0 10609.52631970 0 3349
0.05650000 0.05647670 34363.25809767 0 247.06061267 0 22016.04928761 0 491.83094196 0 9002.58221220 0 3324
0.05750000 0.05747970 34881.40038633 0 -467.63961776 0 20011.47463724 0 3876.88406229 0 4004.61267226 0 3639
0.05850000 0.05849280 34387.75369452 0 741.46304307 0 18944.32341096 0 984.30887524 0 4208.50830852 0 3846
0.05950000 0.05951020 32976.56565500 0 -83.90686597 0 15894.45683375 0 144.28236086 0 4509.91399558 0 3787
0.06050000 0.06049470 32928.01384419 0 178.60695326 0 15792.41015447 0 2127.95336960 0 2523.68358142 0 3930
0.06150000 0.06148310 31985.42767098 0 1882.85460160 0 14247.32017518 0 -1380.16760656 0 -536.58977986 0 4083
0.06250000 0.06249100 31218.15527618 0 582.84801191 0 15767.58502044 0 265.19504355 0 2081.99391792 0 4303
0.06350000 0.06350600 30895.31868801 0 186.24562503 0 16564.07637831 0 -350.20135538 0 -638.63536068 0 4470
0.06450000 0.06451750 29207.97849379 0 497.16395195 0 14475.03036479 0 917.92470930 0 605.76512569 0 4479
0.06550000 0.06550280 28683.46515303 0 66.66339377 0 15703.87449947 0 1671.72013201 0 825.09188950 0 4636
0.06650000 0.06648880 29051.44833451 0 404.66616161 0 12687.95025153 0 3813.57997050 0 3696.42950392 0 4653
0.06750000 0.06749660 29047.60373410 0 17.82433639 0 11828.29760132 0 2447.54950886 0 1845.47410110 0 5220
0.06850000 0.06852730 27984.07741678 0 403.33153604 0 10645.48981033 0 -1589.95097371 0 3233.75930679 0 5029
0.06950000 0.06949320 27080.26678479 0 1172.89970652 0 12024.48206762 0 904.77617592 0 3194.72013584 0 5040
0.07050000 0.07048030 25900.96307245 0 -666.97665640 0 10342.42545281 0 955.52819662 0 4828.88401419 0 5475
0.07150000 0.07148790 26667.68623863 0 740.81275637 0 9769.15159436 0 396.02130299 0 1474.25047071 0 5509
0.07250000 0.07249820 26396.91652450 0 738.98931732 0 10464.80457594 0 -1264.48907270 0 413.17261462 0 5916
0.07350000 0.07351270 25267.48277169 0 439.07313831 0 10117.64814408 0 -493.55002757 0 746.87953581 0 5721
0.07450000 0.07449140 25396.66134524 0 -358.92310601 0 10215.68545437 0 1308.99856080 0 498.53592506 0 6028
0.07550000 0.07549160 24808.54732924 0 -944.27560047 0 9091.63414212 0 2116.63925984 0 1313.20565210 0 6183
0.07650000 0.07648840 26553.99591241 0 309.01360203 0 8343.71656420 0 961.67296652 0 779.37739379 0 6330
0.07750000 0.07749960 25831.97995664 0 1058.96991662 0 8177.37718160 0 -1573.22146967 0 -795.89160021 0 6583
0.07850000 0.07848650 24191.32419589 0 695.06530694 0 8771.67551197 0 -1168.15437116 0 475.34309851 0 6549
0.07950000 0.07947320 24002.82893040 0 604.92480588 0 10642.71071347 0 375.54276433 0 -322.36205463 0 6828
0.08050000 0.08048110 22742.12953524 0 33.12848229 0 10228.86694146 0 673.51796937 0 737.39875121 0 7147
0.08150000 0.08149960 23277.84714003 0 -172.62914886 0 8713.23758584 0 1664.81083586 0 -39.84434012 0 7386
0.08250000 0.08250610 23249.06755986 0 -45.05113737 0 8598.44880236 0 1060.11890291 0 1795.72497188 0 7227
0.08350000 0.08350160 22375.68419392 0 885.29833182 0 8809.64917938 0 -533.35702014 0 1457.91641129 0 7798
0.08450000 0.08449610 22421.05047868 0 397.57781692 0 7858.28633268 0 44.25486571 0 1862.92858693 0 7371
0.08550000 0.08548940 21452.32102273 0 327.53029603 0 8466.18356391 0 467.63083010 0 1224.88968855 0 8256
0.08650000 0.08650700 21116.41279320 0 461.05766187 0 8773.15842927 0 765.96632913 0 1725.56650680 0 8037
0.08750000 0.08749060 20936.15595714 0 -81.30055643 0 7318.07603771 0 1353.27737288 0 3044.00081545 0 8155
0.08850000 0.08849210 20486.66724711 0 -176.94388897 0 6857.21829506 0 776.61477379 0 2811.18279959 0 8718
0.08950000 0.08949900 20440.31235082 0 237.21843564 0 6028.30047892 0 389.17901273 0 2548.91514464 0 8571
0.09050000 0.09049190 20237.64698669 0 262.14572620 0 6027.85011145 0 347.29813285 0 2366.54927064 0 8932
0.09150000 0.09150830 20135.27077023 0 417.56973902 0 5807.93896837 0 -12.73485438 0 3274.06170360 0 9285
0.09250000 0.09250820 19488.93851954 0 152.58120544 0 5562.84020036 0 -143.23223572 0 2172.50679599 0 9204
0.09350000 0.09350330 19322.41239921 0 73.47316970 0 6540.63192869 0 156.29618789 0 1828.00863070 0 9349
0.09450000 0.09448040 18674.76199982 0 471.07229669 0 5650.17853696 0 304.33746948 0 1276.14370421 0 9564
0.09550000 0.09549270 18225.38313551 0 399.74836847 0 5849.35080700 0 -266.43739870 0 1571.80445981 0 10155
0.09650000 0.09649430 17857.72949122 0 449.30526767 0 6393.61440926 0 -548.05547672 0 943.06070674 0 9913
0.09750000 0.09749140 17327.72386417 0 344.17302195 0 6158.96196978 0 614.67690942 0 1290.30281827 0 10476
0.09850000 0.09850240 16995.22085213 0 365.33699794 0 6214.89541336 0 268.41462177 0 1002.69924666 0 10575
0.09950000 0.09950330 16852.20171712 0 -104.91376257 0 6050.78589900 0 49.08686934 0 1838.86138841 0 10882
0.10050000 0.10051200 16574.95110517 0 341.50486927 0 5885.92943370 0 287.44868914 0 340.46243333 0 10875
0.10150000 0.10150300 16473.34380879 0 304.38909697 0 6562.37039783 0 -702.89511028 0 985.80387557 0 11118
0.10250000 0.10250800 15721.12027842 0 117.41409632 0 6136.91593261 0 -620.95239574 0 979.49104171 0 11575
0.10350000 0.10349800 15635.11107511 0 66.41470305 0 6638.50447039 0 910.81110010 0 769.99327344 0 11364
0.10450000 0.10450100 15752.97553890 0 18.67827706 0 5783.57518638 0 1341.61175679 0 1206.40265289 0 12093
0.10550000 0.10551000 16073.39552110 0 -109.13809965 0 5592.50953090 0 429.48580336 0 809.90901328 0 12067
0.10650000 0.10649700 15741.33189197 0 235.92774836 0 4591.63921558 0 -204.29877007 0 306.27734500 0 12054
0.10750000 0.10749900 15305.13451476 0 495.61293030 0 5533.69812930 0 -592.96040943 0 -386.66793944 0 12807
0.10850000 0.10850100 14923.09108038 0 294.12840772 0 5345.83996902 0 -938.48453380 0 -419.30639995 0 12736
0.10950000 0.10950300 14755.24681134 0 110.82335277 0 5706.79302404 0 -406.42039785 0 -1663.95403919 0 12933
0.11050000 0.11050200 14314.43591365 0 -155.05493119 0 5450.77559089 0 731.25947360 0 -2231.85644165 0 13428
0.11150000 0.11150900 14685.38492972 0 40.94817982 0 4630.70035568 0 500.67352289 0 -2811.57824420 0 13453
0.11250000 0.11250000 14399.23681398 0 277.84707424 0 5218.85830998 0 -367.42736210 0 -2364.04478809 0 13668
0.11350000 0.11349100 14211.18093139 0 288.03526531 0 4656.00881091 0 178.85520460 0 -1988.84474243 0 13791
0.11450000 0.11448600 14098.47921670 0 -158.66226482 0 4331.85407403 0 692.18075818 0 -1651.69525619 0 14205
0.11550000 0.11549300 14243.25588332 0 -153.38198078 0 4278.83154218 0 253.42617248 0 -1992.64540455 0 14776
0.11650000 0.11649800 13952.05486419 0 274.32871565 0 4455.93580591 0 -173.79900584 0 -1207.14960383 0 14553
0.11750000 0.11747300 13666.45597708 0 540.66505628 0 4366.98273715 0 294.40082512 0 -659.14465615 0 14568
0.11850000 0.11849100 13935.57800532 0 -214.95490393 0 4362.17149436 0 864.28704139 0 -488.88048576 0 16015
0.11950000 0.11950300 13513.99010965 0 -132.79469485 0 4134.34047445 0 414.51932322 0 -12.09654086 0 15270
0.12050000 0.12050700 13389.31521085 0 267.16567587 0 3734.18347988 0 -112.83792338 0 507.15332225 0 15999
0.12150000 0.12150000 13446.98421690 0 182.81404456 0 3529.49695440 0 427.45255897 0 172.83675728 0 15670
0.12250000 0.12250700 13500.69877683 0 -95.66288508 0 3551.11459324 0 316.18872484 0 570.97259049 0 16887
0.12350000 0.12352200 13351.96766407 0 24.08005048 0 3185.81164748 0 71.67115057 0 159.50478154 0 16407
0.12450000 0.12449800 13232.45551439 0 210.30513436 0 3584.43080188 0 -564.56419085 0 302.68538977 0 16306
0.12550000 0.12549900 12907.64170316 0 194.40826092 0 3399.54946076 0 -170.11697711 0 -141.68890327 0 17523
0.12650000 0.12650100 12874.79783114 0 111.43079964 0 3605.24656692 0 94.90989263 0 -310.21201890 0 17154
0.12750000 0.12750600 12813.06453323 0 122.01773069 0 3703.00926290 0 -58.82128772 0 -208.52343668 0 18007
0.12850000 0.12850300 12819.65527678 0 -26.60199849 0 3719.12363087 0 178.55203040 0 -164.01285013 0 17496
0.12950000 0.12949900 12635.99322322 0 -53.13094958 0 3665.15642578 0 278.45891494 0 -493.81914960 0 18405
0.13050000 0.13049000 12645.11041846 0 260.24539514 0 3796.58683672 0 -96.32712218 0 -224.00619174 0 18100
0.13150000 0.13148800 12428.49464716 0 274.19580232 0 3742.48781675 0 -284.98265259 0 -303.27086748 0 19059
0.13250000 0.13249300 12343.58390111 0 -34.97839416 0 3850.93850185 0 -86.83535302 0 -511.49772071 0 18957
0.13350000 0.13349100 12285.80504933 0 40.15432476 0 3624.17298548 0 197.47844895 0 -1079.27709595 0 19468
0.13450000 0.13450700 11938.36301858 0 200.94847543 0 3182.01098536 0 285.79770788 0 -669.75575326 0 19953
0.13550000 0.13551000 11902.11392906 0 90.65776458 0 3333.79580929 0 255.16503032 0 -584.19032668 0 19956
0.13650000 0.13649900 11797.10141519 0 -33.74889095 0 3055.21606406 0 334.28361125 0 -687.73530166 0 19723
0.13750000 0.13749600 11657.81703485 0 262.40056828 0 2717.93476295 0 730.66850359 0 -191.67639772 0 20946
0.13850000 0.13851100 11449.54953871 0 -118.79595555 0 2260.55912980 0 -28.65677264 0 -244.30678032 0 20955
0.13950000 0.13949800 11528.41876985 0 268.32125290 0 2481.45888442 0 -162.29596143 0 -332.39975705 0 20506
0.14050000 0.14048300 11148.02302135 0 317.10154282 0 2623.85189879 0 -474.31823789 0 -345.31651595 0 21447
0.14150000 0.14148400 10707.78332144 0 243.49502041 0 3069.63880786 0 -204.53713529 0 -273.26980285 0 21771
0.14250000 0.14249400 10657.30921043 0 73.83653936 0 3065.71731544 0 -23.93450489 0 -423.39375940 0 22470
0.14350000 0.14350900 10520.50734350 0 91.37978054 0 3232.07866719 0 277.85696036 0 -204.84799870 0 22519
0.14450000 0.14449900 10495.06707340 0 215.46458810 0 3269.21750709 0 -97.51114926 0 -290.44967437 0 22218
0.14550000 0.14550500 10193.00231199 0 25.36952945 0 2934.49561139 0 74.75078534 0 -394.23960532 0 23559
0.14650000 0.14650700 9916.99295674 0 114.37246817 0 3353.89757712 0 11.74756099 0 -156.08638255 0 23044
0.14750000 0.14750500 9837.73926556 0 394.06385215 0 3316.93449038 0 -72.90977097 0 -390.80472947 0 23649
0.14850000 0.14849900 9859.07130551 0 -126.31928931 0 2942.23973506 0 404.43987942 0 199.61824369 0 23640
0.14950000 0.14949500 9882.45746054 0 -231.78985987 0 2828.56039341 0 445.28930793 0 122.12867487 0 24457
0.15050000 0.15050000 9880.90863581 0 106.86846726 0 2507.71201289 0 111.54064536 0 -210.78186481 0 24591
0.15150000 0.15149900 9755.40989406 0 320.42437603 0 2739.18991089 0 -339.60893204 0 210.71925274 0 25020
0.15250000 0.15250500 9485.26630057 0 141.32311700 0 2897.76320068 0 -186.22145897 0 44.80112850 0 25297
0.15350000 0.15350100 9531.47839742 0 30.71418309 0 3088.00501321 0 222.77042732 0 84.89646611 0 25452
0.15450000 0.15450400 9468.14135192 0 43.88655299 0 3001.55642700 0 174.19115508 0 27.75032571 0 26061
0.15550000 0.15549900 9183.05873971 0 141.65924492 0 2977.32445988 0 -79.47360232 0 565.69450337 0 26128
0.15650000 0.15649500 9206.45587931 0 -26.57838166 0 2789.71894477 0 492.04953495 0 475.82312434 0 26331
0.15750000 0.15749700 9157.20105586 0 106.61933715 0 2734.57639041 0 270.11393515 0 584.57368826 0 27345
0.15850000 0.15849900 8936.59788471 0 234.29434242 0 2685.66208870 0 -123.30072877 0 482.28644684 0 26980
0.15950000 0.15949700 8827.89455444 0 26.86343132 0 2462.78511103 0 340.80405354 0 1171.88912584 0 27777
0.16050000 0.16050000 8762.11893382 0 -115.23915095 0 2275.37731822 0 288.73608104 0 701.19250153 0 28224
0.16150000 0.16150500 8799.26875829 0 119.06507758 0 1967.06233500 0 74.78077322 0 680.84907311 0 28075
0.16250000 0.16249700 8663.79602465 0 172.91364929 0 2055.88358890 0 -326.60100119 0 506.69965940 0 28590
0.16350000 0.16349900 8428.46254166 0 98.40331625 0 2217.89504990 0 -273.06548980 0 265.32136613 0 29163
0.16450000 0.16449100 8407.33920859 0 191.05467091 0 2440.49741326 0 65.91951852 0 306.77055231 0 28996
0.16550000 0.16550500 8264.37499644 0 11.03026840 0 2337.35227672 0 -18.22637175 0 155.66457496 0 30777
0.16650000 0.16650700 8278.52312593 0 87.33108678 0 2581.85787781 0 -106.07571066 0 70.33311978 0 29211
0.16750000 0.16749900 8044.47483794 0 119.33419961 0 2591.55725540 0 -161.18871652 0 -155.44378506 0 30922
0.16850000 0.16850800 8146.62037837 0 26.59310099 0 2642.49271846 0 88.23610571 0 370.61178969 0 30867
0.16950000 0.16949900 8045.63920263 0 21.70485635 0 2784.47930364 0 259.34795556 0 -153.57640772 0 30852
0.17050000 0.17049200 7977.31516118 0 15.54503758 0 2471.85836798 0 1.34675254 0 431.82002503 0 31257
0.17150000 0.17149500 7932.42121304 0 135.94946410 0 2498.12248102 0 202.28969174 0 136.56350170 0 32608
0.17250000 0.17250900 7927.63193939 0 201.69542637 0 2742.96860386 0 -195.37710022 0 159.69481464 0 32361
0.17350000 0.17350400 7651.51273841 0 103.54376668 0 2391.49523497 0 225.93288577 0 585.31514691 0 32508
0.17450000 0.17449800 7705.67766581 0 -89.38750861 0 2591.13984164 0 123.69507492 0 343.23823482 0 32791
0.17550000 0.17549800 7539.87652727 0 70.84280395 0 2373.26084449 0 -85.00125893 0 285.97785487 0 33633
0.17650000 0.17650100 7571.95147921 0 68.97916136 0 2404.01764772 0 -16.06955092 0 320.42876986 0 33984
0.17750000 0.17750300 7426.29604678 0 -28.98004861 0 2233.67988070 0 270.29957442 0 181.24325068 0 34069
0.17850000 0.17849800 7536.82281609 0 62.38600121 0 2211.72172011 0 327.37101973 0 457.76448701 0 34536
