### header ###
fiducial parameters:
Omega_m = 0.31
Omega_nu = 0
Omega_de = 0.69
Omega_k = 0
H_0 = 100
w_de = -1
zeff = 0
beta = 0
fgrowth = 0
b_1 = 2
gamma = 0.55
Lx = 3500 Ly = 3500 Lz = 3500
nx = 700 ny = 700 nz = 700
xoffset = -983.599254 yoffset = -42.9823471 zoffset = 800.977702
bins = 400 dk = 0.001
kx_ny = 0.628318531 ky_ny = 0.628318531 kz_ny = 0.628318531
############################
A(data) = 9.03861236 (not used)
A(ran) = 9.04483509 (used)
Ngal = 502379
weighted Ngal = 0
Nran = 25229228
weighted Nran = 0
SN(data) = 6733.09153
SN(ran) = 134.264346
SN(data+ran) = 6867.35587
############################
13 columns: k_central k_mean P_0(k) sigma^{lin}_{P_0(k)} P^img_1(k) sigma^{lin}_{P_1(k)} P_2(k) sigma^{lin}_{P_2(k)} P^img_3(k) sigma^{lin}_{P_3(k)} P_4(k) sigma^{lin}_{P_4(k)} N_modes
### header ###
0.00050000 0 0 0 0 0 0 0 0 0 0 0 0
0.00150000 0.00179520 5195.68086183 0 -10461.02588297 0 -20323.21680710 0 9483.60763011 0 8261.99134419 0 3
0.00250000 0.00253879 19422.37200970 0 -7388.01481133 0 1612.96365327 0 -176.47374926 0 23863.65439579 0 6
0.00350000 0.00331552 20128.24064378 0 2177.81234455 0 9580.38171455 0 -12557.34368354 0 22417.53541546 0 7
0.00450000 0.00420575 35952.61590446 0 -6963.39517363 0 11554.67189831 0 14733.71704908 0 37023.39203969 0 24
0.00550000 0.00557378 62437.40900961 0 -27253.71318584 0 -6520.14570083 0 2499.57244460 0 -31828.34828307 0 45
0.00650000 0.00659388 76712.52015342 0 -14548.84669254 0 9312.52291216 0 -33807.10918787 0 -4745.79670719 0 40
0.00750000 0.00754703 78719.95079266 0 25185.53786023 0 9474.24877427 0 -15086.98090330 0 -4598.98789464 0 57
0.00850000 0.00846663 85012.24350443 0 11771.06797817 0 47279.68745889 0 -31897.11170743 0 28038.34120533 0 75
0.00950000 0.00948925 72203.02357160 0 -1249.96746775 0 47427.21026866 0 28225.73801357 0 -16713.13702824 0 112
0.01050000 0.01054430 85983.60925780 0 -8646.57221484 0 47371.51848567 0 21826.67525631 0 -16173.57482304 0 105
0.01150000 0.01145670 76566.97456672 0 -2295.35825574 0 39462.40653565 0 2557.39523467 0 18441.33983246 0 144
0.01250000 0.01249090 82571.69116831 0 10724.23821117 0 40040.63443633 0 5335.00918045 0 -11414.72844363 0 169
0.01350000 0.01339930 71636.98854649 0 1891.18090761 0 39028.73561014 0 -6581.48355412 0 16149.40876336 0 180
0.01450000 0.01448870 70815.78190031 0 3919.37238903 0 52267.23263945 0 15226.37512935 0 9481.50957675 0 267
0.01550000 0.01550050 75838.36786740 0 -1571.57378379 0 40040.08520771 0 10317.61130335 0 21010.63135924 0 238
0.01650000 0.01653350 77756.16439438 0 -3336.45407586 0 22577.36094652 0 25110.07384660 0 -820.44871067 0 315
0.01750000 0.01747870 79473.05308884 0 -5823.07570939 0 29668.89115930 0 -2265.73286349 0 -165.21566082 0 297
0.01850000 0.01844180 75643.06216690 0 5771.22852680 0 26374.72768789 0 -9093.19395142 0 3990.88195654 0 388
0.01950000 0.01947590 72827.49652285 0 9209.74026651 0 31130.38854125 0 -7093.96878790 0 14101.22535985 0 399
0.02050000 0.02045430 64748.67292645 0 2060.12363391 0 37320.74441947 0 -6661.61601110 0 -8106.25207414 0 462
0.02150000 0.02154770 66851.55950143 0 -2329.26763130 0 31355.68212490 0 13354.27442432 0 4265.54020936 0 571
0.02250000 0.02255340 64142.32451996 0 -3005.52185770 0 23586.40378384 0 12161.13015053 0 -4918.16662014 0 510
0.02350000 0.02348930 65714.43654781 0 4200.61040083 0 14254.78968453 0 12942.90218115 0 6472.73628556 0 555
0.02450000 0.02439640 71767.70496021 0 1333.17560505 0 24197.80509372 0 555.94679366 0 2948.44601857 0 592
0.02550000 0.02547300 64209.87964134 0 3114.90623146 0 17166.90972157 0 -9805.70825191 0 4472.63235624 0 837
0.02650000 0.02652900 59316.80178498 0 -190.50763919 0 25493.76496686 0 -2181.48119179 0 -7753.12003479 0 723
0.02750000 0.02749970 57689.21766560 0 838.45791742 0 19611.08696665 0 -833.93117506 0 -8720.91580207 0 826
0.02850000 0.02848090 58275.02492136 0 -5.06987455 0 22217.72604020 0 992.08485417 0 -12570.08578773 0 831
0.02950000 0.02946900 60155.58374729 0 2070.37224013 0 23902.64962845 0 2713.29927332 0 -4799.20369908 0 996
0.03050000 0.03053250 61577.20713077 0 32.31738145 0 22527.05160409 0 -2307.07879469 0 -17178.11398561 0 1041
0.03150000 0.03150510 52845.13100296 0 1052.45167125 0 21843.70134381 0 3765.84101806 0 -1080.81932994 0 1036
0.03250000 0.03246190 55011.83794462 0 892.01429950 0 21528.88349363 0 5305.42772649 0 948.73533694 0 1059
0.03350000 0.03345080 55212.30639423 0 -2339.07685462 0 18358.07677230 0 4717.65423224 0 3372.93384140 0 1302
0.03450000 0.03451200 58342.03081411 0 3444.23470203 0 18821.62573523 0 2278.83745858 0 -4267.87992332 0 1339
0.03550000 0.03553350 53873.06730512 0 3712.03858156 0 19259.58064405 0 -3589.67044300 0 5102.04836515 0 1365
0.03650000 0.03647120 47894.82352345 0 1192.85867490 0 21654.21746678 0 -5188.57384337 0 5234.70904821 0 1308
0.03750000 0.03744890 47276.83147002 0 1612.70002353 0 27441.10999408 0 2410.95989759 0 4953.10854552 0 1579
0.03850000 0.03847530 46724.19762345 0 -302.66122371 0 23141.30890284 0 9721.24787334 0 9729.79387080 0 1662
0.03950000 0.03950240 47232.01441389 0 -1143.32923713 0 19723.23945271 0 4563.34295661 0 7104.49200844 0 1683
0.04050000 0.04050350 46983.43353637 0 1044.16271278 0 17110.22932706 0 5172.47045997 0 11277.97051499 0 1822
0.04150000 0.04152450 43374.01283187 0 4019.89221272 0 14765.35261812 0 -3229.34350862 0 9239.46451992 0 1887
0.04250000 0.04250150 40626.55153782 0 1894.05886563 0 18885.99533056 0 -1292.30201048 0 14484.69678866 0 1920
0.04350000 0.04349210 38584.62934068 0 1168.23126317 0 20408.01770743 0 1529.76650054 0 8860.99107163 0 2005
0.04450000 0.04448520 37232.75799309 0 153.02278526 0 17782.59501476 0 2400.54652278 0 11367.27509008 0 2151
0.04550000 0.04548030 36529.30596498 0 -442.92542791 0 18681.79212627 0 346.50834208 0 4126.58536621 0 2274
0.04650000 0.04648670 38571.55769931 0 645.39966047 0 15555.80246107 0 304.59780385 0 8025.25183592 0 2311
0.04750000 0.04749250 36352.67403787 0 -111.27042488 0 17406.48324957 0 760.39385546 0 7854.82619232 0 2568
0.04850000 0.04851840 37687.84883514 0 -258.96129861 0 17265.33149190 0 -882.71805572 0 3591.99917239 0 2493
0.04950000 0.04949480 37923.79745418 0 1325.61821912 0 15942.45941593 0 2106.56640679 0 -334.83174142 0 2644
0.05050000 0.05050630 37339.08865568 0 -870.07591114 0 17287.52032852 0 682.59452169 0 1062.24441771 0 2829
0.05150000 0.05149060 37433.22644270 0 -860.46111476 0 12646.09903000 0 2325.98324410 0 2322.51211916 0 2784
0.05250000 0.05249300 37959.49731507 0 405.33402362 0 13428.85967214 0 1837.94966888 0 -62.13533326 0 3055
0.05350000 0.05348950 37906.55167523 0 218.95987909 0 11090.68355248 0 1531.42517100 0 404.03564714 0 3009
0.05450000 0.05448610 37407.85208004 0 1170.83460687 0 10017.29308898 0 309.87479252 0 1167.30855907 0 3336
0.05550000 0.05550870 34631.17182293 0 1960.07614684 0 13050.11160954 0 -2951.30200744 0 1046.41235324 0 3349
0.05650000 0.05647670 33290.72443083 0 1126.06148903 0 13426.99229480 0 975.36963007 0 2985.18941385 0 3324
0.05750000 0.05747970 33143.53115824 0 -572.54558129 0 14448.77723632 0 806.36319325 0 1144.05421892 0 3639
0.05850000 0.05849280 32799.27465354 0 399.82416202 0 13180.71817753 0 1247.14443260 0 2596.69803537 0 3846
0.05950000 0.05951020 32571.12508102 0 -254.89700675 0 13774.32447983 0 -465.19445191 0 2738.57477483 0 3787
0.06050000 0.06049470 32152.28332849 0 840.80861595 0 13875.27270185 0 -582.12522703 0 3683.16014024 0 3930
0.06150000 0.06148310 32870.12514669 0 428.95854387 0 14892.55396861 0 1163.85940328 0 2361.04599978 0 4083
0.06250000 0.06249100 32719.85619377 0 -240.87080602 0 13461.37400698 0 -609.14507867 0 1291.39029095 0 4303
0.06350000 0.06350600 31805.39052638 0 1278.30766501 0 16241.12994442 0 551.15422464 0 1484.14757061 0 4470
0.06450000 0.06451750 31518.80302773 0 -535.03546283 0 14337.83305325 0 1538.55415861 0 2046.60162507 0 4479
0.06550000 0.06550280 31088.75701117 0 90.79078776 0 13624.27521837 0 1021.53229635 0 1554.45981970 0 4636
0.06650000 0.06648880 30705.72496526 0 1010.36428140 0 11913.64773027 0 666.42742777 0 110.55313229 0 4653
0.06750000 0.06749660 28868.44535530 0 900.20549527 0 11695.49411881 0 1245.17819410 0 2821.23368350 0 5220
0.06850000 0.06852730 28458.06172366 0 1049.80109389 0 11574.66382041 0 -294.06030337 0 -1048.16329411 0 5029
0.06950000 0.06949320 26541.91288257 0 712.00132095 0 11726.80015066 0 -491.17406452 0 1689.76778476 0 5040
0.07050000 0.07048030 26823.11794066 0 -630.47052788 0 10224.36326671 0 2830.46072447 0 -432.40769966 0 5475
0.07150000 0.07148790 25997.29777399 0 -229.41938910 0 8474.69660766 0 439.06984294 0 624.85850975 0 5509
0.07250000 0.07249820 26951.63743986 0 118.43126774 0 7591.60287956 0 1415.69171428 0 -1416.90001727 0 5916
0.07350000 0.07351270 26598.92281427 0 593.60630230 0 6464.69557844 0 -766.54192073 0 -1943.33565823 0 5721
0.07450000 0.07449140 26122.41205569 0 -733.94739851 0 6361.55044190 0 2043.78957448 0 1989.50381679 0 6028
0.07550000 0.07549160 26438.65790031 0 -295.62121114 0 5471.27280332 0 1356.35305320 0 -515.12262966 0 6183
0.07650000 0.07648840 26439.20712894 0 711.46087998 0 5665.48004656 0 -725.01694100 0 625.71640487 0 6330
0.07750000 0.07749960 26136.25261714 0 972.54110263 0 6082.58623662 0 -452.89612444 0 432.62519420 0 6583
0.07850000 0.07848650 24582.37497979 0 45.17548274 0 6589.65607612 0 -1155.01682236 0 2596.32455990 0 6549
0.07950000 0.07947320 25239.25242015 0 128.58540664 0 7349.14040897 0 1614.85299976 0 1147.37155984 0 6828
0.08050000 0.08048110 24423.20852308 0 351.62056216 0 7034.97064857 0 -196.74797488 0 1206.65529806 0 7147
0.08150000 0.08149960 24309.18865969 0 1337.80011011 0 8573.72252948 0 -1278.34061873 0 902.71547011 0 7386
0.08250000 0.08250610 23400.76450721 0 421.69664294 0 8707.34985493 0 -147.17789419 0 2499.90198178 0 7227
0.08350000 0.08350160 22698.85031927 0 -128.52169612 0 10107.81695162 0 317.31793890 0 2559.02095141 0 7798
0.08450000 0.08449610 22211.35498811 0 375.75476658 0 9242.15574020 0 493.30177623 0 1248.19895156 0 7371
0.08550000 0.08548940 21709.36002114 0 147.31190597 0 8822.98445050 0 108.81811905 0 2177.91120570 0 8256
0.08650000 0.08650700 22406.00161425 0 33.11541065 0 7988.14594974 0 603.13651747 0 1071.19025362 0 8037
0.08750000 0.08749060 21785.15357195 0 788.27709450 0 9220.14265675 0 198.87678504 0 1580.50424129 0 8155
0.08850000 0.08849210 20714.70697390 0 431.27299332 0 8488.21861651 0 -184.11571641 0 1197.76877884 0 8718
0.08950000 0.08949900 20356.82959920 0 350.69016886 0 9176.69867219 0 252.49138535 0 2531.46065881 0 8571
0.09050000 0.09049190 20048.71233829 0 343.68420847 0 8318.53992384 0 503.95241780 0 1082.16603854 0 8932
0.09150000 0.09150830 19330.87052010 0 139.93686394 0 7509.50418408 0 1637.19562039 0 2675.21576018 0 9285
0.09250000 0.09250820 19605.04545173 0 63.23225268 0 8293.12162289 0 293.07279030 0 2723.72363270 0 9204
0.09350000 0.09350330 19137.43219694 0 -82.27895231 0 6243.79582382 0 819.96209411 0 2874.08046219 0 9349
0.09450000 0.09448040 19077.45643065 0 560.52955734 0 7151.02265789 0 -64.65651236 0 2797.28731527 0 9564
0.09550000 0.09549270 18724.19257643 0 310.23069267 0 6908.92267820 0 320.83410058 0 3006.37865436 0 10155
0.09650000 0.09649430 18433.76047738 0 -159.18622893 0 6138.84921738 0 352.27743960 0 3147.12398285 0 9913
0.09750000 0.09749140 18166.72551793 0 4.21876790 0 6231.99839287 0 647.48453235 0 2449.15325645 0 10476
0.09850000 0.09850240 17699.22210887 0 486.94829945 0 6349.77498009 0 -40.00603303 0 2829.04371461 0 10575
0.09950000 0.09950330 17602.55787015 0 209.33959043 0 6193.35466653 0 -652.47921750 0 2052.90676973 0 10882
0.10050000 0.10051200 17484.80325208 0 363.90131430 0 6187.68662708 0 -151.33116108 0 1354.33189184 0 10875
0.10150000 0.10150300 17468.43623893 0 -27.68463797 0 6480.43647094 0 759.50080971 0 1427.47816066 0 11118
0.10250000 0.10250800 17277.30467602 0 -51.24259171 0 5950.67250449 0 -239.01331480 0 805.75135256 0 11575
0.10350000 0.10349800 17040.03790826 0 434.30143998 0 6297.98272037 0 -66.78026963 0 462.88879012 0 11364
0.10450000 0.10450100 16502.12338895 0 364.26819903 0 6147.59293716 0 -225.42649697 0 361.63629544 0 12093
0.10550000 0.10551000 16384.69830806 0 235.91566533 0 6331.94701879 0 339.73635308 0 1295.98184229 0 12067
0.10650000 0.10649700 15973.98513924 0 -51.23666004 0 5581.61283490 0 920.58297587 0 761.64389982 0 12054
0.10750000 0.10749900 15983.65156311 0 29.59782097 0 5817.03419447 0 428.50927486 0 1249.79171459 0 12807
0.10850000 0.10850100 15536.46961333 0 136.26472133 0 5170.75686664 0 233.34747226 0 788.66704682 0 12736
0.10950000 0.10950300 15331.60733468 0 377.97474869 0 5086.06581204 0 -1.10413628 0 1669.70995523 0 12933
0.11050000 0.11050200 15095.10948701 0 259.14583942 0 5178.25932972 0 136.73266412 0 1049.89336429 0 13428
0.11150000 0.11150900 14713.50543553 0 335.19313386 0 5153.39025739 0 -460.73910927 0 179.80097630 0 13453
0.11250000 0.11250000 14319.37897131 0 440.00133469 0 5341.73173887 0 88.34584159 0 1105.20178570 0 13668
0.11350000 0.11349100 13889.11326330 0 45.90474851 0 5185.33339446 0 296.53183221 0 -93.26176736 0 13791
0.11450000 0.11448600 13961.61144234 0 -27.64740027 0 5514.73875703 0 27.02699161 0 249.91989691 0 14205
0.11550000 0.11549300 14027.07949492 0 90.83362759 0 4616.36548846 0 578.31028498 0 218.06793180 0 14776
0.11650000 0.11649800 13748.29104281 0 -257.98037627 0 4806.31071754 0 -384.16785072 0 122.93494250 0 14553
0.11750000 0.11747300 13540.35308384 0 341.00946504 0 4456.52897283 0 190.55267594 0 -131.08879073 0 14568
0.11850000 0.11849100 13847.70142467 0 355.88037940 0 4690.48938424 0 117.40750558 0 198.04525290 0 16015
0.11950000 0.11950300 13422.15908287 0 55.03215940 0 4826.98368314 0 129.50701228 0 -55.28150920 0 15270
0.12050000 0.12050700 13299.90079004 0 40.48210441 0 4688.33640802 0 135.37497095 0 -91.15097189 0 15999
0.12150000 0.12150000 13373.38758061 0 -221.45118015 0 4202.78534620 0 400.90943779 0 652.42429464 0 15670
0.12250000 0.12250700 13119.42426253 0 180.77311097 0 4289.14605584 0 247.07708953 0 145.66312163 0 16887
0.12350000 0.12352200 13145.12816237 0 343.98298884 0 4123.25704071 0 -446.33394078 0 272.99299162 0 16407
0.12450000 0.12449800 12735.29375936 0 262.93112314 0 4672.03530230 0 5.49554871 0 102.29932445 0 16306
0.12550000 0.12549900 12648.73532742 0 87.98961190 0 4847.43695728 0 389.44264247 0 598.11327243 0 17523
0.12650000 0.12650100 12758.36136178 0 -75.58660146 0 4300.77871820 0 425.10515581 0 181.72876879 0 17154
0.12750000 0.12750600 12188.70142771 0 200.50030487 0 4600.54770395 0 -199.83793514 0 705.82030196 0 18007
0.12850000 0.12850300 12395.43108369 0 137.49828883 0 3995.73713762 0 -210.25680224 0 631.15047292 0 17496
0.12950000 0.12949900 12359.40168562 0 -269.90303135 0 4485.28658385 0 1114.74737927 0 1070.34773690 0 18405
0.13050000 0.13049000 12407.73380498 0 -29.74600286 0 3825.03687970 0 277.30004253 0 760.83543527 0 18100
0.13150000 0.13148800 12136.74439940 0 307.91184940 0 3606.11434816 0 -462.99534047 0 481.18139884 0 19059
0.13250000 0.13249300 12170.24734577 0 288.14181567 0 4166.23967322 0 2.97075569 0 1097.71360257 0 18957
0.13350000 0.13349100 11826.86960688 0 -64.05829254 0 4038.74173927 0 -12.63610307 0 737.12853073 0 19468
0.13450000 0.13450700 11794.90450067 0 -43.76627192 0 3688.44371965 0 437.47048917 0 519.62410750 0 19953
0.13550000 0.13551000 11914.41665035 0 344.13677286 0 3946.17474613 0 -451.78558416 0 -291.57778997 0 19956
0.13650000 0.13649900 11407.58847145 0 237.63694785 0 3852.56421859 0 -366.83089981 0 85.62254636 0 19723
0.13750000 0.13749600 11316.63621048 0 34.02965663 0 4332.09573463 0 102.61326353 0 110.53445851 0 20946
0.13850000 0.13851100 11362.33203242 0 61.09816992 0 4067.36753542 0 156.75204765 0 -401.44878030 0 20955
0.13950000 0.13949800 11229.30885846 0 -72.98215930 0 3772.40979247 0 339.33102235 0 -114.74594364 0 20506
0.14050000 0.14048300 11388.80485234 0 63.08967293 0 3603.56592732 0 510.30150075 0 -733.40256371 0 21447
0.14150000 0.14148400 11291.26184781 0 155.10216485 0 3682.87454136 0 -397.04286824 0 -497.98669643 0 21771
0.14250000 0.14249400 10764.99097544 0 312.51987760 0 3757.91015666 0 -183.77519466 0 -268.94627508 0 22470
0.14350000 0.14350900 10697.63357637 0 6.75449057 0 3560.87987827 0 142.23813190 0 2.45509591 0 22519
0.14450000 0.14449900 10812.31251412 0 -155.26253961 0 3125.89080405 0 777.27604506 0 -255.89550440 0 22218
0.14550000 0.14550500 10568.43303367 0 122.17371162 0 3083.13884756 0 255.13976580 0 -438.56784797 0 23559
0.14650000 0.14650700 10568.50992568 0 234.37562825 0 2939.48260734 0 -173.28712476 0 -91.43536248 0 23044
0.14750000 0.14750500 10343.77655524 0 215.97317381 0 2774.56023460 0 -232.49836480 0 -295.23125881 0 23649
0.14850000 0.14849900 10217.46495513 0 46.03282863 0 2924.36783547 0 303.70695502 0 -381.94347477 0 23640
0.14950000 0.14949500 10239.24736255 0 -50.62712611 0 2709.92700954 0 166.65793520 0 -444.18535839 0 24457
0.15050000 0.15050000 10093.86654444 0 18.87358276 0 2674.58963954 0 416.82278809 0 -202.71040087 0 24591
0.15150000 0.15149900 9959.99755839 0 193.68767296 0 2731.23708034 0 -119.50116511 0 -274.03432910 0 25020
0.15250000 0.15250500 9691.46869707 0 217.53408157 0 2451.27327896 0 -1.88577650 0 754.18757195 0 25297
0.15350000 0.15350100 9493.07633168 0 57.58211808 0 2788.64245665 0 334.61644380 0 258.35824557 0 25452
0.15450000 0.15450400 9619.36596264 0 211.44423453 0 2668.95455381 0 81.81485412 0 208.70797750 0 26061
0.15550000 0.15549900 9390.55731577 0 81.64349479 0 2762.76280365 0 -205.23245874 0 808.42170215 0 26128
0.15650000 0.15649500 9109.41816513 0 -8.32522953 0 2839.01770651 0 134.68623825 0 1170.70279200 0 26331
0.15750000 0.15749700 9288.19208389 0 60.87078927 0 2696.93226017 0 78.36679678 0 498.12839742 0 27345
0.15850000 0.15849900 9042.48916439 0 123.09861263 0 2764.37753582 0 -23.31914913 0 527.66920846 0 26980
0.15950000 0.15949700 9216.78137754 0 74.46628491 0 2501.03339276 0 -125.85793727 0 -28.99312025 0 27777
0.16050000 0.16050000 8992.05899167 0 170.20924752 0 2698.97539067 0 58.85632850 0 216.99583752 0 28224
0.16150000 0.16150500 8748.68480156 0 -25.10655878 0 2372.28321753 0 243.55982939 0 202.45446033 0 28075
0.16250000 0.16249700 8762.10794925 0 -10.91229409 0 2221.17943710 0 273.15776021 0 115.34570130 0 28590
0.16350000 0.16349900 8735.44839160 0 204.16146291 0 2142.73860430 0 -3.65207380 0 -266.84822172 0 29163
0.16450000 0.16449100 8547.28266328 0 199.12393793 0 2010.42942756 0 -146.50234297 0 97.33550595 0 28996
0.16550000 0.16550500 8310.03786467 0 -32.11416686 0 2167.04746342 0 88.71283616 0 -67.22338728 0 30777
0.16650000 0.16650700 8217.76745498 0 132.14440815 0 2132.83051983 0 -118.51035667 0 -193.30321291 0 29211
0.16750000 0.16749900 8335.66487250 0 61.13079410 0 1975.53144046 0 3.19574170 0 -110.58059372 0 30922
0.16850000 0.16850800 8257.75129918 0 -23.65242107 0 2220.63020847 0 281.16551362 0 -5.86907910 0 30867
0.16950000 0.16949900 8300.47030195 0 -69.77158843 0 1947.24616607 0 297.15026364 0 257.33777878 0 30852
0.17050000 0.17049200 8200.76333663 0 29.84804954 0 1839.94886109 0 295.02035502 0 587.48240308 0 31257
0.17150000 0.17149500 8179.71689556 0 196.38328707 0 1929.03374473 0 -47.32977711 0 673.80137134 0 32608
0.17250000 0.17250900 8243.09787935 0 83.95827377 0 1917.58782010 0 -52.66685139 0 1213.53164050 0 32361
0.17350000 0.17350400 8060.00702357 0 -46.25669421 0 1985.62626267 0 166.81721151 0 743.97521482 0 32508
0.17450000 0.17449800 7945.54777727 0 91.02344100 0 2069.86694979 0 52.24724072 0 776.86851741 0 32791
0.17550000 0.17549800 7822.39973406 0 212.63825757 0 2047.06297711 0 -419.19106193 0 782.44977874 0 33633
0.17650000 0.17650100 7695.06656870 0 129.36531129 0 2390.18807084 0 -146.36503582 0 818.64833923 0 33984
0.17750000 0.17750300 7600.79696681 0 121.43664680 0 2485.25954653 0 1.23877419 0 253.59423644 0 34069
0.17850000 0.17849800 7625.92966887 0 -30.42166392 0 2099.59120320 0 88.59596031 0 96.73113476 0 34536
