### header ###
fiducial parameters:
Omega_m = 0.31
Omega_nu = 0
Omega_de = 0.69
Omega_k = 0
H_0 = 100
w_de = -1
zeff = 0
beta = 0
fgrowth = 0
b_1 = 2
gamma = 0.55
Lx = 3500 Ly = 3500 Lz = 3500
nx = 700 ny = 700 nz = 700
xoffset = -983.599254 yoffset = -42.9823471 zoffset = 800.977702
bins = 400 dk = 0.001
kx_ny = 0.628318531 ky_ny = 0.628318531 kz_ny = 0.628318531
############################
A(data) = 9.01851375 (not used)
A(ran) = 9.03204441 (used)
Ngal = 501544
weighted Ngal = 0
Nran = 25229228
weighted Nran = 0
SN(data) = 6749.42015
SN(ran) = 134.074477
SN(data+ran) = 6883.49463
############################
13 columns: k_central k_mean P_0(k) sigma^{lin}_{P_0(k)} P^img_1(k) sigma^{lin}_{P_1(k)} P_2(k) sigma^{lin}_{P_2(k)} P^img_3(k) sigma^{lin}_{P_3(k)} P_4(k) sigma^{lin}_{P_4(k)} N_modes
### header ###
0.00050000 0 0 0 0 0 0 0 0 0 0 0 0
0.00150000 0.00179520 66786.53083174 0 -21490.54733532 0 -10706.31138871 0 19820.67261150 0 21053.91057521 0 3
0.00250000 0.00253879 75696.11765247 0 -6252.44068245 0 -24566.99657817 0 -39799.85260535 0 -14082.99096936 0 6
0.00350000 0.00331552 73358.71045289 0 -627.04993198 0 -1829.35973312 0 -21030.40358988 0 63777.41701881 0 7
0.00450000 0.00420575 72756.75587543 0 -5074.44413425 0 25993.01379068 0 -47035.93979331 0 -36743.39528459 0 24
0.00550000 0.00557378 64374.42853861 0 13656.24032458 0 26940.43317582 0 3951.94164674 0 36990.43832195 0 45
0.00650000 0.00659388 60619.57209313 0 14387.15378414 0 48106.38639136 0 5862.82887756 0 18535.25792803 0 40
0.00750000 0.00754703 46537.35004384 0 -7760.35886812 0 26157.56268795 0 22461.14416860 0 6080.72984385 0 57
0.00850000 0.00846663 64292.59347288 0 1000.74838657 0 45522.15584588 0 42522.48876536 0 -11577.51980928 0 75
0.00950000 0.00948925 80963.22020523 0 -7548.80698478 0 25567.91083179 0 12472.54278321 0 23727.00631288 0 112
0.01050000 0.01054430 69661.08363056 0 -9512.51902514 0 26540.59473386 0 -2323.44580783 0 9004.89995702 0 105
0.01150000 0.01145670 85054.09472597 0 -2322.17159741 0 21325.99843805 0 3318.57119169 0 26344.62995901 0 144
0.01250000 0.01249090 96925.67154326 0 4109.35057183 0 22981.26368033 0 8416.11588208 0 1234.45725126 0 169
0.01350000 0.01339930 87674.79405243 0 3152.26476281 0 14902.44008393 0 -1392.49229699 0 13232.89489729 0 180
0.01450000 0.01448870 82058.60178304 0 3353.55705537 0 42998.34044959 0 -9535.42185898 0 7781.96552239 0 267
0.01550000 0.01550050 74253.95311827 0 9836.20142540 0 30874.44800011 0 -96.24671511 0 14787.54145473 0 238
0.01650000 0.01653350 81196.42268113 0 7130.69021404 0 60204.13555810 0 8004.71068519 0 2977.53316676 0 315
0.01750000 0.01747870 73826.87293630 0 -3390.91558672 0 45323.55477361 0 2860.98685167 0 11982.63084608 0 297
0.01850000 0.01844180 71003.39840000 0 -1297.21211442 0 44959.52603826 0 12797.24674872 0 16420.39816895 0 388
0.01950000 0.01947590 68813.18447300 0 -2349.49022942 0 34343.15632984 0 14645.84046843 0 19687.21005464 0 399
0.02050000 0.02045430 80365.54961107 0 703.73872545 0 37058.10328905 0 25744.54275889 0 44046.59821102 0 462
0.02150000 0.02154770 83299.74863900 0 -6810.78650676 0 8794.57834580 0 21705.62526646 0 30411.66795726 0 571
0.02250000 0.02255340 85967.24224466 0 -353.43521355 0 14852.57012441 0 1038.35736617 0 31366.88638893 0 510
0.02350000 0.02348930 77905.11519858 0 9239.91488739 0 9935.40310038 0 -11117.92529248 0 30247.11905999 0 555
0.02450000 0.02439640 72820.24670495 0 4343.19015294 0 18342.25898778 0 -4512.20977125 0 33192.19281477 0 592
0.02550000 0.02547300 68220.45693651 0 -119.54620186 0 19176.86681251 0 -2679.70845036 0 12291.51702707 0 837
0.02650000 0.02652900 69485.44031498 0 3055.99596871 0 25278.46734427 0 3450.40803182 0 4470.40248800 0 723
0.02750000 0.02749970 63831.46111591 0 3281.71795068 0 19025.16986516 0 -1119.67945236 0 6126.76618754 0 826
0.02850000 0.02848090 61795.47058796 0 397.52948480 0 19704.45583359 0 1283.33859925 0 4561.67330158 0 831
0.02950000 0.02946900 57791.48403633 0 -647.15829054 0 12563.49504419 0 8416.56624956 0 1349.09225072 0 996
0.03050000 0.03053250 59255.72756143 0 784.85869551 0 9935.52393068 0 3099.95622818 0 889.17149211 0 1041
0.03150000 0.03150510 59865.26149397 0 941.48332212 0 10590.47907084 0 -4269.23102575 0 -5891.97094862 0 1036
0.03250000 0.03246190 53535.40154397 0 4410.74527431 0 11857.40671866 0 -8931.50104303 0 -9493.90017462 0 1059
0.03350000 0.03345080 53781.56581551 0 4125.25623292 0 19510.24859035 0 -4503.24636002 0 -7558.72605382 0 1302
0.03450000 0.03451200 49888.08406406 0 -585.53703528 0 17073.98023754 0 29.36011482 0 -13397.11425738 0 1339
0.03550000 0.03553350 48923.30905424 0 740.36897964 0 23389.99962608 0 1738.70405561 0 -9408.30838507 0 1365
0.03650000 0.03647120 47184.56106034 0 930.60420143 0 19728.62189327 0 2608.38562059 0 -4761.35086196 0 1308
0.03750000 0.03744890 46593.81074691 0 412.17851080 0 17638.47742249 0 6665.14205890 0 -5812.37673569 0 1579
0.03850000 0.03847530 47312.20179373 0 479.95002825 0 18831.40200483 0 2301.86112271 0 803.72799429 0 1662
0.03950000 0.03950240 46065.01342285 0 577.38538396 0 16676.22886437 0 482.18319186 0 4402.89130492 0 1683
0.04050000 0.04050350 45758.21431065 0 775.14174260 0 17212.93508069 0 2917.72216906 0 5202.96363345 0 1822
0.04150000 0.04152450 46385.21371359 0 643.75417150 0 17587.17946854 0 -2406.85166744 0 3070.53954281 0 1887
0.04250000 0.04250150 41696.22921579 0 1063.80093164 0 14115.50530420 0 968.04621553 0 7993.22082227 0 1920
0.04350000 0.04349210 41508.61271611 0 464.77923506 0 19167.52992581 0 5245.11143845 0 3963.05803419 0 2005
0.04450000 0.04448520 42383.86345939 0 240.15241497 0 16387.55429693 0 -228.19460926 0 11366.83570717 0 2151
0.04550000 0.04548030 43169.37024468 0 -24.56919349 0 14946.70791143 0 362.03613388 0 -876.58536885 0 2274
0.04650000 0.04648670 41352.52193972 0 1390.85559568 0 15278.22231194 0 -1299.92530385 0 3255.13528504 0 2311
0.04750000 0.04749250 40768.91159848 0 760.42021843 0 17131.10001496 0 -983.32905137 0 3197.34544869 0 2568
0.04850000 0.04851840 39929.03117891 0 81.98017193 0 18799.10736144 0 -1313.68897329 0 -5521.47230002 0 2493
0.04950000 0.04949480 38899.88657376 0 1986.82358108 0 18789.00155466 0 -3789.91920116 0 -2222.45364752 0 2644
0.05050000 0.05050630 36648.15904031 0 677.15935518 0 20636.49681712 0 1615.08367578 0 -2977.30249074 0 2829
0.05150000 0.05149060 36854.44931339 0 -202.60714589 0 17786.98884379 0 4390.59956820 0 -2504.10907308 0 2784
0.05250000 0.05249300 36998.56690566 0 -513.30797827 0 16445.11345725 0 3236.76907968 0 -1534.02851470 0 3055
0.05350000 0.05348950 37837.67840515 0 701.77029005 0 15834.92045036 0 1525.03214976 0 -573.86482845 0 3009
0.05450000 0.05448610 34656.98556849 0 1373.32421784 0 15942.23972448 0 -1666.77707435 0 41.17468171 0 3336
0.05550000 0.05550870 34298.88850234 0 698.69900355 0 15002.28984870 0 1994.73247334 0 3616.30803151 0 3349
0.05650000 0.05647670 34147.74078362 0 -126.82897348 0 15462.98282276 0 2659.01351562 0 1015.18431185 0 3324
0.05750000 0.05747970 33548.09296641 0 555.64361945 0 12870.51384783 0 2107.92849379 0 4375.73744150 0 3639
0.05850000 0.05849280 33157.92094832 0 419.55794666 0 13297.92356697 0 619.36512500 0 5319.45502568 0 3846
0.05950000 0.05951020 33855.55115296 0 -373.83466329 0 10867.23537703 0 447.79488894 0 1214.61911318 0 3787
0.06050000 0.06049470 32472.37377352 0 398.43571204 0 12357.53430829 0 461.80680972 0 3973.95473019 0 3930
0.06150000 0.06148310 32038.15361937 0 301.86484219 0 10830.40410516 0 227.80355848 0 3274.46813278 0 4083
0.06250000 0.06249100 32304.96888738 0 35.49829398 0 11898.59886584 0 29.36461850 0 2712.50838409 0 4303
0.06350000 0.06350600 32248.83772148 0 243.17646781 0 10994.01931376 0 1920.88319187 0 3886.34177928 0 4470
0.06450000 0.06451750 30693.75178114 0 1259.50207675 0 11199.10128386 0 -267.79509188 0 671.81316370 0 4479
0.06550000 0.06550280 30574.01994001 0 1398.52282734 0 13392.72042835 0 -1044.52080985 0 4985.91946382 0 4636
0.06650000 0.06648880 28892.17203208 0 238.95949039 0 13545.95521586 0 543.06628385 0 2772.25347436 0 4653
0.06750000 0.06749660 28674.01842061 0 -359.38116269 0 12306.56589151 0 2224.28807114 0 4424.33319060 0 5220
0.06850000 0.06852730 29172.71801581 0 -522.51524701 0 11157.57959950 0 2234.21812475 0 4386.98564382 0 5029
0.06950000 0.06949320 29498.41059284 0 121.21036461 0 10312.38264680 0 -950.83448876 0 2655.94881987 0 5040
0.07050000 0.07048030 28828.02212820 0 116.46173388 0 9747.29229493 0 -129.47515702 0 3443.89418028 0 5475
0.07150000 0.07148790 29380.10674614 0 -55.37421899 0 9115.93201667 0 1510.51054481 0 2365.95610372 0 5509
0.07250000 0.07249820 29501.37642744 0 235.22803109 0 7362.11318919 0 1100.93977154 0 736.97145134 0 5916
0.07350000 0.07351270 28579.88063359 0 574.01312018 0 7263.51566570 0 -78.02363874 0 130.50221455 0 5721
0.07450000 0.07449140 27694.41423781 0 567.25870650 0 7239.28369858 0 -1162.61814658 0 557.97454576 0 6028
0.07550000 0.07549160 27508.22573255 0 290.35740396 0 8260.22282801 0 336.55192549 0 -539.47762399 0 6183
0.07650000 0.07648840 27010.29505744 0 327.27765086 0 8170.38000887 0 -964.38066366 0 -1639.61222635 0 6330
0.07750000 0.07749960 25335.80681314 0 900.48010959 0 8048.50617608 0 -1012.66554936 0 -789.81493466 0 6583
0.07850000 0.07848650 25503.10185356 0 32.34407397 0 8744.85118573 0 1026.45668024 0 -1795.05491295 0 6549
0.07950000 0.07947320 25539.57063453 0 311.34892216 0 9249.16389751 0 263.26725106 0 -2836.17270221 0 6828
0.08050000 0.08048110 24784.82065246 0 1030.61543941 0 8961.35711130 0 -1357.87990879 0 -2988.62758507 0 7147
0.08150000 0.08149960 23376.92798471 0 777.28043889 0 9436.20919942 0 -606.27480985 0 -1834.00620733 0 7386
0.08250000 0.08250610 23257.74537220 0 -31.70455215 0 9937.63296862 0 1578.83458626 0 -2002.44364329 0 7227
0.08350000 0.08350160 22643.81761063 0 -68.75771238 0 8739.23806914 0 741.05441697 0 -1646.00524760 0 7798
0.08450000 0.08449610 22735.31910024 0 234.72274075 0 8340.77269875 0 903.27019102 0 -2509.07409989 0 7371
0.08550000 0.08548940 22146.65585560 0 348.78983780 0 7724.45030035 0 555.37339897 0 -681.23792698 0 8256
0.08650000 0.08650700 22746.41351854 0 85.08144631 0 7904.21283065 0 770.38871805 0 -1532.77627343 0 8037
0.08750000 0.08749060 21517.78907532 0 -99.51671252 0 7125.46155749 0 -403.16017671 0 -966.00418349 0 8155
0.08850000 0.08849210 21210.77027167 0 837.09583042 0 7109.01765234 0 305.96098931 0 -1213.25702618 0 8718
0.08950000 0.08949900 20758.42557277 0 621.85752452 0 7119.09050540 0 -928.33808411 0 -1228.44869006 0 8571
0.09050000 0.09049190 19875.04624578 0 693.27921544 0 7883.38608103 0 1007.38416686 0 304.42095223 0 8932
0.09150000 0.09150830 19512.22581342 0 -216.39937522 0 8282.43363377 0 579.89206343 0 355.95946833 0 9285
0.09250000 0.09250820 19509.80920745 0 286.13163889 0 7188.51300411 0 881.64815835 0 497.77359572 0 9204
0.09350000 0.09350330 18888.74147370 0 260.68917187 0 6521.63960270 0 910.42444314 0 892.07691156 0 9349
0.09450000 0.09448040 18597.65030029 0 56.15807809 0 6754.20497339 0 -229.11072262 0 2384.43215480 0 9564
0.09550000 0.09549270 19007.48470330 0 272.16805022 0 6292.24877348 0 1295.42162909 0 933.85893029 0 10155
0.09650000 0.09649430 18373.34532818 0 114.03194642 0 5856.45782546 0 289.64450520 0 2175.87905978 0 9913
0.09750000 0.09749140 17816.86688121 0 101.49448482 0 4998.73846002 0 113.37287207 0 1086.18749056 0 10476
0.09850000 0.09850240 17606.18277910 0 269.88216067 0 5242.98043137 0 458.41037988 0 1662.05370814 0 10575
0.09950000 0.09950330 17116.05115052 0 388.82640795 0 5034.35044433 0 -269.70091522 0 816.31411755 0 10882
0.10050000 0.10051200 16957.32407672 0 551.11797555 0 5384.02234331 0 -335.51717875 0 1231.38157094 0 10875
0.10150000 0.10150300 16189.39260756 0 192.96269116 0 5501.31560933 0 -124.09161799 0 360.84760313 0 11118
0.10250000 0.10250800 15988.92415795 0 151.74747638 0 5499.87663033 0 -177.04604549 0 66.18600425 0 11575
0.10350000 0.10349800 16068.89184634 0 53.36481113 0 5536.55411817 0 568.25500724 0 416.08682172 0 11364
0.10450000 0.10450100 15923.89548827 0 -111.11114857 0 5455.86144799 0 182.26701284 0 45.64155815 0 12093
0.10550000 0.10551000 15822.50788334 0 330.22920551 0 5299.47408815 0 -185.78537144 0 292.85200039 0 12067
0.10650000 0.10649700 15440.02506606 0 255.65384380 0 5259.52319767 0 302.43713842 0 69.12349865 0 12054
0.10750000 0.10749900 15498.35314647 0 -6.92316967 0 5488.76024287 0 115.42808560 0 -43.45079499 0 12807
0.10850000 0.10850100 15603.36566035 0 -3.08711526 0 5114.21927157 0 -166.46021290 0 -199.95986390 0 12736
0.10950000 0.10950300 15544.37850558 0 -163.03961700 0 4850.43574560 0 1250.12125176 0 217.38249447 0 12933
0.11050000 0.11050200 15578.65037204 0 -96.93467889 0 4256.95027360 0 -142.82580653 0 -566.16464307 0 13428
0.11150000 0.11150900 15258.45008129 0 730.20934846 0 4000.32868896 0 -233.82530117 0 -469.55093339 0 13453
0.11250000 0.11250000 14837.52125998 0 64.92805100 0 4733.20838701 0 38.59209885 0 727.03261007 0 13668
0.11350000 0.11349100 15022.39161652 0 112.04703416 0 4540.31929248 0 573.50782984 0 310.50860236 0 13791
0.11450000 0.11448600 14521.49510681 0 146.29802992 0 4299.06512488 0 261.15052392 0 39.83632139 0 14205
0.11550000 0.11549300 14438.89112100 0 290.98022922 0 4157.86942892 0 137.42359374 0 770.42167177 0 14776
0.11650000 0.11649800 13910.31348838 0 -41.29056895 0 4190.76822380 0 347.67929752 0 1577.05508550 0 14553
0.11750000 0.11747300 14135.27753485 0 64.84072364 0 4022.22094211 0 791.38902391 0 1021.57843155 0 14568
0.11850000 0.11849100 13591.10180917 0 353.70433558 0 4050.15471018 0 -312.01348880 0 1721.96356700 0 16015
0.11950000 0.11950300 13394.03857706 0 218.28103251 0 4080.03274761 0 -116.49029377 0 2041.50478339 0 15270
0.12050000 0.12050700 13501.02831400 0 38.72413341 0 4073.01360573 0 326.64603794 0 1304.46193232 0 15999
0.12150000 0.12150000 13344.38830899 0 -0.44544529 0 4009.53376078 0 209.25391076 0 1447.14054558 0 15670
0.12250000 0.12250700 13324.83576980 0 -85.10550253 0 3860.69280230 0 35.21313448 0 1266.56515692 0 16887
0.12350000 0.12352200 13300.66971012 0 132.75075656 0 3386.41191196 0 -400.01199821 0 1036.46362586 0 16407
0.12450000 0.12449800 13291.66236060 0 21.64191475 0 3971.56009337 0 257.48497205 0 246.11484097 0 16306
0.12550000 0.12549900 13336.47941673 0 109.81914315 0 3730.09721888 0 56.93029355 0 925.79515556 0 17523
0.12650000 0.12650100 13048.24423220 0 22.78343153 0 3307.30102023 0 360.36757730 0 793.01803602 0 17154
0.12750000 0.12750600 13181.59694334 0 227.23675453 0 3741.47723608 0 -99.56790063 0 -109.71610786 0 18007
0.12850000 0.12850300 12918.95581292 0 288.00670542 0 3422.78183177 0 -263.19585134 0 694.59077341 0 17496
0.12950000 0.12949900 12537.02222426 0 136.20101081 0 4119.89576150 0 -394.63834530 0 614.88451784 0 18405
0.13050000 0.13049000 12299.42591933 0 132.58379106 0 4119.96166894 0 31.77814879 0 97.56299644 0 18100
0.13150000 0.13148800 12237.36308425 0 164.94104651 0 3791.39113389 0 384.34580079 0 -632.17313663 0 19059
0.13250000 0.13249300 12219.45823094 0 124.52001632 0 4174.78567069 0 53.12304069 0 -62.15202981 0 18957
0.13350000 0.13349100 12062.15915157 0 1.83662054 0 3904.01595656 0 -154.23548207 0 -216.23790201 0 19468
0.13450000 0.13450700 11749.64806163 0 16.89921569 0 3904.32352459 0 37.69378050 0 89.47626396 0 19953
0.13550000 0.13551000 11536.32766210 0 61.73900988 0 3329.25918082 0 360.81025558 0 -10.63490068 0 19956
0.13650000 0.13649900 11751.29574752 0 39.32850460 0 2983.54172796 0 500.23853381 0 -6.56321621 0 19723
0.13750000 0.13749600 11864.21715366 0 84.87482650 0 3311.70583383 0 301.22554007 0 -157.27161793 0 20946
0.13850000 0.13851100 11678.02864840 0 163.90849669 0 3058.73112728 0 -334.92181492 0 -448.70441155 0 20955
0.13950000 0.13949800 11227.22178967 0 222.91652214 0 3384.37976603 0 -202.91691084 0 490.12064401 0 20506
0.14050000 0.14048300 11199.76035821 0 171.45379959 0 3156.62563813 0 23.64484171 0 -335.94997091 0 21447
0.14150000 0.14148400 10869.05881608 0 107.07662491 0 3425.96735782 0 112.78849281 0 -501.88512124 0 21771
0.14250000 0.14249400 10512.77420440 0 431.25651646 0 3467.15950500 0 62.09073590 0 62.23188766 0 22470
0.14350000 0.14350900 10423.51356761 0 70.93617282 0 3443.33396707 0 -19.84395991 0 227.74863562 0 22519
0.14450000 0.14449900 10259.98623559 0 -30.44275430 0 3528.65114231 0 591.78945399 0 451.57248345 0 22218
0.14550000 0.14550500 10093.48208440 0 13.98116398 0 3046.95566548 0 61.79426228 0 593.57993932 0 23559
0.14650000 0.14650700 10317.84197937 0 44.67030224 0 2712.46444580 0 388.02233724 0 1064.86753364 0 23044
0.14750000 0.14750500 10487.24605772 0 -13.57539387 0 2979.90583444 0 225.66705911 0 544.60961630 0 23649
0.14850000 0.14849900 10207.94133070 0 13.61988139 0 2643.10785452 0 -50.58143029 0 1017.47459524 0 23640
0.14950000 0.14949500 10345.51211771 0 18.62434281 0 2686.18934819 0 196.52169268 0 374.62555251 0 24457
0.15050000 0.15050000 10161.85006415 0 222.61884022 0 2881.12157322 0 -519.93167554 0 681.07535530 0 24591
0.15150000 0.15149900 9795.80016745 0 244.42321679 0 2907.30879425 0 -151.94959252 0 713.05583992 0 25020
0.15250000 0.15250500 9865.35448103 0 5.24422169 0 3263.35174533 0 374.66949081 0 566.02074517 0 25297
0.15350000 0.15350100 9769.73377671 0 96.74486548 0 2899.85026947 0 320.82091910 0 631.69091389 0 25452
0.15450000 0.15450400 9698.25716292 0 90.31998898 0 2714.79317519 0 80.34841368 0 876.01087570 0 26061
0.15550000 0.15549900 9422.09402366 0 194.38299640 0 2980.13651046 0 -27.40628890 0 878.45384465 0 26128
0.15650000 0.15649500 9238.00357176 0 130.70982297 0 2674.12828749 0 -0.22292201 0 871.39955213 0 26331
0.15750000 0.15749700 9164.34102803 0 67.51667537 0 3173.42104960 0 -83.46133170 0 1086.68838707 0 27345
0.15850000 0.15849900 9034.97571674 0 -18.78746371 0 2461.79649950 0 158.18004209 0 649.22668556 0 26980
0.15950000 0.15949700 8984.78720462 0 107.14011574 0 2832.76748471 0 70.17724870 0 940.12233358 0 27777
0.16050000 0.16050000 8925.19589837 0 3.88946140 0 2653.51024476 0 -136.32403802 0 460.64024811 0 28224
0.16150000 0.16150500 9076.95875315 0 221.91472912 0 2826.56120120 0 319.36546323 0 473.01217221 0 28075
0.16250000 0.16249700 8822.67688246 0 53.11820748 0 2486.44588037 0 -229.15795628 0 339.87585715 0 28590
0.16350000 0.16349900 8765.17264500 0 -52.03732554 0 2615.05325615 0 408.07906831 0 442.78482538 0 29163
0.16450000 0.16449100 8681.58004766 0 104.46229664 0 2352.52197146 0 -51.41702672 0 437.06296152 0 28996
0.16550000 0.16550500 8560.87057956 0 175.01060419 0 2440.88187330 0 -25.97027573 0 425.43359453 0 30777
0.16650000 0.16650700 8494.75443719 0 160.88444386 0 2498.28724961 0 120.24372222 0 496.99259261 0 29211
0.16750000 0.16749900 8292.03415020 0 34.71333643 0 2412.01441656 0 39.73152856 0 394.07593518 0 30922
0.16850000 0.16850800 8210.01234674 0 -72.94744806 0 2041.85628971 0 369.34417002 0 651.16656108 0 30867
0.16950000 0.16949900 8188.33978504 0 -36.25765749 0 2247.09204382 0 209.26159996 0 543.87364993 0 30852
0.17050000 0.17049200 8314.23397139 0 124.90557482 0 1695.99603741 0 -122.11988722 0 230.23664130 0 31257
0.17150000 0.17149500 8217.28413379 0 223.23068091 0 2126.26174543 0 -421.93061434 0 218.16349758 0 32608
0.17250000 0.17250900 7966.95670923 0 90.26945994 0 2039.43968374 0 75.84386015 0 167.70366651 0 32361
0.17350000 0.17350400 7914.92278891 0 -94.54663281 0 2061.41981348 0 92.68551668 0 -192.41675791 0 32508
0.17450000 0.17449800 8031.32630456 0 47.91470560 0 1904.39534843 0 14.42922470 0 -559.20481789 0 32791
0.17550000 0.17549800 8011.60899678 0 150.34145109 0 1844.91388790 0 -83.40860575 0 -406.90481750 0 33633
0.17650000 0.17650100 7801.92449077 0 105.87908681 0 1882.90952446 0 121.36414862 0 -380.78130699 0 33984
0.17750000 0.17750300 7731.74405655 0 -22.06427156 0 1926.71599991 0 13.25354589 0 -198.30778418 0 34069
0.17850000 0.17849800 7648.08555177 0 185.01864827 0 1835.87358467 0 171.67129413 0 -526.70036916 0 34536
