### header ###
fiducial parameters:
Omega_m = 0.31
Omega_nu = 0
Omega_de = 0.69
Omega_k = 0
H_0 = 100
w_de = -1
zeff = 0
beta = 0
fgrowth = 0
b_1 = 2
gamma = 0.55
Lx = 3500 Ly = 3500 Lz = 3500
nx = 700 ny = 700 nz = 700
xoffset = -983.599254 yoffset = -42.9823471 zoffset = 800.977702
bins = 400 dk = 0.001
kx_ny = 0.628318531 ky_ny = 0.628318531 kz_ny = 0.628318531
############################
A(data) = 9.10975661 (not used)
A(ran) = 9.11317384 (used)
Ngal = 505937
weighted Ngal = 0
Nran = 25229228
weighted Nran = 0
SN(data) = 6718.26981
SN(ran) = 135.278787
SN(data+ran) = 6853.5486
############################
13 columns: k_central k_mean P_0(k) sigma^{lin}_{P_0(k)} P^img_1(k) sigma^{lin}_{P_1(k)} P_2(k) sigma^{lin}_{P_2(k)} P^img_3(k) sigma^{lin}_{P_3(k)} P_4(k) sigma^{lin}_{P_4(k)} N_modes
### header ###
0.00050000 0 0 0 0 0 0 0 0 0 0 0 0
0.00150000 0.00179520 17960.65493630 0 -37945.87644507 0 -11865.75499382 0 -43663.45631939 0 -2787.22544679 0 3
0.00250000 0.00253879 49457.37897314 0 -51559.49662803 0 -48645.72890511 0 -20787.53469011 0 -6832.07460842 0 6
0.00350000 0.00331552 76511.17293801 0 -35198.74468820 0 -53875.15437391 0 -20888.59275786 0 1476.85381442 0 7
0.00450000 0.00420575 82826.31356075 0 9469.85494524 0 -28344.15170599 0 -62886.45833674 0 19510.24859035 0 24
0.00550000 0.00557378 61554.79860270 0 21420.79529943 0 18852.16284700 0 -26192.49362876 0 5053.67230750 0 45
0.00650000 0.00659388 47517.61330100 0 949.67451789 0 27106.73960471 0 15715.73783785 0 -15689.37486366 0 40
0.00750000 0.00754703 54073.86529190 0 -18119.05247293 0 19795.29824884 0 35065.61166852 0 -14587.29269657 0 57
0.00850000 0.00846663 68255.38787732 0 -7967.36313842 0 7883.38608103 0 14181.30289397 0 14979.88132063 0 75
0.00950000 0.00948925 73532.70608258 0 -8841.53739359 0 -22474.43550143 0 473.46253969 0 4042.09203391 0 112
0.01050000 0.01054430 91412.95394758 0 -698.79017551 0 1844.15595239 0 -15079.84093112 0 -22689.18389539 0 105
0.01150000 0.01145670 89738.35585756 0 10276.92444651 0 13376.90264383 0 -30081.91108836 0 -1207.19354212 0 144
0.01250000 0.01249090 75517.50850230 0 7872.53332332 0 13634.71056232 0 -18078.73909155 0 5294.93745968 0 169
0.01350000 0.01339930 71518.02562543 0 -317.75951872 0 40301.95741805 0 3769.56478817 0 1087.63306031 0 180
0.01450000 0.01448870 79148.89835197 0 -84.74553808 0 32128.77634317 0 16824.85013139 0 -16144.68539716 0 267
0.01550000 0.01550050 78015.29046157 0 907.24440938 0 33241.51354566 0 6686.11160796 0 13539.69400949 0 238
0.01650000 0.01653350 70396.83030205 0 3213.02043376 0 37203.09964712 0 -3033.57645607 0 10829.94275312 0 315
0.01750000 0.01747870 70785.46447998 0 2140.26707547 0 37915.11964184 0 2856.81271409 0 20195.68591943 0 297
0.01850000 0.01844180 68162.23870183 0 324.54359074 0 29996.12157650 0 27084.88030527 0 5831.81942916 0 388
0.01950000 0.01947590 69154.47514310 0 -391.72743357 0 23028.38749671 0 281.22922414 0 28103.15018356 0 399
0.02050000 0.02045430 71754.85301029 0 3239.70196056 0 28206.62485728 0 16052.63467892 0 10527.14202534 0 462
0.02150000 0.02154770 63249.38861483 0 3370.27557484 0 16684.46729380 0 78.44665463 0 20702.62394406 0 571
0.02250000 0.02255340 60772.36749773 0 2149.82365361 0 31493.42866507 0 -4635.64341334 0 23354.62930237 0 510
0.02350000 0.02348930 57685.26321947 0 259.47867197 0 17305.53502755 0 2362.10051875 0 10000.40980092 0 555
0.02450000 0.02439640 57155.69697533 0 2144.77075023 0 23631.87991432 0 4978.55980019 0 12706.73387065 0 592
0.02550000 0.02547300 54966.47165986 0 1846.94603383 0 24329.40027324 0 -5488.35381369 0 7520.56564867 0 837
0.02650000 0.02652900 57027.83655048 0 -984.78560569 0 24425.84482050 0 1637.51417299 0 2207.16312249 0 723
0.02750000 0.02749970 57791.70372779 0 -1718.43751920 0 21748.02571662 0 -1371.53373251 0 -6904.57278745 0 826
0.02850000 0.02848090 57163.60586758 0 650.30646905 0 26239.50759941 0 -1974.12541517 0 -1774.78837654 0 831
0.02950000 0.02946900 61491.74715609 0 966.39633273 0 27573.36424796 0 -955.08002606 0 -13853.08386524 0 996
0.03050000 0.03053250 58539.09404622 0 593.22953146 0 25219.26049805 0 -398.70922790 0 -14782.92793425 0 1041
0.03150000 0.03150510 59731.46939992 0 2552.96845192 0 30593.35278775 0 1297.78331220 0 -4621.06688553 0 1036
0.03250000 0.03246190 55363.56395868 0 -2259.74627143 0 23266.64287599 0 8471.74175764 0 -254.64875541 0 1059
0.03350000 0.03345080 57287.62169203 0 -1235.54472395 0 24342.14237743 0 6628.28881789 0 -756.45039390 0 1302
0.03450000 0.03451200 58736.26712406 0 4143.25994738 0 15748.91124705 0 4084.12999318 0 786.74364816 0 1339
0.03550000 0.03553350 52605.77716641 0 1737.99005839 0 20178.65983193 0 127.94610451 0 12523.84073717 0 1365
0.03650000 0.03647120 50363.82590256 0 949.22634733 0 17584.10378821 0 7547.10437603 0 14389.13100720 0 1308
0.03750000 0.03744890 52354.55999147 0 -945.63549055 0 17625.84516402 0 6748.03164360 0 14605.74677851 0 1579
0.03850000 0.03847530 52866.88045667 0 652.29687360 0 14402.09280285 0 -2029.76227530 0 8573.63465290 0 1662
0.03950000 0.03950240 48648.36520253 0 2887.56951732 0 14029.93548379 0 -4552.76481322 0 10851.54940738 0 1683
0.04050000 0.04050350 45642.76645282 0 741.41031712 0 18249.87873237 0 -597.48385642 0 14989.65759023 0 1822
0.04150000 0.04152450 44978.96873173 0 566.41399287 0 19041.75656976 0 1286.51314073 0 5514.14559011 0 1887
0.04250000 0.04250150 44573.41831203 0 2452.85505741 0 19480.70009011 0 1144.49360182 0 3993.10084020 0 1920
0.04350000 0.04349210 42925.40288765 0 748.82600207 0 18458.25607424 0 -1436.73815535 0 329.33176593 0 2005
0.04450000 0.04448520 41424.69058158 0 1420.97529370 0 19627.12444262 0 -992.25072122 0 -1078.99259552 0 2151
0.04550000 0.04548030 39735.37316430 0 1371.64357823 0 19181.48033299 0 -1420.03062045 0 -356.54604450 0 2274
0.04650000 0.04648670 39173.29258531 0 -635.38282874 0 17284.66433965 0 2120.49484482 0 -6026.02667240 0 2311
0.04750000 0.04749250 39671.33310615 0 -317.02794618 0 17967.13583413 0 1758.32250224 0 -5964.63389624 0 2568
0.04850000 0.04851840 38350.21856179 0 1348.42219180 0 15482.53536195 0 749.23352971 0 -6778.54678623 0 2493
0.04950000 0.04949480 36515.46540353 0 669.45697288 0 17593.66036636 0 -1542.42072815 0 -1337.89897126 0 2644
0.05050000 0.05050630 36849.28656428 0 794.09342568 0 18059.40624381 0 745.16264712 0 -6631.89175770 0 2829
0.05150000 0.05149060 36087.17691858 0 809.95954232 0 15786.25879383 0 1091.35463350 0 -4174.60991753 0 2784
0.05250000 0.05249300 35424.36780903 0 -26.86310178 0 17290.37631739 0 475.88244103 0 -2482.09598963 0 3055
0.05350000 0.05348950 35751.15884332 0 -451.57138499 0 17967.90475421 0 2437.21302606 0 295.27080327 0 3009
0.05450000 0.05448610 35819.26319332 0 311.52687224 0 15806.79994455 0 2357.97031946 0 -1497.64761031 0 3336
0.05550000 0.05550870 36039.17433640 0 -60.72084985 0 13723.57575450 0 2118.01233142 0 3072.29707442 0 3349
0.05650000 0.05647670 33921.23889699 0 1361.59269432 0 14288.95170526 0 2033.76065972 0 1529.92028456 0 3324
0.05750000 0.05747970 34110.39323685 0 897.97452858 0 13548.15213038 0 -137.90691493 0 5554.53586349 0 3639
0.05850000 0.05849280 32805.97524281 0 -47.43094502 0 13029.57045881 0 637.65114298 0 4843.46054201 0 3846
0.05950000 0.05951020 32081.32298962 0 484.43832461 0 13679.96700135 0 1374.57645911 0 3346.96631182 0 3787
0.06050000 0.06049470 32661.19857619 0 -375.24618087 0 10830.75561149 0 809.83761356 0 2555.49490361 0 3930
0.06150000 0.06148310 32354.17977254 0 172.56983217 0 10694.27229716 0 -292.32254399 0 558.69293680 0 4083
0.06250000 0.06249100 31507.37907224 0 815.35626282 0 10989.73533046 0 310.41743041 0 158.07568865 0 4303
0.06350000 0.06350600 30816.44945688 0 919.18024595 0 12731.33931323 0 -1277.96714326 0 1036.63388673 0 4470
0.06450000 0.06451750 29609.57446737 0 515.99810009 0 10686.82475695 0 2076.18307903 0 460.01083210 0 4479
0.06550000 0.06550280 29809.49368835 0 284.90026830 0 12672.46200419 0 59.86361381 0 870.66907806 0 4636
0.06650000 0.06648880 28728.28220916 0 -349.57743166 0 10599.43149750 0 1011.33202225 0 2611.90068382 0 4653
0.06750000 0.06749660 29225.88334710 0 870.49552181 0 11958.24509495 0 534.15010628 0 2238.10666345 0 5220
0.06850000 0.06852730 28006.26625339 0 962.60885211 0 11281.81511539 0 -1230.87628060 0 1383.91334581 0 5029
0.06950000 0.06949320 27139.69332245 0 800.80390107 0 12842.17365057 0 -556.50920377 0 2373.09607590 0 5040
0.07050000 0.07048030 27233.06218939 0 -63.82278330 0 12890.06638703 0 1622.14675595 0 2943.87643637 0 5475
0.07150000 0.07148790 26771.27075807 0 -714.49811430 0 12613.80438661 0 1714.35125820 0 3216.52451241 0 5509
0.07250000 0.07249820 27075.87295575 0 681.47629220 0 11165.04910885 0 1291.36832181 0 1744.36111049 0 5916
0.07350000 0.07351270 26178.54322158 0 1464.61700056 0 12709.04063089 0 -2065.59395106 0 4238.64997568 0 5721
0.07450000 0.07449140 25355.57904379 0 686.61048143 0 12843.16226211 0 -288.47245130 0 4495.52420550 0 6028
0.07550000 0.07549160 25574.72126679 0 -707.63934718 0 13557.04963417 0 2383.44354327 0 4088.82040567 0 6183
0.07650000 0.07648840 25150.27738224 0 -404.89903455 0 11277.42128636 0 779.82666281 0 3920.37198514 0 6330
0.07750000 0.07749960 24955.30121892 0 312.36938895 0 11912.87881019 0 1106.48698069 0 5649.78309234 0 6583
0.07850000 0.07848650 25021.64803732 0 242.81507537 0 10968.19458362 0 533.67337583 0 4747.10387133 0 6549
0.07950000 0.07947320 24096.63718024 0 291.44817201 0 9338.44650345 0 702.90719331 0 3973.69110045 0 6828
0.08050000 0.08048110 24730.77655536 0 193.07802918 0 10454.86353775 0 389.92156983 0 4282.75303459 0 7147
0.08150000 0.08149960 23934.94427184 0 426.61553454 0 9714.09691659 0 91.60518397 0 3545.16095490 0 7386
0.08250000 0.08250610 24079.28155556 0 331.03876851 0 9369.90631932 0 1.39087756 0 2721.62557933 0 7227
0.08350000 0.08350160 22758.82608556 0 621.46207990 0 9682.28559439 0 -755.40685950 0 1027.70562614 0 7798
0.08450000 0.08449610 21929.38100994 0 911.85902832 0 11077.83160256 0 -744.13998341 0 2226.83649198 0 7371
0.08550000 0.08548940 21391.57633636 0 -11.38726701 0 10056.60687424 0 444.34463469 0 1771.36118989 0 8256
0.08650000 0.08650700 21562.82582290 0 -47.27540348 0 9546.64809216 0 1278.76901706 0 949.10441857 0 8037
0.08750000 0.08749060 21477.80523112 0 7.27578543 0 8974.38481438 0 1217.14556488 0 1302.95704588 0 8155
0.08850000 0.08849210 21167.49105570 0 204.46353866 0 8959.92911687 0 226.75563025 0 136.91830340 0 8718
0.08950000 0.08949900 20658.35611655 0 754.27874390 0 9584.42403726 0 -497.73405126 0 792.62588678 0 8571
0.09050000 0.09049190 20460.96334727 0 279.21685045 0 8994.23393704 0 -941.23287386 0 1053.36558769 0 8932
0.09150000 0.09150830 19632.94626609 0 -185.41738826 0 9371.37825205 0 794.65363888 0 299.01434561 0 9285
0.09250000 0.09250820 20133.29354717 0 306.82767209 0 8659.65484078 0 254.56197729 0 -168.49345728 0 9204
0.09350000 0.09350330 19821.22184013 0 358.26073628 0 9017.21366288 0 523.08754324 0 -288.40215004 0 9349
0.09450000 0.09448040 19486.08253067 0 170.70135637 0 8633.02823685 0 -57.00531818 0 -956.78043789 0 9564
0.09550000 0.09549270 18744.18449853 0 392.12397664 0 8654.16255449 0 195.33645730 0 -830.18214044 0 10155
0.09650000 0.09649430 18283.60137019 0 279.04768803 0 7771.73888532 0 164.79055787 0 377.15090575 0 9913
0.09750000 0.09749140 18370.59918504 0 170.17739226 0 7949.11776336 0 1609.87698838 0 -694.54573666 0 10476
0.09850000 0.09850240 17415.71029054 0 251.55000748 0 6927.12411496 0 24.01930579 0 56.70763626 0 10575
0.09950000 0.09950330 17381.43842409 0 246.55422387 0 6018.63405505 0 947.68191643 0 514.17905487 0 10882
0.10050000 0.10051200 16340.97970918 0 161.39852185 0 6720.11984467 0 475.03553048 0 1238.20299051 0 10875
0.10150000 0.10150300 16430.72366717 0 540.41131266 0 5595.60718037 0 497.84719236 0 706.18828514 0 11118
0.10250000 0.10250800 16237.06565256 0 415.71993700 0 6172.65973179 0 -343.32940677 0 1148.01964962 0 11575
0.10350000 0.10349800 15371.26164170 0 108.91346514 0 5940.23716054 0 -156.49391019 0 847.99582179 0 11364
0.10450000 0.10450100 14839.60832877 0 174.17577668 0 5807.78518435 0 105.67664114 0 772.19018795 0 12093
0.10550000 0.10551000 15382.90528864 0 67.03060803 0 5687.13063912 0 552.28453716 0 1058.44265714 0 12067
0.10650000 0.10649700 15429.47987638 0 -380.02666685 0 5162.83698981 0 586.96393126 0 363.95953254 0 12054
0.10750000 0.10749900 15344.01990170 0 -23.58607425 0 5011.18398075 0 136.55800942 0 -481.82179942 0 12807
0.10850000 0.10850100 15456.17238776 0 328.07622929 0 5047.11451767 0 -1205.22730362 0 -59.78496427 0 12736
0.10950000 0.10950300 15007.67228926 0 188.27227867 0 5081.54016814 0 659.69937706 0 -272.14388416 0 12933
0.11050000 0.11050200 15196.49709193 0 -104.33476575 0 5214.92583299 0 182.30216347 0 -672.38216456 0 13428
0.11150000 0.11150900 15096.42763572 0 202.53025388 0 4633.61126742 0 27.75515892 0 -978.80560438 0 13453
0.11250000 0.11250000 14882.77769901 0 292.63230894 0 5272.21037900 0 -432.73064610 0 -693.37587968 0 13668
0.11350000 0.11349100 14437.46312656 0 364.37694630 0 5212.53119617 0 -301.01024245 0 -1080.46013442 0 13791
0.11450000 0.11448600 14340.90873357 0 38.48049559 0 5291.81784106 0 491.62443199 0 -907.45201780 0 14205
0.11550000 0.11549300 13968.09234016 0 -52.86457370 0 5434.05707142 0 51.80730859 0 -922.25153244 0 14776
0.11650000 0.11649800 14218.32090356 0 228.12760337 0 5178.89643493 0 452.87854913 0 -478.68131012 0 14553
0.11750000 0.11747300 14057.39691525 0 -87.65633997 0 4829.44422740 0 495.41960182 0 -323.86803953 0 14568
0.11850000 0.11849100 13893.17755516 0 -68.23341873 0 4653.72401981 0 230.34978240 0 -759.51069582 0 16015
0.11950000 0.11950300 13970.17940895 0 349.27645437 0 4509.97990301 0 114.61852260 0 -130.43301175 0 15270
0.12050000 0.12050700 13678.64885264 0 35.82299795 0 4236.16746228 0 262.00841904 0 -105.92961584 0 15999
0.12150000 0.12150000 13513.99010965 0 115.29297536 0 3898.29299425 0 445.83963502 0 414.98067526 0 15670
0.12250000 0.12250700 13234.87212036 0 141.60871589 0 4323.07740054 0 493.54014145 0 577.71052731 0 16887
0.12350000 0.12352200 13092.29236825 0 429.24304430 0 3604.99392175 0 -452.09425064 0 -14.22425257 0 16407
0.12450000 0.12449800 12733.97561065 0 320.72535332 0 4435.61434664 0 -147.76886419 0 353.50221944 0 16306
0.12550000 0.12549900 12430.80140740 0 38.17962815 0 3932.34516925 0 221.25565476 0 175.37199663 0 17523
0.12650000 0.12650100 12364.01520611 0 -223.60305792 0 4068.74060699 0 674.58566982 0 861.42116640 0 17154
0.12750000 0.12750600 12608.75148322 0 -213.10510191 0 3237.53799976 0 338.12162091 0 602.46865545 0 18007
0.12850000 0.12850300 13012.43452558 0 64.84204179 0 3172.75099068 0 26.88276417 0 -104.13188069 0 17496
0.12950000 0.12949900 12635.88337750 0 215.93362935 0 2888.15169967 0 -232.04030812 0 372.86033170 0 18405
0.13050000 0.13049000 12587.66110386 0 199.14371016 0 3402.41643421 0 -232.36984530 0 459.16831539 0 18100
0.13150000 0.13148800 12299.31607360 0 217.12325856 0 3409.58936010 0 -168.98446768 0 -40.96399761 0 19059
0.13250000 0.13249300 12390.70771748 0 174.58769815 0 3608.50898498 0 71.38346461 0 -626.59517067 0 18957
0.13350000 0.13349100 11850.15690075 0 82.93385253 0 3555.68417544 0 -180.04593227 0 -64.73582098 0 19468
0.13450000 0.13450700 11909.58343842 0 11.64177956 0 3575.74200497 0 282.39029346 0 -158.33492456 0 19953
0.13550000 0.13551000 11938.36301858 0 -73.37255101 0 3415.24641498 0 351.40746145 0 -66.49697750 0 19956
0.13650000 0.13649900 11760.08340559 0 45.31839202 0 3109.47985261 0 133.99421018 0 -578.53766563 0 19723
0.13750000 0.13749600 11761.62124575 0 19.04362395 0 2585.70247821 0 221.87408620 0 -222.92640825 0 20946
0.13850000 0.13851100 11734.15981429 0 185.55908924 0 2750.98734184 0 247.49010946 0 -474.89932178 0 20955
0.13950000 0.13949800 11393.96760145 0 263.32986312 0 2677.69827358 0 62.77177940 0 141.00895823 0 20506
0.14050000 0.14048300 11264.78902789 0 277.82290818 0 2910.31856714 0 -73.08541429 0 -246.73546932 0 21447
0.14150000 0.14148400 10889.83064283 0 30.95079078 0 2674.32600980 0 -73.42297020 0 365.53142487 0 21771
0.14250000 0.14249400 10820.74866587 0 57.56113755 0 2931.96915969 0 173.14542377 0 -662.82119259 0 22470
0.14350000 0.14350900 10662.77952757 0 273.43676835 0 2621.75384542 0 -188.21735581 0 -26.39614760 0 22519
0.14450000 0.14449900 10481.88558630 0 -23.92604677 0 2760.56588914 0 -124.37282305 0 -220.45048559 0 22218
0.14550000 0.14550500 10369.30470192 0 104.73800941 0 2633.32060035 0 273.36207326 0 -291.64809124 0 23559
0.14650000 0.14650700 10546.94720970 0 89.89400725 0 3150.28753975 0 -228.78777618 0 -649.58807800 0 23044
0.14750000 0.14750500 10165.50792682 0 233.60890509 0 3041.46337919 0 -245.10535875 0 -646.63542489 0 23649
0.14850000 0.14849900 10165.78254113 0 110.36200072 0 3232.33131236 0 -12.38104129 0 -674.46154415 0 23640
0.14950000 0.14949500 10102.35761905 0 27.29885978 0 3233.04530958 0 19.14149649 0 -659.44014115 0 24457
0.15050000 0.15050000 9874.82318260 0 179.23307390 0 3442.14763323 0 75.55057207 0 -555.39756503 0 24591
0.15150000 0.15149900 9833.79580400 0 217.19465828 0 3487.63474829 0 0.29914287 0 -375.23849166 0 25020
0.15250000 0.15250500 9675.00282277 0 -34.67203443 0 3407.19472328 0 223.78759874 0 -123.16781544 0 25297
0.15350000 0.15350100 9664.89701599 0 -177.68205225 0 3417.75089753 0 209.18800332 0 -186.38842447 0 25452
0.15450000 0.15450400 9825.01913051 0 106.11833080 0 3243.94200558 0 233.71216007 0 -120.65234832 0 26061
0.15550000 0.15549900 9575.80114779 0 152.83275215 0 3230.31015100 0 -202.54343537 0 -26.60858924 0 26128
0.15650000 0.15649500 9677.93570365 0 193.41745247 0 2862.74438329 0 138.82302828 0 102.78901670 0 26331
0.15750000 0.15749700 9378.78185397 0 -64.70242788 0 3391.01444787 0 166.57115708 0 115.68512460 0 27345
0.15850000 0.15849900 9332.96520173 0 128.21412808 0 3017.79162527 0 110.14121082 0 -322.11380329 0 26980
0.15950000 0.15949700 9270.77055177 0 200.43988972 0 3095.51846086 0 -303.66741055 0 35.27816315 0 27777
0.16050000 0.16050000 8764.23895633 0 145.64774323 0 2846.34441642 0 188.90608851 0 66.05737490 0 28224
0.16150000 0.16150500 8860.14525954 0 57.56772829 0 2952.71901730 0 279.63975649 0 -143.90229464 0 28075
0.16250000 0.16249700 8765.96353423 0 5.83425800 0 2739.72815495 0 366.10591802 0 -112.82254498 0 28590
0.16350000 0.16349900 8670.82615110 0 186.59383598 0 2512.07288820 0 170.20705061 0 222.43759477 0 29163
0.16450000 0.16449100 8433.85596680 0 -102.09501140 0 2019.35988506 0 162.34429355 0 592.34747028 0 28996
0.16550000 0.16550500 8592.01184283 0 53.11249550 0 2224.41988601 0 411.70287881 0 105.61798352 0 30777
0.16650000 0.16650700 8356.24996151 0 195.60008704 0 2195.59636756 0 -258.05507137 0 537.14340231 0 29211
0.16750000 0.16749900 8239.03358750 0 180.26782063 0 2078.06144094 0 121.91118034 0 451.08476842 0 30922
0.16850000 0.16850800 8359.28170355 0 -53.05153112 0 2079.18186734 0 201.60205750 0 422.41723090 0 30867
0.16950000 0.16949900 8272.74524075 0 -119.06507758 0 1868.87124070 0 6.36520830 0 178.43888930 0 30852
0.17050000 0.17049200 8338.80646026 0 150.79181857 0 2119.56115615 0 -172.14143384 0 260.41785293 0 31257
0.17150000 0.17149500 8140.42507944 0 64.87938934 0 1938.37063142 0 -149.10019439 0 264.55793834 0 32608
0.17250000 0.17250900 8156.01218793 0 19.40325885 0 2297.52221654 0 -58.34917079 0 -33.50481375 0 32361
0.17350000 0.17350400 8238.58322002 0 123.64015206 0 2064.55041666 0 -0.18973213 0 -177.96325730 0 32508
0.17450000 0.17449800 8018.08989460 0 39.80347751 0 2097.91056359 0 -115.51046989 0 -212.98427161 0 32791
0.17550000 0.17549800 7996.84573123 0 37.83130735 0 1991.77762331 0 356.77122824 0 313.97093964 0 33633
0.17650000 0.17650100 8018.23269404 0 27.88939040 0 2033.35423053 0 140.03133127 0 71.49891247 0 33984
0.17750000 0.17750300 7921.87602336 0 243.48733121 0 2097.24050467 0 96.59141100 0 229.86206738 0 34069
0.17850000 0.17849800 7575.86198705 0 139.33381091 0 2056.60857069 0 -14.18668533 0 759.47993902 0 34536
