### header ###
fiducial parameters:
Omega_m = 0.31
Omega_nu = 0
Omega_de = 0.69
Omega_k = 0
H_0 = 100
w_de = -1
zeff = 0
beta = 0
fgrowth = 0
b_1 = 2
gamma = 0.55
Lx = 3500 Ly = 3500 Lz = 3500
nx = 700 ny = 700 nz = 700
xoffset = -983.599254 yoffset = -42.9823471 zoffset = 800.977702
bins = 400 dk = 0.001
kx_ny = 0.628318531 ky_ny = 0.628318531 kz_ny = 0.628318531
############################
A(data) = 9.03373457 (not used)
A(ran) = 9.02931317 (used)
Ngal = 502205
weighted Ngal = 0
Nran = 25229228
weighted Nran = 0
SN(data) = 6757.63656
SN(ran) = 134.033933
SN(data+ran) = 6891.6705
############################
13 columns: k_central k_mean P_0(k) sigma^{lin}_{P_0(k)} P^img_1(k) sigma^{lin}_{P_1(k)} P_2(k) sigma^{lin}_{P_2(k)} P^img_3(k) sigma^{lin}_{P_3(k)} P_4(k) sigma^{lin}_{P_4(k)} N_modes
### header ###
0.00050000 0 0 0 0 0 0 0 0 0 0 0 0
0.00150000 0.00179520 12312.38771498 0 -4232.68535277 0 10913.83193392 0 -16370.85774660 0 2880.92385091 0 3
0.00250000 0.00253879 18236.47755382 0 -3724.14358054 0 3751.78076516 0 -13138.86695600 0 -13968.75141452 0 6
0.00350000 0.00331552 15701.23820205 0 1268.19087366 0 7143.42133366 0 -11302.46611185 0 -4388.31477710 0 7
0.00450000 0.00420575 22407.10007150 0 -1397.05089461 0 -14873.44081232 0 15895.99467391 0 7784.43705122 0 24
0.00550000 0.00557378 38075.49440153 0 -18668.83033062 0 -17414.50198756 0 3403.84442864 0 -21517.56938387 0 45
0.00650000 0.00659388 50138.86185609 0 -12649.94363040 0 -27457.03762433 0 -20810.82198398 0 -8069.83821603 0 40
0.00750000 0.00754703 69402.17725481 0 -7079.99641158 0 -26714.81005500 0 -20462.83072461 0 -33732.52394005 0 57
0.00850000 0.00846663 65098.53156317 0 18.37631116 0 -7577.41081178 0 -43640.93794560 0 -26023.66074819 0 75
0.00950000 0.00948925 61882.24871135 0 12092.69626335 0 4506.76142325 0 -23091.87832623 0 -22399.30102497 0 112
0.01050000 0.01054430 61009.63426549 0 1668.08423849 0 15037.77001813 0 3800.12386909 0 -24221.97115339 0 105
0.01150000 0.01145670 56867.79132797 0 1469.23052104 0 23941.42516967 0 -7761.03991162 0 -33136.06164888 0 144
0.01250000 0.01249090 63900.55407745 0 3427.84571973 0 21287.00320539 0 12282.39983183 0 -15479.34983590 0 169
0.01350000 0.01339930 61593.57414391 0 -9554.75470672 0 19415.23203752 0 10231.48126974 0 12538.88960160 0 180
0.01450000 0.01448870 63491.48859452 0 -2741.71636259 0 7714.28957072 0 13753.01440902 0 16294.07558426 0 267
0.01550000 0.01550050 78525.96324088 0 -6139.42041516 0 11212.72215386 0 24641.91136318 0 13755.76055216 0 238
0.01650000 0.01653350 73853.34575623 0 -1556.89839482 0 288.97224935 0 -10106.70750979 0 14368.58985648 0 315
0.01750000 0.01747870 75801.78924070 0 5856.58964033 0 12187.27343327 0 -4174.88453185 0 28282.85779099 0 297
0.01850000 0.01844180 67741.74926342 0 2992.69187692 0 16002.10564505 0 2192.37788779 0 26559.04881580 0 388
0.01950000 0.01947590 67474.27492106 0 453.37065798 0 22894.37571121 0 -1474.88757592 0 22973.46463380 0 399
0.02050000 0.02045430 71186.73091638 0 2834.50304718 0 19111.83814283 0 10059.60566256 0 16718.40962308 0 462
0.02150000 0.02154770 68560.75899508 0 1145.65796652 0 24946.40371513 0 -6271.35611643 0 23373.08338431 0 571
0.02250000 0.02255340 63526.74907250 0 7388.44320966 0 37079.08382268 0 -6191.68501150 0 5896.12311705 0 510
0.02350000 0.02348930 62382.48614671 0 1171.44974294 0 35178.31338320 0 -1382.59519710 0 20098.36260636 0 555
0.02450000 0.02439640 59255.39802425 0 -1729.04861631 0 32626.37748111 0 16922.39313591 0 14352.33268906 0 592
0.02550000 0.02547300 62623.37782342 0 -4338.34595643 0 29570.90877188 0 6717.61536212 0 8408.92098704 0 837
0.02650000 0.02652900 64666.83786072 0 2620.40274300 0 18800.20581869 0 6455.78709007 0 11424.17517605 0 723
0.02750000 0.02749970 64817.98557944 0 16.41929971 0 19151.16291267 0 2882.84615111 0 6338.43890119 0 826
0.02850000 0.02848090 63797.73847809 0 2869.42300342 0 19018.57912161 0 -5550.92193911 0 10849.30855458 0 831
0.02950000 0.02946900 60955.48032266 0 1882.12961981 0 18126.85151946 0 683.56555791 0 -4725.83773881 0 996
0.03050000 0.03053250 56954.34975991 0 1234.05082208 0 22483.77238812 0 -5251.27378366 0 -168.82738829 0 1041
0.03150000 0.03150510 55668.49569354 0 3252.96033967 0 24455.94254938 0 -3408.61173314 0 -8335.74176451 0 1036
0.03250000 0.03246190 51304.10531552 0 1523.16477242 0 22794.08656355 0 -27.36608536 0 -11521.60833485 0 1059
0.03350000 0.03345080 50829.57178000 0 1410.84751778 0 23882.65770636 0 3604.19204795 0 -2360.33200256 0 1302
0.03450000 0.03451200 51872.33725515 0 -199.07011352 0 22888.22435057 0 8209.51804097 0 -3980.17199827 0 1339
0.03550000 0.03553350 49650.92714203 0 -3615.76978746 0 15375.54562501 0 6281.74752209 0 4992.02688617 0 1365
0.03650000 0.03647120 56243.20853099 0 46.93707864 0 16354.16119628 0 6532.39349925 0 -810.82292972 0 1308
0.03750000 0.03744890 49949.81736196 0 1665.04151188 0 11285.00064144 0 -5288.52246929 0 5008.39389932 0 1579
0.03850000 0.03847530 50702.59012096 0 3339.94716994 0 13983.69043323 0 903.63707575 0 7438.75255209 0 1662
0.03950000 0.03950240 46581.06864272 0 157.79777896 0 16649.20681582 0 1457.09256834 0 7890.92149782 0 1683
0.04050000 0.04050350 46729.58006402 0 758.37379256 0 15808.99685907 0 2812.69867061 0 7269.44733489 0 1822
0.04150000 0.04152450 46186.28310414 0 1554.38292770 0 17604.53509322 0 1373.92836933 0 6872.21223663 0 1887
0.04250000 0.04250150 43853.05004214 0 2205.59232861 0 12298.98653643 0 -1515.91495452 0 7642.16486715 0 1920
0.04350000 0.04349210 42682.53398787 0 -219.25756101 0 19145.67062638 0 718.65247965 0 5907.60199540 0 2005
0.04450000 0.04448520 42011.37660315 0 -553.03807884 0 15552.72678075 0 157.03215425 0 1953.08995868 0 2151
0.04550000 0.04548030 41093.28602680 0 1563.97245956 0 17250.72201037 0 -764.80635826 0 2585.14226501 0 2274
0.04650000 0.04648670 40724.64377098 0 1598.32121802 0 18263.60944810 0 -4524.80907600 0 -2547.37730448 0 2311
0.04750000 0.04749250 38731.60292182 0 2706.43391545 0 19942.38167570 0 -476.78866826 0 -948.41788279 0 2568
0.04850000 0.04851840 37171.02469518 0 -113.70350770 0 21032.38081295 0 105.89029107 0 -3329.47887227 0 2493
0.04950000 0.04949480 36473.50433627 0 -811.75991376 0 19029.01446556 0 3587.57238964 0 -3272.18334168 0 2644
0.05050000 0.05050630 37367.64854439 0 1159.77314228 0 19638.76808955 0 2499.07813884 0 -3161.20620489 0 2829
0.05150000 0.05149060 34741.34708592 0 -347.62986694 0 16898.11723051 0 466.98493724 0 -1385.56103169 0 2784
0.05250000 0.05249300 34414.22651445 0 1094.80159238 0 15999.13981045 0 1780.08294052 0 -1100.55531150 0 3055
0.05350000 0.05348950 34372.37529291 0 688.03188512 0 15601.16874583 0 2283.38507163 0 911.60198932 0 3009
0.05450000 0.05448610 33175.38641872 0 236.21664262 0 12659.82974572 0 1295.44359824 0 2183.76598289 0 3336
0.05550000 0.05550870 34136.09713669 0 267.99391264 0 13838.58422943 0 2305.09058705 0 752.92654302 0 3349
0.05650000 0.05647670 33059.27948654 0 -227.49599045 0 11744.59515825 0 2330.86039433 0 3337.34382624 0 3324
0.05750000 0.05747970 32664.16441079 0 -175.26105245 0 11360.90403798 0 -260.68038421 0 2953.61975225 0 3639
0.05850000 0.05849280 33427.92174237 0 538.08148481 0 11722.73585881 0 -1092.20813479 0 928.98837081 0 3846
0.05950000 0.05951020 32892.09429185 0 939.92790664 0 13610.87403982 0 -3006.21388577 0 595.08372731 0 3787
0.06050000 0.06049470 31627.87983346 0 441.08111817 0 14349.36685446 0 719.61253129 0 1854.15191344 0 3930
0.06150000 0.06148310 32695.14090546 0 -1335.01002867 0 14727.34599698 0 1335.36153500 0 -57.93768870 0 4083
0.06250000 0.06249100 33051.48044000 0 28.00989116 0 13272.32951286 0 1715.76826806 0 2326.52148816 0 4303
0.06350000 0.06350600 33599.72045754 0 651.72018354 0 13346.14584061 0 -337.05941274 0 -186.15774845 0 4470
0.06450000 0.06451750 31596.57380160 0 948.04111195 0 14999.65355128 0 -1610.04175697 0 2433.43433309 0 4479
0.06550000 0.06550280 32579.47335618 0 1189.05801279 0 16580.99262009 0 -30.82600604 0 1755.00516132 0 4636
0.06650000 0.06648880 30410.56950000 0 946.81633211 0 16703.58045009 0 1425.53389132 0 1975.66325534 0 4653
0.06750000 0.06749660 30855.44468954 0 -662.26097939 0 16033.85105981 0 17.07419993 0 2197.56260605 0 5220
0.06850000 0.06852730 29672.73575971 0 -453.71667202 0 15723.75657584 0 2692.14298653 0 1563.62095324 0 5029
0.06950000 0.06949320 30228.00590370 0 621.58730403 0 12630.61078266 0 1902.06661904 0 2466.64069600 0 5040
0.07050000 0.07048030 29909.78283601 0 259.42704448 0 12694.65084081 0 973.96360478 0 3570.95273132 0 5475
0.07150000 0.07148790 30059.17302312 0 262.15890768 0 11155.60237643 0 1626.91406045 0 3650.67875912 0 5509
0.07250000 0.07249820 28680.05993553 0 -330.61256710 0 10324.41075378 0 447.22808499 0 1997.16006388 0 5916
0.07350000 0.07351270 28707.19182981 0 342.86695627 0 9341.24756946 0 2041.04343134 0 3260.47378731 0 5721
0.07450000 0.07449140 28371.72298317 0 958.92682338 0 9415.88774015 0 -402.43849029 0 2777.59197664 0 6028
0.07550000 0.07549160 27998.02782396 0 1167.37446651 0 9430.70592856 0 -2300.97137233 0 578.28282354 0 6183
0.07650000 0.07648840 25459.27340896 0 717.13111634 0 10941.29336537 0 -199.50290568 0 2282.59418240 0 6330
0.07750000 0.07749960 25479.70471396 0 -302.31630813 0 10384.30962806 0 1142.26373359 0 1795.37346556 0 6583
0.07850000 0.07848650 25690.27897034 0 202.39734055 0 10216.05892983 0 2025.10481652 0 130.69444457 0 6549
0.07950000 0.07947320 24862.81111779 0 720.37156526 0 9752.64178177 0 -1886.54541798 0 -361.01017480 0 6828
0.08050000 0.08048110 24223.06961065 0 837.90429496 0 9440.99847307 0 519.95694005 0 2053.06055374 0 7147
0.08150000 0.08149960 23581.24103472 0 -123.66871195 0 10385.16642472 0 452.18542260 0 966.67973470 0 7386
0.08250000 0.08250610 23410.65062254 0 359.94686817 0 9496.59139490 0 1478.83103748 0 622.94719412 0 7227
0.08350000 0.08350160 23041.34929235 0 34.69455281 0 9034.89882474 0 506.45250652 0 1655.79250177 0 7798
0.08450000 0.08449610 22635.79887265 0 202.30397169 0 8374.91275033 0 314.66955845 0 1216.85996599 0 7371
0.08550000 0.08548940 22378.32049134 0 549.11438951 0 8178.68434574 0 507.01601509 0 1874.15482011 0 8256
0.08650000 0.08650700 22200.04087835 0 -6.13778371 0 7070.84626262 0 991.33900169 0 981.01570038 0 8037
0.08750000 0.08749060 22240.90348835 0 -176.61764716 0 6857.86638484 0 1920.30100953 0 2466.99220233 0 8155
0.08850000 0.08849210 21859.40928260 0 192.47827151 0 5650.57398157 0 370.70845393 0 2091.01225201 0 8718
0.08950000 0.08949900 20787.64453584 0 213.81360684 0 5273.97889519 0 488.54875167 0 2724.41566077 0 8571
0.09050000 0.09049190 21118.93924489 0 589.70348366 0 5052.22234392 0 794.53171012 0 2546.09210948 0 8932
0.09150000 0.09150830 20378.79874436 0 585.46893093 0 4416.34740633 0 -27.66321805 0 3210.01066087 0 9285
0.09250000 0.09250820 19549.68320592 0 -67.72153765 0 4415.75423941 0 -658.07146340 0 2680.82887677 0 9204
0.09350000 0.09350330 19250.35360308 0 244.08708887 0 4631.83176666 0 424.23847304 0 1431.87198970 0 9349
0.09450000 0.09448040 19017.48066435 0 344.69918297 0 4910.35658903 0 -514.73267733 0 2265.33741888 0 9564
0.09550000 0.09549270 18273.82510060 0 600.30030083 0 4539.27575809 0 -564.91459871 0 669.15929097 0 10155
0.09650000 0.09649430 18581.28328715 0 206.76920044 0 5660.80061864 0 117.58875103 0 -568.03641424 0 9913
0.09750000 0.09749140 18028.86913203 0 222.31896139 0 4558.13626921 0 -12.65071255 0 -88.11077174 0 10476
0.09850000 0.09850240 17628.92084435 0 14.40143373 0 5357.29687822 0 192.74190126 0 136.32293956 0 10575
0.09950000 0.09950330 17828.29083670 0 -220.40984267 0 4905.69913026 0 1021.27745426 0 478.29575162 0 10882
0.10050000 0.10051200 17938.46609969 0 86.02655894 0 4156.04598987 0 600.82865877 0 -37.08182997 0 10875
0.10150000 0.10150300 17281.80835078 0 436.39070568 0 4124.78389630 0 -32.90329856 0 591.34457880 0 11118
0.10250000 0.10250800 16994.12239487 0 485.83116841 0 4452.60748042 0 -732.77973844 0 1028.54924131 0 11575
0.10350000 0.10349800 16067.90323481 0 920.24135566 0 5130.74006873 0 -828.19832663 0 426.09157043 0 11364
0.10450000 0.10450100 15435.19185413 0 451.64937546 0 5650.63988900 0 -309.76934062 0 660.37822365 0 12093
0.10550000 0.10551000 15211.65580210 0 -159.54652291 0 5660.09760600 0 732.65890815 0 -193.32628052 0 12067
0.10650000 0.10649700 15039.41770402 0 -165.49027514 0 5718.94196132 0 363.07307753 0 -136.69751349 0 12054
0.10750000 0.10749900 15390.81418090 0 35.45446554 0 4898.42734321 0 224.94097886 0 -890.19195891 0 12807
0.10850000 0.10850100 15166.94859169 0 143.82320572 0 4697.37671125 0 -51.32947968 0 -220.35272290 0 12736
0.10950000 0.10950300 15006.68367773 0 171.33956004 0 4355.28416735 0 352.30599949 0 658.06816803 0 12933
0.11050000 0.11050200 15417.28700082 0 -341.96951669 0 3876.90603143 0 580.91362868 0 -781.25685416 0 13428
0.11150000 0.11150900 15016.35010160 0 293.84720267 0 4115.97426909 0 390.63776397 0 -526.87172849 0 13453
0.11250000 0.11250000 14805.00692513 0 486.57262706 0 4219.21826678 0 -810.70539479 0 469.76732947 0 13668
0.11350000 0.11349100 14500.73426463 0 197.77173704 0 4814.85671501 0 48.27983279 0 -251.54561366 0 13791
0.11450000 0.11448600 14347.60932285 0 -44.61581876 0 4667.22405951 0 -279.86713714 0 -38.20654035 0 14205
0.11550000 0.11549300 14051.46524605 0 -118.48509215 0 4410.52558286 0 651.02595855 0 -54.56850060 0 14776
0.11650000 0.11649800 14354.52960357 0 279.38161903 0 5075.18010061 0 -107.05366715 0 -127.18157826 0 14553
0.11750000 0.11747300 14030.92409533 0 303.59710929 0 4752.99160223 0 -390.77507112 0 -553.45659105 0 14568
0.11850000 0.11849100 13967.98249444 0 136.90182654 0 4728.48502080 0 305.85224204 0 374.35533203 0 16015
0.11950000 0.11950300 13569.90158409 0 55.40069181 0 5182.59823589 0 20.16240266 0 177.92920513 0 15270
0.12050000 0.12050700 13472.35857957 0 333.90903733 0 5352.30988227 0 245.01967908 0 383.73176318 0 15999
0.12150000 0.12150000 13468.95336207 0 42.51974262 0 4745.25846313 0 236.39019887 0 790.87165054 0 15670
0.12250000 0.12250700 13227.29276528 0 -48.64364184 0 5158.93746655 0 -88.79434169 0 473.91290716 0 16887
0.12350000 0.12352200 13126.67408043 0 350.81099916 0 4879.89636926 0 -66.49939410 0 155.58109221 0 16407
0.12450000 0.12449800 12808.23132130 0 106.78355651 0 4918.37532701 0 -199.31616795 0 -186.86515492 0 16306
0.12550000 0.12549900 12834.70414122 0 211.30473046 0 5091.59105205 0 -196.60407698 0 -676.65626175 0 17523
0.12650000 0.12650100 12738.69897686 0 38.35043825 0 4986.17210899 0 416.23950728 0 -430.60183593 0 17154
0.12750000 0.12750600 12490.66732797 0 -198.88008041 0 4364.36840887 0 374.52998673 0 -1002.83984919 0 18007
0.12850000 0.12850300 12488.69010491 0 103.72314475 0 4024.41785663 0 382.00169300 0 -1303.17673733 0 17496
0.12950000 0.12949900 12650.16332185 0 193.82058628 0 3834.56050413 0 20.07232917 0 -1133.36622980 0 18405
0.13050000 0.13049000 12123.12352940 0 200.76722998 0 4121.75215427 0 -374.99024032 0 -141.77018911 0 18100
0.13150000 0.13148800 12039.75062351 0 -30.59346263 0 4114.11787633 0 366.55848241 0 -1182.67597612 0 19059
0.13250000 0.13249300 12096.87040093 0 115.43907017 0 3825.82776893 0 166.56566479 0 -869.09608726 0 18957
0.13350000 0.13349100 12060.40161996 0 345.54279815 0 4340.41105607 0 -122.39010770 0 -787.58286951 0 19468
0.13450000 0.13450700 11638.15464993 0 119.60771547 0 4408.24079176 0 -119.24851994 0 89.86808366 0 19953
0.13550000 0.13551000 11896.29210559 0 -96.13818753 0 4543.46088024 0 360.79377872 0 -577.25137218 0 19956
0.13650000 0.13649900 11377.27105113 0 272.38884013 0 4328.85528572 0 212.97768087 0 143.73642760 0 19723
0.13750000 0.13749600 11405.50140266 0 72.57836642 0 4362.28134008 0 113.57938203 0 903.91608389 0 20946
0.13850000 0.13851100 11275.44406330 0 44.05912062 0 4502.40054793 0 462.31869080 0 776.52250338 0 20955
0.13950000 0.13949800 11239.74420241 0 -90.28703526 0 3718.04714276 0 581.63641355 0 886.57913298 0 20506
0.14050000 0.14048300 11229.85808708 0 126.29841863 0 3934.91555923 0 -86.02699832 0 773.80492012 0 21447
0.14150000 0.14148400 11211.29415942 0 147.13834973 0 3746.49718575 0 -28.37831373 0 999.52140981 0 21771
0.14250000 0.14249400 11001.37897739 0 -57.31596189 0 3723.14398444 0 41.15414056 0 810.85478498 0 22470
0.14350000 0.14350900 11100.24013062 0 56.24101162 0 3278.21387203 0 228.88334196 0 253.31742521 0 22519
0.14450000 0.14449900 11102.43704514 0 214.09151652 0 3043.59438627 0 363.46302986 0 568.74052534 0 22218
0.14550000 0.14550500 10736.84850049 0 43.86150816 0 3517.97413776 0 -320.31892413 0 699.43387146 0 23559
0.14650000 0.14650700 10619.26963558 0 245.39205610 0 3167.96171703 0 118.97390563 0 271.61003393 0 23044
0.14750000 0.14750500 10323.10358964 0 103.12294770 0 3490.73239776 0 -8.78095748 0 206.96252892 0 23649
0.14850000 0.14849900 10252.83527884 0 128.21962037 0 3067.50780078 0 15.83261369 0 286.43701000 0 23640
0.14950000 0.14949500 10182.32530744 0 -49.07423708 0 2986.74922316 0 618.81589637 0 329.79201952 0 24457
0.15050000 0.15050000 10060.69313524 0 -51.49589595 0 2684.91513777 0 2.07807243 0 142.37983288 0 24591
0.15150000 0.15149900 10176.17394679 0 193.32078823 0 2717.93476295 0 8.25810281 0 73.71197431 0 25020
0.15250000 0.15250500 9968.67537073 0 303.18958165 0 2736.28998373 0 -122.53620252 0 -10.75789494 0 25297
0.15350000 0.15350100 9607.92003801 0 149.97786174 0 2873.84978617 0 -234.89300162 0 324.01413435 0 25452
0.15450000 0.15450400 9467.30652440 0 -45.65550856 0 2690.59416179 0 193.86232766 0 -226.95994330 0 26061
0.15550000 0.15549900 9474.75406461 0 151.70793192 0 2962.22067258 0 86.44847637 0 -21.08389846 0 26128
0.15650000 0.15649500 9384.03247966 0 187.48248790 0 2645.54642964 0 10.09344913 0 -278.46221031 0 26331
0.15750000 0.15749700 9248.95519063 0 105.75594975 0 2802.57089469 0 -59.46157845 0 1.35502392 0 27345
0.15850000 0.15849900 8917.68245072 0 70.51996736 0 2791.97078215 0 -86.50526661 0 173.76275675 0 26980
0.15950000 0.15949700 8802.69594494 0 77.95344732 0 2925.25758585 0 403.00749115 0 445.54195310 0 27777
0.16050000 0.16050000 8902.72146286 0 7.11657504 0 2392.13234018 0 579.94149400 0 258.14514486 0 28224
0.16150000 0.16150500 8969.62849446 0 63.15898558 0 2444.73745828 0 270.04692925 0 781.73468307 0 28075
0.16250000 0.16249700 8912.68447020 0 109.23443435 0 2456.76556525 0 -324.27666563 0 612.70298173 0 28590
0.16350000 0.16349900 8702.53861214 0 142.81592042 0 2614.78962641 0 -208.40370484 0 475.07727186 0 29163
0.16450000 0.16449100 8423.44259199 0 186.18850525 0 2793.53059145 0 -341.67952397 0 751.92365154 0 28996
0.16550000 0.16550500 8380.98721897 0 -50.61932706 0 3123.59502838 0 351.26136663 0 928.70496883 0 30777
0.16650000 0.16650700 8498.59903760 0 -48.96691781 0 2752.49222829 0 265.86180710 0 793.94842932 0 29211
0.16750000 0.16749900 8585.73965188 0 -15.90335434 0 2562.68979865 0 234.22953344 0 885.94202777 0 30922
0.16850000 0.16850800 8463.82188080 0 111.10236092 0 2362.47399421 0 222.50240375 0 1194.08894703 0 30867
0.16950000 0.16949900 8491.56891114 0 159.46523708 0 2523.63964313 0 -120.85336600 0 1012.63589101 0 30852
0.17050000 0.17049200 8220.70033586 0 103.65383210 0 2657.82718178 0 251.11391995 0 1543.13472537 0 31257
0.17150000 0.17149500 8183.88004857 0 40.65741819 0 2435.85093906 0 -125.54158157 0 931.34785700 0 32608
0.17250000 0.17250900 8046.93538220 0 151.60248002 0 2623.85189879 0 -348.43942994 0 817.65423541 0 32361
0.17350000 0.17350400 7794.89436432 0 149.25287995 0 2682.28982492 0 98.08498333 0 855.15996003 0 32508
0.17450000 0.17449800 7835.16380740 0 65.13752680 0 2568.21503866 0 228.63289371 0 806.74765329 0 32791
0.17550000 0.17549800 7795.21291692 0 -87.52485464 0 2281.92412348 0 23.08056422 0 231.01105367 0 33633
0.17650000 0.17650100 7765.64244753 0 94.46051376 0 2228.84666876 0 39.51645063 0 324.28765020 0 33984
0.17750000 0.17750300 7596.83153610 0 76.10089915 0 1971.57699433 0 36.81512454 0 63.44359586 0 34069
0.17850000 0.17849800 7536.39441776 0 31.64369762 0 2265.48021832 0 2.12577842 0 117.04611314 0 34536
