### header ###
fiducial parameters:
Omega_m = 0.31
Omega_nu = 0
Omega_de = 0.69
Omega_k = 0
H_0 = 100
w_de = -1
zeff = 0
beta = 0
fgrowth = 0
b_1 = 2
gamma = 0.55
Lx = 3500 Ly = 3500 Lz = 3500
nx = 700 ny = 700 nz = 700
xoffset = -983.599254 yoffset = -42.9823471 zoffset = 800.977702
bins = 400 dk = 0.001
kx_ny = 0.628318531 ky_ny = 0.628318531 kz_ny = 0.628318531
############################
A(data) = 9.04071935 (not used)
A(ran) = 9.05041298 (used)
Ngal = 502821
weighted Ngal = 0
Nran = 25229228
weighted Nran = 0
SN(data) = 6724.86026
SN(ran) = 134.347145
SN(data+ran) = 6859.20741
############################
13 columns: k_central k_mean P_0(k) sigma^{lin}_{P_0(k)} P^img_1(k) sigma^{lin}_{P_1(k)} P_2(k) sigma^{lin}_{P_2(k)} P^img_3(k) sigma^{lin}_{P_3(k)} P_4(k) sigma^{lin}_{P_4(k)} N_modes
### header ###
0.00050000 0 0 0 0 0 0 0 0 0 0 0 0
0.00150000 0.00179520 132196.03564469 0 -31485.95915571 0 -93436.86144570 0 112044.83724422 0 -168877.91732283 0 3
0.00250000 0.00253879 161747.83126028 0 24524.92566519 0 45056.62965988 0 -78807.27814469 0 186976.09910785 0 6
0.00350000 0.00331552 110457.56650621 0 41547.27841159 0 36326.75044658 0 -87744.76577977 0 85167.12597783 0 7
0.00450000 0.00420575 53269.24535032 0 31547.69245362 0 60790.71173394 0 26949.55037107 0 7618.99840357 0 24
0.00550000 0.00557378 51403.62554311 0 -7957.31225451 0 39902.22882181 0 50612.18708862 0 -18189.13404599 0 45
0.00650000 0.00659388 61735.05543876 0 -16802.66129478 0 26732.05583396 0 34950.93273077 0 4462.70230262 0 40
0.00750000 0.00754703 86535.47418429 0 -15873.25660867 0 9582.90816625 0 -15343.03129017 0 12271.96448788 0 57
0.00850000 0.00846663 78940.85054727 0 4707.91091636 0 6372.80962879 0 -18074.23541679 0 -22035.16244390 0 75
0.00950000 0.00948925 74601.72468619 0 15603.36566035 0 38928.77599965 0 -33513.82109995 0 -20535.98797800 0 112
0.01050000 0.01054430 81504.10055913 0 8654.68981398 0 60300.03087674 0 -7775.45167085 0 3958.10399195 0 105
0.01150000 0.01145670 74844.81327742 0 -10901.79284237 0 49311.39400354 0 26500.50104394 0 -19170.60560614 0 144
0.01250000 0.01249090 73336.41177055 0 195.88348901 0 66208.63246824 0 10296.04858737 0 10097.06305506 0 169
0.01350000 0.01339930 85925.50086885 0 11160.21589692 0 58522.94672453 0 13897.79107564 0 8752.17789564 0 180
0.01450000 0.01448870 87578.45935089 0 -3635.67383297 0 58695.62420550 0 28956.76131886 0 23057.05723114 0 267
0.01550000 0.01550050 88023.44438616 0 -3090.58638777 0 41330.44294884 0 9217.85786565 0 31303.28571368 0 238
0.01650000 0.01653350 87401.93726951 0 -3807.16498011 0 36057.95795552 0 14918.36771417 0 42209.64813825 0 315
0.01750000 0.01747870 103814.42654619 0 -3770.53143055 0 44794.42791236 0 -906.44253558 0 21791.85416122 0 297
0.01850000 0.01844180 85206.01136477 0 5820.25267423 0 32947.56638338 0 4545.44908788 0 22659.41570370 0 388
0.01950000 0.01947590 86932.34679165 0 5574.46187815 0 36718.67999629 0 143.52552381 0 16033.30183118 0 399
0.02050000 0.02045430 87558.35758306 0 3618.20836257 0 50878.78266517 0 -5265.13631426 0 18142.77914970 0 462
0.02150000 0.02154770 79807.31363249 0 3963.18984906 0 41042.09791858 0 9185.12383936 0 1833.34713297 0 571
0.02250000 0.02255340 79307.84511722 0 -5263.56552038 0 39565.55167219 0 2344.74489407 0 10901.39739776 0 510
0.02350000 0.02348930 79568.28933312 0 2699.00834439 0 28552.74873931 0 4349.52825132 0 -18222.85668382 0 555
0.02450000 0.02439640 75101.52273864 0 7882.51829980 0 36520.18876974 0 324.05587572 0 6196.27656284 0 592
0.02550000 0.02547300 70229.64510737 0 3570.46941013 0 34256.26836073 0 -263.92083313 0 -3720.46374873 0 837
0.02650000 0.02652900 65873.93254169 0 -1060.77468189 0 35555.85314282 0 2354.20261106 0 -1343.34731926 0 723
0.02750000 0.02749970 67548.42078599 0 2294.54539737 0 31959.17454251 0 13229.70937124 0 -3488.45859124 0 826
0.02850000 0.02848090 66162.27757195 0 -4588.58550440 0 22710.49396620 0 11348.38162524 0 6491.22332122 0 831
0.02950000 0.02946900 66842.99153481 0 -1835.73078522 0 9872.08802402 0 3781.16449681 0 -1609.85501923 0 996
0.03050000 0.03053250 67614.98729583 0 3421.37580648 0 15760.22535681 0 597.26416497 0 3446.71721543 0 1041
0.03150000 0.03150510 63582.77039267 0 323.98447600 0 3352.08512264 0 -206.63628711 0 2256.20923906 0 1036
0.03250000 0.03246190 64098.27638391 0 4270.62606646 0 17728.99030056 0 -7256.80409185 0 -8489.92122526 0 1059
0.03350000 0.03345080 56789.91070837 0 5054.44122758 0 14381.99103503 0 -8653.42658813 0 -7949.31548567 0 1302
0.03450000 0.03451200 50252.22264513 0 4702.44059921 0 22289.45529916 0 910.08941368 0 -3543.55720731 0 1339
0.03550000 0.03553350 47493.99646995 0 1380.69486604 0 24183.85468654 0 1957.70347916 0 -6111.20104819 0 1365
0.03650000 0.03647120 48359.91032654 0 -2109.87276313 0 17880.90693936 0 11840.49047688 0 -4983.05249037 0 1308
0.03750000 0.03744890 46923.12823290 0 60.12328910 0 16035.16920852 0 1738.64913275 0 -3194.76407413 0 1579
0.03850000 0.03847530 48317.72956783 0 802.53836508 0 15261.63560734 0 -214.27056506 0 -800.85552856 0 1662
0.03950000 0.03950240 46280.86027407 0 -649.85280620 0 14604.75816698 0 326.48126935 0 652.08267443 0 1683
0.04050000 0.04050350 45041.80048689 0 267.16018358 0 16314.83642644 0 -2117.77067082 0 267.35900434 0 1822
0.04150000 0.04152450 45073.54590165 0 2581.63818636 0 17656.60196725 0 -2946.30402691 0 -6070.26154618 0 1887
0.04250000 0.04250150 45020.81995326 0 560.35819801 0 19837.69869900 0 389.48658076 0 -1068.79012451 0 1920
0.04350000 0.04349210 45929.68348864 0 -1031.84571154 0 19383.48662276 0 1938.16192454 0 -6156.47945638 0 2005
0.04450000 0.04448520 45678.24662226 0 -52.31424661 0 16916.46146672 0 3146.24521704 0 -5913.05034340 0 2151
0.04550000 0.04548030 45715.04494041 0 810.88993561 0 16700.61461550 0 1.74335053 0 -4843.49349573 0 2274
0.04650000 0.04648670 43490.11976405 0 760.00170622 0 17512.70406644 0 525.56676127 0 -3206.52855137 0 2311
0.04750000 0.04749250 41646.68879345 0 1820.55010591 0 15922.46749383 0 314.56959884 0 -2761.26890178 0 2568
0.04850000 0.04851840 41728.96324209 0 1175.42615821 0 14672.42313408 0 1169.45055073 0 -1643.31402731 0 2493
0.04950000 0.04949480 40045.57749400 0 -206.62749946 0 14921.66308595 0 2050.40228718 0 -2870.21389264 0 2644
0.05050000 0.05050630 39106.28669257 0 492.00230129 0 15477.15292139 0 -67.94507370 0 -3122.61740142 0 2829
0.05150000 0.05149060 38208.84711267 0 999.33027825 0 13423.36738585 0 1017.37134025 0 -2190.08211212 0 2784
0.05250000 0.05249300 36519.85923256 0 834.18601714 0 13572.75757296 0 496.89482992 0 1005.33774099 0 3055
0.05350000 0.05348950 36831.82109387 0 373.82807255 0 13217.40664995 0 1271.25556941 0 943.88125431 0 3009
0.05450000 0.05448610 36721.31629370 0 -114.54602442 0 12072.04526690 0 3625.83165594 0 1363.43810251 0 3336
0.05550000 0.05550870 35471.60147113 0 507.30381090 0 11486.67739404 0 1025.59658820 0 5841.22222329 0 3349
0.05650000 0.05647670 34261.76064702 0 1245.51871585 0 11018.51491062 0 1990.34962888 0 7473.17820256 0 3324
0.05750000 0.05747970 33624.21605439 0 367.54050320 0 14201.84404469 0 308.71262474 0 9005.95447598 0 3639
0.05850000 0.05849280 33676.94200279 0 798.25438177 0 12847.77578259 0 401.80797582 0 8122.76188673 0 3846
0.05950000 0.05951020 33125.18692202 0 138.27489811 0 13348.89198375 0 -323.68789254 0 5938.07319974 0 3787
0.06050000 0.06049470 31571.96835902 0 317.53103961 0 10951.64083274 0 -863.37422341 0 6841.59823285 0 3930
0.06150000 0.06148310 32664.16441079 0 60.33737842 0 13304.95369343 0 1977.65146297 0 5573.96757239 0 4083
0.06250000 0.06249100 32054.74032397 0 -235.16761594 0 11212.83199958 0 564.95963546 0 2423.65806349 0 4303
0.06350000 0.06350600 31646.22406967 0 1204.09589265 0 10805.32632596 0 22.55583118 0 2810.73243211 0 4470
0.06450000 0.06451750 30618.17792178 0 -41.55518730 0 10483.41244189 0 170.29382873 0 2707.90584818 0 4479
0.06550000 0.06550280 29960.53156134 0 -113.99679579 0 8194.90855944 0 1740.35174150 0 1258.34869663 0 4636
0.06650000 0.06648880 30653.98762840 0 812.75182067 0 9224.23990232 0 653.09764894 0 623.61944996 0 4653
0.06750000 0.06749660 29662.19057003 0 922.43277789 0 8519.75532439 0 -897.65487752 0 1166.23207096 0 5220
0.06850000 0.06852730 28942.26168305 0 201.92939776 0 8555.46616985 0 -1105.49836916 0 233.53201308 0 5029
0.06950000 0.06949320 28290.10760889 0 -211.98906933 0 9009.95286040 0 658.67012261 0 622.50781121 0 5040
0.07050000 0.07048030 27774.05238902 0 852.97403009 0 9960.42595672 0 182.90741342 0 37.55548474 0 5475
0.07150000 0.07148790 27539.09238151 0 541.54821592 0 10228.57035800 0 604.92810126 0 1842.39842078 0 5509
0.07250000 0.07249820 27628.83633950 0 -87.25188801 0 9968.88407761 0 1118.55902596 0 922.44376246 0 5916
0.07350000 0.07351270 26689.87507524 0 58.27107048 0 9814.19932652 0 347.59691322 0 2812.50094830 0 5721
0.07450000 0.07449140 26446.67663829 0 352.25217508 0 9733.04530429 0 1246.43043538 0 4219.96521772 0 6028
0.07550000 0.07549160 26258.62075570 0 706.87482093 0 9543.48453525 0 697.21828317 0 2744.19887599 0 6183
0.07650000 0.07648840 25320.20872008 0 395.80930074 0 9148.81982698 0 -1233.44667059 0 3337.88207029 0 6330
0.07750000 0.07749960 25122.70610506 0 402.03535648 0 10071.32620150 0 362.67433755 0 2965.86755068 0 6583
0.07850000 0.07848650 24670.69094334 0 -179.68344137 0 9642.02713588 0 1003.54945257 0 3229.90372182 0 6549
0.07950000 0.07947320 24548.21295906 0 66.23049177 0 8901.18362270 0 893.39835564 0 2338.45073398 0 6828
0.08050000 0.08048110 24397.39477752 0 971.48878058 0 9031.65837582 0 -703.44983119 0 3006.00517889 0 7147
0.08150000 0.08149960 23450.19508383 0 308.73349543 0 8985.49021726 0 -313.63371326 0 1735.69428272 0 7386
0.08250000 0.08250610 23138.01353107 0 129.02478954 0 9259.34659629 0 459.05846966 0 1347.47751855 0 7227
0.08350000 0.08350160 22677.86978563 0 475.13219472 0 8445.58749032 0 119.55169415 0 1367.27171834 0 7798
0.08450000 0.08449610 21971.78146011 0 386.83380648 0 8660.45671458 0 1208.72039771 0 697.82463158 0 7371
0.08550000 0.08548940 22156.98135383 0 -4.66938802 0 7960.86027145 0 -3.12821953 0 1756.10361858 0 8256
0.08650000 0.08650700 21332.36949015 0 444.88397720 0 7732.79857552 0 572.92125367 0 277.48018952 0 8037
0.08750000 0.08749060 20852.45351407 0 486.59459621 0 7705.42502064 0 518.01047379 0 2588.67929738 0 8155
0.08850000 0.08849210 20344.96626081 0 -88.23588602 0 6940.94270727 0 -108.30876442 0 440.72741494 0 8718
0.08950000 0.08949900 20667.36346607 0 350.64073828 0 6724.11822909 0 1039.93914462 0 -105.41993167 0 8571
0.09050000 0.09049190 19911.18548957 0 573.97796955 0 7402.78906145 0 -936.30409615 0 827.97424135 0 8932
0.09150000 0.09150830 19186.64308211 0 140.04451275 0 6942.42562457 0 -680.80623328 0 439.53449036 0 9285
0.09250000 0.09250820 19040.76795823 0 123.73461939 0 7810.75608713 0 979.09010481 0 8.05266933 0 9204
0.09350000 0.09350330 19182.35909880 0 596.49634334 0 7276.38958476 0 -254.26539383 0 -1423.24910022 0 9349
0.09450000 0.09448040 18709.25355772 0 190.47798085 0 7458.83235076 0 -187.03212043 0 424.09127976 0 9564
0.09550000 0.09549270 18630.60401804 0 74.10851738 0 7644.41670453 0 -298.64746088 0 -2045.90959699 0 10155
0.09650000 0.09649430 17986.24899042 0 149.13095119 0 7590.50442230 0 511.76135045 0 -1042.91047150 0 9913
0.09750000 0.09749140 18081.15569752 0 95.25491805 0 7224.87193935 0 223.31745904 0 -1721.83175213 0 10476
0.09850000 0.09850240 17615.95904870 0 306.89138261 0 6559.81099242 0 149.29352287 0 -753.19236967 0 10575
0.09950000 0.09950330 17266.75948634 0 278.43365042 0 6302.05799680 0 268.03675247 0 -2811.38052190 0 10882
0.10050000 0.10051200 17124.50927141 0 136.37896088 0 6222.35393815 0 650.96444494 0 -1710.44075036 0 10875
0.10150000 0.10150300 16651.51357606 0 108.49649076 0 5653.50686245 0 523.38961898 0 -1221.90188480 0 11118
0.10250000 0.10250800 16308.13583717 0 52.16562534 0 5232.19358109 0 582.68763715 0 -1024.78372983 0 11575
0.10350000 0.10349800 16272.32613055 0 146.63525630 0 5119.62368128 0 1186.08119362 0 -709.21453489 0 11364
0.10450000 0.10450100 16233.33089789 0 264.59858125 0 4914.95912494 0 -453.27619065 0 -135.55401948 0 12093
0.10550000 0.10551000 16035.49874570 0 550.18538534 0 4632.60068674 0 -60.80554091 0 -557.48353536 0 12067
0.10650000 0.10649700 15414.10147477 0 206.48579847 0 5151.41303433 0 -144.18899199 0 540.02245879 0 12054
0.10750000 0.10749900 15446.72565534 0 -278.20187594 0 5106.89256166 0 517.09875427 0 585.56559517 0 12807
0.10850000 0.10850100 15091.15504088 0 -117.45473924 0 4845.75631768 0 362.45684301 0 610.81033987 0 12736
0.10950000 0.10950300 15184.74359927 0 358.07180163 0 4956.12930298 0 -185.68211646 0 148.80141402 0 12933
0.11050000 0.11050200 15209.01950468 0 280.09341934 0 5228.43685727 0 -114.93487829 0 487.40306075 0 13428
0.11150000 0.11150900 15104.77591088 0 301.74511035 0 5265.44388229 0 204.76671286 0 -4.00486532 0 13453
0.11250000 0.11250000 14792.70420384 0 -201.70641094 0 5271.40850521 0 -54.90550728 0 867.97016857 0 13668
0.11350000 0.11349100 14900.46286087 0 33.65431378 0 5149.49073413 0 497.07277999 0 -734.54495926 0 13791
0.11450000 0.11448600 14659.79087561 0 338.38415220 0 4821.17284424 0 -90.33273108 0 -50.25837401 0 14205
0.11550000 0.11549300 14094.52477057 0 166.88641431 0 5000.11153159 0 -589.58594873 0 116.57707189 0 14776
0.11650000 0.11649800 14033.01116412 0 286.42602543 0 5119.83238816 0 331.68795675 0 -61.28435843 0 14553
0.11750000 0.11747300 13974.46339226 0 38.16238237 0 5182.16983756 0 296.55160444 0 -95.63564334 0 14568
0.11850000 0.11849100 13624.05552691 0 248.01407357 0 5145.56924171 0 184.21128219 0 -2.79305825 0 16015
0.11950000 0.11950300 13587.25720877 0 238.74638968 0 5036.41554397 0 73.30675342 0 459.61319058 0 15270
0.12050000 0.12050700 13407.32990988 0 13.90086676 0 5287.96225609 0 349.74769253 0 346.51273591 0 15999
0.12150000 0.12150000 13509.15689771 0 18.55909445 0 5139.18720504 0 93.77309921 0 399.88787254 0 15670
0.12250000 0.12250700 13214.77035253 0 -2.26963239 0 4769.76504456 0 -194.81798547 0 389.02522871 0 16887
0.12350000 0.12352200 13067.57707994 0 197.06103519 0 4881.07171853 0 536.86768954 0 983.11375374 0 16407
0.12450000 0.12449800 13085.37208753 0 82.03553418 0 4666.71876918 0 -65.56998942 0 44.89603521 0 16306
0.12550000 0.12549900 12944.00063840 0 174.90954613 0 4707.46054888 0 486.54077180 0 542.05460471 0 17523
0.12650000 0.12650100 12654.44730516 0 106.00837523 0 4159.46219194 0 198.60436764 0 421.10786985 0 17154
0.12750000 0.12750600 12253.29071449 0 273.51256190 0 4110.29524507 0 265.74097680 0 688.77554068 0 18007
0.12850000 0.12850300 12084.67752536 0 -8.94605560 0 4054.58149294 0 447.51588079 0 533.99302690 0 17496
0.12950000 0.12949900 12153.99017835 0 90.27857714 0 4029.00940797 0 -303.47078670 0 105.46408966 0 18405
0.13050000 0.13049000 11751.51543897 0 308.03927044 0 3636.16813874 0 -210.63906536 0 367.98977222 0 18100
0.13150000 0.13148800 11441.31110928 0 274.01675379 0 4051.39596689 0 -4.51175940 0 352.06214198 0 19059
0.13250000 0.13249300 11576.64104348 0 -252.27389082 0 3722.80346269 0 470.12542654 0 547.85665595 0 18957
0.13350000 0.13349100 11725.59184768 0 -195.85053530 0 3233.67143021 0 918.93419152 0 195.28482981 0 19468
0.13450000 0.13450700 11506.88900759 0 155.80078366 0 2967.85575832 0 342.22326031 0 737.72828839 0 19953
0.13550000 0.13551000 11989.44128108 0 9.22226268 0 2582.16544584 0 261.13734243 0 1236.86287266 0 19956
0.13650000 0.13649900 11628.15868888 0 -137.38295082 0 2637.41784593 0 -99.66698148 0 454.65804989 0 19723
0.13750000 0.13749600 11507.54808194 0 363.70469045 0 2745.87951559 0 -337.26152888 0 905.06397172 0 20946
0.13850000 0.13851100 10969.79833122 0 331.85492225 0 2995.74558810 0 -304.54178253 0 778.88638340 0 20955
0.13950000 0.13949800 11049.71109675 0 184.00587068 0 3023.64640246 0 126.27644948 0 254.08964067 0 20506
0.14050000 0.14048300 11119.68282409 0 -15.57041194 0 3233.42976962 0 -39.87355909 0 131.90933830 0 21447
0.14150000 0.14148400 10847.60594583 0 110.31586552 0 3002.10565563 0 150.62375461 0 308.32816470 0 21771
0.14250000 0.14249400 10462.42092369 0 -59.32910451 0 2814.52210965 0 131.72150211 0 521.78477293 0 22470
0.14350000 0.14350900 10688.71410344 0 6.52667054 0 2784.92967112 0 244.00690149 0 283.63045171 0 22519
0.14450000 0.14449900 10538.46711967 0 230.19050610 0 2675.33659048 0 -16.39062998 0 99.45311185 0 22218
0.14550000 0.14550500 10754.61055435 0 136.95565094 0 2591.13984164 0 15.82118973 0 307.63613663 0 23559
0.14650000 0.14650700 10350.71880511 0 72.54541270 0 2845.38875861 0 -168.92515098 0 206.27050085 0 23044
0.14750000 0.14750500 10378.77340348 0 100.57057242 0 2748.65861246 0 -126.62905426 0 14.03927237 0 23649
0.14850000 0.14849900 10216.67406590 0 -17.40329772 0 2892.99589618 0 248.16236530 0 81.63986988 0 23640
0.14950000 0.14949500 10153.38095869 0 32.55014455 0 2789.89469793 0 -130.97235426 0 -289.41602609 0 24457
0.15050000 0.15050000 10018.73206798 0 142.08105251 0 2382.59773118 0 65.34777152 0 -60.28201618 0 24591
0.15150000 0.15149900 10110.61801763 0 82.68516180 0 2812.33617971 0 50.01396727 0 -176.21341489 0 25020
0.15250000 0.15250500 9843.00087583 0 92.61181020 0 2585.81232394 0 298.91218908 0 -65.40445191 0 25297
0.15350000 0.15350100 9951.27580776 0 27.39881939 0 2370.00941101 0 368.62248360 0 -201.12203168 0 25452
0.15450000 0.15450400 9695.06065230 0 145.35775051 0 2275.09171933 0 -148.62016857 0 -210.95871642 0 26061
0.15550000 0.15549900 9490.80252515 0 146.78025266 0 2544.22473215 0 -133.98322560 0 313.37447734 0 26128
0.15650000 0.15649500 9460.74873457 0 99.03943285 0 2517.82880423 0 143.63646799 0 220.94259444 0 26331
0.15750000 0.15749700 9313.81909172 0 -7.42739450 0 2285.09866495 0 397.45588817 0 578.14991022 0 27345
0.15850000 0.15849900 9318.03716759 0 -37.98333384 0 2013.54904617 0 506.89848017 0 543.82971164 0 26980
0.15950000 0.15949700 9217.87983480 0 142.98727975 0 2112.89352059 0 -113.11912844 0 856.16175305 0 27777
0.16050000 0.16050000 9194.46072605 0 216.98595140 0 2241.56680381 0 -246.77721070 0 692.52127993 0 28224
0.16150000 0.16150500 8991.83930022 0 105.71761359 0 2249.35486577 0 -171.73500465 0 818.56265956 0 28075
0.16250000 0.16249700 8912.28902558 0 4.11410689 0 2174.85749453 0 273.71577650 0 388.62319336 0 28590
0.16350000 0.16349900 8928.26059412 0 -122.10560727 0 2087.60703451 0 79.25995238 0 312.42101644 0 29163
0.16450000 0.16449100 8962.78510574 0 55.47318999 0 1989.47086307 0 90.91469374 0 144.08463855 0 28996
0.16550000 0.16550500 8872.16238194 0 233.01573817 0 1943.77504113 0 -380.46714821 0 170.99134909 0 30777
0.16650000 0.16650700 8734.98703955 0 86.66344445 0 2042.36158005 0 -11.57422444 0 25.35535935 0 29211
0.16750000 0.16749900 8625.33903604 0 -34.62392201 0 1977.26700293 0 189.28615472 0 -235.92664990 0 30922
0.16850000 0.16850800 8654.12960078 0 61.12629043 0 1817.88085478 0 187.89770475 0 -212.03190917 0 30867
0.16950000 0.16949900 8564.70419539 0 249.96822903 0 2006.70565745 0 17.76161448 0 -124.24869738 0 30852
0.17050000 0.17049200 8291.62772102 0 103.71216018 0 2028.78464834 0 -117.10872520 0 250.80085963 0 31257
0.17150000 0.17149500 8230.37774431 0 57.54466069 0 1947.52078038 0 77.34841706 0 362.71058664 0 32608
0.17250000 0.17250900 8157.29738292 0 55.31742875 0 1847.67101562 0 114.39773269 0 238.24439472 0 32361
0.17350000 0.17350400 8137.36038369 0 59.02065771 0 1919.59799688 0 359.26033239 0 225.48141983 0 32508
0.17450000 0.17449800 7886.06631674 0 102.19321348 0 1857.62303838 0 -3.95163408 0 733.38828377 0 32791
0.17550000 0.17549800 8045.81495579 0 132.59587409 0 1868.56367267 0 -115.56539276 0 431.20928280 0 33633
0.17650000 0.17650100 7803.25362405 0 -0.75428314 0 1676.86091198 0 -127.14862454 0 155.87108493 0 33984
0.17750000 0.17750300 7781.86666124 0 33.54128253 0 1974.63070551 0 266.72299759 0 420.21811947 0 34069
0.17850000 0.17849800 7678.87530871 0 -9.24852679 0 1731.73983659 0 -13.34482769 0 383.44945967 0 34536
