### header ###
fiducial parameters:
Omega_m = 0.31
Omega_nu = 0
Omega_de = 0.69
Omega_k = 0
H_0 = 100
w_de = -1
zeff = 0
beta = 0
fgrowth = 0
b_1 = 2
gamma = 0.55
Lx = 3500 Ly = 3500 Lz = 3500
nx = 700 ny = 700 nz = 700
xoffset = -983.599254 yoffset = -42.9823471 zoffset = 800.977702
bins = 400 dk = 0.001
kx_ny = 0.628318531 ky_ny = 0.628318531 kz_ny = 0.628318531
############################
A(data) = 9.12427413 (not used)
A(ran) = 9.12169455 (used)
Ngal = 506673
weighted Ngal = 0
Nran = 25229228
weighted Nran = 0
SN(data) = 6707.21109
SN(ran) = 135.405271
SN(data+ran) = 6842.61636
############################
13 columns: k_central k_mean P_0(k) sigma^{lin}_{P_0(k)} P^img_1(k) sigma^{lin}_{P_1(k)} P_2(k) sigma^{lin}_{P_2(k)} P^img_3(k) sigma^{lin}_{P_3(k)} P_4(k) sigma^{lin}_{P_4(k)} N_modes
### header ###
0.00050000 0 0 0 0 0 0 0 0 0 0 0 0
0.00150000 0.00179520 52424.20218164 0 -18962.77749290 0 14438.67142955 0 -57277.40603953 0 -24534.70193478 0 3
0.00250000 0.00253879 95995.93731997 0 2815.01641542 0 26402.29896506 0 -80272.29058986 0 74070.95013906 0 6
0.00350000 0.00331552 72118.99159136 0 31477.06165192 0 18173.75564438 0 -54643.52522597 0 51456.24164577 0 7
0.00450000 0.00420575 52512.95752810 0 12353.36017070 0 21994.29983390 0 21272.06418667 0 39792.16340454 0 24
0.00550000 0.00557378 52111.25170880 0 -11650.56721695 0 20467.33439937 0 47594.83484625 0 -22055.37405745 0 45
0.00650000 0.00659388 69492.58028716 0 1138.53996348 0 29455.79045123 0 -7845.43438276 0 24505.92235462 0 40
0.00750000 0.00754703 61310.17217132 0 9113.77904044 0 29498.41059284 0 -9362.68945514 0 35878.57988526 0 57
0.00850000 0.00846663 44598.35329179 0 3026.45845304 0 34517.15195953 0 17905.95176485 0 22662.05200112 0 75
0.00950000 0.00948925 65354.80164149 0 -4881.58799344 0 23522.47357141 0 25809.90096575 0 32409.54201835 0 112
0.01050000 0.01054430 67184.28220491 0 -5544.91337791 0 28226.94631655 0 4364.53317746 0 12492.42485958 0 105
0.01150000 0.01145670 66841.78323183 0 -3776.26537744 0 19761.68545674 0 14096.94137654 0 21326.87720386 0 144
0.01250000 0.01249090 78889.33290187 0 -1551.39512395 0 11289.61416193 0 8549.43563950 0 22247.71392335 0 169
0.01350000 0.01339930 77293.71388870 0 -596.21403983 0 12634.34553734 0 6905.41859954 0 36621.13699176 0 180
0.01450000 0.01448870 90128.30818420 0 -9751.94975370 0 1435.68363638 0 17155.59561182 0 -4045.34346739 0 267
0.01550000 0.01550050 89507.46014190 0 5664.55734246 0 -6726.62271164 0 -28583.28585109 0 10291.14946800 0 238
0.01650000 0.01653350 86126.62839281 0 6803.37192026 0 5476.90788906 0 -20827.07915140 0 -12938.06896921 0 315
0.01750000 0.01747870 73904.86340163 0 5401.85030461 0 25854.60817616 0 -21002.17323835 0 -12690.47670323 0 297
0.01850000 0.01844180 67619.05158768 0 9820.47151746 0 29645.05463680 0 2151.35050920 0 -29100.00014532 0 388
0.01950000 0.01947590 67940.24048996 0 -1221.24281045 0 33876.42184086 0 5926.37462994 0 -18614.89607925 0 399
0.02050000 0.02045430 61563.69610649 0 -3835.46123908 0 16027.69969916 0 7871.76440324 0 -20034.76193111 0 462
0.02150000 0.02154770 67373.21685331 0 431.33780230 0 18184.19098833 0 7626.06148374 0 -22666.33598442 0 571
0.02250000 0.02255340 70160.88168301 0 3268.40464872 0 15860.07512157 0 -1505.53453343 0 -9300.59366633 0 510
0.02350000 0.02348930 64274.02954521 0 816.52282443 0 17062.00705342 0 -5038.64541221 0 -13345.59661198 0 555
0.02450000 0.02439640 61176.48992300 0 1985.42854036 0 26262.79489328 0 -12882.04764904 0 -20615.62612921 0 592
0.02550000 0.02547300 59203.99022457 0 5410.79174669 0 31147.63432021 0 -6701.28130269 0 -22324.71577714 0 837
0.02650000 0.02652900 55286.12272198 0 -279.09492169 0 38667.01363504 0 139.98849143 0 -21017.33194851 0 723
0.02750000 0.02749970 58399.04074581 0 1802.13996227 0 37300.75249737 0 1864.08196705 0 -11797.32110664 0 826
0.02850000 0.02848090 60354.62420246 0 -2882.22003047 0 37969.71296757 0 10673.57736242 0 -11154.06453627 0 831
0.02950000 0.02946900 62081.39901225 0 -3513.59129330 0 30671.67279026 0 7510.64657963 0 -11376.50213105 0 996
0.03050000 0.03053250 61948.70537547 0 -26.64319064 0 25569.55851767 0 5258.32587926 0 -4745.20354027 0 1041
0.03150000 0.03150510 60801.36676935 0 5429.78407268 0 27273.26572504 0 -2228.80273047 0 7507.71369875 0 1036
0.03250000 0.03246190 56835.49668458 0 4929.89814365 0 27197.25248278 0 408.61401700 0 900.26261505 0 1059
0.03350000 0.03345080 53987.08716851 0 1378.45401323 0 30879.72059495 0 5233.00643946 0 8868.10907466 0 1302
0.03450000 0.03451200 50350.20503255 0 -734.99972056 0 27686.61519128 0 5959.59197743 0 2042.86687039 0 1339
0.03550000 0.03553350 50034.94779947 0 1599.23293755 0 24976.94082691 0 3927.59983389 0 9992.74256926 0 1365
0.03650000 0.03647120 48261.59840194 0 1576.70357918 0 20613.31936897 0 2499.19896913 0 8282.19197317 0 1308
0.03750000 0.03744890 45912.10817251 0 1164.99081426 0 21629.50217847 0 -450.18623039 0 7594.32705356 0 1579
0.03850000 0.03847530 46050.18424986 0 1515.24489559 0 23369.56832108 0 -2157.63368472 0 2195.83802816 0 1662
0.03950000 0.03950240 41879.45188645 0 1369.41371000 0 23764.46370538 0 -688.75796537 0 3856.25503498 0 1683
0.04050000 0.04050350 41977.87365678 0 -1331.78056433 0 19462.46569962 0 1650.24529261 0 782.92870611 0 1822
0.04150000 0.04152450 43366.65316824 0 -505.33867086 0 22602.18608055 0 5067.50188438 0 -1896.60728647 0 1887
0.04250000 0.04250150 45144.83577771 0 -216.84095504 0 15738.80544027 0 3371.94522987 0 163.51854436 0 1920
0.04350000 0.04349210 43231.87246267 0 493.04473723 0 15154.64587040 0 1410.15548970 0 459.35285621 0 2005
0.04450000 0.04448520 44324.17836016 0 56.93864182 0 13563.64037772 0 -1164.29878619 0 1717.22921621 0 2151
0.04550000 0.04548030 42258.19994906 0 1872.72682568 0 14398.35804817 0 -2141.70605447 0 -6504.03133285 0 2274
0.04650000 0.04648670 40683.67131525 0 1672.34625265 0 14952.63958063 0 824.73928472 0 -1978.60712079 0 2311
0.04750000 0.04749250 38628.67747673 0 373.40406804 0 16134.90912756 0 2003.24551709 0 -1209.77491667 0 2568
0.04850000 0.04851840 39170.65628789 0 -351.48435346 0 14325.64017768 0 2064.05611090 0 -3451.66027309 0 2493
0.04950000 0.04949480 38337.36661187 0 535.10905947 0 12824.70818017 0 747.57376080 0 -1128.10461953 0 2644
0.05050000 0.05050630 37305.47586358 0 841.95210996 0 11033.78346651 0 1089.68058464 0 -5815.84786063 0 2829
0.05150000 0.05149060 36987.03310445 0 1011.71867920 0 12581.29005177 0 -3153.16549776 0 -796.96808832 0 2784
0.05250000 0.05249300 35071.54333771 0 1121.34910739 0 12932.90622010 0 1961.33937269 0 -1913.07316077 0 3055
0.05350000 0.05348950 35110.09918747 0 -1236.77499608 0 14573.34228939 0 -471.92579798 0 -1134.09121159 0 3009
0.05450000 0.05448610 34921.82361343 0 667.65001069 0 12915.00136679 0 2698.73373007 0 -3023.65738703 0 3336
0.05550000 0.05550870 36293.90657456 0 122.85805049 0 11888.82259624 0 1558.60100357 0 -72.04286850 0 3349
0.05650000 0.05647670 35036.94193408 0 -147.52280977 0 11636.39711832 0 296.46812168 0 1141.04444603 0 3324
0.05750000 0.05747970 35586.28040887 0 449.91161607 0 12887.64978106 0 316.09206060 0 1418.17422769 0 3639
0.05850000 0.05849280 34660.17109454 0 811.19310982 0 13082.07671575 0 -1907.55890533 0 -1093.49662516 0 3846
0.05950000 0.05951020 33306.65206107 0 780.82625891 0 14033.12100984 0 -449.78749040 0 997.03120720 0 3787
0.06050000 0.06049470 33098.27471920 0 -164.54010961 0 13485.10068376 0 2531.80118056 0 3195.81859310 0 3930
0.06150000 0.06148310 34338.98219226 0 -624.32465952 0 13070.76260599 0 2133.23694901 0 -1790.30957760 0 4083
0.06250000 0.06249100 33606.53089254 0 1409.06801702 0 11708.34606873 0 162.71776902 0 1936.84377583 0 4303
0.06350000 0.06350600 32416.24260762 0 703.18620145 0 12529.77240636 0 -8.32928284 0 1973.60914026 0 4470
0.06450000 0.06451750 30967.15779269 0 169.38650303 0 11436.25820589 0 815.70996606 0 3864.09801980 0 4479
0.06550000 0.06550280 31220.35219069 0 209.84817614 0 11067.50610433 0 2450.16383713 0 1840.43218229 0 4636
0.06650000 0.06648880 30305.55698612 0 282.28154620 0 9540.07931775 0 445.22010512 0 2558.47172278 0 4653
0.06750000 0.06749660 29787.30485173 0 667.26005837 0 9950.71559456 0 -713.51609351 0 1509.59882528 0 5220
0.06850000 0.06852730 28029.33385581 0 1012.70948765 0 9797.53572991 0 -860.81701491 0 451.55600659 0 5029
0.06950000 0.06949320 28049.21593219 0 570.94842443 0 9489.27566956 0 703.34328084 0 976.98106687 0 5040
0.07050000 0.07048030 27456.70808715 0 -18.66344789 0 10765.17771318 0 478.78786047 0 367.00445606 0 5475
0.07150000 0.07148790 27233.06218939 0 223.18674262 0 9057.99938087 0 -677.76021130 0 -327.28753698 0 5509
0.07250000 0.07249820 27325.33259908 0 269.39444564 0 9919.96977590 0 -496.82013482 0 -2894.23715288 0 5916
0.07350000 0.07351270 26269.05609965 0 407.74403885 0 9119.06261985 0 1056.26331793 0 -2319.96369832 0 5721
0.07450000 0.07449140 26517.85666862 0 385.98360056 0 10175.87736333 0 387.13807914 0 -1425.62176790 0 6028
0.07550000 0.07549160 26226.43595804 0 -161.02284947 0 8596.15302669 0 44.29704647 0 -3389.12510138 0 6183
0.07650000 0.07648840 26034.97485794 0 504.50274489 0 8979.76725495 0 137.87615813 0 -3231.22187053 0 6330
0.07750000 0.07749960 25163.34902362 0 103.36383938 0 7679.84195110 0 1060.87134613 0 -2252.13396264 0 6583
0.07850000 0.07848650 25518.26056372 0 278.63686501 0 7748.74817490 0 641.71982866 0 -1591.68653618 0 6549
0.07950000 0.07947320 24563.59136067 0 682.87023446 0 8175.26814366 0 -284.97825876 0 -677.08575854 0 6828
0.08050000 0.08048110 24240.42523533 0 69.13448322 0 7713.97101811 0 542.37864961 0 -1526.09765330 0 7147
0.08150000 0.08149960 23020.36875872 0 344.31142756 0 7796.05872901 0 96.37820045 0 -1223.97796902 0 7386
0.08250000 0.08250610 23285.20680366 0 330.00621869 0 7355.54441478 0 325.94741912 0 -240.14143040 0 7227
0.08350000 0.08350160 22940.29122460 0 169.81709828 0 7509.96553613 0 615.48207859 0 -380.13211875 0 7798
0.08450000 0.08449610 22851.53587815 0 417.82677802 0 7591.59189498 0 542.62360557 0 -1014.48239766 0 7371
0.08550000 0.08548940 22174.77636141 0 547.98078162 0 7067.13347709 0 296.92398145 0 871.17656531 0 8256
0.08650000 0.08650700 21931.24838728 0 253.77767880 0 7952.46805800 0 -42.52831059 0 432.29346011 0 8037
0.08750000 0.08749060 21275.13986700 0 144.63716255 0 7189.88607568 0 595.70325720 0 1099.73146855 0 8155
0.08850000 0.08849210 20866.29407552 0 209.23633544 0 7563.06495999 0 262.72681009 0 794.11100099 0 8718
0.08950000 0.08949900 20462.83072461 0 329.02529636 0 7633.35523994 0 -377.01359859 0 1841.25602523 0 8571
0.09050000 0.09049190 20339.91335742 0 667.94439724 0 7415.36639706 0 -410.92956490 0 475.46722418 0 8932
0.09150000 0.09150830 19364.26362075 0 460.34915694 0 8740.29258810 0 -75.40985969 0 1012.56998358 0 9285
0.09250000 0.09250820 19302.31063139 0 133.37138491 0 8430.45074930 0 740.98741108 0 1422.42525728 0 9204
0.09350000 0.09350330 19356.79411139 0 -329.22851095 0 8276.60082573 0 59.05394096 0 564.24234287 0 9349
0.09450000 0.09448040 18907.08570991 0 545.50376050 0 8165.60171979 0 352.84644046 0 1171.03232918 0 9564
0.09550000 0.09549270 19168.73822880 0 86.09389437 0 7392.48553237 0 819.58752018 0 888.51241776 0 10155
0.09650000 0.09649430 18791.63785208 0 -262.97176605 0 7662.05792809 0 385.93087462 0 1988.33945209 0 9913
0.09750000 0.09749140 19134.35651662 0 272.94136413 0 7128.83382128 0 870.06382811 0 787.79597022 0 10476
0.09850000 0.09850240 18402.34459980 0 265.32575996 0 7384.08233435 0 -849.10526362 0 2376.39144768 0 10575
0.09950000 0.09950330 17886.83860856 0 418.24089641 0 6508.68879162 0 35.14689751 0 1225.43891717 0 10882
0.10050000 0.10051200 17818.51456710 0 440.70324888 0 8087.18285613 0 293.26941415 0 977.92244474 0 10875
0.10150000 0.10150300 17306.08425618 0 408.65575837 0 7411.09339833 0 205.81464108 0 1576.38502658 0 11118
0.10250000 0.10250800 17141.97474182 0 -311.88936313 0 7205.19856986 0 844.54227217 0 952.32509526 0 11575
0.10350000 0.10349800 16933.26786277 0 -160.62410949 0 6126.86504870 0 5.12544550 0 1145.25153733 0 11364
0.10450000 0.10450100 16517.28209911 0 591.94213955 0 5960.28400550 0 336.16087471 0 595.42315060 0 12093
0.10550000 0.10551000 16147.21184885 0 461.81669584 0 6151.32769183 0 -27.02885899 0 1638.57967653 0 12067
0.10650000 0.10649700 15991.88999255 0 182.64268522 0 5765.05519701 0 607.57098942 0 -197.51799341 0 12054
0.10750000 0.10749900 15831.62507859 0 228.24294138 0 6064.22003126 0 103.75554924 0 -168.44951899 0 12807
0.10850000 0.10850100 15218.24654564 0 65.20530161 0 5370.73101049 0 -157.13540923 0 487.42942372 0 12736
0.10950000 0.10950300 15162.88429983 0 -6.68769339 0 5665.96336776 0 -44.87944850 0 -329.57891882 0 12933
0.11050000 0.11050200 15082.91661144 0 74.98915056 0 5385.48329146 0 -13.77234726 0 540.09825234 0 13428
0.11150000 0.11150900 14779.63256247 0 288.22310150 0 5440.16449377 0 496.80255951 0 -486.74069102 0 13453
0.11250000 0.11250000 14918.58740563 0 38.20489267 0 5319.12548850 0 478.03651571 0 629.94985914 0 13668
0.11350000 0.11349100 15037.98970958 0 174.21532114 0 5198.25125181 0 -156.40823053 0 333.97494476 0 13791
0.11450000 0.11448600 14301.58396373 0 263.16619299 0 5407.36456005 0 136.34490871 0 929.61668836 0 14205
0.11550000 0.11549300 14608.27323020 0 -51.26796607 0 5407.01305372 0 239.50322673 0 1071.78781436 0 14776
0.11650000 0.11649800 14415.93336430 0 -34.75002490 0 5387.98777401 0 287.25316375 0 591.73672804 0 14553
0.11750000 0.11747300 14594.87205165 0 147.24599854 0 5376.90434028 0 -138.07278198 0 430.39642442 0 14568
0.11850000 0.11849100 14038.50345041 0 375.51859827 0 5477.94043888 0 -63.95306033 0 997.05427481 0 16015
0.11950000 0.11950300 14016.20476807 0 -214.31120798 0 4850.34786902 0 362.36896643 0 1157.54327405 0 15270
0.12050000 0.12050700 13835.39870338 0 49.28261442 0 4844.30635410 0 583.55651684 0 408.54261727 0 15999
0.12150000 0.12150000 14056.84768662 0 238.54097818 0 4619.68282938 0 116.65616081 0 739.77910809 0 15670
0.12250000 0.12250700 13696.44386023 0 225.87247062 0 4496.83136963 0 -145.68618923 0 541.04512249 0 16887
0.12350000 0.12352200 13460.71493263 0 34.85360942 0 4189.03266133 0 70.48899087 0 399.17057995 0 16407
0.12450000 0.12449800 13238.49702931 0 -116.20689180 0 3890.68068545 0 1093.62075083 0 799.37261126 0 16306
0.12550000 0.12549900 13331.64620480 0 78.83935310 0 3554.54177989 0 705.62477657 0 1315.01810658 0 17523
0.12650000 0.12650100 13122.17040567 0 280.75249369 0 2977.76384279 0 -10.25703139 0 870.96236615 0 17154
0.12750000 0.12750600 12853.92714324 0 243.68615197 0 3235.59373042 0 312.78899963 0 1719.97535936 0 18007
0.12850000 0.12850300 12960.03811437 0 -118.22915161 0 3006.81803726 0 387.94654368 0 1692.25029816 0 17496
0.12950000 0.12949900 12663.45465468 0 -64.22404974 0 3033.44464120 0 -354.05144807 0 1062.47948756 0 18405
0.13050000 0.13049000 12582.49835475 0 288.11435424 0 2859.64673382 0 -706.83307955 0 542.70269450 0 18100
0.13150000 0.13148800 12343.36420966 0 382.47073425 0 3429.16386844 0 -433.65774402 0 271.24864149 0 19059
0.13250000 0.13249300 12252.52179441 0 61.38849217 0 3360.91671900 0 167.57075319 0 -31.34326956 0 18957
0.13350000 0.13349100 12265.59343578 0 -155.10875559 0 3225.45496992 0 333.87388670 0 -699.40531157 0 19468
0.13450000 0.13450700 12080.17385061 0 41.24025961 0 2734.99380417 0 366.43325828 0 -353.85702114 0 19953
0.13550000 0.13551000 12036.12571456 0 256.81381467 0 2724.52550650 0 187.16063993 0 -333.57620478 0 19956
0.13650000 0.13649900 11909.80312987 0 139.85667656 0 2557.26341980 0 -385.81114277 0 -703.52342783 0 19723
0.13750000 0.13749600 11524.68401517 0 148.18957332 0 2697.48148880 0 141.94154844 0 -482.91366594 0 20946
0.13850000 0.13851100 11464.59840315 0 222.09267919 0 3072.53873502 0 57.25433844 0 -357.66317553 0 20955
0.13950000 0.13949800 11297.85259136 0 207.78856878 0 3034.83968192 0 4.66285220 0 -52.74253510 0 20506
0.14050000 0.14048300 11151.97746748 0 -151.10707580 0 2953.37809166 0 115.67194311 0 -245.00430068 0 21447
0.14150000 0.14148400 11189.21516853 0 80.37950002 0 3047.65867812 0 239.03638240 0 -30.24613045 0 21771
0.14250000 0.14249400 10947.01632769 0 235.41696573 0 3071.11074058 0 82.68538149 0 777.04536903 0 22470
0.14350000 0.14350900 10877.14346150 0 157.23756576 0 3301.30344360 0 -403.26562861 0 545.49057902 0 22519
0.14450000 0.14449900 10742.20897191 0 157.55831528 0 3274.18253389 0 97.80377828 0 759.61395080 0 22218
0.14550000 0.14550500 10489.27820365 0 90.00385298 0 3638.25520753 0 -75.46544163 0 465.20214111 0 23559
0.14650000 0.14650700 10279.15431474 0 75.01254770 0 3413.25820735 0 283.63374708 0 1012.19321274 0 23044
0.14750000 0.14750500 10520.99066469 0 32.15030611 0 3240.81140239 0 434.37064278 0 630.59135818 0 23649
0.14850000 0.14849900 10380.47601223 0 58.45824759 0 3268.78910876 0 5.35427612 0 669.68215662 0 23640
0.14950000 0.14949500 10159.56527305 0 310.20542815 0 2893.03983447 0 135.37497095 0 991.36426621 0 24457
0.15050000 0.15050000 10033.50631811 0 -85.38571897 0 3146.62967708 0 98.42264909 0 896.04563764 0 24591
0.15150000 0.15149900 9883.80856297 0 104.91343303 0 2830.71336964 0 75.31671052 0 849.99940783 0 25020
0.15250000 0.15250500 9625.42944671 0 194.74548729 0 2819.17956843 0 285.53078276 0 936.68635927 0 25297
0.15350000 0.15350100 9535.72942701 0 128.56783132 0 2836.51322396 0 -26.65142907 0 1160.70683095 0 25452
0.15450000 0.15450400 9404.74938355 0 158.54802527 0 2702.39159274 0 388.52982449 0 1589.34682222 0 26061
0.15550000 0.15549900 9240.60691547 0 24.74373835 0 2719.76918657 0 290.44198517 0 1116.64771033 0 26128
0.15650000 0.15649500 9251.17407429 0 76.30081837 0 2894.23715288 0 -152.41863377 0 1694.16161379 0 26331
0.15750000 0.15749700 8915.86999624 0 236.29353463 0 2756.15009096 0 -312.30238306 0 1509.25830353 0 27345
0.15850000 0.15849900 8914.72760070 0 77.46891782 0 2960.17754208 0 -59.60382867 0 1759.99215727 0 26980
0.15950000 0.15949700 8861.92476030 0 96.35370485 0 3242.71173345 0 -446.24716266 0 905.44513639 0 27777
0.16050000 0.16050000 8769.35776715 0 82.22490821 0 3349.99805385 0 14.16273897 0 954.99874022 0 28224
0.16150000 0.16150500 8715.13791689 0 27.21164227 0 3527.43185476 0 94.74743080 0 579.46586201 0 28075
0.16250000 0.16249700 8804.10197023 0 -93.45795183 0 3172.67409867 0 -36.88949010 0 482.41386788 0 28590
0.16350000 0.16349900 8937.07022133 0 60.47029175 0 3114.35700284 0 348.61518310 0 241.74737491 0 29163
0.16450000 0.16449100 8789.83301045 0 89.72396607 0 3005.40102740 0 -176.49022612 0 406.13809434 0 28996
0.16550000 0.16550500 8695.15697937 0 102.90138887 0 2901.23432561 0 -131.64021627 0 -52.02776896 0 30777
0.16650000 0.16650700 8511.23129607 0 34.26901046 0 2884.82337418 0 531.42153846 0 348.54048801 0 29211
0.16750000 0.16749900 8569.53740733 0 -36.86609296 0 2438.57511306 0 349.84215986 0 -12.56898733 0 30922
0.16850000 0.16850800 8475.37765116 0 110.83653426 0 2336.19889660 0 332.56891947 0 347.52551350 0 30867
0.16950000 0.16949900 8408.27289726 0 148.27635145 0 2049.44662936 0 -213.83887136 0 -19.37118390 0 30852
0.17050000 0.17049200 8137.88764317 0 53.83868559 0 2265.65597148 0 182.84480136 0 694.66766542 0 31257
0.17150000 0.17149500 8057.87601649 0 57.32024587 0 1917.28025207 0 166.29983814 0 201.13301625 0 32608
0.17250000 0.17250900 8037.21403546 0 68.44673913 0 1971.82963950 0 -179.11553897 0 142.51164776 0 32361
0.17350000 0.17350400 7885.62693384 0 248.65337569 0 2016.39405047 0 -20.46261103 0 102.70410595 0 32508
0.17450000 0.17449800 7757.85438557 0 14.80072294 0 2167.75047607 0 111.16936681 0 521.16414458 0 32791
0.17550000 0.17549800 7860.69195408 0 -58.54085158 0 2125.99811568 0 168.47478351 0 225.37926331 0 33633
0.17650000 0.17650100 7877.43244269 0 -1.07379689 0 1865.16943974 0 -8.47554242 0 146.77036655 0 33984
0.17750000 0.17750300 7770.87110408 0 51.17174122 0 1760.47547847 0 29.96866015 0 187.79774514 0 34069
0.17850000 0.17849800 7647.06398652 0 42.03059961 0 1963.26167289 0 51.78797574 0 144.70197153 0 34536
