### header ###
fiducial parameters:
Omega_m = 0.31
Omega_nu = 0
Omega_de = 0.69
Omega_k = 0
H_0 = 100
w_de = -1
zeff = 0
beta = 0
fgrowth = 0
b_1 = 2
gamma = 0.55
Lx = 3500 Ly = 3500 Lz = 3500
nx = 700 ny = 700 nz = 700
xoffset = -983.599254 yoffset = -42.9823471 zoffset = 800.977702
bins = 400 dk = 0.001
kx_ny = 0.628318531 ky_ny = 0.628318531 kz_ny = 0.628318531
############################
A(data) = 8.97932262 (not used)
A(ran) = 8.96984134 (used)
Ngal = 498160
weighted Ngal = 0
Nran = 25229228
weighted Nran = 0
SN(data) = 6768.24929
SN(ran) = 133.151115
SN(data+ran) = 6901.4004
############################
13 columns: k_central k_mean P_0(k) sigma^{lin}_{P_0(k)} P^img_1(k) sigma^{lin}_{P_1(k)} P_2(k) sigma^{lin}_{P_2(k)} P^img_3(k) sigma^{lin}_{P_3(k)} P_4(k) sigma^{lin}_{P_4(k)} N_modes
### header ###
0.00050000 0 0 0 0 0 0 0 0 0 0 0 0
0.00150000 0.00179520 21313.58587103 0 -5405.81573531 0 -22004.84502358 0 37961.58438386 0 5360.28468196 0 3
0.00250000 0.00253879 34418.51049775 0 -19452.68943003 0 17251.82046763 0 -30467.79912315 0 24599.62075874 0 6
0.00350000 0.00331552 46644.22993506 0 -20191.18224467 0 -6414.44115888 0 2787.62089140 0 -54746.12113388 0 7
0.00450000 0.00420575 72371.41706928 0 -6976.70847560 0 -6396.04199980 0 -23460.41073633 0 -6070.67895994 0 24
0.00550000 0.00557378 63805.97690752 0 19758.17039351 0 14565.98262576 0 -10119.82308945 0 36554.13109902 0 45
0.00650000 0.00659388 79798.63582015 0 -12722.55165516 0 36038.07587915 0 24813.38054117 0 4131.68220788 0 40
0.00750000 0.00754703 66059.24228113 0 2323.36891583 0 23989.20806040 0 41610.11016676 0 4993.89426351 0 57
0.00850000 0.00846663 109336.04164566 0 -338.34790311 0 28670.94274029 0 -2944.00825124 0 -21324.13106071 0 75
0.00950000 0.00948925 70805.67609353 0 -106.93492393 0 29854.85997311 0 -5309.04165087 0 26180.74013610 0 112
0.01050000 0.01054430 72520.80725638 0 740.10974373 0 31712.90042524 0 12730.24085597 0 26700.53011065 0 105
0.01150000 0.01145670 69565.29815765 0 2133.58845534 0 28411.26744447 0 2516.04930347 0 8552.07193692 0 144
0.01250000 0.01249090 67237.55738193 0 4725.25555646 0 16655.57786791 0 10809.20388008 0 16540.78908444 0 169
0.01350000 0.01339930 72114.04853370 0 -5752.57672256 0 24667.83495447 0 14945.49960845 0 -82.23754047 0 180
0.01450000 0.01448870 72319.89942387 0 2168.00312123 0 18084.12153212 0 11138.46644321 0 1676.59728224 0 267
0.01550000 0.01550050 69426.89254312 0 7426.53770738 0 5611.08444314 0 -4278.17246783 0 6813.68643392 0 238
0.01650000 0.01653350 72129.97616394 0 -4226.50103841 0 21772.08193058 0 -13285.18146278 0 1542.66238875 0 315
0.01750000 0.01747870 69351.97775812 0 1731.44325313 0 16259.25448918 0 -6609.82375138 0 -17395.93805990 0 297
0.01850000 0.01844180 64872.68875090 0 4824.33640115 0 27709.90248515 0 -8600.34913342 0 -13068.67553720 0 388
0.01950000 0.01947590 60583.10331216 0 1884.22767317 0 33051.15090283 0 5071.44534594 0 3828.39815891 0 399
0.02050000 0.02045430 66031.56115823 0 -818.64504386 0 33969.68086208 0 9211.34401411 0 -6624.07074202 0 462
0.02150000 0.02154770 63992.49494995 0 -414.07554648 0 27111.57281664 0 3579.79531225 0 -793.23113673 0 571
0.02250000 0.02255340 65449.26896569 0 402.63621260 0 23437.89236254 0 14582.56933036 0 2445.95674583 0 510
0.02350000 0.02348930 67167.47580887 0 56.82934532 0 29252.68570420 0 -2267.89682429 0 7401.14137557 0 555
0.02450000 0.02439640 62958.51713287 0 4826.66513053 0 22367.33591876 0 -8369.77197036 0 -2713.78259451 0 592
0.02550000 0.02547300 59223.98214667 0 253.57007038 0 30948.15448213 0 -658.22964125 0 -893.66418230 0 837
0.02650000 0.02652900 59535.94400798 0 449.40412882 0 27629.71510530 0 2476.66961077 0 -5863.29022961 0 723
0.02750000 0.02749970 63108.23685716 0 169.79073530 0 24614.23024027 0 5428.47690855 0 -17592.45206338 0 826
0.02850000 0.02848090 64079.71245625 0 -443.70533256 0 19819.02492561 0 2545.74060316 0 -10421.34960681 0 831
0.02950000 0.02946900 62519.46376680 0 -3504.60591293 0 15981.67434005 0 -1155.40128240 0 -11264.89887362 0 996
0.03050000 0.03053250 57877.82277682 0 1957.51674143 0 18319.74061399 0 302.41077545 0 -10516.42108250 0 1041
0.03150000 0.03150510 59441.80622095 0 3934.65192949 0 12144.98282884 0 -1024.46737414 0 -6656.77181459 0 1036
0.03250000 0.03246190 58101.79821176 0 2464.18015175 0 18076.21263986 0 4640.07019609 0 -16783.21860131 0 1059
0.03350000 0.03345080 59479.15376773 0 -520.69180796 0 15207.81120169 0 6654.56391550 0 -2938.86747128 0 1302
0.03450000 0.03451200 54919.89707212 0 -373.94890284 0 10810.15953790 0 -2429.44693324 0 -11018.29521917 0 1339
0.03550000 0.03553350 52879.29302368 0 2151.71300010 0 13500.80862255 0 -2886.40515263 0 -7720.69357653 0 1365
0.03650000 0.03647120 49081.48689941 0 4966.94910697 0 14923.75015474 0 -2755.54593947 0 -10445.86717281 0 1308
0.03750000 0.03744890 47679.52590085 0 20.90188409 0 16760.59038179 0 256.61279699 0 322.33019937 0 1579
0.03850000 0.03847530 44801.67773027 0 414.91916166 0 14182.73088840 0 7150.94576588 0 -3008.23504713 0 1662
0.03950000 0.03950240 47149.08089090 0 67.49217977 0 10305.17676719 0 3479.92357834 0 -1182.31348522 0 1683
0.04050000 0.04050350 44859.23689059 0 -64.83050799 0 8649.63691059 0 6204.93240603 0 5447.89763287 0 1822
0.04150000 0.04152450 45181.19471295 0 2267.21578079 0 10700.96190187 0 -1441.81302788 0 4769.53436854 0 1887
0.04250000 0.04250150 42603.66475674 0 2489.64239099 0 10835.10550223 0 -2556.84600604 0 10103.36819972 0 1920
0.04350000 0.04349210 40327.11208926 0 -441.31838494 0 15112.13557451 0 669.71620880 0 8765.42529017 0 2005
0.04450000 0.04448520 40047.99409996 0 256.32280427 0 15282.17675807 0 2980.71869281 0 11182.29488781 0 2151
0.04550000 0.04548030 41606.70494926 0 894.02008245 0 15138.16901153 0 -2305.73867683 0 7038.92509470 0 2274
0.04650000 0.04648670 39558.52154574 0 261.53278705 0 13411.50404747 0 903.94574224 0 9825.19488367 0 2311
0.04750000 0.04749250 39678.91246123 0 -380.84611597 0 17733.16443814 0 211.99346316 0 8618.18807929 0 2568
0.04850000 0.04851840 38686.89571141 0 1260.27099683 0 15172.66056943 0 -106.97688499 0 8159.77989632 0 2493
0.04950000 0.04949480 38818.60073666 0 1804.46869165 0 17975.92349219 0 -234.47448941 0 5753.94979413 0 2644
0.05050000 0.05050630 36514.25710055 0 1611.05233764 0 18456.60838835 0 -799.48904773 0 4986.53459988 0 2829
0.05150000 0.05149060 35315.84023192 0 761.36928550 0 19976.65354216 0 72.13656691 0 2704.07223235 0 2784
0.05250000 0.05249300 33455.71271100 0 440.55385869 0 17148.67533109 0 99.09809046 0 3074.51595808 0 3055
0.05350000 0.05348950 34049.86824192 0 -225.71099740 0 16914.15470648 0 3462.96339828 0 -106.87846322 0 3009
0.05450000 0.05448610 33563.47136802 0 -292.62022591 0 14434.05790906 0 2844.27931678 0 -305.07233739 0 3336
0.05550000 0.05550870 34777.15679253 0 104.43099061 0 11394.51683008 0 650.27790916 0 -1950.58547613 0 3349
0.05650000 0.05647670 33428.36112527 0 -96.87646066 0 12336.99315756 0 -583.27201641 0 1105.47640001 0 3324
0.05750000 0.05747970 33981.65404619 0 -48.05234229 0 9705.47402711 0 1665.71157081 0 -1243.98087569 0 3639
0.05850000 0.05849280 32855.51566515 0 106.61812885 0 11631.78359784 0 1924.71680770 0 1276.79179399 0 3846
0.05950000 0.05951020 33404.41475704 0 498.36676264 0 9225.04177612 0 -50.94238334 0 -1359.30790322 0 3787
0.06050000 0.06049470 33158.68986840 0 112.89174779 0 11054.32461723 0 -450.03464329 0 1371.16025704 0 3930
0.06150000 0.06148310 32769.28677039 0 771.92436130 0 10920.71926093 0 -868.06024207 0 -703.19608757 0 4083
0.06250000 0.06249100 31042.84149778 0 1302.00138807 0 13011.22622260 0 -1925.30997462 0 -545.13138349 0 4303
0.06350000 0.06350600 31312.62260038 0 538.91191850 0 13966.33480855 0 -282.72971676 0 1042.67430319 0 4470
0.06450000 0.06451750 30247.88798007 0 -11.71724357 0 13437.97686739 0 932.26287189 0 -1574.66044868 0 4479
0.06550000 0.06550280 30740.43621461 0 -567.81123050 0 13324.28654117 0 1289.86343536 0 -881.09124052 0 4636
0.06650000 0.06648880 30033.13958610 0 1087.76487518 0 13067.68692567 0 1372.52234404 0 1793.00079788 0 4653
0.06750000 0.06749660 30096.41072417 0 269.25164620 0 12714.97230008 0 -381.67984503 0 598.08471254 0 5220
0.06850000 0.06852730 28583.72523399 0 936.55124903 0 12562.17689548 0 1229.50320903 0 2175.19801628 0 5029
0.06950000 0.06949320 29754.57082544 0 -538.70101471 0 13435.99964432 0 1656.34173040 0 286.80059936 0 5040
0.07050000 0.07048030 28531.21897706 0 927.14296261 0 11917.27263923 0 -705.69727474 0 1504.43607617 0 5475
0.07150000 0.07148790 27687.82349426 0 292.75863152 0 13305.39307633 0 -956.16640029 0 1005.85950819 0 5509
0.07250000 0.07249820 26076.82607948 0 461.31030704 0 12796.91721154 0 665.99463561 0 1810.44429914 0 5916
0.07350000 0.07351270 27527.55858030 0 177.02627326 0 12596.33891620 0 2027.37862305 0 932.55286461 0 5721
0.07450000 0.07449140 26506.21302168 0 -183.72466562 0 11190.20378007 0 1444.28455671 0 2042.07598116 0 6028
0.07550000 0.07549160 26799.06172670 0 351.68976497 0 11000.28052013 0 1251.10986330 0 171.95359765 0 6183
0.07650000 0.07648840 25714.77456720 0 510.94739362 0 9311.69906921 0 -462.36702292 0 1907.70170477 0 6330
0.07750000 0.07749960 26037.61115536 0 -185.92048168 0 9600.59332810 0 1121.59076799 0 551.90447095 0 6583
0.07850000 0.07848650 25597.45933203 0 -334.62193609 0 8944.86926786 0 148.98046255 0 518.69041883 0 6549
0.07950000 0.07947320 25189.60215208 0 670.16108399 0 7929.87279220 0 -281.77955123 0 -295.80025967 0 6828
0.08050000 0.08048110 24496.80515938 0 660.02122504 0 8394.98156444 0 -447.19183590 0 -444.41493595 0 7147
0.08150000 0.08149960 24615.54838898 0 570.60021348 0 8489.13033603 0 327.07223935 0 -1213.96003883 0 7386
0.08250000 0.08250610 23825.53792893 0 237.07893157 0 9290.14733781 0 -56.84648126 0 -1529.26121020 0 7227
0.08350000 0.08350160 22999.93745372 0 299.78985643 0 8780.89156836 0 -44.30220921 0 -671.23207981 0 7798
0.08450000 0.08449610 22725.76252209 0 615.93574144 0 9428.37719917 0 483.64963230 0 -403.74235906 0 7371
0.08550000 0.08548940 21849.63301300 0 386.69540087 0 9099.46614237 0 946.98439607 0 2463.11464820 0 8256
0.08650000 0.08650700 21362.24752757 0 142.92906151 0 8990.08176860 0 1071.88447860 0 1070.29501095 0 8037
0.08750000 0.08749060 21558.32214814 0 374.79032110 0 8119.53242239 0 1208.73138228 0 2684.79430747 0 8155
0.08850000 0.08849210 21193.08510981 0 106.21016183 0 8111.63451470 0 1000.59789792 0 3160.71189913 0 8718
0.08950000 0.08949900 20888.26322068 0 4.53667241 0 6891.24850091 0 693.82514870 0 4420.68631250 0 8571
0.09050000 0.09049190 20130.76709547 0 349.58292394 0 7106.77679953 0 -732.93791629 0 2610.37382823 0 8932
0.09150000 0.09150830 19928.87065143 0 634.50625985 0 7018.96612632 0 603.61434637 0 3223.64251545 0 9285
0.09250000 0.09250820 18921.69519144 0 432.93715606 0 7541.01892282 0 -783.65808173 0 2829.96641870 0 9204
0.09350000 0.09350330 18842.38657741 0 574.52609972 0 7195.00488651 0 -29.33781614 0 2006.50793514 0 9349
0.09450000 0.09448040 18114.54879817 0 145.50604224 0 7807.50465364 0 76.96988869 0 2322.40227344 0 9564
0.09550000 0.09549270 17638.80695967 0 188.47000098 0 6736.33307380 0 443.43291516 0 1300.28779474 0 10155
0.09650000 0.09649430 18007.00983260 0 18.12146908 0 7503.74826805 0 537.83543039 0 1484.33430834 0 9913
0.09750000 0.09749140 17136.48245552 0 504.82569132 0 6896.65291062 0 -326.89978156 0 1382.43042851 0 10476
0.09850000 0.09850240 16880.76160583 0 339.12780776 0 6940.20674091 0 456.61220535 0 1853.39397793 0 10575
0.09950000 0.09950330 17037.73114802 0 59.46915781 0 6502.29577038 0 447.25664488 0 712.62304776 0 10882
0.10050000 0.10051200 16414.35665403 0 314.07419462 0 7062.12451199 0 -431.96611985 0 860.87303623 0 10875
0.10150000 0.10150300 15765.93733455 0 130.30449225 0 6377.92843961 0 229.47760734 0 1378.80551956 0 11118
0.10250000 0.10250800 15897.75220553 0 -109.60999689 0 6707.34478676 0 245.29099803 0 451.78009187 0 11575
0.10350000 0.10349800 15964.75809827 0 422.48203988 0 6237.95203121 0 580.84222896 0 813.79974889 0 11364
0.10450000 0.10450100 15865.01817923 0 -27.26052362 0 6265.80890728 0 -560.28789674 0 47.31362979 0 12093
0.10550000 0.10551000 15626.21357132 0 -48.32475969 0 5700.52083310 0 535.57810072 0 542.12380752 0 12067
0.10650000 0.10649700 15858.86681859 0 -82.36287444 0 5774.11746939 0 414.36114537 0 -493.33472994 0 12054
0.10750000 0.10749900 15702.99573366 0 140.88263564 0 5308.48143767 0 318.83930220 0 -50.57692661 0 12807
0.10850000 0.10850100 15586.55926430 0 378.03077002 0 5320.90498926 0 -287.88148130 0 -581.88466489 0 12736
0.10950000 0.10950300 15245.48828565 0 40.30876785 0 5261.29171386 0 -58.36751502 0 -680.42616706 0 12933
0.11050000 0.11050200 14942.86331103 0 281.96958433 0 5053.70526122 0 525.86334473 0 -367.09123418 0 13428
0.11150000 0.11150900 14748.21668489 0 -107.84444653 0 5098.78594709 0 87.34536672 0 -508.83286340 0 13453
0.11250000 0.11250000 14769.74644715 0 273.99917847 0 4737.32760173 0 161.88513842 0 -415.69686940 0 13668
0.11350000 0.11349100 14669.01791658 0 88.82224250 0 4462.09815113 0 52.98782060 0 -577.57212170 0 13791
0.11450000 0.11448600 13982.81166742 0 307.43402049 0 4837.05653619 0 -84.66524086 0 -661.33607838 0 14205
0.11550000 0.11549300 13796.29362499 0 217.16499993 0 4904.55673471 0 -187.45942030 0 -444.23149359 0 14776
0.11650000 0.11649800 13747.85165991 0 -176.26174701 0 4639.53195204 0 612.45363193 0 -849.97194640 0 14553
0.11750000 0.11747300 14252.26323284 0 45.79358463 0 4514.27487089 0 428.31594638 0 -721.01196584 0 14568
0.11850000 0.11849100 14155.70883985 0 36.52853704 0 4277.43650147 0 32.83409575 0 -769.84717862 0 16015
0.11950000 0.11950300 14098.25952525 0 69.89066120 0 4290.50814284 0 -25.84439252 0 -32.47380177 0 15270
0.12050000 0.12050700 13632.84318498 0 66.74226300 0 4146.59925745 0 183.16115705 0 -391.98447257 0 15999
0.12150000 0.12150000 13842.53867556 0 44.23498363 0 4308.64367217 0 241.42113311 0 -283.67658691 0 15670
0.12250000 0.12250700 13537.05771207 0 92.85841385 0 4019.09033892 0 480.61459490 0 -473.26481738 0 16887
0.12350000 0.12352200 13606.37036506 0 221.78401270 0 4199.05059152 0 -275.89401724 0 -277.33079933 0 16407
0.12450000 0.12449800 13002.98779317 0 465.26804854 0 4492.77806235 0 -831.16196431 0 -322.90798789 0 16306
0.12550000 0.12549900 12910.27800058 0 175.29071080 0 4378.56047665 0 -13.16237394 0 -482.78185107 0 17523
0.12650000 0.12650100 12718.04798040 0 -92.83809239 0 4399.21147310 0 215.78094379 0 -1248.25387443 0 17154
0.12750000 0.12750600 12345.45127845 0 363.94744951 0 4634.18246519 0 -7.37766734 0 -1324.77240703 0 18007
0.12850000 0.12850300 12490.99686515 0 168.27596275 0 3937.57382580 0 60.93823454 0 -347.41237240 0 17496
0.12950000 0.12949900 12506.48511249 0 -411.31512339 0 3579.41085221 0 1204.02998521 0 -1079.47921209 0 18405
0.13050000 0.13049000 12260.76022384 0 -57.37220290 0 3593.62488913 0 400.55024226 0 -751.42165657 0 18100
0.13150000 0.13148800 12623.03142758 0 313.09217383 0 2966.98797708 0 -124.74520006 0 -419.69415536 0 19059
0.13250000 0.13249300 12344.79220409 0 155.87328184 0 3341.50697924 0 -233.66492641 0 -38.54574395 0 18957
0.13350000 0.13349100 12021.40638730 0 -172.54127228 0 3089.29020820 0 455.62029844 0 -140.30484712 0 19468
0.13450000 0.13450700 12222.97329416 0 40.59359782 0 2766.94792580 0 544.63158544 0 -8.67585709 0 19953
0.13550000 0.13551000 12152.78187537 0 128.36791210 0 2969.45950591 0 -23.01696354 0 421.51210212 0 19956
0.13650000 0.13649900 11986.69513794 0 346.48527448 0 2736.65247463 0 68.60821235 0 395.10628809 0 19723
0.13750000 0.13749600 11719.44048704 0 169.13056249 0 3365.12381029 0 -715.70531882 0 651.72018354 0 20946
0.13850000 0.13851100 11131.10677958 0 484.25488225 0 3412.59913299 0 -125.43173585 0 392.52711045 0 20955
0.13950000 0.13949800 10868.94897035 0 112.63690571 0 3650.70072826 0 293.83511964 0 870.29120876 0 20506
0.14050000 0.14048300 10630.58374534 0 -24.03105928 0 3515.88706897 0 714.53985567 0 1167.52825053 0 21447
0.14150000 0.14148400 11002.14789747 0 -128.09329779 0 2821.18974521 0 657.84078738 0 1034.79506928 0 21771
0.14250000 0.14249400 10777.37058874 0 4.68862201 0 2591.39248681 0 192.90996522 0 1421.16203143 0 22470
0.14350000 0.14350900 10750.18377160 0 18.20187615 0 2385.15713660 0 83.67377334 0 1374.32381394 0 22519
0.14450000 0.14449900 10819.15590284 0 240.35233420 0 2529.36260544 0 -340.97541287 0 656.63577977 0 22218
0.14550000 0.14550500 10603.19920589 0 173.51560387 0 2656.64084794 0 -626.71490251 0 486.70993422 0 23559
0.14650000 0.14650700 10460.10317887 0 31.75969470 0 3112.96196212 0 -143.55737907 0 248.74674456 0 23044
0.14750000 0.14750500 10614.06294817 0 33.86181236 0 3146.83838396 0 -124.75179081 0 -333.08189901 0 23649
0.14850000 0.14849900 10536.27020515 0 -58.97628003 0 2813.56645184 0 1.73060843 0 -458.29723878 0 23640
0.14950000 0.14949500 10741.81352730 0 -34.98081077 0 2826.19871031 0 363.69480434 0 -702.13278094 0 24457
0.15050000 0.15050000 10282.60347053 0 156.36319378 0 2813.72023586 0 144.22524108 0 -80.08906792 0 24591
0.15150000 0.15149900 10434.50912476 0 164.68071214 0 2713.02465900 0 122.11878876 0 -137.01606609 0 25020
0.15250000 0.15250500 10219.87057652 0 274.08046431 0 2886.30629147 0 -322.38841760 0 -478.76259596 0 25297
0.15350000 0.15350100 9933.46981561 0 194.86851451 0 3263.52749849 0 -52.38938109 0 -280.87332399 0 25452
0.15450000 0.15450400 9768.18495198 0 66.06198842 0 3145.76189585 0 -151.17298324 0 -381.23826521 0 26061
0.15550000 0.15549900 9560.53259190 0 -0.89592151 0 3007.52104991 0 351.00103226 0 -93.81341259 0 26128
0.15650000 0.15649500 9729.76091709 0 223.26033926 0 3064.82756507 0 -2.65855216 0 -735.24467653 0 26331
0.15750000 0.15749700 9428.13553857 0 63.92482998 0 2887.17407271 0 44.92635263 0 13.70226568 0 27345
0.15850000 0.15849900 9324.48511170 0 -16.67469102 0 2995.21832862 0 228.28358430 0 -222.06082393 0 26980
0.15950000 0.15949700 9216.33101006 0 55.92597407 0 2618.41453536 0 376.35013041 0 185.77218995 0 27777
0.16050000 0.16050000 9118.65619067 0 241.09159593 0 2776.52647310 0 -89.56359131 0 2.36667010 0 28224
0.16150000 0.16150500 8854.49918923 0 177.85451004 0 2691.29717444 0 -11.99075943 0 208.40919713 0 28075
0.16250000 0.16249700 8834.97960376 0 82.85234700 0 2974.35862529 0 100.21631995 0 212.12308112 0 28590
0.16350000 0.16349900 8721.23435468 0 7.42964634 0 2730.01779279 0 36.50250361 0 492.14949456 0 29163
0.16450000 0.16449100 8693.22369459 0 20.37583291 0 2718.63777559 0 -132.98143258 0 36.01951195 0 28996
0.16550000 0.16550500 8740.19372695 0 226.09985127 0 2867.53365693 0 216.43672277 0 384.40401903 0 30777
0.16650000 0.16650700 8603.77632006 0 8.08665560 0 3085.97286728 0 -328.84295245 0 342.42977028 0 29211
0.16750000 0.16749900 8312.35560948 0 118.01165707 0 3053.97480736 0 -39.21624226 0 166.24601373 0 30922
0.16850000 0.16850800 8364.15885377 0 133.45376921 0 3376.82238009 0 -123.52371559 0 54.87793600 0 30867
0.16950000 0.16949900 8178.66237659 0 -52.42727786 0 3326.28236165 0 155.45586809 0 382.71569022 0 30852
0.17050000 0.17049200 8260.60728805 0 121.90568805 0 3221.56643123 0 157.64069957 0 125.46468957 0 31257
0.17150000 0.17149500 8124.31071146 0 147.84355929 0 3176.52968365 0 58.90894461 0 245.75235008 0 32608
0.17250000 0.17250900 8250.07308294 0 45.52226569 0 3159.82214875 0 236.65163169 0 333.92551419 0 32361
0.17350000 0.17350400 8026.18552459 0 -21.61818807 0 2908.55005095 0 176.53855824 0 404.81005951 0 32508
0.17450000 0.17449800 8075.06687258 0 -63.74479284 0 2612.51581988 0 350.19696155 0 325.36963060 0 32791
0.17550000 0.17549800 8037.35683491 0 -25.73905047 0 2270.48918342 0 295.62670342 0 615.99945196 0 33633
0.17650000 0.17650100 8017.10128307 0 81.74081810 0 2020.37046574 0 99.97037537 0 543.80005330 0 33984
0.17750000 0.17750300 7873.68670344 0 144.31421612 0 2028.79563291 0 114.22197953 0 481.53949591 0 34069
0.17850000 0.17849800 7747.66070222 0 205.86846549 0 2035.25456159 0 -69.02694426 0 314.28070458 0 34536
