### header ###
fiducial parameters:
Omega_m = 0.31
Omega_nu = 0
Omega_de = 0.69
Omega_k = 0
H_0 = 100
w_de = -1
zeff = 0
beta = 0
fgrowth = 0
b_1 = 2
gamma = 0.55
Lx = 3500 Ly = 3500 Lz = 3500
nx = 700 ny = 700 nz = 700
xoffset = -983.599254 yoffset = -42.9823471 zoffset = 800.977702
bins = 400 dk = 0.001
kx_ny = 0.628318531 ky_ny = 0.628318531 kz_ny = 0.628318531
############################
A(data) = 9.0788655 (not used)
A(ran) = 9.08822722 (used)
Ngal = 504738
weighted Ngal = 0
Nran = 25229228
weighted Nran = 0
SN(data) = 6705.16597
SN(ran) = 134.908472
SN(data+ran) = 6840.07444
############################
13 columns: k_central k_mean P_0(k) sigma^{lin}_{P_0(k)} P^img_1(k) sigma^{lin}_{P_1(k)} P_2(k) sigma^{lin}_{P_2(k)} P^img_3(k) sigma^{lin}_{P_3(k)} P_4(k) sigma^{lin}_{P_4(k)} N_modes
### header ###
0.00050000 0 0 0 0 0 0 0 0 0 0 0 0
0.00150000 0.00179520 34662.14831761 0 -37962.68284112 0 -43924.44976392 0 53351.62964468 0 12062.59853448 0 3
0.00250000 0.00253879 42345.52730108 0 -20558.28666034 0 968.87005848 0 -52603.03102326 0 -18693.54561893 0 6
0.00350000 0.00331552 43773.08235375 0 103.43974278 0 -31125.66517504 0 -26489.40662563 0 47328.12942398 0 7
0.00450000 0.00420575 43359.07381316 0 -1992.94198801 0 -23777.86488393 0 -13950.29733258 0 12357.97369119 0 24
0.00550000 0.00557378 55684.97255241 0 -12882.59687767 0 -22926.67035460 0 -8983.74367022 0 -28925.67497845 0 45
0.00650000 0.00659388 81336.36613581 0 -14202.50311905 0 -34497.59942034 0 -3424.37459480 0 -699.93037414 0 40
0.00750000 0.00754703 88879.47212742 0 -15284.70320976 0 -30917.39767890 0 -1300.83702337 0 -24876.32214206 0 57
0.00850000 0.00846663 104778.87201884 0 -5992.44683402 0 -21439.79860999 0 -33427.92174237 0 -10884.65690914 0 75
0.00950000 0.00948925 107285.66132762 0 6835.13930417 0 -7699.83387320 0 -47290.89172292 0 -17860.14609718 0 112
0.01050000 0.01054430 97364.94460078 0 11219.53258886 0 27868.19017605 0 -26596.17667113 0 -26404.38603386 0 105
0.01150000 0.01145670 94322.32784148 0 10387.35235467 0 49451.11776677 0 -21745.60911066 0 -35432.38654701 0 144
0.01250000 0.01249090 84477.62435690 0 1363.98733114 0 60091.65353487 0 17258.30136545 0 -8824.43441408 0 169
0.01350000 0.01339930 79456.68607569 0 4786.03319655 0 62370.95234550 0 13564.51914352 0 -2809.76578973 0 180
0.01450000 0.01448870 95968.03650561 0 4396.97062030 0 73829.61907945 0 5183.86146173 0 -23585.63486376 0 267
0.01550000 0.01550050 90517.71128220 0 3779.93422468 0 60312.00406085 0 9364.20532615 0 11361.12372943 0 238
0.01650000 0.01653350 92749.11735638 0 -8493.17265874 0 65667.75211433 0 -628.49110790 0 -210.19199326 0 315
0.01750000 0.01747870 84402.48988044 0 -568.62738425 0 57608.15151995 0 17499.74227079 0 -9153.65303891 0 297
0.01850000 0.01844180 79485.24596441 0 13581.76492248 0 49246.47517958 0 -3505.68240105 0 -12155.41817279 0 388
0.01950000 0.01947590 81157.86683137 0 4250.50232950 0 67385.40972888 0 572.53789208 0 -7801.51806158 0 399
0.02050000 0.02045430 76882.23179981 0 5032.08762238 0 62838.78529174 0 8492.53555353 0 -4109.03201922 0 462
0.02150000 0.02154770 73218.98668965 0 -1838.61972781 0 57029.04485346 0 13626.91151579 0 -4148.81814111 0 571
0.02250000 0.02255340 68861.18705518 0 -799.38798966 0 42229.96959752 0 9628.28543558 0 -8267.53855335 0 510
0.02350000 0.02348930 69283.54387094 0 4105.64877087 0 40048.54332859 0 7074.87760076 0 5101.55405938 0 555
0.02450000 0.02439640 67429.12832775 0 2394.26334727 0 42138.35826219 0 160.39782729 0 2987.36435922 0 592
0.02550000 0.02547300 62517.37669801 0 2360.96910777 0 36051.14752052 0 14117.37268154 0 8978.88848914 0 837
0.02650000 0.02652900 64759.87719049 0 -1704.11363655 0 36145.94438189 0 5295.91508663 0 5183.90540002 0 723
0.02750000 0.02749970 57099.23627226 0 4238.54012995 0 24928.16932465 0 3162.61223018 0 16414.68619120 0 826
0.02850000 0.02848090 57749.19343190 0 833.12820280 0 28850.32081054 0 4194.68971621 0 16459.06386443 0 831
0.02950000 0.02946900 55601.48980079 0 436.97618340 0 25913.15594802 0 -73.57236039 0 -1243.77216881 0 996
0.03050000 0.03053250 55909.82675315 0 40.77835833 0 27751.53401523 0 1246.89178743 0 6728.02873693 0 1041
0.03150000 0.03150510 52438.37228027 0 -991.85637506 0 20074.74577531 0 2722.31760741 0 11190.31362579 0 1036
0.03250000 0.03246190 55471.87184433 0 -162.47720688 0 19163.24594251 0 4672.84816068 0 -400.73917691 0 1059
0.03350000 0.03345080 56490.03187690 0 956.57832176 0 17454.70552321 0 240.42263546 0 -278.60940358 0 1302
0.03450000 0.03451200 54530.71366556 0 2371.18476027 0 20042.23144047 0 -749.46091037 0 -1420.62378737 0 1339
0.03550000 0.03553350 49925.10207366 0 3024.41532254 0 19454.11742446 0 1016.60461709 0 -1508.77498234 0 1365
0.03650000 0.03647120 51674.28541151 0 1471.04297552 0 23194.69392559 0 -1743.81188186 0 196.86111597 0 1308
0.03750000 0.03744890 47242.23006639 0 -419.63703558 0 16126.56085240 0 5970.68639573 0 1742.75736289 0 1579
0.03850000 0.03847530 48776.33547310 0 -1193.36396524 0 18760.11212877 0 5156.61972173 0 -657.42447208 0 1662
0.03950000 0.03950240 46995.40672049 0 1325.68412655 0 14684.28647247 0 -272.97321939 0 3063.75107695 0 1683
0.04050000 0.04050350 45094.19689811 0 2939.64737593 0 17453.38737450 0 -1611.88716516 0 2644.15138892 0 1822
0.04150000 0.04152450 43173.98376516 0 2548.54166917 0 17319.70512618 0 -2838.32567844 0 425.85540212 0 1887
0.04250000 0.04250150 41324.95066255 0 1121.18433881 0 21978.81158656 0 92.80645683 0 1315.83096495 0 1920
0.04350000 0.04349210 40768.36236985 0 -82.23138911 0 21801.41073937 0 -116.90990444 0 997.07953932 0 2005
0.04450000 0.04448520 39253.15042798 0 104.28983885 0 20119.89236862 0 2397.89924079 0 -342.10243002 0 2151
0.04550000 0.04548030 38988.75176595 0 540.50028769 0 20643.52694357 0 1262.84138681 0 -536.88856023 0 2274
0.04650000 0.04648670 38513.44931035 0 1803.52401841 0 21077.30771481 0 2047.60122117 0 3424.56133253 0 2311
0.04750000 0.04749250 37143.34357228 0 192.81110406 0 19583.84522665 0 3109.68855949 0 3904.21367887 0 2568
0.04850000 0.04851840 37632.81612650 0 -325.76177984 0 17914.62957719 0 2564.75489830 0 4645.10113034 0 2493
0.04950000 0.04949480 38175.89339493 0 -795.36434073 0 15451.11948437 0 4867.57167883 0 10084.79328749 0 2644
0.05050000 0.05050630 39283.68753975 0 -2196.92550084 0 11887.83398471 0 3327.17211203 0 9308.31582086 0 2829
0.05150000 0.05149060 39251.61258782 0 -633.33091058 0 8927.00835284 0 2860.04217843 0 6958.25439366 0 2784
0.05250000 0.05249300 39978.13221835 0 1835.32435604 0 7980.07228889 0 -1500.63541406 0 7054.44629575 0 3055
0.05350000 0.05348950 38114.70932565 0 1341.37009620 0 10175.76751761 0 -1555.77796841 0 7174.23305975 0 3009
0.05450000 0.05448610 37253.07945237 0 1147.84389646 0 12283.38844336 0 -2910.79090376 0 2767.55207730 0 3336
0.05550000 0.05550870 36066.41607640 0 1335.73501046 0 13771.02910805 0 -680.43056089 0 1240.03741414 0 3349
0.05650000 0.05647670 33233.60465340 0 1059.36536123 0 14684.94554682 0 -1388.94428005 0 2295.09462600 0 3324
0.05750000 0.05747970 33503.16606455 0 781.85331645 0 17377.70366941 0 -216.17638840 0 651.78718943 0 3639
0.05850000 0.05849280 33347.51467107 0 -543.02124710 0 15503.29620413 0 2588.64634366 0 -97.43689355 0 3846
0.05950000 0.05951020 32169.41926172 0 40.87579149 0 13773.33586829 0 1888.80823993 0 1584.53557943 0 3787
0.06050000 0.06049470 32702.72026055 0 676.96382979 0 13426.11352900 0 896.29169206 0 2691.65966533 0 3930
0.06150000 0.06148310 32597.81759239 0 -119.49018054 0 12844.80994799 0 2090.81452971 0 2889.21720321 0 4083
0.06250000 0.06249100 31781.33431242 0 372.80540884 0 12332.26979135 0 1013.87385234 0 1922.46497032 0 4303
0.06350000 0.06350600 31242.10164440 0 994.02143432 0 10074.37991268 0 -2077.38039744 0 949.88652014 0 4470
0.06450000 0.06451750 31048.11409262 0 330.50052446 0 12700.14312710 0 -243.28301816 0 -10.16659540 0 4479
0.06550000 0.06550280 30396.17970992 0 -305.36782239 0 10953.12375004 0 1212.61992097 0 48.01653259 0 4636
0.06650000 0.06648880 29964.04662457 0 205.28408623 0 11013.68169868 0 1090.22541944 0 -244.84063055 0 4653
0.06750000 0.06749660 30442.97398911 0 243.73338564 0 9565.10217409 0 99.87711635 0 -1411.58348414 0 5220
0.06850000 0.06852730 28980.37814991 0 472.18283698 0 9795.63539886 0 565.22546212 0 -2117.18848847 0 5029
0.06950000 0.06949320 29823.00471262 0 417.46758250 0 10139.92485727 0 765.87515717 0 -413.84487046 0 5040
0.07050000 0.07048030 28192.23506719 0 634.35357429 0 10987.86795312 0 -218.10308243 0 402.17266363 0 5475
0.07150000 0.07148790 27717.59168595 0 231.24172970 0 8781.56162729 0 -73.77238946 0 114.84810017 0 5509
0.07250000 0.07249820 27391.24003456 0 327.88290081 0 11141.76181498 0 1123.27140760 0 -64.00677489 0 5916
0.07350000 0.07351270 27013.70027494 0 513.63202316 0 10192.58489823 0 -830.20960187 0 623.44699217 0 5721
0.07450000 0.07449140 26584.75271564 0 447.19842665 0 9440.51515187 0 788.97131948 0 649.40463564 0 6028
0.07550000 0.07549160 26631.87653202 0 15.79592522 0 10791.01342789 0 -235.98267122 0 -211.14545416 0 6183
0.07650000 0.07648840 26669.33392452 0 -270.09306446 0 9174.13926678 0 1014.17263272 0 -542.51595676 0 6330
0.07750000 0.07749960 26371.32247039 0 123.32928866 0 8983.72170108 0 146.40897411 0 -3234.40739658 0 6583
0.07850000 0.07848650 26044.86097327 0 884.64914358 0 9288.48866735 0 -768.05120100 0 -778.30749642 0 6549
0.07950000 0.07947320 25065.36663619 0 44.76037574 0 8636.79594524 0 170.34216085 0 -1731.83869775 0 6828
0.08050000 0.08048110 24736.92791601 0 187.31003011 0 9577.38292624 0 738.82125336 0 -135.51117965 0 7147
0.08150000 0.08149960 24805.58149464 0 494.57818356 0 8267.40673848 0 1103.09274776 0 -1982.28695260 0 7386
0.08250000 0.08250610 24337.19931977 0 65.23814548 0 8757.34064475 0 1271.18966198 0 1575.20967731 0 7227
0.08350000 0.08350160 24017.54825766 0 615.37662669 0 8717.36778513 0 30.14979575 0 811.89392555 0 7798
0.08450000 0.08449610 22979.17661154 0 656.94115089 0 8954.45879972 0 -155.46795112 0 2042.40551834 0 7371
0.08550000 0.08548940 22671.82827071 0 146.38810342 0 8586.26691137 0 731.19576308 0 2838.58930818 0 8256
0.08650000 0.08650700 22222.88878932 0 100.45226857 0 8680.37174467 0 605.74974728 0 2414.90335915 0 8037
0.08750000 0.08749060 22341.52217319 0 302.69198051 0 7720.69357653 0 739.01018801 0 3645.97736205 0 8155
0.08850000 0.08849210 22187.62831133 0 58.25250655 0 8010.54349323 0 658.19449062 0 2730.58899056 0 8718
0.08950000 0.08949900 21512.29678903 0 200.02357442 0 7412.12594815 0 -608.57827472 0 2294.46850536 0 8571
0.09050000 0.09049190 21250.31473296 0 291.62722055 0 7560.13207911 0 334.05842751 0 1419.33859238 0 8932
0.09150000 0.09150830 21163.20707239 0 66.16766001 0 7812.24998900 0 -621.04356769 0 1424.35854205 0 9285
0.09250000 0.09250820 20397.03313484 0 717.60894525 0 7683.04944629 0 -73.72449672 0 779.96616688 0 9204
0.09350000 0.09350330 20764.79662487 0 468.60516169 0 7983.29076866 0 -31.75134643 0 -439.65422220 0 9349
0.09450000 0.09448040 19789.69611682 0 149.60218936 0 7777.03344930 0 300.56536726 0 76.58839448 0 9564
0.09550000 0.09549270 19468.50721454 0 442.59039845 0 8171.78603416 0 976.37362001 0 387.03152879 0 10155
0.09650000 0.09649430 18980.13311758 0 115.12820677 0 7658.92732491 0 -528.59740484 0 1055.22307891 0 9913
0.09750000 0.09749140 18900.38512064 0 205.10503770 0 7617.63631657 0 127.93182457 0 -115.55111281 0 10476
0.09850000 0.09850240 18090.38273849 0 626.03825284 0 8317.40851287 0 -250.74373986 0 307.72071784 0 10575
0.09950000 0.09950330 17766.22800161 0 297.74452902 0 8013.28963638 0 -130.57031890 0 1075.54124282 0 10882
0.10050000 0.10051200 17373.19999465 0 275.25032129 0 8594.95570828 0 1010.26102642 0 412.22464600 0 10875
0.10150000 0.10150300 17439.32712159 0 153.75875162 0 7663.15638535 0 -8.67782332 0 314.82334247 0 11118
0.10250000 0.10250800 16989.94825729 0 193.76236805 0 7826.15645788 0 1141.13232261 0 872.05313420 0 11575
0.10350000 0.10349800 16811.99818147 0 -186.13138548 0 6890.13905908 0 -1.51349835 0 1493.16590470 0 11364
0.10450000 0.10450100 16543.20569041 0 212.79423850 0 6948.78569209 0 515.94866952 0 671.80108067 0 12093
0.10550000 0.10551000 16106.56893030 0 439.45759835 0 7114.75159923 0 -82.05398826 0 1487.76149499 0 12067
0.10650000 0.10649700 16206.41869506 0 192.06635004 0 6082.33359145 0 402.24296490 0 1316.29231699 0 12054
0.10750000 0.10749900 16162.04102183 0 -273.83001605 0 5990.56847211 0 1433.05832353 0 1267.02650897 0 12807
0.10850000 0.10850100 15892.91899359 0 92.29226898 0 5277.65872700 0 546.87683208 0 1512.53170616 0 12736
0.10950000 0.10950300 15608.41856373 0 552.46468415 0 4943.36522964 0 -696.64928231 0 1475.75535716 0 12933
0.11050000 0.11050200 15071.16311878 0 383.27480497 0 5503.87501474 0 -383.72517244 0 1175.49206565 0 13428
0.11150000 0.11150900 14667.04069351 0 29.76874092 0 5685.85642870 0 -226.67104905 0 538.03754652 0 13453
0.11250000 0.11250000 14267.31209728 0 621.79271554 0 5898.80335276 0 19.64964282 0 197.57731011 0 13668
0.11350000 0.11349100 14005.33004121 0 78.12535588 0 6083.14644982 0 -581.58368761 0 63.37318475 0 13791
0.11450000 0.11448600 14101.33520557 0 -11.04751418 0 5945.69649311 0 795.25559346 0 -714.41133617 0 14205
0.11550000 0.11549300 14095.95276501 0 -53.50519397 0 5480.95021177 0 218.54905608 0 -1018.01833158 0 14776
0.11650000 0.11649800 13925.14266137 0 208.99467485 0 5559.75353547 0 -49.56491794 0 -1047.09559366 0 14553
0.11750000 0.11747300 13865.82596943 0 44.13766032 0 5636.21714520 0 -294.40082512 0 -324.14265385 0 14568
0.11850000 0.11849100 13733.35202410 0 2.03552918 0 5653.58375446 0 310.31747079 0 -975.47178660 0 16015
0.11950000 0.11950300 13651.51695837 0 111.61753737 0 5597.24388169 0 -87.34360919 0 -511.41863178 0 15270
0.12050000 0.12050700 13534.64110610 0 157.98671361 0 5721.34758271 0 179.28030756 0 -887.72152853 0 15999
0.12150000 0.12150000 13519.81193312 0 219.56952287 0 5912.32536161 0 24.44396937 0 6.50629415 0 15670
0.12250000 0.12250700 13307.48014512 0 146.45071548 0 5670.81854884 0 693.34841825 0 179.44617460 0 16887
0.12350000 0.12352200 13309.56721391 0 -400.51069780 0 5125.79701107 0 1014.05399933 0 957.57352404 0 16407
0.12450000 0.12449800 13623.28660683 0 -65.54966796 0 4343.53067469 0 223.92161053 0 -263.65940030 0 16306
0.12550000 0.12549900 13306.60137931 0 182.88434582 0 4422.53172069 0 68.95049163 0 1369.12811111 0 17523
0.12650000 0.12650100 12912.91429800 0 234.56346444 0 4005.18387004 0 308.57861296 0 1327.28787415 0 17154
0.12750000 0.12750600 13103.71632374 0 135.91321501 0 4168.22788086 0 251.82681871 0 870.48453724 0 18007
0.12850000 0.12850300 12806.25409823 0 307.21213213 0 3648.50381375 0 334.40004772 0 487.97206161 0 17496
0.12950000 0.12949900 12670.70447258 0 -23.96064817 0 3580.37749460 0 464.92972371 0 1593.19142263 0 18405
0.13050000 0.13049000 12203.53060069 0 -0.58787016 0 3347.28486442 0 55.99363904 0 1629.89087962 0 18100
0.13150000 0.13148800 12344.57251264 0 218.23489730 0 3261.30861483 0 276.88702260 0 1429.70802890 0 19059
0.13250000 0.13249300 12161.67937916 0 -71.03799980 0 3000.19434000 0 253.57885804 0 1401.30192420 0 18957
0.13350000 0.13349100 11989.33143536 0 332.40854471 0 3569.92018150 0 -341.90251080 0 1958.31861523 0 19468
0.13450000 0.13450700 11738.66348905 0 183.63129676 0 3286.67199292 0 -457.76338855 0 1654.77093652 0 19953
0.13550000 0.13551000 11838.29356237 0 16.24991760 0 4085.26140415 0 187.21666125 0 1197.42825709 0 19956
0.13650000 0.13649900 11836.20649357 0 144.72503913 0 3990.58537308 0 196.42942227 0 1150.66693161 0 19723
0.13750000 0.13749600 11983.61945762 0 15.29030534 0 4086.85416718 0 -59.06075140 0 1141.09936890 0 20946
0.13850000 0.13851100 11753.27297059 0 -61.58720309 0 3672.58199685 0 -145.68509077 0 917.99501057 0 20955
0.13950000 0.13949800 11514.68805412 0 194.59719556 0 3959.12555720 0 217.54286923 0 1043.82548640 0 20506
0.14050000 0.14048300 11380.56642290 0 41.50169244 0 3770.52044598 0 -32.62626764 0 1076.51557440 0 21447
0.14150000 0.14148400 11594.43605106 0 93.99344974 0 3692.71671839 0 270.70710207 0 896.68713667 0 21771
0.14250000 0.14249400 11206.35110176 0 202.49949708 0 3507.61568582 0 -155.08349108 0 324.84786341 0 22470
0.14350000 0.14350900 11087.71771788 0 63.79883694 0 3480.57166812 0 27.45593917 0 137.05561055 0 22519
0.14450000 0.14449900 11043.34004465 0 51.25621258 0 3209.72506199 0 285.59339483 0 -39.87498708 0 22218
0.14550000 0.14550500 10909.26235173 0 28.93830724 0 3240.80041782 0 12.82130296 0 224.54663271 0 23559
0.14650000 0.14650700 10932.63752218 0 -58.50427295 0 2730.41323740 0 371.14454146 0 58.54019250 0 23044
0.14750000 0.14750500 10957.64939395 0 61.30742603 0 2907.44060912 0 -220.35162444 0 -520.01076446 0 23649
0.14850000 0.14849900 10634.90068236 0 361.89333444 0 2956.53066399 0 -330.07542150 0 -185.98419220 0 23640
0.14950000 0.14949500 10447.48190498 0 408.96442486 0 3321.73474860 0 -166.99845695 0 -406.02495324 0 24457
0.15050000 0.15050000 9950.22128879 0 113.50688385 0 3575.64314382 0 -276.09283800 0 158.41730885 0 24591
0.15150000 0.15149900 9834.48783208 0 223.33173898 0 3698.80217160 0 598.81189124 0 -173.07622096 0 25020
0.15250000 0.15250500 9836.42111685 0 18.17902824 0 3579.68546653 0 467.43200934 0 792.27438046 0 25297
0.15350000 0.15350100 9635.40343861 0 -58.30666049 0 3047.31815637 0 454.54161342 0 752.40697273 0 25452
0.15450000 0.15450400 9442.60222066 0 148.65422074 0 3184.22986902 0 62.21925540 0 1290.14903425 0 26061
0.15550000 0.15549900 9282.43616786 0 251.49947845 0 2971.26097582 0 -60.28641001 0 1674.48824430 0 26128
0.15650000 0.15649500 9296.82595794 0 -64.35696307 0 2984.71707723 0 367.02642520 0 1439.22066875 0 26331
0.15750000 0.15749700 9072.89446129 0 8.74513678 0 2805.21817668 0 424.47683826 0 1275.98992019 0 27345
0.15850000 0.15849900 9258.01746301 0 78.05131986 0 2822.92530768 0 -222.47823769 0 1248.35273558 0 26980
0.15950000 0.15949700 9281.87595465 0 61.54304511 0 2449.21916389 0 -41.60824279 0 1028.22629488 0 27777
0.16050000 0.16050000 8971.50685637 0 92.87115596 0 2836.84276114 0 -189.10381082 0 779.04675816 0 28224
0.16150000 0.16150500 8952.50354580 0 197.63003605 0 2738.86037371 0 -186.20608057 0 714.17406941 0 28075
0.16250000 0.16249700 8702.46172013 0 95.19735889 0 2799.39635321 0 115.83781016 0 823.87809423 0 28590
0.16350000 0.16349900 8718.41131952 0 75.63097914 0 3082.54568064 0 91.41174564 0 371.42025424 0 29163
0.16450000 0.16449100 8523.06168074 0 133.17036723 0 2947.74300592 0 -25.38809338 0 482.91366594 0 28996
0.16550000 0.16550500 8591.82510509 0 115.93996668 0 3122.13408022 0 -138.81204371 0 383.01666751 0 30777
0.16650000 0.16650700 8327.05296759 0 -50.23277995 0 2761.96092985 0 360.63889625 0 673.53774160 0 29211
0.16750000 0.16749900 8430.95603964 0 -81.25595906 0 2703.76466432 0 345.67351456 0 443.73608937 0 30922
0.16850000 0.16850800 8472.82923032 0 49.99957748 0 2487.10495472 0 223.27791457 0 820.27295751 0 30867
0.16950000 0.16949900 8351.98794735 0 42.59366880 0 2257.65920264 0 360.11273522 0 990.48440195 0 30852
0.17050000 0.17049200 8387.41319393 0 -72.01375939 0 1948.00410158 0 112.24805184 0 1352.96980484 0 31257
0.17150000 0.17149500 8326.75638413 0 119.45942374 0 1610.17357184 0 202.63021349 0 884.22294217 0 32608
0.17250000 0.17250900 8315.53015096 0 224.19292947 0 1964.96428164 0 -112.97193517 0 1001.46897453 0 32361
0.17350000 0.17350400 8050.27469226 0 83.78427814 0 1819.88004699 0 -119.24412611 0 975.34216864 0 32508
0.17450000 0.17449800 8046.85849019 0 39.09629073 0 2043.31723786 0 -91.33265672 0 793.83528822 0 32791
0.17550000 0.17549800 7938.46272796 0 80.58842659 0 1778.86365297 0 69.69821149 0 867.22102072 0 33633
0.17650000 0.17650100 8032.58953041 0 -47.28836527 0 2076.00732587 0 -3.86349387 0 296.12650148 0 33984
0.17750000 0.17750300 7792.78532638 0 188.76328907 0 1934.09763269 0 -221.30288842 0 513.05423464 0 34069
0.17850000 0.17849800 7844.92909243 0 115.23365866 0 2337.83559791 0 -542.02274945 0 -136.69531657 0 34536
