### header ###
fiducial parameters:
Omega_m = 0.31
Omega_nu = 0
Omega_de = 0.69
Omega_k = 0
H_0 = 100
w_de = -1
zeff = 0
beta = 0
fgrowth = 0
b_1 = 2
gamma = 0.55
Lx = 3500 Ly = 3500 Lz = 3500
nx = 700 ny = 700 nz = 700
xoffset = -983.599254 yoffset = -42.9823471 zoffset = 800.977702
bins = 400 dk = 0.001
kx_ny = 0.628318531 ky_ny = 0.628318531 kz_ny = 0.628318531
############################
A(data) = 9.06027089 (not used)
A(ran) = 9.05168243 (used)
Ngal = 502375
weighted Ngal = 0
Nran = 25229228
weighted Nran = 0
SN(data) = 6765.84416
SN(ran) = 134.36599
SN(data+ran) = 6900.21015
############################
13 columns: k_central k_mean P_0(k) sigma^{lin}_{P_0(k)} P^img_1(k) sigma^{lin}_{P_1(k)} P_2(k) sigma^{lin}_{P_2(k)} P^img_3(k) sigma^{lin}_{P_3(k)} P_4(k) sigma^{lin}_{P_4(k)} N_modes
### header ###
0.00050000 0 0 0 0 0 0 0 0 0 0 0 0
0.00150000 0.00179520 49004.81458279 0 -4514.02222572 0 -9805.55446790 0 -10195.85830086 0 -103693.59624780 0 3
0.00250000 0.00253879 90699.50595843 0 -27644.43443256 0 -40008.01025577 0 -16524.86145420 0 -39867.29788100 0 6
0.00350000 0.00331552 70804.35794482 0 -5762.86926707 0 -1809.60947162 0 -17363.20403360 0 106997.75568027 0 7
0.00450000 0.00420575 90449.05770357 0 -8462.44880923 0 -35951.95683011 0 -20551.03684244 0 -36479.98523409 0 24
0.00550000 0.00557378 91928.45993883 0 -2691.97821794 0 -27428.03835271 0 -39934.96284810 0 -22295.27712263 0 45
0.00650000 0.00659388 73272.37171240 0 31429.16891547 0 3503.97979230 0 -36552.15387595 0 6815.89433301 0 40
0.00750000 0.00754703 61806.45516054 0 16030.33599658 0 24127.17429202 0 -29015.41893644 0 -3521.29147868 0 57
0.00850000 0.00846663 45592.78664757 0 8364.12590006 0 26792.25129170 0 13181.81663479 0 380.52536645 0 75
0.00950000 0.00948925 43630.50260164 0 -10767.20985910 0 23777.64519248 0 26067.37934706 0 657.25421120 0 112
0.01050000 0.01054430 50321.09591521 0 -4822.76560727 0 3954.77566646 0 21174.41133643 0 8840.81241180 0 105
0.01150000 0.01145670 52526.57839810 0 1214.04791541 0 6811.62133427 0 4465.86585953 0 13272.87874149 0 144
0.01250000 0.01249090 56754.97976756 0 1126.48988736 0 9424.18109245 0 11006.10234360 0 36252.49473593 0 169
0.01350000 0.01339930 65087.21745341 0 -6009.53882895 0 13921.18821524 0 987.35709413 0 29640.88049922 0 180
0.01450000 0.01448870 68238.58148127 0 -3081.44722338 0 -4096.16908473 0 5265.96015721 0 11154.94330208 0 267
0.01550000 0.01550050 74611.06157289 0 1479.05072893 0 18920.15735128 0 1124.21608084 0 23828.83330071 0 238
0.01650000 0.01653350 72175.23260297 0 6965.21861268 0 23662.74656328 0 -32416.57214480 0 20428.55885815 0 315
0.01750000 0.01747870 64756.69166444 0 2543.13725946 0 30485.48428500 0 10871.17883859 0 18797.67936700 0 297
0.01850000 0.01844180 65712.45932474 0 -4319.94679736 0 40676.09196017 0 5718.62340871 0 9346.59705630 0 388
0.01950000 0.01947590 68820.43429091 0 -17.43196746 0 36045.98477140 0 9667.23672995 0 21156.72617457 0 399
0.02050000 0.02045430 73080.91061231 0 1518.38648335 0 30028.08668271 0 9923.79240716 0 12286.46412368 0 462
0.02150000 0.02154770 71574.48632850 0 1231.16187949 0 34547.24968841 0 3680.88633372 0 16172.91574869 0 571
0.02250000 0.02255340 66920.54261724 0 1789.41982722 0 30505.58605283 0 3458.18510920 0 28368.75714858 0 510
0.02350000 0.02348930 66692.17335327 0 -3130.76795427 0 34813.73541923 0 13996.10300024 0 28328.44376720 0 555
0.02450000 0.02439640 72587.92299485 0 -496.50817296 0 24033.47588790 0 5025.71657028 0 22141.38326076 0 592
0.02550000 0.02547300 70544.57280327 0 3150.32049347 0 21853.36776768 0 1969.01758892 0 14954.83649514 0 837
0.02650000 0.02652900 67907.17692649 0 1116.30718858 0 19819.24461707 0 -258.46809130 0 21350.27434345 0 723
0.02750000 0.02749970 66444.25155011 0 2668.66895492 0 33180.32947638 0 -6717.63733127 0 10856.59132620 0 826
0.02850000 0.02848090 61673.65167803 0 3067.67256936 0 23527.85601198 0 2922.45651984 0 2377.14938318 0 831
0.02950000 0.02946900 58332.47423597 0 2363.52851318 0 25320.86779443 0 -401.31147314 0 6125.05259422 0 996
0.03050000 0.03053250 54783.68837211 0 -415.91875776 0 24405.52336123 0 3002.64389968 0 5250.96621563 0 1041
0.03150000 0.03150510 55025.45881463 0 1900.44090230 0 19012.75729814 0 10098.97437069 0 1427.48914524 0 1036
0.03250000 0.03246190 56072.72796453 0 -366.21466529 0 18484.50920271 0 2711.61863371 0 -1303.81384254 0 1059
0.03350000 0.03345080 54593.54542073 0 339.43098196 0 12824.48848872 0 -1126.47890279 0 -3393.03560922 0 1302
0.03450000 0.03451200 51186.35069745 0 94.02508531 0 14431.31176592 0 -2858.82289088 0 -4249.37091852 0 1339
0.03550000 0.03553350 52501.09418971 0 2043.51496017 0 12830.20046646 0 -326.88110779 0 -7546.82976171 0 1365
0.03650000 0.03647120 49669.60091541 0 2035.96855881 0 16050.76730158 0 -3434.99667648 0 -6451.48113762 0 1308
0.03750000 0.03744890 47746.97117650 0 -102.53022017 0 15351.15987388 0 55.95035983 0 -9500.09547356 0 1579
0.03850000 0.03847530 49249.77055136 0 369.66821491 0 16916.24177527 0 961.34892163 0 -9828.66600861 0 1662
0.03950000 0.03950240 45725.59013008 0 2647.83122073 0 17757.76988073 0 -1306.10961821 0 -7865.64599631 0 1683
0.04050000 0.04050350 46826.46399419 0 966.89393387 0 20374.18522388 0 736.72320000 0 -2508.08548835 0 1822
0.04150000 0.04152450 44285.07328177 0 -823.96267544 0 15483.96335639 0 5403.23436075 0 -2791.16890835 0 1887
0.04250000 0.04250150 46449.80300037 0 -800.97416194 0 16434.67811330 0 4049.92403416 0 -1513.46539483 0 1920
0.04350000 0.04349210 44673.59761397 0 891.41673875 0 14135.27753485 0 -2487.69812164 0 -4068.90537558 0 2005
0.04450000 0.04448520 46282.72765141 0 772.91077591 0 14268.63024599 0 3308.52030778 0 4656.31637894 0 2151
0.04550000 0.04548030 45006.75970036 0 -1896.65122476 0 12738.25959395 0 1922.49792404 0 1880.15239674 0 2274
0.04650000 0.04648670 45446.58198652 0 1206.42462204 0 14208.76432542 0 -2328.76234096 0 -5591.47698108 0 2311
0.04750000 0.04749250 43145.42387645 0 3473.32185022 0 15232.74618145 0 -3177.46337231 0 -4965.47717424 0 2568
0.04850000 0.04851840 41438.09176013 0 1670.18229185 0 17617.49688886 0 -3242.64582601 0 -4207.65151186 0 2493
0.04950000 0.04949480 38305.07196848 0 503.09891651 0 20797.20111398 0 235.25988635 0 -4406.01092353 0 2644
0.05050000 0.05050630 38036.71886032 0 1010.95195604 0 20685.37816510 0 3687.75169158 0 -3727.31812202 0 2829
0.05150000 0.05149060 38362.30159163 0 -1156.86223055 0 14897.82656345 0 3092.38785767 0 -3156.81237586 0 2784
0.05250000 0.05249300 37469.69522367 0 482.42265554 0 15911.59276698 0 2263.26133466 0 -4563.49674063 0 3055
0.05350000 0.05348950 37750.02151595 0 1148.68970855 0 14971.53304547 0 -2937.04403223 0 -1938.54638458 0 3009
0.05450000 0.05448610 35475.55591725 0 1185.34522725 0 14053.44246912 0 76.08793736 0 -4140.14032877 0 3336
0.05550000 0.05550870 34752.00212132 0 410.62968606 0 17051.35201802 0 1910.43686335 0 -3086.00582100 0 3349
0.05650000 0.05647670 34599.42640817 0 -357.95866054 0 14175.92045340 0 880.41459085 0 -2530.08758723 0 3324
0.05750000 0.05747970 33952.98431175 0 913.70004269 0 15532.07578429 0 1353.95841638 0 -2613.96578346 0 3639
0.05850000 0.05849280 34069.20108967 0 475.32662165 0 15075.44710209 0 -169.36123852 0 -99.79692897 0 3846
0.05950000 0.05951020 33013.14428169 0 671.49241418 0 12966.29932074 0 1479.59995756 0 -1548.51716594 0 3787
0.06050000 0.06049470 32708.32239256 0 -232.75650226 0 16349.32798435 0 -632.21377955 0 152.81517684 0 3930
0.06150000 0.06148310 31222.10972231 0 951.04099872 0 13935.24846814 0 800.30080764 0 -592.89560045 0 4083
0.06250000 0.06249100 31157.63028125 0 680.39760718 0 14289.17139671 0 1718.80001009 0 3624.40366150 0 4303
0.06350000 0.06350600 31385.34047087 0 -228.97561237 0 12907.75154888 0 1351.69559442 0 68.79385163 0 4470
0.06450000 0.06451750 31458.16818708 0 130.33964288 0 13049.56238091 0 1558.72183387 0 2104.09487796 0 4479
0.06550000 0.06550280 30979.46051398 0 -77.14179725 0 11967.14259874 0 -250.87116090 0 1425.36912273 0 4636
0.06650000 0.06648880 30258.32332402 0 -244.12443642 0 11532.48306170 0 576.12765040 0 527.67030692 0 4653
0.06750000 0.06749660 30582.25836944 0 573.05197008 0 11139.01567184 0 544.05050155 0 312.52976371 0 5220
0.06850000 0.06852730 29976.56903731 0 457.36464857 0 10378.61961947 0 598.10778014 0 2164.64184202 0 5029
0.06950000 0.06949320 30078.06648796 0 -129.72340836 0 10394.53626514 0 888.09500400 0 2039.31885344 0 5040
0.07050000 0.07048030 29308.70702436 0 -153.12274487 0 8691.30139439 0 2190.93890878 0 1356.72652867 0 5475
0.07150000 0.07148790 29439.53328381 0 643.66080263 0 9105.91408647 0 680.62388937 0 2205.30672972 0 5509
0.07250000 0.07249820 29426.13210526 0 211.86164829 0 8137.56909057 0 145.56535893 0 2749.03208792 0 5916
0.07350000 0.07351270 28973.23817773 0 522.18131600 0 9163.59407710 0 298.81332793 0 4549.39254943 0 5721
0.07450000 0.07449140 28167.40993316 0 334.56152094 0 8514.81226673 0 -955.47986450 0 1872.92454798 0 6028
0.07550000 0.07549160 27395.30432642 0 709.44411245 0 8971.39701064 0 683.12068272 0 2481.26116211 0 6183
0.07650000 0.07648840 27319.40092988 0 149.47366986 0 8921.30735967 0 187.32760543 0 2348.74327849 0 6330
0.07750000 0.07749960 26177.11522715 0 846.62934096 0 9033.43787658 0 -1132.09201938 0 920.14139605 0 6583
0.07850000 0.07848650 25766.51190406 0 802.10337601 0 10533.88655290 0 -93.86416132 0 2667.24096048 0 6549
0.07950000 0.07947320 24818.10390738 0 11.44186034 0 9702.79379140 0 1284.29425707 0 2276.15722287 0 6828
0.08050000 0.08048110 24977.81959272 0 -138.84060360 0 9242.81481456 0 1257.43697710 0 2027.98277454 0 7147
0.08150000 0.08149960 24760.98412996 0 572.22593022 0 7857.36362859 0 505.62976203 0 1855.60187702 0 7386
0.08250000 0.08250610 23909.24037200 0 381.90063494 0 7714.01495640 0 675.56988753 0 2145.72640804 0 7227
0.08350000 0.08350160 23838.60957031 0 94.69162917 0 8267.26393903 0 813.51085463 0 1661.49349494 0 7798
0.08450000 0.08449610 23703.16979038 0 725.12019598 0 8588.31004187 0 -1528.42638269 0 1051.11704568 0 7371
0.08550000 0.08548940 22464.21984893 0 857.47221256 0 9027.85771371 0 -1846.51763550 0 886.39678908 0 8256
0.08650000 0.08650700 21310.62003643 0 11.59037176 0 9037.80973647 0 354.16349071 0 -174.25486560 0 8037
0.08750000 0.08749060 21508.56203435 0 -264.73039612 0 9749.09376483 0 1121.64569085 0 344.21805870 0 8155
0.08850000 0.08849210 21563.37505153 0 837.10132271 0 8694.86039591 0 -111.22099430 0 -836.79155776 0 8718
0.08950000 0.08949900 20713.38882519 0 342.30234924 0 8410.44784263 0 581.22778745 0 -427.31195644 0 8571
0.09050000 0.09049190 20253.68446266 0 -71.78912488 0 8598.95409270 0 197.83215219 0 -1128.87353961 0 8932
0.09150000 0.09150830 20407.68817025 0 473.56579467 0 7675.07464660 0 363.28837515 0 -1998.22556742 0 9285
0.09250000 0.09250820 19981.81629127 0 118.86955219 0 7733.92998649 0 302.73372188 0 -907.00494570 0 9204
0.09350000 0.09350330 19538.91832479 0 -8.92064829 0 6629.09069169 0 348.48117131 0 -2465.01497926 0 9349
0.09450000 0.09448040 18801.52396740 0 730.74100177 0 7061.90482054 0 -234.67221171 0 -630.18492899 0 9564
0.09550000 0.09549270 18496.37254109 0 184.77918459 0 6745.77980622 0 -166.43055455 0 -2283.53885565 0 10155
0.09650000 0.09649430 17914.08034856 0 169.57653614 0 6834.82075156 0 1347.20290424 0 -1201.53648724 0 9913
0.09750000 0.09749140 18117.07524986 0 109.98852526 0 6045.23868984 0 924.70548596 0 -1110.94671716 0 10476
0.09850000 0.09850240 17912.32281694 0 275.47660348 0 5920.71757506 0 -80.37181082 0 -863.55766577 0 10575
0.09950000 0.09950330 16966.44127197 0 633.32102446 0 6251.69373151 0 -577.87529590 0 -582.33503237 0 10882
0.10050000 0.10051200 17041.35605697 0 136.23616144 0 6717.58240840 0 -8.44882794 0 127.43861726 0 10875
0.10150000 0.10150300 16511.67996710 0 112.71819154 0 7419.82613353 0 625.46375970 0 941.13620962 0 11118
0.10250000 0.10250800 16500.03632016 0 -55.77987926 0 6414.99038750 0 245.18334922 0 183.90481261 0 11575
0.10350000 0.10349800 16436.87502782 0 225.19911632 0 6226.44019915 0 479.12288994 0 258.35824557 0 11364
0.10450000 0.10450100 16550.89489121 0 291.28889571 0 6502.18592466 0 -84.93809764 0 113.10155313 0 12093
0.10550000 0.10551000 16023.19602441 0 77.41970694 0 6272.69623429 0 472.88475117 0 914.45578128 0 12067
0.10650000 0.10649700 15624.56588543 0 39.39144620 0 5954.01181456 0 -12.05128442 0 52.48901116 0 12054
0.10750000 0.10749900 15402.67751929 0 395.28863200 0 6082.91577380 0 31.94775059 0 487.62055529 0 12807
0.10850000 0.10850100 15099.61316177 0 384.61162745 0 5651.39782451 0 229.11731336 0 170.94631234 0 12736
0.10950000 0.10950300 14829.17298481 0 13.89592370 0 5315.01725835 0 473.72067714 0 329.78433032 0 12933
0.11050000 0.11050200 14809.07121699 0 21.34093746 0 4912.87205615 0 652.75053645 0 277.71965320 0 13428
0.11150000 0.11150900 14573.34228939 0 37.37237191 0 4812.80259993 0 577.04925604 0 467.90764133 0 13453
0.11250000 0.11250000 14469.20854132 0 64.07422017 0 4035.05092289 0 183.72905945 0 601.12414377 0 13668
0.11350000 0.11349100 14376.71844019 0 111.54394073 0 4117.91853844 0 88.40405983 0 412.97049848 0 13791
0.11450000 0.11448600 14288.07293946 0 88.12241539 0 4145.89624480 0 146.19257803 0 370.93693304 0 14205
0.11550000 0.11549300 14354.52960357 0 -71.61941323 0 3789.58966398 0 -12.33897038 0 38.76433695 0 14776
0.11650000 0.11649800 14473.71221608 0 -7.57744377 0 3523.18082517 0 382.26971657 0 476.57007527 0 14553
0.11750000 0.11747300 14230.07439623 0 121.95511863 0 3676.00918349 0 -108.19166887 0 448.41112346 0 14568
0.11850000 0.11849100 13841.98944693 0 217.17488605 0 3628.30318477 0 -155.41083134 0 -39.30598622 0 16015
0.11950000 0.11950300 13897.46153846 0 314.21589560 0 4144.66597267 0 -72.31814189 0 247.01337901 0 15270
0.12050000 0.12050700 13383.71307883 0 144.94473058 0 4023.28644565 0 132.81995937 0 581.39365450 0 15999
0.12150000 0.12150000 13369.21344303 0 62.75958652 0 4409.40515646 0 455.48299129 0 389.19768650 0 15670
0.12250000 0.12250700 13416.77664230 0 283.13394903 0 4147.88445244 0 -141.28796637 0 954.48356377 0 16887
0.12350000 0.12352200 13176.98342285 0 29.43272285 0 4031.78850483 0 219.14771528 0 1023.96757609 0 16407
0.12450000 0.12449800 13337.02864536 0 -104.29917573 0 3894.58020872 0 368.02931668 0 852.12602108 0 16306
0.12550000 0.12549900 13001.55979873 0 -36.20075740 0 3533.46238510 0 205.54442060 0 1044.81629485 0 17523
0.12650000 0.12650100 13037.80888825 0 241.27943212 0 3804.48474440 0 38.93196153 0 1087.57594054 0 17154
0.12750000 0.12750600 12970.58330405 0 13.03286583 0 3598.89748397 0 -55.94563646 0 946.10013797 0 18007
0.12850000 0.12850300 12866.22986453 0 -7.57776232 0 3576.73061650 0 -142.76209601 0 35.76510925 0 17496
0.12950000 0.12949900 12732.87715339 0 295.54651604 0 3419.65122859 0 -76.76645440 0 153.13812327 0 18405
0.13050000 0.13049000 12437.83153385 0 99.06458752 0 3453.13220582 0 -37.04019844 0 119.23314154 0 18100
0.13150000 0.13148800 12391.14710038 0 98.94518521 0 3507.95620757 0 -272.07577981 0 -825.80478826 0 19059
0.13250000 0.13249300 12262.95713836 0 317.66285448 0 3635.27838836 0 -51.33376366 0 -571.31201378 0 18957
0.13350000 0.13349100 11871.68666301 0 96.07359825 0 3410.32532647 0 232.05458807 0 -618.10189915 0 19468
0.13450000 0.13450700 11871.57681729 0 218.64242495 0 3746.85967664 0 51.16361263 0 -507.62456042 0 19953
0.13550000 0.13551000 11459.10611686 0 65.98630472 0 3492.84143570 0 342.11451305 0 -599.26884946 0 19956
0.13650000 0.13649900 11613.76889880 0 204.79856812 0 3514.81058086 0 31.54934014 0 -399.44189889 0 19723
0.13750000 0.13749600 11286.86801878 0 -0.01634625 0 3781.39517284 0 -193.41415710 0 106.09658135 0 20946
0.13850000 0.13851100 11120.23205272 0 225.72857272 0 3883.22216067 0 87.12468666 0 216.63444508 0 20955
0.13950000 0.13949800 10813.25718736 0 165.64735453 0 3910.78245327 0 -366.97479771 0 213.30172576 0 20506
0.14050000 0.14048300 10844.39845063 0 464.93521599 0 4524.29280109 0 63.41602458 0 -41.19895762 0 21447
0.14150000 0.14148400 10481.74278686 0 59.35261149 0 4186.19864160 0 377.15420112 0 843.66790020 0 21771
0.14250000 0.14249400 10583.29516037 0 -236.72962216 0 4301.95406747 0 417.69166778 0 637.23702459 0 22470
0.14350000 0.14350900 10531.38207035 0 110.52017857 0 3855.16756229 0 204.23835492 0 282.76926122 0 22519
0.14450000 0.14449900 10420.93219305 0 -6.82453919 0 3502.66164359 0 255.92955657 0 1107.47559222 0 22218
0.14550000 0.14550500 10409.20066953 0 -100.01310536 0 3011.44254232 0 412.81232064 0 936.88957386 0 23559
0.14650000 0.14650700 10500.99874259 0 116.98350108 0 3009.83879472 0 160.74933361 0 553.23250577 0 23044
0.14750000 0.14750500 10262.30398040 0 308.86860567 0 2853.97869437 0 -301.59242479 0 205.45874093 0 23649
0.14850000 0.14849900 9982.34017902 0 241.97365711 0 3028.52355268 0 40.83613718 0 573.97357572 0 23640
0.14950000 0.14949500 9816.57199420 0 -55.50185973 0 3053.97480736 0 74.57239588 0 203.94067300 0 24457
0.15050000 0.15050000 9814.80347801 0 -78.67139898 0 2856.94452896 0 8.79742335 0 -240.80599704 0 24591
0.15150000 0.15149900 9681.25304457 0 281.07653858 0 3079.75559920 0 -270.51487205 0 46.76901468 0 25020
0.15250000 0.15250500 9407.83604844 0 239.53508200 0 3088.11485894 0 -297.78736885 0 -362.02185394 0 25297
0.15350000 0.15350100 9353.46241417 0 27.48449906 0 3227.73976102 0 369.92525391 0 -86.13464713 0 25452
0.15450000 0.15450400 9392.95195260 0 -52.64400348 0 3131.64672008 0 44.30462582 0 -806.93548948 0 26061
0.15550000 0.15549900 9204.05025792 0 115.42259331 0 2943.61280663 0 -14.67121483 0 103.96799087 0 26128
0.15650000 0.15649500 9336.46928038 0 107.88618791 0 3062.31209794 0 378.15489569 0 166.00215622 0 26331
0.15750000 0.15749700 9174.01843648 0 -81.28704540 0 2917.50247760 0 128.45029639 0 104.77513726 0 27345
0.15850000 0.15849900 9354.86843946 0 72.58561623 0 2487.35759989 0 268.97593343 0 -303.68278896 0 26980
0.15950000 0.15949700 9260.87345188 0 32.68701232 0 2831.10881425 0 117.91718975 0 475.75172461 0 27777
0.16050000 0.16050000 8943.94656376 0 124.68258800 0 2764.70707300 0 -246.14999160 0 396.05315825 0 28224
0.16150000 0.16150500 9030.52696485 0 163.56907339 0 2779.10784765 0 19.48454469 0 319.57526857 0 28075
0.16250000 0.16249700 8941.66177267 0 38.72028881 0 2837.77644981 0 -132.89355600 0 -106.50619606 0 28590
0.16350000 0.16349900 8848.62244290 0 39.44219492 0 2806.00906590 0 394.36043561 0 220.73937985 0 29163
0.16450000 0.16449100 8721.42109241 0 -30.15616680 0 2574.22359987 0 31.11874489 0 252.47930232 0 28996
0.16550000 0.16550500 8693.48732433 0 144.62068569 0 2730.64391342 0 12.61567176 0 135.31016197 0 30777
0.16650000 0.16650700 8762.85490019 0 133.33843119 0 2577.70570937 0 41.20258252 0 200.40803446 0 29211
0.16750000 0.16749900 8412.78755659 0 30.21877886 0 2448.69190441 0 -61.26041206 0 132.01259328 0 30922
0.16850000 0.16850800 8415.97308264 0 170.91116171 0 2521.22303716 0 61.55095400 0 -94.59935876 0 30867
0.16950000 0.16949900 8261.32128527 0 65.34557460 0 2434.53279035 0 182.27799741 0 146.86153850 0 30852
0.17050000 0.17049200 8265.66019144 0 -19.64469976 0 2363.55048233 0 308.60058210 0 315.59226255 0 31257
0.17150000 0.17149500 8162.05370285 0 74.47056889 0 2282.24267608 0 -189.57504898 0 -193.17359496 0 32608
0.17250000 0.17250900 8081.47087839 0 213.92235411 0 2193.10286958 0 -35.42645488 0 -244.37049085 0 32361
0.17350000 0.17350400 7912.59405953 0 76.40736873 0 2414.28822308 0 -268.24985318 0 10.45863125 0 32508
0.17450000 0.17449800 7826.50796421 0 -15.85073823 0 2180.50356483 0 98.92354560 0 -463.56324288 0 32791
0.17550000 0.17549800 7879.44261948 0 90.96719999 0 2418.15479263 0 48.56740890 0 -446.53495846 0 33633
0.17650000 0.17650100 7698.76836966 0 91.29300241 0 2318.42585816 0 -26.37868213 0 -317.05101379 0 33984
0.17750000 0.17750300 7841.83144296 0 19.82144153 0 2389.06764443 0 257.98477010 0 -367.79754220 0 34069
0.17850000 0.17849800 7735.55570323 0 -60.59716357 0 2079.11595991 0 29.85914396 0 -500.50545893 0 34536
