### header ###
fiducial parameters:
Omega_m = 0.31
Omega_nu = 0
Omega_de = 0.69
Omega_k = 0
H_0 = 100
w_de = -1
zeff = 0
beta = 0
fgrowth = 0
b_1 = 2
gamma = 0.55
Lx = 3500 Ly = 3500 Lz = 3500
nx = 700 ny = 700 nz = 700
xoffset = -983.599254 yoffset = -42.9823471 zoffset = 800.977702
bins = 400 dk = 0.001
kx_ny = 0.628318531 ky_ny = 0.628318531 kz_ny = 0.628318531
############################
A(data) = 8.97529738 (not used)
A(ran) = 8.97866979 (used)
Ngal = 498902
weighted Ngal = 0
Nran = 25229228
weighted Nran = 0
SN(data) = 6718.82208
SN(ran) = 133.282167
SN(data+ran) = 6852.10425
############################
13 columns: k_central k_mean P_0(k) sigma^{lin}_{P_0(k)} P^img_1(k) sigma^{lin}_{P_1(k)} P_2(k) sigma^{lin}_{P_2(k)} P^img_3(k) sigma^{lin}_{P_3(k)} P_4(k) sigma^{lin}_{P_4(k)} N_modes
### header ###
0.00050000 0 0 0 0 0 0 0 0 0 0 0 0
0.00150000 0.00179520 73611.46546798 0 -58247.23395273 0 17757.66003500 0 -97050.23659633 0 5807.76321521 0 3
0.00250000 0.00253879 96166.63757789 0 -39476.57663428 0 -28892.61141498 0 -64666.06894064 0 43844.81161271 0 6
0.00350000 0.00331552 51928.02903814 0 13101.40956349 0 -7439.74116362 0 -23025.97089074 0 25439.06179541 0 7
0.00450000 0.00420575 61681.01134166 0 -6439.51893808 0 -10374.66517334 0 -10862.25936565 0 -22395.23673312 0 24
0.00550000 0.00557378 66743.03192432 0 11375.95290242 0 18248.78027511 0 -13204.66454576 0 -27923.55242186 0 45
0.00650000 0.00659388 66091.31723307 0 6535.54607158 0 16609.11312589 0 -3054.78766573 0 36398.15016836 0 40
0.00750000 0.00754703 71370.06343276 0 1258.22786633 0 47440.39175576 0 15121.91184411 0 3043.61635541 0 57
0.00850000 0.00846663 62602.39728978 0 -3913.74828787 0 23094.40477792 0 9700.34423171 0 -37187.94093696 0 75
0.00950000 0.00948925 67997.36026739 0 8750.92565436 0 26160.63836828 0 -10459.77364170 0 -290.89784493 0 112
0.01050000 0.01054430 61038.30399993 0 852.52366261 0 45282.58231788 0 19762.23468537 0 21105.75775779 0 105
0.01150000 0.01145670 72446.00231710 0 -11676.82034542 0 22988.29380678 0 18361.04260689 0 10352.71799732 0 144
0.01250000 0.01249090 72816.40210455 0 -6112.92562609 0 19734.00433383 0 9506.18092677 0 -1171.15315948 0 169
0.01350000 0.01339930 75889.66582135 0 5539.03663158 0 258.31540574 0 -4123.79528477 0 -9974.10174959 0 180
0.01450000 0.01448870 79908.37170024 0 605.76073186 0 25468.39060420 0 -16732.25018453 0 -5130.36659326 0 267
0.01550000 0.01550050 72872.09388753 0 4962.18180247 0 34546.92015123 0 -2794.83775559 0 10677.12537936 0 238
0.01650000 0.01653350 74724.97159056 0 -1399.37962400 0 29945.04331400 0 7539.76668154 0 676.11801770 0 315
0.01750000 0.01747870 69589.46421733 0 2924.84017209 0 31466.07707934 0 12114.55556279 0 -1354.61749073 0 297
0.01850000 0.01844180 75738.84763981 0 6771.31893747 0 39665.18174550 0 9138.88977336 0 744.03123614 0 388
0.01950000 0.01947590 69812.45104073 0 -3548.24761980 0 31028.23201625 0 7257.50710449 0 31840.32146718 0 399
0.02050000 0.02045430 74187.49645415 0 -1260.65545687 0 27912.67769500 0 13769.60111362 0 18077.09140566 0 462
0.02150000 0.02154770 66320.12587994 0 3314.77052958 0 32335.28630770 0 -1473.20693632 0 33366.95736454 0 571
0.02250000 0.02255340 67122.76859846 0 2159.63287693 0 29281.02590146 0 3798.50913692 0 24971.44854062 0 510
0.02350000 0.02348930 65460.03384682 0 4559.31161848 0 38721.82665222 0 2696.93226017 0 19281.43994348 0 555
0.02450000 0.02439640 66286.73277929 0 -859.06607404 0 34687.74237172 0 -1495.08820490 0 31469.81183402 0 592
0.02550000 0.02547300 67905.52924061 0 -2835.75528845 0 29169.42264403 0 8988.07159182 0 9808.15781160 0 837
0.02650000 0.02652900 69363.29186788 0 -2447.37375570 0 28802.53791981 0 -1743.21871494 0 7982.57677144 0 723
0.02750000 0.02749970 66889.67596828 0 4878.61117427 0 25575.92956977 0 6714.14423718 0 15749.35062995 0 826
0.02850000 0.02848090 67937.38450109 0 6619.22654551 0 40432.23444886 0 -13518.71347586 0 9552.56877678 0 831
0.02950000 0.02946900 60207.21123842 0 2093.53870371 0 31665.33722596 0 4784.57224840 0 -798.02809958 0 996
0.03050000 0.03053250 58838.53349479 0 -712.40884859 0 39947.81479802 0 6263.15064071 0 2973.12835316 0 1041
0.03150000 0.03150510 54051.34691811 0 1045.74339277 0 29051.66802596 0 879.21946936 0 11327.29124588 0 1036
0.03250000 0.03246190 57193.70359646 0 387.85207636 0 28918.42516055 0 11575.54258622 0 -42.10639316 0 1059
0.03350000 0.03345080 53112.49549958 0 -614.27707098 0 22327.46192029 0 7919.92076944 0 14862.89562264 0 1302
0.03450000 0.03451200 55969.58282799 0 921.83741406 0 16018.14312102 0 2769.37551635 0 2621.63301513 0 1339
0.03550000 0.03553350 51278.07187850 0 1700.31297444 0 15096.75717289 0 -1930.98899865 0 8654.23944650 0 1365
0.03650000 0.03647120 49102.35758731 0 3982.63254253 0 17166.03095577 0 1004.81926916 0 3600.27055554 0 1308
0.03750000 0.03744890 44566.16849412 0 2806.32761851 0 13987.75472508 0 -1832.45738259 0 7321.56913179 0 1579
0.03850000 0.03847530 45042.78909843 0 -1298.50829399 0 13782.56290926 0 8601.03017692 0 3745.53054336 0 1662
0.03950000 0.03950240 44168.41712095 0 -1652.81568260 0 11677.36957405 0 4001.60289938 0 1964.79951305 0 1683
0.04050000 0.04050350 44766.19756083 0 578.77053857 0 6136.92691718 0 -2764.06996779 0 1921.50931251 0 1822
0.04150000 0.04152450 42722.51783207 0 2206.75669330 0 6869.87252267 0 -667.82796077 0 6077.32462635 0 1887
0.04250000 0.04250150 42029.50114791 0 436.78065801 0 9335.01931680 0 1858.31506645 0 3505.11120327 0 1920
0.04350000 0.04349210 43090.50101354 0 373.49414154 0 10358.74852767 0 -839.81780751 0 -463.86751554 0 2005
0.04450000 0.04448520 40943.23676534 0 907.27736310 0 7546.79680800 0 -2182.59063362 0 -1573.63888343 0 2151
0.04550000 0.04548030 39413.85472484 0 533.56682548 0 11199.65051249 0 -1034.81703843 0 -1620.74073066 0 2274
0.04650000 0.04648670 41177.64754423 0 481.00125185 0 12305.46743425 0 -560.20002016 0 -3516.19463701 0 2311
0.04750000 0.04749250 39974.39746367 0 1055.63390193 0 14243.80511195 0 -2426.84358954 0 -5050.90419521 0 2568
0.04850000 0.04851840 39001.05448724 0 -212.13845952 0 12067.98097504 0 1458.12511817 0 -6887.26110107 0 2493
0.04950000 0.04949480 37409.06038302 0 211.72873496 0 14285.21695059 0 1089.57842812 0 -1515.95889281 0 2644
0.05050000 0.05050630 37995.85625032 0 1381.70544672 0 14248.19894099 0 1326.22237061 0 -1056.58955974 0 2829
0.05150000 0.05149060 35548.60332492 0 1630.25337051 0 12564.48365572 0 1017.54709341 0 1956.50616075 0 2784
0.05250000 0.05249300 36555.99847636 0 -618.35564278 0 13656.13047885 0 3511.43831708 0 1310.55837011 0 3055
0.05350000 0.05348950 35398.77375491 0 453.70458899 0 12206.38658957 0 -218.92143309 0 2028.02671283 0 3009
0.05450000 0.05448610 33381.01761744 0 903.51185162 0 12497.36791725 0 -77.31480427 0 3644.39558360 0 3336
0.05550000 0.05550870 33365.30967865 0 297.01185803 0 14660.34010424 0 -1113.34135398 0 2752.60207401 0 3349
0.05650000 0.05647670 32570.57585239 0 1527.66844718 0 15892.91899359 0 -1679.91462316 0 450.69920993 0 3324
0.05750000 0.05747970 31967.52281768 0 197.27303745 0 15644.55780753 0 349.72901876 0 3915.01151372 0 3639
0.05850000 0.05849280 31896.67232453 0 136.09665737 0 15359.06876614 0 2071.89909572 0 2084.30067816 0 3846
0.05950000 0.05951020 32153.49163148 0 229.82471983 0 17694.49874266 0 350.01681456 0 596.59630295 0 3787
0.06050000 0.06049470 31552.52566555 0 1312.51362403 0 16525.95991145 0 -95.57632665 0 1624.37662418 0 3930
0.06150000 0.06148310 30946.28710479 0 -483.90996667 0 15286.90012428 0 458.25000512 0 3316.41821547 0 4083
0.06250000 0.06249100 30759.32967945 0 -305.27774889 0 15369.28441864 0 1534.27017530 0 3074.18642091 0 4303
0.06350000 0.06350600 31704.44230435 0 155.64809811 0 13685.78882482 0 2323.32497753 0 483.32229204 0 4470
0.06450000 0.06451750 30706.71357679 0 -147.81280248 0 12188.59158198 0 546.11999503 0 649.72428670 0 4479
0.06550000 0.06550280 31163.01272182 0 608.71558188 0 13011.44591405 0 -769.14526443 0 -1394.09604459 0 4636
0.06650000 0.06648880 29266.41641992 0 800.75776586 0 12699.81358992 0 -987.17035640 0 399.32656088 0 4653
0.06750000 0.06749660 29068.80395919 0 66.00453911 0 10648.43367578 0 1879.42741495 0 -622.52648499 0 5220
0.06850000 0.06852730 28627.55367859 0 256.57435098 0 11023.78750546 0 242.88867200 0 -2998.05234834 0 5029
0.06950000 0.06949320 29031.89579531 0 1176.26098573 0 10238.35761217 0 489.31767175 0 -1361.87829321 0 5040
0.07050000 0.07048030 28390.39675656 0 -465.75466511 0 9679.96784957 0 985.60285789 0 -425.79938080 0 5475
0.07150000 0.07148790 28217.82912131 0 -1231.10695663 0 8392.58692761 0 2056.60857069 0 -0.43334578 0 5509
0.07250000 0.07249820 29000.26022628 0 627.42450590 0 7766.71893565 0 838.23383214 0 -547.00315466 0 5916
0.07350000 0.07351270 28495.40927044 0 775.90626886 0 8401.86889145 0 -248.69182170 0 1403.05945581 0 5721
0.07450000 0.07449140 26715.68882081 0 102.40005298 0 8379.47134795 0 -232.47859257 0 2765.71765368 0 6028
0.07550000 0.07549160 27572.26579070 0 -7.49992564 0 7814.83136355 0 2345.50282958 0 511.21322028 0 6183
0.07650000 0.07648840 27205.49091221 0 668.38707552 0 8013.93772616 0 253.31303138 0 1433.36589157 0 6330
0.07750000 0.07749960 26682.29572016 0 595.60219913 0 7495.42196203 0 -705.38970671 0 2188.76396341 0 6583
0.07850000 0.07848650 26074.40947351 0 -247.41761128 0 7649.94194453 0 -45.97856484 0 706.86603327 0 6549
0.07950000 0.07947320 25924.36021205 0 216.66630034 0 7362.34386521 0 726.14835198 0 1028.96555661 0 6828
0.08050000 0.08048110 25383.47985815 0 1073.62333644 0 8762.97573048 0 -1853.21822477 0 289.70052652 0 7147
0.08150000 0.08149960 24474.06709414 0 531.14362877 0 8556.76234941 0 -810.60543518 0 516.31884961 0 7386
0.08250000 0.08250610 23847.06769119 0 310.28232016 0 9272.27543822 0 1524.07649194 0 417.49943776 0 7227
0.08350000 0.08350160 23708.11284804 0 352.98923990 0 9166.97732545 0 -221.67965926 0 -498.43376854 0 7798
0.08450000 0.08449610 22905.79966670 0 750.22653508 0 9170.51435782 0 32.32957433 0 -675.35788528 0 7371
0.08550000 0.08548940 21783.17634888 0 458.94093473 0 9787.97915177 0 -296.69550234 0 1435.15637690 0 8256
0.08650000 0.08650700 21742.97281324 0 46.84041440 0 9102.19031637 0 1345.39044976 0 -322.25220890 0 8037
0.08750000 0.08749060 21381.25083813 0 156.86628721 0 7712.76271513 0 1732.27808065 0 1952.77140608 0 8155
0.08850000 0.08849210 20968.56044625 0 153.81257603 0 7296.94172006 0 839.17740692 0 292.62132437 0 8718
0.08950000 0.08949900 20915.72465214 0 427.59645687 0 7053.71032939 0 125.33177624 0 1307.96601098 0 8571
0.09050000 0.09049190 20721.18787172 0 -40.23956505 0 6334.44051677 0 211.19158936 0 1714.24141247 0 8932
0.09150000 0.09150830 20077.49191845 0 -131.25355932 0 5783.82783155 0 774.60789238 0 1265.87312885 0 9285
0.09250000 0.09250820 20390.77192847 0 -144.26917937 0 5287.84142579 0 423.99351707 0 -0.94780165 0 9204
0.09350000 0.09350330 20236.87806661 0 533.38338312 0 5962.85439548 0 -883.00035924 0 570.02022805 0 9349
0.09450000 0.09448040 19039.99903815 0 871.59947136 0 6297.98272037 0 -1229.05284155 0 325.52011925 0 9564
0.09550000 0.09549270 18881.38181007 0 620.12415896 0 6732.55438083 0 -427.24604901 0 -654.54871098 0 10155
0.09650000 0.09649430 18381.91329480 0 345.57685032 0 7086.69700085 0 724.41498642 0 373.49633845 0 9913
0.09750000 0.09749140 18323.58521439 0 -250.96452977 0 7022.75580386 0 1054.29927636 0 -824.76125387 0 10476
0.09850000 0.09850240 18346.76266254 0 61.19472431 0 6439.72764496 0 450.49050305 0 -188.39640434 0 10575
0.09950000 0.09950330 17638.58726822 0 47.19587517 0 5843.13353892 0 -32.33275986 0 -224.67295529 0 10882
0.10050000 0.10051200 17336.29183078 0 388.74072828 0 5940.08337652 0 489.23968129 0 836.04350837 0 10875
0.10150000 0.10150300 17123.63050560 0 229.94005785 0 4926.89935534 0 726.17471495 0 962.54733850 0 11118
0.10250000 0.10250800 17039.92806253 0 92.72176577 0 5310.59047560 0 1073.67386548 0 615.61279501 0 11575
0.10350000 0.10349800 16574.51172226 0 346.06895918 0 4589.35442449 0 -125.57563375 0 956.32787350 0 11364
0.10450000 0.10450100 16006.38962836 0 709.10688607 0 5152.67626017 0 -997.35085827 0 344.50036221 0 12093
0.10550000 0.10551000 15479.34983590 0 231.01215213 0 5652.12280630 0 -419.81498566 0 1643.11630501 0 12067
0.10650000 0.10649700 15437.05923146 0 -39.16560338 0 5994.80851712 0 401.29939011 0 -554.21892039 0 12054
0.10750000 0.10749900 15445.51735235 0 238.30371141 0 5270.52973940 0 127.67258866 0 530.04956534 0 12807
0.10850000 0.10850100 15281.40783799 0 -200.83972816 0 5162.61729836 0 508.61207349 0 -162.23884165 0 12736
0.10950000 0.10950300 15596.77491680 0 7.77470472 0 4907.75324533 0 457.82050833 0 960.17357237 0 12933
0.11050000 0.11050200 14991.63481329 0 174.84913098 0 4828.21395527 0 310.36250754 0 441.59190080 0 13428
0.11150000 0.11150900 14980.10101208 0 191.86862774 0 4819.87666468 0 -330.14023048 0 781.09428249 0 13453
0.11250000 0.11250000 14805.99553667 0 507.74209534 0 5172.97575030 0 8.65194367 0 117.35697654 0 13668
0.11350000 0.11349100 14058.27568105 0 248.24804497 0 5606.20729291 0 -573.90766829 0 162.32232441 0 13791
0.11450000 0.11448600 13878.89761080 0 263.66708950 0 5005.45003387 0 109.87867953 0 398.83225511 0 14205
0.11550000 0.11549300 13852.86417378 0 -144.66242707 0 5083.80299009 0 1215.06948066 0 222.94947585 0 14776
0.11650000 0.11649800 13776.19185717 0 -116.05091086 0 4786.51651775 0 316.98071252 0 568.67571637 0 14553
0.11750000 0.11747300 13819.80061031 0 135.53644417 0 4378.24192404 0 -135.66606212 0 -59.78177874 0 14568
0.11850000 0.11849100 13878.78776508 0 125.99194905 0 4405.22003430 0 184.38044461 0 857.04271577 0 16015
0.11950000 0.11950300 13615.26786885 0 30.52887335 0 4309.55539169 0 203.00259050 0 724.15135668 0 15270
0.12050000 0.12050700 13954.58131589 0 -270.15128269 0 4133.83518411 0 -230.16963541 0 171.34615078 0 15999
0.12150000 0.12150000 13992.36824557 0 226.03174692 0 4238.92459000 0 161.60393336 0 -214.45620433 0 15670
0.12250000 0.12250700 13594.50702667 0 261.40646446 0 4704.05533138 0 -381.67764811 0 448.84940790 0 16887
0.12350000 0.12352200 13608.67712530 0 203.72098155 0 4658.27163286 0 82.00334938 0 449.25693555 0 16407
0.12450000 0.12449800 13305.06353915 0 125.04507889 0 4600.47081194 0 403.02177109 0 26.07704577 0 16306
0.12550000 0.12549900 13165.12008447 0 67.85181468 0 4693.59801828 0 256.15693723 0 1286.09572697 0 17523
0.12650000 0.12650100 12777.58436380 0 184.13439018 0 4328.09735021 0 251.72136682 0 623.95887325 0 17154
0.12750000 0.12750600 12788.23939920 0 223.13731205 0 4540.94541312 0 304.65162826 0 1185.66377986 0 18007
0.12850000 0.12850300 12356.98507966 0 225.27710678 0 4374.49618479 0 -146.57593961 0 1236.05001429 0 17496
0.12950000 0.12949900 12216.93177924 0 240.36551568 0 4665.77409593 0 217.72191776 0 1717.40496938 0 18405
0.13050000 0.13049000 11942.75684761 0 -38.53355108 0 4044.73931590 0 -209.18690487 0 1180.86352164 0 18100
0.13150000 0.13148800 11996.58125326 0 14.15175439 0 4334.58923261 0 766.40241666 0 693.85700396 0 19059
0.13250000 0.13249300 12217.48100787 0 -88.63418662 0 3606.59766935 0 124.95610386 0 1282.81133977 0 18957
0.13350000 0.13349100 11954.51034028 0 12.12092661 0 3455.48290435 0 136.18014012 0 625.57909771 0 19468
0.13450000 0.13450700 11798.52940962 0 206.56269048 0 3578.51011726 0 -445.93739771 0 483.91655741 0 19953
0.13550000 0.13551000 11827.41883551 0 75.87340865 0 3367.28777109 0 210.10851051 0 216.09290565 0 19956
0.13650000 0.13649900 11874.43280616 0 21.03809279 0 3407.17275414 0 319.80594459 0 66.71776741 0 19723
0.13750000 0.13749600 11865.75499382 0 139.52713939 0 3339.99110823 0 -231.56357767 0 181.46294213 0 20946
0.13850000 0.13851100 11593.55728525 0 93.43565314 0 2975.18246823 0 -197.29720351 0 -835.80734006 0 20955
0.13950000 0.13949800 11313.45068443 0 -33.39310065 0 3516.28251359 0 -170.84525427 0 -577.41833768 0 20506
0.14050000 0.14048300 11192.94992321 0 406.03264244 0 3552.59751054 0 -289.22269761 0 -629.33252616 0 21447
0.14150000 0.14148400 11060.14644070 0 248.57648369 0 3751.74781144 0 -77.72716512 0 -421.59228950 0 21771
0.14250000 0.14249400 10946.28036132 0 -128.75017523 0 3384.13810543 0 529.63544695 0 -919.72508075 0 22470
0.14350000 0.14350900 10920.18101687 0 44.01364449 0 3393.70566815 0 713.91703041 0 -639.22633068 0 22519
0.14450000 0.14449900 10936.41621515 0 158.02515961 0 2976.34683292 0 123.45121741 0 376.64891078 0 22218
0.14550000 0.14550500 10455.41276638 0 17.73942564 0 2731.36889521 0 254.24012931 0 241.49912357 0 23559
0.14650000 0.14650700 10515.41050182 0 179.30557207 0 2979.02706863 0 406.90811287 0 811.41939201 0 23044
0.14750000 0.14750500 10367.06384911 0 121.09942042 0 2513.30316033 0 4.50916704 0 715.12753031 0 23649
0.14850000 0.14849900 10017.33702727 0 168.18039696 0 2405.67631818 0 -34.60403993 0 1234.34740554 0 23640
0.14950000 0.14949500 10140.17750244 0 16.40864468 0 2525.41914389 0 128.59529275 0 466.81797173 0 24457
0.15050000 0.15050000 9721.17098133 0 318.76021328 0 2551.74916436 0 34.60382024 0 871.33144778 0 24591
0.15150000 0.15149900 9621.20038626 0 161.72366520 0 2806.00906590 0 -83.02623278 0 810.40661442 0 25020
0.15250000 0.15250500 9484.07996673 0 41.55584638 0 2855.39570423 0 244.97793771 0 1205.69964025 0 25297
0.15350000 0.15350100 9510.44294093 0 11.55082730 0 2833.62428137 0 -153.14800939 0 485.49504049 0 25452
0.15450000 0.15450400 9293.13514155 0 192.17290040 0 2720.73582896 0 -1.76568217 0 542.70269450 0 26061
0.15550000 0.15549900 9139.59278601 0 93.70938869 0 2820.68445487 0 -120.09323357 0 933.68427559 0 26128
0.15650000 0.15649500 9031.24096207 0 7.87100647 0 2882.17609218 0 138.60553375 0 563.97651621 0 26331
0.15750000 0.15749700 9104.32132345 0 108.19232795 0 2887.39376416 0 -134.63351230 0 241.94949105 0 27345
0.15850000 0.15849900 8986.45685965 0 162.76060885 0 2943.78855979 0 -143.58154513 0 264.76444830 0 26980
0.15950000 0.15949700 8868.42762727 0 -74.18464047 0 2555.02256699 0 403.33592987 0 147.47777302 0 27777
0.16050000 0.16050000 8945.59424965 0 -42.11342328 0 2565.30412693 0 125.73710697 0 102.96224341 0 28224
0.16150000 0.16150500 8914.07951091 0 138.17054467 0 2436.80659687 0 54.14812100 0 167.36753859 0 28075
0.16250000 0.16249700 8780.14461743 0 78.85143613 0 2277.56324816 0 51.06584994 0 -121.12468494 0 28590
0.16350000 0.16349900 8577.64402189 0 146.10689836 0 2486.42391122 0 33.16901537 0 398.12155327 0 29163
0.16450000 0.16449100 8529.22402595 0 114.55591054 0 2327.04874764 0 118.01165707 0 404.23666482 0 28996
0.16550000 0.16550500 8544.92098017 0 -107.72383593 0 2113.16813491 0 550.84006586 0 663.19247114 0 30777
0.16650000 0.16650700 8627.84351859 0 54.18206333 0 2283.45097906 0 139.66554500 0 788.49239212 0 29211
0.16750000 0.16749900 8520.44735246 0 23.44920647 0 1987.14213368 0 -149.97346791 0 860.01294420 0 30922
0.16850000 0.16850800 8423.43160742 0 223.36908653 0 2421.26342667 0 -460.25468962 0 672.34591547 0 30867
0.16950000 0.16949900 8127.85872840 0 192.03888861 0 2574.99251995 0 -277.24182430 0 683.64135146 0 30852
0.17050000 0.17049200 8062.56642898 0 187.03871117 0 2901.05857245 0 182.76900781 0 591.24022536 0 31257
0.17150000 0.17149500 7849.90510381 0 -19.58747014 0 2929.57452287 0 -145.32369834 0 406.50058523 0 32608
0.17250000 0.17250900 7858.68177730 0 137.39613230 0 2625.07118634 0 140.69479945 0 417.47856707 0 32361
0.17350000 0.17350400 7860.92263010 0 -12.29602070 0 2369.74578126 0 242.97654858 0 282.61108337 0 32508
0.17450000 0.17449800 7736.03902443 0 24.47571478 0 2329.22369301 0 427.10874185 0 586.92658371 0 32791
0.17550000 0.17549800 7825.95873558 0 -52.42541048 0 1834.48952852 0 147.38660107 0 596.42823899 0 33633
0.17650000 0.17650100 7663.95825915 0 15.89258946 0 1842.72795796 0 292.11383711 0 378.64151225 0 33984
0.17750000 0.17750300 7743.95890126 0 151.75736250 0 1694.53508926 0 -147.96329113 0 143.06746713 0 34069
0.17850000 0.17849800 7578.01496327 0 70.74559048 0 1549.60463862 0 -124.18388840 0 341.34888834 0 34536
