### header ###
fiducial parameters:
Omega_m = 0.31
Omega_nu = 0
Omega_de = 0.69
Omega_k = 0
H_0 = 100
w_de = -1
zeff = 0
beta = 0
fgrowth = 0
b_1 = 2
gamma = 0.55
Lx = 3500 Ly = 3500 Lz = 3500
nx = 700 ny = 700 nz = 700
xoffset = -983.599254 yoffset = -42.9823471 zoffset = 800.977702
bins = 400 dk = 0.001
kx_ny = 0.628318531 ky_ny = 0.628318531 kz_ny = 0.628318531
############################
A(data) = 8.97987276 (not used)
A(ran) = 8.95851245 (used)
Ngal = 497933
weighted Ngal = 0
Nran = 25229228
weighted Nran = 0
SN(data) = 6765.77739
SN(ran) = 132.982945
SN(data+ran) = 6898.76034
############################
13 columns: k_central k_mean P_0(k) sigma^{lin}_{P_0(k)} P^img_1(k) sigma^{lin}_{P_1(k)} P_2(k) sigma^{lin}_{P_2(k)} P^img_3(k) sigma^{lin}_{P_3(k)} P_4(k) sigma^{lin}_{P_4(k)} N_modes
### header ###
0.00050000 0 0 0 0 0 0 0 0 0 0 0 0
0.00150000 0.00179520 40358.41812111 0 28880.41853942 0 53127.21482684 0 -17052.01109237 0 -52459.79219680 0 3
0.00250000 0.00253879 65032.62412768 0 12938.83788929 0 7458.04146154 0 -2299.70814648 0 12136.85424513 0 6
0.00350000 0.00331552 56474.43378383 0 18898.95712620 0 23137.35445671 0 47989.73023055 0 -15958.60673763 0 7
0.00450000 0.00420575 64077.95492464 0 14285.10710486 0 33357.07124922 0 23416.03306310 0 44401.50975113 0 24
0.00550000 0.00557378 68582.94783170 0 -17856.63103396 0 27010.51474889 0 33519.86261487 0 8339.94885580 0 45
0.00650000 0.00659388 72431.06329839 0 -18908.18416717 0 5567.62947401 0 12509.89032999 0 24489.99472438 0 40
0.00750000 0.00754703 74154.65258213 0 11853.78180970 0 15219.56469435 0 -1013.80684645 0 -13169.29422205 0 57
0.00850000 0.00846663 92357.18780668 0 -2660.35363348 0 17513.03360361 0 -18408.16642327 0 17397.03651715 0 75
0.00950000 0.00948925 76808.30562633 0 5604.98800536 0 15402.01844493 0 -1338.03078613 0 -10559.34879215 0 112
0.01050000 0.01054430 75295.83982761 0 8672.47383699 0 22692.47926717 0 -28148.40662260 0 -12145.97144037 0 105
0.01150000 0.01145670 69262.12395440 0 -2116.94682788 0 15467.92588042 0 22357.12026626 0 2918.18352110 0 144
0.01250000 0.01249090 68906.88287712 0 -7651.11729380 0 26147.89626408 0 4001.03170160 0 -15842.06042254 0 169
0.01350000 0.01339930 75473.02098334 0 -204.26361944 0 -4377.54989597 0 8015.02519885 0 -23049.36803034 0 180
0.01450000 0.01448870 80883.69189974 0 9419.73234055 0 8892.45088750 0 -15177.71347282 0 -19252.00128897 0 267
0.01550000 0.01550050 62189.15766927 0 4812.75866164 0 24752.08662617 0 -3278.43356348 0 9066.51242462 0 238
0.01650000 0.01653350 73860.70541986 0 -6219.99225504 0 14929.68182393 0 18606.76749554 0 -7336.94753340 0 315
0.01750000 0.01747870 65697.19076885 0 -3998.87872538 0 3731.41536759 0 11488.54477138 0 -2156.96362579 0 297
0.01850000 0.01844180 75204.88756663 0 1025.01879968 0 7799.14539391 0 -4643.42049073 0 4568.83524290 0 388
0.01950000 0.01947590 65101.60724349 0 6469.89128127 0 15441.45306050 0 -2662.74827030 0 28333.16713341 0 399
0.02050000 0.02045430 68670.82441235 0 2374.61194692 0 12962.01533744 0 3807.96685391 0 18880.61288999 0 462
0.02150000 0.02154770 70806.44501361 0 -2728.22730746 0 15604.35427188 0 7285.51776458 0 16907.89350011 0 571
0.02250000 0.02255340 70675.72859989 0 -5053.03520229 0 16185.54800716 0 11139.45505474 0 13680.51622998 0 510
0.02350000 0.02348930 76020.38223507 0 546.97349632 0 12498.68606596 0 -4735.44923982 0 13416.55695085 0 555
0.02450000 0.02439640 70166.92319793 0 7236.98792291 0 19827.59289223 0 -18695.85237917 0 13622.95706966 0 592
0.02550000 0.02547300 62074.47873153 0 6320.74275476 0 28521.22301601 0 -6508.07365556 0 -1911.88682693 0 837
0.02650000 0.02652900 63642.85600469 0 2711.40992683 0 43909.29105376 0 -1994.43588988 0 868.52159412 0 723
0.02750000 0.02749970 59240.78854272 0 233.06626720 0 35754.67390655 0 1118.07570476 0 -8568.02153631 0 826
0.02850000 0.02848090 60899.56884822 0 -1797.66924123 0 39334.21657363 0 15773.07730673 0 1341.54584936 0 831
0.02950000 0.02946900 61650.91361279 0 -1315.65521179 0 26244.56050280 0 5095.55648275 0 2297.02791078 0 996
0.03050000 0.03053250 59517.70961749 0 2611.48327006 0 27081.80462495 0 3933.99285514 0 -2821.43140581 0 1041
0.03150000 0.03150510 58902.90309011 0 1102.58745742 0 27467.80250546 0 -232.46541108 0 7512.90940158 0 1036
0.03250000 0.03246190 54500.28639951 0 1095.41892536 0 21569.85594935 0 1294.89436961 0 5514.14559011 0 1059
0.03350000 0.03345080 55601.81933797 0 2009.00143312 0 26353.74715426 0 872.59467363 0 8244.42701264 0 1302
0.03450000 0.03451200 52325.23118268 0 1131.02651584 0 21438.26076983 0 1663.17413454 0 -4990.23640084 0 1339
0.03550000 0.03553350 52699.69526198 0 913.72530720 0 23296.19137624 0 8065.44438700 0 4905.44648509 0 1365
0.03650000 0.03647120 50967.20847445 0 86.75000289 0 17948.35221501 0 2880.73711318 0 4829.77376457 0 1308
0.03750000 0.03744890 50826.05671678 0 -473.11323028 0 18755.38876256 0 2041.46084510 0 3309.11347470 0 1579
0.03850000 0.03847530 49428.05016435 0 2131.19381851 0 15955.42121158 0 -2580.52874453 0 1459.86068063 0 1662
0.03950000 0.03950240 45315.97541852 0 1718.20684317 0 16949.41518446 0 2112.64087542 0 2166.42134278 0 1683
0.04050000 0.04050350 43321.61642066 0 1931.23065924 0 16388.10352556 0 1042.18658817 0 6238.38042954 0 1822
0.04150000 0.04152450 43668.28953132 0 302.17790251 0 16702.26230138 0 938.02647713 0 1547.07818693 0 1887
0.04250000 0.04250150 41135.35693979 0 837.37593702 0 16809.14219260 0 1477.73258022 0 1728.78498657 0 1920
0.04350000 0.04349210 41465.99257449 0 1226.71312759 0 13504.43353150 0 -2650.15995012 0 -988.95644790 0 2005
0.04450000 0.04448520 38964.36601481 0 1580.80082475 0 19924.14728522 0 -3982.14922133 0 97.39833770 0 2151
0.04550000 0.04548030 36600.81553249 0 288.10996041 0 19283.08762937 0 707.45700327 0 -1709.12260165 0 2274
0.04650000 0.04648670 38370.86955824 0 -588.97520650 0 17346.83702046 0 4657.14022188 0 -3359.21411025 0 2311
0.04750000 0.04749250 40386.53862692 0 -747.92966095 0 16100.96679828 0 2367.88938850 0 -3311.56303439 0 2568
0.04850000 0.04851840 40953.78195502 0 362.48100907 0 14330.14385244 0 347.21465010 0 -4160.62655664 0 2493
0.04950000 0.04949480 38971.83552417 0 1240.18021358 0 13712.37149047 0 -489.43081285 0 -798.46638402 0 2644
0.05050000 0.05050630 38320.34052437 0 395.49953579 0 15527.02288091 0 275.95443239 0 -2715.41929583 0 2829
0.05150000 0.05149060 36725.05104838 0 108.56898894 0 14275.33083526 0 1714.96639426 0 -2579.86967017 0 2784
0.05250000 0.05249300 36915.63338267 0 211.84956526 0 12218.57946513 0 -35.30913964 0 -4037.39063685 0 3055
0.05350000 0.05348950 36769.53856734 0 1197.21955021 0 14519.29819229 0 138.71208410 0 -4021.72663634 0 3009
0.05450000 0.05448610 34426.08985283 0 553.89048167 0 12840.96534759 0 225.41331548 0 -3456.39462387 0 3336
0.05550000 0.05550870 35552.11838815 0 -239.08361606 0 10659.59400152 0 2981.70730434 0 -4797.51207490 0 3349
0.05650000 0.05647670 34233.31060403 0 -253.84248778 0 8694.22329070 0 -304.09361197 0 -5227.60202975 0 3324
0.05750000 0.05747970 35709.85685041 0 107.48217533 0 8542.60323536 0 1518.65011309 0 -4104.29766844 0 3639
0.05850000 0.05849280 33601.58783488 0 416.28893786 0 8896.09776560 0 -434.42007336 0 -2530.02167980 0 3846
0.05950000 0.05951020 34684.99622858 0 1117.73518301 0 7419.09016717 0 410.70987344 0 -4483.16656134 0 3787
0.06050000 0.06049470 33112.77435501 0 -709.88019998 0 7573.46735022 0 3360.34552122 0 -2145.30899428 0 3930
0.06150000 0.06148310 33603.34536649 0 556.05663938 0 7497.65183027 0 -1180.19346271 0 -2727.41444908 0 4083
0.06250000 0.06249100 31156.53182400 0 1373.84049275 0 8823.17118823 0 23.55927189 0 746.99487382 0 4303
0.06350000 0.06350600 30277.32663459 0 1026.00411585 0 8998.60579693 0 1000.84065698 0 4398.27778443 0 4470
0.06450000 0.06451750 31641.72039491 0 -620.45369614 0 9913.20327919 0 1795.88974047 0 3285.97996485 0 4479
0.06550000 0.06550280 30997.80475020 0 83.21648558 0 8002.45884782 0 1318.36840121 0 3766.91750617 0 4636
0.06650000 0.06648880 31947.64074130 0 255.55608110 0 9227.63413525 0 -551.60349366 0 6826.71413700 0 4653
0.06750000 0.06749660 30271.39496539 0 20.15383470 0 9070.06044157 0 -901.61371748 0 4187.15429942 0 5220
0.06850000 0.06852730 30636.85169517 0 839.23123133 0 9346.57508716 0 264.24597647 0 3559.93520502 0 5029
0.06950000 0.06949320 29798.39927004 0 -190.82069951 0 11017.08691618 0 -389.66782621 0 5303.73610231 0 5040
0.07050000 0.07048030 30655.08608566 0 236.05187403 0 9705.37516596 0 471.78739237 0 2946.78734811 0 5475
0.07150000 0.07148790 28828.68120256 0 1243.90398368 0 11419.78134702 0 -615.19098742 0 2314.13089028 0 5509
0.07250000 0.07249820 28600.86116722 0 581.74186545 0 11576.31150630 0 -878.98000567 0 2628.10292838 0 5916
0.07350000 0.07351270 27494.27532538 0 292.37746685 0 12544.49173362 0 957.80969235 0 2130.18323784 0 5721
0.07450000 0.07449140 27299.73854496 0 902.91648778 0 11462.73102581 0 -75.79157359 0 1774.66754624 0 6028
0.07550000 0.07549160 26092.20448109 0 774.78144862 0 12051.94349907 0 267.08768540 0 1285.03022343 0 6183
0.07650000 0.07648840 26351.33054829 0 48.53247796 0 12068.64004940 0 1146.06439570 0 3211.05419527 0 6330
0.07750000 0.07749960 24961.89196247 0 -83.39289781 0 11854.66057551 0 932.38480065 0 3122.67232428 0 6583
0.07850000 0.07848650 24849.51978497 0 522.94474379 0 10625.16835105 0 1309.87732661 0 4292.85884137 0 6549
0.07950000 0.07947320 24964.74795134 0 -304.34845405 0 9891.36594890 0 486.00142929 0 2450.47140516 0 6828
0.08050000 0.08048110 24130.14012661 0 652.32103966 0 10341.05238124 0 91.59408955 0 3215.29424028 0 7147
0.08150000 0.08149960 23204.36034946 0 602.52577523 0 10082.60735754 0 -279.50904008 0 3144.86116089 0 7386
0.08250000 0.08250610 23860.79840692 0 627.73207393 0 9620.25571302 0 -209.44614078 0 1225.35104059 0 7227
0.08350000 0.08350160 23018.94076429 0 -53.39018549 0 9597.75930838 0 585.24704256 0 320.22994909 0 7798
0.08450000 0.08449610 22211.90421673 0 289.25235596 0 9482.61901858 0 -257.92655187 0 -996.48747086 0 7371
0.08550000 0.08548940 21859.95851123 0 674.10784092 0 8544.53652013 0 267.74346438 0 855.60813059 0 8256
0.08650000 0.08650700 21178.14609110 0 276.76070002 0 8678.54830562 0 1194.71506766 0 -78.92283585 0 8037
0.08750000 0.08749060 20884.19892883 0 -123.87522191 0 7550.22399464 0 1211.12601910 0 267.46445624 0 8155
0.08850000 0.08849210 20314.53899476 0 136.79527618 0 6534.42564518 0 892.53936207 0 -231.13627780 0 8718
0.08950000 0.08949900 20438.44497348 0 329.80959484 0 6198.36363163 0 495.92379370 0 1156.75238482 0 8571
0.09050000 0.09049190 19775.52601819 0 -152.01330304 0 6006.85859324 0 84.59439036 0 437.82089703 0 8932
0.09150000 0.09150830 19377.99433647 0 419.68317079 0 4976.53863883 0 1336.88839058 0 2046.18421131 0 9285
0.09250000 0.09250820 19866.03889626 0 433.46990783 0 5662.92064115 0 -868.81817758 0 187.10242169 0 9204
0.09350000 0.09350330 18613.79762199 0 399.24857041 0 6131.51152290 0 -240.27983602 0 1605.27445246 0 9349
0.09450000 0.09448040 18866.11325418 0 294.15147533 0 6048.90753709 0 194.28852908 0 1404.33366623 0 9564
0.09550000 0.09549270 18059.51608953 0 -244.39355845 0 5150.87479027 0 230.79026376 0 2987.47420495 0 10155
0.09650000 0.09649430 18952.78153185 0 126.23031428 0 5958.26284414 0 1355.65004055 0 1771.70171164 0 9913
0.09750000 0.09749140 17846.08584428 0 137.38624619 0 4983.68959558 0 -585.04272951 0 1847.18769442 0 10476
0.09850000 0.09850240 18350.49741721 0 306.35753238 0 6022.54456289 0 360.26322386 0 1968.60017517 0 10575
0.09950000 0.09950330 17644.07955451 0 272.27679749 0 5620.10277723 0 -539.36338443 0 1449.30450638 0 10882
0.10050000 0.10051200 17461.84549538 0 268.64310088 0 5619.11416570 0 554.68246935 0 1604.38470209 0 10875
0.10150000 0.10150300 17195.35976456 0 -96.82659070 0 5468.04333898 0 654.67723048 0 1551.57087711 0 11118
0.10250000 0.10250800 17227.10517932 0 231.75361078 0 5280.20714784 0 479.05588405 0 1174.76708386 0 11575
0.10350000 0.10349800 16829.13411470 0 210.90159665 0 4940.82779337 0 -361.07388532 0 1320.41153171 0 11364
0.10450000 0.10450100 16765.31374800 0 252.48149924 0 4316.15711981 0 382.83102823 0 439.31809428 0 12093
0.10550000 0.10551000 16423.36400354 0 156.91022550 0 4669.11340600 0 308.76205532 0 1532.16113736 0 12067
0.10650000 0.10649700 15910.16477254 0 307.07372651 0 4798.54462472 0 -223.95346579 0 1344.37986909 0 12054
0.10750000 0.10749900 15766.81610036 0 246.58937451 0 4827.68669578 0 -677.87005702 0 258.46479592 0 12807
0.10850000 0.10850100 15366.31858404 0 441.77644162 0 5288.66526873 0 -130.96356660 0 475.72096781 0 12736
0.10950000 0.10950300 14988.55913297 0 237.27226004 0 5453.97210151 0 -75.07450069 0 312.93509444 0 12933
0.11050000 0.11050200 14817.52933788 0 185.11201714 0 5733.21092110 0 208.69040219 0 393.83097922 0 13428
0.11150000 0.11150900 14630.79160399 0 57.62111332 0 5551.27344543 0 -42.23348466 0 -147.04937469 0 13453
0.11250000 0.11250000 14498.75704157 0 15.96311041 0 4965.42225138 0 509.24039104 0 646.54315448 0 13668
0.11350000 0.11349100 14440.64865261 0 62.25374696 0 5091.83271265 0 354.34693307 0 -69.07604529 0 13791
0.11450000 0.11448600 13887.79511459 0 142.04590188 0 4614.15758937 0 206.37595274 0 876.51616604 0 14205
0.11550000 0.11549300 13911.52179137 0 303.11159118 0 4790.94330050 0 350.60119382 0 819.15253111 0 14776
0.11650000 0.11649800 13947.66103516 0 275.62269830 0 4608.72022595 0 326.41646037 0 433.51714150 0 14553
0.11750000 0.11747300 13864.50782072 0 -192.88579916 0 4209.15639830 0 145.20945878 0 902.03003278 0 14568
0.11850000 0.11849100 13371.19066609 0 -134.93448959 0 4072.93671372 0 315.38575258 0 186.32800933 0 16015
0.11950000 0.11950300 13580.22708231 0 252.90550374 0 3871.64442117 0 -235.09292084 0 680.37453957 0 15270
0.12050000 0.12050700 13744.77597958 0 -76.74756094 0 3689.05885572 0 554.19255742 0 -16.01034407 0 15999
0.12150000 0.12150000 13428.42028924 0 -94.27992739 0 3810.53724390 0 -48.63177850 0 646.75625519 0 15670
0.12250000 0.12250700 13805.41082023 0 246.18733915 0 3438.74241573 0 -158.84351027 0 -264.52498462 0 16887
0.12350000 0.12352200 13455.11280061 0 6.58588837 0 3736.80879273 0 -194.44011618 0 -207.86106696 0 16407
0.12450000 0.12449800 13462.91184715 0 300.92456278 0 3632.27960005 0 -316.00528248 0 -555.58320431 0 16306
0.12550000 0.12549900 13170.61237076 0 21.54206498 0 3692.31028920 0 350.14423560 0 9.28605009 0 17523
0.12650000 0.12650100 13226.52384520 0 -215.24050282 0 3159.32784298 0 569.65224487 0 -167.89040425 0 17154
0.12750000 0.12750600 13303.41585326 0 84.11008056 0 3135.84282680 0 388.27608086 0 -257.24660683 0 18007
0.12850000 0.12850300 13198.84272229 0 116.14977202 0 2830.63647763 0 24.60137829 0 -480.33668521 0 17496
0.12950000 0.12949900 13158.85887809 0 177.66557539 0 2614.48205838 0 25.23705551 0 -848.77682490 0 18405
0.13050000 0.13049000 12877.21443711 0 37.80823975 0 2474.54958826 0 79.47404170 0 -148.52350433 0 18100
0.13150000 0.13148800 12498.57622023 0 367.80742831 0 2841.44529705 0 -17.79852265 0 -485.45329912 0 19059
0.13250000 0.13249300 12375.65885304 0 181.40911772 0 2342.64684071 0 178.53994737 0 -421.57691110 0 18957
0.13350000 0.13349100 12310.19080046 0 104.73273681 0 2840.94000671 0 261.20654524 0 -364.38683241 0 19468
0.13450000 0.13450700 11966.15398721 0 121.66292900 0 2448.87864214 0 -190.90198535 0 -205.44885482 0 19953
0.13550000 0.13551000 11794.57496349 0 46.95091920 0 2522.71693903 0 245.82374980 0 402.21879884 0 19956
0.13650000 0.13649900 11637.93495848 0 49.40509241 0 2594.62195115 0 28.45894049 0 610.06997968 0 19723
0.13750000 0.13749600 11604.21232066 0 46.87435673 0 2315.09753267 0 405.90851677 0 583.84980493 0 20946
0.13850000 0.13851100 11772.60581833 0 190.49116233 0 2533.92120306 0 -259.98176540 0 -449.60514650 0 20955
0.13950000 0.13949800 11558.40665299 0 378.24167381 0 2745.40717897 0 -379.77951397 0 672.87317496 0 20506
0.14050000 0.14048300 11068.16517869 0 80.71046519 0 3230.81544134 0 -222.09267919 0 516.20461006 0 21447
0.14150000 0.14148400 10964.20718378 0 17.83301420 0 3361.91631510 0 -43.21396761 0 291.63490975 0 21771
0.14250000 0.14249400 10815.80560820 0 277.80093904 0 3309.72861077 0 300.43465084 0 -132.17626341 0 22470
0.14350000 0.14350900 10752.69923872 0 104.66232570 0 3458.18510920 0 -294.52824617 0 516.02116770 0 22519
0.14450000 0.14449900 10822.86868837 0 93.52001466 0 3407.50229131 0 -313.88745688 0 -372.54397601 0 22218
0.14550000 0.14550500 10488.67405216 0 171.24728963 0 3955.56655569 0 -266.74936057 0 -411.81052762 0 23559
0.14650000 0.14650700 10392.06473631 0 147.13944818 0 3743.92679576 0 -212.74261101 0 -639.97547853 0 23044
0.14750000 0.14750500 10170.12144730 0 10.94760949 0 3745.82712682 0 494.58806968 0 -639.82608835 0 23649
0.14850000 0.14849900 10358.55080536 0 -55.02227329 0 3684.18170549 0 322.45212813 0 -244.22659294 0 23640
0.14950000 0.14949500 10104.02727408 0 92.56699314 0 3111.92941229 0 430.42608277 0 75.31517268 0 24457
0.15050000 0.15050000 10198.67035144 0 64.51492122 0 3130.66909312 0 322.16982461 0 -6.99124107 0 24591
0.15150000 0.15149900 10118.29623386 0 114.73935290 0 2807.95333525 0 263.22550968 0 273.69929964 0 25020
0.15250000 0.15250500 10067.25092508 0 -7.36514493 0 2864.73259092 0 37.85745064 0 303.32469189 0 25297
0.15350000 0.15350100 9672.54227851 0 222.43649631 0 2771.61636915 0 -74.85546831 0 828.24995412 0 25452
0.15450000 0.15450400 9653.82456683 0 138.66375198 0 2887.21801100 0 76.96132072 0 859.83719104 0 26061
0.15550000 0.15549900 9642.65325652 0 -73.82061173 0 2941.51475327 0 285.07602146 0 368.68399721 0 26128
0.15650000 0.15649500 9491.91196698 0 167.15883171 0 2781.68922221 0 72.75598696 0 571.54049289 0 26331
0.15750000 0.15749700 9478.14829754 0 69.28497187 0 2681.01561450 0 -191.24909784 0 936.77423585 0 27345
0.15850000 0.15849900 9314.93951812 0 182.99199463 0 2991.19797505 0 122.29783729 0 753.36263055 0 26980
0.15950000 0.15949700 9353.20976900 0 80.34929244 0 2847.15727479 0 71.51055612 0 653.07018751 0 27777
0.16050000 0.16050000 9168.88864108 0 -106.59857631 0 2789.38940759 0 -24.18802882 0 516.45505831 0 28224
0.16150000 0.16150500 9122.02845445 0 155.38776374 0 2920.74292652 0 -93.19871591 0 139.96871920 0 28075
0.16250000 0.16249700 8864.07773652 0 293.92629159 0 3058.24780609 0 -481.34506897 0 157.35729760 0 28590
0.16350000 0.16349900 8727.57245305 0 144.44932636 0 3174.27784627 0 -79.50963172 0 217.93172310 0 29163
0.16450000 0.16449100 8604.54524014 0 39.08552585 0 3111.99531973 0 478.45283101 0 296.33191298 0 28996
0.16550000 0.16550500 8785.54902714 0 -55.96903360 0 3003.88515638 0 549.12976791 0 -4.40528594 0 30777
0.16650000 0.16650700 8645.82526390 0 34.77715679 0 2553.24306623 0 -179.88885288 0 12.68311704 0 29211
0.16750000 0.16749900 8504.39889192 0 204.85019561 0 2595.94009986 0 -155.60635673 0 -154.71880327 0 30922
0.16850000 0.16850800 8201.71899444 0 138.79336994 0 2866.68784484 0 -89.60368500 0 287.89026896 0 30867
0.16950000 0.16949900 8273.18462365 0 57.67526726 0 2561.41558824 0 201.11983476 0 -251.88393849 0 30852
0.17050000 0.17049200 8135.84451267 0 40.37676236 0 2686.90334540 0 83.01755497 0 -450.00278803 0 31257
0.17150000 0.17149500 8011.36733618 0 198.51649106 0 2424.04252353 0 -71.98190413 0 -526.72014139 0 32608
0.17250000 0.17250900 7804.78047964 0 34.60942237 0 2397.20721272 0 77.97497708 0 -380.98452158 0 32361
0.17350000 0.17350400 7735.12730490 0 -15.25174949 0 2112.37724568 0 175.86740086 0 -204.41300962 0 32508
0.17450000 0.17449800 7675.66781352 0 40.35863781 0 2000.27968249 0 543.62430014 0 -128.94679908 0 32791
0.17550000 0.17549800 7945.72353043 0 -68.92248097 0 1932.35108565 0 305.48645577 0 155.37897608 0 33633
0.17650000 0.17650100 7726.50441543 0 -44.25530509 0 1508.62119832 0 127.18816900 0 188.18769746 0 33984
0.17750000 0.17750300 7783.27268653 0 228.43626986 0 1716.24060468 0 -99.71190838 0 323.12767934 0 34069
0.17850000 0.17849800 7632.39958212 0 33.89147071 0 1643.29205817 0 -175.04355791 0 782.31576696 0 34536
