### header ###
fiducial parameters:
Omega_m = 0.31
Omega_nu = 0
Omega_de = 0.69
Omega_k = 0
H_0 = 100
w_de = -1
zeff = 0
beta = 0
fgrowth = 0
b_1 = 2
gamma = 0.55
Lx = 3500 Ly = 3500 Lz = 3500
nx = 700 ny = 700 nz = 700
xoffset = -983.599254 yoffset = -42.9823471 zoffset = 800.977702
bins = 400 dk = 0.001
kx_ny = 0.628318531 ky_ny = 0.628318531 kz_ny = 0.628318531
############################
A(data) = 9.08465255 (not used)
A(ran) = 9.10082555 (used)
Ngal = 505557
weighted Ngal = 0
Nran = 25229228
weighted Nran = 0
SN(data) = 6678.18991
SN(ran) = 135.095485
SN(data+ran) = 6813.28539
############################
13 columns: k_central k_mean P_0(k) sigma^{lin}_{P_0(k)} P^img_1(k) sigma^{lin}_{P_1(k)} P_2(k) sigma^{lin}_{P_2(k)} P^img_3(k) sigma^{lin}_{P_3(k)} P_4(k) sigma^{lin}_{P_4(k)} N_modes
### header ###
0.00050000 0 0 0 0 0 0 0 0 0 0 0 0
0.00150000 0.00179520 38987.98284586 0 -45122.86663254 0 -22487.83667998 0 -47050.00004622 0 -148104.99211425 0 3
0.00250000 0.00253879 50447.63819135 0 -41703.47903370 0 -35772.79845131 0 47264.85828591 0 37999.81069645 0 6
0.00350000 0.00331552 71229.24121227 0 -13255.30342536 0 21194.51310425 0 -78864.06838493 0 -16095.91389489 0 7
0.00450000 0.00420575 70368.05072189 0 19959.29791748 0 6358.05734782 0 -32898.46534395 0 39286.21399145 0 24
0.00550000 0.00557378 68286.47421773 0 8339.76211807 0 30248.21751724 0 7147.52956381 0 10425.27109922 0 45
0.00650000 0.00659388 58276.78245298 0 -1932.14237877 0 63564.86553936 0 14572.90290649 0 6700.96275009 0 40
0.00750000 0.00754703 61273.15416172 0 -9301.20880240 0 16679.85377332 0 18478.35784206 0 1727.49979158 0 57
0.00850000 0.00846663 85286.85781897 0 -3442.55406242 0 41327.25742279 0 19711.81549722 0 -7087.19130662 0 75
0.00950000 0.00948925 76646.83240939 0 9356.80172423 0 49501.20741774 0 -16385.46722814 0 -5233.35794578 0 112
0.01050000 0.01054430 66521.03371245 0 13842.09929265 0 51837.62600579 0 -327.61048341 0 37793.19088619 0 105
0.01150000 0.01145670 66091.31723307 0 361.35728729 0 61421.77542874 0 26333.53554071 0 10420.05342724 0 144
0.01250000 0.01249090 60236.54004722 0 -2621.20461680 0 55833.92335661 0 30391.56618943 0 27045.33584398 0 169
0.01350000 0.01339930 66330.67106962 0 -479.10421617 0 31863.27922388 0 26504.23579862 0 16393.26627467 0 180
0.01450000 0.01448870 67181.09667887 0 -5062.18535125 0 32659.99027320 0 16978.63414753 0 34169.27054588 0 267
0.01550000 0.01550050 82563.56258460 0 -5099.10449970 0 3158.70172235 0 7227.28854532 0 13847.26204177 0 238
0.01650000 0.01653350 79068.60112640 0 -5451.80814071 0 8090.34641304 0 326.82948030 0 30358.17308878 0 315
0.01750000 0.01747870 82354.30647693 0 4223.45831180 0 -25698.51739978 0 -12671.58323839 0 5609.33789610 0 297
0.01850000 0.01844180 77999.69236851 0 1901.78102015 0 11452.51537331 0 -1049.31118195 0 -3854.38765764 0 388
0.01950000 0.01947590 80372.68958325 0 5018.31296836 0 11428.89854226 0 -8400.53975816 0 -1082.51205258 0 399
0.02050000 0.02045430 73554.23584484 0 2277.68407846 0 17912.32281694 0 -7475.33117878 0 -15660.15590059 0 462
0.02150000 0.02154770 70585.54525900 0 1206.16099229 0 19914.37101562 0 -1929.53903507 0 -8627.22838252 0 571
0.02250000 0.02255340 69538.05641764 0 3202.89265784 0 26584.20348701 0 1818.53992913 0 -14855.31626756 0 510
0.02350000 0.02348930 68456.62524701 0 0.21435624 0 25686.32452421 0 -1794.34091573 0 -7257.93550282 0 555
0.02450000 0.02439640 70539.08051698 0 -292.82673587 0 24692.44039705 0 6971.01846700 0 -9390.28270146 0 592
0.02550000 0.02547300 67909.70337819 0 -965.90532234 0 28584.05477117 0 497.09914297 0 -4716.88531215 0 837
0.02650000 0.02652900 67255.79177242 0 3908.51963132 0 22603.06484636 0 2833.67920424 0 -11172.73830966 0 723
0.02750000 0.02749970 67916.62365891 0 3859.10003928 0 32119.54930220 0 -4808.00234172 0 -2053.52190579 0 826
0.02850000 0.02848090 62976.97121481 0 -523.83339572 0 26349.13363377 0 -1480.51167709 0 -2735.86158540 0 831
0.02950000 0.02946900 64344.66034691 0 761.30337807 0 33689.90379843 0 7378.07377315 0 -14701.86178860 0 996
0.03050000 0.03053250 59767.49879799 0 4486.67063999 0 26757.75973380 0 355.06093029 0 -683.96759326 0 1041
0.03150000 0.03150510 57842.12291593 0 -888.19496361 0 25937.43185342 0 6945.52327404 0 -1707.55180777 0 1036
0.03250000 0.03246190 59826.26626130 0 1380.05776083 0 26684.05325178 0 876.07238931 0 -8737.35970722 0 1059
0.03350000 0.03345080 55307.43279279 0 -448.77141744 0 17461.95534111 0 3568.42627963 0 -95.09992573 0 1302
0.03450000 0.03451200 56158.29778494 0 -404.19821882 0 20282.68373427 0 -75.57825319 0 -5412.77995433 0 1339
0.03550000 0.03553350 54608.92382234 0 2208.63505521 0 15116.19986636 0 -1482.06050182 0 237.87091925 0 1365
0.03650000 0.03647120 53493.11093953 0 1531.77667732 0 18807.34579087 0 2439.82735433 0 -11372.10830201 0 1308
0.03750000 0.03744890 53516.39823340 0 957.60647775 0 17392.31315094 0 2626.38933505 0 278.90049475 0 1579
0.03850000 0.03847530 50165.77405891 0 409.69050511 0 20899.79702189 0 285.39018024 0 436.50933907 0 1662
0.03950000 0.03950240 46824.81630830 0 2505.88857384 0 16611.20019468 0 -1333.06575933 0 3293.54833535 0 1683
0.04050000 0.04050350 46168.92747947 0 2223.49718192 0 22419.07325562 0 2665.84591977 0 3188.49188319 0 1822
0.04150000 0.04152450 43485.61608930 0 2141.47537845 0 23368.46986382 0 -1683.49559382 0 4579.91867664 0 1887
0.04250000 0.04250150 43148.71924823 0 -734.40984902 0 21651.25163218 0 4907.73127618 0 3155.96656377 0 1920
0.04350000 0.04349210 44898.45181471 0 -1017.67231754 0 21477.69538540 0 2448.52713582 0 5743.38263531 0 2005
0.04450000 0.04448520 45149.11976101 0 -594.83108214 0 13877.79915354 0 3983.89576837 0 5218.59468023 0 2151
0.04550000 0.04548030 44847.15386075 0 -223.22518863 0 16912.50702059 0 935.66918785 0 2342.06465836 0 2274
0.04650000 0.04648670 42403.96522721 0 2392.78042997 0 12203.75029215 0 -1073.49811231 0 981.46387094 0 2311
0.04750000 0.04749250 42621.78930150 0 1948.55333020 0 16809.91111268 0 -745.30654502 0 -248.12062392 0 2568
0.04850000 0.04851840 38207.96834686 0 1967.34793389 0 15838.87489649 0 -1044.89758068 0 55.21076855 0 2493
0.04950000 0.04949480 37568.55637690 0 930.92495095 0 18308.97573286 0 -345.89979676 0 421.89106988 0 2644
0.05050000 0.05050630 34962.57637771 0 547.50624809 0 14100.45643977 0 1905.37297539 0 1965.61237142 0 2829
0.05150000 0.05149060 35250.81156224 0 -683.58203477 0 15336.98977525 0 4531.86117159 0 -74.77879600 0 2784
0.05250000 0.05249300 35967.77461462 0 -553.87290635 0 13280.89747947 0 2604.07966814 0 3165.42428077 0 3055
0.05350000 0.05348950 35123.17082884 0 894.76923030 0 12921.37241889 0 -1132.35564912 0 2120.06644649 0 3009
0.05450000 0.05448610 35718.86419993 0 1132.59730972 0 12311.94833207 0 -1545.02407186 0 2554.83582926 0 3336
0.05550000 0.05550870 34612.71774099 0 -29.56750355 0 15966.29593843 0 228.56698627 0 -185.09993411 0 3349
0.05650000 0.05647670 34983.88644851 0 930.47568193 0 16264.52708402 0 -3079.33818545 0 -2766.03620628 0 3324
0.05750000 0.05747970 33283.25492147 0 1505.74324031 0 18177.16086188 0 -2038.60485623 0 -1321.53195812 0 3639
0.05850000 0.05849280 32254.22016205 0 -513.11574825 0 16686.22482542 0 2424.66864417 0 1186.43269994 0 3846
0.05950000 0.05951020 32108.34503817 0 -579.68115963 0 17843.99877549 0 3012.94742876 0 -1479.51208098 0 3787
0.06050000 0.06049470 33010.28829282 0 1184.15889341 0 15301.94898871 0 2081.18105955 0 95.48262824 0 3930
0.06150000 0.06148310 32463.03688682 0 296.56258901 0 14910.67851337 0 1386.25305977 0 1563.28043149 0 4083
0.06250000 0.06249100 32152.50301995 0 -157.50778624 0 14163.39804066 0 657.19928834 0 1213.86117767 0 4303
0.06350000 0.06350600 31049.76177851 0 968.34829128 0 13068.89522865 0 1637.59106500 0 2001.54290834 0 4470
0.06450000 0.06451750 30373.77118185 0 423.00161016 0 13664.47875401 0 -4.33322715 0 3645.39517971 0 4479
0.06550000 0.06550280 30588.62942154 0 -204.73595606 0 11873.99342325 0 356.08798783 0 775.10659197 0 4636
0.06650000 0.06648880 28623.70907819 0 400.30748321 0 12223.08313989 0 -404.91990524 0 228.95803706 0 4653
0.06750000 0.06749660 28687.96882779 0 1716.25158925 0 12631.37970274 0 555.73369295 0 991.29286649 0 5220
0.06850000 0.06852730 27740.11005975 0 -312.63082178 0 11741.62932365 0 225.19582095 0 -245.83693128 0 5029
0.06950000 0.06949320 27293.03795569 0 207.82701478 0 12398.17722684 0 976.46589042 0 -2082.10376365 0 5040
0.07050000 0.07048030 26783.90301654 0 603.37048886 0 10435.79431975 0 634.91598440 0 -1391.41580888 0 5475
0.07150000 0.07148790 26340.01643853 0 58.37597314 0 10823.38496328 0 158.57328978 0 653.62600688 0 5509
0.07250000 0.07249820 26679.65942274 0 -78.11953406 0 8461.51512056 0 889.55485370 0 -3120.88183895 0 5916
0.07350000 0.07351270 25913.04610229 0 16.21894111 0 9231.89614941 0 1589.25894564 0 -956.87380676 0 5721
0.07450000 0.07449140 26618.69504492 0 -4.53837502 0 7227.91466596 0 879.81703010 0 -659.27207719 0 6028
0.07550000 0.07549160 25164.77701805 0 -341.44774949 0 6857.69063168 0 382.41251602 0 191.76537275 0 6183
0.07650000 0.07648840 25943.03398544 0 739.88346153 0 5752.55475341 0 545.00945474 0 -1711.03391728 0 6330
0.07750000 0.07749960 25942.81429399 0 577.86211441 0 6991.29598798 0 -752.48716011 0 -1408.66158783 0 6583
0.07850000 0.07848650 25129.18700289 0 147.71284287 0 6542.79588949 0 -9.58283127 0 -415.14544385 0 6549
0.07950000 0.07947320 24413.54209921 0 -98.34070418 0 7340.22093603 0 -176.01239721 0 -2423.80086294 0 6828
0.08050000 0.08048110 24548.87203341 0 713.29969743 0 6190.32292450 0 478.73733144 0 -1055.32413698 0 7147
0.08150000 0.08149960 23713.82482578 0 377.48263984 0 7693.56168226 0 -634.34808200 0 -1413.57169178 0 7386
0.08250000 0.08250610 23350.67485624 0 224.76852107 0 7149.16626512 0 270.11613206 0 -903.39321823 0 7227
0.08350000 0.08350160 23194.14469696 0 140.07966339 0 6817.65186462 0 565.65935273 0 -2228.19857898 0 7798
0.08450000 0.08449610 22800.45761564 0 930.89639106 0 8174.00491782 0 -598.78992210 0 -739.29578690 0 7371
0.08550000 0.08548940 21777.24467969 0 660.54189378 0 7138.81879775 0 -614.07385639 0 -219.31358233 0 8256
0.08650000 0.08650700 21146.94990497 0 44.82177950 0 8961.43400331 0 665.05106082 0 -1297.35491386 0 8037
0.08750000 0.08749060 21174.85071933 0 242.66788210 0 7528.96884670 0 1478.49051573 0 910.18168409 0 8155
0.08850000 0.08849210 20828.83668302 0 -228.65156748 0 7577.24604319 0 751.97637749 0 1256.99759420 0 8718
0.08950000 0.08949900 20675.05266688 0 210.07885216 0 7345.50451544 0 428.98161148 0 1747.59057483 0 8571
0.09050000 0.09049190 20190.96255322 0 686.62146600 0 6738.26635857 0 956.75407492 0 2365.82428885 0 8932
0.09150000 0.09150830 19667.87720690 0 332.02408467 0 7261.61533464 0 -296.65815479 0 3356.74258141 0 9285
0.09250000 0.09250820 19761.68545674 0 -68.36666160 0 6283.86754460 0 1627.86971826 0 3505.17711071 0 9204
0.09350000 0.09350330 19512.88488777 0 -146.64733933 0 6603.95798962 0 449.83692098 0 3113.99451194 0 9349
0.09450000 0.09448040 19128.42484743 0 417.33906300 0 5668.54474231 0 -393.47398061 0 4113.62357056 0 9564
0.09550000 0.09549270 18740.77928103 0 514.86339375 0 5581.99729494 0 796.92524849 0 3864.75709416 0 10155
0.09650000 0.09649430 18712.54892950 0 -259.45230900 0 5690.97523952 0 -124.77375995 0 3695.74846042 0 9913
0.09750000 0.09749140 18548.10987795 0 333.67616439 0 5441.85611795 0 826.60446515 0 2329.05892442 0 10476
0.09850000 0.09850240 18147.61236164 0 187.02662814 0 5152.12703155 0 -235.24670486 0 2824.37527126 0 10575
0.09950000 0.09950330 17720.53217967 0 240.40286323 0 5363.19559370 0 -514.98532250 0 2404.57786092 0 10882
0.10050000 0.10051200 17450.97076853 0 372.38909354 0 5530.24897351 0 -684.49704966 0 1849.97777586 0 10875
0.10150000 0.10150300 16748.28766050 0 563.82273220 0 5311.40333397 0 112.85110487 0 1861.36877763 0 11118
0.10250000 0.10250800 17025.97765536 0 -216.01271827 0 5978.92482517 0 410.87683895 0 1038.60122368 0 11575
0.10350000 0.10349800 16497.61971419 0 677.11981072 0 5519.68181469 0 264.83365111 0 1078.38405020 0 11364
0.10450000 0.10450100 16170.93852562 0 160.79107499 0 5668.01748283 0 -401.03136654 0 1257.15137822 0 12093
0.10550000 0.10551000 15603.80504325 0 173.16958983 0 6163.36678338 0 -111.28580328 0 1061.66443227 0 12067
0.10650000 0.10649700 15330.83841460 0 302.88091516 0 6069.18505807 0 -134.90043741 0 686.64343515 0 12054
0.10750000 0.10749900 15625.00526833 0 145.06006859 0 6017.71135096 0 505.89888406 0 1400.48906583 0 12807
0.10850000 0.10850100 15074.01910765 0 -107.22700371 0 5647.71799270 0 322.27857188 0 330.95418730 0 12736
0.10950000 0.10950300 15411.35533162 0 219.63872568 0 6239.35805650 0 152.12424722 0 787.12151746 0 12933
0.11050000 0.11050200 14761.39817199 0 166.66672286 0 5709.56113633 0 -6.20442712 0 571.98756500 0 13428
0.11150000 0.11150900 14476.67805068 0 331.02229165 0 6145.84639012 0 178.90683209 0 694.36229430 0 13453
0.11250000 0.11250000 14672.09359690 0 130.26714470 0 6089.61636307 0 198.84712670 0 1492.79242923 0 13668
0.11350000 0.11349100 14502.49179624 0 -254.11490518 0 5479.39040246 0 697.37206719 0 966.45125560 0 13791
0.11450000 0.11448600 14280.93296728 0 -58.64168995 0 4963.88441122 0 591.16333335 0 1839.21289473 0 14205
0.11550000 0.11549300 14558.95249931 0 224.80037633 0 4998.18923139 0 490.39855369 0 1888.83020908 0 14776
0.11650000 0.11649800 14072.00639678 0 320.92417408 0 5146.83246756 0 -182.17803780 0 2461.75256120 0 14553
0.11750000 0.11747300 14009.06479589 0 254.92556664 0 5080.01331255 0 -320.77588235 0 1732.71746355 0 14568
0.11850000 0.11849100 13846.38327596 0 132.00051025 0 5549.55985211 0 -395.99933384 0 1602.00104984 0 16015
0.11950000 0.11950300 13521.02023610 0 19.50497600 0 5420.26044826 0 511.57351426 0 2229.68149628 0 15270
0.12050000 0.12050700 13809.36526636 0 -166.57225554 0 5647.11384121 0 33.36025678 0 995.96899904 0 15999
0.12150000 0.12150000 13782.34321781 0 224.95745572 0 5327.85822370 0 -229.58086232 0 626.77092383 0 15670
0.12250000 0.12250700 13603.07499328 0 332.16358874 0 5253.19608387 0 -111.07380103 0 590.11210976 0 16887
0.12350000 0.12352200 13229.16014261 0 -40.22429649 0 5423.89634178 0 89.97364540 0 814.39181735 0 16407
0.12450000 0.12449800 13339.66494278 0 71.19881395 0 5231.21595413 0 371.85084948 0 289.28421122 0 16306
0.12550000 0.12549900 12990.02599752 0 200.80347907 0 4691.02762830 0 362.27340065 0 46.07248293 0 17523
0.12650000 0.12650100 12904.34633138 0 64.62718355 0 4204.43303209 0 563.69091733 0 782.38387131 0 17154
0.12750000 0.12750600 12738.69897686 0 -19.56088747 0 3929.66493354 0 562.18603088 0 160.21328647 0 18007
0.12850000 0.12850300 12835.47306130 0 110.99910593 0 3325.70017930 0 364.32971263 0 53.10898044 0 17496
0.12950000 0.12949900 12477.37599515 0 36.35761710 0 3347.30683357 0 5.06810604 0 671.80876987 0 18405
0.13050000 0.13049000 12350.06479893 0 38.22774058 0 2838.05106412 0 31.65797756 0 323.26498650 0 18100
0.13150000 0.13148800 12445.85027184 0 151.53437567 0 2775.27423182 0 -91.95471307 0 -5.93941332 0 19059
0.13250000 0.13249300 12112.02911109 0 210.85436299 0 3121.45303672 0 -13.70545121 0 177.72269517 0 18957
0.13350000 0.13349100 12163.87629368 0 35.15513594 0 3039.79372415 0 22.22541524 0 24.58852634 0 19468
0.13450000 0.13450700 12093.46518343 0 77.01009222 0 3287.19925240 0 85.08012816 0 90.32108743 0 19953
0.13550000 0.13551000 11717.02388107 0 321.81392446 0 3800.56325199 0 -682.15294187 0 -223.66347307 0 19956
0.13650000 0.13649900 11341.24165306 0 316.53144350 0 3734.95239996 0 161.34359899 0 551.32119014 0 19723
0.13750000 0.13749600 11582.24317549 0 -2.54274181 0 4019.99107388 0 423.65629069 0 298.41019412 0 20946
0.13850000 0.13851100 11499.30965250 0 -118.61141473 0 4107.66993222 0 -125.54817232 0 342.29575849 0 20955
0.13950000 0.13949800 11373.64614217 0 194.74219192 0 3857.95764373 0 156.64989113 0 333.45317757 0 20506
0.14050000 0.14048300 11334.87060096 0 117.42837627 0 3772.76129879 0 21.35620601 0 847.56412809 0 21447
0.14150000 0.14148400 11226.01348668 0 23.93373597 0 3806.96725781 0 213.30831650 0 816.26139161 0 21771
0.14250000 0.14249400 11288.84524185 0 -143.62108959 0 3739.69773532 0 251.04142177 0 468.29759366 0 22470
0.14350000 0.14350900 11088.37679224 0 116.63419167 0 3524.53192759 0 129.95847821 0 610.62250368 0 22519
0.14450000 0.14449900 11116.49729805 0 270.07988297 0 3863.55977575 0 -339.49359403 0 446.97214445 0 22218
0.14550000 0.14550500 10996.32607401 0 247.76801914 0 3697.61583776 0 -369.56935376 0 -298.44534475 0 23559
0.14650000 0.14650700 10609.88881059 0 45.54917789 0 3696.68214909 0 20.86179040 0 -248.83681806 0 23044
0.14750000 0.14750500 10473.19678939 0 66.11724082 0 3510.01032264 0 253.38662802 0 -643.50482170 0 23649
0.14850000 0.14849900 10337.29565741 0 178.94308118 0 3327.22703489 0 -53.28726005 0 -520.86426575 0 23640
0.14950000 0.14949500 10149.16288281 0 371.25438719 0 3635.98140101 0 -32.50576687 0 -1000.89338292 0 24457
0.15050000 0.15050000 9663.30425297 0 134.93448959 0 3414.45552576 0 -103.25487242 0 -466.67077846 0 24591
0.15150000 0.15149900 9375.06906843 0 -5.67279577 0 3013.89210201 0 815.97359580 0 -666.16709340 0 25020
0.15250000 0.15250500 9479.00509420 0 28.58427446 0 2965.34029120 0 286.41943469 0 -636.90748741 0 25297
0.15350000 0.15350100 9314.40127407 0 243.88167737 0 2695.29555886 0 -79.40439951 0 -553.71912234 0 25452
0.15450000 0.15450400 9270.79252092 0 134.98392017 0 2653.12578472 0 -52.81777942 0 -683.18988553 0 26061
0.15550000 0.15549900 9111.74689451 0 -94.75094586 0 2543.02741373 0 42.25402581 0 -106.30946236 0 26128
0.15650000 0.15649500 9157.82717649 0 24.52811119 0 2779.05292479 0 9.18141105 0 -1189.42050368 0 26331
0.15750000 0.15749700 9113.50442613 0 179.55052804 0 2364.42924813 0 -5.54318880 0 -670.85091515 0 27345
0.15850000 0.15849900 8854.34540522 0 33.87103940 0 2573.91603183 0 162.00267334 0 -726.91727206 0 26980
0.15950000 0.15949700 8890.92403191 0 89.47208982 0 2672.68930848 0 143.88581779 0 -355.35311992 0 27777
0.16050000 0.16050000 8747.44354485 0 95.71517164 0 2455.91975316 0 191.51931833 0 -346.87412835 0 28224
0.16150000 0.16150500 8757.68116650 0 -50.47784577 0 2415.07911231 0 143.28496167 0 46.69036514 0 28075
0.16250000 0.16249700 8603.41382917 0 115.25452935 0 2391.85772587 0 175.80259188 0 74.82449182 0 28590
0.16350000 0.16349900 8555.01580237 0 98.30247787 0 2392.58270766 0 -39.06245825 0 184.50676719 0 29163
0.16450000 0.16449100 8411.84288335 0 141.65485109 0 2538.65555385 0 -94.03365327 0 227.85848134 0 28996
0.16550000 0.16550500 8412.83149488 0 118.02483856 0 2698.15154773 0 21.04281616 0 190.29563694 0 30777
0.16650000 0.16650700 8356.92002044 0 58.70089680 0 2694.55959249 0 -42.10221902 0 720.71318546 0 29211
0.16750000 0.16749900 8453.45244429 0 -194.45549458 0 2323.01740950 0 639.90957110 0 501.32271113 0 30922
0.16850000 0.16850800 8733.21852336 0 -128.90176233 0 2104.58918372 0 362.04162617 0 402.68454472 0 30867
0.16950000 0.16949900 8462.04238005 0 186.02703204 0 2033.20044652 0 -140.39711753 0 919.90962157 0 30852
0.17050000 0.17049200 8340.22347012 0 51.15328713 0 2098.89917513 0 206.91639371 0 1039.64036425 0 31257
0.17150000 0.17149500 8342.76090639 0 114.24065330 0 1746.71180902 0 -37.15410845 0 853.83192521 0 32608
0.17250000 0.17250900 8240.40665907 0 153.75655471 0 2015.07590176 0 40.21935343 0 631.02415034 0 32361
0.17350000 0.17350400 7999.09756861 0 118.96511797 0 2013.15360156 0 -128.17678054 0 1112.31978873 0 32508
0.17450000 0.17449800 7852.96979956 0 105.82273595 0 2047.62319032 0 -133.77671564 0 217.32207932 0 32791
0.17550000 0.17549800 7608.23352244 0 244.75055706 0 2002.89401076 0 -193.06924152 0 36.55753632 0 33633
0.17650000 0.17650100 7708.45676268 0 -33.35157896 0 2008.32038962 0 41.13590617 0 213.66311819 0 33984
0.17750000 0.17750300 7654.47857301 0 -31.80396253 0 1956.71486763 0 198.21111994 0 -152.95358245 0 34069
0.17850000 0.17849800 7616.65868961 0 -16.65579756 0 2056.38887924 0 118.25112075 0 -167.48067969 0 34536
