### header ###
fiducial parameters:
Omega_m = 0.31
Omega_nu = 0
Omega_de = 0.69
Omega_k = 0
H_0 = 100
w_de = -1
zeff = 0
beta = 0
fgrowth = 0
b_1 = 2
gamma = 0.55
Lx = 3500 Ly = 3500 Lz = 3500
nx = 700 ny = 700 nz = 700
xoffset = -983.599254 yoffset = -42.9823471 zoffset = 800.977702
bins = 400 dk = 0.001
kx_ny = 0.628318531 ky_ny = 0.628318531 kz_ny = 0.628318531
############################
A(data) = 9.03607814 (not used)
A(ran) = 9.03140969 (used)
Ngal = 501230
weighted Ngal = 0
Nran = 25229228
weighted Nran = 0
SN(data) = 6739.02736
SN(ran) = 134.065055
SN(data+ran) = 6873.09242
############################
13 columns: k_central k_mean P_0(k) sigma^{lin}_{P_0(k)} P^img_1(k) sigma^{lin}_{P_1(k)} P_2(k) sigma^{lin}_{P_2(k)} P^img_3(k) sigma^{lin}_{P_3(k)} P_4(k) sigma^{lin}_{P_4(k)} N_modes
### header ###
0.00050000 0 0 0 0 0 0 0 0 0 0 0 0
0.00150000 0.00179520 101461.97048217 0 9266.14604672 0 -9070.98314567 0 124014.72598611 0 -94636.15708013 0 3
0.00250000 0.00253879 106273.43296425 0 66592.32358851 0 70456.47653117 0 -50606.25541943 0 84603.17802151 0 6
0.00350000 0.00331552 66480.50063963 0 36832.80970541 0 52820.41571465 0 -57942.30221788 0 100768.95379802 0 7
0.00450000 0.00420575 46624.34785869 0 -13717.53423958 0 25772.33372752 0 72508.50453509 0 -20689.77199414 0 24
0.00550000 0.00557378 68748.37549477 0 -16006.06009118 0 13688.53496797 0 9153.94962237 0 -7141.21343457 0 45
0.00650000 0.00659388 71684.00251714 0 6248.72789691 0 786.83921395 0 -11031.69639772 0 19561.54654431 0 40
0.00750000 0.00754703 55586.77047353 0 17919.02340622 0 38744.12533456 0 10225.02234106 0 14106.60780041 0 57
0.00850000 0.00846663 60573.76642546 0 6419.34027825 0 30703.30835929 0 729.82598688 0 12614.35361524 0 75
0.00950000 0.00948925 62579.76907027 0 2116.99076617 0 47555.83961359 0 11399.13035056 0 -6703.68692409 0 112
0.01050000 0.01054430 53806.06141237 0 2207.24001450 0 34862.39707576 0 11215.13875983 0 17354.85575844 0 105
0.01150000 0.01145670 60696.68379265 0 -7648.60182668 0 36217.45394940 0 29619.79011987 0 26713.16236912 0 144
0.01250000 0.01249090 71196.61703170 0 -2515.12659938 0 30068.83944699 0 -1551.97730630 0 5799.07441830 0 169
0.01350000 0.01339930 60136.25089955 0 -1041.88231551 0 16104.48186151 0 -5369.16021661 0 14946.48821998 0 180
0.01450000 0.01448870 66099.33597106 0 2531.33982851 0 33561.27445350 0 1906.68013952 0 6835.49081049 0 267
0.01550000 0.01550050 63855.29763841 0 3306.56505386 0 20508.30685509 0 -3652.22758385 0 14594.98189738 0 238
0.01650000 0.01653350 62702.46674600 0 1023.90825940 0 32566.73125199 0 7848.16954134 0 -1485.00436727 0 315
0.01750000 0.01747870 68133.01973877 0 38.25838754 0 43918.51809473 0 -532.34973484 0 1479.01777521 0 297
0.01850000 0.01844180 64167.80872835 0 65.26066385 0 30209.88135894 0 4554.00606992 0 9028.33005033 0 388
0.01950000 0.01947590 61099.04868630 0 -3270.35990264 0 36508.87465998 0 3728.20787240 0 19582.85661512 0 399
0.02050000 0.02045430 62783.31320020 0 2877.57355627 0 28995.20732289 0 3084.50093456 0 -3152.95679089 0 462
0.02150000 0.02154770 67495.14560897 0 7081.32554486 0 36259.41501666 0 2585.63657078 0 8026.89952181 0 571
0.02250000 0.02255340 59776.50614751 0 -4738.85445732 0 32916.48004298 0 9667.23672995 0 21638.39968226 0 510
0.02350000 0.02348930 65777.48799442 0 -1001.09440060 0 33417.15686124 0 9016.14815934 0 9369.12641467 0 555
0.02450000 0.02439640 64045.33074407 0 -1414.96673249 0 30690.78594655 0 6471.22041455 0 12473.97077765 0 592
0.02550000 0.02547300 66839.58631731 0 1627.81479540 0 26857.71934429 0 -8348.87931331 0 -5300.46269968 0 837
0.02650000 0.02652900 63697.77886760 0 5395.61106738 0 32095.49308825 0 -8647.59378009 0 21.25503810 0 723
0.02750000 0.02749970 60674.71464748 0 1795.62611073 0 37370.61437899 0 -2472.72614921 0 -7142.43272213 0 826
0.02850000 0.02848090 60405.59261924 0 -6190.45473937 0 31154.99398383 0 11381.11565153 0 -1883.44776851 0 831
0.02950000 0.02946900 63726.00921913 0 -952.86773314 0 26642.31187597 0 11735.36811728 0 -12161.89907061 0 996
0.03050000 0.03053250 62624.14674350 0 4064.76419172 0 19261.11848421 0 1828.44801360 0 -3213.38292466 0 1041
0.03150000 0.03150510 58670.13999712 0 2756.52356643 0 17476.34513119 0 -2918.08465995 0 777.72201870 0 1036
0.03250000 0.03246190 56751.79424151 0 1138.77063951 0 24634.55169955 0 4413.27172601 0 1420.72264853 0 1059
0.03350000 0.03345080 55160.23952020 0 863.15343350 0 15018.32732466 0 5014.46836796 0 -3928.17103167 0 1302
0.03450000 0.03451200 51207.00169390 0 -189.20157351 0 13880.43545096 0 3.46635763 0 -2846.10275583 0 1339
0.03550000 0.03553350 53390.29534017 0 1054.98691060 0 10593.40096715 0 2770.49594275 0 -3926.21577775 0 1365
0.03650000 0.03647120 51026.19562921 0 2184.62277955 0 10985.34150142 0 -4276.86530369 0 -4678.13174009 0 1308
0.03750000 0.03744890 47363.82928486 0 2187.02840095 0 10135.52004367 0 860.73023679 0 -6581.96687531 0 1579
0.03850000 0.03847530 45244.68554247 0 1426.02819708 0 14384.73717817 0 -2547.37730448 0 -11256.22106128 0 1662
0.03950000 0.03950240 43507.80492591 0 1332.12108608 0 15638.73598406 0 -1929.68183451 0 -9224.67928522 0 1683
0.04050000 0.04050350 42531.60596061 0 -251.45773707 0 14851.36182143 0 1309.39400541 0 -6565.53395473 0 1822
0.04150000 0.04152450 42043.89093799 0 311.99591349 0 13261.78432318 0 1359.75827070 0 -11781.61316785 0 1887
0.04250000 0.04250150 42020.27410694 0 3138.78669226 0 17367.26832546 0 -534.19514303 0 -6544.66326683 0 1920
0.04350000 0.04349210 40882.71177042 0 825.02488361 0 17467.22793595 0 -198.53736175 0 -3487.54687171 0 2005
0.04450000 0.04448520 39250.40428483 0 -987.19342400 0 18493.18701505 0 539.69841390 0 -2224.15625627 0 2151
0.04550000 0.04548030 38644.49526125 0 521.75072075 0 14924.40922909 0 3146.98118340 0 -4167.82145168 0 2274
0.04650000 0.04648670 40294.92729159 0 -439.10938740 0 16655.35817646 0 434.68260465 0 1900.52877888 0 2311
0.04750000 0.04749250 38158.53777025 0 -343.17122893 0 14468.00023834 0 2913.80067664 0 -534.92232174 0 2568
0.04850000 0.04851840 39705.60497260 0 1212.09266149 0 17028.61395278 0 1396.20508252 0 2565.42495723 0 2493
0.04950000 0.04949480 38787.95377916 0 436.98606952 0 11940.99931600 0 -882.73343412 0 1755.93884999 0 2644
0.05050000 0.05050630 40090.39455013 0 1443.02133087 0 17897.16410678 0 41.08054392 0 -82.32926165 0 2829
0.05150000 0.05149060 35709.96669614 0 821.80310847 0 13507.39936610 0 -2502.85683180 0 769.39790960 0 2784
0.05250000 0.05249300 36837.53307162 0 -319.96192552 0 16395.46318919 0 2280.62794391 0 -690.17936906 0 3055
0.05350000 0.05348950 35774.55598292 0 221.43690021 0 15816.02698552 0 -504.27536424 0 -848.80428633 0 3009
0.05450000 0.05448610 34984.65536859 0 534.33354865 0 14770.51536723 0 2101.46956511 0 150.68087438 0 3336
0.05550000 0.05550870 34970.48526996 0 189.78485432 0 14895.40995748 0 1155.50014355 0 -1191.18901987 0 3349
0.05650000 0.05647670 34779.57339850 0 1194.66014480 0 11781.83285930 0 138.03433597 0 -2432.34686040 0 3324
0.05750000 0.05747970 34759.69132213 0 -54.28971214 0 13743.01844797 0 980.11606389 0 -1587.80898206 0 3639
0.05850000 0.05849280 33029.18175766 0 696.30436673 0 12437.94137958 0 574.23720546 0 -1302.49569383 0 3846
0.05950000 0.05951020 32169.85864463 0 503.18239926 0 13020.78280075 0 -377.82645697 0 -862.89529604 0 3787
0.06050000 0.06049470 31488.37576168 0 75.51849711 0 12345.45127845 0 1309.67960430 0 209.60761400 0 3930
0.06150000 0.06148310 32346.16103456 0 578.79800000 0 11957.14663770 0 1073.03895718 0 -2238.45816977 0 4083
0.06250000 0.06249100 30673.43032187 0 355.98802822 0 11681.87324881 0 -352.29721183 0 468.86988989 0 4303
0.06350000 0.06350600 30943.21142447 0 260.79462377 0 12145.53205747 0 869.36301238 0 327.83676560 0 4470
0.06450000 0.06451750 30137.27333417 0 506.17569529 0 12154.42956126 0 512.72030364 0 1923.91493390 0 4479
0.06550000 0.06550280 29859.69318504 0 241.23110000 0 10484.69763688 0 1764.37500173 0 1857.80977611 0 4636
0.06650000 0.06648880 29304.86242396 0 190.07594549 0 11925.40122294 0 -59.30416953 0 1047.50312130 0 4653
0.06750000 0.06749660 29646.04324834 0 788.25842072 0 11513.69944259 0 625.48902421 0 2142.15642195 0 5220
0.06850000 0.06852730 28845.15806143 0 318.80854540 0 11848.39936914 0 -213.15892631 0 2276.53069834 0 5029
0.06950000 0.06949320 28174.65975106 0 -177.57989572 0 11050.15047965 0 1272.16728894 0 2434.47786749 0 5040
0.07050000 0.07048030 27989.56970307 0 382.35649470 0 11128.36063643 0 -393.76836715 0 -546.55718102 0 5475
0.07150000 0.07148790 27575.78085393 0 567.29166022 0 9793.85589810 0 1388.51588172 0 2183.87582861 0 5509
0.07250000 0.07249820 27441.98875989 0 -469.92660577 0 8947.58245729 0 1287.16123051 0 830.85110091 0 5916
0.07350000 0.07351270 27443.19706287 0 -99.61085031 0 7405.30452858 0 1204.79890529 0 130.94049900 0 5721
0.07450000 0.07449140 26747.10469839 0 1169.04412154 0 7636.28812082 0 -488.17088237 0 815.12119297 0 6028
0.07550000 0.07549160 25632.93950147 0 1205.28222649 0 7573.17076676 0 -1114.18716607 0 733.98474606 0 6183
0.07650000 0.07648840 24075.21726371 0 97.59803723 0 8000.22897958 0 772.27586762 0 445.18385603 0 6330
0.07750000 0.07749960 24693.20931713 0 610.21497604 0 7991.45230609 0 -109.48312507 0 -483.13445585 0 6583
0.07850000 0.07848650 23340.12966656 0 -18.17683132 0 7715.80544173 0 180.92030424 0 -133.31206822 0 6549
0.07950000 0.07947320 23438.77112834 0 304.68787735 0 8206.62909838 0 -522.64816033 0 -45.87915445 0 6828
0.08050000 0.08048110 23123.29420381 0 259.07334125 0 7889.03215134 0 591.66093449 0 388.60561804 0 7147
0.08150000 0.08149960 22869.00134855 0 -4.10165039 0 7738.21396980 0 1038.41997823 0 -477.78277208 0 7386
0.08250000 0.08250610 22903.38306073 0 -97.28563599 0 7401.36106702 0 1423.55666825 0 1762.97996102 0 7227
0.08350000 0.08350160 23211.17078446 0 188.83688570 0 7181.41697022 0 542.65765775 0 1541.12454859 0 7798
0.08450000 0.08449610 22558.46748168 0 400.31517241 0 7373.85569728 0 -1102.31284311 0 849.09867288 0 7371
0.08550000 0.08548940 21817.11867816 0 1005.13232948 0 8184.95653668 0 -1220.63865896 0 322.08414494 0 8256
0.08650000 0.08650700 20745.35393140 0 675.64128725 0 9132.68348985 0 -1022.88339877 0 1268.76207144 0 8037
0.08750000 0.08749060 20639.90203462 0 -14.21140062 0 9877.98673950 0 520.41389827 0 -899.32013872 0 8155
0.08850000 0.08849210 20135.60030741 0 125.61957204 0 8812.76879800 0 945.83650823 0 10.31260234 0 8718
0.08950000 0.08949900 20022.45920982 0 189.49596006 0 9321.92570629 0 457.03511139 0 668.17727018 0 8571
0.09050000 0.09049190 19788.81735102 0 260.72871633 0 7657.25766987 0 1430.38907240 0 541.37575813 0 8932
0.09150000 0.09150830 19826.82397215 0 92.48054456 0 7332.31204377 0 978.36182765 0 2114.34348417 0 9285
0.09250000 0.09250820 19522.33162019 0 14.29037970 0 6425.29391659 0 1738.03399668 0 2725.71184033 0 9204
0.09350000 0.09350330 19120.07657226 0 -96.03822792 0 5241.98083526 0 579.96895544 0 3359.03835708 0 9349
0.09450000 0.09448040 18626.75941764 0 910.66939911 0 5888.89526829 0 12.97343929 0 3137.35869782 0 9564
0.09550000 0.09549270 17855.31288525 0 546.12768423 0 5423.42400516 0 -276.90130255 0 3260.40787988 0 10155
0.09650000 0.09649430 17312.12577110 0 21.33478610 0 6559.64622383 0 -49.14805341 0 3473.42071137 0 9913
0.09750000 0.09749140 17311.68638820 0 80.62214923 0 5131.30028193 0 -63.36022295 0 1486.37743884 0 10476
0.09850000 0.09850240 16779.26415518 0 88.98162865 0 5828.54602653 0 398.09519029 0 2200.91290069 0 10575
0.09950000 0.09950330 17181.95858601 0 195.21562700 0 4880.12704529 0 -314.39384568 0 -26.92439570 0 10882
0.10050000 0.10051200 16721.70499485 0 465.39546958 0 5663.74448409 0 -543.06079156 0 227.85957980 0 10875
0.10150000 0.10150300 16291.32944112 0 215.47447421 0 6005.60635197 0 -838.76438700 0 -566.83140663 0 11118
0.10250000 0.10250800 15954.87198295 0 47.38283260 0 6251.72668523 0 -13.83550855 0 -594.57514160 0 11575
0.10350000 0.10349800 16481.14285532 0 -169.99285144 0 6107.70795411 0 396.78033695 0 -1618.09344867 0 11364
0.10450000 0.10450100 16171.04837135 0 112.68963165 0 5939.68793191 0 297.92687292 0 -959.28931427 0 12093
0.10550000 0.10551000 15903.57402899 0 421.28581993 0 5907.04178220 0 -50.50014445 0 -280.88101319 0 12067
0.10650000 0.10649700 15717.49536947 0 -32.70711409 0 5167.06605026 0 753.48236239 0 -90.21805214 0 12054
0.10750000 0.10749900 15746.60448681 0 133.96784720 0 6042.00922550 0 877.09944685 0 -6.31561296 0 12807
0.10850000 0.10850100 15185.84205653 0 558.87308379 0 5142.73522199 0 -111.44507958 0 373.57872275 0 12736
0.10950000 0.10950300 14638.15126762 0 200.81006982 0 5134.01347136 0 304.81200302 0 1296.81666981 0 12933
0.11050000 0.11050200 14301.36427228 0 -143.14765451 0 5135.21078977 0 837.37923239 0 2634.81450222 0 13428
0.11150000 0.11150900 14626.06823778 0 -71.25110051 0 4576.86496546 0 1182.33545437 0 1649.27865023 0 13453
0.11250000 0.11250000 14972.74134845 0 -51.87782954 0 3767.15916677 0 396.51780567 0 2390.13314797 0 13668
0.11350000 0.11349100 14536.43412552 0 206.88563691 0 3607.28969742 0 -395.20405079 0 1826.87721972 0 13791
0.11450000 0.11448600 14221.72612107 0 377.59248557 0 3952.68859767 0 -806.78500084 0 2657.01432341 0 14205
0.11550000 0.11549300 14000.82636645 0 398.79490757 0 5083.39656090 0 -460.28434796 0 1343.62193358 0 14776
0.11650000 0.11649800 13723.24621732 0 144.32190532 0 5203.77649182 0 98.04203365 0 1933.43855833 0 14553
0.11750000 0.11747300 13533.65249457 0 -32.74940469 0 5514.49709643 0 289.52037953 0 2186.40228031 0 14568
0.11850000 0.11849100 13795.74439636 0 -114.89972766 0 4968.77254602 0 702.81602136 0 1516.90356605 0 16015
0.11950000 0.11950300 13838.58422943 0 -181.68263358 0 4339.31259882 0 277.34947311 0 2276.09131543 0 15270
0.12050000 0.12050700 13820.34983894 0 62.04910437 0 4697.81609415 0 339.15526919 0 1786.57482292 0 15999
0.12150000 0.12150000 13771.68818241 0 271.27500447 0 4169.89753589 0 -476.19110752 0 1824.33978345 0 15670
0.12250000 0.12250700 13544.74691288 0 371.01272659 0 4973.21031334 0 85.02619391 0 1814.25594582 0 16887
0.12350000 0.12352200 13447.31375408 0 51.49435811 0 4924.30699621 0 -490.54904234 0 773.78514789 0 16407
0.12450000 0.12449800 13136.67004148 0 331.22111242 0 5086.28550349 0 -214.04428286 0 295.53443301 0 16306
0.12550000 0.12549900 12878.97196872 0 -116.07617538 0 4798.34690242 0 139.13499014 0 740.67544922 0 17523
0.12650000 0.12650100 12974.64759591 0 -207.81493175 0 4624.46111846 0 729.01532542 0 655.19680076 0 17154
0.12750000 0.12750600 13058.78942188 0 192.71443982 0 4565.45199455 0 -51.44855244 0 -182.45924286 0 18007
0.12850000 0.12850300 12717.38890605 0 436.59062490 0 4192.31704853 0 -393.44651918 0 102.14971457 0 17496
0.12950000 0.12949900 12794.17106839 0 8.35911693 0 4468.52412609 0 284.35872887 0 -110.28730563 0 18405
0.13050000 0.13049000 12350.94356474 0 -18.01744518 0 4201.62098151 0 80.83590901 0 164.09303751 0 18100
0.13150000 0.13148800 12281.85060320 0 110.55532920 0 4268.24241421 0 676.24983257 0 76.80533979 0 19059
0.13250000 0.13249300 12660.70851153 0 21.74637803 0 3467.09359757 0 38.38317228 0 797.43932649 0 18957
0.13350000 0.13349100 12325.78889353 0 118.77069104 0 4019.65055213 0 478.71536230 0 354.21621666 0 19468
0.13450000 0.13450700 12050.51550464 0 104.86356307 0 3177.97964723 0 162.13229130 0 583.28300098 0 19953
0.13550000 0.13551000 12091.70765182 0 7.00300554 0 3865.83358227 0 -74.63599655 0 941.46684526 0 19956
0.13650000 0.13649900 11988.56251528 0 198.88337579 0 3709.14963897 0 -369.40128980 0 -192.63864627 0 19723
0.13750000 0.13749600 11656.27919469 0 462.09460552 0 4159.28643878 0 -447.35660449 0 432.97010978 0 20946
0.13850000 0.13851100 11170.54139515 0 100.37087289 0 4250.88678954 0 -63.64713999 0 476.34489153 0 20955
0.13950000 0.13949800 11226.01348668 0 -26.64868293 0 3930.46680734 0 528.51392209 0 274.49568115 0 20506
0.14050000 0.14048300 11133.96276845 0 -12.10115438 0 4085.15155843 0 542.15017050 0 373.75777128 0 21447
0.14150000 0.14148400 11006.87126368 0 271.62321542 0 3582.90394629 0 23.84915476 0 570.64415177 0 21771
0.14250000 0.14249400 10850.17633581 0 188.97089749 0 3582.40964053 0 315.64608695 0 1025.75806142 0 22470
0.14350000 0.14350900 10763.76070331 0 -7.01612112 0 3251.90582070 0 481.20007261 0 932.31230247 0 22519
0.14450000 0.14449900 10594.25776381 0 -203.93737763 0 3005.59874971 0 297.44904402 0 1071.66698407 0 22218
0.14550000 0.14550500 10630.49586876 0 237.14703592 0 2808.30484157 0 -122.86464124 0 876.17015201 0 23559
0.14650000 0.14650700 10461.20163613 0 207.52493904 0 2898.85067336 0 -182.79646924 0 829.45056790 0 23044
0.14750000 0.14750500 10491.17853471 0 -131.41063871 0 2799.00090860 0 411.07126588 0 836.47410361 0 23649
0.14850000 0.14849900 10400.61073377 0 -33.68748719 0 2768.91416430 0 91.50775081 0 316.85548840 0 23640
0.14950000 0.14949500 10222.56179680 0 240.50721667 0 2429.40299495 0 -324.60949818 0 196.05594680 0 24457
0.15050000 0.15050000 10122.49234059 0 230.70787947 0 2523.54078197 0 211.10041741 0 937.99572032 0 24591
0.15150000 0.15149900 10065.98769923 0 6.28347210 0 2376.83083058 0 269.19892025 0 890.25786634 0 25020
0.15250000 0.15250500 9860.25763935 0 -15.10334792 0 2601.23466384 0 64.99220090 0 432.52413613 0 25297
0.15350000 0.15350100 9947.42022279 0 317.90561353 0 2289.66824715 0 -27.28908351 0 88.09638195 0 25452
0.15450000 0.15450400 9387.29489772 0 276.43445821 0 2630.22295088 0 -436.10181142 0 854.04832128 0 26061
0.15550000 0.15549900 9092.68866109 0 126.49943630 0 2746.17609905 0 179.45056843 0 1252.90034863 0 26128
0.15650000 0.15649500 8930.61129265 0 114.06490014 0 2756.92999561 0 243.37309165 0 603.18155421 0 26331
0.15750000 0.15749700 9170.67912641 0 43.22879678 0 2632.52971113 0 397.19884917 0 557.15070281 0 27345
0.15850000 0.15849900 8971.44094893 0 -21.12014755 0 2202.38483341 0 -64.94771338 0 239.20224945 0 26980
0.15950000 0.15949700 8851.90683010 0 218.67867403 0 2274.69627472 0 -159.42898799 0 844.08311704 0 27777
0.16050000 0.16050000 8653.89892475 0 -2.86260158 0 2356.23475699 0 -136.04612833 0 740.30636758 0 28224
0.16150000 0.16150500 8656.56817589 0 1.91723631 0 2183.06297024 0 228.38683928 0 136.08786971 0 28075
0.16250000 0.16249700 8703.20867107 0 138.25842125 0 2206.97638475 0 25.83857070 0 -59.09491342 0 28590
0.16350000 0.16349900 8518.48111397 0 106.16369708 0 2321.94092139 0 -57.10132334 0 121.16093403 0 29163
0.16450000 0.16449100 8436.73392482 0 133.88216754 0 2491.04841628 0 203.99120204 0 439.64872991 0 28996
0.16550000 0.16550500 8282.62037150 0 -71.09555896 0 2165.64143813 0 -63.39460466 0 169.39309378 0 30777
0.16650000 0.16650700 8410.90919468 0 50.62339135 0 2406.91757488 0 134.68184442 0 68.39983501 0 29211
0.16750000 0.16749900 8217.37201037 0 208.29825295 0 2315.29525498 0 -163.76020496 0 456.08933969 0 30922
0.16850000 0.16850800 8065.44438700 0 141.39891055 0 2437.46567123 0 -62.70631135 0 507.79811666 0 30867
0.16950000 0.16949900 8046.07858554 0 82.92034150 0 2597.87338463 0 45.30246439 0 251.22376568 0 30852
0.17050000 0.17049200 8045.81495579 0 -11.20173758 0 2488.18144284 0 155.53056318 0 708.27315702 0 31257
0.17150000 0.17149500 7808.83378692 0 59.18850198 0 2508.77751643 0 339.34310538 0 830.12721757 0 32608
0.17250000 0.17250900 8001.84371175 0 -13.92162760 0 2276.46479090 0 7.10356930 0 663.79113035 0 32361
0.17350000 0.17350400 7945.98716017 0 55.98759753 0 2170.83714096 0 120.66992364 0 805.54484259 0 32508
0.17450000 0.17449800 7948.11816726 0 -118.52463661 0 2128.18404563 0 394.40766928 0 877.55091278 0 32791
0.17550000 0.17549800 8060.13883844 0 -39.18098179 0 1786.02559429 0 -17.85234705 0 938.00340952 0 33633
0.17650000 0.17650100 8051.03262777 0 113.03344878 0 1727.40093042 0 32.20061545 0 554.28592628 0 33984
0.17750000 0.17750300 8032.89709844 0 -20.81257952 0 1906.54832465 0 -179.21000629 0 599.66429407 0 34069
0.17850000 0.17849800 7759.65585548 0 271.43208386 0 1947.34502722 0 -92.89125773 0 648.28750461 0 34536
