### header ###
fiducial parameters:
Omega_m = 0.31
Omega_nu = 0
Omega_de = 0.69
Omega_k = 0
H_0 = 100
w_de = -1
zeff = 0
beta = 0
fgrowth = 0
b_1 = 2
gamma = 0.55
Lx = 3500 Ly = 3500 Lz = 3500
nx = 700 ny = 700 nz = 700
xoffset = -983.599254 yoffset = -42.9823471 zoffset = 800.977702
bins = 400 dk = 0.001
kx_ny = 0.628318531 ky_ny = 0.628318531 kz_ny = 0.628318531
############################
A(data) = 9.08912942 (not used)
A(ran) = 9.10786523 (used)
Ngal = 506065
weighted Ngal = 0
Nran = 25229228
weighted Nran = 0
SN(data) = 6689.34028
SN(ran) = 135.199985
SN(data+ran) = 6824.54027
############################
13 columns: k_central k_mean P_0(k) sigma^{lin}_{P_0(k)} P^img_1(k) sigma^{lin}_{P_1(k)} P_2(k) sigma^{lin}_{P_2(k)} P^img_3(k) sigma^{lin}_{P_3(k)} P_4(k) sigma^{lin}_{P_4(k)} N_modes
### header ###
0.00050000 0 0 0 0 0 0 0 0 0 0 0 0
0.00150000 0.00179520 28033.61783912 0 -25914.14455955 0 -16373.05466112 0 12294.70255312 0 -6928.15666479 0 3
0.00250000 0.00253879 31648.20129274 0 -28768.59559054 0 1181.99493262 0 -13912.07102000 0 -5007.57005637 0 6
0.00350000 0.00331552 21626.75603533 0 -11604.43201211 0 -14637.05281037 0 -4976.49470054 0 -18050.39889429 0 7
0.00450000 0.00420575 27513.05894449 0 -6613.28389174 0 -5877.98758772 0 -9233.77451132 0 5563.03792267 0 24
0.00550000 0.00557378 39083.32893587 0 3974.08654506 0 1080.36566709 0 -4027.47156780 0 -12352.92078780 0 45
0.00650000 0.00659388 39795.45877632 0 1249.33036254 0 23648.57646465 0 1023.69955252 0 7662.26663497 0 40
0.00750000 0.00754703 46021.95389833 0 -11890.03089922 0 10743.88961151 0 7938.51765082 0 2296.40179014 0 57
0.00850000 0.00846663 58907.51661060 0 -6996.73335141 0 16893.83324720 0 -3324.73353691 0 -2611.20865575 0 75
0.00950000 0.00948925 62695.98584818 0 -1776.52393901 0 7366.99033941 0 -6739.11217066 0 -6196.93563719 0 112
0.01050000 0.01054430 66077.36682589 0 4429.06754138 0 23166.79311123 0 17634.30328491 0 1662.89952023 0 105
0.01150000 0.01145670 72171.16831112 0 -2363.78115835 0 12140.47915408 0 17527.09385652 0 28062.50726501 0 144
0.01250000 0.01249090 81772.23397584 0 -2369.73479669 0 14453.61044826 0 21474.94924225 0 6285.93264425 0 169
0.01350000 0.01339930 85099.02162783 0 -9252.30548527 0 26931.09628913 0 -20486.11801848 0 15850.07916052 0 180
0.01450000 0.01448870 87247.38433329 0 2557.97741702 0 12947.18616445 0 -1005.37508854 0 12978.05281341 0 267
0.01550000 0.01550050 85463.70943753 0 -4879.14941833 0 33207.02198776 0 -17807.20045734 0 17539.17688636 0 238
0.01650000 0.01653350 83672.34534096 0 8501.09253557 0 44918.22404535 0 -13526.51252239 0 -3119.12430734 0 315
0.01750000 0.01747870 86037.76320063 0 12153.99017835 0 49085.00196264 0 -915.09288649 0 1955.18801204 0 297
0.01850000 0.01844180 73364.20273918 0 1719.26136214 0 68785.06396719 0 7799.31016250 0 16699.95554114 0 388
0.01950000 0.01947590 79047.29105559 0 156.94647458 0 76298.40176711 0 11824.78253809 0 21589.73802573 0 399
0.02050000 0.02045430 77923.56928052 0 -123.28205499 0 54780.83238324 0 23477.10728665 0 15957.72797182 0 462
0.02150000 0.02154770 82863.66110752 0 -1210.42300646 0 64514.15230184 0 3055.83120012 0 27538.43330715 0 571
0.02250000 0.02255340 74676.85916265 0 5607.05310500 0 50489.15987571 0 8982.84293527 0 30674.30908768 0 510
0.02350000 0.02348930 71008.89068629 0 1657.82464769 0 62308.23043606 0 11170.54139515 0 36791.83724968 0 555
0.02450000 0.02439640 70824.02032974 0 2203.12079978 0 44991.16160729 0 5914.69802929 0 16114.14828538 0 592
0.02550000 0.02547300 70837.75104547 0 1789.26604320 0 47116.12717316 0 14009.72387025 0 23011.36140920 0 837
0.02650000 0.02652900 66046.61002266 0 961.27642345 0 36797.32953597 0 4305.75472958 0 16506.62706371 0 723
0.02750000 0.02749970 66384.16593809 0 1189.24475052 0 37009.22194106 0 3505.04529584 0 26673.94744500 0 826
0.02850000 0.02848090 63291.67921926 0 1431.49851423 0 34784.29676471 0 756.80190022 0 7286.23176179 0 831
0.02950000 0.02946900 61580.61234827 0 1872.59501080 0 25724.11145389 0 3690.06943640 0 10634.06585485 0 996
0.03050000 0.03053250 58086.74934732 0 2765.39910107 0 27337.63532037 0 1785.57522682 0 9455.26743285 0 1041
0.03150000 0.03150510 57379.78225599 0 -2042.62520979 0 25598.11840638 0 4535.09063593 0 12531.09055507 0 1036
0.03250000 0.03246190 55493.95083522 0 2476.40598103 0 26048.59572795 0 3187.89871627 0 -296.44725100 0 1059
0.03350000 0.03345080 53200.48192596 0 4237.96893218 0 24426.28420341 0 -2321.10609387 0 5738.69222282 0 1302
0.03450000 0.03451200 50823.09088218 0 1544.57370438 0 25097.55143385 0 3085.81908327 0 8287.84902805 0 1339
0.03550000 0.03553350 47372.94648011 0 -453.45963302 0 26695.36736154 0 5208.97219465 0 8649.25245055 0 1365
0.03650000 0.03647120 48322.12339686 0 -733.11586637 0 20614.96705486 0 6576.72723419 0 6206.63501478 0 1308
0.03750000 0.03744890 48011.58952999 0 -445.58589139 0 16389.97090290 0 4698.56304509 0 9858.62093804 0 1579
0.03850000 0.03847530 49017.22714981 0 1395.53502360 0 13247.06499592 0 981.24417949 0 4931.16136950 0 1662
0.03950000 0.03950240 46634.23397401 0 1926.86978393 0 17237.76021472 0 -4738.18439839 0 7169.43280154 0 1683
0.04050000 0.04050350 44204.00713612 0 1546.17745198 0 15655.43253438 0 1257.10743993 0 8547.84287648 0 1822
0.04150000 0.04152450 41680.08189410 0 -244.92740868 0 18131.35519422 0 1092.92652584 0 6064.35184614 0 1887
0.04250000 0.04250150 42531.60596061 0 831.06420162 0 15896.98328545 0 -1879.47135324 0 2158.77608027 0 1920
0.04350000 0.04349210 41390.30886940 0 1496.70293707 0 21149.14681949 0 -773.19637480 0 2145.47376287 0 2005
0.04450000 0.04448520 40212.87253441 0 1173.73453403 0 21186.27467481 0 227.15217332 0 7599.20420378 0 2151
0.04550000 0.04548030 40854.81095606 0 158.22837421 0 21499.44483911 0 2068.43895536 0 1135.33246829 0 2274
0.04650000 0.04648670 39525.34813654 0 478.88122934 0 19638.43855238 0 1815.28849565 0 1524.64768972 0 2311
0.04750000 0.04749250 39231.62066572 0 486.06733672 0 22161.48502859 0 1537.21404075 0 5445.90942523 0 2568
0.04850000 0.04851840 37218.25835728 0 1435.79348211 0 18893.35499418 0 2035.24357702 0 6929.65056666 0 2493
0.04950000 0.04949480 36740.09991282 0 1533.64405466 0 20963.50754286 0 2268.77559010 0 9650.39738019 0 2644
0.05050000 0.05050630 35343.08197192 0 -493.29738240 0 16103.71294143 0 3428.27411806 0 7093.92484961 0 2829
0.05150000 0.05149060 35400.75097798 0 -352.03797592 0 14884.20569345 0 3863.60371404 0 7643.36218556 0 2784
0.05250000 0.05249300 36025.00423777 0 -76.92551102 0 14419.55827326 0 -1128.51104872 0 6479.94216518 0 3055
0.05350000 0.05348950 35882.97371430 0 335.15688477 0 11462.29164291 0 -581.91871707 0 4864.89144312 0 3009
0.05450000 0.05448610 34933.46726037 0 -670.00949689 0 12198.47769731 0 -112.94007991 0 1874.38549614 0 3336
0.05550000 0.05550870 34159.71396774 0 1475.27203596 0 12762.42565363 0 68.26109986 0 1671.20385710 0 3349
0.05650000 0.05647670 35362.74435684 0 377.66718066 0 13129.31037785 0 -1259.39223102 0 -1886.46852597 0 3324
0.05750000 0.05747970 33902.67496933 0 -312.05193481 0 14372.76399406 0 -1173.51484258 0 -2028.74071005 0 3639
0.05850000 0.05849280 33062.24532113 0 1912.18341039 0 15039.96693265 0 184.99008839 0 -1988.40535953 0 3846
0.05950000 0.05951020 30664.20328090 0 959.09488734 0 15462.87297703 0 -578.16638708 0 47.16083438 0 3787
0.06050000 0.06049470 32505.54718271 0 123.85105585 0 15409.26826283 0 1836.34592129 0 -375.76135732 0 3930
0.06150000 0.06148310 32788.61961813 0 -1321.33423581 0 14467.67070116 0 4512.30863240 0 -931.27755573 0 4083
0.06250000 0.06249100 32093.29617373 0 306.65521430 0 12211.87887586 0 -1194.48439164 0 1807.42354168 0 4303
0.06350000 0.06350600 31246.60531916 0 736.15859297 0 12723.97964960 0 1014.02104562 0 2789.72992934 0 4470
0.06450000 0.06451750 31721.02900895 0 425.56980323 0 13037.03996817 0 1272.25516552 0 1532.94104202 0 4479
0.06550000 0.06550280 31490.90221337 0 -100.99984951 0 11879.15617237 0 -958.65111061 0 1147.47042099 0 4636
0.06650000 0.06648880 30237.56248184 0 860.14475907 0 13180.82802326 0 -321.16363776 0 -490.65888806 0 4653
0.06750000 0.06749660 29263.78012250 0 664.89068606 0 13855.93985411 0 -796.89449169 0 1728.38954196 0 5220
0.06850000 0.06852730 29826.40993012 0 188.84018107 0 14884.20569345 0 -596.12506479 0 -1809.60947162 0 5029
0.06950000 0.06949320 29347.92194848 0 491.32675008 0 14540.93780028 0 1304.39602489 0 -1961.86663217 0 5040
0.07050000 0.07048030 28786.06106094 0 -2.55927360 0 12306.78558296 0 1629.23180526 0 -577.87968973 0 5475
0.07150000 0.07148790 29116.58684991 0 -186.16873302 0 12716.40029452 0 733.04446664 0 268.55851967 0 5509
0.07250000 0.07249820 28361.83686785 0 1355.02391992 0 13502.34646271 0 -9.91881640 0 -850.34761878 0 5916
0.07350000 0.07351270 26441.29419773 0 864.72532583 0 13640.97176869 0 520.91149941 0 2858.80092173 0 5721
0.07450000 0.07449140 26322.99035103 0 -169.50513642 0 11894.86411116 0 1966.43621437 0 2940.10872798 0 6028
0.07550000 0.07549160 25107.10801200 0 266.87678161 0 11063.00242957 0 2558.07627817 0 3900.92929167 0 6183
0.07650000 0.07648840 25724.22129962 0 380.27931202 0 11364.96832984 0 945.86726504 0 5180.54412081 0 6330
0.07750000 0.07749960 25010.00439038 0 201.23187740 0 8982.40355237 0 1218.89211192 0 4787.73580530 0 6583
0.07850000 0.07848650 25184.87878587 0 155.28341030 0 10231.51422346 0 -1021.49934263 0 4158.35275011 0 6549
0.07950000 0.07947320 24307.76066525 0 811.62919735 0 10218.27781350 0 -1520.94588876 0 2990.51693155 0 6828
0.08050000 0.08048110 23334.63738027 0 493.48851396 0 10342.98566601 0 -281.25998095 0 2864.87539037 0 7147
0.08150000 0.08149960 23327.82694527 0 -199.10087032 0 10791.88120912 0 535.33644012 0 539.55012217 0 7386
0.08250000 0.08250610 23516.32221077 0 525.00215424 0 10349.85102388 0 313.96434889 0 1097.05123284 0 7227
0.08350000 0.08350160 22880.31545831 0 -9.47400711 0 10325.71791791 0 272.29766818 0 -218.60947123 0 7798
0.08450000 0.08449610 22019.34465938 0 570.41237729 0 10360.54999757 0 -147.26686923 0 35.82629332 0 7371
0.08550000 0.08548940 22344.04862489 0 1.57784597 0 9400.56426140 0 693.25834475 0 867.75157558 0 8256
0.08650000 0.08650700 21723.42027404 0 414.14914312 0 9314.26945920 0 1812.45447592 0 -76.73613698 0 8037
0.08750000 0.08749060 21649.38425484 0 -64.94705431 0 8066.02656934 0 82.86278234 0 381.57219622 0 8155
0.08850000 0.08849210 20863.98731528 0 376.14142353 0 7502.27633532 0 1349.46572619 0 1282.04241969 0 8718
0.08950000 0.08949900 20421.08934880 0 441.76435859 0 7524.00381989 0 -258.83058219 0 2631.99146707 0 8571
0.09050000 0.09049190 20035.09146829 0 109.31583003 0 7199.11311665 0 1599.92496562 0 1821.63757860 0 8932
0.09150000 0.09150830 20092.76047434 0 -80.03447459 0 6417.96720667 0 677.66903935 0 1615.30336723 0 9285
0.09250000 0.09250820 19811.33572481 0 482.27546227 0 6164.21259547 0 514.61184703 0 3351.08552654 0 9204
0.09350000 0.09350330 19458.73094495 0 50.69523046 0 5995.65432921 0 -597.57283145 0 3127.42864421 0 9349
0.09450000 0.09448040 19299.89402542 0 176.96805503 0 6505.93166391 0 255.09363060 0 2482.59029539 0 9564
0.09550000 0.09549270 18939.16066185 0 604.41292480 0 6470.61626306 0 -84.32702587 0 2395.54854226 0 10155
0.09650000 0.09649430 18507.68665085 0 468.97644025 0 6743.83553687 0 -712.27923064 0 1149.73324294 0 9913
0.09750000 0.09749140 17706.36208104 0 378.99960932 0 7519.75279030 0 -1056.18313056 0 1177.78784132 0 10476
0.09850000 0.09850240 17024.43981519 0 278.14695308 0 8343.07945899 0 671.94607703 0 1782.49954649 0 10575
0.09950000 0.09950330 17517.09789547 0 18.19891032 0 6890.08413622 0 1076.10145602 0 894.67146761 0 10882
0.10050000 0.10051200 16933.59739995 0 -61.56336657 0 6428.87488725 0 943.63519989 0 467.22000709 0 10875
0.10150000 0.10150300 16836.93316123 0 513.23767700 0 5823.33933913 0 17.11989575 0 911.05605607 0 11118
0.10250000 0.10250800 16138.42419078 0 562.94067102 0 6419.80163030 0 -787.25113542 0 1187.78380237 0 11575
0.10350000 0.10349800 15742.65004068 0 493.92460149 0 6382.98134300 0 95.96583959 0 694.80497257 0 11364
0.10450000 0.10450100 15358.95892041 0 -156.67186027 0 6241.86253905 0 694.26782697 0 431.13678462 0 12093
0.10550000 0.10551000 15279.65030637 0 19.64931328 0 5782.47672913 0 29.13394247 0 396.95499166 0 12067
0.10650000 0.10649700 15208.68996750 0 -12.18309930 0 5598.60596869 0 330.90915056 0 736.66498177 0 12054
0.10750000 0.10749900 15061.38684918 0 89.68705790 0 5182.54331302 0 240.27324527 0 319.23474682 0 12807
0.10850000 0.10850100 15189.79650266 0 351.29541881 0 5591.65273424 0 502.33109489 0 1277.87926668 0 12736
0.10950000 0.10950300 14773.81073900 0 123.37212849 0 5243.15618453 0 -29.14492705 0 1517.16719579 0 12933
0.11050000 0.11050200 14871.02420635 0 -187.84827417 0 5446.00828639 0 811.02943968 0 1250.05534433 0 13428
0.11150000 0.11150900 14809.18106272 0 55.26646034 0 5032.98835733 0 54.79049881 0 2204.02153473 0 13453
0.11250000 0.11250000 14956.15464385 0 160.67463852 0 5395.64402110 0 -251.48080468 0 1660.17534623 0 13668
0.11350000 0.11349100 14650.56383464 0 -171.54497155 0 5164.86913574 0 13.42863998 0 1677.90444637 0 13791
0.11450000 0.11448600 15037.33063523 0 285.32756817 0 5582.54652357 0 -172.52699233 0 619.80450790 0 14205
0.11550000 0.11549300 14518.30958076 0 366.63647288 0 5695.24823826 0 -661.07025172 0 1210.01657727 0 14776
0.11650000 0.11649800 14886.84199087 0 -48.05442936 0 6413.76011538 0 220.32416301 0 406.51706209 0 14553
0.11750000 0.11747300 14476.45835923 0 -174.26914555 0 5958.53745846 0 83.09532574 0 -236.93063984 0 14568
0.11850000 0.11849100 14454.48921406 0 218.89287320 0 5960.19612892 0 112.20301509 0 -352.10937564 0 16015
0.11950000 0.11950300 14285.54648776 0 265.30269236 0 5634.72324333 0 313.74355898 0 571.86893161 0 15270
0.12050000 0.12050700 13745.32520821 0 -7.56499824 0 5348.47626644 0 271.97472174 0 -47.09020358 0 15999
0.12150000 0.12150000 13886.14742871 0 360.17095346 0 5241.58539065 0 887.95549993 0 580.99820989 0 15670
0.12250000 0.12250700 13357.13041319 0 199.87198732 0 4658.76593863 0 566.52383860 0 1113.90156718 0 16887
0.12350000 0.12352200 13207.74022608 0 89.79294918 0 4408.14193061 0 267.17336507 0 1180.49004617 0 16407
0.12450000 0.12449800 12966.40916647 0 86.37982279 0 4228.02789399 0 165.33758958 0 875.80216883 0 16306
0.12550000 0.12549900 12513.84477612 0 274.70438803 0 3923.28289687 0 180.46444448 0 1690.96510317 0 17523
0.12650000 0.12650100 12753.19861267 0 23.94834545 0 3229.74993780 0 205.53343603 0 879.95543572 0 17154
0.12750000 0.12750600 12567.22979886 0 -68.38709290 0 3890.04358024 0 11.25336507 0 932.97137682 0 18007
0.12850000 0.12850300 12461.77790208 0 274.05739670 0 3472.89345189 0 -75.22817486 0 750.19577827 0 17496
0.12950000 0.12949900 12075.78002157 0 28.17004623 0 3557.95798196 0 145.73891518 0 1120.00898954 0 18405
0.13050000 0.13049000 12535.26469265 0 -147.20974945 0 3513.52538587 0 518.35648783 0 814.15345213 0 18100
0.13150000 0.13148800 12347.75803869 0 66.57244151 0 3375.91066057 0 285.41654321 0 224.77401336 0 19059
0.13250000 0.13249300 12045.24290980 0 346.22823548 0 3334.10337732 0 -374.15760972 0 1600.72683942 0 18957
0.13350000 0.13349100 11979.55516576 0 76.52534304 0 3178.57281415 0 -120.55568408 0 910.58371945 0 19468
0.13450000 0.13450700 11857.95594729 0 116.82752015 0 3644.04407728 0 13.93942261 0 825.57081687 0 19953
0.13550000 0.13551000 11615.08704751 0 192.00154106 0 3634.00417794 0 144.95461670 0 875.86697780 0 19956
0.13650000 0.13649900 11768.32183502 0 69.96788274 0 3755.64733471 0 -223.63051935 0 703.90788787 0 19723
0.13750000 0.13749600 11557.30819573 0 26.04189514 0 3904.24663259 0 -52.83348736 0 432.60542197 0 20946
0.13850000 0.13851100 11438.45512040 0 109.53771840 0 3802.78213565 0 58.79316721 0 435.57235503 0 20955
0.13950000 0.13949800 11272.80776588 0 149.93172653 0 3929.88462499 0 -225.02885544 0 861.56726122 0 20506
0.14050000 0.14048300 11535.22920485 0 -31.06129558 0 3542.65647235 0 424.44278609 0 108.56767079 0 21447
0.14150000 0.14148400 11163.18173152 0 -47.63481869 0 3604.79619945 0 532.85282826 0 870.02757902 0 21771
0.14250000 0.14249400 11133.63323127 0 297.71487067 0 3405.50309910 0 60.30145887 0 362.67104217 0 22470
0.14350000 0.14350900 10949.90527028 0 223.76013731 0 3337.12413478 0 35.03320718 0 1034.56878709 0 22519
0.14450000 0.14449900 10947.99395465 0 -107.51974257 0 3255.62959080 0 421.80978404 0 1008.79788135 0 22218
0.14550000 0.14550500 10995.44730820 0 -68.67697577 0 3155.32945856 0 176.88457228 0 459.27266883 0 23559
0.14650000 0.14650700 10790.51912212 0 76.01950347 0 2592.67768180 0 -194.87730217 0 877.39493185 0 23044
0.14750000 0.14750500 10641.57930249 0 254.99916328 0 2982.04782609 0 -122.47139354 0 269.27141843 0 23649
0.14850000 0.14849900 10473.08694367 0 132.85840537 0 2747.81280037 0 47.93173169 0 483.39698713 0 23640
0.14950000 0.14949500 10371.38078613 0 -1.12467743 0 2824.29837925 0 177.85890387 0 167.07754588 0 24457
0.15050000 0.15050000 10026.92655913 0 163.87883834 0 2820.23408740 0 -51.71415941 0 88.30662667 0 24591
0.15150000 0.15149900 10246.99148622 0 138.81424062 0 2536.89802223 0 -75.91438111 0 -282.26946317 0 25020
0.15250000 0.15250500 9705.91341001 0 205.92338835 0 2765.62977710 0 317.14218574 0 105.00174900 0 25297
0.15350000 0.15350100 9692.35844745 0 113.44646871 0 2487.01707814 0 92.54678153 0 423.96715409 0 25452
0.15450000 0.15450400 9622.49656583 0 -23.73359706 0 2323.91814445 0 62.13017051 0 -171.04187812 0 26061
0.15550000 0.15549900 9326.93467138 0 187.12878467 0 2170.16708203 0 263.19365442 0 75.91317281 0 26128
0.15650000 0.15649500 9302.49399739 0 177.08449150 0 2353.30187611 0 -33.19065497 0 72.21082262 0 26331
0.15750000 0.15749700 9198.25040359 0 37.00779395 0 2093.20916653 0 -45.58059377 0 429.30126254 0 27345
0.15850000 0.15849900 9012.65506526 0 -54.04255926 0 1928.34171665 0 334.62193609 0 39.06762100 0 26980
0.15950000 0.15949700 9027.13273192 0 41.64548049 0 1884.20570402 0 219.27184095 0 331.68795675 0 27777
0.16050000 0.16050000 9016.43375823 0 162.54201586 0 1775.87584923 0 -12.68037090 0 215.91605403 0 28224
0.16150000 0.16150500 8949.39491176 0 158.94237142 0 1899.59509021 0 -310.12194540 0 -91.16733890 0 28075
0.16250000 0.16249700 8765.15067586 0 206.52753985 0 1890.66463270 0 -104.28511548 0 -176.23648250 0 28590
0.16350000 0.16349900 8453.91379634 0 68.60041330 0 2314.16384400 0 -128.45249331 0 -104.89981216 0 29163
0.16450000 0.16449100 8344.15594710 0 79.52281320 0 2251.78245631 0 146.68029305 0 243.73558255 0 28996
0.16550000 0.16550500 8522.83100471 0 -0.91689765 0 2328.63052609 0 167.25769287 0 3.75250575 0 30777
0.16650000 0.16650700 8258.63006498 0 139.65785580 0 2344.10778886 0 -202.93997844 0 60.87979662 0 29211
0.16750000 0.16749900 8117.11581642 0 307.71302864 0 2594.00681508 0 -305.03279293 0 -106.03374959 0 30922
0.16850000 0.16850800 7916.94395027 0 -41.15886393 0 2608.97878751 0 -185.88533105 0 -74.95081440 0 30867
0.16950000 0.16949900 7968.87900943 0 -22.49772280 0 2830.96601481 0 472.61562914 0 47.44643327 0 30852
0.17050000 0.17049200 8045.29868088 0 30.40683475 0 2362.22134905 0 386.74263453 0 -110.57180606 0 31257
0.17150000 0.17149500 8114.42459614 0 53.06229600 0 2462.70821902 0 -103.19983971 0 456.60561460 0 32608
0.17250000 0.17250900 8116.88514039 0 -15.42541558 0 1947.38896551 0 401.03685883 0 -18.61566500 0 32361
0.17350000 0.17350400 7938.10023706 0 -26.19502008 0 2038.24236533 0 10.02788222 0 261.97985915 0 32508
0.17450000 0.17449800 7989.27736072 0 128.47775783 0 1809.74128649 0 138.79117302 0 507.59600053 0 32791
0.17550000 0.17549800 7821.22438480 0 102.71607913 0 2037.91282815 0 68.98926717 0 676.70239696 0 33633
0.17650000 0.17650100 7844.17115692 0 -15.90379372 0 1760.49744761 0 -98.59851210 0 138.06399432 0 33984
0.17750000 0.17750300 7675.76667467 0 104.35135245 0 1873.81429836 0 61.36773133 0 128.88967930 0 34069
0.17850000 0.17849800 7575.49949615 0 105.12203007 0 1996.25932893 0 -224.53235276 0 226.85009758 0 34536
