### header ###
fiducial parameters:
Omega_m = 0.31
Omega_nu = 0
Omega_de = 0.69
Omega_k = 0
H_0 = 100
w_de = -1
zeff = 0
beta = 0
fgrowth = 0
b_1 = 2
gamma = 0.55
Lx = 3500 Ly = 3500 Lz = 3500
nx = 700 ny = 700 nz = 700
xoffset = -983.599254 yoffset = -42.9823471 zoffset = 800.977702
bins = 400 dk = 0.001
kx_ny = 0.628318531 ky_ny = 0.628318531 kz_ny = 0.628318531
############################
A(data) = 9.05000009 (not used)
A(ran) = 9.05772193 (used)
Ngal = 503541
weighted Ngal = 0
Nran = 25229228
weighted Nran = 0
SN(data) = 6728.8335
SN(ran) = 134.455642
SN(data+ran) = 6863.28914
############################
13 columns: k_central k_mean P_0(k) sigma^{lin}_{P_0(k)} P^img_1(k) sigma^{lin}_{P_1(k)} P_2(k) sigma^{lin}_{P_2(k)} P^img_3(k) sigma^{lin}_{P_3(k)} P_4(k) sigma^{lin}_{P_4(k)} N_modes
### header ###
0.00050000 0 0 0 0 0 0 0 0 0 0 0 0
0.00150000 0.00179520 25815.94248067 0 -9358.55925584 0 -21755.05584308 0 34300.75587968 0 -13675.90270950 0 3
0.00250000 0.00253879 39141.10778765 0 -1015.84448466 0 -6521.02446663 0 11923.20430842 0 67681.77349712 0 6
0.00350000 0.00331552 36986.04449291 0 -1815.10175791 0 18695.41299627 0 -79684.06672813 0 -31109.73754480 0 7
0.00450000 0.00420575 42927.70964789 0 -11120.23205272 0 -14580.48226157 0 13789.81272717 0 3399.01121671 0 24
0.00550000 0.00557378 63320.23910798 0 -18741.76789256 0 -15098.18516733 0 3195.85154682 0 -22095.46774737 0 45
0.00650000 0.00659388 87279.45928522 0 -11620.79902525 0 -36084.21108399 0 -21551.84125032 0 -926.95732334 0 40
0.00750000 0.00754703 106694.14209412 0 1233.21599456 0 6274.31096646 0 -35519.27451613 0 -50392.60548272 0 57
0.00850000 0.00846663 92013.59037633 0 5078.68417927 0 4638.24675704 0 -34851.74204036 0 8562.51826545 0 75
0.00950000 0.00948925 78666.23623274 0 17776.99288274 0 33939.14375030 0 -7492.64286517 0 -9394.51176190 0 112
0.01050000 0.01054430 71455.41356172 0 5261.63223561 0 30720.00490961 0 4602.12948240 0 1829.32677941 0 105
0.01150000 0.01145670 66969.31411950 0 -3455.06549059 0 45516.55371386 0 41392.94516682 0 14827.30560747 0 144
0.01250000 0.01249090 69178.20181988 0 -4114.38150607 0 21705.95480364 0 11748.76929583 0 2826.75892351 0 169
0.01350000 0.01339930 63850.79396365 0 3645.31828770 0 29091.87156161 0 7434.60038365 0 10702.12626656 0 180
0.01450000 0.01448870 69459.73641514 0 5285.32595867 0 22463.01154594 0 -2713.42010362 0 17407.25216965 0 267
0.01550000 0.01550050 71124.00900694 0 6502.48250811 0 31358.86765094 0 -1475.41483541 0 18752.53277369 0 238
0.01650000 0.01653350 61230.86355728 0 -2273.01563511 0 27190.11251060 0 4719.15911868 0 862.56685732 0 315
0.01750000 0.01747870 65432.46256964 0 -2833.70117338 0 34542.85585937 0 9675.90355772 0 7079.48013667 0 297
0.01850000 0.01844180 67768.77131197 0 -65.35996439 0 20786.54607858 0 6311.97706584 0 7267.00875978 0 388
0.01950000 0.01947590 68282.51977160 0 -799.40556498 0 26397.57559885 0 3229.82682981 0 5557.44677522 0 399
0.02050000 0.02045430 64481.19858410 0 2057.09189188 0 20879.47556262 0 3302.68749974 0 28730.25943223 0 462
0.02150000 0.02154770 71008.67099484 0 -5732.78252277 0 18890.60885104 0 15163.10399129 0 9483.64058383 0 571
0.02250000 0.02255340 69164.91048706 0 230.22126290 0 16808.37327252 0 204.24384721 0 15823.82603205 0 510
0.02350000 0.02348930 73174.93855360 0 6803.77834945 0 12325.45935635 0 -5326.43022927 0 14405.27832890 0 555
0.02450000 0.02439640 62576.69338994 0 2935.14370117 0 24260.85654033 0 -3923.35978888 0 22846.15343758 0 592
0.02550000 0.02547300 69837.38602049 0 -506.01092670 0 19787.71889376 0 5991.66692936 0 882.38522317 0 837
0.02650000 0.02652900 61889.93791216 0 -1550.19780554 0 16555.17887452 0 1316.12754841 0 10121.45979076 0 723
0.02750000 0.02749970 65367.65359141 0 979.02419737 0 14726.24753973 0 5046.99368737 0 9194.50466434 0 826
0.02850000 0.02848090 63424.26301032 0 -665.45749001 0 12394.66216361 0 -3172.76197525 0 7901.54357951 0 831
0.02950000 0.02946900 63215.66597700 0 4192.21818738 0 12991.45399195 0 2404.28127746 0 -182.00777693 0 996
0.03050000 0.03053250 61803.92870885 0 2197.87017408 0 20960.54170827 0 -4347.52905911 0 59.03307028 0 1041
0.03150000 0.03150510 55436.50152062 0 1660.15337708 0 15664.65957535 0 -4611.86181370 0 1084.89350791 0 1036
0.03250000 0.03246190 57666.47960036 0 -996.57534744 0 24642.57043753 0 5217.71591443 0 -5069.31433885 0 1059
0.03350000 0.03345080 56742.45735482 0 -132.95067578 0 16428.08736975 0 -115.85648393 0 -7278.37779240 0 1302
0.03450000 0.03451200 55268.43756013 0 2795.54076823 0 19239.80841340 0 1037.77518382 0 -1683.17704121 0 1339
0.03550000 0.03553350 55059.18145245 0 -471.92469953 0 16603.40114815 0 3152.42953140 0 546.48248592 0 1365
0.03650000 0.03647120 57170.08676541 0 -1151.67751229 0 15316.99785315 0 4914.79435635 0 564.21158607 0 1308
0.03750000 0.03744890 56301.97599430 0 -1171.16414405 0 8597.41625254 0 5838.38820356 0 -1640.31523900 0 1579
0.03850000 0.03847530 53693.03016051 0 2131.29267967 0 11354.20344871 0 -1365.28351071 0 993.72375240 0 1662
0.03950000 0.03950240 53207.62189814 0 3542.30496603 0 15626.76279994 0 -3041.48534833 0 4612.66368750 0 1683
0.04050000 0.04050350 49305.02295144 0 1204.49133726 0 13367.12637424 0 -2176.90062503 0 60.46359116 0 1822
0.04150000 0.04152450 46328.97270198 0 1488.50844593 0 16060.21403400 0 2290.39322894 0 -899.19820997 0 1887
0.04250000 0.04250150 48637.05109277 0 787.00617945 0 15269.21496242 0 -1081.53662253 0 -4513.76958055 0 1920
0.04350000 0.04349210 45905.62727469 0 -38.27321671 0 15521.53059462 0 311.34123296 0 179.66806297 0 2005
0.04450000 0.04448520 44119.31608151 0 1692.95331081 0 14172.73492735 0 531.44240914 0 -1692.73361936 0 2151
0.04550000 0.04548030 42194.70911954 0 1058.01645572 0 15679.26905688 0 -899.21358837 0 -159.02805109 0 2274
0.04650000 0.04648670 42615.30840368 0 593.84137215 0 14276.64898397 0 3072.70350361 0 -6944.68844652 0 2311
0.04750000 0.04749250 41555.95622393 0 25.61920879 0 13495.75571916 0 2826.89073838 0 3505.94603079 0 2568
0.04850000 0.04851840 40072.92907972 0 1702.04853691 0 13656.13047885 0 -1836.90613449 0 -2549.13483609 0 2493
0.04950000 0.04949480 38223.45659420 0 1636.09716313 0 15239.11723355 0 -1619.68621169 0 1916.75299258 0 2644
0.05050000 0.05050630 37829.22028426 0 483.44092542 0 17000.38360124 0 766.65945566 0 -2434.03848458 0 2829
0.05150000 0.05149060 36252.93411884 0 1304.65965463 0 16317.69241531 0 -966.67973470 0 -1735.46360670 0 2784
0.05250000 0.05249300 35496.86598806 0 51.44899183 0 16941.39644648 0 1107.22294705 0 -433.22605032 0 3055
0.05350000 0.05348950 35674.59637243 0 -801.33555438 0 16335.26773144 0 3477.85847870 0 2310.93437966 0 3009
0.05450000 0.05448610 35948.00238398 0 160.87345928 0 13811.78187233 0 3355.57821672 0 519.15946008 0 3336
0.05550000 0.05550870 37188.16062841 0 484.47237679 0 12391.80617474 0 -1373.37914070 0 57.19458236 0 3349
0.05650000 0.05647670 34714.87426600 0 902.80993743 0 14895.95918611 0 27.65651746 0 2023.88552897 0 3324
0.05750000 0.05747970 34882.60868931 0 1697.45698557 0 15854.69268101 0 -1228.78921181 0 1013.99468264 0 3639
0.05850000 0.05849280 33266.33867969 0 -12.36313644 0 15549.21171752 0 455.01285158 0 1150.98548422 0 3846
0.05950000 0.05951020 33427.92174237 0 -558.57100805 0 15795.81537197 0 2839.55595057 0 816.38332036 0 3787
0.06050000 0.06049470 33325.43568018 0 -733.86501422 0 11483.27217654 0 3976.21755214 0 4476.48794121 0 3930
0.06150000 0.06148310 33411.66457495 0 330.23579626 0 11970.21827907 0 218.55015454 0 1754.92826931 0 4083
0.06250000 0.06249100 32061.99014188 0 1857.62303838 0 12162.88768214 0 -1996.50098952 0 2637.82427511 0 4303
0.06350000 0.06350600 31398.41211224 0 698.51226582 0 13348.89198375 0 217.85483109 0 3655.66575507 0 4470
0.06450000 0.06451750 30272.05403975 0 331.63523080 0 12781.09942702 0 986.41351935 0 3274.16056475 0 4479
0.06550000 0.06550280 30267.98974789 0 395.23370913 0 12767.69824847 0 1836.38985958 0 5174.06322299 0 4636
0.06650000 0.06648880 30374.86963911 0 -252.38703192 0 11674.62343090 0 -130.91852985 0 1770.07599490 0 4653
0.06750000 0.06749660 29557.94697623 0 730.35873865 0 13343.28985174 0 -630.46174022 0 1748.52426350 0 5220
0.06850000 0.06852730 28203.43933123 0 646.73208913 0 13032.31660196 0 -783.08688395 0 1700.40085102 0 5029
0.06950000 0.06949320 28562.74470036 0 -292.40712520 0 13146.88569398 0 1553.98748308 0 2309.57229266 0 5040
0.07050000 0.07048030 28602.39900738 0 412.40259608 0 11777.76856744 0 710.52828977 0 -1084.36405151 0 5475
0.07150000 0.07148790 27131.56473874 0 1071.61425812 0 11734.37950575 0 313.05262937 0 1997.14907930 0 5509
0.07250000 0.07249820 26761.27479702 0 478.51763999 0 12412.01778829 0 897.67464975 0 944.18223160 0 5916
0.07350000 0.07351270 26537.73874499 0 152.57681161 0 11434.50067428 0 1912.87543846 0 3379.14012491 0 5721
0.07450000 0.07449140 25865.48290301 0 134.06560990 0 10448.36067078 0 534.47415118 0 2113.34388807 0 6028
0.07550000 0.07549160 24514.92970414 0 126.67409101 0 8957.58940291 0 -73.49447977 0 2063.17734509 0 6183
0.07650000 0.07648840 25380.73371500 0 923.90031679 0 10476.17360856 0 1174.63526899 0 3473.46464966 0 6330
0.07750000 0.07749960 24947.72186384 0 -93.46871671 0 9097.12642841 0 488.36970314 0 3021.36161136 0 6583
0.07850000 0.07848650 24683.32320181 0 -215.01971291 0 9352.62758665 0 288.86350209 0 2251.45291914 0 6549
0.07950000 0.07947320 23769.62645449 0 626.24146743 0 8874.42520389 0 408.41849160 0 2242.66526107 0 6828
0.08050000 0.08048110 23552.02207166 0 328.61557180 0 9448.40207499 0 -178.66736841 0 4532.50926138 0 7147
0.08150000 0.08149960 23414.93460584 0 51.05003215 0 9189.21010036 0 436.02601787 0 1097.23797058 0 7386
0.08250000 0.08250610 23562.67710706 0 377.45737533 0 8873.08508604 0 214.47597657 0 2487.05003186 0 7227
0.08350000 0.08350160 22714.77794951 0 645.64241953 0 9404.93612128 0 984.56701270 0 2807.14047688 0 7798
0.08450000 0.08449610 22196.85535230 0 -136.13070954 0 7904.49842953 0 1087.22113884 0 3448.90314537 0 7371
0.08550000 0.08548940 21720.56428517 0 248.10085169 0 8451.40931379 0 37.50188002 0 3832.28669761 0 8256
0.08650000 0.08650700 21858.86005397 0 313.09546920 0 7335.76119956 0 362.78418327 0 2770.62775762 0 8037
0.08750000 0.08749060 21142.00684731 0 372.00353504 0 8592.47319488 0 -389.33059983 0 3323.75590995 0 8155
0.08850000 0.08849210 20162.62235596 0 722.26750248 0 7906.95897379 0 -156.74655536 0 2910.06592197 0 8718
0.08950000 0.08949900 19937.87800094 0 339.42219431 0 8438.27176498 0 -711.39387409 0 1882.27241925 0 8571
0.09050000 0.09049190 19859.11861554 0 70.06751282 0 8359.27071897 0 1020.47338355 0 1378.28924464 0 8932
0.09150000 0.09150830 20207.98864072 0 -295.96832363 0 7372.91102403 0 1158.05954896 0 1505.41370313 0 9285
0.09250000 0.09250820 19962.70313498 0 -251.29955923 0 6815.09245921 0 639.50753574 0 975.26417818 0 9204
0.09350000 0.09350330 19612.07557818 0 622.12774500 0 6887.29405478 0 -461.11258473 0 -758.50011514 0 9349
0.09450000 0.09448040 19191.03691114 0 416.79972048 0 7200.70587968 0 -980.51150850 0 1792.52846126 0 9564
0.09550000 0.09549270 18572.60547481 0 322.44334047 0 6657.71648783 0 406.34899813 0 -125.74150080 0 10155
0.09650000 0.09649430 18411.35194932 0 13.29902202 0 7024.50235090 0 397.19775071 0 -129.06103863 0 9913
0.09750000 0.09749140 18073.35665099 0 293.24085426 0 5753.40056550 0 1000.70225136 0 37.12269258 0 10476
0.09850000 0.09850240 18337.20608439 0 151.13343877 0 6159.34642982 0 -215.06255274 0 266.11335381 0 10575
0.09950000 0.09950330 17653.08690403 0 161.48639843 0 5792.61548962 0 641.16400929 0 -94.46996050 0 10882
0.10050000 0.10051200 17186.79179795 0 419.84025017 0 5891.57550400 0 -212.36693863 0 114.95355206 0 10875
0.10150000 0.10150300 17126.04711157 0 353.88008874 0 6078.06059272 0 -398.39616758 0 530.70424587 0 11118
0.10250000 0.10250800 16331.97235967 0 220.42192570 0 6150.11938885 0 182.31864033 0 -410.38473010 0 11575
0.10350000 0.10349800 16386.89522257 0 -127.15851066 0 5602.24186221 0 470.95695868 0 -172.89607397 0 11364
0.10450000 0.10450100 16523.32361403 0 80.13454405 0 5744.84358346 0 628.55481842 0 -366.60132224 0 12093
0.10550000 0.10551000 16382.39154782 0 72.66492485 0 5200.12961373 0 167.81461070 0 676.29596777 0 12067
0.10650000 0.10649700 16247.83053369 0 81.71050068 0 5694.51227189 0 193.95679498 0 173.95718368 0 12054
0.10750000 0.10749900 16106.89846748 0 255.94163960 0 5413.64773556 0 223.96554882 0 680.74362121 0 12807
0.10850000 0.10850100 15821.29958036 0 354.78192215 0 5355.31965515 0 -247.97562757 0 731.80870223 0 12736
0.10950000 0.10950300 15232.52649000 0 183.35119016 0 5855.44724478 0 54.66285807 0 1461.35458250 0 12933
0.11050000 0.11050200 15256.14332105 0 292.47193418 0 5681.04518591 0 -12.86996462 0 628.65038420 0 13428
0.11150000 0.11150900 15063.14438080 0 100.49060473 0 6378.41176081 0 -285.11666438 0 33.78568927 0 13453
0.11250000 0.11250000 14655.83642948 0 530.10998049 0 6239.87433141 0 -391.07165458 0 504.96739231 0 13668
0.11350000 0.11349100 14414.17583269 0 -26.46392242 0 6149.85575911 0 771.86833997 0 596.76876074 0 13791
0.11450000 0.11448600 14481.73095407 0 -84.05021464 0 5799.17327945 0 634.09104300 0 541.88654075 0 14205
0.11550000 0.11549300 14303.78087825 0 65.53341079 0 5508.58739638 0 480.86504315 0 84.39348253 0 14776
0.11650000 0.11649800 14037.51483888 0 190.48786696 0 5122.24899412 0 -153.52917405 0 320.47820043 0 14553
0.11750000 0.11747300 13966.99388290 0 177.11524830 0 4765.49204583 0 76.15065927 0 53.97467460 0 14568
0.11850000 0.11849100 13621.19953804 0 230.46292350 0 4622.98918573 0 142.70937006 0 172.33586077 0 16015
0.11950000 0.11950300 13253.10651084 0 -35.46797656 0 4267.41857127 0 531.65990368 0 1090.00572799 0 15270
0.12050000 0.12050700 13698.53092902 0 -330.81797860 0 3869.11796947 0 1208.00640049 0 328.29372382 0 15999
0.12150000 0.12150000 13839.13345806 0 162.70129216 0 3509.82358491 0 121.08623894 0 205.25552634 0 15670
0.12250000 0.12250700 13669.31196595 0 214.46718891 0 2866.39126138 0 -290.69902416 0 130.09139154 0 16887
0.12350000 0.12352200 13320.99116939 0 61.24085952 0 3528.96969492 0 -79.13362980 0 788.08156910 0 16407
0.12450000 0.12449800 13036.49073954 0 61.53590514 0 2898.86165793 0 365.50176653 0 785.32993367 0 16306
0.12550000 0.12549900 13278.26118205 0 110.99361365 0 3226.77311863 0 349.59940080 0 240.82906465 0 17523
0.12650000 0.12650100 12939.71665510 0 207.20638643 0 3096.24344265 0 -464.53647601 0 563.12850721 0 17154
0.12750000 0.12750600 12782.85695863 0 505.78244759 0 3583.03576116 0 81.16127205 0 754.12166451 0 18007
0.12850000 0.12850300 12430.58171595 0 -100.84661473 0 3204.56231287 0 174.67337782 0 957.31648504 0 17496
0.12950000 0.12949900 12614.90284387 0 -202.68513636 0 3252.29028074 0 298.65734700 0 581.23657511 0 18405
0.13050000 0.13049000 12288.77088393 0 264.02079274 0 3381.43590058 0 -474.60603369 0 304.86912279 0 18100
0.13150000 0.13148800 11970.21827907 0 564.40271763 0 3715.20213846 0 -454.97770095 0 625.19134230 0 19059
0.13250000 0.13249300 11643.75678195 0 18.03754694 0 4037.15996082 0 275.04710669 0 1026.85322331 0 18957
0.13350000 0.13349100 11928.47690326 0 -218.98953744 0 3723.11103072 0 629.56759601 0 311.37198976 0 19468
0.13450000 0.13450700 11946.71129374 0 193.56464574 0 3517.72149259 0 281.23911026 0 626.46335580 0 19953
0.13550000 0.13551000 11810.17305656 0 120.65344678 0 3183.68064040 0 -168.28804578 0 566.30304869 0 19956
0.13650000 0.13649900 11592.67851945 0 81.83517558 0 3693.71631449 0 -157.12881849 0 452.04042624 0 19723
0.13750000 0.13749600 11172.07923531 0 201.07040419 0 3507.68159326 0 100.28255692 0 908.87561841 0 20946
0.13850000 0.13851100 11245.56602588 0 102.18178952 0 3276.98359990 0 -94.88012444 0 205.02814569 0 20955
0.13950000 0.13949800 11190.97270015 0 109.28364523 0 3332.18107712 0 -24.32698367 0 -134.79608397 0 20506
0.14050000 0.14048300 10911.16268278 0 193.94581041 0 3526.45422780 0 -142.18320904 0 -202.61044126 0 21447
0.14150000 0.14148400 10695.78816818 0 -12.55789291 0 3408.08447366 0 -45.76161953 0 -218.02948580 0 21771
0.14250000 0.14249400 10968.91956541 0 56.06866367 0 3042.10048439 0 388.32770835 0 -691.38877050 0 22470
0.14350000 0.14350900 10711.69382928 0 33.42078177 0 3011.92586351 0 103.87846660 0 -394.06275370 0 22519
0.14450000 0.14449900 10578.02256554 0 148.86951837 0 2898.83968879 0 265.39825814 0 135.81545231 0 22218
0.14550000 0.14550500 10609.26268996 0 72.59407436 0 2723.66870983 0 336.29708341 0 -162.83640240 0 23559
0.14650000 0.14650700 10264.06151202 0 52.54799831 0 2897.94993841 0 286.61386162 0 742.76581338 0 23044
0.14750000 0.14750500 10195.19922650 0 156.36429224 0 2460.90674912 0 -37.50056187 0 83.52614068 0 23649
0.14850000 0.14849900 10137.05788383 0 -26.35396685 0 2622.97313298 0 -17.87277836 0 419.49094077 0 23640
0.14950000 0.14949500 10218.33273636 0 115.40391954 0 2384.36624737 0 352.76625308 0 309.28821634 0 24457
0.15050000 0.15050000 10007.68158797 0 28.97906000 0 2316.44863510 0 -148.43562775 0 355.26853871 0 24591
0.15150000 0.15149900 9776.00596765 0 233.14645458 0 2408.54329162 0 -153.27323351 0 168.26278126 0 25020
0.15250000 0.15250500 9665.12769202 0 323.65164345 0 2710.35540787 0 -9.44133899 0 347.64524534 0 25297
0.15350000 0.15350100 9561.49923429 0 6.63010127 0 2502.42843347 0 147.65242772 0 258.70755498 0 25452
0.15450000 0.15450400 9314.09370604 0 -30.85852037 0 2757.20460993 0 166.98747238 0 400.52607620 0 26061
0.15550000 0.15549900 9258.64358364 0 137.77839543 0 2477.89988290 0 -43.09061086 0 353.04196585 0 26128
0.15650000 0.15649500 9385.33964380 0 65.17630234 0 2367.28523701 0 39.62871296 0 414.35125926 0 26331
0.15750000 0.15749700 9198.40418761 0 26.67383760 0 2682.04816432 0 -150.53258265 0 50.72697587 0 27345
0.15850000 0.15849900 9212.50837880 0 96.99037068 0 2571.29071899 0 235.21704651 0 270.07658760 0 26980
0.15950000 0.15949700 9243.67161122 0 69.94822036 0 2659.06843848 0 30.18901067 0 107.31037662 0 27777
0.16050000 0.16050000 9034.87685559 0 118.41479088 0 2641.67986009 0 -128.75896288 0 257.47179056 0 28224
0.16150000 0.16150500 8883.27876940 0 72.42194610 0 2567.78664033 0 42.78359206 0 443.75476314 0 28075
0.16250000 0.16249700 8713.88567562 0 127.32108233 0 2724.17400017 0 -44.99643420 0 181.86278057 0 28590
0.16350000 0.16349900 8721.60783014 0 113.32783532 0 2665.72508947 0 9.93741328 0 7.39617635 0 29163
0.16450000 0.16449100 8631.65516527 0 63.60935306 0 2727.62315596 0 220.13742527 0 326.71194537 0 28996
0.16550000 0.16550500 8515.64709424 0 74.66148076 0 2598.97184189 0 47.79497376 0 466.78391956 0 30777
0.16650000 0.16650700 8456.61600119 0 73.77392730 0 2601.59715474 0 79.66627172 0 274.31443570 0 29211
0.16750000 0.16749900 8276.13947368 0 182.64378368 0 2576.57429840 0 -106.01628412 0 193.06155232 0 30922
0.16850000 0.16850800 8144.84087761 0 22.74169015 0 2513.91829639 0 378.19224323 0 781.06242723 0 30867
0.16950000 0.16949900 8192.76656779 0 -2.71632003 0 2409.12547397 0 224.40383326 0 533.68985269 0 30852
0.17050000 0.17049200 8097.65115380 0 37.25132192 0 1998.31344400 0 173.09489474 0 677.75362056 0 31257
0.17150000 0.17149500 8028.78886829 0 149.12436045 0 2205.58134404 0 70.69429253 0 553.31049624 0 32608
0.17250000 0.17250900 7874.00525605 0 146.19038111 0 1908.97591519 0 -18.76011213 0 819.44911457 0 32361
0.17350000 0.17350400 7784.94234156 0 4.40480262 0 2315.52593100 0 -22.55429334 0 937.25975396 0 32508
0.17450000 0.17449800 7756.32752998 0 43.28437872 0 2000.82891112 0 -2.35195077 0 478.62089497 0 32791
0.17550000 0.17549800 7732.00768629 0 55.87083152 0 2142.50792827 0 -85.59936891 0 433.63797179 0 33633
0.17650000 0.17650100 7718.88112206 0 29.84695108 0 2098.96508256 0 34.80154254 0 523.22924422 0 33984
0.17750000 0.17750300 7661.81626749 0 -1.55733778 0 2238.99641383 0 57.26027011 0 443.95907619 0 34069
0.17850000 0.17849800 7677.40337599 0 45.84905673 0 1982.00135371 0 72.37075799 0 225.00578784 0 34536
0.17950000 0.17950400 7639.77023032 0 38.55749745 0 2207.10819962 0 240.00192633 0 804.27612446 0 35343
