### header ###
fiducial parameters:
Omega_m = 0.31
Omega_nu = 0
Omega_de = 0.69
Omega_k = 0
H_0 = 100
w_de = -1
zeff = 0
beta = 0
fgrowth = 0
b_1 = 2
gamma = 0.55
Lx = 3500 Ly = 3500 Lz = 3500
nx = 700 ny = 700 nz = 700
xoffset = -983.599254 yoffset = -42.9823471 zoffset = 800.977702
bins = 400 dk = 0.001
kx_ny = 0.628318531 ky_ny = 0.628318531 kz_ny = 0.628318531
############################
A(data) = 9.01097527 (not used)
A(ran) = 9.00001964 (used)
Ngal = 499942
weighted Ngal = 0
Nran = 25229228
weighted Nran = 0
SN(data) = 6744.9587
SN(ran) = 133.599091
SN(data+ran) = 6878.55779
############################
13 columns: k_central k_mean P_0(k) sigma^{lin}_{P_0(k)} P^img_1(k) sigma^{lin}_{P_1(k)} P_2(k) sigma^{lin}_{P_2(k)} P^img_3(k) sigma^{lin}_{P_3(k)} P_4(k) sigma^{lin}_{P_4(k)} N_modes
### header ###
0.00050000 0 0 0 0 0 0 0 0 0 0 0 0
0.00150000 0.00179520 48220.51610048 0 29940.21010206 0 21628.62341266 0 69167.65663020 0 -94821.35697385 0 3
0.00250000 0.00253879 81060.43367257 0 41648.66601652 0 37198.26643519 0 -14175.04168759 0 62404.56513759 0 6
0.00350000 0.00331552 53133.36618749 0 31277.69165957 0 50046.48160068 0 -49565.68685880 0 70951.00198878 0 7
0.00450000 0.00420575 42383.75361366 0 4762.54818038 0 26834.43205041 0 28659.07940190 0 2075.79861899 0 24
0.00550000 0.00557378 40829.43659340 0 -3528.46440458 0 18327.97904342 0 16592.30672984 0 -7800.78209522 0 45
0.00650000 0.00659388 53993.67791206 0 -5327.23210306 0 21626.31665242 0 2374.08468743 0 24760.98412996 0 40
0.00750000 0.00754703 55797.34472992 0 -3761.17257471 0 8747.47649857 0 11985.59668068 0 8315.65098125 0 57
0.00850000 0.00846663 64275.45753965 0 -22871.52780024 0 -7885.86859444 0 14486.23462882 0 -12270.09711054 0 75
0.00950000 0.00948925 94780.71405530 0 -3786.61284481 0 -12793.62183976 0 -280.05826870 0 -25843.18422067 0 112
0.01050000 0.01054430 88277.07816706 0 9424.32389189 0 30000.40555981 0 -47335.70877906 0 -7342.04437508 0 105
0.01150000 0.01145670 76101.22868927 0 13104.81478099 0 25800.01485043 0 -9959.43734519 0 11423.07671879 0 144
0.01250000 0.01249090 66102.63134283 0 5352.54055829 0 52600.28488012 0 7458.79939705 0 7672.32850346 0 169
0.01350000 0.01339930 68322.72330725 0 4660.02916447 0 48627.05513172 0 20476.01221170 0 8498.02783982 0 180
0.01450000 0.01448870 68784.07535566 0 -1313.45829727 0 43327.65793558 0 21257.23501369 0 13990.06148532 0 267
0.01550000 0.01550050 68076.00980707 0 -3191.10621146 0 42288.40752366 0 4574.74494295 0 31340.08403183 0 238
0.01650000 0.01653350 63570.79720856 0 8241.40625518 0 43540.42910648 0 291.49430722 0 32841.56525797 0 315
0.01750000 0.01747870 59454.32863370 0 4648.20976438 0 44580.99766711 0 10401.91789791 0 27054.12350204 0 297
0.01850000 0.01844180 56404.90143939 0 -159.68383007 0 44466.75811226 0 4043.61888950 0 23918.68710442 0 388
0.01950000 0.01947590 58835.34796874 0 1056.33252074 0 40680.26609775 0 11757.44710817 0 19083.49794557 0 399
0.02050000 0.02045430 58755.70981752 0 -1630.23140137 0 36908.49341049 0 16369.64944362 0 32966.78938540 0 462
0.02150000 0.02154770 62595.58685478 0 -7761.89670828 0 22419.95202142 0 20118.02499128 0 31638.09548596 0 571
0.02250000 0.02255340 73060.14977013 0 2457.78713050 0 15992.54906690 0 508.98554896 0 12068.85974085 0 510
0.02350000 0.02348930 64192.08463376 0 1085.31092167 0 10387.96749073 0 -1803.40318811 0 24273.59864453 0 555
0.02450000 0.02439640 69301.00934134 0 543.04431470 0 22110.51661181 0 1665.34907991 0 28528.80237109 0 592
0.02550000 0.02547300 65669.07026304 0 -1568.41022688 0 8309.47765146 0 539.68852778 0 12084.12829674 0 837
0.02650000 0.02652900 69313.09237118 0 1401.80721454 0 17360.56773618 0 -1202.54706792 0 6506.01954049 0 723
0.02750000 0.02749970 62717.95499334 0 3484.17460793 0 17586.08101128 0 -5699.25760725 0 3477.89143241 0 826
0.02850000 0.02848090 63830.36265865 0 2647.99598932 0 22565.16807095 0 -6451.14061587 0 3959.18048007 0 831
0.02950000 0.02946900 59827.14502711 0 342.45064097 0 22221.13125770 0 3273.31475266 0 -1698.92891829 0 996
0.03050000 0.03053250 58165.39888700 0 -226.77210711 0 23255.65830341 0 140.41249594 0 -3567.06419263 0 1041
0.03150000 0.03150510 59674.12993105 0 4994.14690868 0 25189.49230636 0 3885.79255065 0 -5373.45518449 0 1036
0.03250000 0.03246190 55519.21535216 0 1390.26242876 0 25542.42662340 0 -2137.87243864 0 -4131.39660900 0 1059
0.03350000 0.03345080 51985.36850701 0 3246.50141099 0 26531.03815572 0 -116.13768899 0 -4102.96853516 0 1302
0.03450000 0.03451200 49167.05671982 0 1083.11400715 0 27325.99167343 0 2368.68027772 0 4655.85502689 0 1339
0.03550000 0.03553350 50003.86145906 0 -1487.44294238 0 25064.59771611 0 4035.96264241 0 -2169.95837515 0 1365
0.03650000 0.03647120 48795.99785802 0 317.45085223 0 23790.82667958 0 5571.56195099 0 3897.17256784 0 1308
0.03750000 0.03744890 48711.08711197 0 2705.99453255 0 22548.36167490 0 -2155.53563135 0 2156.09584456 0 1579
0.03850000 0.03847530 45457.34686765 0 1269.19046977 0 22686.43775225 0 3131.24029089 0 5719.20559106 0 1662
0.03950000 0.03950240 45871.68494542 0 1221.87991566 0 28552.19951069 0 346.26668148 0 10838.54367345 0 1683
0.04050000 0.04050350 43581.51140793 0 -263.54076691 0 23597.60804787 0 1578.28535763 0 4976.79128400 0 1822
0.04150000 0.04152450 46491.98375908 0 118.93545962 0 25722.79330518 0 4338.51072502 0 6846.40947564 0 1887
0.04250000 0.04250150 44394.91900758 0 -671.33423634 0 22373.37743368 0 160.58895885 0 8499.06038964 0 1920
0.04350000 0.04349210 43469.68845905 0 1675.26814895 0 25368.76053089 0 814.08534778 0 11314.54914169 0 2005
0.04450000 0.04448520 43826.68706795 0 524.13656992 0 22315.81827335 0 3297.43687405 0 8030.76609136 0 2151
0.04550000 0.04548030 43453.98052026 0 -63.67899525 0 24670.47125189 0 932.01791592 0 6080.02683121 0 2274
0.04650000 0.04648670 40171.35085005 0 1345.55521835 0 20011.47463724 0 -788.63738848 0 2647.16116181 0 2311
0.04750000 0.04749250 41060.44215479 0 1349.26800388 0 21591.16602016 0 765.93557232 0 6067.29571159 0 2568
0.04850000 0.04851840 38520.47943680 0 1220.46290580 0 22449.83005885 0 1706.09085962 0 3775.15593561 0 2493
0.04950000 0.04949480 38956.67681401 0 -266.37808201 0 20781.82271237 0 946.19680221 0 544.90839667 0 2644
0.05050000 0.05050630 39395.40064291 0 -438.07464066 0 16983.46735947 0 2766.77217264 0 535.42980899 0 2829
0.05150000 0.05149060 37132.24915397 0 -36.89706946 0 15237.35970194 0 3847.02799401 0 1456.76303117 0 2784
0.05250000 0.05249300 38342.96874389 0 -637.59841703 0 14233.36976800 0 2721.82330164 0 4491.08643817 0 3055
0.05350000 0.05348950 36883.22889355 0 1580.39439557 0 12844.26071936 0 236.60549649 0 1906.70210867 0 3009
0.05450000 0.05448610 36852.36224460 0 1868.49776523 0 11948.46882536 0 -1396.98498718 0 2820.79430060 0 3336
0.05550000 0.05550870 35516.63821871 0 393.37511945 0 13914.15808879 0 57.15712497 0 2052.46738682 0 3349
0.05650000 0.05647670 34111.49169410 0 524.80882576 0 15411.24548590 0 -1046.86491763 0 1950.20101609 0 3324
0.05750000 0.05747970 33610.15580149 0 846.66888542 0 15627.31202857 0 146.09261842 0 1739.48396026 0 3639
0.05850000 0.05849280 33638.60584448 0 -587.75042665 0 14885.85337933 0 2364.81370817 0 2724.73421337 0 3846
0.05950000 0.05951020 35326.27557587 0 -1061.58204798 0 14028.83702654 0 1136.47486384 0 -208.95952421 0 3787
0.06050000 0.06049470 33938.26498450 0 667.13922807 0 13934.80908524 0 332.21301932 0 8.57020747 0 3930
0.06150000 0.06148310 35096.14878029 0 63.83937001 0 11557.30819573 0 -487.63263832 0 108.38258075 0 4083
0.06250000 0.06249100 34771.66450624 0 311.19623660 0 14738.76995247 0 461.86173258 0 1599.37573699 0 4303
0.06350000 0.06350600 33585.66020463 0 1273.45248393 0 14354.41975785 0 -2684.64052345 0 -1378.27826007 0 4470
0.06450000 0.06451750 32354.39946399 0 635.59373253 0 15927.52039722 0 664.58201957 0 214.60559452 0 4479
0.06550000 0.06550280 32207.64557430 0 560.75034725 0 15409.37810856 0 2335.95723600 0 -488.67068043 0 4636
0.06650000 0.06648880 32187.10442358 0 -618.08212692 0 14031.80286113 0 1098.98451762 0 -730.42903991 0 4653
0.06750000 0.06749660 31208.04946940 0 529.96827950 0 12574.58946249 0 2223.91459567 0 927.73393262 0 5220
0.06850000 0.06852730 31587.67629781 0 478.70767309 0 12554.48769467 0 341.02154807 0 1920.21313294 0 5029
0.06950000 0.06949320 29690.97015019 0 362.08885983 0 12148.49789206 0 56.36348960 0 1608.93231513 0 5040
0.07050000 0.07048030 29966.24353908 0 459.46050502 0 11241.17219684 0 664.81928634 0 -899.62770675 0 5475
0.07150000 0.07148790 28964.56036539 0 129.17088436 0 11186.79856257 0 -538.85589718 0 691.21521425 0 5509
0.07250000 0.07249820 29092.64048169 0 324.94672456 0 9267.31041141 0 609.70199650 0 -3820.29154435 0 5916
0.07350000 0.07351270 28417.19911366 0 350.43312986 0 8701.52803146 0 657.34538316 0 -2558.05430903 0 5721
0.07450000 0.07449140 28123.80118001 0 1138.58390177 0 9273.83524752 0 -1017.44054306 0 -4129.37544764 0 6028
0.07550000 0.07549160 25990.48733899 0 669.35261944 0 9529.86366525 0 -191.44132786 0 -2906.90236506 0 6183
0.07650000 0.07648840 25491.67789807 0 50.05087543 0 8160.19731008 0 1655.14441198 0 -3923.22797401 0 6330
0.07750000 0.07749960 25851.86203301 0 -403.23047797 0 7309.56299396 0 2104.89675175 0 -2827.11042983 0 6583
0.07850000 0.07848650 25594.27380598 0 63.24147972 0 6462.56457135 0 313.19103498 0 -2224.89222263 0 6549
0.07950000 0.07947320 25166.53454966 0 224.16217267 0 5575.06602964 0 -14.03191271 0 -3983.42343175 0 6828
0.08050000 0.08048110 24321.49138098 0 916.33524165 0 6817.45414231 0 -16.35646796 0 -1369.62241688 0 7147
0.08150000 0.08149960 24042.48323741 0 728.02012314 0 7615.49432492 0 -519.52085252 0 -2262.21780026 0 7386
0.08250000 0.08250610 23429.65393310 0 141.64386652 0 7016.05521458 0 494.60784191 0 -1263.05009369 0 7227
0.08350000 0.08350160 23083.42020534 0 -209.84378231 0 7407.54538138 0 475.07068111 0 -1718.30570433 0 7798
0.08450000 0.08449610 23053.54216792 0 429.94386003 0 6325.36725981 0 41.62362119 0 -1620.41119348 0 7371
0.08550000 0.08548940 22421.59970731 0 801.32456981 0 7710.65367719 0 -99.18816396 0 124.83087973 0 8256
0.08650000 0.08650700 21994.40967962 0 177.72379362 0 6993.65767109 0 134.75983489 0 -620.71952280 0 8037
0.08750000 0.08749060 21146.94990497 0 234.53490456 0 7672.06487371 0 622.58580168 0 1183.86230995 0 8155
0.08850000 0.08849210 21251.85257312 0 470.59886162 0 7696.19797967 0 99.25132525 0 -442.64751822 0 8718
0.08950000 0.08949900 20691.85906293 0 25.41950926 0 7813.95259775 0 1150.67791619 0 1084.23443356 0 8571
0.09050000 0.09049190 20476.56144033 0 25.06734386 0 6403.37969429 0 511.66908004 0 1306.91149201 0 8932
0.09150000 0.09150830 20811.59090406 0 487.37010703 0 7141.14752714 0 -827.43050501 0 1075.93668743 0 9285
0.09250000 0.09250820 19725.43636722 0 516.00139547 0 6479.38195198 0 -321.68650342 0 467.01679250 0 9204
0.09350000 0.09350330 19709.61858270 0 46.36027873 0 7313.57236295 0 481.89978989 0 -521.18611372 0 9349
0.09450000 0.09448040 19088.33115750 0 505.87581646 0 6786.91703054 0 578.34543561 0 672.17785151 0 9564
0.09550000 0.09549270 18940.14927338 0 308.56982530 0 6627.90435785 0 -66.46402378 0 -13.90361290 0 10155
0.09650000 0.09649430 17904.52377041 0 -2.61928232 0 5971.70796098 0 637.77636710 0 794.06816116 0 9913
0.09750000 0.09749140 17786.65930661 0 397.44929742 0 6411.80486146 0 758.37818639 0 1377.15783367 0 10476
0.09850000 0.09850240 17606.51231628 0 50.08932143 0 5978.81497944 0 746.12928950 0 1820.72585908 0 10575
0.09950000 0.09950330 17486.23124651 0 327.21174342 0 5919.22367319 0 91.04914490 0 1344.66546797 0 10882
0.10050000 0.10051200 17368.80616562 0 29.49884998 0 5993.10590837 0 -449.62162336 0 1969.84143187 0 10875
0.10150000 0.10150300 17119.78590520 0 0.19272542 0 5875.47212060 0 -20.67197699 0 1111.93532869 0 11118
0.10250000 0.10250800 16943.37366954 0 567.50915476 0 6606.39656473 0 -320.70667954 0 1127.54440633 0 11575
0.10350000 0.10349800 16752.13226090 0 280.02641344 0 6332.78184631 0 -451.05291316 0 414.69068255 0 11364
0.10450000 0.10450100 16213.00943861 0 326.80421578 0 7755.31694931 0 -141.21986202 0 370.59970666 0 12093
0.10550000 0.10551000 16007.81762279 0 202.14359693 0 7385.68608195 0 280.96339749 0 574.16690420 0 12067
0.10650000 0.10649700 15692.99977261 0 85.00323615 0 7457.62404778 0 -208.50695982 0 365.04810368 0 12054
0.10750000 0.10749900 15532.62501292 0 -169.39089686 0 6688.19867675 0 717.50569027 0 966.35568981 0 12807
0.10850000 0.10850100 15923.89548827 0 -233.69788013 0 6519.49761104 0 650.49760061 0 -157.83402805 0 12736
0.10950000 0.10950300 16069.55092070 0 132.90344212 0 5873.56080497 0 153.12713870 0 32.57529922 0 12933
0.11050000 0.11050200 15820.31096883 0 412.66732428 0 5628.84649700 0 -111.46155644 0 56.52715973 0 13428
0.11150000 0.11150900 15453.42624461 0 172.46657719 0 5911.13902777 0 -129.42352953 0 -537.36199531 0 13453
0.11250000 0.11250000 15163.32368274 0 -17.84696461 0 5632.88881971 0 769.69119769 0 -170.53878470 0 13668
0.11350000 0.11349100 15231.20834129 0 105.72914739 0 5181.42288662 0 576.43961227 0 -645.61385964 0 13791
0.11450000 0.11448600 14796.21926707 0 196.64801527 0 4680.28471631 0 229.15026708 0 510.16639051 0 14205
0.11550000 0.11549300 14631.67036980 0 226.46234217 0 4565.86940831 0 455.93885105 0 -87.98631653 0 14776
0.11650000 0.11649800 14238.31282566 0 167.67290971 0 4862.69452860 0 -44.62186028 0 671.14749860 0 14553
0.11750000 0.11747300 14126.05049388 0 121.55857556 0 4073.00262115 0 373.52599680 0 251.32811912 0 14568
0.11850000 0.11849100 13995.22423444 0 145.12048374 0 4259.86118534 0 -11.36837355 0 87.95918464 0 16015
0.11950000 0.11950300 13518.38393868 0 315.58677026 0 4186.89066968 0 -441.27884048 0 500.17592175 0 15270
0.12050000 0.12050700 13522.66792199 0 255.36165417 0 4497.08401480 0 98.80787806 0 68.19925671 0 15999
0.12150000 0.12150000 13333.62342786 0 52.29370546 0 4743.21533263 0 406.60164330 0 906.51613222 0 15670
0.12250000 0.12250700 13212.90297519 0 -89.61280219 0 4421.45523258 0 -113.33222915 0 -1124.58955631 0 16887
0.12350000 0.12352200 13310.88536262 0 149.23969846 0 4450.01512129 0 -214.87911038 0 192.77155960 0 16407
0.12450000 0.12449800 13157.10134648 0 -41.91932588 0 4313.22423894 0 313.25035167 0 -250.98210508 0 16306
0.12550000 0.12549900 13215.42942689 0 -56.49805061 0 3985.54345426 0 542.57307654 0 571.97438351 0 17523
0.12650000 0.12650100 13565.72744651 0 -108.05271403 0 3760.87599126 0 408.75022570 0 -271.50458204 0 17154
0.12750000 0.12750600 13166.54807890 0 152.24178215 0 3400.70284089 0 99.10786673 0 403.82913718 0 18007
0.12850000 0.12850300 13139.96541325 0 344.40259951 0 4151.12490135 0 -365.57975699 0 470.79658392 0 17496
0.12950000 0.12949900 12911.48630356 0 308.51380398 0 4156.11189730 0 -620.25926921 0 -369.90548168 0 18405
0.13050000 0.13049000 12626.98587371 0 140.21587209 0 4691.41208834 0 -343.51065222 0 68.84196405 0 18100
0.13150000 0.13148800 12263.61621271 0 55.55513490 0 4543.38398823 0 -119.12878810 0 -798.59710044 0 19059
0.13250000 0.13249300 12259.22238368 0 152.58559927 0 4761.18609338 0 469.77062484 0 -658.54380002 0 18957
0.13350000 0.13349100 12067.87112932 0 238.30810524 0 4486.85737773 0 327.29742309 0 -627.33443241 0 19468
0.13450000 0.13450700 12183.09929569 0 -31.72849852 0 4059.65636547 0 609.65805821 0 -53.12315053 0 19953
0.13550000 0.13551000 11841.91847132 0 -104.22349203 0 3537.48273867 0 777.29362037 0 424.47573980 0 19956
0.13650000 0.13649900 11851.36520374 0 125.50533249 0 3618.62577633 0 272.71178656 0 536.59637060 0 19723
0.13750000 0.13749600 11440.76188065 0 212.42515686 0 3055.47969380 0 -25.36502578 0 1405.73969152 0 20946
0.13850000 0.13851100 11652.87397719 0 -58.77921680 0 3171.88320944 0 314.20600949 0 396.26625896 0 20955
0.13950000 0.13949800 11642.54847897 0 84.38875916 0 2696.40500069 0 281.27426089 0 1316.17148670 0 20506
0.14050000 0.14048300 11430.98561105 0 25.64315515 0 2696.32810868 0 419.01860415 0 1195.41808031 0 21447
0.14150000 0.14148400 11523.91509509 0 11.46789377 0 2422.90012798 0 -66.12042635 0 1123.53503734 0 21771
0.14250000 0.14249400 11117.70560103 0 335.56001859 0 2542.91756801 0 -163.29006525 0 758.06842144 0 22470
0.14350000 0.14350900 10999.40175433 0 214.59570841 0 2513.00657687 0 -142.69618858 0 827.19873052 0 22519
0.14450000 0.14449900 10737.93597317 0 115.92898211 0 2859.73461040 0 169.94561778 0 1027.22120649 0 22218
0.14550000 0.14550500 10637.72371751 0 46.12235289 0 2633.67210668 0 -165.95821793 0 501.19419163 0 23559
0.14650000 0.14650700 10457.86232607 0 212.96779475 0 2790.49884942 0 51.90704850 0 247.05292347 0 23044
0.14750000 0.14750500 10234.00772143 0 224.78389948 0 2709.44368834 0 -645.87639092 0 -295.99248969 0 23649
0.14850000 0.14849900 10023.40051133 0 106.15436020 0 2738.09145363 0 298.48488921 0 585.90721537 0 23640
0.14950000 0.14949500 10111.59564459 0 -196.40635467 0 2426.90949698 0 480.34217750 0 -336.01477989 0 24457
0.15050000 0.15050000 10051.47707885 0 85.25478287 0 2534.67913857 0 194.35114114 0 318.63608761 0 24591
0.15150000 0.15149900 10053.59710136 0 191.79612956 0 2142.84845002 0 -27.05621057 0 116.77040037 0 25020
0.15250000 0.15250500 9965.85233558 0 -44.29638739 0 2540.85246836 0 -95.84676682 0 339.82532812 0 25297
0.15350000 0.15350100 9849.03140617 0 173.73968915 0 2178.58126463 0 354.02508510 0 238.99354257 0 25452
0.15450000 0.15450400 9769.59097727 0 80.74858166 0 2638.81288664 0 -465.10657532 0 520.72805705 0 26061
0.15550000 0.15549900 9694.77505341 0 44.86967223 0 2369.92153442 0 142.96201523 0 40.76166178 0 26128
0.15650000 0.15649500 9527.74364274 0 260.27065966 0 2765.37713193 0 -194.99703401 0 133.39445251 0 26331
0.15750000 0.15749700 9312.29223613 0 184.68252035 0 2931.78242196 0 -125.72612239 0 287.32895730 0 27345
0.15850000 0.15849900 9263.99307049 0 7.61786699 0 2805.43786813 0 184.68471727 0 -152.55044864 0 26980
0.15950000 0.15949700 9109.57194914 0 58.98572677 0 2626.51016535 0 229.82252292 0 -9.71309732 0 27777
0.16050000 0.16050000 8941.46405036 0 44.23805931 0 2483.87549038 0 322.75749924 0 225.01018167 0 28224
0.16150000 0.16150500 8822.78672819 0 130.38467963 0 2466.11343652 0 -106.71479309 0 293.99878977 0 28075
0.16250000 0.16249700 8932.55556200 0 171.20335134 0 2252.10100892 0 63.72150554 0 -81.46796132 0 28590
0.16350000 0.16349900 8742.28079574 0 28.98839689 0 2187.73141359 0 -90.92512908 0 -312.36499512 0 29163
0.16450000 0.16449100 8569.66922220 0 68.11280813 0 2327.61994541 0 -28.37732512 0 -224.19952021 0 28996
0.16550000 0.16550500 8593.64854414 0 59.44685912 0 2423.94366238 0 -10.78302764 0 -190.97228661 0 30777
0.16650000 0.16650700 8554.08211370 0 -94.29321872 0 1988.49323611 0 267.44358555 0 -190.48896542 0 29211
0.16750000 0.16749900 8787.62511136 0 -43.50418002 0 2000.30165164 0 368.43904124 0 -189.80902038 0 30922
0.16850000 0.16850800 8427.14439295 0 204.47781860 0 1700.52168132 0 -200.31246868 0 55.34576895 0 30867
0.16950000 0.16949900 8404.19762083 0 227.50367965 0 2238.23847832 0 -32.03617640 0 66.16744032 0 30852
0.17050000 0.17049200 8253.55519245 0 108.21539555 0 2029.13615466 0 68.12511085 0 147.22073402 0 31257
0.17150000 0.17149500 8094.79516493 0 71.24648699 0 2214.90724616 0 286.56882487 0 232.45991880 0 32608
0.17250000 0.17250900 7846.14837998 0 132.36959189 0 2244.37885439 0 -240.39407557 0 425.22049382 0 32361
0.17350000 0.17350400 7732.76562180 0 238.56734115 0 2185.17200818 0 -298.56837196 0 349.96738398 0 32508
0.17450000 0.17449800 7550.74026955 0 61.45352084 0 2485.98452832 0 139.48210264 0 202.27760871 0 32791
0.17550000 0.17549800 7608.84865851 0 -179.29898133 0 2301.10318720 0 241.27943212 0 416.73381305 0 33633
0.17650000 0.17650100 7838.22850315 0 -77.15926272 0 1873.77036007 0 454.76460024 0 218.11846083 0 33984
0.17750000 0.17750300 7968.94491687 0 71.42322876 0 2039.72528263 0 -238.90566599 0 228.49888192 0 34069
0.17850000 0.17849800 7771.02488810 0 243.48403584 0 2147.29720192 0 -474.83121743 0 -104.55994949 0 34536
