### header ###
fiducial parameters:
Omega_m = 0.31
Omega_nu = 0
Omega_de = 0.69
Omega_k = 0
H_0 = 100
w_de = -1
zeff = 0
beta = 0
fgrowth = 0
b_1 = 2
gamma = 0.55
Lx = 3500 Ly = 3500 Lz = 3500
nx = 700 ny = 700 nz = 700
xoffset = -983.599254 yoffset = -42.9823471 zoffset = 800.977702
bins = 400 dk = 0.001
kx_ny = 0.628318531 ky_ny = 0.628318531 kz_ny = 0.628318531
############################
A(data) = 9.1034592 (not used)
A(ran) = 9.11069264 (used)
Ngal = 505976
weighted Ngal = 0
Nran = 25229228
weighted Nran = 0
SN(data) = 6708.16413
SN(ran) = 135.241956
SN(data+ran) = 6843.40609
############################
13 columns: k_central k_mean P_0(k) sigma^{lin}_{P_0(k)} P^img_1(k) sigma^{lin}_{P_1(k)} P_2(k) sigma^{lin}_{P_2(k)} P^img_3(k) sigma^{lin}_{P_3(k)} P_4(k) sigma^{lin}_{P_4(k)} N_modes
### header ###
0.00050000 0 0 0 0 0 0 0 0 0 0 0 0
0.00150000 0.00179520 95998.90315457 0 -110798.08825623 0 -73431.42832338 0 -9226.54666256 0 117690.90755103 0 3
0.00250000 0.00253879 112986.21511444 0 -48491.17596889 0 2400.60144564 0 -145186.39117939 0 -35771.37045687 0 6
0.00350000 0.00331552 133619.63625123 0 18915.76352225 0 -55739.34618669 0 -6163.93798116 0 12127.95674134 0 7
0.00450000 0.00420575 87863.50900937 0 48458.99117122 0 31673.79534685 0 -69250.69999892 0 60258.17965520 0 24
0.00550000 0.00557378 71384.34337712 0 3152.34165482 0 42396.27602640 0 48972.41009368 0 6952.24583246 0 45
0.00650000 0.00659388 69819.37132145 0 -6381.42153370 0 39363.87491960 0 63932.51918366 0 38216.09693057 0 40
0.00750000 0.00754703 78479.71819031 0 -14282.03142454 0 -24858.30744303 0 18021.50946840 0 5738.38465478 0 57
0.00850000 0.00846663 90086.01757976 0 -9498.42581852 0 -8977.17489582 0 43366.76301397 0 27891.47746992 0 75
0.00950000 0.00948925 106418.42932233 0 -14267.20225155 0 -41630.76116321 0 723.09903463 0 1123.43617618 0 112
0.01050000 0.01054430 119403.40241646 0 -9489.94572849 0 -49655.76035396 0 -20624.19409583 0 3024.28350767 0 105
0.01150000 0.01145670 117398.71792036 0 2899.09233396 0 -31176.85328327 0 -31056.35252205 0 -5447.68892599 0 144
0.01250000 0.01249090 114061.60477015 0 10277.07823052 0 -14317.51159397 0 -39975.93530383 0 -41114.37640616 0 169
0.01350000 0.01339930 99537.47336592 0 12577.11591419 0 18278.43862108 0 -16058.45650239 0 -11599.37910872 0 180
0.01450000 0.01448870 93453.33830457 0 8379.13082620 0 16973.25170697 0 7212.17377345 0 -18297.00254874 0 267
0.01550000 0.01550050 86880.60945480 0 -3681.74313038 0 24321.05199808 0 -5131.97034086 0 8121.89410549 0 238
0.01650000 0.01653350 84387.99024464 0 5213.58571514 0 25765.74298398 0 3901.07209111 0 -27549.96710836 0 315
0.01750000 0.01747870 71685.65020302 0 13088.33792212 0 42133.41520453 0 -8934.43392391 0 7414.83913758 0 297
0.01850000 0.01844180 69718.31325370 0 2383.81701874 0 33224.37761243 0 -656.61381062 0 3190.97439659 0 388
0.01950000 0.01947590 68840.42621300 0 -4341.85003508 0 40610.18452468 0 18850.95454402 0 11932.10181221 0 399
0.02050000 0.02045430 73170.54472457 0 -652.49239899 0 28242.43456389 0 9822.54760168 0 -2646.69980976 0 462
0.02150000 0.02154770 72510.15222098 0 2261.38297275 0 28128.52454622 0 1382.32058278 0 12202.54198916 0 571
0.02250000 0.02255340 68593.49302138 0 2277.37651043 0 32983.59578145 0 -6861.46932465 0 -355.26084951 0 510
0.02350000 0.02348930 65988.72132516 0 3531.66091520 0 36499.86731046 0 -5095.61140561 0 6845.71744756 0 555
0.02450000 0.02439640 63223.90440644 0 4670.60730787 0 38093.17956339 0 1656.96785103 0 -8662.15932333 0 592
0.02550000 0.02547300 60055.07490817 0 1713.29673923 0 39755.91431503 0 -729.19107858 0 5719.41429794 0 837
0.02650000 0.02652900 62256.93248210 0 -2767.90358362 0 35145.79904836 0 14281.04281300 0 -6375.06146617 0 723
0.02750000 0.02749970 62506.72166260 0 -41.70974024 0 33913.87923336 0 7268.22804733 0 5865.00382293 0 826
0.02850000 0.02848090 62433.34471776 0 -464.92313296 0 22241.34287125 0 6591.67723748 0 2552.55103816 0 831
0.02950000 0.02946900 60413.72120295 0 2399.28329693 0 26221.93228328 0 4192.32803311 0 11262.81180483 0 996
0.03050000 0.03053250 60890.67134443 0 815.91977140 0 20445.25540848 0 4111.65733207 0 5591.26827420 0 1041
0.03150000 0.03150510 58580.72557630 0 337.76462230 0 20483.15218388 0 4828.02721753 0 13562.10253756 0 1036
0.03250000 0.03246190 58265.57818894 0 -416.26257488 0 19495.96864600 0 6760.63094835 0 14420.98626769 0 1059
0.03350000 0.03345080 56124.13576421 0 -296.74383446 0 15910.05492682 0 -448.92190608 0 15795.04645189 0 1302
0.03450000 0.03451200 57285.64446896 0 3155.19764369 0 16018.80219537 0 -2244.18113209 0 4515.79074191 0 1339
0.03550000 0.03553350 52694.42266714 0 5258.93003075 0 20146.58487999 0 -2743.92426167 0 12155.63786424 0 1365
0.03650000 0.03647120 48087.93230943 0 928.98068161 0 23179.64506115 0 -3123.69388953 0 7444.22286923 0 1308
0.03750000 0.03744890 48101.88271661 0 328.03229100 0 24305.89328792 0 5596.50791532 0 6430.84112574 0 1579
0.03850000 0.03847530 47206.85974268 0 2139.76178513 0 24069.50528597 0 4402.10041569 0 9375.73912736 0 1662
0.03950000 0.03950240 43466.83247018 0 -126.13914232 0 19715.00102327 0 341.34778988 0 8718.94956358 0 1683
0.04050000 0.04050350 44097.78631925 0 -644.93940688 0 18540.86006005 0 3669.48434738 0 9742.31628355 0 1822
0.04150000 0.04152450 42679.89769045 0 980.50821313 0 15237.68923911 0 3818.75370419 0 11039.82498143 0 1887
0.04250000 0.04250150 42642.98952658 0 853.18054005 0 17073.21131746 0 873.72828152 0 7391.74956601 0 1920
0.04350000 0.04349210 40358.52796684 0 1952.72746779 0 13760.15438120 0 -471.34251718 0 8132.25255744 0 2005
0.04450000 0.04448520 40335.24067297 0 918.25424648 0 15293.38102210 0 29.00608205 0 6579.64913050 0 2151
0.04550000 0.04548030 39377.71548105 0 -1225.65860863 0 13846.27343023 0 3721.75992829 0 8927.12918314 0 2274
0.04650000 0.04648670 40413.01144684 0 -450.49599533 0 11459.76519121 0 1555.20677064 0 2338.54959513 0 2311
0.04750000 0.04749250 38531.57385511 0 1486.20168568 0 10446.75692319 0 419.91604373 0 5030.36304448 0 2568
0.04850000 0.04851840 37121.15473567 0 1271.07981625 0 13096.57635156 0 -2154.07468320 0 5125.11596757 0 2493
0.04950000 0.04949480 38555.84976051 0 -586.33341679 0 12790.87569662 0 2614.05366005 0 3983.22570945 0 2644
0.05050000 0.05050630 37341.17572447 0 522.90410088 0 14416.70228438 0 -3019.84574035 0 -1088.11528305 0 2829
0.05150000 0.05149060 36741.63775298 0 1868.67351839 0 11465.91655186 0 -1945.99392479 0 -66.68283647 0 2784
0.05250000 0.05249300 35056.38462755 0 671.81645907 0 17735.91058129 0 -1611.23907538 0 968.09015382 0 3055
0.05350000 0.05348950 35146.01873981 0 -92.05236592 0 15414.21132050 0 375.08470765 0 -3406.66746380 0 3009
0.05450000 0.05448610 34922.59253351 0 -56.89041955 0 15023.27038233 0 3012.70576817 0 -4118.16019904 0 3336
0.05550000 0.05550870 35118.00807973 0 -165.93844570 0 14172.07585300 0 651.62242084 0 -562.87805896 0 3349
0.05650000 0.05647670 35218.84645603 0 970.05749077 0 13954.69116161 0 485.26216755 0 -2280.18856101 0 3324
0.05750000 0.05747970 33736.58823190 0 191.82249253 0 12083.68891383 0 1501.45925700 0 -1566.65269527 0 3639
0.05850000 0.05849280 33583.02390721 0 -146.47598000 0 12621.60343314 0 1512.35595300 0 -91.05441750 0 3846
0.05950000 0.05951020 32590.12839159 0 1265.44473052 0 10688.37358169 0 1927.53984286 0 1306.60392398 0 3787
0.06050000 0.06049470 32308.48395060 0 -18.38290191 0 9661.05241559 0 26.48391434 0 635.52013589 0 3930
0.06150000 0.06148310 31561.53301507 0 808.23166905 0 10579.39563711 0 370.93144076 0 -2240.36948540 0 4083
0.06250000 0.06249100 30085.97538022 0 1364.58049806 0 11109.13763442 0 -1404.55335769 0 756.88428452 0 4303
0.06350000 0.06350600 28758.70947521 0 -253.55908581 0 10921.97150220 0 -805.31196966 0 127.41554966 0 4470
0.06450000 0.06451750 30078.28617941 0 -650.23616778 0 9693.19327496 0 2902.69527377 0 -2298.65362752 0 4479
0.06550000 0.06550280 30312.14772967 0 61.88554408 0 9876.03148558 0 902.83300503 0 -1533.92965355 0 4636
0.06650000 0.06648880 29955.25896650 0 684.96279554 0 9232.23667116 0 -361.63629544 0 -1271.18966198 0 4653
0.06750000 0.06749660 29646.04324834 0 843.82058575 0 10064.79038082 0 -355.83204729 0 3.24118488 0 5220
0.06850000 0.06852730 28667.20798561 0 3.07245086 0 10403.97201298 0 -255.07825220 0 -1376.93814222 0 5029
0.06950000 0.06949320 27808.32425548 0 769.75490821 0 11761.18186284 0 630.95714444 0 2234.28403219 0 5040
0.07050000 0.07048030 27767.68133693 0 412.50475260 0 11577.51980928 0 28.81033697 0 2869.88435546 0 5475
0.07150000 0.07148790 28007.69424783 0 -804.67156907 0 10609.64715000 0 3133.10766823 0 2694.81223766 0 5509
0.07250000 0.07249820 28537.91956633 0 -173.26735253 0 9988.43661680 0 2215.79699654 0 2688.34232441 0 5916
0.07350000 0.07351270 27391.67941747 0 136.79857156 0 7950.89726412 0 -714.05763294 0 4846.62409891 0 5721
0.07450000 0.07449140 28378.20388100 0 876.24155173 0 9512.12358053 0 157.01348048 0 3072.86827220 0 6028
0.07550000 0.07549160 27128.37921269 0 957.88987973 0 10290.38054792 0 -1585.11776178 0 3393.69468358 0 6183
0.07650000 0.07648840 25702.80138309 0 657.30583869 0 10582.84479290 0 -422.99941325 0 2494.04720459 0 6330
0.07750000 0.07749960 25453.78112267 0 550.75768157 0 11200.85881547 0 -875.79777500 0 1212.36727580 0 6583
0.07850000 0.07848650 24492.19163890 0 106.01342813 0 10121.40486790 0 1461.46442823 0 1548.52815051 0 6549
0.07950000 0.07947320 24701.33790084 0 -387.02274113 0 9622.90299501 0 1864.92777914 0 -1219.04589593 0 6828
0.08050000 0.08048110 25455.53865428 0 -203.19262361 0 7513.72225995 0 1009.09885864 0 200.14330626 0 7147
0.08150000 0.08149960 24981.66419312 0 96.58372180 0 7389.27803718 0 -239.20554482 0 -784.93448906 0 7386
0.08250000 0.08250610 23722.39279239 0 1075.18644112 0 6830.35003052 0 -610.01176145 0 -314.59925719 0 7227
0.08350000 0.08350160 23378.79536205 0 746.25121826 0 8322.14286365 0 -797.33716996 0 -2055.83965061 0 7798
0.08450000 0.08449610 22444.00823538 0 214.29033729 0 7454.35064515 0 984.19353723 0 -2325.58779949 0 7371
0.08550000 0.08548940 21831.28877679 0 500.82071616 0 7551.84971138 0 331.28152757 0 -1964.78852848 0 8256
0.08650000 0.08650700 21522.07305863 0 401.81676348 0 7294.49216037 0 -479.09433005 0 -2032.10198926 0 8037
0.08750000 0.08749060 20784.01962689 0 201.28350490 0 7355.33570790 0 348.74150568 0 -1201.60239467 0 8155
0.08850000 0.08849210 20485.12940695 0 343.85337089 0 6639.81163453 0 74.10368417 0 -2042.04302744 0 8718
0.08950000 0.08949900 19920.63222199 0 576.39018169 0 7528.00220431 0 147.66341230 0 -2060.42021737 0 8571
0.09050000 0.09049190 19218.93772550 0 176.11675065 0 7272.53399978 0 -253.66124233 0 -1425.85244392 0 8932
0.09150000 0.09150830 19221.24448574 0 216.06873959 0 7461.41372532 0 1222.07763796 0 -481.96130349 0 9285
0.09250000 0.09250820 18727.70763966 0 340.29217245 0 7155.98768470 0 198.60436764 0 100.79301001 0 9204
0.09350000 0.09350330 18601.05551779 0 171.30660632 0 7061.37756105 0 999.97726957 0 -980.62135423 0 9349
0.09450000 0.09448040 18659.49344393 0 152.11985339 0 7027.68787695 0 -257.28615129 0 1531.01874182 0 9564
0.09550000 0.09549270 17830.70744267 0 432.18031901 0 7708.79728443 0 -782.70462083 0 70.09167888 0 10155
0.09650000 0.09649430 17942.64023727 0 311.22150112 0 8005.09514523 0 217.57692140 0 1111.84745211 0 9913
0.09750000 0.09749140 17336.73121368 0 -253.47450460 0 7943.09821759 0 278.70057553 0 544.08565218 0 10476
0.09850000 0.09850240 17908.14867936 0 -145.86743468 0 7108.69909973 0 711.08410914 0 425.19962314 0 10575
0.09950000 0.09950330 17636.28050798 0 165.24861454 0 6867.55477786 0 976.97557459 0 -233.06297183 0 10882
0.10050000 0.10051200 17487.11001232 0 487.41184841 0 6811.47853483 0 -634.01524945 0 401.57949672 0 10875
0.10150000 0.10150300 16832.97871510 0 622.06513294 0 7286.28668466 0 -158.18004209 0 206.58246271 0 11118
0.10250000 0.10250800 16112.83013667 0 119.51434660 0 6823.30891950 0 665.93751583 0 1172.33949332 0 11575
0.10350000 0.10349800 16443.24607992 0 -300.30503289 0 6247.87110025 0 1356.61668294 0 1103.72985297 0 11364
0.10450000 0.10450100 16468.18105968 0 -211.60131392 0 5112.62650854 0 847.50151603 0 116.39692490 0 12093
0.10550000 0.10551000 15961.02334359 0 778.70623641 0 5051.78296101 0 71.13916772 0 2022.92987115 0 12067
0.10650000 0.10649700 15286.13120420 0 158.95225754 0 5071.58814538 0 42.84049214 0 2285.01078837 0 12054
0.10750000 0.10749900 15654.22423140 0 -3.40297665 0 4497.12795309 0 1039.46461109 0 2022.13898193 0 12807
0.10850000 0.10850100 15460.12683389 0 142.11620314 0 4757.57216900 0 -216.52350089 0 916.90643942 0 12736
0.10950000 0.10950300 14850.48305562 0 286.56772642 0 4595.18723253 0 -270.06560303 0 1783.15862085 0 12933
0.11050000 0.11050200 14637.49219327 0 363.11921274 0 5087.71349793 0 -170.23011821 0 1958.52732211 0 13428
0.11150000 0.11150900 14742.94409005 0 -58.88653608 0 5215.24438560 0 677.42518183 0 2050.63296320 0 13453
0.11250000 0.11250000 14563.01679117 0 -57.07122561 0 4630.65641739 0 73.10430775 0 1744.33914134 0 13668
0.11350000 0.11349100 14625.40916343 0 95.98517244 0 4686.91939815 0 -1.38782385 0 1696.16080600 0 13791
0.11450000 0.11448600 14189.87086058 0 126.79162593 0 4888.61811989 0 48.19239559 0 2865.38068071 0 14205
0.11550000 0.11549300 14458.00427729 0 180.87526750 0 5142.43863853 0 124.55406850 0 2405.30284271 0 14776
0.11650000 0.11649800 14414.94475277 0 -170.52889858 0 5175.98552319 0 102.22946257 0 2303.30010172 0 14553
0.11750000 0.11747300 14309.82239317 0 13.96908095 0 4705.51627953 0 153.86859735 0 1512.96010449 0 14568
0.11850000 0.11849100 14411.64938100 0 335.23487524 0 4853.50044135 0 -402.76143672 0 1251.71401479 0 16015
0.11950000 0.11950300 13995.66361734 0 490.18105916 0 5805.68713099 0 -434.18939734 0 1689.17461784 0 15270
0.12050000 0.12050700 13710.61395886 0 175.15560055 0 5747.38101973 0 -438.19327404 0 1132.01512737 0 15999
0.12150000 0.12150000 13296.49557254 0 -179.69222903 0 5347.78423836 0 1006.06162432 0 1135.89268149 0 15670
0.12250000 0.12250700 13862.09121475 0 -37.90446461 0 5170.43831404 0 988.76092251 0 757.08090837 0 16887
0.12350000 0.12352200 13536.06910054 0 240.03268313 0 4830.60859209 0 -106.89307270 0 1386.41782835 0 16407
0.12450000 0.12449800 13315.71857456 0 103.73006503 0 4618.46354183 0 -84.99532726 0 1378.27826007 0 16306
0.12550000 0.12549900 12935.54251752 0 124.10040565 0 4742.24869024 0 205.94755441 0 1766.97834543 0 17523
0.12650000 0.12650100 12885.12332937 0 151.34873640 0 4409.50401761 0 -65.31042397 0 942.36428484 0 17154
0.12750000 0.12750600 13040.11564849 0 27.42287560 0 4366.03806391 0 555.62165031 0 910.17179797 0 18007
0.12850000 0.12850300 12899.07373655 0 -23.98053025 0 4338.28004899 0 107.79106151 0 1213.28997990 0 17496
0.12950000 0.12949900 12669.71586105 0 189.91337382 0 3905.81742647 0 192.21903560 0 1368.11753043 0 18405
0.13050000 0.13049000 12830.63984936 0 40.43563967 0 3862.59313336 0 144.68329776 0 911.35373798 0 18100
0.13150000 0.13148800 12559.43075233 0 88.33815239 0 3435.73264285 0 354.09758327 0 1191.56249533 0 19059
0.13250000 0.13249300 12692.45392629 0 -124.46948729 0 3517.24915597 0 180.19971628 0 1540.21282907 0 18957
0.13350000 0.13349100 12486.27349894 0 68.81109740 0 3103.59212171 0 120.92037189 0 857.28657328 0 19468
0.13450000 0.13450700 12325.67904780 0 305.96758005 0 3323.61311051 0 -347.00594322 0 863.85095386 0 19953
0.13550000 0.13551000 12104.23006456 0 292.73666238 0 3622.64612989 0 -468.10536364 0 598.75806684 0 19956
0.13650000 0.13649900 11815.55549712 0 75.97183042 0 3673.35091693 0 7.42728466 0 168.09581576 0 19723
0.13750000 0.13749600 11860.37255325 0 -93.14148629 0 3609.20101305 0 145.16881586 0 -38.54266827 0 20946
0.13850000 0.13851100 11852.13412382 0 140.82771278 0 3687.15852466 0 215.89078951 0 -203.25962950 0 20955
0.13950000 0.13949800 11452.29568186 0 353.53846853 0 3078.14086703 0 5.09263459 0 511.95797430 0 20506
0.14050000 0.14048300 11290.16339056 0 -58.14705465 0 3332.02729311 0 504.84216818 0 520.46662422 0 21447
0.14150000 0.14148400 11208.54801628 0 189.44543102 0 3298.95274506 0 386.02534194 0 497.92628128 0 21771
0.14250000 0.14249400 11112.43300619 0 349.54557640 0 3545.11701661 0 -326.40218043 0 683.46669675 0 22470
0.14350000 0.14350900 10666.05293020 0 43.92642699 0 3390.20158950 0 117.21966939 0 1299.05752261 0 22519
0.14450000 0.14449900 10723.41436822 0 16.69929647 0 3339.12332699 0 327.72691988 0 573.07943151 0 22218
0.14550000 0.14550500 10353.06950364 0 165.31342352 0 3371.79144585 0 -93.05888230 0 1239.94953755 0 23559
0.14650000 0.14650700 10247.00247080 0 262.96078148 0 3165.46821906 0 -118.21597012 0 1083.35566775 0 23044
0.14750000 0.14750500 10049.13736489 0 133.46695069 0 3401.95508216 0 85.08232508 0 772.71525052 0 23649
0.14850000 0.14849900 9885.37935685 0 163.98429024 0 3687.27935496 0 -15.23076896 0 519.53842784 0 23640
0.14950000 0.14949500 9719.31458856 0 9.03670029 0 3092.71739485 0 -17.19821575 0 537.96944217 0 24457
0.15050000 0.15050000 9723.86220161 0 68.35139304 0 3068.37558201 0 575.78603020 0 287.12244733 0 24591
0.15150000 0.15149900 9668.30223349 0 -102.75397591 0 2780.88734841 0 215.46348964 0 555.58210585 0 25020
0.15250000 0.15250500 9685.76770390 0 48.00236249 0 2540.45702375 0 -51.92561243 0 471.39634158 0 25297
0.15350000 0.15350100 9567.14530459 0 84.98631991 0 2314.80094921 0 -107.59004383 0 285.11776284 0 25452
0.15450000 0.15450400 9525.07439161 0 34.89227511 0 2302.55315078 0 277.01444364 0 439.69156974 0 26061
0.15550000 0.15549900 9576.22954612 0 113.33113069 0 2459.01740263 0 -90.02175783 0 -146.47927537 0 26128
0.15650000 0.15649500 9468.74550341 0 134.02057315 0 2414.98025115 0 -20.13340339 0 142.52153387 0 26331
0.15750000 0.15749700 9445.43624039 0 55.94673492 0 2547.44321191 0 -137.78388772 0 -130.03207485 0 27345
0.15850000 0.15849900 9085.16422887 0 77.35138289 0 2302.04786044 0 -116.63529013 0 -388.76489434 0 26980
0.15950000 0.15949700 9044.43343374 0 89.54843260 0 2494.22295776 0 301.32769659 0 -366.19159769 0 27777
0.16050000 0.16050000 9069.63204324 0 188.95002680 0 2701.53479608 0 -170.86832187 0 -286.24697690 0 28224
0.16150000 0.16150500 8830.78349703 0 176.19254420 0 2557.21948151 0 -41.34834780 0 108.04733159 0 28075
0.16250000 0.16249700 8655.10722774 0 -80.13992649 0 2422.61452910 0 264.75675910 0 -133.28900062 0 28590
0.16350000 0.16349900 8701.22046343 0 83.59116935 0 2223.20059846 0 440.43302839 0 53.57933983 0 29163
0.16450000 0.16449100 8833.29896415 0 -53.08701129 0 2128.60145939 0 325.56515599 0 550.35125238 0 28996
0.16550000 0.16550500 8728.12168168 0 -66.18446641 0 1814.55252928 0 62.59459824 0 558.95986192 0 30777
0.16650000 0.16650700 8702.13218296 0 154.72868938 0 2142.56285114 0 -161.68521920 0 514.71510202 0 29211
0.16750000 0.16749900 8443.03906948 0 253.92377362 0 1985.56035523 0 -221.33694060 0 514.06920915 0 30922
0.16850000 0.16850800 8311.97114944 0 198.71421337 0 2479.44870763 0 -120.81491999 0 554.00911505 0 30867
0.16950000 0.16949900 8249.19431714 0 139.93796240 0 2459.32497066 0 -74.20089763 0 53.81847398 0 30852
0.17050000 0.17049200 8196.10587785 0 -43.35643752 0 2514.37964844 0 122.55927012 0 361.65277230 0 31257
0.17150000 0.17149500 8159.29657513 0 20.48919370 0 2471.73753768 0 134.11504047 0 -6.89573021 0 32608
0.17250000 0.17250900 7982.78547832 0 36.50953373 0 2250.25560072 0 -22.25661143 0 394.17259942 0 32361
0.17350000 0.17350400 7879.45360405 0 150.40076778 0 2415.45258777 0 -13.43391258 0 290.93189710 0 32508
0.17450000 0.17449800 7777.76941566 0 98.88762605 0 2170.04625173 0 92.77163573 0 242.00661083 0 32791
0.17550000 0.17549800 7755.40482589 0 86.08477717 0 2344.82178608 0 261.10109334 0 349.43023839 0 33633
0.17650000 0.17650100 7592.22900019 0 54.77039704 0 1915.30302900 0 269.04733315 0 497.54401816 0 33984
0.17750000 0.17750300 7748.25386914 0 -74.06589724 0 2094.47239238 0 99.20639835 0 497.88783528 0 34069
0.17850000 0.17849800 7633.50902395 0 -8.11999377 0 1660.91131259 0 235.35435367 0 411.89181345 0 34536
