### header ###
fiducial parameters:
Omega_m = 0.31
Omega_nu = 0
Omega_de = 0.69
Omega_k = 0
H_0 = 100
w_de = -1
zeff = 0
beta = 0
fgrowth = 0
b_1 = 2
gamma = 0.55
Lx = 3500 Ly = 3500 Lz = 3500
nx = 700 ny = 700 nz = 700
xoffset = -983.599254 yoffset = -42.9823471 zoffset = 800.977702
bins = 400 dk = 0.001
kx_ny = 0.628318531 ky_ny = 0.628318531 kz_ny = 0.628318531
############################
A(data) = 8.96338525 (not used)
A(ran) = 8.96078208 (used)
Ngal = 498180
weighted Ngal = 0
Nran = 25229228
weighted Nran = 0
SN(data) = 6765.87879
SN(ran) = 133.016636
SN(data+ran) = 6898.89543
############################
13 columns: k_central k_mean P_0(k) sigma^{lin}_{P_0(k)} P^img_1(k) sigma^{lin}_{P_1(k)} P_2(k) sigma^{lin}_{P_2(k)} P^img_3(k) sigma^{lin}_{P_3(k)} P_4(k) sigma^{lin}_{P_4(k)} N_modes
### header ###
0.00050000 0 0 0 0 0 0 0 0 0 0 0 0
0.00150000 0.00179520 11507.87761912 0 -3211.77917706 0 10330.08977780 0 -37192.66430317 0 -24675.41430955 0 3
0.00250000 0.00253879 20516.32559308 0 -18223.40591245 0 -34288.23346694 0 36067.40468794 0 19894.59878497 0 6
0.00350000 0.00331552 14246.99063800 0 -6123.82232209 0 22012.53422438 0 -22864.71736524 0 -16649.20681582 0 7
0.00450000 0.00420575 36008.30768745 0 -5600.57220718 0 1532.86415001 0 -30175.71933821 0 -9151.33529410 0 24
0.00550000 0.00557378 42607.83889432 0 -2113.05828918 0 4801.92787308 0 4017.77219022 0 8840.76847351 0 45
0.00650000 0.00659388 44804.97310204 0 -19891.74279610 0 15619.18344486 0 19536.61156455 0 7674.27277280 0 40
0.00750000 0.00754703 74700.69568515 0 -14252.37307857 0 -7196.45485009 0 21402.23137176 0 3067.01349501 0 57
0.00850000 0.00846663 101133.53176199 0 -4154.61799543 0 12064.68560327 0 -15411.35533162 0 -7634.35483604 0 75
0.00950000 0.00948925 92456.48834281 0 10094.29494277 0 23237.86329583 0 -40462.99125209 0 -16520.24793371 0 112
0.01050000 0.01054430 81174.45353597 0 9149.97320710 0 42219.09487067 0 -10796.85722050 0 12574.36977104 0 105
0.01150000 0.01145670 75970.18273838 0 1670.23721471 0 60507.30976135 0 1676.72909711 0 6890.41367340 0 144
0.01250000 0.01249090 79289.83041818 0 -4873.74500862 0 47370.42002841 0 42203.71646905 0 24315.55971179 0 169
0.01350000 0.01339930 92494.27527249 0 -1886.25981910 0 48602.01030623 0 20390.77192847 0 -12028.98574238 0 180
0.01450000 0.01448870 95668.37736560 0 3233.66044564 0 43102.58404338 0 -4883.31257133 0 17419.33519949 0 267
0.01550000 0.01550050 86071.59568418 0 4405.30791088 0 52787.68168835 0 2857.35095815 0 15349.18265081 0 238
0.01650000 0.01653350 77424.86968532 0 10320.06086303 0 46853.04665983 0 -6468.59510170 0 9595.91390018 0 315
0.01750000 0.01747870 75238.61020446 0 5294.70678365 0 65396.54301730 0 4238.26551564 0 19384.91461720 0 297
0.01850000 0.01844180 72309.57392564 0 -2624.63180344 0 51515.44849198 0 23898.91487378 0 1981.79264684 0 388
0.01950000 0.01947590 73849.83069300 0 -8553.12645589 0 41250.91464335 0 13041.65348865 0 13187.63845826 0 399
0.02050000 0.02045430 81257.60675041 0 -526.58722806 0 22172.90898407 0 17060.68890471 0 10054.71752776 0 462
0.02150000 0.02154770 81058.45644951 0 2088.01346370 0 27001.28770793 0 -1879.70202926 0 8627.45905855 0 571
0.02250000 0.02255340 76986.91477651 0 2407.10431261 0 23663.95486626 0 6707.35577133 0 15099.72300749 0 510
0.02350000 0.02348930 76410.00502453 0 -542.45004933 0 17061.12828762 0 4966.21314061 0 547.41617459 0 555
0.02450000 0.02439640 73109.47050102 0 4301.82225260 0 21849.85270445 0 -10057.25496403 0 4868.75801266 0 592
0.02550000 0.02547300 66489.17845197 0 4340.08151890 0 22220.25249190 0 2008.61697308 0 -906.35795437 0 837
0.02650000 0.02652900 67963.96716674 0 3622.05296297 0 26527.85262967 0 -1108.23352773 0 3461.30472782 0 723
0.02750000 0.02749970 62652.26724930 0 -1403.39997756 0 27762.29889636 0 -2636.58301841 0 -7516.92975515 0 826
0.02850000 0.02848090 58791.29983269 0 2656.49804850 0 27480.65445538 0 3491.30359554 0 -8673.95675429 0 831
0.02950000 0.02946900 59106.88660295 0 2524.04607231 0 25725.64929405 0 -2133.47860961 0 -6201.03288277 0 996
0.03050000 0.03053250 58534.70021719 0 702.06907042 0 25423.46370234 0 908.18798417 0 -8848.25995201 0 1041
0.03150000 0.03150510 58231.19647677 0 -832.52075594 0 25919.96638302 0 3318.65906828 0 -6485.19279087 0 1036
0.03250000 0.03246190 57651.97996455 0 752.09720779 0 25441.91778428 0 -738.17426204 0 -10872.66175588 0 1059
0.03350000 0.03345080 54179.97626304 0 3152.96777546 0 26749.52130436 0 778.16469698 0 -7725.62564962 0 1302
0.03450000 0.03451200 53107.22290475 0 1127.58834462 0 26357.81144611 0 464.96597280 0 -5475.61170949 0 1339
0.03550000 0.03553350 51334.20304439 0 2126.93180435 0 26788.84607420 0 4495.88669639 0 -1098.91861018 0 1365
0.03650000 0.03647120 50481.58052063 0 1552.07616745 0 23952.40974225 0 1768.54913931 0 -1577.99975875 0 1308
0.03750000 0.03744890 48915.18047053 0 -1229.72290048 0 24753.40477488 0 4723.28931797 0 -893.50820137 0 1579
0.03850000 0.03847530 46725.73546361 0 1906.52635551 0 23949.33406193 0 2978.99411492 0 3219.30360928 0 1662
0.03950000 0.03950240 46448.70454311 0 2260.27353092 0 20589.59269220 0 -3184.03214672 0 -207.74792586 0 1683
0.04050000 0.04050350 43505.38831994 0 380.01678074 0 21605.66565597 0 2508.19533408 0 95.79404088 0 1822
0.04150000 0.04152450 46191.55569898 0 -341.13688609 0 18546.02280916 0 2533.03145269 0 -2735.53204822 0 1887
0.04250000 0.04250150 42072.89020961 0 425.69722427 0 14983.17669240 0 3307.57563454 0 2550.70562997 0 1920
0.04350000 0.04349210 43215.17591234 0 119.73953034 0 18405.63997157 0 1928.38565495 0 1604.72522384 0 2005
0.04450000 0.04448520 41350.98409956 0 847.08629918 0 15447.05519251 0 268.27182233 0 -2059.12403781 0 2151
0.04550000 0.04548030 41246.63066004 0 1024.19166137 0 15316.66831597 0 1060.02882942 0 1267.71853704 0 2274
0.04650000 0.04648670 40375.66390007 0 926.99357243 0 17015.76200286 0 -3209.38454024 0 -3869.07403118 0 2311
0.04750000 0.04749250 41032.21180325 0 -411.28656351 0 16982.47874793 0 150.80060623 0 -2455.22772509 0 2568
0.04850000 0.04851840 39907.28172520 0 1230.65658915 0 19672.60057311 0 -234.37343134 0 -2359.93655795 0 2493
0.04950000 0.04949480 38116.57670299 0 895.26573298 0 18018.54363381 0 -391.96140496 0 -2061.28799861 0 2644
0.05050000 0.05050630 37696.19711030 0 1392.10783695 0 21427.93527160 0 596.84565275 0 -375.46038003 0 2829
0.05150000 0.05149060 36262.49069698 0 -201.98761600 0 15703.54496229 0 4907.80816819 0 1182.46726924 0 2784
0.05250000 0.05249300 37764.19161458 0 200.29928719 0 20426.36194364 0 2215.73108910 0 2067.42837468 0 3055
0.05350000 0.05348950 35567.82632694 0 324.34806535 0 14576.85735262 0 3241.23980072 0 8226.90661937 0 3009
0.05450000 0.05448610 35887.80692623 0 -788.79336941 0 12690.69639468 0 3008.48769230 0 6027.37777483 0 3336
0.05550000 0.05550870 36513.92756337 0 -588.58195880 0 12981.56787663 0 2016.52586534 0 7318.57034347 0 3349
0.05650000 0.05647670 36979.23405791 0 1101.32423158 0 12398.94614692 0 493.47752939 0 7655.45619997 0 3324
0.05750000 0.05747970 35605.39356517 0 665.40476406 0 11128.90986506 0 -1277.73646723 0 6337.35142850 0 3639
0.05850000 0.05849280 35001.24207319 0 1418.47081115 0 14424.06194801 0 -1641.79815630 0 5054.44122758 0 3846
0.05950000 0.05951020 32531.03139110 0 874.69712082 0 14764.58369804 0 -1825.08673439 0 4416.31445261 0 3787
0.06050000 0.06049470 33074.21850525 0 -331.94389729 0 15464.19112574 0 1402.78484150 0 2634.15542787 0 3930
0.06150000 0.06148310 32626.04794393 0 -2.16943112 0 15540.97328808 0 1361.53777146 0 2797.49602215 0 4083
0.06250000 0.06249100 34377.09865912 0 401.95846447 0 14826.42684167 0 608.78258777 0 -1395.93046821 0 4303
0.06350000 0.06350600 32660.31981038 0 916.59557602 0 14435.37605777 0 -815.77587350 0 2005.44243160 0 4470
0.06450000 0.06451750 31721.68808331 0 -182.41091074 0 15081.92799991 0 -156.54883306 0 -378.15160031 0 4479
0.06550000 0.06550280 30450.33365274 0 377.85611531 0 12783.73572444 0 1088.42614645 0 1416.04322061 0 4636
0.06650000 0.06648880 31775.18295178 0 652.18592941 0 14204.26065066 0 2015.35051607 0 -1679.81576200 0 4653
0.06750000 0.06749660 29161.18421460 0 790.95842866 0 11194.70745482 0 1086.02162351 0 3014.58413008 0 5220
0.06850000 0.06852730 29718.76111882 0 -164.47530063 0 11713.72850929 0 1826.80032771 0 961.09627646 0 5029
0.06950000 0.06949320 28492.00405294 0 621.52469197 0 10355.32134102 0 330.76525265 0 2074.23880968 0 5040
0.07050000 0.07048030 27837.10383564 0 908.54168740 0 10156.19300927 0 781.30408782 0 3567.25093036 0 5475
0.07150000 0.07148790 27092.89904325 0 2.91255942 0 10641.74407108 0 -290.87477733 0 3666.10109902 0 5509
0.07250000 0.07249820 26496.43675209 0 675.18432903 0 10222.17733676 0 -142.99277203 0 1821.26410313 0 5916
0.07350000 0.07351270 26209.08033336 0 373.49304308 0 9701.06921350 0 1356.41896063 0 1961.61398700 0 5721
0.07450000 0.07449140 25754.75841139 0 26.09758692 0 10303.28742070 0 208.01704789 0 3808.12063793 0 6028
0.07550000 0.07549160 25685.00637550 0 423.05763148 0 9407.74817186 0 566.39861447 0 955.23600699 0 6183
0.07650000 0.07648840 25229.91553346 0 322.32910091 0 9267.28844227 0 446.13621848 0 2727.53527938 0 6330
0.07750000 0.07749960 24373.66810074 0 347.24320998 0 9592.50868268 0 1158.01561067 0 1830.32637551 0 6583
0.07850000 0.07848650 24474.06709414 0 -91.06375439 0 7664.07908945 0 566.65125964 0 3059.35724792 0 6549
0.07950000 0.07947320 24627.08219019 0 -95.02468141 0 7683.79639723 0 1265.44473052 0 1109.47478443 0 6828
0.08050000 0.08048110 23744.91116619 0 379.42690919 0 6828.91105151 0 -506.52170933 0 2260.73488297 0 7147
0.08150000 0.08149960 23617.16058707 0 597.52120396 0 7368.47325671 0 -211.53870186 0 691.42282268 0 7386
0.08250000 0.08250610 23141.85813147 0 300.86744300 0 6851.79191620 0 152.71082340 0 2024.21506614 0 7227
0.08350000 0.08350160 22789.80258024 0 -212.59431928 0 6882.95514861 0 350.62975371 0 127.99004280 0 7798
0.08450000 0.08449610 22926.23097170 0 312.61873875 0 5867.68405864 0 506.63485043 0 -185.39871449 0 7371
0.08550000 0.08548940 22330.86713779 0 50.35009519 0 6075.89663192 0 -426.22777913 0 93.14928534 0 8256
0.08650000 0.08650700 21954.53568115 0 709.50342914 0 5890.42212388 0 631.29656774 0 -451.11442677 0 8037
0.08750000 0.08749060 21122.89369102 0 658.10331866 0 5427.55420445 0 -47.46389874 0 -118.98708712 0 8155
0.08850000 0.08849210 20757.32711551 0 378.35701182 0 6186.42340123 0 89.74648444 0 -337.51307559 0 8718
0.08950000 0.08949900 19998.95222450 0 253.94134894 0 5606.95424385 0 758.83184924 0 710.96877113 0 8571
0.09050000 0.09049190 19591.97381036 0 490.04594891 0 6900.76114077 0 -886.81310438 0 91.51576955 0 8932
0.09150000 0.09150830 18386.41696956 0 770.31402295 0 6362.76972945 0 -466.28631842 0 356.56032445 0 9285
0.09250000 0.09250820 18623.13450868 0 79.64320412 0 6837.86347817 0 655.35827398 0 879.08875294 0 9204
0.09350000 0.09350330 18589.96109949 0 -392.56885183 0 6793.02445289 0 941.93588651 0 896.82883766 0 9349
0.09450000 0.09448040 18474.51324166 0 175.98054195 0 6121.47162356 0 577.65560445 0 1463.96891078 0 9564
0.09550000 0.09549270 18347.64142834 0 351.03837981 0 6450.15200434 0 -182.03194299 0 1724.20441980 0 10155
0.09650000 0.09649430 17793.79927879 0 417.17209749 0 6326.28996391 0 51.62738129 0 1912.89740761 0 9913
0.09750000 0.09749140 17666.81761975 0 367.22524597 0 6957.78205704 0 302.53160575 0 2004.62957323 0 10476
0.09850000 0.09850240 17230.83993400 0 -58.19615569 0 6615.09634622 0 467.23209012 0 2766.15703658 0 10575
0.09950000 0.09950330 16917.99930688 0 467.25845309 0 6554.95581134 0 24.36619859 0 1520.64930530 0 10882
0.10050000 0.10051200 16371.62666669 0 445.51339321 0 6899.28920804 0 -368.18200224 0 2322.02879797 0 10875
0.10150000 0.10150300 16345.26369249 0 -120.02293231 0 6319.16097630 0 898.37985931 0 1635.82254881 0 11118
0.10250000 0.10250800 16271.33751902 0 -43.18134343 0 6478.63500104 0 -26.44766525 0 1366.59067484 0 11575
0.10350000 0.10349800 15774.06591826 0 363.45863603 0 5683.95609764 0 -301.61768931 0 825.81577284 0 11364
0.10450000 0.10450100 16035.16920852 0 31.88404007 0 5403.01466930 0 1052.25065357 0 841.26227880 0 12093
0.10550000 0.10551000 15664.98911253 0 190.57684200 0 5126.31328598 0 153.71591179 0 422.37219415 0 12067
0.10650000 0.10649700 15655.87191729 0 238.65521773 0 4962.22574076 0 40.97575110 0 727.83558233 0 12054
0.10750000 0.10749900 14952.74942635 0 40.68301224 0 4262.61831305 0 259.62037296 0 563.85129209 0 12807
0.10850000 0.10850100 14870.03559482 0 258.52850645 0 4862.62862116 0 -213.01832378 0 -382.24005823 0 12736
0.10950000 0.10950300 14071.45716815 0 495.35259593 0 4130.59473520 0 -16.49377511 0 53.20190992 0 12933
0.11050000 0.11050200 14287.74340228 0 -53.29308187 0 5093.30464537 0 375.99862409 0 -23.84607908 0 13428
0.11150000 0.11150900 13782.34321781 0 87.05010141 0 3764.20431675 0 543.72425975 0 139.75891387 0 13453
0.11250000 0.11250000 14078.59714033 0 -97.26762129 0 3832.62721936 0 158.88635010 0 143.84627332 0 13668
0.11350000 0.11349100 14110.45240082 0 17.77897011 0 3320.83401365 0 255.93285194 0 -15.13421457 0 13791
0.11450000 0.11448600 14285.21695059 0 -23.18898195 0 3300.31483206 0 635.66293534 0 -42.61684624 0 14205
0.11550000 0.11549300 13940.85060016 0 105.29360909 0 2938.83451756 0 136.70630115 0 9.19149489 0 14776
0.11650000 0.11649800 14231.17285349 0 14.22293442 0 2859.81150241 0 -366.53211944 0 64.70748078 0 14553
0.11750000 0.11747300 13772.45710249 0 -8.17303828 0 2933.06761695 0 -26.50126996 0 199.08659038 0 14568
0.11850000 0.11849100 13723.57575450 0 -95.00479934 0 2925.18069384 0 100.50411575 0 -148.04018314 0 16015
0.11950000 0.11950300 13891.85940645 0 192.86602693 0 2859.13045891 0 392.66990989 0 -8.77498187 0 15270
0.12050000 0.12050700 13825.51258806 0 378.73158575 0 3041.86980837 0 -257.49815354 0 -109.33527273 0 15999
0.12150000 0.12150000 13505.20245158 0 281.45660479 0 3337.57450226 0 -340.24713571 0 312.27602009 0 15670
0.12250000 0.12250700 13266.06830649 0 30.37816501 0 3321.63588744 0 387.82571339 0 -34.07853798 0 16887
0.12350000 0.12352200 12979.48080784 0 217.65381341 0 3648.67956691 0 59.02713861 0 679.21127334 0 16407
0.12450000 0.12449800 12881.49842042 0 123.65992429 0 3151.13335184 0 -161.14697514 0 260.00373454 0 16306
0.12550000 0.12549900 12962.01533744 0 25.53770326 0 3588.24244857 0 214.26177740 0 792.33040178 0 17523
0.12650000 0.12650100 12533.50716104 0 -37.12510918 0 3322.26200808 0 246.79039219 0 842.25638262 0 17154
0.12750000 0.12750600 12755.94475581 0 76.79468476 0 3116.23536475 0 468.15369576 0 1434.73896314 0 18007
0.12850000 0.12850300 12827.78386049 0 74.89160756 0 3287.45189757 0 175.57301431 0 1271.53018373 0 17496
0.12950000 0.12949900 12666.53033500 0 -43.52439163 0 2736.01536942 0 -31.60063809 0 971.11969894 0 18405
0.13050000 0.13049000 12693.55238355 0 -16.42347385 0 3113.99451194 0 210.97519328 0 1682.26532169 0 18100
0.13150000 0.13148800 12564.81319290 0 248.18323599 0 3261.36353769 0 -483.03998852 0 946.57906534 0 19059
0.13250000 0.13249300 12483.19781862 0 351.21083760 0 3206.17704504 0 -326.04957565 0 569.56986057 0 18957
0.13350000 0.13349100 12299.97514796 0 -92.44023118 0 3260.71544791 0 300.09742447 0 389.86994234 0 19468
0.13450000 0.13450700 12216.60224207 0 67.30687003 0 3194.67619755 0 487.15151404 0 400.70292782 0 19953
0.13550000 0.13551000 12105.98759617 0 -29.00893804 0 2792.23441189 0 330.69165602 0 398.94649467 0 19956
0.13650000 0.13649900 11989.44128108 0 245.92480787 0 2956.00340450 0 -311.40274657 0 118.30714207 0 19723
0.13750000 0.13749600 11437.02712597 0 464.11356996 0 2867.29199634 0 -515.30607202 0 520.17772996 0 20946
0.13850000 0.13851100 11288.07632177 0 46.00328012 0 3201.05823422 0 247.06390804 0 747.68250807 0 20955
0.13950000 0.13949800 11103.53550240 0 -127.02230196 0 2853.45143488 0 647.98323195 0 58.95881456 0 20506
0.14050000 0.14048300 11368.48339306 0 91.41888562 0 2900.16882207 0 -106.36844952 0 272.84799526 0 21447
0.14150000 0.14148400 11191.41208305 0 305.80390992 0 3206.17704504 0 -366.94294245 0 460.84346271 0 21771
0.14250000 0.14249400 10849.07787855 0 253.22185943 0 3436.11710289 0 -333.04674838 0 521.05539731 0 22470
0.14350000 0.14350900 10619.03895955 0 47.16742513 0 3693.47465390 0 -31.98916243 0 433.08215242 0 22519
0.14450000 0.14449900 10895.01536109 0 -12.41267686 0 3913.63844214 0 119.96361562 0 259.15352863 0 22218
0.14550000 0.14550500 10556.05342037 0 98.06938524 0 3620.48216909 0 135.53205034 0 18.79284616 0 23559
0.14650000 0.14650700 10482.44579950 0 187.84827417 0 3655.41310990 0 8.33423688 0 764.14948082 0 23044
0.14750000 0.14750500 10237.41293893 0 118.10722285 0 3375.97656800 0 275.31183489 0 321.09443495 0 23649
0.14850000 0.14849900 10295.82889592 0 163.29995137 0 3647.16369589 0 42.26435131 0 377.67267295 0 23640
0.14950000 0.14949500 10047.95103105 0 65.09765280 0 3195.14853417 0 90.21937029 0 404.58707269 0 24457
0.15050000 0.15050000 9978.29785631 0 86.96145591 0 3363.20151009 0 -23.33683429 0 186.15115771 0 24591
0.15150000 0.15149900 9808.06993502 0 15.00404738 0 2845.60845006 0 123.89938797 0 82.99965012 0 25020
0.15250000 0.15250500 9814.86938545 0 -85.66242036 0 2861.19555855 0 381.33822482 0 -43.10928463 0 25297
0.15350000 0.15350100 9791.45027670 0 60.46073517 0 2580.93517371 0 216.40596597 0 338.39843214 0 25452
0.15450000 0.15450400 9699.68515736 0 264.90505083 0 2509.33772963 0 -13.43237474 0 -106.28013355 0 26061
0.15550000 0.15549900 9439.35078718 0 198.87898196 0 2526.10018739 0 121.55308327 0 985.14919504 0 26128
0.15650000 0.15649500 9476.62144195 0 41.54398304 0 2535.14049062 0 240.15790726 0 373.06244784 0 26331
0.15750000 0.15749700 9222.33957126 0 -29.60265419 0 2442.87008094 0 61.68518548 0 602.33793904 0 27345
0.15850000 0.15849900 9234.43358568 0 67.29753315 0 2313.84529140 0 89.25228852 0 488.21482066 0 26980
0.15950000 0.15949700 9133.05696532 0 0.27430565 0 2170.80418724 0 27.60620812 0 673.94746616 0 27777
0.16050000 0.16050000 9043.04937759 0 132.28391223 0 2209.28314500 0 39.09618089 0 138.07497889 0 28224
0.16150000 0.16150500 9081.37455133 0 169.95220852 0 2217.15908354 0 -194.04247465 0 439.86402753 0 28075
0.16250000 0.16249700 8742.03913514 0 108.85283030 0 2407.91717098 0 -76.47371555 0 -94.31397957 0 28590
0.16350000 0.16349900 8869.11965534 0 59.68643265 0 2348.16109614 0 91.49358071 0 -43.00108659 0 29163
0.16450000 0.16449100 8632.68771510 0 70.85653466 0 2417.19913481 0 65.92918494 0 9.38700930 0 28996
0.16550000 0.16550500 8447.78440484 0 119.69559205 0 2414.22231565 0 -9.39925710 0 77.79428086 0 30777
0.16650000 0.16650700 8463.66809679 0 109.80837827 0 2129.11773430 0 189.81890649 0 75.49938396 0 29211
0.16750000 0.16749900 8394.20165978 0 54.39900864 0 2358.08016518 0 80.76374037 0 289.97623929 0 30922
0.16850000 0.16850800 8285.09190033 0 103.40316415 0 2074.22782511 0 24.41771624 0 287.22240694 0 30867
0.16950000 0.16949900 8362.02784669 0 -6.30906615 0 2244.64248413 0 126.79821668 0 522.42846888 0 30852
0.17050000 0.17049200 8071.58476307 0 -13.79365733 0 2289.96483061 0 100.32396876 0 444.99162601 0 31257
0.17150000 0.17149500 8116.74234095 0 162.97370956 0 2042.48241035 0 -89.00491595 0 77.60995973 0 32608
0.17250000 0.17250900 7874.32380865 0 203.32553694 0 2388.28773978 0 -399.49792021 0 199.76653542 0 32361
0.17350000 0.17350400 7851.04749935 0 74.87557008 0 2324.37949650 0 34.16564564 0 267.06351934 0 32508
0.17450000 0.17449800 7827.49657574 0 -69.66207224 0 2270.88462803 0 353.07052574 0 -142.96750752 0 32791
0.17550000 0.17549800 7747.99023940 0 56.67028871 0 2246.91629066 0 228.90860648 0 -96.36073498 0 33633
0.17650000 0.17650100 7743.08013545 0 100.80080906 0 1757.10321468 0 -18.05380411 0 30.83984660 0 33984
0.17750000 0.17750300 7676.00833527 0 99.85437828 0 1999.51076241 0 -36.71857015 0 -118.71466972 0 34069
0.17850000 0.17849800 7484.72298834 0 242.75136485 0 1941.66600320 0 -18.44639274 0 270.62801314 0 34536
0.17950000 0.17950400 7227.80482023 0 -33.96759379 0 1924.27742480 0 254.27418148 0 462.02650117 0 35343
