### header ###
fiducial parameters:
Omega_m = 0.31
Omega_nu = 0
Omega_de = 0.69
Omega_k = 0
H_0 = 100
w_de = -1
zeff = 0
beta = 0
fgrowth = 0
b_1 = 2
gamma = 0.55
Lx = 3500 Ly = 3500 Lz = 3500
nx = 700 ny = 700 nz = 700
xoffset = -983.599254 yoffset = -42.9823471 zoffset = 800.977702
bins = 400 dk = 0.001
kx_ny = 0.628318531 ky_ny = 0.628318531 kz_ny = 0.628318531
############################
A(data) = 9.02522965 (not used)
A(ran) = 9.01717645 (used)
Ngal = 500853
weighted Ngal = 0
Nran = 25229228
weighted Nran = 0
SN(data) = 6744.5267
SN(ran) = 133.853772
SN(data+ran) = 6878.38047
############################
13 columns: k_central k_mean P_0(k) sigma^{lin}_{P_0(k)} P^img_1(k) sigma^{lin}_{P_1(k)} P_2(k) sigma^{lin}_{P_2(k)} P^img_3(k) sigma^{lin}_{P_3(k)} P_4(k) sigma^{lin}_{P_4(k)} N_modes
### header ###
0.00050000 0 0 0 0 0 0 0 0 0 0 0 0
0.00150000 0.00179520 26413.50322910 0 -9492.25248873 0 2813.80811244 0 -19303.95831728 0 -20146.58487999 0 3
0.00250000 0.00253879 42294.88842148 0 -27039.73371196 0 -36069.16221955 0 -4278.05163753 0 -18063.90991857 0 6
0.00350000 0.00331552 39465.48221598 0 -10917.68751890 0 -532.42113456 0 -32719.19711942 0 -35339.67675442 0 7
0.00450000 0.00420575 48521.27369776 0 -4176.25760342 0 -8451.20060691 0 -12907.53185743 0 10559.31583843 0 24
0.00550000 0.00557378 60987.99465750 0 1791.66068003 0 -475.76380764 0 -6514.88409056 0 15864.35910488 0 45
0.00650000 0.00659388 44318.57622814 0 -3277.09344563 0 -2420.93388949 0 18891.15807967 0 45035.42943480 0 40
0.00750000 0.00754703 68445.53082870 0 -6326.03731874 0 3046.38446770 0 26207.87203038 0 -7578.58616105 0 57
0.00850000 0.00846663 71244.07038525 0 -10424.68891687 0 -32421.62504819 0 12116.42294012 0 11907.16683245 0 75
0.00950000 0.00948925 76545.11526728 0 -956.76725641 0 -19838.68731053 0 -11771.17782389 0 5484.65201273 0 112
0.01050000 0.01054430 73564.78103451 0 9375.09103758 0 -13117.55688519 0 -31515.17811878 0 11109.90655450 0 105
0.01150000 0.01145670 71522.19976301 0 3345.34059508 0 -101.67078721 0 -2024.67641819 0 15067.53820983 0 144
0.01250000 0.01249090 72991.38634577 0 -706.96050059 0 13444.67745666 0 -9093.62234976 0 -27327.96889649 0 169
0.01350000 0.01339930 72585.50638889 0 -589.96601494 0 7002.06086911 0 6297.96075122 0 12254.60886320 0 180
0.01450000 0.01448870 66622.86070028 0 2941.07537036 0 26356.71298885 0 -14774.68950481 0 -7771.90365391 0 267
0.01550000 0.01550050 66644.28061682 0 4059.62341175 0 18542.61759166 0 11358.26774056 0 11727.23953357 0 238
0.01650000 0.01653350 67597.74151688 0 411.52712564 0 27900.59466516 0 9332.96520173 0 1231.41452466 0 315
0.01750000 0.01747870 71000.98179403 0 -9281.32672603 0 16967.53972922 0 13685.78882482 0 12270.75618489 0 297
0.01850000 0.01844180 68130.38344135 0 7126.92250565 0 28613.82296287 0 4127.58496231 0 1220.71555096 0 388
0.01950000 0.01947590 70247.98934358 0 909.11178672 0 18639.61136756 0 -9840.74903845 0 18558.21568473 0 399
0.02050000 0.02045430 65480.13561465 0 -784.01727725 0 21134.20780078 0 10192.24437648 0 13129.74976075 0 462
0.02150000 0.02154770 66941.96253377 0 30.94211297 0 18954.09968056 0 -616.04009488 0 -11713.50881784 0 571
0.02250000 0.02255340 64135.95346787 0 3752.47279323 0 20773.03505430 0 1076.44527314 0 4584.49924340 0 510
0.02350000 0.02348930 64844.23870791 0 232.41488205 0 19379.42233091 0 6185.46774342 0 7487.35928576 0 555
0.02450000 0.02439640 63941.96591608 0 -2385.39879719 0 6430.89604860 0 2204.08744216 0 3325.03012037 0 592
0.02550000 0.02547300 66732.37688892 0 2334.21068896 0 15706.18125971 0 571.82719024 0 -3557.65041393 0 837
0.02650000 0.02652900 61960.78840531 0 2891.13950341 0 17031.03055874 0 -6181.19474468 0 -2909.34094018 0 723
0.02750000 0.02749970 59657.76291790 0 3704.06378186 0 26038.38007545 0 -3594.92106870 0 7012.79279653 0 826
0.02850000 0.02848090 57109.78146194 0 -3039.74978586 0 18775.27083894 0 6523.59485662 0 3539.74556062 0 831
0.02950000 0.02946900 61908.17230264 0 -4621.38543813 0 23927.91414539 0 12122.90383795 0 13104.04586091 0 996
0.03050000 0.03053250 64471.09277732 0 -1010.69381858 0 11132.64461974 0 6632.25424859 0 -2992.17560201 0 1041
0.03150000 0.03150510 64313.46416078 0 6242.92804259 0 20576.30135937 0 -12172.00487739 0 9602.63645860 0 1036
0.03250000 0.03246190 57111.53899355 0 6391.21977244 0 22247.38438617 0 -9550.14118624 0 8810.97831266 0 1059
0.03350000 0.03345080 57444.70107994 0 1490.03530151 0 31013.62253471 0 1972.67545159 0 5980.67137221 0 1302
0.03450000 0.03451200 53482.12636695 0 -3319.20829690 0 25781.45092277 0 8048.85768240 0 -3313.27662771 0 1339
0.03550000 0.03553350 55365.65102747 0 1837.18074880 0 26013.88447859 0 3687.59790756 0 1837.48831683 0 1365
0.03650000 0.03647120 52223.29434913 0 1695.04037960 0 23684.16647981 0 -4398.68421362 0 2876.77168247 0 1308
0.03750000 0.03744890 51049.48292308 0 172.10518475 0 23047.94003590 0 5603.38425776 0 6866.98358008 0 1579
0.03850000 0.03847530 51652.20642062 0 668.25086682 0 22479.15886764 0 1757.67441246 0 758.56821949 0 1662
0.03950000 0.03950240 51005.32494131 0 1724.64380271 0 20101.87766958 0 -1088.58652121 0 -1953.16685069 0 1683
0.04050000 0.04050350 48041.46756741 0 2504.39467197 0 22080.63857439 0 1718.45948834 0 3673.54863923 0 1822
0.04150000 0.04152450 45848.94688017 0 1266.38940376 0 25163.78840652 0 -4636.93959291 0 4527.54423457 0 1887
0.04250000 0.04250150 43402.35302913 0 337.39114684 0 21948.16462906 0 5771.33837253 0 3561.14350801 0 1920
0.04350000 0.04349210 45677.69739363 0 355.67386944 0 23666.92070086 0 5661.14114039 0 3855.29937716 0 2005
0.04450000 0.04448520 42243.15108462 0 410.57146783 0 21988.14847325 0 2941.91019788 0 8967.08007362 0 2151
0.04550000 0.04548030 44018.80724239 0 613.55538456 0 17402.96818635 0 3527.58563877 0 9147.10623365 0 2274
0.04650000 0.04648670 41881.42910952 0 0.98533593 0 18055.12226050 0 1121.38206111 0 13389.09551940 0 2311
0.04750000 0.04749250 40657.30834105 0 1390.81165739 0 15617.64560470 0 488.64541591 0 9827.99594968 0 2568
0.04850000 0.04851840 39162.30801273 0 985.67645453 0 18200.22846430 0 218.62814500 0 11027.85179731 0 2493
0.04950000 0.04949480 37722.99946740 0 651.16436416 0 17943.95838598 0 -806.18853855 0 6868.66421969 0 2644
0.05050000 0.05050630 36813.80639484 0 2092.83569106 0 18714.96553546 0 -3165.30345047 0 4305.65586843 0 2829
0.05150000 0.05149060 36400.67662006 0 1689.82270762 0 19302.85986002 0 1015.78406952 0 3243.12914721 0 2784
0.05250000 0.05249300 35091.53525981 0 -1209.77491667 0 19045.27163298 0 526.72343676 0 1381.14523352 0 3055
0.05350000 0.05348950 36403.09322602 0 -872.67156564 0 15522.84874333 0 4800.77449296 0 137.74214634 0 3009
0.05450000 0.05448610 36411.55134691 0 -1008.55731921 0 13936.67646258 0 3123.90259641 0 -861.14105980 0 3336
0.05550000 0.05550870 36504.04144805 0 882.49397044 0 12162.77783642 0 -59.66490289 0 2790.90527860 0 3349
0.05650000 0.05647670 35377.02430120 0 1231.60126239 0 11640.35156445 0 459.43304359 0 2936.87926364 0 3324
0.05750000 0.05747970 35808.60815792 0 -438.62606620 0 11207.66925047 0 566.61501055 0 2418.08888519 0 3639
0.05850000 0.05849280 35695.46706033 0 -535.23977588 0 11569.50107130 0 898.30077039 0 -1519.86940064 0 3846
0.05950000 0.05951020 35925.37416446 0 1025.58780054 0 13581.32553957 0 -1250.56063467 0 -2324.61017253 0 3787
0.06050000 0.06049470 34449.04760953 0 1571.35409233 0 12676.30660460 0 -4618.88095558 0 -2405.39071929 0 3930
0.06150000 0.06148310 34453.33159283 0 505.66051884 0 16613.50695493 0 -894.95816495 0 -5079.82657481 0 4083
0.06250000 0.06249100 32606.38555901 0 125.02640512 0 14933.52642434 0 983.91892291 0 -3014.18868547 0 4303
0.06350000 0.06350600 32694.59167684 0 260.94730933 0 16195.76365966 0 694.32384829 0 -5176.07339977 0 4470
0.06450000 0.06451750 32058.80461583 0 44.94590517 0 14397.80881954 0 3558.02388940 0 -4153.58544561 0 4479
0.06550000 0.06550280 32105.81858648 0 1022.21773368 0 13216.85742132 0 249.63649494 0 -3439.58822782 0 4636
0.06650000 0.06648880 30607.41304065 0 208.66623613 0 12432.99832192 0 630.37166673 0 -2248.53102283 0 4653
0.06750000 0.06749660 29875.29127811 0 434.87593312 0 12403.77935885 0 890.55444980 0 -959.20363461 0 5220
0.06850000 0.06852730 28597.34610399 0 1069.51730321 0 11215.68798845 0 1521.53905568 0 -153.05683743 0 5029
0.06950000 0.06949320 29836.73542835 0 -360.81684632 0 9894.73821269 0 3000.69963034 0 -858.15325606 0 5040
0.07050000 0.07048030 28136.54328421 0 -309.39586516 0 8012.05936425 0 1677.89346180 0 -11.68000587 0 5475
0.07150000 0.07148790 28640.18593706 0 469.48502596 0 8025.36168165 0 -635.55858190 0 419.89077921 0 5509
0.07250000 0.07249820 26935.38027244 0 934.54766299 0 7569.08450576 0 -342.28587238 0 1277.54972950 0 5916
0.07350000 0.07351270 27308.52620303 0 359.69312455 0 7477.38529385 0 137.28738504 0 166.66342749 0 5721
0.07450000 0.07449140 26635.39159524 0 -199.25245742 0 8107.43840797 0 810.34729773 0 -100.56200445 0 6028
0.07550000 0.07549160 26465.78979459 0 940.33433583 0 7395.60515099 0 -626.16787080 0 -159.80466037 0 6183
0.07650000 0.07648840 26285.53295853 0 200.52227402 0 7353.35848484 0 -738.35111366 0 -1580.04288925 0 6330
0.07750000 0.07749960 25341.18925371 0 302.08123827 0 8086.62264293 0 -497.14527817 0 -1906.44946350 0 6583
0.07850000 0.07848650 24051.49058693 0 582.29658637 0 9333.14095489 0 298.84188782 0 -1072.56881747 0 6549
0.07950000 0.07947320 23954.05742814 0 540.44975866 0 8852.75264219 0 -117.29765985 0 -981.21671806 0 6828
0.08050000 0.08048110 23842.89355361 0 638.37502631 0 9708.09933996 0 655.77458928 0 -290.60455684 0 7147
0.08150000 0.08149960 23834.10589555 0 -83.64016054 0 9318.78411853 0 -53.24804513 0 -2383.44354327 0 7386
0.08250000 0.08250610 23128.23726147 0 369.32329933 0 8964.44377620 0 491.98362752 0 673.73546390 0 7227
0.08350000 0.08350160 22877.02008653 0 -114.84590325 0 9297.82555404 0 496.65976006 0 -896.45536219 0 7798
0.08450000 0.08449610 22674.90395104 0 117.85457768 0 8845.27214826 0 685.92394564 0 1183.44489620 0 7371
0.08550000 0.08548940 22279.56918384 0 533.89855957 0 9111.94461682 0 -368.13476858 0 -1068.40566447 0 8256
0.08650000 0.08650700 21758.13152340 0 874.17205825 0 9352.77038609 0 -1113.05575509 0 -756.35153275 0 8037
0.08750000 0.08749060 20997.88925504 0 456.75720171 0 9436.94516579 0 384.92798314 0 -908.10010759 0 8155
0.08850000 0.08849210 21080.82277803 0 -248.90931624 0 9692.25958629 0 735.84663111 0 -1206.38068375 0 8718
0.08950000 0.08949900 20837.40464963 0 251.68621618 0 9329.82361397 0 513.79569329 0 -738.77841353 0 8571
0.09050000 0.09049190 20296.30460427 0 210.48198597 0 8183.88004857 0 536.32944548 0 15.88819563 0 8932
0.09150000 0.09150830 19857.14139247 0 253.64037165 0 8769.69828890 0 568.23413655 0 -168.38361156 0 9285
0.09250000 0.09250820 19473.23058075 0 533.18126698 0 7578.21268558 0 745.29116661 0 235.55537135 0 9204
0.09350000 0.09350330 19561.54654431 0 225.52425967 0 9075.20122154 0 -159.73655602 0 816.82819555 0 9349
0.09450000 0.09448040 18757.47583135 0 190.14514830 0 7839.79929703 0 -456.79674617 0 650.93918043 0 9564
0.09550000 0.09549270 18691.78808732 0 13.08625085 0 8110.18455112 0 600.89566466 0 233.50125628 0 10155
0.09650000 0.09649430 18623.57389159 0 236.54288442 0 7264.29557035 0 1146.92119236 0 526.34776438 0 9913
0.09750000 0.09749140 18071.15973647 0 359.88425611 0 8036.35723880 0 -152.52957795 0 -152.21541917 0 10476
0.09850000 0.09850240 17534.89290305 0 507.41695199 0 7339.47398510 0 21.53657269 0 982.80179188 0 10575
0.09950000 0.09950330 17028.94348995 0 131.94119356 0 7087.94924213 0 1257.50288454 0 1550.68112674 0 10882
0.10050000 0.10051200 17018.39830028 0 -155.99191523 0 6680.74015196 0 691.63482493 0 1469.41725878 0 10875
0.10150000 0.10150300 16878.45484559 0 307.50761713 0 5802.10616033 0 512.36769886 0 1517.65051698 0 11118
0.10250000 0.10250800 16466.42352806 0 555.36461131 0 6275.11284025 0 -772.10780366 0 1122.60134867 0 11575
0.10350000 0.10349800 16053.62329046 0 80.30590338 0 5802.27092892 0 694.16457199 0 1885.20530013 0 11364
0.10450000 0.10450100 15924.77425408 0 -83.47055874 0 6453.10685436 0 27.30380284 0 1810.80679003 0 12093
0.10550000 0.10551000 15766.92594608 0 90.00165606 0 5609.89810930 0 790.64536835 0 1831.39187905 0 12067
0.10650000 0.10649700 15981.78418577 0 -149.37700562 0 4739.14005620 0 838.95002627 0 1558.35934297 0 12054
0.10750000 0.10749900 16088.00500264 0 -145.82020102 0 4593.17705574 0 471.39084930 0 1960.57045261 0 12807
0.10850000 0.10850100 16283.75008603 0 87.18224582 0 3749.40809748 0 348.45810371 0 1539.87230732 0 12736
0.10950000 0.10950300 16102.39479272 0 193.75907268 0 4128.74932700 0 -292.67185340 0 2075.83157270 0 12933
0.11050000 0.11050200 15527.90164671 0 215.23610899 0 4603.68929170 0 -539.37766438 0 1724.07260493 0 13428
0.11150000 0.11150900 15749.35062995 0 495.72826831 0 4639.19143029 0 -1.08804169 0 1051.65968357 0 13453
0.11250000 0.11250000 14766.56092110 0 -13.76685497 0 4493.49205957 0 -320.73963326 0 679.36066352 0 13668
0.11350000 0.11349100 15081.59846273 0 379.27202672 0 5321.08074242 0 -88.36901904 0 -242.33395109 0 13791
0.11450000 0.11448600 14357.05605527 0 398.18636224 0 5801.21640995 0 -355.46186719 0 910.70784512 0 14205
0.11550000 0.11549300 14093.86569622 0 153.02937600 0 5520.57156507 0 36.36980997 0 1168.70359979 0 14776
0.11650000 0.11649800 14243.47557478 0 -167.52461798 0 5394.68836329 0 980.82676573 0 616.08293471 0 14553
0.11750000 0.11747300 14244.35434058 0 131.20303028 0 5349.62964656 0 -0.12440248 0 528.07124382 0 14568
0.11850000 0.11849100 13898.01076709 0 422.39636021 0 5349.16829451 0 54.25379259 0 1317.05025250 0 16015
0.11950000 0.11950300 13926.02142718 0 -13.13128760 0 5649.31075572 0 -102.20035345 0 1460.09135666 0 15270
0.12050000 0.12050700 13720.50007418 0 -6.61508536 0 5597.40865028 0 -4.68906139 0 696.64928231 0 15999
0.12150000 0.12150000 13696.99308885 0 130.18366195 0 5179.06120351 0 412.06536970 0 1007.33583474 0 15670
0.12250000 0.12250700 13498.06247941 0 -42.02444824 0 4913.81672939 0 31.81253050 0 794.93045011 0 16887
0.12350000 0.12352200 13262.99262617 0 257.96389941 0 4960.68790060 0 -60.27729281 0 804.91103276 0 16407
0.12450000 0.12449800 13086.58039051 0 40.19606614 0 4867.92318515 0 494.28269856 0 647.19014580 0 16306
0.12550000 0.12549900 13056.48266164 0 75.45445706 0 4395.44376471 0 823.80339914 0 923.05340624 0 17523
0.12650000 0.12650100 13226.08446229 0 -118.46422146 0 4118.41284421 0 345.84816927 0 697.01946241 0 17154
0.12750000 0.12750600 12960.36765155 0 123.58742611 0 3799.55267131 0 144.75909131 0 884.34706784 0 18007
0.12850000 0.12850300 12964.65163486 0 92.14935969 0 3496.41142179 0 292.84980348 0 1093.33734885 0 17496
0.12950000 0.12949900 12924.33825348 0 149.16610183 0 3733.97477300 0 14.85246028 0 1259.68881448 0 18405
0.13050000 0.13049000 12450.90317523 0 294.39643130 0 3521.84070731 0 -621.83006309 0 622.71651809 0 18100
0.13150000 0.13148800 12345.56112417 0 278.97738676 0 4394.63090634 0 -9.02324419 0 844.82128032 0 19059
0.13250000 0.13249300 12213.74625320 0 -61.77965280 0 3867.09680812 0 307.36591614 0 1059.42797330 0 18957
0.13350000 0.13349100 12122.02507214 0 -150.23380228 0 3552.24600422 0 597.44321350 0 597.89467943 0 19468
0.13450000 0.13450700 12249.22642263 0 284.18736954 0 3676.44856639 0 -226.70729813 0 552.89198402 0 19953
0.13550000 0.13551000 12027.44790222 0 305.36892085 0 3835.26351678 0 -416.15602453 0 527.04089091 0 19956
0.13650000 0.13649900 11769.63998373 0 -14.65715458 0 3654.38056008 0 55.53184761 0 479.54689444 0 19723
0.13750000 0.13749600 11617.39380775 0 -57.29794719 0 3876.98292344 0 290.33543481 0 260.66610427 0 20946
0.13850000 0.13851100 11632.77220937 0 -7.38481830 0 3219.25967099 0 384.33701313 0 -172.46657719 0 20955
0.13950000 0.13949800 11699.55841066 0 199.60506220 0 3368.22145976 0 44.60120928 0 137.17424394 0 20506
0.14050000 0.14048300 11486.34785686 0 282.61657566 0 3067.39795505 0 -192.36513042 0 -204.48770472 0 21447
0.14150000 0.14148400 11024.33673409 0 257.92984724 0 3371.86833786 0 -2.73106133 0 159.19831196 0 21771
0.14250000 0.14249400 10913.17285956 0 148.08412143 0 3322.70139099 0 161.23485172 0 -242.67227592 0 22470
0.14350000 0.14350900 10663.12004932 0 45.87552955 0 3260.88021650 0 25.56604345 0 188.08114711 0 22519
0.14450000 0.14449900 10742.21995648 0 10.76190431 0 2951.42283774 0 561.40832315 0 316.72916581 0 22218
0.14550000 0.14550500 10474.52592267 0 -46.18485511 0 3018.80220595 0 147.77984877 0 410.25181677 0 23559
0.14650000 0.14650700 10312.16295535 0 314.53884204 0 2608.03411427 0 -16.06911154 0 348.44162685 0 23044
0.14750000 0.14750500 10303.66089617 0 217.72521313 0 3057.88531519 0 -202.18533830 0 377.56612259 0 23649
0.14850000 0.14849900 9856.50091553 0 224.52026973 0 3022.00970114 0 112.13930457 0 502.03780680 0 23640
0.14950000 0.14949500 9748.95096539 0 -46.06138851 0 2908.45118980 0 211.52771728 0 641.13105557 0 24457
0.15050000 0.15050000 9750.04942264 0 60.09439968 0 2720.81272096 0 333.10716353 0 793.42226829 0 24591
0.15150000 0.15149900 9832.44470158 0 -16.01462806 0 2530.86749189 0 145.97728041 0 558.95546809 0 25020
0.15250000 0.15250500 9762.33017479 0 30.33334795 0 2641.19653889 0 -104.72043409 0 402.94817446 0 25297
0.15350000 0.15350100 9595.14498010 0 215.22732133 0 2690.63810008 0 -21.31193819 0 891.42772332 0 25452
0.15450000 0.15450400 9627.93392926 0 65.79605192 0 2474.37383510 0 88.12505168 0 806.93548948 0 26061
0.15550000 0.15549900 9394.34699331 0 -41.22773720 0 2691.39603559 0 -47.91261853 0 737.81946034 0 26128
0.15650000 0.15649500 9494.73500214 0 111.32974157 0 2643.52526828 0 421.91523593 0 622.06623140 0 26331
0.15750000 0.15749700 9394.94016023 0 41.20346129 0 2711.24515824 0 -44.85638090 0 1009.17025836 0 27345
0.15850000 0.15849900 9242.41936994 0 237.84455627 0 2720.06577003 0 -337.95575387 0 491.15099692 0 26980
0.15950000 0.15949700 9000.12166794 0 225.82743387 0 3019.58211060 0 -268.98691800 0 654.10932807 0 27777
0.16050000 0.16050000 8969.55160245 0 51.90309406 0 2875.85996295 0 260.86822041 0 650.40752711 0 28224
0.16150000 0.16150500 8720.61921861 0 0.74538673 0 2883.69196320 0 307.09349874 0 787.57078648 0 28075
0.16250000 0.16249700 8814.39451474 0 -30.69572900 0 2459.53367754 0 258.52630953 0 770.90059913 0 28590
0.16350000 0.16349900 8785.28539740 0 139.95004543 0 2300.88349575 0 358.82644177 0 758.97904251 0 29163
0.16450000 0.16449100 8597.44920626 0 152.14072408 0 2402.38094640 0 58.74571386 0 1021.94202090 0 28996
0.16550000 0.16550500 8608.88414631 0 -6.69240577 0 2251.17830482 0 -61.86291586 0 708.96848046 0 30777
0.16650000 0.16650700 8512.72519794 0 -63.98085130 0 2225.73803472 0 -209.33849197 0 949.28017174 0 29211
0.16750000 0.16749900 8399.96856039 0 186.34119081 0 2367.48295931 0 -202.05242498 0 80.67498502 0 30922
0.16850000 0.16850800 8394.21264436 0 116.00257875 0 2380.67543098 0 -235.55976518 0 124.25199275 0 30867
0.16950000 0.16949900 8278.42426478 0 6.58176915 0 2606.48528954 0 -67.94803954 0 -321.54150706 0 30852
0.17050000 0.17049200 8267.48363049 0 156.57190066 0 2670.16285679 0 -34.54461339 0 -198.31876876 0 31257
0.17150000 0.17149500 8291.77052046 0 64.52832240 0 2516.84019270 0 37.03097139 0 -606.94377032 0 32608
0.17250000 0.17250900 8054.54769100 0 10.79995487 0 2670.31664081 0 163.72615278 0 -360.61692710 0 32361
0.17350000 0.17350400 8018.13383289 0 52.62049649 0 2209.86532734 0 220.79430271 0 -222.38047499 0 32508
0.17450000 0.17449800 8033.69897224 0 70.92013534 0 2329.23467758 0 50.50343982 0 -269.69542293 0 32791
0.17550000 0.17549800 7841.35910634 0 162.33330898 0 2133.03922671 0 182.96453320 0 -48.08024311 0 33633
0.17650000 0.17650100 7748.59439089 0 -32.17183587 0 2076.96298368 0 174.39217276 0 181.58047706 0 33984
0.17750000 0.17750300 7807.49366907 0 -101.94023877 0 1786.56383835 0 305.85224204 0 -100.92416581 0 34069
0.17850000 0.17849800 7861.42792044 0 79.85322915 0 1804.43573794 0 146.03440018 0 351.17019468 0 34536
