### header ###
fiducial parameters:
Omega_m = 0.31
Omega_nu = 0
Omega_de = 0.69
Omega_k = 0
H_0 = 100
w_de = -1
zeff = 0
beta = 0
fgrowth = 0
b_1 = 2
gamma = 0.55
Lx = 3500 Ly = 3500 Lz = 3500
nx = 700 ny = 700 nz = 700
xoffset = -983.599254 yoffset = -42.9823471 zoffset = 800.977702
bins = 400 dk = 0.001
kx_ny = 0.628318531 ky_ny = 0.628318531 kz_ny = 0.628318531
############################
A(data) = 9.0785386 (not used)
A(ran) = 9.07493645 (used)
Ngal = 504598
weighted Ngal = 0
Nran = 25229228
weighted Nran = 0
SN(data) = 6723.06724
SN(ran) = 134.71118
SN(data+ran) = 6857.77842
############################
13 columns: k_central k_mean P_0(k) sigma^{lin}_{P_0(k)} P^img_1(k) sigma^{lin}_{P_1(k)} P_2(k) sigma^{lin}_{P_2(k)} P^img_3(k) sigma^{lin}_{P_3(k)} P_4(k) sigma^{lin}_{P_4(k)} N_modes
### header ###
0.00050000 0 0 0 0 0 0 0 0 0 0 0 0
0.00150000 0.00179520 -614.06067490 0 -4713.11760376 0 -610.21168067 0 -2952.89477046 0 10827.58107001 0 3
0.00250000 0.00253879 14448.44769914 0 -14190.42008921 0 -11074.86576796 0 -17642.54171435 0 8431.38443797 0 6
0.00350000 0.00331552 18306.77881834 0 -3496.69702067 0 -6558.87730375 0 -10683.02409484 0 -2077.36941287 0 7
0.00450000 0.00420575 23889.46814136 0 6627.25626807 0 759.78091631 0 -12850.85146291 0 17199.42405642 0 24
0.00550000 0.00557378 41957.66204323 0 -21465.72220128 0 -12274.93032247 0 -12106.86636198 0 -28373.26082334 0 45
0.00650000 0.00659388 49254.38407184 0 -32062.20983333 0 -30800.63167236 0 -1158.01561067 0 -44646.46571969 0 40
0.00750000 0.00754703 80683.55298730 0 1722.76544079 0 -25052.51468627 0 -11985.26714350 0 -11497.33242944 0 57
0.00850000 0.00846663 72428.53684670 0 4329.17383832 0 -2703.39118885 0 -42245.78738204 0 544.68431139 0 75
0.00950000 0.00948925 94285.09014043 0 -4083.78947143 0 8244.59178123 0 -15456.28223348 0 -54527.74783097 0 112
0.01050000 0.01054430 93306.58441488 0 -3507.07744176 0 15873.36645440 0 -5941.76401613 0 -50666.01149427 0 105
0.01150000 0.01145670 82138.34977998 0 6768.77051663 0 24274.58725606 0 -10791.05736618 0 -6255.35159418 0 144
0.01250000 0.01249090 87982.03254753 0 5141.24132012 0 30179.45409289 0 -22735.86832886 0 -20213.37108128 0 169
0.01350000 0.01339930 81202.35435032 0 11740.64071212 0 45537.42440176 0 8054.05338523 0 -33552.59664116 0 180
0.01450000 0.01448870 69121.41157963 0 3828.92541840 0 40603.15439823 0 4608.08312074 0 -11891.45889366 0 267
0.01550000 0.01550050 74829.43487580 0 388.99776728 0 44341.97336774 0 8385.85338462 0 -12328.31534522 0 238
0.01650000 0.01653350 69854.30226226 0 -1699.90654525 0 39615.53147744 0 20509.29546663 0 -7868.46903147 0 315
0.01750000 0.01747870 58878.84687616 0 -1642.90759813 0 20401.75650105 0 6240.10500744 0 -889.30111007 0 297
0.01850000 0.01844180 70856.31497313 0 1567.86099825 0 20670.76868357 0 14856.41472482 0 11639.25310719 0 388
0.01950000 0.01947590 68622.71198444 0 685.70645110 0 16527.49775161 0 3157.39455821 0 7779.21937924 0 399
0.02050000 0.02045430 67070.15249579 0 2080.88447609 0 10813.97118458 0 5278.18598649 0 11273.57668596 0 462
0.02150000 0.02154770 64371.57254974 0 363.62010925 0 10355.67284734 0 2439.50880173 0 7537.52582874 0 571
0.02250000 0.02255340 56920.51727636 0 2133.22596444 0 9305.07537195 0 -3774.38701553 0 18685.52688095 0 510
0.02350000 0.02348930 60551.57758885 0 1030.42650477 0 14147.25071896 0 9488.84727123 0 18829.75431894 0 555
0.02450000 0.02439640 65158.50732946 0 -4320.92442431 0 -1678.99191906 0 16577.69724831 0 24457.80992672 0 592
0.02550000 0.02547300 65519.78992166 0 -4674.94621404 0 -245.45356970 0 2938.47202666 0 14021.47736291 0 837
0.02650000 0.02652900 70931.22975814 0 4145.76442993 0 -7113.67511111 0 -11774.69288712 0 9766.25166720 0 723
0.02750000 0.02749970 59215.85356296 0 9602.65842775 0 7766.97158082 0 -10842.11365954 0 8700.22086733 0 826
0.02850000 0.02848090 53033.40657700 0 3463.78724122 0 14647.48815432 0 -9767.09747929 0 20171.30016830 0 831
0.02950000 0.02946900 55252.50992988 0 -2105.59976440 0 22570.00128289 0 7000.95142728 0 2024.47869589 0 996
0.03050000 0.03053250 52943.77246474 0 87.33350338 0 13969.84987177 0 1693.79912290 0 -3422.27654144 0 1041
0.03150000 0.03150510 55540.08604006 0 3148.45311613 0 23217.43199083 0 -1749.39204473 0 6200.64842272 0 1036
0.03250000 0.03246190 52559.75180729 0 1138.60587092 0 20630.78483938 0 -3684.59911925 0 4559.99266198 0 1059
0.03350000 0.03345080 49477.81027814 0 -538.52196617 0 22100.74034221 0 3160.37137738 0 4212.83623011 0 1302
0.03450000 0.03451200 50262.65798908 0 670.47853813 0 22031.20799777 0 3338.12373089 0 3600.14972524 0 1339
0.03550000 0.03553350 51182.94547995 0 626.08768342 0 22036.37074688 0 3690.17928212 0 6100.69979681 0 1365
0.03650000 0.03647120 53290.55542113 0 -1991.99731476 0 16049.77869005 0 2058.75056234 0 -183.92678176 0 1308
0.03750000 0.03744890 49395.09644661 0 -56.76827110 0 13983.36089605 0 7618.41622123 0 5177.20481075 0 1579
0.03850000 0.03847530 49694.42604945 0 1768.91163021 0 13619.00262353 0 -2754.04105302 0 4594.19862099 0 1662
0.03950000 0.03950240 50027.36844439 0 2071.74531170 0 15266.46881928 0 -3489.38129533 0 1904.53814787 0 1683
0.04050000 0.04050350 45732.62025654 0 1694.05176807 0 12970.58330405 0 1455.43389788 0 1107.27786992 0 1822
0.04150000 0.04152450 45248.74983433 0 -2113.86016298 0 12839.64719888 0 4827.58783463 0 1281.44925277 0 1887
0.04250000 0.04250150 46781.75678378 0 -512.42262172 0 7343.54926152 0 4293.62776145 0 -273.02814225 0 1920
0.04350000 0.04349210 45393.08711805 0 1832.98464208 0 5714.84471574 0 1045.64672853 0 235.88490853 0 2005
0.04450000 0.04448520 42758.32753869 0 1704.94846407 0 8061.55584830 0 -1572.77110220 0 6840.35697614 0 2151
0.04550000 0.04548030 40167.83578683 0 2351.14889988 0 8604.97363847 0 -1813.47604117 0 325.44762107 0 2274
0.04650000 0.04648670 38522.78619704 0 2106.78609824 0 11010.27648118 0 -749.98707139 0 5173.30528748 0 2311
0.04750000 0.04749250 36725.27073983 0 -331.03767005 0 9850.84386065 0 894.22110013 0 3735.34784458 0 2568
0.04850000 0.04851840 35987.87638245 0 156.18744062 0 10523.67090040 0 3986.69683438 0 4738.12947553 0 2493
0.04950000 0.04949480 36047.30292011 0 909.50723133 0 8759.81217358 0 346.05248232 0 5866.54166309 0 2644
0.05050000 0.05050630 35869.13315284 0 -364.83060914 0 9489.08893183 0 151.78921776 0 2695.89971035 0 2829
0.05150000 0.05149060 36987.14295017 0 597.94301155 0 10500.77905114 0 -1223.72532385 0 5727.14743703 0 2784
0.05250000 0.05249300 35889.23492067 0 -349.07873206 0 10397.57899174 0 -1519.25426458 0 434.81771489 0 3055
0.05350000 0.05348950 34923.14176214 0 670.64330672 0 11855.42949559 0 -1643.67651821 0 -497.57587342 0 3009
0.05450000 0.05448610 35023.43090981 0 1416.17503548 0 13452.58634892 0 -1560.94071753 0 -109.12953168 0 3336
0.05550000 0.05550870 34289.33192420 0 -257.10161047 0 14357.49543817 0 2060.47514024 0 1696.01800656 0 3349
0.05650000 0.05647670 35042.87360328 0 312.01568572 0 13643.82775756 0 1799.54760314 0 -58.48559918 0 3324
0.05750000 0.05747970 34441.13871727 0 459.45611119 0 13900.64706451 0 1090.64832549 0 2165.70734557 0 3639
0.05850000 0.05849280 34524.40177744 0 -82.00631522 0 11804.90046172 0 1390.05372188 0 4023.26447651 0 3846
0.05950000 0.05951020 33334.99225833 0 340.45694104 0 11534.67997622 0 -59.69159540 0 2854.27527783 0 3787
0.06050000 0.06049470 32491.37708408 0 867.69116043 0 11860.15286180 0 1717.07543220 0 4419.29127178 0 3930
0.06150000 0.06148310 33122.11124170 0 131.94778430 0 12450.57363805 0 -359.21309873 0 1259.39223102 0 4083
0.06250000 0.06249100 32408.33371537 0 52.43639506 0 10923.74001839 0 203.46064718 0 2258.07661640 0 4303
0.06350000 0.06350600 31922.04668719 0 301.90109128 0 11848.94859777 0 -1357.93483165 0 -1300.97982282 0 4470
0.06450000 0.06451750 30632.01848324 0 939.25235543 0 11767.00368631 0 -1737.08932344 0 -1152.27067921 0 4479
0.06550000 0.06550280 29643.29710519 0 616.09391928 0 11464.15902024 0 1580.26258070 0 -950.35885676 0 4636
0.06650000 0.06648880 30536.78223896 0 249.10044780 0 11961.21092955 0 1797.43856520 0 -1391.97602208 0 4653
0.06750000 0.06749660 30236.57387031 0 29.91461605 0 10470.01126334 0 1549.65956149 0 -234.20317046 0 5220
0.06850000 0.06852730 30129.80382482 0 269.86238843 0 10022.04940890 0 802.49662370 0 -172.63354269 0 5029
0.06950000 0.06949320 28798.03424506 0 -252.32881368 0 9330.40579632 0 503.55257936 0 1591.55472131 0 5040
0.07050000 0.07048030 28633.92473069 0 495.51516760 0 8221.46925594 0 1455.80737335 0 905.18040819 0 5475
0.07150000 0.07148790 28015.60314009 0 585.07897860 0 8830.82743532 0 -928.12168803 0 1877.86760564 0 5509
0.07250000 0.07249820 28060.20050477 0 458.79593838 0 8377.10966485 0 180.76542177 0 -579.17037701 0 5916
0.07350000 0.07351270 26458.75966813 0 740.05152549 0 9075.79438846 0 209.66583223 0 -957.11656582 0 5721
0.07450000 0.07449140 26330.67955183 0 405.24834396 0 8522.78706642 0 -366.03341984 0 -15.25427594 0 6028
0.07550000 0.07549160 25637.00379332 0 -114.02974951 0 8017.02439106 0 -77.22528000 0 -1646.40069221 0 6183
0.07650000 0.07648840 25515.18488340 0 137.25333286 0 7605.74002447 0 2026.71954869 0 -656.43366363 0 6330
0.07750000 0.07749960 25500.35571041 0 85.98877201 0 6205.26194321 0 467.65938999 0 -2246.10343229 0 6583
0.07850000 0.07848650 24679.80813858 0 501.71266345 0 6445.93392847 0 -734.99972056 0 -768.95632978 0 6549
0.07950000 0.07947320 24886.31810311 0 561.62911305 0 7174.34290548 0 203.65177874 0 -2769.77096096 0 6828
0.08050000 0.08048110 23236.10576422 0 539.52925148 0 6392.46102914 0 -506.80511130 0 -1609.25086774 0 7147
0.08150000 0.08149960 23758.64188191 0 320.19589692 0 6781.29292937 0 372.28364164 0 -1688.53751263 0 7386
0.08250000 0.08250610 22804.19237032 0 400.96985294 0 7544.66580091 0 615.92915070 0 -1124.65546374 0 7227
0.08350000 0.08350160 22668.64274467 0 92.93980954 0 6544.37766794 0 164.88392673 0 -1914.75380037 0 7798
0.08450000 0.08449610 22116.99750963 0 197.26864362 0 6750.05280495 0 -127.87250788 0 -784.55112748 0 7371
0.08550000 0.08548940 22101.94864519 0 420.00062493 0 7451.51662543 0 592.14864951 0 -176.25076244 0 8256
0.08650000 0.08650700 21675.85707476 0 -37.75122982 0 7248.17021780 0 -211.49256665 0 -417.65322177 0 8037
0.08750000 0.08749060 21322.26368337 0 162.00157489 0 6935.46140555 0 548.40368767 0 -928.56107093 0 8155
0.08850000 0.08849210 21615.77146274 0 531.20294546 0 6224.78152869 0 473.75582778 0 -1105.24572399 0 8718
0.08950000 0.08949900 21088.95136174 0 -124.32778630 0 6692.82318180 0 945.98699688 0 860.56766511 0 8571
0.09050000 0.09049190 20687.79477107 0 -141.01554897 0 4899.82238392 0 696.55371653 0 -225.26502375 0 8932
0.09150000 0.09150830 20734.36935882 0 238.20265334 0 5101.23550678 0 334.95257172 0 915.67506884 0 9285
0.09250000 0.09250820 20000.16052748 0 816.41627408 0 5302.19826215 0 -494.32334148 0 128.47446245 0 9204
0.09350000 0.09350330 19165.00347412 0 812.06638334 0 5587.06118290 0 -698.40791238 0 197.64761137 0 9349
0.09450000 0.09448040 18738.36267506 0 487.96766778 0 6812.63191495 0 -744.98909087 0 468.60186632 0 9564
0.09550000 0.09549270 18223.73544963 0 -132.89575292 0 6703.98350755 0 -92.75581795 0 -165.44523839 0 10155
0.09650000 0.09649430 17780.50794597 0 164.05019767 0 6729.03931761 0 1508.90679721 0 219.69694391 0 9913
0.09750000 0.09749140 18248.01135503 0 86.66355430 0 5726.07094892 0 76.91134092 0 398.17537767 0 10476
0.09850000 0.09850240 17545.65778418 0 458.04679053 0 6325.69679699 0 -158.64139413 0 365.64346752 0 10575
0.09950000 0.09950330 17185.14411206 0 550.49624874 0 7187.49143886 0 -443.84483664 0 901.67742800 0 10882
0.10050000 0.10051200 16693.80418050 0 66.43458513 0 6524.13310067 0 903.09993015 0 1770.98771443 0 10875
0.10150000 0.10150300 16749.49596348 0 132.69253833 0 6625.92713478 0 738.43569487 0 1604.63734726 0 11118
0.10250000 0.10250800 16532.99003791 0 364.82951069 0 6500.50528505 0 -337.58886914 0 1259.66684534 0 11575
0.10350000 0.10349800 15725.40426173 0 201.46475034 0 6540.53306754 0 89.50844875 0 1611.00839935 0 11364
0.10450000 0.10450100 15656.42114591 0 24.54359944 0 6784.44550171 0 296.66584399 0 1745.25086087 0 12093
0.10550000 0.10551000 15805.81133302 0 -59.52144437 0 5761.17764289 0 779.89147179 0 1927.94627204 0 12067
0.10650000 0.10649700 15786.03910237 0 -132.21910325 0 5350.55235065 0 825.88058181 0 1586.00751216 0 12054
0.10750000 0.10749900 16033.85105981 0 -135.43868147 0 4883.92770740 0 306.95838850 0 1447.68977421 0 12807
0.10850000 0.10850100 16184.33970417 0 115.74224438 0 4831.41046589 0 399.49572330 0 1700.76334191 0 12736
0.10950000 0.10950300 15712.99169471 0 284.55205735 0 4615.46475351 0 -641.46938040 0 1778.20457861 0 12933
0.11050000 0.11050200 15749.24078423 0 297.80933800 0 5043.14908697 0 238.39488336 0 1065.92205261 0 13428
0.11150000 0.11150900 15174.63779250 0 318.13299419 0 5319.90539315 0 -232.79934209 0 872.18275216 0 13453
0.11250000 0.11250000 14886.84199087 0 104.97088235 0 5415.09769914 0 -261.35813234 0 1182.04985548 0 13668
0.11350000 0.11349100 14645.95031416 0 244.12553488 0 5663.79940696 0 -414.49405870 0 831.68592842 0 13791
0.11450000 0.11448600 14497.87827576 0 312.84282403 0 5867.16778373 0 -12.74902448 0 1164.32075533 0 14205
0.11550000 0.11549300 14221.61627534 0 -115.25013552 0 5654.35267454 0 808.60624297 0 904.62019499 0 14776
0.11650000 0.11649800 14611.01937335 0 39.74976295 0 5476.74312047 0 278.38421984 0 343.13388138 0 14553
0.11750000 0.11747300 14204.37049639 0 160.74384133 0 5441.04325958 0 -344.42237175 0 692.31696688 0 14568
0.11850000 0.11849100 14035.86715299 0 262.92782776 0 5612.63326787 0 -29.55509099 0 733.94739851 0 16015
0.11950000 0.11950300 13968.42187734 0 137.40382151 0 6007.89114307 0 -242.36031406 0 359.20980335 0 15270
0.12050000 0.12050700 13504.54337723 0 113.19602045 0 5462.58400641 0 105.74617348 0 -516.90432733 0 15999
0.12150000 0.12150000 13686.99712781 0 231.40100600 0 5747.46889631 0 -32.38043290 0 367.27357809 0 15670
0.12250000 0.12250700 13300.23032722 0 -263.46167799 0 4650.27486402 0 908.27036846 0 549.76687312 0 16887
0.12350000 0.12352200 13711.16318748 0 -168.98776305 0 4600.78936454 0 1229.64600847 0 87.21948352 0 16407
0.12450000 0.12449800 13419.85232263 0 332.10976434 0 4050.15471018 0 -236.60879186 0 -277.42746357 0 16306
0.12550000 0.12549900 13070.21337736 0 599.15241299 0 4446.30233576 0 -585.58097357 0 931.97178072 0 17523
0.12650000 0.12650100 12512.19709023 0 204.57997513 0 4219.73454170 0 117.49098833 0 114.69651307 0 17154
0.12750000 0.12750600 12324.58059054 0 116.36726655 0 4724.14611463 0 -85.25917670 0 65.42675059 0 18007
0.12850000 0.12850300 12142.67606859 0 26.77269875 0 4376.37454671 0 469.51578276 0 24.11586018 0 17496
0.12950000 0.12949900 12261.74883538 0 -50.49860661 0 4332.77677813 0 394.18138708 0 241.60677238 0 18405
0.13050000 0.13049000 12234.83663255 0 -84.22223304 0 3373.88949921 0 67.87103768 0 251.85537860 0 18100
0.13150000 0.13148800 12382.79882522 0 73.79710474 0 3676.92090302 0 473.50208415 0 525.57994276 0 19059
0.13250000 0.13249300 12221.65514545 0 47.72950571 0 3426.48363273 0 -31.48892499 0 524.62318648 0 18957
0.13350000 0.13349100 12261.41929820 0 103.87484170 0 3350.84386594 0 455.64775987 0 553.83446035 0 19468
0.13450000 0.13450700 12092.03718899 0 11.67429389 0 3321.05370510 0 -92.75373088 0 955.52160588 0 19953
0.13550000 0.13551000 11976.69917689 0 153.96855696 0 3363.82763073 0 201.22968049 0 513.12233899 0 19956
0.13650000 0.13649900 11798.74910107 0 105.18222552 0 3109.90825094 0 130.05294553 0 965.30117085 0 19723
0.13750000 0.13749600 11775.90119010 0 174.23729029 0 3156.71351471 0 -35.36801695 0 659.36215068 0 20946
0.13850000 0.13851100 11500.40810976 0 147.24270317 0 3187.15176533 0 -42.51381095 0 494.64848482 0 20955
0.13950000 0.13949800 11227.00209821 0 238.31908981 0 3414.69718635 0 -231.67452186 0 319.22376224 0 20506
0.14050000 0.14048300 11355.74128887 0 7.08718032 0 3262.64873268 0 105.23725823 0 66.72743383 0 21447
0.14150000 0.14148400 11246.33494596 0 15.58447220 0 3202.48622866 0 50.34866719 0 -311.27203015 0 21771
0.14250000 0.14249400 11022.02997385 0 178.51248593 0 3029.03982760 0 180.36338641 0 81.62229456 0 22470
0.14350000 0.14350900 10754.35790918 0 34.50331140 0 3063.84993811 0 229.16894085 0 60.41525904 0 22519
0.14450000 0.14449900 10855.48188437 0 76.35837753 0 2865.68824874 0 345.92945510 0 58.98440862 0 22218
0.14550000 0.14550500 10580.20849548 0 176.07610774 0 3064.14652157 0 -250.51635920 0 -92.64871836 0 23559
0.14650000 0.14650700 10302.19994802 0 351.37450773 0 2707.22480468 0 -162.47720688 0 301.34966574 0 23044
0.14750000 0.14750500 10243.82792932 0 71.85107787 0 3389.36676198 0 -28.21442390 0 314.70690600 0 23649
0.14850000 0.14849900 9941.34575415 0 -94.74051052 0 2639.97725134 0 459.45061890 0 522.44824111 0 23640
0.14950000 0.14949500 10149.95377204 0 -7.19119324 0 2865.86400190 0 458.70696334 0 181.42779150 0 24457
0.15050000 0.15050000 10132.20270275 0 136.36797631 0 2325.69764521 0 78.60208633 0 327.93233139 0 24591
0.15150000 0.15149900 9973.58547467 0 192.29153378 0 2381.34548991 0 45.60223338 0 827.93030306 0 25020
0.15250000 0.15250500 9997.75153435 0 -24.41540948 0 2275.93753142 0 294.04931880 0 958.48194819 0 25297
0.15350000 0.15350100 9818.97761559 0 137.69491268 0 2272.60920593 0 16.62405214 0 478.04969720 0 25452
0.15450000 0.15450400 9368.81884664 0 167.81021687 0 2372.63472385 0 -128.88967930 0 1056.98610281 0 26061
0.15550000 0.15549900 9347.54172955 0 93.06679120 0 2466.09146737 0 -257.63985452 0 852.30726653 0 26128
0.15650000 0.15649500 9144.96424200 0 221.72579447 0 2589.03080370 0 43.68476639 0 552.59540056 0 26331
0.15750000 0.15749700 9180.36751943 0 -15.49901222 0 2636.07772807 0 -170.82658050 0 605.83432849 0 27345
0.15850000 0.15849900 9111.74689451 0 -51.37934964 0 2643.16277739 0 161.69071148 0 180.31615275 0 26980
0.15950000 0.15949700 9199.26098427 0 165.52762269 0 2587.28425666 0 84.13600415 0 295.10273931 0 27777
0.16050000 0.16050000 9178.46718837 0 2.83314096 0 2572.38917624 0 77.77604647 0 655.44834747 0 28224
0.16150000 0.16150500 9076.32164794 0 -74.64061007 0 2207.64644368 0 389.95891738 0 272.52175346 0 28075
0.16250000 0.16249700 9152.64245823 0 126.60818357 0 2263.89843987 0 205.89153309 0 609.46033590 0 28590
0.16350000 0.16349900 8745.09284632 0 257.05877063 0 2372.03057236 0 -462.55815449 0 557.19464110 0 29163
0.16450000 0.16449100 8539.34081730 0 247.36927916 0 2861.53608030 0 -204.70519925 0 924.04751006 0 28996
0.16550000 0.16550500 8434.28436513 0 132.10596215 0 2675.20477561 0 148.95629649 0 604.63151780 0 30777
0.16650000 0.16650700 8408.47061957 0 -83.24559470 0 2530.97733761 0 333.34113493 0 444.92901395 0 29211
0.16750000 0.16749900 8350.87850552 0 54.06815331 0 2526.35283256 0 -97.41195857 0 174.87110012 0 30922
0.16850000 0.16850800 8265.35262340 0 171.77784448 0 2499.12207713 0 -354.15250614 0 366.81552141 0 30867
0.16950000 0.16949900 8238.95669549 0 75.33055108 0 2715.33141925 0 -111.11114857 0 -213.73891175 0 30852
0.17050000 0.17049200 8067.67425523 0 -2.67956565 0 2551.80408723 0 66.33253845 0 -20.88145279 0 31257
0.17150000 0.17149500 8137.54712142 0 -42.75173680 0 2607.11141017 0 202.83672346 0 -1.81931983 0 32608
0.17250000 0.17250900 8238.68208118 0 82.70328635 0 2551.41962719 0 299.90299753 0 -137.10613959 0 32361
0.17350000 0.17350400 8123.90428227 0 80.59227119 0 2363.14405314 0 28.96763605 0 375.41424483 0 32508
0.17450000 0.17449800 8164.62409283 0 -111.88775786 0 2078.00651808 0 560.91621429 0 344.85955773 0 32791
0.17550000 0.17549800 8166.87593021 0 -26.62012304 0 2079.96177200 0 4.48070602 0 338.39293986 0 33633
0.17650000 0.17650100 7915.08755750 0 246.39275066 0 2006.63975001 0 -245.51837868 0 292.66086883 0 33984
0.17750000 0.17750300 7871.19320547 0 132.12793129 0 2127.27232610 0 -34.32019857 0 358.57050123 0 34069
0.17850000 0.17849800 7799.67265339 0 5.32011410 0 1923.64031959 0 351.59090381 0 201.75034923 0 34536
