### header ###
fiducial parameters:
Omega_m = 0.31
Omega_nu = 0
Omega_de = 0.69
Omega_k = 0
H_0 = 100
w_de = -1
zeff = 0
beta = 0
fgrowth = 0
b_1 = 2
gamma = 0.55
Lx = 3500 Ly = 3500 Lz = 3500
nx = 700 ny = 700 nz = 700
xoffset = -983.599254 yoffset = -42.9823471 zoffset = 800.977702
bins = 400 dk = 0.001
kx_ny = 0.628318531 ky_ny = 0.628318531 kz_ny = 0.628318531
############################
A(data) = 9.0266077 (not used)
A(ran) = 9.01344504 (used)
Ngal = 501041
weighted Ngal = 0
Nran = 25229228
weighted Nran = 0
SN(data) = 6760.09863
SN(ran) = 133.798382
SN(data+ran) = 6893.89701
############################
13 columns: k_central k_mean P_0(k) sigma^{lin}_{P_0(k)} P^img_1(k) sigma^{lin}_{P_1(k)} P_2(k) sigma^{lin}_{P_2(k)} P^img_3(k) sigma^{lin}_{P_3(k)} P_4(k) sigma^{lin}_{P_4(k)} N_modes
### header ###
0.00050000 0 0 0 0 0 0 0 0 0 0 0 0
0.00150000 0.00179520 38214.88862759 0 -10058.38637500 0 -22866.80443403 0 35515.32007000 0 -81427.42824251 0 3
0.00250000 0.00253879 30503.27929258 0 4664.11542547 0 21819.09590123 0 6848.44162156 0 14195.80252977 0 6
0.00350000 0.00331552 24741.98081939 0 5665.12854024 0 11436.36805161 0 12934.66375171 0 54091.98983666 0 7
0.00450000 0.00420575 26425.36656749 0 -3151.86931820 0 23079.13622203 0 24867.53448400 0 10829.41549363 0 24
0.00550000 0.00557378 46831.62674330 0 -4901.49203896 0 18817.89098055 0 10809.46750982 0 -17447.67539675 0 45
0.00650000 0.00659388 51579.48855013 0 2764.78396501 0 26626.49409145 0 -13505.86152594 0 19033.40829460 0 40
0.00750000 0.00754703 44982.81333213 0 9642.77408681 0 11676.16127106 0 18582.60143586 0 29422.06781340 0 57
0.00850000 0.00846663 53423.46874936 0 -13522.22853909 0 35872.42852462 0 31261.87387505 0 54849.81549905 0 75
0.00950000 0.00948925 67319.06291049 0 -27091.25135737 0 -6148.07625835 0 50232.56026021 0 12564.59350144 0 112
0.01050000 0.01054430 87980.82424454 0 -10943.06188156 0 -25096.67266805 0 111.81965351 0 17089.35863915 0 105
0.01150000 0.01145670 88851.90085024 0 14236.66513978 0 -5844.50661049 0 -39034.33774216 0 2817.10348421 0 144
0.01250000 0.01249090 82539.72606210 0 14992.62342482 0 28673.46919198 0 -47881.86172780 0 15540.75359663 0 169
0.01350000 0.01339930 67874.11336302 0 2774.10986713 0 33418.47500995 0 14207.11663953 0 1728.31264995 0 180
0.01450000 0.01448870 85233.25310477 0 -7273.14913585 0 37808.89882498 0 2446.65975848 0 -20197.88283394 0 267
0.01550000 0.01550050 80366.09883970 0 2358.86006984 0 34672.69350728 0 -3003.20411288 0 -15564.26058196 0 238
0.01650000 0.01653350 78783.11208501 0 1997.70929251 0 37487.60007698 0 2692.91190661 0 -6163.18004565 0 315
0.01750000 0.01747870 75253.54922317 0 4779.01405467 0 41026.60967124 0 6259.51474719 0 15635.87999519 0 297
0.01850000 0.01844180 81798.81664149 0 -5523.22983163 0 41110.20226858 0 16800.35453454 0 6445.58242214 0 388
0.01950000 0.01947590 87812.21105542 0 14.67494959 0 20645.94354954 0 15721.44981560 0 1870.37612714 0 399
0.02050000 0.02045430 82873.32753140 0 1592.21379567 0 23724.37001546 0 5823.40524656 0 17014.33400842 0 462
0.02150000 0.02154770 76580.92497390 0 4146.11593626 0 25039.99227353 0 3913.57253471 0 25765.74298398 0 571
0.02250000 0.02255340 77334.35680725 0 4454.11236686 0 24392.23202840 0 -1769.80138059 0 12805.70486960 0 510
0.02350000 0.02348930 70264.90558535 0 1197.72484055 0 26443.16157507 0 6984.25487696 0 12406.63534772 0 555
0.02450000 0.02439640 70587.96186497 0 3475.40891901 0 24887.52640610 0 -3278.91688468 0 15389.71572364 0 592
0.02550000 0.02547300 63110.87315458 0 -223.71510056 0 21580.84052194 0 2084.33363188 0 15172.22118653 0 837
0.02650000 0.02652900 63804.43906736 0 2467.00318690 0 23069.35995243 0 1350.06987768 0 4631.43632204 0 723
0.02750000 0.02749970 66876.16494401 0 -4084.14097775 0 15757.80875084 0 13118.76518817 0 11502.60502428 0 826
0.02850000 0.02848090 69197.09528472 0 -3084.09450537 0 11877.06910358 0 244.11015648 0 2315.69069959 0 831
0.02950000 0.02946900 67670.23969591 0 2734.08208464 0 8797.53319583 0 -5710.19824154 0 -3328.76487505 0 996
0.03050000 0.03053250 64315.11184667 0 7644.44965824 0 23533.12860682 0 -13461.70354416 0 -2016.66866478 0 1041
0.03150000 0.03150510 59260.23123619 0 2073.86533421 0 23076.71961606 0 -2933.80358332 0 -6062.90188255 0 1036
0.03250000 0.03246190 58575.12344429 0 -2405.87404048 0 30786.02219083 0 4830.96009841 0 -12034.47802867 0 1059
0.03350000 0.03345080 57719.97446883 0 2083.25714377 0 22228.71061278 0 7020.04261443 0 -8335.01678272 0 1302
0.03450000 0.03451200 58303.03558145 0 1938.46949257 0 28124.89963727 0 -4829.77376457 0 -8627.73367286 0 1339
0.03550000 0.03553350 52978.70340554 0 3151.27615128 0 26954.16389155 0 -3321.89951719 0 -2498.13346559 0 1365
0.03650000 0.03647120 52092.35824396 0 -770.09872533 0 26052.66001980 0 5904.01004017 0 -5725.35695170 0 1308
0.03750000 0.03744890 52928.83344602 0 -494.00259196 0 25026.81078643 0 5098.76397794 0 -3733.13994549 0 1579
0.03850000 0.03847530 50398.53715191 0 2006.04658310 0 21227.68651345 0 2627.74043748 0 -3356.98424201 0 1662
0.03950000 0.03950240 52698.48695899 0 -432.75591062 0 16276.93965103 0 6881.45026217 0 2638.09888943 0 1683
0.04050000 0.04050350 50412.15802191 0 -415.77705678 0 18032.16450381 0 3992.01336751 0 1837.54323970 0 1822
0.04150000 0.04152450 46842.61131588 0 3135.06292215 0 16224.54323982 0 -5325.37571030 0 4515.87861849 0 1887
0.04250000 0.04250150 44367.89695903 0 2641.61395265 0 17790.72359847 0 1363.41613337 0 5749.77565655 0 1920
0.04350000 0.04349210 43391.47830227 0 579.51858796 0 18261.63222503 0 -1076.75833346 0 -736.04984570 0 2005
0.04450000 0.04448520 41886.70170436 0 2363.10011485 0 19627.78351697 0 68.18563584 0 448.35510214 0 2151
0.04550000 0.04548030 40250.65946409 0 -84.48893847 0 23055.62923671 0 -2245.82881797 0 -2826.46234005 0 2274
0.04650000 0.04648670 38740.61027133 0 144.58223969 0 16040.00242045 0 3255.98109713 0 -600.86051403 0 2311
0.04750000 0.04749250 39835.22292906 0 -473.36367853 0 18771.31639281 0 958.03926991 0 -5253.52562104 0 2568
0.04850000 0.04851840 40064.91034174 0 293.18483294 0 11933.09042374 0 3036.42146037 0 -4796.98481542 0 2493
0.04950000 0.04949480 40769.13128993 0 689.35003383 0 17362.87449643 0 1479.29238953 0 -4972.08988694 0 2644
0.05050000 0.05050630 38157.32946726 0 355.21032048 0 8783.90134125 0 403.56880281 0 -2632.26608139 0 2829
0.05150000 0.05149060 38929.76461118 0 532.24428294 0 16042.52887215 0 1895.13535374 0 613.94863226 0 2784
0.05250000 0.05249300 36616.08408838 0 1194.15485446 0 10937.15218151 0 863.10510138 0 -475.74623233 0 3055
0.05350000 0.05348950 36003.14493834 0 -473.54931781 0 12614.46346096 0 2969.14095331 0 2832.52582412 0 3009
0.05450000 0.05448610 35328.91187329 0 1145.17464532 0 9767.89935309 0 1413.27510832 0 1337.19595862 0 3336
0.05550000 0.05550870 34835.92425584 0 748.51074484 0 11996.14187036 0 -987.53394575 0 4265.36445620 0 3349
0.05650000 0.05647670 34377.97742493 0 -223.80846943 0 11437.13697169 0 -115.17324352 0 2347.41414521 0 3324
0.05750000 0.05747970 34157.51705322 0 -187.47260179 0 10635.98815505 0 1108.23352773 0 2017.88795234 0 3639
0.05850000 0.05849280 34148.39985798 0 -79.75052339 0 9133.57324023 0 1967.23808817 0 2507.22869169 0 3846
0.05950000 0.05951020 34045.69410434 0 -242.96117018 0 8072.12300713 0 706.70565851 0 765.33032237 0 3787
0.06050000 0.06049470 33780.30683078 0 2195.06910807 0 10666.83283486 0 -1675.39996382 0 -837.52093338 0 3930
0.06150000 0.06148310 32555.19745078 0 1095.33544261 0 10066.18542153 0 -2572.59788312 0 1653.32097294 0 4083
0.06250000 0.06249100 31246.93485634 0 -478.81092808 0 12184.08790723 0 984.18474957 0 -1548.17664419 0 4303
0.06350000 0.06350600 31047.67470971 0 820.86612443 0 11535.66858775 0 603.03216403 0 -230.92647246 0 4470
0.06450000 0.06451750 30045.88169030 0 1094.55663641 0 11893.43611672 0 -1137.27673764 0 -514.91172587 0 4479
0.06550000 0.06550280 29202.92559040 0 923.00836949 0 12934.77359743 0 -603.82415171 0 -590.79535017 0 4636
0.06650000 0.06648880 29043.31975080 0 -61.13485839 0 13789.37334426 0 2107.99440122 0 -779.15330851 0 4653
0.06750000 0.06749660 28444.66054511 0 -273.67293666 0 11955.16941463 0 1882.64589472 0 1382.72701197 0 5220
0.06850000 0.06852730 28697.41556021 0 89.80239592 0 10599.48642036 0 1129.31292252 0 1049.21451771 0 5029
0.06950000 0.06949320 27626.09019635 0 -95.46054925 0 10879.25249943 0 1216.39861394 0 3494.90653534 0 5040
0.07050000 0.07048030 28779.36047167 0 197.64651291 0 9005.69084624 0 1325.53034254 0 1846.63846579 0 5475
0.07150000 0.07148790 28533.41589157 0 298.94514280 0 7868.33721660 0 149.94600648 0 3031.42347985 0 5509
0.07250000 0.07249820 29092.53063596 0 -76.07607402 0 8746.13638072 0 238.84305392 0 2239.63351904 0 5916
0.07350000 0.07351270 27174.29472608 0 105.47177886 0 7392.59537810 0 -285.38578641 0 1185.40015012 0 5721
0.07450000 0.07449140 27637.07476893 0 720.22437198 0 8038.22461614 0 452.69730368 0 1512.85025877 0 6028
0.07550000 0.07549160 26220.39444312 0 425.51927420 0 8380.99820354 0 -209.20997247 0 779.73549086 0 6183
0.07650000 0.07648840 26693.82952137 0 843.82717650 0 8555.58700015 0 632.40051728 0 1315.66619636 0 6330
0.07750000 0.07749960 25255.94897048 0 509.02069959 0 8183.79217199 0 362.61062703 0 1614.58937001 0 6583
0.07850000 0.07848650 25235.84720265 0 -214.34745707 0 8568.79045639 0 613.58394445 0 1724.05063579 0 6549
0.07950000 0.07947320 24710.45509609 0 375.43841089 0 8118.54381085 0 -208.06428155 0 1586.37000305 0 6828
0.08050000 0.08048110 23495.34167714 0 633.09034844 0 8553.93931426 0 392.70945436 0 2989.37453600 0 7147
0.08150000 0.08149960 23841.24586772 0 215.53049553 0 8478.50825435 0 253.38003728 0 2940.85567891 0 7386
0.08250000 0.08250610 23431.63115617 0 518.50477956 0 8607.58796675 0 -5.05765971 0 222.92750671 0 7227
0.08350000 0.08350160 23022.45582751 0 631.14607909 0 9945.94829006 0 -640.77954925 0 2990.00065664 0 7798
0.08450000 0.08449610 22297.80357432 0 -131.00750489 0 8146.81810068 0 493.37207749 0 2037.53935269 0 7371
0.08550000 0.08548940 22482.23454796 0 -561.87956131 0 9031.62542211 0 1525.14199548 0 2736.69641292 0 8256
0.08650000 0.08650700 22851.86541532 0 -11.55456205 0 7494.40039678 0 221.05463708 0 -238.78813106 0 8037
0.08750000 0.08749060 22788.04504863 0 375.20004566 0 7163.14962602 0 -750.08593255 0 1619.14796764 0 8155
0.08850000 0.08849210 22276.93288642 0 371.04458185 0 7955.70850691 0 11.31883312 0 539.17994207 0 8718
0.08950000 0.08949900 21593.14324323 0 531.88398896 0 7617.91093089 0 -550.89169336 0 -653.29646970 0 8571
0.09050000 0.09049190 21287.00320539 0 832.46693153 0 8653.30575783 0 -407.67483604 0 -915.81237600 0 8932
0.09150000 0.09150830 21047.31983166 0 107.31103569 0 8467.30399031 0 341.95084291 0 -194.37311028 0 9285
0.09250000 0.09250820 20308.60732556 0 -64.87367736 0 8177.36619703 0 209.00016713 0 -1215.09144980 0 9204
0.09350000 0.09350330 19594.93964495 0 510.06533244 0 7734.86367516 0 154.65399429 0 -714.76723633 0 9349
0.09450000 0.09448040 19563.52376737 0 543.71217672 0 8574.62326443 0 90.98312762 0 -967.55630360 0 9564
0.09550000 0.09549270 18918.28997394 0 390.72783746 0 8516.32813774 0 222.82205481 0 -745.68661123 0 10155
0.09650000 0.09649430 18434.09001456 0 555.61176419 0 8220.92002731 0 564.74763321 0 -315.66915456 0 9913
0.09750000 0.09749140 17771.50059645 0 246.55751925 0 7961.12390119 0 168.77026851 0 78.19093378 0 10476
0.09850000 0.09850240 17525.88555353 0 -312.90433764 0 7390.13483384 0 1437.37526056 0 514.98422404 0 10575
0.09950000 0.09950330 17260.49827997 0 141.75700762 0 6867.08244123 0 130.40115648 0 795.35994690 0 10882
0.10050000 0.10051200 16909.98056890 0 456.96481013 0 6501.36208171 0 288.39226392 0 938.23408555 0 10875
0.10150000 0.10150300 16563.96653258 0 570.49146621 0 6710.00305332 0 -73.65968774 0 781.59737591 0 11118
0.10250000 0.10250800 16392.71704604 0 121.27077976 0 6244.66360506 0 265.48943009 0 833.78288333 0 11575
0.10350000 0.10349800 16361.85039709 0 47.84473387 0 6705.83990031 0 603.29030148 0 535.32435709 0 11364
0.10450000 0.10450100 16166.87423377 0 -60.85782747 0 5639.16101066 0 -161.76760349 0 646.91772840 0 12093
0.10550000 0.10551000 15616.65699317 0 100.05363843 0 5584.42488548 0 578.17737165 0 465.20763339 0 12067
0.10650000 0.10649700 15844.47702851 0 302.25808989 0 5102.23510288 0 256.60950162 0 202.16117224 0 12054
0.10750000 0.10749900 15508.56879897 0 58.66574617 0 5434.06805599 0 391.32210284 0 1244.14564428 0 12807
0.10850000 0.10850100 15458.25945655 0 256.72813500 0 5582.09615610 0 -329.98315109 0 -604.94128274 0 12736
0.10950000 0.10950300 14796.76849570 0 224.91900972 0 4965.19157536 0 241.51889580 0 728.30682049 0 12933
0.11050000 0.11050200 15012.06611829 0 10.54353101 0 5442.59208431 0 -3.34124335 0 412.06866507 0 13428
0.11150000 0.11150900 15093.02241822 0 89.26678816 0 4936.43396434 0 -90.43521714 0 -781.43370578 0 13453
0.11250000 0.11250000 14706.25561763 0 59.60426805 0 5048.39971266 0 373.33816061 0 -343.66223932 0 13668
0.11350000 0.11349100 14406.26694043 0 118.23354544 0 4506.13530261 0 283.83366630 0 798.73550605 0 13791
0.11450000 0.11448600 14441.63726414 0 64.82578463 0 4834.13463989 0 454.12090429 0 -15.42838142 0 14205
0.11550000 0.11549300 14396.60051656 0 250.48889777 0 4451.34425457 0 242.19115165 0 -24.27096235 0 14776
0.11650000 0.11649800 14241.16881453 0 14.71625158 0 4358.63446199 0 85.04256092 0 215.76336847 0 14553
0.11750000 0.11747300 14078.15775743 0 -6.47086891 0 4152.88243297 0 370.54368534 0 333.70911811 0 14568
0.11850000 0.11849100 13870.32964419 0 246.24445893 0 4137.24040161 0 23.26620349 0 991.80474757 0 16015
0.11950000 0.11950300 13684.25098466 0 419.98195116 0 4667.30095152 0 -201.65258653 0 868.65890128 0 15270
0.12050000 0.12050700 13146.99553971 0 228.70539189 0 4218.80085303 0 103.66130160 0 1155.68688128 0 15999
0.12150000 0.12150000 13377.56171819 0 -182.08466894 0 4283.86247643 0 872.80008514 0 1562.66529542 0 15670
0.12250000 0.12250700 13169.62375922 0 -50.55847253 0 3873.68755167 0 379.28301129 0 1400.67580356 0 16887
0.12350000 0.12352200 13209.71744915 0 221.74446824 0 3956.54418265 0 -263.90875010 0 1603.38510598 0 16407
0.12450000 0.12449800 13026.60462421 0 79.39044910 0 4072.61816111 0 -78.92887736 0 1697.92932219 0 16306
0.12550000 0.12549900 12791.86430815 0 107.51084507 0 4326.60344834 0 -356.10556314 0 1010.19292207 0 17523
0.12650000 0.12650100 12949.16338752 0 183.34130404 0 4046.24420235 0 -187.31881777 0 328.19156730 0 17154
0.12750000 0.12750600 12829.54139211 0 31.63897425 0 4510.71586938 0 251.34459598 0 196.11636195 0 18007
0.12850000 0.12850300 12908.41062324 0 52.47363276 0 4168.65627919 0 -40.25230715 0 206.09914151 0 17496
0.12950000 0.12949900 12648.95501887 0 108.25900430 0 4471.20436180 0 -69.03452361 0 -261.48225801 0 18405
0.13050000 0.13049000 12461.22867345 0 248.91041469 0 4150.27908926 0 -136.61183382 0 -352.92113555 0 18100
0.13150000 0.13148800 12386.09419700 0 164.81033010 0 4558.37792981 0 -137.04682290 0 -395.36772092 0 19059
0.13250000 0.13249300 11941.76823608 0 81.65546797 0 4268.57195139 0 326.58013050 0 14.77359105 0 18957
0.13350000 0.13349100 12061.28038577 0 236.19247656 0 4482.66127100 0 74.25702880 0 84.22904348 0 19468
0.13450000 0.13450700 11759.42433123 0 -157.18483981 0 4114.08492261 0 226.25912757 0 53.15280888 0 19953
0.13550000 0.13551000 11881.79246979 0 182.22746838 0 4394.61992176 0 499.98698710 0 -136.20760155 0 19956
0.13650000 0.13649900 11797.98018099 0 164.87623753 0 3910.76048413 0 -336.42011062 0 14.45328091 0 19723
0.13750000 0.13749600 11662.43055534 0 105.48539973 0 4123.85020763 0 127.90546159 0 319.08755354 0 20946
0.13850000 0.13851100 11463.17040871 0 -20.83597666 0 3949.30534932 0 354.49192943 0 -36.18977283 0 20955
0.13950000 0.13949800 11492.60906323 0 -24.78196466 0 3806.22030687 0 406.18313108 0 575.99254016 0 20506
0.14050000 0.14048300 11426.37209056 0 156.61254358 0 3694.86969461 0 -149.18697251 0 63.36022295 0 21447
0.14150000 0.14148400 11025.87457425 0 336.72548174 0 3898.30397882 0 -182.95354863 0 918.11364395 0 21771
0.14250000 0.14249400 10800.80068206 0 88.21600394 0 3726.87873912 0 261.82827205 0 515.54663416 0 22470
0.14350000 0.14350900 10956.00170806 0 -119.14416650 0 3661.75120828 0 707.31200691 0 637.75659487 0 22519
0.14450000 0.14449900 11122.97819587 0 -109.26870622 0 3076.50416572 0 273.94205869 0 649.74296047 0 22218
0.14550000 0.14550500 10745.43843625 0 112.60724736 0 3073.43946997 0 94.50258468 0 1286.05178868 0 23559
0.14650000 0.14650700 10746.21834090 0 225.54732727 0 2805.83331274 0 -11.78381008 0 764.76791226 0 23044
0.14750000 0.14750500 10510.92879621 0 186.04131198 0 2963.28617612 0 132.94738041 0 938.19234417 0 23649
0.14850000 0.14849900 10370.28232888 0 218.34803840 0 2849.60683448 0 -90.55099454 0 382.22028600 0 23640
0.14950000 0.14949500 9934.30464312 0 185.38772991 0 3090.78411008 0 -142.70717315 0 719.54113157 0 24457
0.15050000 0.15050000 9752.43307489 0 180.29747898 0 3002.57799225 0 -236.68348695 0 499.36306338 0 24591
0.15150000 0.15149900 9554.21646266 0 31.02812217 0 3057.31411742 0 317.56399333 0 603.65608775 0 25020
0.15250000 0.15250500 9657.16387690 0 60.81795347 0 3184.57039077 0 -17.68779815 0 150.08880592 0 25297
0.15350000 0.15350100 9625.06695581 0 126.12815775 0 2964.60432483 0 140.20378906 0 329.76675501 0 25452
0.15450000 0.15450400 9766.51529694 0 -53.53276525 0 3129.33995984 0 72.42359379 0 280.95570828 0 26061
0.15550000 0.15549900 9698.05944062 0 -109.66722651 0 2722.22973083 0 -86.32160456 0 251.99378422 0 26128
0.15650000 0.15649500 9711.48258831 0 32.27256440 0 2992.88959923 0 -180.84121532 0 -102.85393552 0 26331
0.15750000 0.15749700 9623.97948313 0 223.81945400 0 3057.74251575 0 -277.72514549 0 -66.45040291 0 27345
0.15850000 0.15849900 9405.02399786 0 296.21437806 0 3514.39316710 0 202.53464771 0 -244.11564876 0 26980
0.15950000 0.15949700 9233.56580444 0 117.87215300 0 3622.05296297 0 -242.05933677 0 -42.41824517 0 27777
0.16050000 0.16050000 8978.46009081 0 51.47359727 0 3292.46086267 0 372.90207308 0 494.45735326 0 28224
0.16150000 0.16150500 9117.78840943 0 -161.41280180 0 3166.64356832 0 744.30365354 0 142.94883374 0 28075
0.16250000 0.16249700 9057.12061507 0 3.80909826 0 2478.88849443 0 347.17730255 0 299.66463231 0 28590
0.16350000 0.16349900 8991.36696360 0 231.69209717 0 2379.18152911 0 175.32256606 0 631.52614530 0 29163
0.16450000 0.16449100 8553.33516277 0 104.46844800 0 2200.53942522 0 -101.51920011 0 1268.16890452 0 28996
0.16550000 0.16550500 8390.47788968 0 242.97545013 0 2363.13306857 0 259.18538389 0 1038.51554402 0 30777
0.16650000 0.16650700 8335.13761301 0 124.74959389 0 2295.77566950 0 94.94526295 0 1031.11084364 0 29211
0.16750000 0.16749900 8319.49558166 0 78.36877401 0 2320.01862119 0 -65.94115813 0 789.01306086 0 30922
0.16850000 0.16850800 8145.77456628 0 4.32095738 0 2161.07185594 0 50.45192217 0 817.24341239 0 30867
0.16950000 0.16949900 8156.40763254 0 -146.35844507 0 1949.71769490 0 231.29555410 0 872.54963688 0 30852
0.17050000 0.17049200 8280.91776275 0 -10.09857893 0 2021.71058360 0 -129.99802267 0 276.82221362 0 31257
0.17150000 0.17149500 8237.61657764 0 133.27691759 0 1707.76051465 0 111.27591716 0 685.85913666 0 32608
0.17250000 0.17250900 8410.54670378 0 -9.14939102 0 1910.38194048 0 -113.66945553 0 541.28348772 0 32361
0.17350000 0.17350400 8079.99894567 0 35.35824068 0 1803.01872807 0 69.86100285 0 333.02697615 0 32508
0.17450000 0.17449800 8175.63063456 0 200.92870320 0 1905.46085197 0 111.91521929 0 512.21721021 0 32791
0.17550000 0.17549800 8059.43582579 0 135.19482396 0 1997.29187875 0 -78.34515718 0 485.90806042 0 33633
0.17650000 0.17650100 7940.37404359 0 34.77364173 0 2205.27377600 0 -183.51705720 0 465.37020507 0 33984
0.17750000 0.17750300 7668.78048651 0 132.78261182 0 2046.98608511 0 40.88677606 0 635.79475021 0 34069
0.17850000 0.17849800 7891.40481902 0 -107.66001556 0 2076.62246193 0 392.03500160 0 785.60125262 0 34536
