### header ###
fiducial parameters:
Omega_m = 0.31
Omega_nu = 0
Omega_de = 0.69
Omega_k = 0
H_0 = 100
w_de = -1
zeff = 0
beta = 0
fgrowth = 0
b_1 = 2
gamma = 0.55
Lx = 3500 Ly = 3500 Lz = 3500
nx = 700 ny = 700 nz = 700
xoffset = -983.599254 yoffset = -42.9823471 zoffset = 800.977702
bins = 400 dk = 0.001
kx_ny = 0.628318531 ky_ny = 0.628318531 kz_ny = 0.628318531
############################
A(data) = 9.0111404 (not used)
A(ran) = 9.01311806 (used)
Ngal = 500425
weighted Ngal = 0
Nran = 25229228
weighted Nran = 0
SN(data) = 6751.26087
SN(ran) = 133.793528
SN(data+ran) = 6885.0544
############################
13 columns: k_central k_mean P_0(k) sigma^{lin}_{P_0(k)} P^img_1(k) sigma^{lin}_{P_1(k)} P_2(k) sigma^{lin}_{P_2(k)} P^img_3(k) sigma^{lin}_{P_3(k)} P_4(k) sigma^{lin}_{P_4(k)} N_modes
### header ###
0.00050000 0 0 0 0 0 0 0 0 0 0 0 0
0.00150000 0.00179520 23180.08444405 0 -8924.35008628 0 -16997.41776664 0 9658.32824159 0 -61398.48813487 0 3
0.00250000 0.00253879 38879.01588586 0 -6251.43010177 0 -32795.21036168 0 30645.30981606 0 33625.09482020 0 6
0.00350000 0.00331552 33061.91578396 0 -4825.89621045 0 4928.14061204 0 -45710.76095710 0 43146.96171661 0 7
0.00450000 0.00420575 33391.34311567 0 -6256.54891259 0 -24166.60890758 0 -6590.77650252 0 5107.46375943 0 24
0.00550000 0.00557378 39100.79440628 0 -8041.21241988 0 -30507.23373871 0 -8791.31592774 0 -20237.64698669 0 45
0.00650000 0.00659388 54598.26878694 0 -7846.13739541 0 -39691.10533680 0 -14120.44836187 0 -6111.66240024 0 40
0.00750000 0.00754703 66294.64167155 0 -2736.57558262 0 -29881.44263875 0 -10906.82377661 0 -12742.54357726 0 57
0.00850000 0.00846663 64356.08430240 0 -14124.73234517 0 -26599.69173435 0 -5627.58327116 0 20851.35505681 0 75
0.00950000 0.00948925 75584.18485787 0 -6649.54396583 0 -9731.96881617 0 -18697.28037361 0 -15183.86483346 0 112
0.01050000 0.01054430 85671.42770504 0 8669.60686354 0 -13363.50146528 0 -18975.62944282 0 -8110.81067176 0 105
0.01150000 0.01145670 82793.35984300 0 6546.38784472 0 23232.59070099 0 -10600.68373877 0 12215.50378481 0 144
0.01250000 0.01249090 72918.55862955 0 6524.39673041 0 33263.92207373 0 -8370.80452019 0 8600.21731855 0 169
0.01350000 0.01339930 75097.01906389 0 790.36526174 0 50058.12524762 0 9896.35294485 0 21568.42795492 0 180
0.01450000 0.01448870 78474.55544120 0 -4645.96891157 0 30802.49904970 0 26888.03676461 0 23330.90262560 0 267
0.01550000 0.01550050 84720.49325667 0 -3141.03852964 0 40645.77453984 0 13368.66421440 0 28209.15130897 0 238
0.01650000 0.01653350 93485.52310223 0 -150.39637395 0 33790.19294610 0 1452.43510957 0 26057.93261464 0 315
0.01750000 0.01747870 80375.65541785 0 1713.51643068 0 19374.14973607 0 2455.50233941 0 14321.57588583 0 297
0.01850000 0.01844180 87617.23489210 0 4286.54271214 0 34631.83089728 0 -13059.00911333 0 11708.34606873 0 388
0.01950000 0.01947590 78062.08474077 0 8646.85781373 0 41443.69389215 0 3266.82287026 0 13015.18066873 0 399
0.02050000 0.02045430 76335.85915961 0 -3950.22805341 0 30585.66358694 0 9483.53073810 0 5670.13750534 0 462
0.02150000 0.02154770 75929.21028265 0 -3911.78204938 0 17004.22820165 0 15643.67904172 0 -7804.63768020 0 571
0.02250000 0.02255340 80322.16054938 0 -1122.66725610 0 14541.81656609 0 2368.97686118 0 -14481.73095407 0 510
0.02350000 0.02348930 76930.34422771 0 10046.72075892 0 18377.62931149 0 -14798.74571876 0 -212.87772125 0 555
0.02450000 0.02439640 66318.69788550 0 7734.01786307 0 22272.42921166 0 -8824.13783062 0 -8928.74391531 0 592
0.02550000 0.02547300 61383.21957898 0 5005.46101844 0 26244.78019425 0 -1564.35691960 0 -15733.42299971 0 837
0.02650000 0.02652900 58704.74140075 0 -1619.56538139 0 29510.93300559 0 2833.26179048 0 -13113.05321043 0 723
0.02750000 0.02749970 56006.82052904 0 1589.16008449 0 25305.81893000 0 7284.80376736 0 -14467.56085544 0 826
0.02850000 0.02848090 54302.78378450 0 -46.53163807 0 23896.71795926 0 2203.69199755 0 -2206.84456988 0 831
0.02950000 0.02946900 54492.26766153 0 471.08987201 0 22683.36207193 0 2836.57913140 0 -11233.15345886 0 996
0.03050000 0.03053250 52354.77968292 0 1212.11463063 0 20714.04789954 0 2485.44628426 0 -7040.89133319 0 1041
0.03150000 0.03150510 50910.08869703 0 870.22749824 0 20030.14841063 0 1290.97287719 0 -1216.16793792 0 1036
0.03250000 0.03246190 51805.00182523 0 -311.00730195 0 18123.11676478 0 7337.80433006 0 -9518.98893840 0 1059
0.03350000 0.03345080 55759.77749169 0 -1819.96792357 0 15620.83113075 0 1394.68921151 0 -1363.93240828 0 1302
0.03450000 0.03451200 50445.22158538 0 2261.71250993 0 10057.76025436 0 -1742.61456345 0 -3456.09804041 0 1339
0.03550000 0.03553350 48992.29217005 0 2612.48286617 0 16028.68831070 0 935.47366246 0 2951.17019257 0 1365
0.03650000 0.03647120 49264.92926152 0 -826.71101550 0 11899.36778592 0 1956.83569793 0 713.38208172 0 1308
0.03750000 0.03744890 48215.68288855 0 -1269.44311494 0 9156.44312035 0 10264.57778693 0 3426.25295671 0 1579
0.03850000 0.03847530 49303.26541983 0 1121.03055479 0 5622.28870717 0 -462.61856964 0 3526.10272147 0 1662
0.03950000 0.03950240 45069.37176407 0 3035.79533973 0 9999.92647972 0 -5028.81421975 0 4462.29587344 0 1683
0.04050000 0.04050350 43666.75169116 0 1526.97641911 0 13588.02612885 0 -2316.87703343 0 7709.17075989 0 1822
0.04150000 0.04152450 42210.30721260 0 632.22146875 0 14305.75810131 0 2389.48505819 0 8859.92556809 0 1887
0.04250000 0.04250150 42815.22762466 0 40.67587227 0 14708.12299497 0 -954.96139268 0 1723.69912946 0 1920
0.04350000 0.04349210 41802.66972411 0 1970.96185827 0 17182.17827746 0 -1840.32233656 0 2514.59933989 0 2005
0.04450000 0.04448520 39940.45513439 0 2284.54943632 0 19923.81774804 0 -3791.95134709 0 4027.20793806 0 2151
0.04550000 0.04548030 38775.98059504 0 -572.54008900 0 22958.85515227 0 3641.46270272 0 6571.54251593 0 2274
0.04650000 0.04648670 39385.40468186 0 -1725.68733710 0 17034.10623907 0 5250.17532641 0 2867.68744095 0 2311
0.04750000 0.04749250 41676.89636805 0 -382.58717072 0 19216.85065671 0 1984.95620374 0 2270.92856632 0 2568
0.04850000 0.04851840 39717.24861954 0 950.93444837 0 14081.45312920 0 254.18081262 0 4925.96566667 0 2493
0.04950000 0.04949480 41500.92351530 0 -139.16245158 0 16715.11425130 0 1641.75421801 0 5697.46712192 0 2644
0.05050000 0.05050630 40545.15585500 0 -88.21248888 0 12706.73387065 0 1253.29579324 0 3348.18559937 0 2829
0.05150000 0.05149060 39962.75381673 0 1493.84694820 0 14522.15418116 0 -1167.30855907 0 56.93732367 0 2784
0.05250000 0.05249300 37849.98112644 0 1757.57555131 0 15259.10915565 0 -3237.17550887 0 610.37864617 0 3055
0.05350000 0.05348950 36628.82619257 0 977.80271290 0 17641.33341136 0 963.44917191 0 1814.86009732 0 3009
0.05450000 0.05448610 35736.65920751 0 763.24764741 0 17284.44464820 0 803.39296483 0 1975.25682615 0 3336
0.05550000 0.05550870 34120.38919789 0 -602.06552164 0 16494.32434242 0 3452.79168407 0 3713.33476112 0 3349
0.05650000 0.05647670 36232.61265956 0 -215.16470927 0 13901.52583032 0 2919.01834862 0 1138.24338002 0 3324
0.05750000 0.05747970 35447.65510290 0 490.64460812 0 12408.17318789 0 1415.60383770 0 3429.38355990 0 3639
0.05850000 0.05849280 34130.38515894 0 631.52065302 0 13465.32845311 0 -601.26694321 0 3746.87066121 0 3846
0.05950000 0.05951020 33946.06403103 0 1513.22373423 0 13094.70897422 0 -896.79917931 0 1002.53118270 0 3787
0.06050000 0.06049470 32243.67497237 0 99.14213860 0 15475.28554405 0 -1449.29352181 0 461.32678390 0 3930
0.06150000 0.06148310 32567.82970925 0 507.03798424 0 14590.91760552 0 19.29363282 0 237.98296189 0 4083
0.06250000 0.06249100 31341.73171772 0 653.25472833 0 13378.22079254 0 -274.65056362 0 -1292.99403855 0 4303
0.06350000 0.06350600 30730.55009929 0 -222.09377765 0 13891.52986927 0 1325.75003399 0 -108.31788161 0 4470
0.06450000 0.06451750 30419.35715806 0 476.09883711 0 13922.17682677 0 534.94648780 0 -3770.92687517 0 4479
0.06550000 0.06550280 31100.29081238 0 162.23334937 0 12824.59833444 0 952.24490788 0 -324.67870099 0 4636
0.06650000 0.06648880 31076.23459843 0 266.23528257 0 13209.05837479 0 612.54700080 0 -1650.35513834 0 4653
0.06750000 0.06749660 30080.81263111 0 268.10046299 0 12411.13902248 0 -902.06628187 0 -1332.29683925 0 5220
0.06850000 0.06852730 29439.42343808 0 1232.77661166 0 14535.77505117 0 -1626.02431007 0 -1727.56569901 0 5029
0.06950000 0.06949320 28134.67590687 0 503.13406714 0 14106.38810896 0 1179.96278669 0 -592.44083914 0 5040
0.07050000 0.07048030 28944.23890611 0 -204.51296923 0 14194.59422679 0 3163.85348689 0 -583.78499595 0 5475
0.07150000 0.07148790 28340.63664277 0 -153.59837686 0 12072.59449553 0 1245.82628389 0 528.82368704 0 5509
0.07250000 0.07249820 28244.52163268 0 347.20586244 0 11596.96250275 0 1174.56936155 0 2058.60776290 0 5916
0.07350000 0.07351270 28166.64101308 0 -368.77187379 0 10183.21505782 0 1538.59809690 0 4156.43044991 0 5721
0.07450000 0.07449140 28105.12740662 0 238.17299499 0 8836.84698109 0 1569.78329845 0 3574.51173284 0 6028
0.07550000 0.07549160 28040.75781130 0 176.47155235 0 9041.40169170 0 469.38946017 0 1882.66786386 0 6183
0.07650000 0.07648840 27092.34981462 0 753.73390910 0 9616.33422061 0 -1459.39932858 0 2738.81643542 0 6330
0.07750000 0.07749960 26008.39219230 0 870.78002224 0 10300.00303350 0 -1492.00154001 0 1018.63786147 0 6583
0.07850000 0.07848650 25737.73232389 0 279.98027824 0 9325.83621412 0 954.98885411 0 578.91553493 0 6549
0.07950000 0.07947320 25523.75285001 0 69.37581428 0 10738.91360013 0 341.66963786 0 -203.97362672 0 6828
0.08050000 0.08048110 25056.46913240 0 546.74721412 0 9400.44343110 0 -218.38758286 0 -978.18277911 0 7147
0.08150000 0.08149960 24335.44178816 0 280.97218514 0 8944.79237585 0 515.31485968 0 -875.81535031 0 7386
0.08250000 0.08250610 24080.92924145 0 406.30066601 0 8988.76361989 0 833.93996272 0 -715.20222540 0 7227
0.08350000 0.08350160 23186.23580470 0 574.51401669 0 8952.65732982 0 441.46008593 0 -440.47696668 0 7798
0.08450000 0.08449610 21890.27593155 0 744.01146391 0 8548.24930566 0 29.22368643 0 246.90573020 0 7371
0.08550000 0.08548940 21563.15536008 0 360.80696021 0 8109.36070818 0 1447.51402105 0 987.64708685 0 8256
0.08650000 0.08650700 20794.89435374 0 -146.45071548 0 7569.31518179 0 728.03550155 0 628.67674718 0 8037
0.08750000 0.08749060 20789.62175890 0 633.35837201 0 8028.34948539 0 -461.69696400 0 782.35970525 0 8155
0.08850000 0.08849210 20211.61354967 0 429.08266954 0 7599.19321921 0 -210.63357308 0 136.25153984 0 8718
0.08950000 0.08949900 19922.60944506 0 431.82991115 0 7644.97691773 0 213.49944806 0 837.92077182 0 8571
0.09050000 0.09049190 20209.63632661 0 -357.44348408 0 7896.44673783 0 206.73075444 0 35.14404152 0 8932
0.09150000 0.09150830 19983.46397716 0 -232.02932355 0 7899.78604790 0 -164.27867678 0 -914.26794509 0 9285
0.09250000 0.09250820 19617.23832730 0 1006.50759797 0 8018.46337007 0 -555.61945339 0 -316.16455878 0 9204
0.09350000 0.09350330 19558.25117253 0 285.50332133 0 8168.56755439 0 -341.11931077 0 -607.49519587 0 9349
0.09450000 0.09448040 18477.14953908 0 -121.15544174 0 8461.93253432 0 768.88602852 0 -330.57851492 0 9564
0.09550000 0.09549270 19184.99539622 0 457.01533916 0 8900.62340950 0 197.58060548 0 -1592.43348712 0 10155
0.09650000 0.09649430 18392.01910157 0 270.64009617 0 7749.14361952 0 861.03121407 0 442.60467839 0 9913
0.09750000 0.09749140 18396.85231351 0 -39.25358981 0 7575.43358872 0 416.83706803 0 -94.11647695 0 10476
0.09850000 0.09850240 17561.80510587 0 398.45109044 0 6918.12775002 0 382.38834996 0 350.44081906 0 10575
0.09950000 0.09950330 17034.98500487 0 441.69295887 0 7045.84537542 0 498.50187289 0 716.26113820 0 10882
0.10050000 0.10051200 16874.61024519 0 230.67712267 0 6597.12558548 0 383.48900413 0 860.58853580 0 10875
0.10150000 0.10150300 16243.32685894 0 237.77205810 0 6770.51706367 0 545.80473779 0 1227.48204767 0 11118
0.10250000 0.10250800 16327.46868491 0 -127.16070757 0 5799.95318410 0 1350.15775426 0 1311.87651882 0 11575
0.10350000 0.10349800 16448.18913758 0 -85.19173142 0 5474.86475856 0 157.67035792 0 1549.27510145 0 11364
0.10450000 0.10450100 16174.12405167 0 269.32304592 0 4593.46265463 0 402.28580473 0 1985.98875356 0 12093
0.10550000 0.10551000 16264.41723829 0 110.41143130 0 5401.83932004 0 -323.54838847 0 856.47810874 0 12067
0.10650000 0.10649700 15574.25654301 0 319.68181892 0 5415.19656030 0 -771.49706142 0 1503.17285032 0 12054
0.10750000 0.10749900 15190.89495992 0 371.63225649 0 5969.25840130 0 -817.39170412 0 148.89478288 0 12807
0.10850000 0.10850100 15173.53933524 0 217.06284341 0 6463.89370464 0 -220.04845024 0 134.61593698 0 12736
0.10950000 0.10950300 15026.89529128 0 364.95803019 0 7046.71315666 0 453.70678590 0 11.67758927 0 12933
0.11050000 0.11050200 15050.29243088 0 -58.48428103 0 6403.48954001 0 377.43430772 0 918.12243161 0 13428
0.11150000 0.11150900 15249.33288605 0 -337.54383239 0 6291.84234430 0 197.21701613 0 -112.55232450 0 13453
0.11250000 0.11250000 14680.99110069 0 41.58144043 0 5355.39654716 0 814.97839353 0 682.22324314 0 13668
0.11350000 0.11349100 14875.74757256 0 204.38115436 0 5867.81587351 0 435.96670118 0 1016.26189842 0 13791
0.11450000 0.11448600 14718.66818465 0 97.00849522 0 5261.46746702 0 37.52780361 0 1008.90882554 0 14205
0.11550000 0.11549300 14672.31328835 0 409.17532866 0 6114.65020399 0 -548.58493311 0 198.69224422 0 14776
0.11650000 0.11649800 14027.62872355 0 74.95894299 0 5602.97782857 0 200.61783980 0 1482.77449904 0 14553
0.11750000 0.11747300 14115.61514993 0 43.81185789 0 5721.99567249 0 494.34421216 0 634.05808928 0 14568
0.11850000 0.11849100 13954.91085306 0 260.42114830 0 5606.32812321 0 169.69407107 0 489.22759826 0 16015
0.11950000 0.11950300 13950.40717831 0 246.01488136 0 5779.69763226 0 369.38371448 0 1542.39875901 0 15270
0.12050000 0.12050700 13677.00116676 0 -158.70730157 0 5068.55640335 0 26.84673477 0 1635.88845625 0 15999
0.12150000 0.12150000 13491.25204441 0 -142.23813190 0 5470.59175982 0 387.39841351 0 1694.53508926 0 15670
0.12250000 0.12250700 13693.14848845 0 298.36296045 0 5279.48216605 0 366.87593656 0 936.88847541 0 16887
0.12350000 0.12352200 13722.36745152 0 241.84294069 0 4988.69856068 0 -52.18298097 0 1894.60809426 0 16407
0.12450000 0.12449800 13515.63779554 0 -118.09404136 0 4685.08497453 0 14.45668613 0 1106.32221210 0 16306
0.12550000 0.12549900 13121.51133132 0 82.12121385 0 5108.74895442 0 258.30551962 0 1517.92513130 0 17523
0.12650000 0.12650100 13168.41545624 0 197.05883828 0 4697.83806330 0 1.24339869 0 581.22998437 0 17154
0.12750000 0.12750600 12940.26588373 0 214.05746435 0 4645.19999149 0 74.86722181 0 992.62749206 0 18007
0.12850000 0.12850300 12982.22695099 0 -20.89496381 0 4470.51233373 0 356.97773821 0 797.04717725 0 17496
0.12950000 0.12949900 12683.44657677 0 -136.18892778 0 4064.73123800 0 260.53648631 0 631.58546200 0 18405
0.13050000 0.13049000 12697.06744677 0 417.68837241 0 3905.91628762 0 -9.23481805 0 190.93603752 0 18100
0.13150000 0.13148800 12416.74115450 0 210.97409483 0 3990.93687940 0 -320.20468458 0 200.02137751 0 19059
0.13250000 0.13249300 12178.26608376 0 -14.68176002 0 3891.44960553 0 207.34369359 0 -166.02742074 0 18957
0.13350000 0.13349100 12057.65547681 0 149.75817029 0 3772.68440678 0 214.01352606 0 -526.60260646 0 19468
0.13450000 0.13450700 11664.84716131 0 74.96718142 0 3237.76867579 0 251.86746163 0 95.10618694 0 19953
0.13550000 0.13551000 11728.55768228 0 205.68062930 0 3605.20262863 0 192.46948386 0 -43.83800118 0 19956
0.13650000 0.13649900 11355.74128887 0 231.05828733 0 3455.26321290 0 -359.41301795 0 -234.47998169 0 19723
0.13750000 0.13749600 11290.38308201 0 272.22846537 0 3762.38087770 0 154.60346525 0 28.22332141 0 20946
0.13850000 0.13851100 10879.41726802 0 139.35687851 0 3875.00570038 0 -95.05444960 0 -233.73962150 0 20955
0.13950000 0.13949800 10901.06786058 0 34.18420956 0 3752.74740754 0 362.33820963 0 144.07365398 0 20506
0.14050000 0.14048300 10610.97628328 0 71.87897868 0 3708.77616350 0 -87.00264806 0 -72.72676799 0 21447
0.14150000 0.14148400 10611.52551191 0 167.03690296 0 3904.37844746 0 -448.07060171 0 -491.92321237 0 21771
0.14250000 0.14249400 10434.38829446 0 223.02197403 0 3629.77511750 0 172.14033538 0 -177.43929319 0 22470
0.14350000 0.14350900 10336.02144700 0 -91.55103002 0 3697.29728515 0 480.29494383 0 -151.15980175 0 22519
0.14450000 0.14449900 10186.16990784 0 79.98119942 0 3422.39737173 0 241.39147476 0 150.12944884 0 22218
0.14550000 0.14550500 10339.47060279 0 243.42362069 0 3468.99392862 0 -82.54170329 0 -353.26385422 0 23559
0.14650000 0.14650700 10065.80096149 0 -119.03981306 0 3167.52233413 0 265.04455490 0 253.86555538 0 23044
0.14750000 0.14750500 10341.86523961 0 -141.23194505 0 2934.80317942 0 385.62220813 0 -496.65646469 0 23649
0.14850000 0.14849900 10039.77850905 0 38.36329020 0 2915.48131625 0 153.25346128 0 459.63406126 0 23640
0.14950000 0.14949500 10256.64692552 0 -45.47788802 0 2550.35412365 0 94.58793481 0 122.23302831 0 24457
0.15050000 0.15050000 10195.34202595 0 30.12200478 0 2462.84003389 0 279.23881959 0 331.22770316 0 24591
0.15150000 0.15149900 10272.23403402 0 322.20607370 0 2631.98048250 0 -158.10315008 0 -249.22896730 0 25020
0.15250000 0.15250500 10046.44614461 0 85.57674069 0 2542.31341652 0 169.50293950 0 852.47862586 0 25297
0.15350000 0.15350100 9982.55987047 0 -3.75981049 0 2682.97086842 0 136.25483521 0 577.50511581 0 25452
0.15450000 0.15450400 9644.68540244 0 186.59493444 0 2811.31461446 0 -33.26765683 0 642.73590162 0 26061
0.15550000 0.15549900 9625.09990953 0 144.28785314 0 2861.90955577 0 -295.11811771 0 311.69603465 0 26128
0.15650000 0.15649500 9329.53801508 0 112.25903641 0 2849.55191162 0 115.56319584 0 895.26243761 0 26331
0.15750000 0.15749700 9315.93911423 0 174.67887010 0 2997.21752083 0 64.54490911 0 704.86025031 0 27345
0.15850000 0.15849900 9211.31106039 0 119.14746188 0 2825.22108335 0 -119.77028714 0 151.32676725 0 26980
0.15950000 0.15949700 9059.27359129 0 146.58692418 0 3053.05210326 0 -13.35647134 0 66.78103855 0 27777
0.16050000 0.16050000 8861.55128483 0 85.78248173 0 2891.37017943 0 -54.40647815 0 330.15890425 0 28224
0.16150000 0.16150500 8705.85595306 0 30.77855268 0 2736.59755176 0 410.56707400 0 291.39654452 0 28075
0.16250000 0.16249700 8836.95682682 0 0.51094959 0 2423.06489657 0 215.98415838 0 242.66238981 0 28590
0.16350000 0.16349900 8686.86362707 0 73.19251387 0 2461.55483890 0 55.96716622 0 -163.76459879 0 29163
0.16450000 0.16449100 8562.40841972 0 117.88862986 0 2309.06700232 0 236.11778147 0 479.90389305 0 28996
0.16550000 0.16550500 8503.16861979 0 34.16619487 0 2174.33023504 0 -93.41214616 0 20.31904267 0 30777
0.16650000 0.16650700 8325.69088059 0 192.37281962 0 2411.62995652 0 -120.66223443 0 231.07586265 0 29211
0.16750000 0.16749900 8149.14683007 0 136.03184839 0 2465.80586849 0 -222.13881440 0 -31.42916892 0 30922
0.16850000 0.16850800 8016.71682303 0 21.11432572 0 2833.99775684 0 51.58651868 0 291.24166205 0 30867
0.16950000 0.16949900 8066.94927344 0 55.36301473 0 2272.81791281 0 477.13907613 0 114.65806706 0 30852
0.17050000 0.17049200 8273.50317626 0 -130.05953628 0 2258.02169354 0 142.31612236 0 315.01227712 0 31257
0.17150000 0.17149500 8227.42289428 0 12.70201050 0 2145.61656231 0 179.60325399 0 555.22620570 0 32608
0.17250000 0.17250900 8234.89240364 0 60.52730168 0 2130.53474416 0 51.27411743 0 652.81973925 0 32361
0.17350000 0.17350400 8188.81212166 0 71.27515673 0 2091.86904867 0 -169.09101803 0 763.74195318 0 32508
0.17450000 0.17449800 8099.35376256 0 183.95314473 0 2323.32497753 0 -266.06831707 0 263.77803368 0 32791
0.17550000 0.17549800 7895.37024972 0 208.70578059 0 2816.23570298 0 -275.66663659 0 633.46602082 0 33633
0.17650000 0.17650100 7743.69527152 0 51.47370712 0 2825.10025305 0 155.36799151 0 671.15958163 0 33984
0.17750000 0.17750300 7750.95607399 0 2.00440988 0 2691.22028243 0 192.58262495 0 455.22155846 0 34069
0.17850000 0.17849800 7709.47832793 0 -22.79793116 0 2332.35429620 0 323.20017752 0 605.78819329 0 34536
