### header ###
fiducial parameters:
Omega_m = 0.31
Omega_nu = 0
Omega_de = 0.69
Omega_k = 0
H_0 = 100
w_de = -1
zeff = 0
beta = 0
fgrowth = 0
b_1 = 2
gamma = 0.55
Lx = 3500 Ly = 3500 Lz = 3500
nx = 700 ny = 700 nz = 700
xoffset = -983.599254 yoffset = -42.9823471 zoffset = 800.977702
bins = 400 dk = 0.001
kx_ny = 0.628318531 ky_ny = 0.628318531 kz_ny = 0.628318531
############################
A(data) = 9.00703059 (not used)
A(ran) = 8.99278762 (used)
Ngal = 499605
weighted Ngal = 0
Nran = 25229228
weighted Nran = 0
SN(data) = 6799.99826
SN(ran) = 133.491737
SN(data+ran) = 6933.49
############################
13 columns: k_central k_mean P_0(k) sigma^{lin}_{P_0(k)} P^img_1(k) sigma^{lin}_{P_1(k)} P_2(k) sigma^{lin}_{P_2(k)} P^img_3(k) sigma^{lin}_{P_3(k)} P_4(k) sigma^{lin}_{P_4(k)} N_modes
### header ###
0.00050000 0 0 0 0 0 0 0 0 0 0 0 0
0.00150000 0.00179520 62978.72874642 0 -1415.50497655 0 39383.53730452 0 -35469.07501943 0 79429.11479852 0 3
0.00250000 0.00253879 66790.59512360 0 -1944.22540861 0 19938.20753812 0 -9637.34770796 0 -76112.21326185 0 6
0.00350000 0.00331552 74101.70694229 0 -6562.85371902 0 6604.47426453 0 21018.97963440 0 26538.72735653 0 7
0.00450000 0.00420575 67107.93942547 0 15661.25435785 0 46101.92158672 0 -21445.29089628 0 15317.43723605 0 24
0.00550000 0.00557378 52734.84589424 0 2248.53102283 0 31657.75787088 0 38683.82003109 0 21110.81066118 0 45
0.00650000 0.00659388 64505.36464378 0 -17429.88038917 0 31854.16202864 0 57734.03472173 0 13676.23224668 0 40
0.00750000 0.00754703 58179.12960273 0 -4095.70773268 0 13166.87761608 0 -13151.05983156 0 3673.61454667 0 57
0.00850000 0.00846663 72423.92332622 0 15845.35579431 0 11391.88053266 0 -6374.19368494 0 18686.84502966 0 75
0.00950000 0.00948925 75461.26749068 0 -10494.03452358 0 14865.53192006 0 5616.08242366 0 -3778.47327653 0 112
0.01050000 0.01054430 81212.57000282 0 -16803.86959776 0 9874.04327794 0 -1079.80215852 0 -24375.75516953 0 105
0.01150000 0.01145670 87309.55701410 0 2694.29596275 0 9189.80326728 0 -21405.30705209 0 -6386.83692798 0 144
0.01250000 0.01249090 83730.45372992 0 12621.93297032 0 22885.03882452 0 -11986.47544649 0 -5396.64361721 0 169
0.01350000 0.01339930 79835.76367548 0 2731.34692607 0 37559.54902739 0 4933.19351543 0 -20749.96745188 0 180
0.01450000 0.01448870 83541.95846442 0 -256.94562954 0 40366.32701337 0 9931.43766968 0 -13325.49484415 0 267
0.01550000 0.01550050 79907.27324298 0 1868.80533326 0 35406.57280144 0 3359.00540337 0 16074.82351554 0 238
0.01650000 0.01653350 71913.14070118 0 4812.27534045 0 37852.50757813 0 13390.30382238 0 21773.18038784 0 315
0.01750000 0.01747870 76560.38382317 0 906.74790670 0 41679.09328257 0 11527.43015831 0 31210.79561255 0 297
0.01850000 0.01844180 72437.10481331 0 643.62675046 0 41215.87385681 0 9835.35561331 0 35667.56624598 0 388
0.01950000 0.01947590 76669.46062890 0 -1932.94425257 0 33502.28729874 0 8673.62721711 0 25751.35319389 0 399
0.02050000 0.02045430 78331.09692328 0 264.13173692 0 39940.89451730 0 8297.75711252 0 43796.04011044 0 462
0.02150000 0.02154770 69686.23830177 0 972.98378091 0 29304.64273251 0 8089.62143125 0 37836.57994789 0 571
0.02250000 0.02255340 75072.41362130 0 1730.53153361 0 35454.68522935 0 14256.98659905 0 43150.91616274 0 510
0.02350000 0.02348930 74143.44831810 0 1372.66514348 0 30733.18639671 0 -936.37000358 0 26625.06609701 0 555
0.02450000 0.02439640 70619.15805110 0 5788.43036746 0 39852.35886229 0 -3766.69781472 0 25285.71716217 0 592
0.02550000 0.02547300 64810.18653291 0 2903.12367210 0 35202.14990570 0 -5172.96476573 0 19579.34155189 0 837
0.02650000 0.02652900 65403.46329803 0 121.39600388 0 32367.03172246 0 6246.46507496 0 17183.60627190 0 723
0.02750000 0.02749970 64865.32908727 0 -6022.57751661 0 25830.11257930 0 7368.91263961 0 -502.59802000 0 826
0.02850000 0.02848090 69991.17003663 0 -819.89728513 0 19837.03962465 0 7967.17640068 0 -1615.05072206 0 831
0.02950000 0.02946900 66243.56340905 0 4586.35563617 0 18494.61500948 0 -4501.00550721 0 -6496.91332982 0 996
0.03050000 0.03053250 58063.57189917 0 8033.68798766 0 25980.38153222 0 -9903.10845699 0 -3514.12953736 0 1041
0.03150000 0.03150510 54916.38200889 0 2645.37067647 0 33476.80309035 0 -1083.11949944 0 904.13577534 0 1036
0.03250000 0.03246190 55665.42001321 0 156.65318650 0 34191.45938250 0 6461.97140443 0 -4455.66119160 0 1059
0.03350000 0.03345080 54873.43233010 0 -1465.61659667 0 30687.60042050 0 6728.00676778 0 -1975.44356388 0 1302
0.03450000 0.03451200 53368.98526936 0 172.42154044 0 29077.04238862 0 509.13274223 0 -3520.78618834 0 1339
0.03550000 0.03553350 52512.07876229 0 1563.95049041 0 25563.51700275 0 3007.97141738 0 6665.54848808 0 1365
0.03650000 0.03647120 49858.09618091 0 2940.28448114 0 31253.30590844 0 -142.02173582 0 4543.76844827 0 1308
0.03750000 0.03744890 49964.31699777 0 1400.89549502 0 27641.57844369 0 3397.39648454 0 8287.11306169 0 1579
0.03850000 0.03847530 47346.91304309 0 563.30316192 0 25567.36160316 0 4708.07568494 0 8337.25763552 0 1662
0.03950000 0.03950240 45502.60330668 0 -1247.45200063 0 20026.96288458 0 7263.76831086 0 5440.73569155 0 1683
0.04050000 0.04050350 47683.48034698 0 760.52457187 0 18189.02420027 0 2700.74390686 0 5284.05174825 0 1822
0.04150000 0.04152450 46098.40652349 0 1040.07755024 0 16368.77067781 0 -4373.11212865 0 2077.47925859 0 1887
0.04250000 0.04250150 43457.38573776 0 2571.24678070 0 17357.16251868 0 -229.87744578 0 3930.52173020 0 1920
0.04350000 0.04349210 41882.52756677 0 124.47717649 0 17620.79226064 0 -272.28778206 0 -3511.59210109 0 2005
0.04450000 0.04448520 39268.41898387 0 1267.82838277 0 16571.54588767 0 962.29579179 0 -2076.31489390 0 2151
0.04550000 0.04548030 40179.58927949 0 756.50641522 0 16569.34897315 0 2167.31109316 0 -4835.89217150 0 2274
0.04650000 0.04648670 39577.96423921 0 -435.05388320 0 16017.04466376 0 1365.09677297 0 4081.19711230 0 2311
0.04750000 0.04749250 40087.42871553 0 -813.35157833 0 14680.66156351 0 1470.53768518 0 -3286.79282322 0 2568
0.04850000 0.04851840 39750.53187446 0 698.27060522 0 12328.09565377 0 1037.51924328 0 -2296.05028382 0 2493
0.04950000 0.04949480 39159.89140676 0 1272.45288782 0 13446.43498827 0 -1352.44254536 0 -888.93642226 0 2644
0.05050000 0.05050630 37320.08534511 0 1160.37729378 0 16430.06459282 0 -656.39082380 0 -807.82304295 0 2829
0.05150000 0.05149060 36231.40435658 0 1104.15825130 0 17640.01526265 0 969.02603941 0 -1697.68766159 0 2784
0.05250000 0.05249300 36501.40515063 0 156.52027317 0 15806.69009883 0 971.82271159 0 -2147.42901679 0 3055
0.05350000 0.05348950 34598.21810518 0 220.14181910 0 13609.22635393 0 4865.91300837 0 2007.09011749 0 3009
0.05450000 0.05448610 36459.99331199 0 123.13486172 0 12606.33487725 0 1398.42396619 0 2562.05269345 0 3336
0.05550000 0.05550870 33897.40237449 0 -667.47206062 0 8948.01085562 0 3243.83215985 0 5662.54716568 0 3349
0.05650000 0.05647670 35480.71866637 0 380.30897037 0 11771.06797817 0 1586.82037053 0 4267.36364841 0 3324
0.05750000 0.05747970 33144.40992404 0 939.63352010 0 8973.34127999 0 -1785.10289019 0 4649.93434227 0 3639
0.05850000 0.05849280 33645.08674230 0 1749.08447670 0 9351.83669742 0 783.53175914 0 2661.60587475 0 3846
0.05950000 0.05951020 32319.13898601 0 159.11043538 0 12419.37745192 0 -2678.41227080 0 4002.26197373 0 3787
0.06050000 0.06049470 31224.85586545 0 -4.01052237 0 10290.30365591 0 1008.49690406 0 2599.67485454 0 3930
0.06150000 0.06148310 31156.31213254 0 -232.98827674 0 11800.39678696 0 620.76455955 0 2108.14818524 0 4083
0.06250000 0.06249100 30497.12793194 0 807.69562191 0 10796.68146734 0 -207.16903888 0 28.14566048 0 4303
0.06350000 0.06350600 29570.90877188 0 1630.20943222 0 10972.92893441 0 -1269.02570118 0 -1041.65493486 0 4470
0.06450000 0.06451750 29869.13991746 0 -69.55277574 0 12114.00633416 0 467.41663094 0 666.93161965 0 4479
0.06550000 0.06550280 29085.39066378 0 -692.83873408 0 10569.70724409 0 2740.40919845 0 -1816.32104547 0 4636
0.06650000 0.06648880 29581.67365301 0 -715.82614912 0 8969.54061788 0 -278.18430062 0 -2297.09381821 0 4653
0.06750000 0.06749660 29810.92168278 0 1183.51080363 0 10230.49265821 0 -1364.45966776 0 -3571.72165140 0 5220
0.06850000 0.06852730 28820.44277312 0 1172.04290986 0 10583.16334550 0 -1259.22746243 0 -2359.54111334 0 5029
0.06950000 0.06949320 27643.77535821 0 -417.53678530 0 11599.92833735 0 229.37435236 0 -3359.10426452 0 5040
0.07050000 0.07048030 28047.45840057 0 67.01292287 0 9731.88093959 0 1453.56652054 0 -4328.20719594 0 5475
0.07150000 0.07148790 27743.18574007 0 503.98976535 0 11501.83610420 0 -328.90226915 0 -1528.53622841 0 5509
0.07250000 0.07249820 27577.86792272 0 283.69635914 0 11174.82537845 0 1653.01340490 0 -2955.25645357 0 5916
0.07350000 0.07351270 27008.53752583 0 393.75298875 0 11518.53265452 0 541.44825631 0 -207.89951296 0 5721
0.07450000 0.07449140 26821.58010049 0 159.75522979 0 10241.37836963 0 -621.02489392 0 -1811.10337349 0 6028
0.07550000 0.07549160 27029.07867656 0 435.08464000 0 10336.03243157 0 590.84478075 0 -0.99528246 0 6183
0.07650000 0.07648840 26094.84077851 0 -539.67534629 0 10958.46225232 0 643.10608172 0 -1000.64183621 0 6330
0.07750000 0.07749960 26044.53143609 0 715.77012780 0 9757.15644110 0 -240.40506014 0 -791.62848759 0 6583
0.07850000 0.07848650 24970.78946626 0 1092.23449777 0 9951.28679233 0 435.66792081 0 -941.60634933 0 6549
0.07950000 0.07947320 24518.66445882 0 678.84988090 0 10875.93515851 0 749.53999929 0 609.73714713 0 6828
0.08050000 0.08048110 23513.02683899 0 251.99817805 0 10006.09980951 0 1208.17116908 0 673.71898705 0 7147
0.08150000 0.08149960 23461.28950214 0 -38.47478361 0 9605.17389487 0 301.57045565 0 1835.26943317 0 7386
0.08250000 0.08250610 22914.58732476 0 91.99766275 0 8916.06771855 0 1151.65554315 0 1213.43277934 0 7227
0.08350000 0.08350160 22472.34843264 0 934.30380548 0 9607.38179396 0 -835.24383148 0 1915.12727584 0 7798
0.08450000 0.08449610 22247.60407762 0 354.63802425 0 9447.87481550 0 463.98285355 0 2122.83455878 0 7371
0.08550000 0.08548940 21127.50721150 0 -39.61300503 0 9701.80517987 0 712.23089852 0 2976.37978664 0 8256
0.08650000 0.08650700 21936.08159922 0 -20.43701698 0 8672.50679070 0 867.46048441 0 1384.84703448 0 8037
0.08750000 0.08749060 21083.01969255 0 298.51784293 0 8281.52191424 0 868.66219665 0 1953.01306667 0 8155
0.08850000 0.08849210 21339.07007942 0 -19.25309975 0 7108.06199452 0 1430.42202612 0 3259.89160497 0 8718
0.08950000 0.08949900 20625.62209026 0 40.75616949 0 6405.38987107 0 377.84842611 0 1727.04942410 0 8571
0.09050000 0.09049190 20184.70134685 0 617.21654260 0 6781.94101916 0 -576.47805827 0 2240.31456254 0 8932
0.09150000 0.09150830 19476.63579825 0 704.25829574 0 6790.26732517 0 -945.78707766 0 729.87431900 0 9285
0.09250000 0.09250820 18760.88104885 0 972.88931359 0 7462.11673797 0 -856.79556289 0 -479.17232052 0 9204
0.09350000 0.09350330 18096.42425341 0 574.57443184 0 7751.53825634 0 -304.33856794 0 -1117.80109045 0 9349
0.09450000 0.09448040 17791.82205573 0 -85.69010148 0 8180.87027568 0 59.76024898 0 -488.65749894 0 9564
0.09550000 0.09549270 17060.68890471 0 -324.97638290 0 7442.36647646 0 1568.54204175 0 -95.04599148 0 10155
0.09650000 0.09649430 17803.02631976 0 23.20194374 0 6304.77118622 0 950.14905143 0 -366.95063165 0 9913
0.09750000 0.09749140 17272.91084698 0 85.79050047 0 5781.75174734 0 534.40494837 0 458.86733810 0 10476
0.09850000 0.09850240 16976.43723301 0 361.92958353 0 6652.85032218 0 572.46978773 0 1594.02625014 0 10575
0.09950000 0.09950330 17077.05591786 0 287.57830709 0 5983.48342279 0 -442.50581724 0 2421.64788671 0 10882
0.10050000 0.10051200 16604.60945114 0 147.75568271 0 6294.00630509 0 341.85198176 0 2065.78068879 0 10875
0.10150000 0.10150300 16524.86145420 0 277.06167730 0 6190.07027933 0 84.09151663 0 1914.92955353 0 11118
0.10250000 0.10250800 16341.74862926 0 131.91592904 0 6721.92131457 0 -18.12696137 0 1060.85486927 0 11575
0.10350000 0.10349800 16215.53589030 0 155.59756907 0 6467.25498385 0 216.85523499 0 1030.98012722 0 11364
0.10450000 0.10450100 15955.31136585 0 -29.34748257 0 6497.24286699 0 304.95590092 0 1241.69608460 0 12093
0.10550000 0.10551000 16100.19787820 0 -42.04795523 0 5382.39662657 0 338.70819709 0 814.16004287 0 12067
0.10650000 0.10649700 15665.53834116 0 138.98669841 0 5619.58650232 0 502.19708310 0 783.98322507 0 12054
0.10750000 0.10749900 15495.16762042 0 344.04120708 0 4823.61141935 0 -90.66084026 0 994.55418609 0 12807
0.10850000 0.10850100 15011.18735249 0 358.32884063 0 5763.61621800 0 -329.23729861 0 403.82803872 0 12736
0.10950000 0.10950300 14695.60058222 0 341.65645637 0 5377.25584660 0 311.56421978 0 1168.18732488 0 12933
0.11050000 0.11050200 14567.41062020 0 -276.77717687 0 5307.60267186 0 301.95711260 0 437.61987935 0 13428
0.11150000 0.11150900 14738.11087811 0 285.68456678 0 6074.97392782 0 276.92107478 0 431.43776191 0 13453
0.11250000 0.11250000 15078.41293668 0 -51.95779723 0 5218.29809678 0 -561.90812120 0 10.92622253 0 13668
0.11350000 0.11349100 14819.28686949 0 -211.71335656 0 5536.22458100 0 518.09285809 0 738.00290271 0 13791
0.11450000 0.11448600 14906.83391296 0 -88.16250908 0 4959.21596787 0 -118.25441612 0 -220.51858994 0 14205
0.11550000 0.11549300 14812.47643449 0 458.44223514 0 4975.04473696 0 309.45628030 0 340.68871552 0 14776
0.11650000 0.11649800 14358.48404970 0 348.02201618 0 5453.07136656 0 243.34892560 0 992.64946120 0 14553
0.11750000 0.11747300 14325.75002341 0 172.40835895 0 5242.00280441 0 454.23514384 0 1235.31404793 0 14568
0.11850000 0.11849100 13909.54456830 0 29.94965683 0 5109.86938082 0 184.72096636 0 642.63264664 0 16015
0.11950000 0.11950300 13883.62097701 0 14.16834110 0 5024.66205131 0 487.43930984 0 2079.85192627 0 15270
0.12050000 0.12050700 13723.57575450 0 -46.36489225 0 3821.19227930 0 487.19105850 0 1637.03085180 0 15999
0.12150000 0.12150000 13715.33732507 0 68.66137768 0 4388.47954569 0 -89.08554271 0 1296.94848468 0 15670
0.12250000 0.12250700 13545.84537014 0 552.18567601 0 4095.09259662 0 210.93345191 0 1105.69609147 0 16887
0.12350000 0.12352200 13448.96143997 0 88.33430779 0 4441.55700040 0 -610.99048686 0 1519.90235436 0 16407
0.12450000 0.12449800 13126.01500608 0 -155.51298786 0 4453.22261648 0 221.39625729 0 726.90518903 0 16306
0.12550000 0.12549900 12862.93449275 0 153.24577208 0 4122.37827491 0 322.69708409 0 1083.15794544 0 17523
0.12650000 0.12650100 13224.65646786 0 94.93526699 0 3995.29775471 0 356.31976231 0 1342.11704713 0 17154
0.12750000 0.12750600 12983.98448260 0 -49.24493734 0 3804.48474440 0 391.38801027 0 899.18502848 0 18007
0.12850000 0.12850300 12943.89079268 0 83.89115803 0 3796.98228133 0 26.42141212 0 1642.84169069 0 17496
0.12950000 0.12949900 12898.19497074 0 140.21367517 0 3745.40971306 0 281.16990745 0 1819.60543267 0 18405
0.13050000 0.13049000 12621.27389596 0 27.73593592 0 3788.43628386 0 -113.02466112 0 1268.01512050 0 18100
0.13150000 0.13148800 12585.57403507 0 370.59311592 0 3856.14518925 0 -343.76439585 0 1230.70052744 0 19059
0.13250000 0.13249300 12018.44055270 0 356.36150368 0 4092.23660774 0 -221.02388028 0 1311.72273480 0 18957
0.13350000 0.13349100 11949.78697407 0 111.96245295 0 4405.54957148 0 -135.34201723 0 1428.62055621 0 19468
0.13450000 0.13450700 11684.18000905 0 30.54469113 0 4559.02601959 0 365.28207508 0 788.69780363 0 19953
0.13550000 0.13551000 11647.27184518 0 23.52543941 0 3790.34759949 0 369.53969541 0 604.48212761 0 19956
0.13650000 0.13649900 11814.12750269 0 -33.05752195 0 3730.41577149 0 352.06763426 0 1185.40015012 0 19723
0.13750000 0.13749600 11443.06864089 0 218.10308243 0 3253.03723167 0 44.04538991 0 890.76535360 0 20946
0.13850000 0.13851100 11461.74241428 0 156.22259125 0 3839.55848466 0 -438.45580533 0 773.47208757 0 20955
0.13950000 0.13949800 11268.19424539 0 138.99548607 0 3738.80798494 0 182.54931636 0 876.52055987 0 20506
0.14050000 0.14048300 11146.70487264 0 18.91334692 0 3689.64103807 0 364.40880156 0 259.08212890 0 21447
0.14150000 0.14148400 11014.45061876 0 41.10328199 0 3482.50495290 0 132.05323620 0 840.75698846 0 21771
0.14250000 0.14249400 10977.45457831 0 56.28308253 0 3146.48687764 0 196.90505426 0 1034.65007292 0 22470
0.14350000 0.14350900 10855.75649868 0 107.11913521 0 3338.62902123 0 344.12578829 0 1077.62831161 0 22519
0.14450000 0.14449900 10818.57372049 0 133.17366260 0 3248.02826658 0 -254.57625723 0 420.71901598 0 22218
0.14550000 0.14550500 10363.36204815 0 393.12137583 0 3301.98448710 0 -411.29315425 0 323.91856856 0 23559
0.14650000 0.14650700 10176.95385145 0 261.33506474 0 3777.52860329 0 -315.12981204 0 557.51099679 0 23044
0.14750000 0.14750500 9943.93811328 0 -98.70736922 0 3253.37775342 0 575.71353202 0 403.05142944 0 23649
0.14850000 0.14849900 9933.44784646 0 -61.63114138 0 3295.83312645 0 459.87242649 0 291.33942475 0 23640
0.14950000 0.14949500 9816.09965758 0 122.40987993 0 2639.93331305 0 219.58709819 0 150.78742474 0 24457
0.15050000 0.15050000 9931.86606801 0 -14.07134732 0 2526.02329538 0 167.21704995 0 267.85770394 0 24591
0.15150000 0.15149900 9710.73563738 0 154.78361224 0 2469.61751517 0 -20.54916947 0 117.46352690 0 25020
0.15250000 0.15250500 9580.75519002 0 336.55522086 0 2729.74317847 0 -271.34310882 0 94.26696560 0 25297
0.15350000 0.15350100 9353.13287699 0 61.86544232 0 2768.79333400 0 -20.54971869 0 406.02165787 0 25452
0.15450000 0.15450400 9315.45579304 0 -51.25401566 0 2747.29652546 0 364.53402568 0 259.37541699 0 26061
0.15550000 0.15549900 9189.85819014 0 -78.56847354 0 2441.58488595 0 225.97572560 0 983.54105362 0 26128
0.15650000 0.15649500 9450.77474267 0 90.02230706 0 2772.08870577 0 209.87014528 0 517.69961039 0 26331
0.15750000 0.15749700 9187.93588994 0 171.50323017 0 2558.10923189 0 -258.18359087 0 962.52317244 0 27345
0.15850000 0.15849900 9311.98466810 0 69.79959909 0 2735.80666254 0 -237.99834029 0 501.08654281 0 26980
0.15950000 0.15949700 8987.53334776 0 41.79915466 0 3087.99402864 0 -149.30340898 0 872.71879930 0 27777
0.16050000 0.16050000 9016.30194336 0 163.82062011 0 3015.05646670 0 200.05762659 0 396.76715547 0 28224
0.16150000 0.16150500 8981.36001797 0 93.51419284 0 2894.80835065 0 208.64646390 0 963.15917919 0 28075
0.16250000 0.16249700 8941.74964925 0 -68.76430313 0 2968.61369383 0 -37.69740541 0 384.62590739 0 28590
0.16350000 0.16349900 8776.69546164 0 166.57225554 0 2750.03168403 0 260.86162966 0 458.10061493 0 29163
0.16450000 0.16449100 8680.82211215 0 70.75020400 0 2909.28601731 0 -31.85811647 0 813.08575167 0 28996
0.16550000 0.16550500 8747.27877627 0 -8.48434106 0 2571.35662642 0 229.93017173 0 679.28267306 0 30777
0.16650000 0.16650700 8755.19865310 0 -25.41160036 0 2502.91175467 0 215.84465431 0 758.17826717 0 29211
0.16750000 0.16749900 8610.25721789 0 159.68383007 0 2346.77704000 0 -176.41223566 0 315.68563142 0 30922
0.16850000 0.16850800 8572.54718021 0 47.03692840 0 2351.57729821 0 -183.16774779 0 221.58299503 0 30867
0.16950000 0.16949900 8430.96702421 0 228.20559383 0 2652.80723211 0 -110.47294491 0 -46.49154438 0 30852
0.17050000 0.17049200 8231.37734041 0 31.70751798 0 2575.53076400 0 -64.81326221 0 117.86116843 0 31257
0.17150000 0.17149500 8218.25077618 0 -43.87985240 0 2450.35057487 0 310.30099394 0 -194.96957258 0 32608
0.17250000 0.17250900 8196.00701670 0 161.84449550 0 2143.61737010 0 479.84567481 0 -10.35761712 0 32361
0.17350000 0.17350400 8142.01784246 0 -29.32397558 0 2006.40907399 0 201.92939776 0 434.01913646 0 32508
0.17450000 0.17449800 7987.02552334 0 -32.17106695 0 1904.84571590 0 94.82047821 0 490.51608862 0 32791
0.17550000 0.17549800 8119.51045324 0 193.00992483 0 1809.60947162 0 91.44821443 0 306.07413041 0 33633
0.17650000 0.17650100 7928.09329144 0 101.66046171 0 1774.83231483 0 -225.28589444 0 483.91985278 0 33984
0.17750000 0.17750300 7819.81835951 0 17.96021555 0 1807.57732570 0 143.47719169 0 733.27184730 0 34069
0.17850000 0.17849800 7760.52363671 0 12.36214783 0 1828.43702903 0 206.36716509 0 456.43755064 0 34536
