### header ###
fiducial parameters:
Omega_m = 0.31
Omega_nu = 0
Omega_de = 0.69
Omega_k = 0
H_0 = 100
w_de = -1
zeff = 0
beta = 0
fgrowth = 0
b_1 = 2
gamma = 0.55
Lx = 3500 Ly = 3500 Lz = 3500
nx = 700 ny = 700 nz = 700
xoffset = -983.599254 yoffset = -42.9823471 zoffset = 800.977702
bins = 400 dk = 0.001
kx_ny = 0.628318531 ky_ny = 0.628318531 kz_ny = 0.628318531
############################
A(data) = 9.05131574 (not used)
A(ran) = 9.06058782 (used)
Ngal = 503237
weighted Ngal = 0
Nran = 25229228
weighted Nran = 0
SN(data) = 6708.64144
SN(ran) = 134.498184
SN(data+ran) = 6843.13963
############################
13 columns: k_central k_mean P_0(k) sigma^{lin}_{P_0(k)} P^img_1(k) sigma^{lin}_{P_1(k)} P_2(k) sigma^{lin}_{P_2(k)} P^img_3(k) sigma^{lin}_{P_3(k)} P_4(k) sigma^{lin}_{P_4(k)} N_modes
### header ###
0.00050000 0 0 0 0 0 0 0 0 0 0 0 0
0.00150000 0.00179520 95424.19031711 0 -59597.56746016 0 18239.11385124 0 -73327.07488385 0 15003.38830595 0 3
0.00250000 0.00253879 85458.65653414 0 -60.26169472 0 -5217.06782465 0 -19898.66307683 0 80091.81406235 0 6
0.00350000 0.00331552 69111.30577286 0 11050.48001683 0 4133.54958522 0 -16421.49662620 0 -14207.55602244 0 7
0.00450000 0.00420575 49107.41049070 0 -7786.37033599 0 13818.70215306 0 -14358.48404970 0 1943.51141139 0 24
0.00550000 0.00557378 50111.83980754 0 13562.98130336 0 30407.05443677 0 6398.30482175 0 -14699.77471981 0 45
0.00650000 0.00659388 36570.82764934 0 8393.49864714 0 24831.50508593 0 12161.23999626 0 36485.03813748 0 40
0.00750000 0.00754703 48581.35930978 0 -13833.64117177 0 18855.23852733 0 57983.93374796 0 15375.98500791 0 57
0.00850000 0.00846663 63626.04960864 0 -17901.44809009 0 -7753.44957197 0 13208.94852907 0 -8317.48540488 0 75
0.00950000 0.00948925 81074.60377120 0 -11197.89298087 0 -29490.50170058 0 -2973.50182862 0 -8595.37312204 0 112
0.01050000 0.01054430 79317.51154109 0 5017.48912542 0 -21745.71895638 0 -8231.30044840 0 10813.99315373 0 105
0.01150000 0.01145670 77238.57133434 0 4887.75033866 0 -14187.89363751 0 -35998.75110930 0 -19491.13543406 0 144
0.01250000 0.01249090 71426.63398156 0 3809.39484835 0 -6588.60155715 0 -21110.15158683 0 -27770.75701725 0 169
0.01350000 0.01339930 72054.73184176 0 8180.37596992 0 11967.80167310 0 -8989.80715429 0 -33823.58604675 0 180
0.01450000 0.01448870 64711.10568823 0 -479.67211857 0 9328.11002065 0 -3346.30723746 0 -17973.61673195 0 267
0.01550000 0.01550050 72682.39031905 0 -5503.39169355 0 4947.31967577 0 3491.99562361 0 -36516.23432361 0 238
0.01650000 0.01653350 74311.95166150 0 432.36705675 0 13418.53417392 0 -10849.24264714 0 -36349.92789473 0 315
0.01750000 0.01747870 68454.86771540 0 1844.78207303 0 8896.10875017 0 6324.38963285 0 -22414.45973513 0 297
0.01850000 0.01844180 77781.42891131 0 -4623.73613666 0 15586.88880147 0 5670.55491909 0 -8234.96929564 0 388
0.01950000 0.01947590 79091.00965446 0 -3365.92568409 0 8093.22437105 0 11074.31653933 0 -4406.08781554 0 399
0.02050000 0.02045430 83803.39129186 0 -1576.64865632 0 4665.07108329 0 -8178.19003997 0 -23899.13456523 0 462
0.02150000 0.02154770 82995.69566995 0 9556.56716120 0 15078.19324523 0 -7349.23927012 0 -15276.68447178 0 571
0.02250000 0.02255340 74797.90915250 0 5103.50931330 0 32997.21665145 0 -19468.72690600 0 -5978.06802851 0 510
0.02350000 0.02348930 67826.55016375 0 1366.28310681 0 32220.49752423 0 -1346.39004587 0 -5940.32503712 0 555
0.02450000 0.02439640 67462.08204550 0 -440.11996807 0 42124.40785502 0 8314.34381712 0 -11230.29746999 0 592
0.02550000 0.02547300 65553.40271376 0 552.16260840 0 34774.30080366 0 2828.78008487 0 -19306.70446042 0 837
0.02650000 0.02652900 69177.54274553 0 3452.70380749 0 32270.58717520 0 -3547.33590027 0 -14830.71082497 0 723
0.02750000 0.02749970 66517.51864923 0 -150.10308587 0 31306.14170255 0 2649.52284491 0 -19315.05273558 0 826
0.02850000 0.02848090 70341.79759342 0 -1417.78976765 0 32424.26134561 0 4186.14371874 0 -15240.65507371 0 831
0.02950000 0.02946900 63911.42880430 0 3842.48038096 0 28891.84249490 0 -4558.63057498 0 -18987.60262693 0 996
0.03050000 0.03053250 58203.62519959 0 3366.80444990 0 29640.00173342 0 -3600.43532413 0 -17624.30732386 0 1041
0.03150000 0.03150510 56302.74491438 0 2297.18169479 0 29935.70642731 0 10525.40646287 0 -13173.02897672 0 1036
0.03250000 0.03246190 53009.02082587 0 1136.65061700 0 24157.49171234 0 4784.49535639 0 -15513.73154808 0 1059
0.03350000 0.03345080 52244.60441993 0 481.33847823 0 24064.01299967 0 5933.38278725 0 -4162.80150201 0 1302
0.03450000 0.03451200 49526.25224323 0 587.86576466 0 15538.11729921 0 9381.50602797 0 -2884.23020726 0 1339
0.03550000 0.03553350 50918.10743501 0 -210.14146422 0 12051.61396189 0 3849.70822972 0 1733.27767676 0 1365
0.03650000 0.03647120 48909.35864706 0 1286.33738757 0 13062.74386801 0 -480.72004679 0 5209.69717644 0 1308
0.03750000 0.03744890 46947.73367548 0 1537.09321045 0 10189.83875508 0 -2589.75578550 0 3054.28237539 0 1579
0.03850000 0.03847530 46448.92423456 0 191.13705520 0 13954.36162444 0 2054.65331677 0 5077.31110769 0 1662
0.03950000 0.03950240 43557.12565680 0 1603.19836825 0 12698.49544121 0 -661.26907248 0 2196.78270140 0 1683
0.04050000 0.04050350 43475.72997397 0 1607.25167553 0 16826.71750873 0 -2247.87194847 0 4747.54325423 0 1822
0.04150000 0.04152450 44268.59642289 0 698.65176989 0 17012.24693963 0 -1941.77584892 0 -61.88653269 0 1887
0.04250000 0.04250150 42898.27099337 0 -737.13731839 0 18700.90528256 0 3603.09359070 0 3861.59353725 0 1920
0.04350000 0.04349210 43230.00508533 0 -597.67279107 0 17884.75153977 0 903.83040422 0 -2057.54225936 0 2005
0.04450000 0.04448520 43170.24901049 0 703.72554397 0 16770.91588002 0 1534.70955820 0 3151.45190444 0 2151
0.04550000 0.04548030 43691.57682520 0 1007.65658426 0 15941.69049585 0 -505.17500073 0 -1901.46246755 0 2274
0.04650000 0.04648670 41346.04104190 0 806.83333296 0 14551.48298996 0 1271.36541514 0 3768.56519206 0 2311
0.04750000 0.04749250 40599.41964355 0 1568.16856629 0 17859.37717710 0 -1236.88484180 0 -1812.27872276 0 2568
0.04850000 0.04851840 38558.04667503 0 876.27889928 0 13368.22483149 0 2120.52779854 0 1984.20925280 0 2493
0.04950000 0.04949480 38615.38614391 0 -1058.58216121 0 15708.26832850 0 4141.94179867 0 2947.66611391 0 2644
0.05050000 0.05050630 37747.16552708 0 267.91702063 0 12231.32156933 0 1627.01292160 0 975.79253612 0 2829
0.05150000 0.05149060 37516.92888577 0 2841.22560560 0 13344.93753762 0 -600.94948907 0 -731.32318412 0 2784
0.05250000 0.05249300 34456.18758171 0 1224.87870397 0 15788.45570834 0 -3482.03261628 0 4389.50111094 0 3055
0.05350000 0.05348950 33294.89856841 0 661.21744499 0 13902.62428758 0 3222.35732045 0 2612.84535706 0 3009
0.05450000 0.05448610 33885.75872756 0 -1054.21030132 0 14791.93528376 0 -52.22571096 0 456.94393944 0 3336
0.05550000 0.05550870 33213.06350268 0 604.17455958 0 13605.38175353 0 1018.38741322 0 117.14936812 0 3349
0.05650000 0.05647670 33096.40734186 0 1035.61232148 0 13439.40486182 0 -381.06470896 0 -545.82890385 0 3324
0.05750000 0.05747970 33111.67589775 0 -408.87215445 0 13316.81703181 0 1163.22229807 0 624.74317173 0 3639
0.05850000 0.05849280 33955.07138054 0 -587.00677109 0 12841.62442195 0 -166.52831725 0 -2848.22277833 0 3846
0.05950000 0.05951020 33445.27736704 0 1051.32685102 0 12913.57337235 0 -1052.38686227 0 -5303.17588911 0 3787
0.06050000 0.06049470 31706.08999024 0 623.95997171 0 14562.90694544 0 -1200.76756716 0 -1410.10056684 0 3930
0.06150000 0.06148310 30945.73787616 0 335.37218240 0 12682.56781097 0 1643.22615073 0 -3909.37642798 0 4083
0.06250000 0.06249100 32199.29729914 0 -22.24134287 0 14146.37195316 0 2238.33733947 0 -1579.04329314 0 4303
0.06350000 0.06350600 32089.56141906 0 6.49182747 0 10986.33011296 0 1444.49326359 0 -2818.59738608 0 4470
0.06450000 0.06451750 30240.63816216 0 599.66868790 0 11807.64660486 0 -762.87966423 0 -282.18817733 0 4479
0.06550000 0.06550280 30280.95154354 0 1210.73057449 0 11819.07056035 0 -1113.39627684 0 -1356.92425097 0 4636
0.06650000 0.06648880 28430.92982939 0 221.78950499 0 12002.07353955 0 2661.06763069 0 2023.96242098 0 4653
0.06750000 0.06749660 29398.89036526 0 -598.83825422 0 10636.25178479 0 3477.36417293 0 1957.07735853 0 5220
0.06850000 0.06852730 30329.28366290 0 -379.17536248 0 8637.89440250 0 1777.32581281 0 1568.42121145 0 5029
0.06950000 0.06949320 29170.52110129 0 558.55013736 0 8772.71904636 0 -392.77206642 0 2306.02427572 0 5040
0.07050000 0.07048030 28893.70987224 0 1022.04088206 0 9526.79896950 0 -2357.70668971 0 3617.64814937 0 5475
0.07150000 0.07148790 27941.12773799 0 -85.50061760 0 9019.67420714 0 1360.88968168 0 4527.23666654 0 5509
0.07250000 0.07249820 28157.30412639 0 238.43113245 0 8780.30938602 0 851.22418767 0 425.03375609 0 5916
0.07350000 0.07351270 27811.29009007 0 954.33307512 0 10497.02232732 0 -1024.35862687 0 2562.95342840 0 5721
0.07450000 0.07449140 27176.71133205 0 492.88875630 0 9309.22754038 0 -573.56604808 0 1770.05402576 0 6028
0.07550000 0.07549160 26411.96538894 0 -89.99155026 0 11075.52484232 0 546.75270641 0 1437.08966167 0 6183
0.07650000 0.07648840 26542.46211120 0 566.48868796 0 10430.25809517 0 -28.38907861 0 -17.58564163 0 6330
0.07750000 0.07749960 25136.87620369 0 520.46882113 0 10054.00353054 0 -2.35855250 0 681.28845601 0 6583
0.07850000 0.07848650 25332.51144137 0 282.63634789 0 11318.61343354 0 897.08697512 0 1072.67646629 0 6549
0.07950000 0.07947320 24649.38087253 0 4.64924231 0 10136.82720781 0 757.62794008 0 1777.27088994 0 6828
0.08050000 0.08048110 25026.92063215 0 -133.73167889 0 8637.33418930 0 1223.03329578 0 1055.50757934 0 7147
0.08150000 0.08149960 24214.83118122 0 342.98998348 0 8084.86511132 0 1409.29869304 0 1593.93837356 0 7386
0.08250000 0.08250610 23863.65439579 0 671.92191097 0 7723.54956540 0 -463.42923109 0 1762.91405358 0 7227
0.08350000 0.08350160 23623.20210199 0 478.62748572 0 8179.74984928 0 -610.89382262 0 804.09707593 0 7798
0.08450000 0.08449610 23097.26076679 0 194.89048365 0 8255.62029210 0 1054.17515069 0 2201.58295962 0 7371
0.08550000 0.08548940 22095.46774737 0 -8.40515328 0 7203.71565256 0 1460.99209161 0 1648.21314669 0 8256
0.08650000 0.08650700 22545.61553176 0 -22.72301638 0 6696.54695191 0 -20.70723746 0 1207.12763468 0 8037
0.08750000 0.08749060 21735.94268678 0 918.64310035 0 7148.61703649 0 -131.96096579 0 1574.19909663 0 8155
0.08850000 0.08849210 21205.49767683 0 660.68689014 0 7280.26713888 0 -1327.30984329 0 1885.86437448 0 8718
0.08950000 0.08949900 20420.75981162 0 30.52909304 0 7510.41590361 0 910.10589054 0 1719.34923872 0 8571
0.09050000 0.09049190 20853.55197133 0 -289.50939495 0 7399.44975139 0 1023.18108069 0 -604.19433181 0 8932
0.09150000 0.09150830 20280.92620266 0 682.69667822 0 6324.65326260 0 -73.15285956 0 1796.39503081 0 9285
0.09250000 0.09250820 19711.92534295 0 511.92392212 0 7709.10485246 0 -658.54599694 0 1627.83676455 0 9204
0.09350000 0.09350330 19561.98592721 0 -146.86812924 0 6470.20983387 0 1229.66797762 0 1664.51425240 0 9349
0.09450000 0.09448040 19681.93745980 0 -204.66126096 0 7221.40081442 0 678.24133558 0 815.67371697 0 9564
0.09550000 0.09549270 19076.13828194 0 527.49675067 0 6113.71651532 0 -434.95172667 0 1469.62596566 0 10155
0.09650000 0.09649430 18471.65725279 0 672.85779656 0 7357.97200532 0 90.49881782 0 2500.58302528 0 9913
0.09750000 0.09749140 17735.25150693 0 620.39987174 0 7409.16011355 0 -1071.04965109 0 706.02131964 0 10476
0.09850000 0.09850240 17506.99208869 0 664.60508718 0 8316.11233330 0 13.49114220 0 1865.81752952 0 10575
0.09950000 0.09950330 16858.57276922 0 208.67062996 0 8485.09899789 0 247.49999557 0 806.28190741 0 10882
0.10050000 0.10051200 16376.89926152 0 29.49160016 0 8350.04367801 0 -749.26208960 0 1000.59899638 0 10875
0.10150000 0.10150300 16454.77988113 0 171.82837352 0 7712.61991568 0 1720.41474226 0 851.99091084 0 11118
0.10250000 0.10250800 16684.35744808 0 -510.67607468 0 6600.58572584 0 1037.22815211 0 661.06036560 0 11575
0.10350000 0.10349800 16342.62739507 0 83.00228641 0 6299.28988451 0 381.58537770 0 743.28867903 0 11364
0.10450000 0.10450100 16283.85993176 0 460.03060433 0 5652.28757489 0 571.98207271 0 499.02803391 0 12093
0.10550000 0.10551000 15614.78961583 0 332.49642129 0 5769.63576378 0 -799.20015347 0 1475.85421831 0 12067
0.10650000 0.10649700 15510.54602203 0 142.87084328 0 5067.64468382 0 895.43819077 0 551.72322550 0 12054
0.10750000 0.10749900 15522.07982324 0 -90.20728726 0 4931.44696839 0 23.49424322 0 -239.57023263 0 12807
0.10850000 0.10850100 14998.44524829 0 61.06818204 0 4782.46321047 0 -253.47450460 0 -1280.25193436 0 12736
0.10950000 0.10950300 15214.40194524 0 312.88786078 0 4609.73080662 0 129.61466109 0 -1212.98241187 0 12933
0.11050000 0.11050200 14870.91436062 0 254.06108078 0 4469.32599989 0 -188.49965932 0 -914.62494370 0 13428
0.11150000 0.11150900 14660.55979569 0 -9.42669656 0 4815.76843453 0 -25.67566949 0 -1263.80802920 0 13453
0.11250000 0.11250000 14688.02122714 0 103.28112555 0 4401.21066531 0 687.71992326 0 -658.10990941 0 13668
0.11350000 0.11349100 14632.32944416 0 -209.61420474 0 4291.76038411 0 520.24363740 0 -1298.07989566 0 13791
0.11450000 0.11448600 14536.32427979 0 187.42866350 0 4062.60023092 0 409.33240804 0 289.76423704 0 14205
0.11550000 0.11549300 14817.74902933 0 -132.35860732 0 3909.47528914 0 622.13872958 0 494.68363546 0 14776
0.11650000 0.11649800 14561.14941383 0 86.00700640 0 3670.36311318 0 482.50943367 0 1208.42381425 0 14553
0.11750000 0.11747300 14529.62369052 0 250.14288374 0 3912.52900031 0 160.11552377 0 1453.22599879 0 14568
0.11850000 0.11849100 14514.90436326 0 328.16740124 0 3558.18865798 0 -497.71867286 0 1258.59035723 0 16015
0.11950000 0.11950300 13966.33480855 0 187.65384724 0 4605.22713187 0 -426.92200412 0 1201.36073408 0 15270
0.12050000 0.12050700 13506.52060029 0 305.56993853 0 4542.27454640 0 -164.95093262 0 1159.50951254 0 15999
0.12150000 0.12150000 13356.14180166 0 206.35837743 0 4978.30715502 0 -137.84100749 0 1053.23157590 0 15670
0.12250000 0.12250700 13146.44631108 0 30.71692923 0 4788.35094137 0 447.58068977 0 484.86342757 0 16887
0.12350000 0.12352200 13117.77657664 0 52.23713491 0 4658.67806205 0 672.06031659 0 1366.40393711 0 16407
0.12450000 0.12449800 13081.19794994 0 13.61010512 0 4055.11973699 0 66.65394704 0 677.10553077 0 16306
0.12550000 0.12549900 12974.09836728 0 278.87523024 0 4206.81668434 0 -278.46770260 0 805.42181538 0 17523
0.12650000 0.12650100 12815.04175630 0 166.86993745 0 3897.18355242 0 70.64859671 0 714.89795274 0 17154
0.12750000 0.12750600 12708.71109371 0 -224.08967449 0 4318.10138916 0 209.09024063 0 233.19808207 0 18007
0.12850000 0.12850300 12530.43148072 0 209.23853236 0 3671.24187899 0 55.87368751 0 140.96941377 0 17496
0.12950000 0.12949900 12385.32527692 0 120.45462601 0 3619.84506388 0 165.55178875 0 1000.73081125 0 18405
0.13050000 0.13049000 12570.96455354 0 -56.17620264 0 3403.81147493 0 388.27717932 0 -241.31787813 0 18100
0.13150000 0.13148800 12439.58906547 0 277.83938504 0 3154.20903216 0 54.67131619 0 -85.91407691 0 19059
0.13250000 0.13249300 12108.29435641 0 35.92196895 0 3220.55585055 0 103.41975085 0 701.85926508 0 18957
0.13350000 0.13349100 12024.26237617 0 112.24146109 0 3127.48356707 0 184.16404853 0 387.05899022 0 19468
0.13450000 0.13450700 11898.70871156 0 116.71328059 0 2643.84382089 0 168.29683343 0 403.64569482 0 19953
0.13550000 0.13551000 11662.97978397 0 -35.22148275 0 3001.52347328 0 -72.22631087 0 164.45223303 0 19956
0.13650000 0.13649900 11676.38096252 0 193.15272427 0 2953.66369054 0 14.24127866 0 203.22997116 0 19723
0.13750000 0.13749600 11669.46068179 0 172.41055586 0 2756.28190583 0 319.70928035 0 -8.36201686 0 20946
0.13850000 0.13851100 11342.99918467 0 39.78271667 0 3017.95639386 0 -502.69358578 0 348.96119714 0 20955
0.13950000 0.13949800 11174.60568700 0 288.14620950 0 3092.12422793 0 373.71932528 0 -11.33179492 0 20506
0.14050000 0.14048300 11006.98110941 0 126.47966407 0 2991.08812933 0 -73.77480606 0 247.97013528 0 21447
0.14150000 0.14148400 10805.01875793 0 107.40671132 0 3050.86617331 0 121.95841400 0 47.66952994 0 21771
0.14250000 0.14249400 10712.31994991 0 157.19252901 0 3169.56546463 0 -54.24950861 0 255.84936919 0 22470
0.14350000 0.14350900 10561.13927748 0 117.19550333 0 2993.92214905 0 -156.84102269 0 36.94408343 0 22519
0.14450000 0.14449900 10584.51444793 0 -97.31968816 0 3229.21169375 0 173.27064790 0 -88.27696832 0 22218
0.14550000 0.14550500 10523.64893126 0 209.62189394 0 2850.74923003 0 -200.66836883 0 -266.05623404 0 23559
0.14650000 0.14650700 10188.27894578 0 244.17276854 0 3215.89839178 0 -117.59424331 0 -106.02693916 0 23044
0.14750000 0.14750500 10227.86734536 0 165.19808551 0 3381.99611378 0 148.81239859 0 -507.48066251 0 23649
0.14850000 0.14849900 9837.65138898 0 78.36657709 0 3370.81381889 0 149.22761543 0 -283.63704245 0 23640
0.14950000 0.14949500 9983.32879055 0 -42.27302912 0 3236.37363507 0 193.56464574 0 58.50756832 0 24457
0.15050000 0.15050000 9878.48104526 0 -17.24687741 0 3026.38156103 0 120.19319319 0 -112.52815844 0 24591
0.15150000 0.15149900 9967.76365121 0 -24.55491355 0 2843.89485674 0 366.77487849 0 142.50286010 0 25020
0.15250000 0.15250500 9836.22339454 0 37.75606303 0 2708.67476826 0 266.85700938 0 533.11865492 0 25297
0.15350000 0.15350100 9943.88319041 0 95.19395368 0 2637.40686135 0 -48.42889344 0 566.38213761 0 25452
0.15450000 0.15450400 9634.64550310 0 215.94790929 0 2959.48551401 0 -73.55412600 0 426.19812078 0 26061
0.15550000 0.15549900 9413.88854794 0 190.87122855 0 2957.32155321 0 -89.33423343 0 916.91412863 0 26128
0.15650000 0.15649500 9377.44173611 0 179.02326856 0 3040.61756710 0 212.59541774 0 930.72503173 0 26331
0.15750000 0.15749700 9273.59358693 0 31.33722804 0 3343.97850808 0 186.51364860 0 903.71726313 0 27345
0.15850000 0.15849900 9118.56831409 0 8.03501712 0 2845.23497459 0 -19.72499698 0 591.92895806 0 26980
0.15950000 0.15949700 9038.09533536 0 120.26349445 0 2786.15994325 0 -39.47569787 0 804.73308268 0 27777
0.16050000 0.16050000 8944.10034778 0 145.49725458 0 3067.63961565 0 -114.55151671 0 815.18600195 0 28224
0.16150000 0.16150500 8670.47464478 0 171.98655136 0 2881.24240351 0 224.86738223 0 1020.53489716 0 28075
0.16250000 0.16249700 8823.94010831 0 8.36522436 0 2843.36759725 0 267.96645121 0 689.29181559 0 28590
0.16350000 0.16349900 8594.24171106 0 -44.21015850 0 2597.07151083 0 351.76336160 0 1116.05454341 0 29163
0.16450000 0.16449100 8708.12975959 0 -79.12989504 0 2285.70281644 0 525.06037247 0 836.01604694 0 28996
0.16550000 0.16550500 8761.11933772 0 19.32098440 0 2077.79781120 0 -0.04766569 0 1357.17689614 0 30777
0.16650000 0.16650700 8678.09793815 0 147.30751214 0 2205.01014626 0 -147.18997722 0 1191.71627935 0 29211
0.16750000 0.16749900 8483.66001889 0 208.05878926 0 2232.38370113 0 -156.65208804 0 1081.05439979 0 30922
0.16850000 0.16850800 8317.72706547 0 59.69587938 0 2310.19841330 0 -39.19526173 0 1149.98588811 0 30867
0.16950000 0.16949900 8290.52926376 0 4.72400332 0 2209.51382102 0 302.76338023 0 988.01507003 0 30852
0.17050000 0.17049200 8304.71034696 0 78.64931999 0 2233.67988070 0 -74.75814500 0 957.10997507 0 31257
0.17150000 0.17149500 8211.36344917 0 129.03138028 0 2129.38136404 0 38.92086711 0 974.75229710 0 32608
0.17250000 0.17250900 8086.13932174 0 4.73124215 0 2288.16336070 0 -152.01989378 0 550.09860722 0 32361
0.17350000 0.17350400 8071.93626939 0 64.72944992 0 2399.88744843 0 -114.13520141 0 469.67286215 0 32508
0.17450000 0.17449800 7968.27485794 0 85.10715021 0 2232.52650058 0 -170.24769352 0 237.14923283 0 32791
0.17550000 0.17549800 8046.55092216 0 -15.71463938 0 2324.55524966 0 -21.14453330 0 79.96395364 0 33633
0.17650000 0.17650100 8006.54510882 0 85.64001183 0 2247.82801018 0 52.08752503 0 -479.38432277 0 33984
0.17750000 0.17750300 7875.61998822 0 168.87572041 0 2387.79343401 0 -11.73712565 0 99.85218137 0 34069
0.17850000 0.17849800 7725.95518680 0 42.50557252 0 2313.48280050 0 107.70406370 0 -15.23549232 0 34536
