### header ###
fiducial parameters:
Omega_m = 0.31
Omega_nu = 0
Omega_de = 0.69
Omega_k = 0
H_0 = 100
w_de = -1
zeff = 0
beta = 0
fgrowth = 0
b_1 = 2
gamma = 0.55
Lx = 3500 Ly = 3500 Lz = 3500
nx = 700 ny = 700 nz = 700
xoffset = -983.599254 yoffset = -42.9823471 zoffset = 800.977702
bins = 400 dk = 0.001
kx_ny = 0.628318531 ky_ny = 0.628318531 kz_ny = 0.628318531
############################
A(data) = 9.09525399 (not used)
A(ran) = 9.0837072 (used)
Ngal = 504009
weighted Ngal = 0
Nran = 25229228
weighted Nran = 0
SN(data) = 6722.32473
SN(ran) = 134.841375
SN(data+ran) = 6857.16611
############################
13 columns: k_central k_mean P_0(k) sigma^{lin}_{P_0(k)} P^img_1(k) sigma^{lin}_{P_1(k)} P_2(k) sigma^{lin}_{P_2(k)} P^img_3(k) sigma^{lin}_{P_3(k)} P_4(k) sigma^{lin}_{P_4(k)} N_modes
### header ###
0.00050000 0 0 0 0 0 0 0 0 0 0 0 0
0.00150000 0.00179520 22066.02909285 0 -22154.89428504 0 9736.02212346 0 -36254.03257609 0 31542.96908741 0 3
0.00250000 0.00253879 34448.93776380 0 -8372.37531406 0 -18325.78212891 0 17356.17390715 0 5791.17651061 0 6
0.00350000 0.00331552 51706.58005490 0 -3126.02261892 0 24953.32399586 0 -17810.82536629 0 30156.82587337 0 7
0.00450000 0.00420575 45730.42334202 0 10076.34615117 0 36401.55538586 0 -14819.94594385 0 29553.77283865 0 24
0.00550000 0.00557378 36952.21200936 0 11437.46650887 0 48168.44922645 0 25769.80727583 0 19460.26878511 0 45
0.00650000 0.00659388 39859.71852592 0 -6057.38762712 0 53756.19145285 0 53251.77987992 0 15874.13537448 0 40
0.00750000 0.00754703 45784.35759339 0 -2226.95732228 0 43967.50928844 0 40200.67965885 0 24342.14237743 0 57
0.00850000 0.00846663 56600.31698561 0 20.96065155 0 41454.67846473 0 4303.77750652 0 37028.00556018 0 75
0.00950000 0.00948925 43996.83809723 0 3762.31497026 0 53705.77226470 0 16055.60051352 0 37729.70005667 0 112
0.01050000 0.01054430 49173.97700054 0 109.90174713 0 44066.80982457 0 12616.11114685 0 50777.17536879 0 105
0.01150000 0.01145670 57450.85244059 0 -6446.52709539 0 23699.76457288 0 30274.36079999 0 22338.55633860 0 144
0.01250000 0.01249090 68046.68099828 0 -11324.43525701 0 23322.00512180 0 17198.10590771 0 35274.97762192 0 169
0.01350000 0.01339930 66992.82110482 0 1244.20056714 0 21785.04372622 0 914.12734256 0 19987.19873183 0 180
0.01450000 0.01448870 75766.52876272 0 5675.44305389 0 10668.20590643 0 -6683.29955738 0 9401.51991921 0 267
0.01550000 0.01550050 69170.51261907 0 -3000.45796974 0 21120.58693078 0 5862.80690841 0 6169.36436001 0 238
0.01650000 0.01653350 66277.28604687 0 -508.41215427 0 11774.14365849 0 -815.46281318 0 11410.88384323 0 315
0.01750000 0.01747870 70947.37707983 0 2731.07231175 0 18566.01473126 0 -2769.94671412 0 5259.46827481 0 297
0.01850000 0.01844180 68027.12845908 0 -7030.15940578 0 -1209.19273433 0 22730.59573403 0 -4912.36676581 0 388
0.01950000 0.01947590 76734.15976141 0 -6650.13713275 0 -17242.81311811 0 14702.96024585 0 9980.72544685 0 399
0.02050000 0.02045430 80571.83988415 0 -1189.15687394 0 -14203.82126776 0 -9003.92233006 0 -13847.37188749 0 462
0.02150000 0.02154770 78493.99813467 0 7767.18028770 0 -5006.13107737 0 -18660.15251828 0 -6858.56939748 0 571
0.02250000 0.02255340 71591.29272455 0 4715.44633315 0 -9039.69908295 0 -10121.99803482 0 -8121.97099750 0 510
0.02350000 0.02348930 65978.83520984 0 179.16936337 0 6878.64919616 0 728.14974110 0 -13524.86483650 0 555
0.02450000 0.02439640 65112.59181607 0 2394.58189987 0 11492.38937178 0 -8557.44339291 0 -12343.80359256 0 592
0.02550000 0.02547300 61808.76192078 0 2328.55363408 0 7522.02659682 0 10189.30051103 0 -1598.81552379 0 837
0.02650000 0.02652900 61168.69087647 0 -5169.18607276 0 997.01253343 0 8957.38069603 0 2658.99154648 0 723
0.02750000 0.02749970 63374.61274225 0 3272.77650860 0 7026.74320370 0 -854.99409298 0 -5672.26851242 0 826
0.02850000 0.02848090 60666.14668087 0 4553.40191843 0 6230.12003096 0 -4236.23336971 0 8742.55541006 0 831
0.02950000 0.02946900 61152.43370905 0 1913.83109627 0 11436.14836016 0 -8627.95336431 0 1811.03746606 0 996
0.03050000 0.03053250 56678.30745094 0 1059.17093430 0 16306.59799700 0 -4739.75519227 0 958.63243683 0 1041
0.03150000 0.03150510 51968.23257379 0 242.46466750 0 17311.02731384 0 4021.88042036 0 3802.92493510 0 1036
0.03250000 0.03246190 52177.37883574 0 -285.16609496 0 15729.68824503 0 -1915.86324220 0 -2413.15681210 0 1059
0.03350000 0.03345080 57310.24991155 0 2020.54621890 0 19768.60573747 0 10365.14154891 0 189.96939514 0 1302
0.03450000 0.03451200 55306.88356416 0 -2354.08178076 0 16882.40929172 0 361.23426008 0 3891.68028155 0 1339
0.03550000 0.03553350 52502.30249269 0 -1166.38585498 0 12028.32666802 0 2271.11530406 0 6461.43316038 0 1365
0.03650000 0.03647120 56335.69863213 0 3074.24134377 0 16681.94084211 0 -740.22618020 0 -497.04861393 0 1308
0.03750000 0.03744890 53781.45596979 0 1764.82536921 0 14185.03764864 0 -2334.02395123 0 7985.81722035 0 1579
0.03850000 0.03847530 54294.76504651 0 -442.93092020 0 16910.09041462 0 -539.19751739 0 -2609.05567952 0 1662
0.03950000 0.03950240 51198.54357301 0 1841.51965497 0 17434.71360111 0 -4627.17430788 0 -6972.68812203 0 1683
0.04050000 0.04050350 48110.01130032 0 3114.90623146 0 24189.23712710 0 -2456.95230299 0 -2333.23306200 0 1822
0.04150000 0.04152450 46455.40513239 0 1697.03957181 0 23722.61248385 0 -536.95336921 0 -6347.92957190 0 1887
0.04250000 0.04250150 45119.35156932 0 -658.70856861 0 22226.07431536 0 2326.78511790 0 -3939.64991002 0 1920
0.04350000 0.04349210 45109.24576254 0 130.58130348 0 22510.24520804 0 2558.81224453 0 -8693.31157117 0 2005
0.04450000 0.04448520 43615.56358293 0 1221.56136305 0 18601.82443788 0 2143.45260152 0 -2512.27061051 0 2151
0.04550000 0.04548030 45915.84292719 0 -381.31405876 0 17603.43663596 0 6033.94654923 0 -1021.31590027 0 2274
0.04650000 0.04648670 45174.93350658 0 -1140.41832540 0 17969.66228582 0 836.85966211 0 -3656.86307348 0 2311
0.04750000 0.04749250 44906.47055269 0 1871.04618607 0 14555.21774463 0 -206.41330029 0 -3180.60496007 0 2568
0.04850000 0.04851840 42224.58715696 0 2246.55379976 0 18191.88018914 0 -3234.01195196 0 -1369.27091055 0 2493
0.04950000 0.04949480 38936.13566328 0 1172.82281451 0 20802.36386310 0 -1539.96018390 0 553.43681882 0 2644
0.05050000 0.05050630 38753.35237553 0 2104.01798595 0 19435.33380535 0 3293.29569019 0 -1162.60716201 0 2829
0.05150000 0.05149060 37885.68098733 0 -671.59017688 0 19616.24971576 0 5413.77955043 0 6352.55407695 0 2784
0.05250000 0.05249300 38132.72402468 0 -1768.25255585 0 16170.49914272 0 4322.11075815 0 3293.35061305 0 3055
0.05350000 0.05348950 38603.41295979 0 1487.71755670 0 12797.02705726 0 1971.53305604 0 5153.22548880 0 3009
0.05450000 0.05448610 35520.26312766 0 1659.79088619 0 14648.58661158 0 -2565.34806522 0 6466.40917176 0 3336
0.05550000 0.05550870 35595.28775839 0 952.23062793 0 14821.37393828 0 541.69431073 0 6408.80607314 0 3349
0.05650000 0.05647670 34078.53797636 0 -549.40767760 0 14226.44948728 0 137.24674212 0 1295.54245939 0 3324
0.05750000 0.05747970 34002.52473410 0 1411.70431444 0 15754.40353334 0 940.65069152 0 1835.48912462 0 3639
0.05850000 0.05849280 32261.79951713 0 1135.67299004 0 14028.72718081 0 -1326.71667637 0 2845.03725229 0 3846
0.05950000 0.05951020 32668.22870264 0 421.03097784 0 15699.92005334 0 -739.90543068 0 953.15333203 0 3787
0.06050000 0.06049470 32280.36344479 0 -296.78777275 0 15920.49027077 0 2155.67843080 0 3123.73782782 0 3930
0.06150000 0.06148310 31598.55102467 0 -73.72900039 0 15280.30938073 0 1771.30626703 0 2217.44468242 0 4083
0.06250000 0.06249100 31764.63776210 0 45.73459748 0 14610.03076182 0 1270.72830993 0 5458.69546772 0 4303
0.06350000 0.06350600 32603.30987868 0 362.92698272 0 15387.40896340 0 1418.05339739 0 5006.79015172 0 4470
0.06450000 0.06451750 30778.22314429 0 746.44015291 0 14938.90886490 0 -1327.84808735 0 8005.92997275 0 4479
0.06550000 0.06550280 31605.58115112 0 327.78843349 0 16274.63289079 0 2161.26957824 0 7249.11489104 0 4636
0.06650000 0.06648880 30858.95975277 0 87.90162548 0 16481.69208395 0 -1995.23776368 0 4162.18636594 0 4653
0.06750000 0.06749660 29667.13362769 0 1015.16453962 0 15803.83410996 0 291.86009349 0 4772.35740369 0 5220
0.06850000 0.06852730 30424.51990718 0 -202.43578656 0 15791.09200576 0 985.28210837 0 3254.04781235 0 5029
0.06950000 0.06949320 28866.90751514 0 -201.06710882 0 14474.70082761 0 3413.70857482 0 5518.70418773 0 5040
0.07050000 0.07048030 30233.38834426 0 15.04425092 0 13133.37466971 0 1799.64646429 0 3922.20640876 0 5475
0.07150000 0.07148790 29202.15667032 0 -3.58112445 0 11067.50610433 0 1614.76512318 0 5109.40802878 0 5509
0.07250000 0.07249820 29652.74383761 0 503.27576813 0 9886.48879868 0 1237.22536355 0 3633.86137850 0 5916
0.07350000 0.07351270 28775.07648836 0 317.52225195 0 9716.73321400 0 -1157.21373687 0 3380.04085986 0 5721
0.07450000 0.07449140 27644.32458684 0 944.46563357 0 10074.59960413 0 -1427.03877776 0 2262.33863056 0 6028
0.07550000 0.07549160 26993.26896994 0 804.94398647 0 10545.69496843 0 -731.95919087 0 2634.10050501 0 6183
0.07650000 0.07648840 25978.07477197 0 -429.11232789 0 10666.63511255 0 1004.39856003 0 603.56821117 0 6330
0.07750000 0.07749960 26666.03855274 0 249.09385706 0 10011.26255863 0 184.20249453 0 -1347.04912022 0 6583
0.07850000 0.07848650 26166.02080884 0 585.83142182 0 10387.58303069 0 147.78094722 0 -460.80831207 0 6549
0.07950000 0.07947320 25352.17382629 0 428.00837835 0 10237.46786180 0 -758.34303576 0 -1112.71523334 0 6828
0.08050000 0.08048110 24534.92162624 0 707.92055224 0 10810.77467396 0 -173.98903894 0 -262.90695708 0 7147
0.08150000 0.08149960 24393.00094849 0 489.73069168 0 11047.29449078 0 546.77797092 0 -1759.43194407 0 7386
0.08250000 0.08250610 23938.12979789 0 -67.10618189 0 9672.89378483 0 824.30759102 0 -1066.31969413 0 7227
0.08350000 0.08350160 23405.92725633 0 -14.14703103 0 10029.74959428 0 1613.37008246 0 -477.16104528 0 7798
0.08450000 0.08449610 23102.75305308 0 521.05759423 0 8747.93785062 0 710.18007882 0 -556.16978048 0 7371
0.08550000 0.08548940 22765.41682911 0 434.04879481 0 8746.63068648 0 167.57404856 0 1070.27304181 0 8256
0.08650000 0.08650700 22122.92917883 0 396.72102026 0 8303.58992056 0 -351.97865922 0 -1751.09465348 0 8037
0.08750000 0.08749060 21170.01750739 0 212.24171450 0 7869.21598240 0 -6.61644745 0 -626.77971149 0 8155
0.08850000 0.08849210 20537.63566389 0 751.72812615 0 7927.13763362 0 651.91021664 0 -841.44681962 0 8718
0.08950000 0.08949900 20781.82271237 0 372.44181949 0 7743.58542579 0 293.27380798 0 -904.87833245 0 8571
0.09050000 0.09049190 19656.45325141 0 535.25515429 0 8172.06064847 0 146.03220327 0 -1382.36452107 0 8932
0.09150000 0.09150830 19343.28308712 0 283.83586322 0 7422.44046180 0 126.32807697 0 -436.67081228 0 9285
0.09250000 0.09250820 18669.15986780 0 30.45857208 0 7381.74262039 0 677.57567048 0 573.51332213 0 9204
0.09350000 0.09350330 18504.28143335 0 41.23597562 0 6761.47676044 0 1754.41199440 0 721.28658015 0 9349
0.09450000 0.09448040 18271.40849463 0 -126.56534374 0 5985.75722932 0 901.38304145 0 1637.04183637 0 9564
0.09550000 0.09549270 18153.10464793 0 690.37818982 0 6116.15509043 0 -90.07975637 0 853.68363348 0 10155
0.09650000 0.09649430 17947.58329493 0 333.57840169 0 6189.04871408 0 -251.86306780 0 2119.69297102 0 9913
0.09750000 0.09749140 17476.45497692 0 202.62472121 0 6492.72820766 0 47.18049677 0 341.06768328 0 10476
0.09850000 0.09850240 17546.86608716 0 130.21112338 0 6442.82529443 0 -1177.15073611 0 558.95546809 0 10575
0.09950000 0.09950330 17055.30646415 0 28.95357579 0 7192.39055823 0 -282.57263737 0 256.53041269 0 10882
0.10050000 0.10051200 17036.63269076 0 -98.14276219 0 6615.16225365 0 825.26544575 0 387.08535319 0 10875
0.10150000 0.10150300 17626.83377556 0 -155.45806500 0 6273.93749099 0 921.26182245 0 -358.67595313 0 11118
0.10250000 0.10250800 17498.75365926 0 291.65358352 0 5788.82581208 0 255.08484294 0 378.02088390 0 11575
0.10350000 0.10349800 16882.51913744 0 583.12811851 0 6144.18771966 0 -132.02467631 0 1088.61837647 0 11364
0.10450000 0.10450100 17070.68486576 0 107.01609992 0 6849.88060057 0 -583.89264476 0 294.70290087 0 12093
0.10550000 0.10551000 16282.32209160 0 292.82893279 0 7013.57270118 0 291.40972601 0 1362.51539842 0 12067
0.10650000 0.10649700 15524.38658349 0 -19.91239379 0 6723.62392332 0 442.48934038 0 1295.63033597 0 12054
0.10750000 0.10749900 15982.00387723 0 82.16207646 0 6890.19398195 0 505.12007787 0 1149.99687269 0 12807
0.10850000 0.10850100 16111.40214223 0 219.23888724 0 5893.14629788 0 997.17620356 0 1393.89832228 0 12736
0.10950000 0.10950300 15674.43584495 0 106.00606847 0 6082.27866859 0 -151.18177089 0 1944.76365266 0 12933
0.11050000 0.11050200 15234.39386734 0 138.02444986 0 6048.11664786 0 -29.46402888 0 1774.27210163 0 13428
0.11150000 0.11150900 15268.55588807 0 354.15360460 0 5546.81370897 0 -120.32171268 0 463.93891526 0 13453
0.11250000 0.11250000 14992.51357910 0 -42.23216651 0 5731.01400658 0 590.32411201 0 1636.19602428 0 13668
0.11350000 0.11349100 15240.76491944 0 0.37595029 0 5119.71155786 0 269.45376233 0 305.55675704 0 13791
0.11450000 0.11448600 14607.28461867 0 270.34461117 0 5039.32645571 0 -562.34420873 0 411.71056801 0 14205
0.11550000 0.11549300 14384.07810382 0 261.73819855 0 5643.06053392 0 59.47662732 0 637.51713119 0 14776
0.11650000 0.11649800 14148.56886767 0 -10.15647861 0 5205.18251711 0 344.65194931 0 270.03045240 0 14553
0.11750000 0.11747300 14065.74519041 0 283.85014316 0 5373.66389137 0 -74.79768946 0 -15.07863263 0 14568
0.11850000 0.11849100 14094.30507912 0 386.93925838 0 5538.83890927 0 -79.38111222 0 188.66882174 0 16015
0.11950000 0.11950300 13490.04374142 0 24.53821700 0 5631.33999498 0 81.51080115 0 940.10585672 0 15270
0.12050000 0.12050700 13765.31713031 0 -66.68371523 0 5355.67116148 0 1210.06051556 0 1374.91698086 0 15999
0.12150000 0.12150000 13622.84722393 0 -250.66355248 0 5041.25974048 0 392.09102292 0 1347.60933342 0 15670
0.12250000 0.12250700 13745.98428257 0 329.59429722 0 4439.73356135 0 172.59070286 0 1937.81041822 0 16887
0.12350000 0.12352200 13608.78697103 0 75.98281500 0 5015.72060923 0 -63.73216058 0 2038.58288708 0 16407
0.12450000 0.12449800 13342.63077738 0 9.19221987 0 4715.11679597 0 -272.00657700 0 1997.44566276 0 16306
0.12550000 0.12549900 13450.49928013 0 162.37285344 0 4912.69630299 0 470.95036794 0 1537.43373220 0 17523
0.12650000 0.12650100 13384.92138182 0 -193.23730548 0 4632.56773302 0 98.37980926 0 1489.87053293 0 17154
0.12750000 0.12750600 13309.12783101 0 40.97366403 0 4580.66562757 0 339.70889165 0 629.30067090 0 18007
0.12850000 0.12850300 13111.40552454 0 396.90556108 0 4483.86957399 0 -843.39877817 0 699.93586643 0 17496
0.12950000 0.12949900 12813.17437896 0 401.70801621 0 4343.11326093 0 -127.04097573 0 57.86365268 0 18405
0.13050000 0.13049000 12343.36420966 0 213.72353334 0 4709.92109314 0 42.75667985 0 401.52677077 0 18100
0.13150000 0.13148800 12128.94535287 0 214.35624472 0 4778.94814724 0 -7.77873606 0 -391.86803610 0 19059
0.13250000 0.13249300 12112.35864827 0 -99.27922606 0 4365.87329532 0 1028.42950947 0 504.55547084 0 18957
0.13350000 0.13349100 12067.43174641 0 -145.48297464 0 4056.28410169 0 548.66731741 0 136.08896817 0 19468
0.13450000 0.13450700 12035.02725730 0 217.95479070 0 3559.35302268 0 -213.44782057 0 513.65838613 0 19953
0.13550000 0.13551000 11795.56357502 0 139.50956407 0 3287.06743753 0 329.37460577 0 848.29020834 0 19956
0.13650000 0.13649900 11816.10472575 0 24.98913370 0 4043.34427518 0 -40.88897298 0 641.72861632 0 19723
0.13750000 0.13749600 11465.25747750 0 360.18633186 0 3950.30494542 0 -422.36889878 0 907.28065847 0 20946
0.13850000 0.13851100 11187.67732837 0 192.40797025 0 4039.25801418 0 55.04336367 0 907.12687446 0 20955
0.13950000 0.13949800 11283.68249273 0 10.28497614 0 4512.71506159 0 226.27450597 0 1092.82546777 0 20506
0.14050000 0.14048300 11181.41612200 0 -5.44952335 0 4119.45637860 0 548.02252300 0 1140.91263116 0 21447
0.14150000 0.14148400 11096.50537595 0 -25.70477861 0 4262.24483759 0 14.27478161 0 1347.92788603 0 21771
0.14250000 0.14249400 10894.03773413 0 236.71753913 0 3894.71202359 0 -195.20464243 0 1580.91067048 0 22470
0.14350000 0.14350900 10996.76545691 0 173.06303948 0 4292.57324248 0 113.83971640 0 1088.77765278 0 22519
0.14450000 0.14449900 10917.33601257 0 -76.98318002 0 4117.66589327 0 88.53543531 0 1438.58356354 0 22218
0.14550000 0.14550500 10830.23933658 0 -37.30569556 0 3939.89157061 0 187.94823378 0 506.90507091 0 23559
0.14650000 0.14650700 10695.97490591 0 245.26353660 0 3882.20059542 0 -3.12216703 0 748.29764413 0 23044
0.14750000 0.14750500 10584.31672562 0 213.89269576 0 3908.19009414 0 -379.21820231 0 358.02127260 0 23649
0.14850000 0.14849900 10209.24849483 0 130.40115648 0 4022.82509360 0 65.32942728 0 71.01559128 0 23640
0.14950000 0.14949500 10260.97484712 0 169.44362281 0 3802.37570647 0 137.40382151 0 26.95141775 0 24457
0.15050000 0.15050000 10001.48628903 0 62.52869081 0 3626.32596171 0 43.00570011 0 84.89174274 0 24591
0.15150000 0.15149900 10074.51172755 0 -106.39217619 0 3478.98988967 0 313.95116740 0 -259.19856537 0 25020
0.15250000 0.15250500 9893.71664744 0 227.02475228 0 3654.66615897 0 -169.51062870 0 -474.26880731 0 25297
0.15350000 0.15350100 9751.86187712 0 164.39840862 0 3433.19520658 0 171.18028374 0 -52.25866467 0 25452
0.15450000 0.15450400 9603.62507013 0 32.33012356 0 3636.83819767 0 335.36669011 0 422.35901267 0 26061
0.15550000 0.15549900 9579.70067105 0 -21.67475862 0 3171.87222487 0 462.60758506 0 657.59363450 0 26128
0.15650000 0.15649500 9660.08577320 0 40.98904243 0 3428.86728498 0 177.25035854 0 577.44909449 0 26331
0.15750000 0.15749700 9421.07245841 0 144.75909131 0 2981.08118371 0 62.65314602 0 952.91936063 0 27345
0.15850000 0.15849900 9402.31080844 0 140.21697054 0 3407.12881585 0 103.26530776 0 1324.33302412 0 26980
0.15950000 0.15949700 9221.83428092 0 13.07867150 0 2980.50998593 0 -87.68588847 0 1368.41411389 0 27777
0.16050000 0.16050000 9361.74478189 0 -48.22875453 0 3076.84468747 0 422.87528758 0 1344.94008229 0 28224
0.16150000 0.16150500 9361.85462762 0 -28.65073113 0 2759.29167872 0 336.21140374 0 985.11514287 0 28075
0.16250000 0.16249700 9327.15436283 0 117.91499283 0 2743.61669364 0 -15.79691383 0 1580.54817958 0 28590
0.16350000 0.16349900 9224.64633151 0 196.90066044 0 2651.17053080 0 -241.97036174 0 673.88924792 0 29163
0.16450000 0.16449100 8733.44919939 0 311.39286045 0 2936.12132813 0 -454.44385072 0 850.43659382 0 28996
0.16550000 0.16550500 8638.21295511 0 92.79547225 0 2934.75924113 0 85.29147134 0 954.13974665 0 30777
0.16650000 0.16650700 8562.35349686 0 63.73941040 0 2936.58268018 0 421.97125726 0 898.74784249 0 29211
0.16750000 0.16749900 8393.95999919 0 -7.56896368 0 2341.80102862 0 242.65360215 0 608.07627976 0 30922
0.16850000 0.16850800 8390.82939600 0 -17.98383238 0 2373.32675193 0 407.17393953 0 828.54434067 0 30867
0.16950000 0.16949900 8258.97058673 0 130.30888608 0 2030.36642679 0 -25.52562023 0 732.12725483 0 30852
0.17050000 0.17049200 8237.13325644 0 36.92222413 0 2004.59661951 0 39.62409944 0 878.91299978 0 31257
0.17150000 0.17149500 8194.94151316 0 103.05110860 0 2000.76300368 0 -85.62737957 0 242.72719879 0 32608
0.17250000 0.17250900 7956.70810301 0 231.53611624 0 2159.64386150 0 -301.81760853 0 254.79045640 0 32361
0.17350000 0.17350400 7850.70697760 0 26.76083541 0 2194.20132684 0 19.21015007 0 246.14889315 0 32508
0.17450000 0.17449800 7799.92529856 0 26.65022077 0 2228.89060705 0 216.69156485 0 181.32343806 0 32791
0.17550000 0.17549800 7932.84961137 0 -45.71812062 0 1950.39873840 0 228.77459469 0 231.22964667 0 33633
0.17650000 0.17650100 7848.42218651 0 86.63114981 0 2005.50833904 0 77.85634370 0 444.93560469 0 33984
0.17750000 0.17750300 7695.90139621 0 47.09229065 0 1935.19608995 0 -133.47793526 0 585.16905210 0 34069
0.17850000 0.17849800 7819.90623609 0 81.28506818 0 2082.22459395 0 -85.20040923 0 331.22440779 0 34536
