### header ###
fiducial parameters:
Omega_m = 0.31
Omega_nu = 0
Omega_de = 0.69
Omega_k = 0
H_0 = 100
w_de = -1
zeff = 0
beta = 0
fgrowth = 0
b_1 = 2
gamma = 0.55
Lx = 3500 Ly = 3500 Lz = 3500
nx = 700 ny = 700 nz = 700
xoffset = -983.599254 yoffset = -42.9823471 zoffset = 800.977702
bins = 400 dk = 0.001
kx_ny = 0.628318531 ky_ny = 0.628318531 kz_ny = 0.628318531
############################
A(data) = 9.08609668 (not used)
A(ran) = 9.09665175 (used)
Ngal = 505301
weighted Ngal = 0
Nran = 25229228
weighted Nran = 0
SN(data) = 6717.68834
SN(ran) = 135.033528
SN(data+ran) = 6852.72187
############################
13 columns: k_central k_mean P_0(k) sigma^{lin}_{P_0(k)} P^img_1(k) sigma^{lin}_{P_1(k)} P_2(k) sigma^{lin}_{P_2(k)} P^img_3(k) sigma^{lin}_{P_3(k)} P_4(k) sigma^{lin}_{P_4(k)} N_modes
### header ###
0.00050000 0 0 0 0 0 0 0 0 0 0 0 0
0.00150000 0.00179520 20526.54124558 0 -26275.53699748 0 7233.51679798 0 -75341.42580382 0 -44195.10963232 0 3
0.00250000 0.00253879 34826.36767770 0 -21366.64135660 0 -36019.40210576 0 36035.11004455 0 41077.90762519 0 6
0.00350000 0.00331552 39740.97529632 0 -9270.78153635 0 14441.52741842 0 -43848.76605883 0 31297.35404449 0 7
0.00450000 0.00420575 50178.07678020 0 -7434.87499796 0 -10803.55780978 0 -30913.33338705 0 15887.75624448 0 24
0.00550000 0.00557378 50113.59733915 0 8323.97728727 0 699.80405155 0 -14289.83047107 0 -5800.99671850 0 45
0.00650000 0.00659388 34822.19354012 0 -2877.18909623 0 3148.90348360 0 -8015.16799829 0 18724.19257643 0 40
0.00750000 0.00754703 70739.98834950 0 6746.91121719 0 27374.98286714 0 1356.13336175 0 -17761.61448113 0 57
0.00850000 0.00846663 62046.90745435 0 -4977.46134293 0 17796.65526766 0 4410.56952115 0 18755.71829974 0 75
0.00950000 0.00948925 58405.52164363 0 -9795.58047599 0 11391.88053266 0 13951.39578984 0 -2037.78101328 0 112
0.01050000 0.01054430 72105.91994999 0 -317.92977959 0 17808.51860605 0 8750.11279599 0 -8028.75591457 0 105
0.01150000 0.01145670 71543.83937100 0 4760.58194188 0 5167.61527888 0 3018.36282305 0 8733.71282913 0 144
0.01250000 0.01249090 68606.56466275 0 3641.53959473 0 32643.73310578 0 -14475.90913060 0 5082.57271796 0 169
0.01350000 0.01339930 68153.01166086 0 8307.02809178 0 26991.18190115 0 -13035.28243655 0 9880.56811406 0 180
0.01450000 0.01448870 57314.64374058 0 -2636.00083606 0 22902.39444920 0 13675.02394369 0 6444.20935057 0 267
0.01550000 0.01550050 63491.81813170 0 -5714.88865403 0 30698.14561018 0 26328.92202022 0 10154.32563193 0 238
0.01650000 0.01653350 71113.90320016 0 633.67802307 0 19402.92931623 0 2203.29655294 0 23027.61857662 0 315
0.01750000 0.01747870 71953.23439110 0 377.47824601 0 13214.22112390 0 -1800.90969014 0 6227.06631978 0 297
0.01850000 0.01844180 65257.47832842 0 -4051.86830351 0 15197.15616629 0 404.43548559 0 4403.79203987 0 388
0.01950000 0.01947590 73577.74283016 0 4635.53356762 0 25779.14416253 0 -2596.08289930 0 8199.93949368 0 399
0.02050000 0.02045430 65064.69907962 0 2267.00707391 0 18413.87840101 0 -1317.77523429 0 8480.36464711 0 462
0.02150000 0.02154770 66527.40476455 0 1942.80839874 0 27682.22136224 0 -934.51251236 0 2304.75006530 0 571
0.02250000 0.02255340 62478.93069397 0 -408.89522205 0 23032.23209711 0 4602.31622013 0 -2486.52277238 0 510
0.02350000 0.02348930 68585.14474621 0 2827.17633727 0 25040.76119361 0 375.92173208 0 -5398.10456536 0 555
0.02450000 0.02439640 66854.63518175 0 -1997.35778618 0 25939.51892221 0 -1729.16944661 0 8652.86637493 0 592
0.02550000 0.02547300 65956.53652750 0 -1141.31906035 0 24443.31029091 0 8886.92564749 0 -2633.74899868 0 837
0.02650000 0.02652900 69836.17771750 0 22.12029288 0 23671.86375852 0 -976.19896530 0 -3600.20464811 0 723
0.02750000 0.02749970 67599.05966559 0 4733.94435337 0 17544.11994402 0 -846.08011233 0 4131.04510267 0 826
0.02850000 0.02848090 61723.30194610 0 -103.20302524 0 28311.63737115 0 2268.14946946 0 4349.48431303 0 831
0.02950000 0.02946900 62577.46231003 0 2360.89221576 0 25032.19322699 0 129.24557945 0 118.75531263 0 996
0.03050000 0.03053250 56197.62255478 0 4157.14444713 0 26862.77224767 0 -779.97934837 0 3702.62480286 0 1041
0.03150000 0.03150510 55910.48582750 0 -585.45684790 0 27103.11469575 0 2101.86500972 0 12466.94065120 0 1036
0.03250000 0.03246190 54704.70929525 0 852.65877285 0 25156.20905144 0 8591.08913873 0 1242.16842122 0 1059
0.03350000 0.03345080 55390.91554441 0 1499.11954304 0 25596.25102905 0 -239.11986515 0 3160.77780656 0 1302
0.03450000 0.03451200 51812.80087176 0 3321.96542462 0 22745.97413564 0 -3353.43622507 0 4243.21955787 0 1339
0.03550000 0.03553350 47602.19450988 0 2403.43546537 0 28851.41926780 0 2107.43418802 0 3711.78593639 0 1365
0.03650000 0.03647120 46058.53252502 0 672.49310875 0 26188.64902836 0 -161.87964613 0 7956.30167383 0 1308
0.03750000 0.03744890 44653.38600042 0 -525.84137558 0 25422.91447371 0 7147.71630154 0 -263.21232819 0 1579
0.03850000 0.03847530 44631.74639243 0 1874.69306417 0 22851.09649524 0 179.57469410 0 -1346.11543155 0 1662
0.03950000 0.03950240 43733.31820101 0 1004.40844615 0 19270.89475381 0 -284.55864809 0 1168.09944830 0 1683
0.04050000 0.04050350 44408.64972331 0 -1753.68701261 0 21811.40670042 0 2703.07263624 0 -1644.56626859 0 1822
0.04150000 0.04152450 43670.70613729 0 -1245.44182385 0 15045.56906467 0 -554.18376976 0 -2297.35744795 0 1887
0.04250000 0.04250150 43998.48578312 0 2324.31358907 0 18338.52423310 0 2406.28046967 0 -5773.52430247 0 1920
0.04350000 0.04349210 41828.70316113 0 1346.65367561 0 16599.00731912 0 -537.28620176 0 -3758.71203046 0 2005
0.04450000 0.04448520 42702.52590997 0 397.43721439 0 17818.95395000 0 2362.46300964 0 -3501.22266458 0 2151
0.04550000 0.04548030 41053.41202833 0 335.44687749 0 16414.90588266 0 1581.30611509 0 -1449.83176587 0 2274
0.04650000 0.04648670 41122.28529842 0 -230.27398885 0 14348.04870575 0 -466.65869543 0 -3392.99167093 0 2311
0.04750000 0.04749250 40605.02177556 0 572.95860121 0 15396.41631291 0 -416.88430169 0 -7287.70369452 0 2568
0.04850000 0.04851840 39097.27934305 0 538.81195889 0 15087.96951483 0 -980.94979295 0 -5601.83543303 0 2493
0.04950000 0.04949480 39610.69826550 0 482.27656073 0 16388.10352556 0 977.54128007 0 -4041.23523725 0 2644
0.05050000 0.05050630 39666.60973994 0 932.23980429 0 16433.90919322 0 1596.40990239 0 -6115.73767667 0 2829
0.05150000 0.05149060 36826.21896186 0 319.46761975 0 14150.32639929 0 -1239.44424722 0 -2676.38012487 0 2784
0.05250000 0.05249300 36411.55134691 0 1839.65227763 0 16191.25998490 0 4050.52818565 0 -3433.52474376 0 3055
0.05350000 0.05348950 34757.38456189 0 913.39027774 0 15892.04022778 0 -294.24923802 0 -1315.71013465 0 3009
0.05450000 0.05448610 34448.71807235 0 344.02912405 0 14697.46795956 0 1262.24821989 0 644.82736424 0 3336
0.05550000 0.05550870 34301.96418266 0 41.83419545 0 14061.46120710 0 923.86626461 0 431.18841211 0 3349
0.05650000 0.05647670 32201.93359656 0 364.83500297 0 13378.55032972 0 -562.03004995 0 -530.78333479 0 3324
0.05750000 0.05747970 33618.28438520 0 -93.03746239 0 13752.68487184 0 2256.90126714 0 1172.77887622 0 3639
0.05850000 0.05849280 33133.31550573 0 -379.44338605 0 11436.03851444 0 1909.60203583 0 -1263.84098292 0 3846
0.05950000 0.05951020 34238.69304460 0 601.55034519 0 12437.50199668 0 -1602.15483385 0 -945.02804369 0 3787
0.06050000 0.06049470 32334.18785044 0 1502.53574511 0 13222.34970761 0 -1469.30741305 0 -212.15493638 0 3930
0.06150000 0.06148310 31541.32140152 0 -205.38294738 0 13692.26972264 0 1053.59296834 0 1166.48471613 0 4083
0.06250000 0.06249100 31964.99636598 0 -496.89922375 0 12699.81358992 0 2912.95486456 0 1050.58649082 0 4303
0.06350000 0.06350600 32434.58684384 0 299.23623397 0 12581.07036032 0 1844.72715017 0 3544.82043315 0 4470
0.06450000 0.06451750 32353.30100673 0 425.40393619 0 13734.67017281 0 -887.54907074 0 3545.85298298 0 4479
0.06550000 0.06550280 30240.08893353 0 1332.27487010 0 12747.81617210 0 -1714.86753311 0 3954.92945048 0 4636
0.06650000 0.06648880 30686.06258034 0 281.34675907 0 15134.10471967 0 2303.84933035 0 5374.79530234 0 4653
0.06750000 0.06749660 30689.24810639 0 19.02956369 0 13989.73194815 0 847.32136904 0 4998.51876857 0 5220
0.06850000 0.06852730 30298.30716822 0 -152.59438693 0 12899.29342800 0 2920.74292652 0 4812.62684677 0 5029
0.06950000 0.06949320 30150.34497555 0 -377.63203003 0 13227.51245673 0 -513.49032217 0 5033.41675566 0 5040
0.07050000 0.07048030 29118.12469008 0 796.49465324 0 10445.03234529 0 557.86360157 0 5154.14819290 0 5475
0.07150000 0.07148790 28975.54493797 0 880.43546154 0 11748.32991292 0 583.88056173 0 4039.87315025 0 5509
0.07250000 0.07249820 27811.83931870 0 343.75011590 0 11578.94780372 0 64.07290202 0 3496.19173034 0 5916
0.07350000 0.07351270 27730.00425297 0 392.45021844 0 10445.01037615 0 996.23921952 0 3516.17266786 0 5721
0.07450000 0.07449140 27923.55242186 0 -536.15479078 0 9669.85105823 0 947.11511248 0 2979.82894243 0 6028
0.07550000 0.07549160 27043.90784954 0 216.80470595 0 9209.31186818 0 651.68393445 0 2229.23112880 0 6183
0.07650000 0.07648840 27224.27453133 0 720.89772628 0 8131.73628252 0 -284.75197657 0 311.34233142 0 6330
0.07750000 0.07749960 26414.49184063 0 739.35620205 0 8781.04535238 0 -792.13597484 0 775.45809829 0 6583
0.07850000 0.07848650 25391.71828758 0 1242.16842122 0 10751.79850377 0 -2186.55606432 0 -553.49613552 0 6549
0.07950000 0.07947320 24369.71365461 0 -200.67166420 0 9462.83580336 0 1321.32325124 0 1101.60983047 0 6828
0.08050000 0.08048110 24143.54130516 0 -545.40929318 0 8337.14778980 0 3011.78306407 0 1259.49109218 0 7147
0.08150000 0.08149960 24453.85548059 0 466.08969457 0 7783.96471460 0 1503.00808173 0 892.51299909 0 7386
0.08250000 0.08250610 24177.37378871 0 840.17590457 0 7269.44733489 0 -237.91266062 0 3642.71494400 0 7227
0.08350000 0.08350160 23082.87097671 0 323.85925187 0 8162.70179263 0 -454.88762745 0 3006.23585492 0 7798
0.08450000 0.08449610 22236.72935077 0 392.81490625 0 7462.18264540 0 688.13514010 0 2713.28828875 0 7371
0.08550000 0.08548940 22362.50270682 0 97.70975033 0 7726.64721487 0 77.70937012 0 2616.07482140 0 8256
0.08650000 0.08650700 22280.11841246 0 253.73483897 0 8064.10426914 0 -177.20202642 0 2751.58050876 0 8037
0.08750000 0.08749060 21522.95182443 0 702.48318881 0 7677.89768175 0 362.89402900 0 3658.58765138 0 8155
0.08850000 0.08849210 21451.66194838 0 195.45728760 0 8481.19947463 0 -685.73610945 0 1458.59745479 0 8718
0.08950000 0.08949900 20898.80841036 0 180.10964279 0 7815.42453047 0 -101.37837788 0 522.57346524 0 8571
0.09050000 0.09049190 20245.88541613 0 637.20297241 0 9155.46549339 0 -497.32432671 0 595.34735705 0 8932
0.09150000 0.09150830 19671.28242440 0 164.44124846 0 8195.57861837 0 373.00752497 0 1502.50279139 0 9285
0.09250000 0.09250820 19466.96937438 0 163.21207479 0 8999.53948560 0 1074.70641530 0 1122.74414811 0 9204
0.09350000 0.09350330 19429.29229043 0 288.41752844 0 8262.06823620 0 317.84409993 0 426.16187169 0 9349
0.09450000 0.09448040 19066.47185807 0 351.85343510 0 8327.29462819 0 9.37763946 0 810.77789297 0 9564
0.09550000 0.09549270 18507.02757650 0 252.43756095 0 8315.02486062 0 -79.53467654 0 1222.94541920 0 10155
0.09650000 0.09649430 18372.57640810 0 247.40223288 0 8067.19093404 0 23.64934538 0 1386.58259694 0 9913
0.09750000 0.09749140 18028.86913203 0 89.60566222 0 8055.31661108 0 -160.00677651 0 -141.99756976 0 10476
0.09850000 0.09850240 17779.84887161 0 151.61785843 0 8043.35441154 0 821.83166836 0 835.69529742 0 10575
0.09950000 0.09950330 17868.49437235 0 263.69345247 0 8657.39201883 0 201.51967321 0 582.45476421 0 10882
0.10050000 0.10051200 17209.09048029 0 232.31052861 0 7274.99454404 0 716.24246442 0 1569.22308525 0 10875
0.10150000 0.10150300 17016.97030584 0 319.11831035 0 7417.29968183 0 586.94525748 0 335.78849770 0 11118
0.10250000 0.10250800 16575.17079662 0 175.63342946 0 6666.98746709 0 61.03731539 0 1431.53146795 0 11575
0.10350000 0.10349800 16561.11054371 0 16.15490105 0 7021.28387113 0 891.95168743 0 780.99212596 0 11364
0.10450000 0.10450100 16066.58508610 0 125.35594230 0 5858.76458570 0 30.61169702 0 786.88205378 0 12093
0.10550000 0.10551000 15944.87602190 0 232.57855218 0 6366.28479268 0 -57.91681801 0 739.23207638 0 12067
0.10650000 0.10649700 15515.15954252 0 368.59941600 0 5135.73804925 0 179.90313282 0 -668.48373975 0 12054
0.10750000 0.10749900 15518.12537712 0 309.54745226 0 5839.45370710 0 -319.86855665 0 -302.13945651 0 12807
0.10850000 0.10850100 15188.80789113 0 -7.92819215 0 5699.31253011 0 120.58314551 0 -1015.27438535 0 12736
0.10950000 0.10950300 15013.60395845 0 143.16193445 0 5817.18797848 0 123.15133858 0 -877.25982161 0 12933
0.11050000 0.11050200 14791.16636368 0 110.66517493 0 5836.29015020 0 -89.70770890 0 -1239.53212380 0 13428
0.11150000 0.11150900 14475.57959342 0 147.39209335 0 5100.53249413 0 262.21053517 0 -1077.06040920 0 13453
0.11250000 0.11250000 14248.19894099 0 393.14114806 0 6115.12254061 0 563.48440736 0 163.52183973 0 13668
0.11350000 0.11349100 14096.17245646 0 153.37319312 0 5943.14807227 0 -321.02852752 0 103.80157460 0 13791
0.11450000 0.11448600 13745.21536249 0 165.28266672 0 5985.90002876 0 423.95287415 0 841.82359046 0 14205
0.11550000 0.11549300 14071.34732243 0 -163.25930845 0 6061.93524017 0 646.46516401 0 420.43890938 0 14776
0.11650000 0.11649800 14354.74929503 0 -460.43813198 0 4869.50496360 0 1122.33771893 0 1711.06687100 0 14553
0.11750000 0.11747300 14691.53629037 0 -300.24242082 0 4061.56768110 0 457.63926288 0 555.80289576 0 14568
0.11850000 0.11849100 14568.94846036 0 349.25448522 0 4050.73689253 0 -250.31424307 0 716.55442628 0 16015
0.11950000 0.11950300 13958.97514492 0 524.50455310 0 4279.19403308 0 -476.12080625 0 1087.84835794 0 15270
0.12050000 0.12050700 13817.49385007 0 170.13784780 0 4280.69891952 0 33.42166054 0 683.60290545 0 15999
0.12150000 0.12150000 13404.58376674 0 126.50712550 0 4215.30775895 0 393.26417527 0 202.83452654 0 15670
0.12250000 0.12250700 13114.26151341 0 172.09310172 0 3768.04891715 0 -59.39215595 0 -206.69560381 0 16887
0.12350000 0.12352200 13173.79789680 0 263.30789398 0 3866.31690346 0 286.43920692 0 327.63025564 0 16407
0.12450000 0.12449800 12753.63799557 0 -91.72535519 0 3710.91815516 0 24.41288302 0 -608.18063320 0 16306
0.12550000 0.12549900 12935.21298034 0 -78.00738157 0 3576.89538509 0 442.66509354 0 124.76716921 0 17523
0.12650000 0.12650100 12776.70559799 0 -88.80137182 0 2905.04597230 0 212.29444045 0 58.03039849 0 17154
0.12750000 0.12750600 12928.29269961 0 255.73842501 0 2937.31864654 0 129.89916152 0 -279.29484091 0 18007
0.12850000 0.12850300 12753.96753275 0 289.52147798 0 3404.80008646 0 -404.54752823 0 565.97351151 0 17496
0.12950000 0.12949900 12634.67507451 0 105.02888089 0 3728.74611645 0 -29.32452481 0 19.48531361 0 18405
0.13050000 0.13049000 12366.10227490 0 167.04349370 0 3915.52778863 0 -256.06466682 0 327.77635046 0 18100
0.13150000 0.13148800 12205.72751521 0 197.19394852 0 4050.01191074 0 -23.52236373 0 -108.33260094 0 19059
0.13250000 0.13249300 12159.26277319 0 1.10850814 0 4428.99064937 0 -185.71946400 0 49.14311035 0 18957
0.13350000 0.13349100 11883.98938430 0 155.83263893 0 4305.23845467 0 -75.44325279 0 251.91139992 0 19468
0.13450000 0.13450700 11923.20430842 0 123.75768699 0 4454.35402746 0 397.64042899 0 -73.66539972 0 19953
0.13550000 0.13551000 11701.09625082 0 -10.71394567 0 4232.91602879 0 -103.17149951 0 281.37312204 0 19956
0.13650000 0.13649900 11848.28952341 0 97.13360950 0 4011.62082957 0 502.50135576 0 22.50991567 0 19723
0.13750000 0.13749600 11829.28621285 0 35.29958306 0 4168.96384722 0 475.44745195 0 499.73104656 0 20946
0.13850000 0.13851100 11653.53305155 0 32.29859784 0 3755.72422671 0 -202.84990495 0 216.65861114 0 20955
0.13950000 0.13949800 11406.70970564 0 233.28705711 0 3729.08663820 0 329.20544335 0 746.86086204 0 20506
0.14050000 0.14048300 11293.12922515 0 4.40201254 0 3471.55333404 0 320.04650673 0 1076.74075814 0 21447
0.14150000 0.14148400 11439.22404049 0 100.88231459 0 3539.83343720 0 400.40304899 0 896.52126963 0 21771
0.14250000 0.14249400 11076.18391667 0 146.96808885 0 3465.61068027 0 -183.07218201 0 770.31731833 0 22470
0.14350000 0.14350900 10691.27350885 0 336.12901945 0 3477.55091066 0 -395.36662246 0 875.21888802 0 22519
0.14450000 0.14449900 10508.00689990 0 52.04193906 0 3505.51763246 0 248.17554679 0 1168.18732488 0 22218
0.14550000 0.14550500 10660.24209131 0 -52.00481120 0 3209.15386421 0 500.33959188 0 356.32964842 0 23559
0.14650000 0.14650700 10592.69795450 0 145.72463524 0 3140.89573019 0 204.74474372 0 725.64196318 0 23044
0.14750000 0.14750500 10575.07870008 0 -18.44090045 0 2662.33085654 0 -87.08074837 0 429.19031836 0 23649
0.14850000 0.14849900 10335.62600238 0 37.91885440 0 2969.86593510 0 7.98114878 0 482.01183253 0 23640
0.14950000 0.14949500 10323.47706511 0 181.03893763 0 3033.03821202 0 -154.01798753 0 -23.64308418 0 24457
0.15050000 0.15050000 10037.90014714 0 213.49066040 0 2754.30468276 0 -39.53699178 0 435.63826246 0 24591
0.15150000 0.15149900 10041.98640814 0 104.02093651 0 3269.16258422 0 174.87988778 0 27.34180946 0 25020
0.15250000 0.15250500 9761.08891809 0 49.41025516 0 3034.34537615 0 -124.35195236 0 53.21772770 0 25297
0.15350000 0.15350100 9788.14392036 0 232.85316649 0 3259.03480830 0 -27.93332869 0 25.70181277 0 25452
0.15450000 0.15450400 9447.32558687 0 131.25905160 0 3101.10960830 0 -187.06507415 0 222.65508931 0 26061
0.15550000 0.15549900 9537.19037516 0 0.33814689 0 3117.13609970 0 547.87203435 0 279.87262943 0 26128
0.15650000 0.15649500 9373.77288887 0 -1.55483330 0 2900.47639010 0 274.23424832 0 548.31031880 0 26331
0.15750000 0.15749700 9320.13522096 0 71.45343634 0 2672.50257075 0 434.72544448 0 604.40962943 0 27345
0.15850000 0.15849900 9237.21268254 0 223.91611824 0 2553.12223594 0 -67.82215633 0 710.38878569 0 26980
0.15950000 0.15949700 8886.49724916 0 196.95448484 0 2809.12868452 0 -231.63168202 0 950.26219252 0 27777
0.16050000 0.16050000 8863.04518670 0 -23.39659037 0 2764.95971817 0 -31.90524029 0 624.70582419 0 28224
0.16150000 0.16150500 8712.69934178 0 133.88656136 0 2821.80488128 0 154.81546750 0 583.05562033 0 28075
0.16250000 0.16249700 8830.81645075 0 32.43524592 0 2595.69843926 0 137.46094128 0 783.33183992 0 28590
0.16350000 0.16349900 8917.14420666 0 -224.71909050 0 2476.21924329 0 251.68511773 0 282.66161241 0 29163
0.16450000 0.16449100 8833.67243962 0 113.30037389 0 2539.51235051 0 -160.64388172 0 199.82475366 0 28996
0.16550000 0.16550500 8698.01296824 0 254.39281487 0 2585.33998732 0 -344.91118523 0 355.53766074 0 30777
0.16650000 0.16650700 8529.13614937 0 131.35132201 0 2595.33594837 0 17.87058144 0 519.57467693 0 29211
0.16750000 0.16749900 8546.94214153 0 -82.82356742 0 2727.80989370 0 308.26445418 0 -94.37615225 0 30922
0.16850000 0.16850800 8451.46423665 0 89.45253728 0 2338.09922766 0 200.52776630 0 -65.32602206 0 30867
0.16950000 0.16949900 8373.12226500 0 103.80377151 0 2467.25583207 0 -212.86124440 0 290.68584268 0 30852
0.17050000 0.17049200 8265.08899366 0 140.28177952 0 2198.68303245 0 -38.22664212 0 -112.53584764 0 31257
0.17150000 0.17149500 8028.52523855 0 75.22476964 0 2581.50637149 0 203.70011086 0 -52.15266355 0 32608
0.17250000 0.17250900 8028.22865509 0 -8.21822881 0 2103.39186531 0 268.07080465 0 137.05451210 0 32361
0.17350000 0.17350400 8102.17679771 0 9.12223716 0 2212.46867104 0 62.46805597 0 257.11918578 0 32508
0.17450000 0.17449800 7983.33470695 0 152.08580122 0 1989.98713798 0 195.10578128 0 44.82924901 0 32791
0.17550000 0.17549800 7913.45085619 0 102.05228141 0 2179.33920014 0 -116.40571256 0 460.18109298 0 33633
0.17650000 0.17650100 7772.34303681 0 54.74304545 0 2252.62826840 0 -124.63315742 0 338.34021391 0 33984
0.17750000 0.17750300 7721.91286409 0 -35.12448898 0 2170.97994040 0 64.10256037 0 96.70169611 0 34069
0.17850000 0.17849800 7741.20177354 0 125.95789688 0 2125.21821103 0 41.59418254 0 -53.27396872 0 34536
