### header ###
fiducial parameters:
Omega_m = 0.31
Omega_nu = 0
Omega_de = 0.69
Omega_k = 0
H_0 = 100
w_de = -1
zeff = 0
beta = 0
fgrowth = 0
b_1 = 2
gamma = 0.55
Lx = 3500 Ly = 3500 Lz = 3500
nx = 700 ny = 700 nz = 700
xoffset = -983.599254 yoffset = -42.9823471 zoffset = 800.977702
bins = 400 dk = 0.001
kx_ny = 0.628318531 ky_ny = 0.628318531 kz_ny = 0.628318531
############################
A(data) = 9.0712116 (not used)
A(ran) = 9.06324212 (used)
Ngal = 502744
weighted Ngal = 0
Nran = 25229228
weighted Nran = 0
SN(data) = 6724.65348
SN(ran) = 134.537585
SN(data+ran) = 6859.19106
############################
13 columns: k_central k_mean P_0(k) sigma^{lin}_{P_0(k)} P^img_1(k) sigma^{lin}_{P_1(k)} P_2(k) sigma^{lin}_{P_2(k)} P^img_3(k) sigma^{lin}_{P_3(k)} P_4(k) sigma^{lin}_{P_4(k)} N_modes
### header ###
0.00050000 0 0 0 0 0 0 0 0 0 0 0 0
0.00150000 0.00179520 103492.79826101 0 -47117.11578469 0 -24534.48224333 0 -13754.66209491 0 -132096.07603420 0 3
0.00250000 0.00253879 127019.00658710 0 -14326.84848067 0 9788.45148839 0 -126638.94037579 0 58723.96440276 0 6
0.00350000 0.00331552 72238.61358677 0 40827.67906179 0 -4835.84823321 0 -6285.06486301 0 120113.00580521 0 7
0.00450000 0.00420575 65322.06761520 0 14558.73280786 0 19952.26779103 0 -2929.29990856 0 179.14080349 0 24
0.00550000 0.00557378 86867.31812197 0 -12955.86397679 0 21711.44708993 0 9229.36969772 0 -51069.91422808 0 45
0.00650000 0.00659388 100573.53825179 0 -5899.60522656 0 39533.36687453 0 -11874.43280616 0 35947.45315535 0 40
0.00750000 0.00754703 77695.63939945 0 -1281.87765110 0 20557.73743171 0 -714.62773225 0 13465.32845311 0 57
0.00850000 0.00846663 80925.54312127 0 10583.30614495 0 15654.44392285 0 16094.70559191 0 5472.55799832 0 75
0.00950000 0.00948925 110394.95444250 0 -2675.06197616 0 25635.13641598 0 -8533.55194755 0 -17763.48185847 0 112
0.01050000 0.01054430 80451.11943148 0 14704.60793174 0 40956.52809817 0 -2446.98929566 0 13183.79385785 0 105
0.01150000 0.01145670 87554.18344548 0 1693.23890970 0 30964.08211237 0 -2704.46767696 0 16377.33864443 0 144
0.01250000 0.01249090 80921.58867514 0 -5053.66132293 0 41546.94887441 0 24712.65201060 0 -10707.05833965 0 169
0.01350000 0.01339930 81467.52193244 0 5353.22160179 0 34344.69417001 0 19647.22621044 0 7016.89004210 0 180
0.01450000 0.01448870 83323.25562433 0 2141.44242473 0 36761.73952080 0 -14959.66970708 0 -3174.80510575 0 267
0.01550000 0.01550050 74333.04204085 0 10497.65943253 0 44981.60502915 0 1107.83808312 0 14994.16126499 0 238
0.01650000 0.01653350 73049.71442617 0 608.94296253 0 48668.24727890 0 1697.22630954 0 -10287.72228136 0 315
0.01750000 0.01747870 67040.27445837 0 1055.15058073 0 51963.28951612 0 -6632.06751086 0 -2928.89347937 0 297
0.01850000 0.01844180 67688.58393212 0 1811.04845063 0 47036.92840484 0 19370.08544421 0 -1533.99556098 0 388
0.01950000 0.01947590 72588.69191494 0 -6998.65565161 0 32798.83527063 0 24532.72471172 0 6474.37298688 0 399
0.02050000 0.02045430 84034.28700752 0 -4999.28768865 0 21198.13801320 0 9523.39375200 0 -14464.37532939 0 462
0.02150000 0.02154770 76026.75328717 0 6994.26182258 0 24703.64466109 0 -8957.24888116 0 947.03053127 0 571
0.02250000 0.02255340 73828.85015937 0 3895.48094367 0 26239.72729086 0 -8149.35553695 0 10672.30315200 0 510
0.02350000 0.02348930 70108.48527179 0 1707.13439401 0 35617.03721210 0 3537.41683123 0 -12673.23092427 0 555
0.02450000 0.02439640 67642.44872728 0 3668.82527302 0 32921.64279209 0 1643.83030223 0 -4771.63242190 0 592
0.02550000 0.02547300 65747.93949418 0 1580.70196360 0 32355.60776698 0 3769.89432534 0 -1290.02820395 0 837
0.02650000 0.02652900 61054.01193872 0 -1286.39231043 0 33160.33755428 0 9188.34231912 0 12953.88675373 0 723
0.02750000 0.02749970 65001.86732445 0 36.44681182 0 26216.43999699 0 8416.55526499 0 -2142.01362251 0 826
0.02850000 0.02848090 63332.43198354 0 5603.17555088 0 30008.53414352 0 -2598.98282646 0 7869.94096419 0 831
0.02950000 0.02946900 59239.79993118 0 2532.92160696 0 33843.68781457 0 -4828.34577014 0 3556.37620351 0 996
0.03050000 0.03053250 54035.41928787 0 216.12915474 0 32711.39807289 0 4246.28425362 0 5653.61670817 0 1041
0.03150000 0.03150510 53401.60944993 0 2574.13572328 0 34989.70827198 0 235.80911498 0 2911.72459243 0 1036
0.03250000 0.03246190 53258.59031492 0 174.23069954 0 25533.63896533 0 10260.78810939 0 9007.59117730 0 1059
0.03350000 0.03345080 54635.17695081 0 -1468.00024892 0 28253.19944502 0 5393.28233800 0 4708.27340725 0 1302
0.03450000 0.03451200 53318.67592694 0 -203.45515489 0 20907.26653125 0 55.43770982 0 -2339.01094718 0 1339
0.03550000 0.03553350 52407.50563131 0 3510.72431986 0 21283.70783361 0 -958.05794369 0 1371.23714905 0 1365
0.03650000 0.03647120 50608.78187112 0 428.14678396 0 22292.09159658 0 1418.71247174 0 3943.85700132 0 1308
0.03750000 0.03744890 51711.85264974 0 -789.24483534 0 19657.22217149 0 2806.73404769 0 344.81122561 0 1579
0.03850000 0.03847530 51115.71989575 0 -217.54396769 0 15687.94686922 0 2861.42623458 0 -4440.74414203 0 1662
0.03950000 0.03950240 50033.40995931 0 1085.66462491 0 16483.77915274 0 -398.23908819 0 443.93820550 0 1683
0.04050000 0.04050350 47369.98064551 0 2577.39814134 0 18137.50655486 0 -692.76513744 0 -2074.65622344 0 1822
0.04150000 0.04152450 45711.85941436 0 549.33298251 0 16818.69877075 0 1356.59471380 0 168.92954481 0 1887
0.04250000 0.04250150 46702.33832402 0 -994.21805817 0 15900.38850295 0 5551.96547351 0 735.01509896 0 1920
0.04350000 0.04349210 45108.36699674 0 -66.48192863 0 17204.03757690 0 92.86083046 0 -4917.06816288 0 2005
0.04450000 0.04448520 45019.50180455 0 2162.77446469 0 13009.13915381 0 -2647.31494582 0 -726.88981063 0 2151
0.04550000 0.04548030 42420.00270318 0 1843.22226372 0 13222.02017044 0 -420.11156912 0 1229.20662557 0 2274
0.04650000 0.04648670 40599.09010637 0 596.98076299 0 16716.54224574 0 2817.92732715 0 947.29416101 0 2311
0.04750000 0.04749250 39832.80632310 0 584.72637382 0 15217.03824266 0 3404.18495039 0 2967.71295887 0 2568
0.04850000 0.04851840 38737.31489956 0 1013.87385234 0 11756.12895946 0 3582.54145540 0 6490.82787661 0 2493
0.04950000 0.04949480 39670.23464889 0 -176.37708502 0 12435.74446506 0 1780.63216915 0 7172.05811438 0 2644
0.05050000 0.05050630 36760.97060072 0 1075.05682316 0 11708.56576018 0 240.99603015 0 7630.54318936 0 2829
0.05150000 0.05149060 36641.34860531 0 33.55259664 0 10188.81718983 0 847.00171797 0 8638.03720194 0 2784
0.05250000 0.05249300 35999.73972084 0 997.38930427 0 11484.91986242 0 -383.68562798 0 6247.06922645 0 3055
0.05350000 0.05348950 35918.34403801 0 965.26821713 0 12943.23171832 0 -512.44898469 0 8691.48813212 0 3009
0.05450000 0.05448610 34046.24333297 0 61.41364685 0 12543.94250499 0 939.77961491 0 6660.60543042 0 3336
0.05550000 0.05550870 36350.80666054 0 -1235.27010963 0 10704.35613479 0 1214.12480742 0 2755.05163370 0 3349
0.05650000 0.05647670 35666.46778872 0 47.30572090 0 11165.92787466 0 1838.72957354 0 2974.13893383 0 3324
0.05750000 0.05747970 35646.36602089 0 644.21003126 0 9904.03116109 0 -1369.30386427 0 3147.28875143 0 3639
0.05850000 0.05849280 34371.38668138 0 1356.83637439 0 11264.67918217 0 -2187.97307419 0 3960.83915053 0 3846
0.05950000 0.05951020 33768.88287529 0 349.92015032 0 13599.34023861 0 450.44436784 0 428.33901398 0 3787
0.06050000 0.06049470 32901.76071572 0 1145.99848827 0 13465.32845311 0 348.57454018 0 2116.11200036 0 3930
0.06150000 0.06148310 33671.55956222 0 -207.08006385 0 12099.50669835 0 789.65455990 0 1593.13649976 0 4083
0.06250000 0.06249100 33020.83348250 0 -894.05633154 0 12661.91681451 0 1708.33171242 0 1917.21434463 0 4303
0.06350000 0.06350600 32469.40793892 0 794.65034351 0 11320.37096515 0 428.23136517 0 1959.26328847 0 4470
0.06450000 0.06451750 33017.09872782 0 517.79297925 0 12839.20781598 0 1314.11737162 0 4280.73187324 0 4479
0.06550000 0.06550280 31557.68841467 0 590.57456026 0 11284.23172136 0 -848.00351099 0 1970.86299712 0 4636
0.06650000 0.06648880 30722.86089848 0 1134.12416531 0 13026.82431567 0 -581.35191312 0 2948.84146318 0 4653
0.06750000 0.06749660 30175.27995530 0 500.78556553 0 12749.35401226 0 638.53869644 0 2448.80175013 0 5220
0.06850000 0.06852730 28411.70682737 0 -83.47649041 0 12357.09492538 0 1147.26171411 0 2830.25201759 0 5029
0.06950000 0.06949320 29406.79925751 0 681.00066021 0 12441.67613426 0 230.99677373 0 2466.05851366 0 5040
0.07050000 0.07048030 28586.69106859 0 107.31553937 0 11868.83067414 0 -254.61360478 0 1281.13070016 0 5475
0.07150000 0.07148790 29337.48660453 0 -753.53728525 0 10459.67478054 0 2606.90270329 0 1785.37750451 0 5509
0.07250000 0.07249820 29349.78932582 0 -548.96060550 0 9686.40480911 0 816.61179947 0 248.12501775 0 5916
0.07350000 0.07351270 29256.31061315 0 1090.21663178 0 9738.52660601 0 -1733.48638363 0 -166.18669704 0 5721
0.07450000 0.07449140 28389.62783648 0 1062.31471897 0 9936.84207939 0 169.99614681 0 2724.87701282 0 6028
0.07550000 0.07549160 27818.43006225 0 -218.87969171 0 10396.82105623 0 -100.93526023 0 -1626.87012216 0 6183
0.07650000 0.07648840 27314.67756367 0 559.67385913 0 9312.50094301 0 733.83425741 0 1020.76337627 0 6330
0.07750000 0.07749960 26949.55037107 0 594.68828270 0 11287.74678459 0 581.71989631 0 -1151.21616024 0 6583
0.07850000 0.07848650 26054.52739714 0 546.86035522 0 9083.40669725 0 522.25051881 0 2042.14188860 0 6549
0.07950000 0.07947320 25292.30790572 0 335.05143288 0 9974.34341018 0 571.84806093 0 -458.06656276 0 6828
0.08050000 0.08048110 24190.33558436 0 552.57452988 0 9352.89121639 0 438.86223451 0 1997.39073990 0 7147
0.08150000 0.08149960 23887.16138111 0 817.00504717 0 9001.36292464 0 809.89693025 0 -463.60059042 0 7386
0.08250000 0.08250610 22722.02776741 0 511.28462000 0 8983.19444160 0 -486.40016927 0 981.32985916 0 7227
0.08350000 0.08350160 22378.54018279 0 562.55950635 0 9191.18732342 0 -229.49737957 0 330.34124815 0 7798
0.08450000 0.08449610 21387.18250733 0 476.26909798 0 8961.09348156 0 -141.95692684 0 10.58649167 0 7371
0.08550000 0.08548940 21220.21700409 0 -26.65494413 0 7999.84451954 0 1613.43598989 0 588.82801322 0 8256
0.08650000 0.08650700 21527.23580774 0 -325.77386287 0 7325.23797903 0 1252.85641034 0 10.23116272 0 8037
0.08750000 0.08749060 21184.40729748 0 -96.64161050 0 8131.01130073 0 -212.11978575 0 147.64254161 0 8155
0.08850000 0.08849210 21129.04505167 0 763.58707071 0 7458.05244611 0 -634.78856336 0 -570.83418488 0 8718
0.08950000 0.08949900 20502.15549445 0 475.52434396 0 7741.59721815 0 -1230.20622167 0 -47.96973831 0 8571
0.09050000 0.09049190 20516.87482171 0 373.34475135 0 9619.04741004 0 -421.99432486 0 -911.99853240 0 8932
0.09150000 0.09150830 20537.74550961 0 105.14707489 0 9674.08011867 0 -288.48343587 0 -1868.32201207 0 9285
0.09250000 0.09250820 20292.13046669 0 -348.43064228 0 9693.43493556 0 161.16564891 0 -1463.36475929 0 9204
0.09350000 0.09350330 20167.45556789 0 -24.64158183 0 8861.02402535 0 185.62279977 0 -1318.63203095 0 9349
0.09450000 0.09448040 20135.05107878 0 224.17645261 0 8718.05981320 0 1153.34716732 0 -1029.15998355 0 9564
0.09550000 0.09549270 19995.43716127 0 598.00562361 0 8949.98807868 0 1173.08644425 0 -723.83939482 0 10155
0.09650000 0.09649430 19871.75087400 0 426.44966750 0 8584.33362659 0 -476.91608931 0 -236.49674922 0 9913
0.09750000 0.09749140 18865.89356273 0 488.42572446 0 9683.59275853 0 -349.90587038 0 -384.00088521 0 10476
0.09850000 0.09850240 18046.00506526 0 352.45868505 0 9285.56677104 0 -288.32635649 0 208.78486951 0 10575
0.09950000 0.09950330 17629.57991870 0 134.14689574 0 8935.36761258 0 761.41102688 0 37.05975097 0 10882
0.10050000 0.10051200 17354.63606699 0 267.07999620 0 9175.04000173 0 366.48818115 0 -768.39282121 0 10875
0.10150000 0.10150300 17344.74995167 0 545.06218069 0 9336.13974321 0 204.03404187 0 -204.86886939 0 11118
0.10250000 0.10250800 16415.01572838 0 27.54886865 0 8596.19696498 0 249.31245005 0 -199.27991886 0 11575
0.10350000 0.10349800 16665.57382896 0 -325.51352850 0 8082.73410424 0 929.09711808 0 -394.02760307 0 11364
0.10450000 0.10450100 16351.74459031 0 671.83073902 0 8356.40374553 0 248.49959168 0 450.39054344 0 12093
0.10550000 0.10551000 16139.30295659 0 235.67620165 0 7174.41979749 0 388.39361579 0 463.66539940 0 12067
0.10650000 0.10649700 16071.41829804 0 -227.42129535 0 7027.12766374 0 826.97025141 0 -214.62316984 0 12054
0.10750000 0.10749900 15809.43624197 0 261.21752981 0 7263.90012574 0 240.08211371 0 -73.02302191 0 12807
0.10850000 0.10850100 15348.30388501 0 426.93848098 0 6460.14796539 0 -260.35084704 0 864.55067113 0 12736
0.10950000 0.10950300 14817.96872078 0 42.36815552 0 6764.18994987 0 665.35643194 0 1149.17302974 0 12933
0.11050000 0.11050200 14892.22443143 0 170.88479873 0 6100.57896651 0 612.74032928 0 862.83268398 0 13428
0.11150000 0.11150900 14816.43088062 0 -12.46946710 0 5684.64812572 0 546.58464245 0 1230.86529603 0 13453
0.11250000 0.11250000 14856.96395344 0 -143.49147163 0 5469.97662376 0 1045.07553076 0 955.58531640 0 13668
0.11350000 0.11349100 14713.94481844 0 161.72586212 0 5010.87641272 0 -615.07894478 0 510.75186823 0 13791
0.11450000 0.11448600 14621.78425448 0 252.28158002 0 4728.48502080 0 -53.50387582 0 1679.37637910 0 14205
0.11550000 0.11549300 14533.57813665 0 -206.58905345 0 5108.55123211 0 123.48197422 0 181.05980832 0 14776
0.11650000 0.11649800 14305.64825559 0 103.88373920 0 5089.47102954 0 101.78898121 0 573.11787752 0 14553
0.11750000 0.11747300 14631.01129545 0 419.76225971 0 5155.07089700 0 -462.08911324 0 -283.32398213 0 14568
0.11850000 0.11849100 14161.53066332 0 134.57749098 0 5318.47739872 0 -6.99673335 0 3.76154605 0 16015
0.11950000 0.11950300 13987.31534218 0 2.99807432 0 5246.27580314 0 600.96047364 0 411.30413882 0 15270
0.12050000 0.12050700 14206.23787373 0 -39.64266337 0 4994.33364641 0 890.22051880 0 894.43969312 0 15999
0.12150000 0.12150000 14067.72241347 0 -21.96826640 0 4605.66651477 0 -130.77682887 0 952.05487477 0 15670
0.12250000 0.12250700 13669.97104030 0 380.87906969 0 4804.68500080 0 -30.78777972 0 604.19872564 0 16887
0.12350000 0.12352200 13331.86589625 0 299.17032654 0 4487.98878870 0 -189.63656259 0 1247.66070751 0 16407
0.12450000 0.12449800 13308.13921947 0 52.84238486 0 5164.15513852 0 172.80270511 0 513.45407308 0 16306
0.12550000 0.12549900 13114.92058777 0 275.20089071 0 5056.72601868 0 87.16730680 0 1003.42312999 0 17523
0.12650000 0.12650100 12833.93522114 0 41.41227801 0 4573.15217993 0 -149.76915486 0 144.23402874 0 17154
0.12750000 0.12750600 12830.31031219 0 -134.45336531 0 4490.91068501 0 399.16948149 0 -49.41904281 0 18007
0.12850000 0.12850300 12838.10935872 0 71.29624711 0 4042.94883057 0 702.84128587 0 242.96556401 0 17496
0.12950000 0.12949900 12600.84259096 0 258.25718750 0 3903.13719076 0 -43.88622345 0 -46.18188928 0 18405
0.13050000 0.13049000 12483.19781862 0 -19.78178722 0 3494.26943013 0 150.41944156 0 598.86791256 0 18100
0.13150000 0.13148800 12422.12359506 0 68.83713084 0 3361.49890134 0 534.36979774 0 -400.91273316 0 19059
0.13250000 0.13249300 12196.39062852 0 155.45696654 0 3263.80211280 0 80.57974878 0 289.41712454 0 18957
0.13350000 0.13349100 12069.18927803 0 210.66103451 0 3318.07688593 0 -196.43052073 0 -315.64938233 0 19468
0.13450000 0.13450700 11821.15762914 0 184.04321823 0 3344.76939730 0 68.39192611 0 149.91195430 0 19953
0.13550000 0.13551000 11597.07234848 0 -71.74156168 0 2743.07844959 0 127.69236089 0 184.02674137 0 19956
0.13650000 0.13649900 11943.19623052 0 -116.82422477 0 2912.86698798 0 521.89901248 0 -214.02670755 0 19723
0.13750000 0.13749600 11836.64587648 0 189.08953087 0 2658.83776246 0 131.52927209 0 71.46991320 0 20946
0.13850000 0.13851100 11534.78982194 0 167.75968783 0 2841.22560560 0 -122.48896885 0 112.46664483 0 20955
0.13950000 0.13949800 11351.34745983 0 156.84981035 0 2876.84857448 0 -249.81883885 0 427.60194916 0 20506
0.14050000 0.14048300 10991.93224497 0 269.09456681 0 3044.42921378 0 -212.63935603 0 158.82813187 0 21447
0.14150000 0.14148400 10874.83670126 0 315.12322130 0 3242.72271802 0 -83.28810499 0 476.05050499 0 21771
0.14250000 0.14249400 10638.45968388 0 -11.87410327 0 3435.50196682 0 288.36150712 0 167.00944153 0 22470
0.14350000 0.14350900 10769.20905131 0 121.24331832 0 3452.80266864 0 129.08959852 0 390.93434743 0 22519
0.14450000 0.14449900 10452.89729926 0 34.20255380 0 3314.83643702 0 80.69146188 0 546.42097232 0 22218
0.14550000 0.14550500 10368.19526009 0 71.20913944 0 3194.33567580 0 152.46916280 0 378.83154536 0 23559
0.14650000 0.14650700 10501.91046212 0 21.10070485 0 3179.31976508 0 145.22264027 0 157.85819411 0 23044
0.14750000 0.14750500 10393.20713185 0 99.86151826 0 3026.55731419 0 -0.97608582 0 527.71204829 0 23649
0.14850000 0.14849900 10393.45977702 0 -53.23167811 0 2993.75738046 0 3.88767091 0 481.17700501 0 23640
0.14950000 0.14949500 10252.62657196 0 61.64157673 0 3025.29408835 0 -175.38517812 0 -357.79499041 0 24457
0.15050000 0.15050000 10153.16126723 0 394.86352904 0 2998.20613236 0 -199.44139207 0 -341.54001990 0 24591
0.15150000 0.15149900 9832.04925696 0 66.52388970 0 3503.09004192 0 -163.58445180 0 -265.10167468 0 25020
0.15250000 0.15250500 9924.08899062 0 -28.02944370 0 3142.56538522 0 410.68680584 0 -192.50243757 0 25297
0.15350000 0.15350100 9744.55713635 0 91.74534711 0 2867.51168779 0 276.58934068 0 -290.93299556 0 25452
0.15450000 0.15450400 9720.68766013 0 69.98853374 0 2458.89657233 0 122.11439493 0 -341.14567374 0 26061
0.15550000 0.15549900 9566.72789083 0 42.91178202 0 2651.71975943 0 327.21723571 0 216.15661617 0 26128
0.15650000 0.15649500 9286.01713852 0 258.98107084 0 2485.40234597 0 -63.14184965 0 -254.18081262 0 26331
0.15750000 0.15749700 9268.07933149 0 225.18593483 0 2603.06908746 0 -369.65393496 0 -209.54170656 0 27345
0.15850000 0.15849900 9008.26123623 0 51.22875115 0 2548.64053032 0 408.73924112 0 -189.93863833 0 26980
0.15950000 0.15949700 8800.14752410 0 82.83762767 0 2638.41744203 0 36.51074204 0 225.82633541 0 27777
0.16050000 0.16050000 8886.74989433 0 12.23022311 0 2196.25544191 0 405.30546373 0 262.31708553 0 28224
0.16150000 0.16150500 8936.31228582 0 -22.13149715 0 2217.80717332 0 105.26362121 0 208.68051607 0 28075
0.16250000 0.16249700 8663.89488580 0 138.45504510 0 2287.27361032 0 40.99156888 0 507.30490935 0 28590
0.16350000 0.16349900 8590.13348092 0 43.56580347 0 2219.75144267 0 35.78894577 0 555.52937990 0 29163
0.16450000 0.16449100 8540.23056768 0 109.07362021 0 2257.96677068 0 -74.97651830 0 572.73012210 0 28996
0.16550000 0.16550500 8467.69943493 0 140.84418964 0 2338.99996261 0 169.22063599 0 690.11016625 0 30777
0.16650000 0.16650700 8402.09956747 0 -129.75306670 0 2024.34688102 0 143.68699702 0 614.49236860 0 29211
0.16750000 0.16749900 8570.88850975 0 46.09577023 0 2041.29607651 0 162.89901447 0 591.52362733 0 30922
0.16850000 0.16850800 8670.52956764 0 -36.30368284 0 1922.05854114 0 -50.28308929 0 306.66510041 0 30867
0.16950000 0.16949900 8282.68627894 0 176.16618123 0 1865.87245238 0 -295.54102376 0 223.69642679 0 30852
0.17050000 0.17049200 8159.06589911 0 372.54177910 0 2179.51495330 0 -532.26075980 0 241.36071796 0 31257
0.17150000 0.17149500 7869.05121381 0 30.16923844 0 2466.44297370 0 125.00882980 0 386.96562135 0 32608
0.17250000 0.17250900 7915.17543408 0 42.04070541 0 2448.08775291 0 313.32834214 0 -258.32309494 0 32361
0.17350000 0.17350400 7826.20039617 0 130.54725130 0 2276.30002231 0 280.29773239 0 585.61941957 0 32508
0.17450000 0.17449800 7751.57121006 0 -5.87356080 0 2375.39185157 0 1.29994727 0 326.28903933 0 32791
0.17550000 0.17549800 7870.43526996 0 6.72388755 0 2461.23628629 0 137.52025797 0 651.11493359 0 33633
0.17650000 0.17650100 7811.53599178 0 91.51983384 0 2188.68707141 0 -118.05120153 0 182.80635536 0 33984
0.17750000 0.17750300 7756.94266605 0 -67.12683289 0 2128.88705827 0 65.58108384 0 700.59164541 0 34069
0.17850000 0.17849800 7740.79534435 0 39.84302198 0 2120.59370597 0 -31.87415395 0 193.83816160 0 34536
