### header ###
fiducial parameters:
Omega_m = 0.31
Omega_nu = 0
Omega_de = 0.69
Omega_k = 0
H_0 = 100
w_de = -1
zeff = 0
beta = 0
fgrowth = 0
b_1 = 2
gamma = 0.55
Lx = 3500 Ly = 3500 Lz = 3500
nx = 700 ny = 700 nz = 700
xoffset = -983.599254 yoffset = -42.9823471 zoffset = 800.977702
bins = 400 dk = 0.001
kx_ny = 0.628318531 ky_ny = 0.628318531 kz_ny = 0.628318531
############################
A(data) = 9.03810247 (not used)
A(ran) = 9.04381568 (used)
Ngal = 502260
weighted Ngal = 0
Nran = 25229228
weighted Nran = 0
SN(data) = 6729.88151
SN(ran) = 134.249213
SN(data+ran) = 6864.13073
############################
13 columns: k_central k_mean P_0(k) sigma^{lin}_{P_0(k)} P^img_1(k) sigma^{lin}_{P_1(k)} P_2(k) sigma^{lin}_{P_2(k)} P^img_3(k) sigma^{lin}_{P_3(k)} P_4(k) sigma^{lin}_{P_4(k)} N_modes
### header ###
0.00050000 0 0 0 0 0 0 0 0 0 0 0 0
0.00150000 0.00179520 34541.64755639 0 -42101.55994405 0 -7726.87789089 0 -74220.01078899 0 -15832.17430722 0 3
0.00250000 0.00253879 69026.83440971 0 -39496.34886493 0 -53050.32281877 0 17859.81656001 0 30055.43826844 0 6
0.00350000 0.00331552 61792.39490764 0 2073.22822900 0 20844.32493036 0 -100309.57897266 0 33687.26750101 0 7
0.00450000 0.00420575 58379.59805234 0 19091.62652928 0 4197.05139932 0 -45928.91456856 0 27055.00226785 0 24
0.00550000 0.00557378 44789.70454615 0 8474.87236082 0 36511.73064885 0 6352.34537007 0 3018.11017788 0 45
0.00650000 0.00659388 31142.36172537 0 1735.39769926 0 8850.48982024 0 22388.20660666 0 798.14014222 0 40
0.00750000 0.00754703 44677.22252292 0 -2400.76621423 0 32590.67762022 0 27363.44906593 0 542.85208468 0 57
0.00850000 0.00846663 50081.08300431 0 -6287.89888274 0 19080.86164815 0 9638.74274868 0 2904.48575910 0 75
0.00950000 0.00948925 55111.57786366 0 6626.24568739 0 31244.07886747 0 -6820.33210033 0 27431.11403303 0 112
0.01050000 0.01054430 59962.58480704 0 -8192.71164492 0 13421.50000851 0 25043.50733675 0 11016.20815038 0 105
0.01150000 0.01145670 61350.48555269 0 -16934.47616575 0 25355.35935234 0 9581.12866549 0 10516.76160425 0 144
0.01250000 0.01249090 77869.85472059 0 3298.33760900 0 3410.28138818 0 25748.16766785 0 20339.58382024 0 169
0.01350000 0.01339930 73448.01502797 0 -9886.87325872 0 16606.80636565 0 2900.94872672 0 44270.68349168 0 180
0.01450000 0.01448870 84284.40572519 0 1782.79612995 0 4686.79856785 0 4688.23754686 0 12860.51788679 0 267
0.01550000 0.01550050 82868.05493656 0 8267.95596711 0 24648.83164391 0 -15079.95077685 0 50532.43909168 0 238
0.01650000 0.01653350 75464.78255391 0 3177.69404834 0 12961.68580026 0 9618.39932026 0 29788.07377181 0 315
0.01750000 0.01747870 71697.95292431 0 -398.52578554 0 28144.12263929 0 10239.26933170 0 43097.64098572 0 297
0.01850000 0.01844180 76750.52677455 0 -1526.74574308 0 15722.54827285 0 12404.43843321 0 17788.41683823 0 388
0.01950000 0.01947590 80227.36368800 0 609.44825287 0 15362.14444646 0 6428.95177926 0 20449.31970033 0 399
0.02050000 0.02045430 78705.45115686 0 3872.19364979 0 18145.85483002 0 -16998.07684100 0 38615.05660673 0 462
0.02150000 0.02154770 71326.67437107 0 -835.02743540 0 21684.97427001 0 2583.57147113 0 20231.16608887 0 571
0.02250000 0.02255340 69300.02072981 0 3370.71495774 0 29125.48435371 0 3128.19756429 0 2443.35340213 0 510
0.02350000 0.02348930 69570.02152386 0 4091.79722484 0 29974.59181424 0 -941.40093782 0 16956.44531092 0 555
0.02450000 0.02439640 69612.31212829 0 2688.75973817 0 36358.05647844 0 2022.95184030 0 25563.07761985 0 592
0.02550000 0.02547300 65380.72523278 0 158.39753662 0 32781.04026305 0 7582.30993115 0 19411.71697430 0 837
0.02650000 0.02652900 66435.24420059 0 535.07171192 0 33864.44865675 0 7453.84535481 0 17824.55608202 0 723
0.02750000 0.02749970 63438.54295468 0 87.77123860 0 29907.36623005 0 3168.36814622 0 17641.88263999 0 826
0.02850000 0.02848090 66327.92492647 0 1873.11128572 0 30189.45005393 0 -3860.25341940 0 18581.50297860 0 831
0.02950000 0.02946900 62999.48958860 0 2453.15164087 0 30722.31166986 0 1086.46979408 0 12078.19662754 0 996
0.03050000 0.03053250 61538.98081818 0 1929.96743340 0 39044.99277756 0 -6568.67554249 0 -471.42490147 0 1041
0.03150000 0.03150510 55689.03684426 0 820.78264168 0 35342.31305184 0 2949.12706207 0 9515.13335342 0 1036
0.03250000 0.03246190 59208.05451642 0 1826.73442028 0 30224.05145757 0 8520.91968908 0 1184.53236888 0 1059
0.03350000 0.03345080 56862.73842458 0 902.83739886 0 33322.90922849 0 3541.12961677 0 6445.47257642 0 1302
0.03450000 0.03451200 57048.04816403 0 1040.71026162 0 31258.13912037 0 3395.90258267 0 3258.81511685 0 1339
0.03550000 0.03553350 52782.73863069 0 -420.55095202 0 23717.77927191 0 6379.10378888 0 9797.41489961 0 1365
0.03650000 0.03647120 52319.29951349 0 81.95754372 0 24889.28393771 0 4249.27205737 0 9702.06880961 0 1308
0.03750000 0.03744890 50562.97620346 0 911.84584684 0 20009.49741417 0 2833.82200368 0 6946.16037925 0 1579
0.03850000 0.03847530 50476.08823434 0 3077.15225550 0 24296.77609267 0 -850.49151668 0 10767.86893346 0 1662
0.03950000 0.03950240 46491.54437618 0 2481.54676100 0 19500.14278358 0 -686.77744693 0 4767.77683692 0 1683
0.04050000 0.04050350 47354.27270672 0 1405.23440119 0 23576.62751424 0 1749.58976704 0 3523.19180974 0 1822
0.04150000 0.04152450 42528.09089738 0 461.93093539 0 21192.31618973 0 1488.94782883 0 2665.94478092 0 1887
0.04250000 0.04250150 42279.07063696 0 168.29353806 0 19115.02366888 0 287.50910429 0 7249.79593454 0 1920
0.04350000 0.04349210 41783.22703064 0 -638.36733711 0 15963.65964101 0 5643.56582426 0 2183.67810631 0 2005
0.04450000 0.04448520 41184.34813350 0 182.11322883 0 16499.26740008 0 3538.77891823 0 3042.37509871 0 2151
0.04550000 0.04548030 41248.49803738 0 24.11706849 0 9032.60304907 0 1614.98481463 0 98.42923984 0 2274
0.04650000 0.04648670 40742.65847001 0 2206.44912527 0 9731.95783160 0 -3959.31229494 0 1044.69546455 0 2311
0.04750000 0.04749250 38661.41150302 0 1131.60869818 0 12440.24813982 0 673.02695897 0 4236.05761655 0 2568
0.04850000 0.04851840 37664.01231264 0 -883.51773261 0 12903.79710276 0 1265.10420877 0 -1552.74622638 0 2493
0.04950000 0.04949480 37555.37488981 0 1079.68572205 0 11404.07340822 0 1129.23603051 0 -335.51498184 0 2644
0.05050000 0.05050630 37603.26762626 0 1505.31484197 0 12366.10227490 0 -2453.09671801 0 -4768.80938675 0 2829
0.05150000 0.05149060 35137.67046465 0 567.36086303 0 14684.72585537 0 -808.01746988 0 3715.88318196 0 2784
0.05250000 0.05249300 35241.80421272 0 -745.53502413 0 14483.70817713 0 1537.75228481 0 -36.67902569 0 3055
0.05350000 0.05348950 35065.61166852 0 -351.84245052 0 14007.41711000 0 2422.66945196 0 -376.46876379 0 3009
0.05450000 0.05448610 34969.71634988 0 1561.65471474 0 12305.90681715 0 1356.59471380 0 -241.33105961 0 3336
0.05550000 0.05550870 34518.90949115 0 1639.54631892 0 15075.11756491 0 -1558.66691100 0 4700.26565384 0 3349
0.05650000 0.05647670 31920.61869275 0 -92.90762474 0 13947.22165226 0 606.16276721 0 2178.04302057 0 3324
0.05750000 0.05747970 33546.11574334 0 96.10215814 0 15656.31130019 0 2446.28628301 0 2715.17763523 0 3639
0.05850000 0.05849280 32069.02026833 0 317.14438265 0 13282.21562818 0 314.30377218 0 4275.81078472 0 3846
0.05950000 0.05951020 32426.23856867 0 -27.60082568 0 12932.24714574 0 1359.24199579 0 4039.11521474 0 3787
0.06050000 0.06049470 31999.92730679 0 -715.78770312 0 13140.07525898 0 2115.32111113 0 7290.76839027 0 3930
0.06150000 0.06148310 32541.24704360 0 284.11816673 0 11079.25959699 0 2147.73658482 0 5597.92492519 0 4083
0.06250000 0.06249100 32692.83414522 0 340.56788523 0 10128.08348803 0 552.41854894 0 5652.43037434 0 4303
0.06350000 0.06350600 31914.46733211 0 1075.57749190 0 12923.56933340 0 -2289.90990774 0 5221.45066911 0 4470
0.06450000 0.06451750 30641.79475283 0 464.77374278 0 11101.33858788 0 -711.44330466 0 5897.28748175 0 4479
0.06550000 0.06550280 31467.83461095 0 -1068.38259686 0 12289.75949546 0 1724.05063579 0 4060.75482273 0 4636
0.06650000 0.06648880 31432.02490434 0 207.29645993 0 10901.82579609 0 1088.58652121 0 3043.81407772 0 4653
0.06750000 0.06749660 31696.97279500 0 454.04620919 0 9884.42369903 0 -437.49026140 0 2487.12692387 0 5220
0.06850000 0.06852730 30458.57208218 0 1020.82708679 0 12234.06771247 0 33.25414580 0 2093.46181170 0 5029
0.06950000 0.06949320 29847.50030948 0 1172.16374016 0 11965.49491286 0 -1747.65648226 0 576.63953149 0 5040
0.07050000 0.07048030 28541.54447528 0 593.07355053 0 13097.56496309 0 -1644.73103718 0 778.35253317 0 5475
0.07150000 0.07148790 27112.45158245 0 84.77288967 0 12802.40949783 0 1438.26501094 0 504.96299848 0 5509
0.07250000 0.07249820 28634.03457642 0 -446.45586954 0 11883.00077277 0 2132.86347355 0 -647.77891890 0 5916
0.07350000 0.07351270 28595.80826383 0 -62.16466207 0 10587.73292770 0 1010.80036894 0 -3000.19434000 0 5721
0.07450000 0.07449140 27883.78826911 0 155.73377777 0 9435.59406336 0 60.46414039 0 -825.47634954 0 6028
0.07550000 0.07549160 27316.87447819 0 621.94430264 0 9251.67936463 0 309.93960150 0 -911.75906871 0 6183
0.07650000 0.07648840 27683.20997378 0 -202.65767492 0 8276.96331662 0 1519.49592518 0 -1091.69515525 0 6330
0.07750000 0.07749960 27013.37073777 0 44.59352008 0 7994.46207898 0 1133.67379783 0 -3383.49001565 0 6583
0.07850000 0.07848650 26654.61459726 0 1226.58131272 0 8197.16039682 0 -788.02994161 0 -1718.85493296 0 6549
0.07950000 0.07947320 25414.56619855 0 973.97788473 0 7324.75465784 0 -1392.83281874 0 -1900.81437777 0 6828
0.08050000 0.08048110 23891.22567297 0 389.75680125 0 8887.69456757 0 -110.77172528 0 -557.63512246 0 7147
0.08150000 0.08149960 23503.47026085 0 577.78961624 0 9304.84469592 0 -268.60465487 0 -3052.88733467 0 7386
0.08250000 0.08250610 23418.01028617 0 527.57693805 0 8586.34380338 0 1411.95695961 0 -1403.03748667 0 7227
0.08350000 0.08350160 22622.83707700 0 -61.91630089 0 8801.20204307 0 966.60394115 0 -722.78048202 0 7798
0.08450000 0.08449610 23004.88051138 0 -473.51306872 0 8016.84863790 0 313.56011662 0 101.79458334 0 7371
0.08550000 0.08548940 23093.74570356 0 -68.21782064 0 7362.62946410 0 873.26033873 0 -1155.23651381 0 8256
0.08650000 0.08650700 22446.64453280 0 422.20632711 0 6471.36321399 0 500.58674476 0 -232.67411796 0 8037
0.08750000 0.08749060 23014.21739808 0 137.10064730 0 7655.91755202 0 -809.07089039 0 -246.03465359 0 8155
0.08850000 0.08849210 22577.03140934 0 632.18631812 0 7013.46285545 0 -50.10008631 0 -2385.68439608 0 8718
0.08950000 0.08949900 21487.58150072 0 723.29675693 0 8595.76856665 0 -809.93757317 0 -619.73091127 0 8571
0.09050000 0.09049190 20952.74266173 0 178.24116699 0 7791.95049887 0 16.94304413 0 -831.44866166 0 8932
0.09150000 0.09150830 20680.76464462 0 293.18153757 0 8624.33943994 0 710.57442497 0 -1744.08649618 0 9285
0.09250000 0.09250820 20103.41550975 0 31.29383898 0 7390.54126303 0 1478.14999398 0 -597.01151980 0 9204
0.09350000 0.09350330 20246.87402766 0 49.61390913 0 6980.75079831 0 270.45555535 0 -1734.46401059 0 9349
0.09450000 0.09448040 19518.48701979 0 332.99402243 0 6135.86141364 0 172.45339570 0 51.58498084 0 9564
0.09550000 0.09549270 19222.67248017 0 751.12287620 0 6240.08303829 0 104.04993578 0 -1584.40376456 0 10155
0.09650000 0.09649430 19051.86237653 0 88.97536745 0 6032.97990684 0 173.82646727 0 -1090.20784413 0 9913
0.09750000 0.09749140 18223.73544963 0 -77.19957610 0 5964.37026650 0 1062.45641996 0 -1456.78500031 0 10476
0.09850000 0.09850240 18105.54144865 0 367.91507712 0 5130.99271390 0 29.97656904 0 -172.67308715 0 10575
0.09950000 0.09950330 17673.95759193 0 580.93449937 0 5141.46101157 0 132.71999976 0 -534.27203504 0 10882
0.10050000 0.10051200 17270.38439529 0 268.94517662 0 5399.58748266 0 117.51625285 0 102.03536517 0 10875
0.10150000 0.10150300 17149.44425117 0 -4.83176197 0 5199.22887877 0 487.65131209 0 569.76428751 0 11118
0.10250000 0.10250800 16676.77809300 0 326.62956108 0 5571.72671958 0 -704.35166460 0 -727.32809507 0 11575
0.10350000 0.10349800 16423.69354072 0 514.67006527 0 5401.52076743 0 -432.44944104 0 -287.28721592 0 11364
0.10450000 0.10450100 15779.33851310 0 399.71651321 0 6633.68224303 0 -131.61824713 0 375.11216908 0 12093
0.10550000 0.10551000 15769.01301487 0 -108.11225041 0 6156.75407069 0 488.38508154 0 -392.71934047 0 12067
0.10650000 0.10649700 15382.57575146 0 110.34332695 0 6120.12052113 0 492.63940650 0 -797.14933377 0 12054
0.10750000 0.10749900 15442.55151776 0 48.40000402 0 5703.22303795 0 -467.32875436 0 -398.08420572 0 12807
0.10850000 0.10850100 15288.54781017 0 415.14434540 0 6092.79090455 0 321.41847985 0 -40.14608633 0 12736
0.10950000 0.10950300 15181.88761040 0 -111.72079235 0 5710.74747017 0 496.17753733 0 54.22138810 0 12933
0.11050000 0.11050200 15272.51033420 0 -172.93232306 0 5815.23272456 0 449.58427581 0 -251.08096624 0 13428
0.11150000 0.11150900 15113.01434032 0 132.09387912 0 4642.35498719 0 265.77942281 0 -657.51893940 0 13453
0.11250000 0.11250000 15297.11577678 0 33.26600914 0 5115.41658998 0 196.79960237 0 -518.71897872 0 13668
0.11350000 0.11349100 14687.03261561 0 314.26422772 0 4800.02754202 0 -109.29408058 0 -263.66599104 0 13791
0.11450000 0.11448600 14628.15530657 0 312.75494745 0 5216.70533375 0 263.25516803 0 16.23278167 0 14205
0.11550000 0.11549300 14553.24052157 0 -9.25887426 0 4609.33536201 0 -115.06779162 0 -635.40369943 0 14776
0.11650000 0.11649800 14317.73128543 0 65.98828194 0 4536.29893892 0 267.05583014 0 -534.77512846 0 14553
0.11750000 0.11747300 14385.39625253 0 -45.68362906 0 4655.74518117 0 13.86967057 0 -555.70732998 0 14568
0.11850000 0.11849100 14031.47332396 0 169.95660235 0 4652.96608430 0 216.04677044 0 -576.80759545 0 16015
0.11950000 0.11950300 14099.02844533 0 229.94774705 0 4086.79924432 0 159.67284550 0 56.66095183 0 15270
0.12050000 0.12050700 13660.63415361 0 174.49323083 0 4479.04734662 0 297.00636574 0 -49.90445108 0 15999
0.12150000 0.12150000 13702.81491232 0 296.89981539 0 4818.70131541 0 -1.59533341 0 232.35995918 0 15670
0.12250000 0.12250700 13126.89377188 0 -1.42094234 0 4274.06423768 0 268.49920298 0 7.05892800 0 16887
0.12350000 0.12352200 13337.24833682 0 276.84637968 0 4567.37429475 0 216.52350089 0 398.81467980 0 16407
0.12450000 0.12449800 12805.37533243 0 130.57141736 0 4359.96359527 0 -77.76341421 0 698.83411380 0 16306
0.12550000 0.12549900 12792.19384533 0 11.35079823 0 4508.58486229 0 410.68460893 0 1354.73832103 0 17523
0.12650000 0.12650100 12932.13730002 0 -161.08216616 0 3796.41108356 0 490.09098566 0 773.63575770 0 17154
0.12750000 0.12750600 12925.54655647 0 43.30085558 0 3672.23049052 0 224.56310957 0 1254.37228135 0 18007
0.12850000 0.12850300 12883.91502638 0 76.95758597 0 3628.73158310 0 -20.49600413 0 653.29427279 0 17496
0.12950000 0.12949900 13062.85371373 0 192.57603421 0 3615.96750976 0 -354.55124612 0 626.31286716 0 18405
0.13050000 0.13049000 12603.25919693 0 287.33005575 0 3895.28322136 0 -28.12489964 0 223.67775302 0 18100
0.13150000 0.13148800 12249.99534271 0 62.56230360 0 3901.14898312 0 67.52985686 0 110.95626610 0 19059
0.13250000 0.13249300 12286.46412368 0 151.33555491 0 4039.87315025 0 61.88796069 0 174.41194499 0 18957
0.13350000 0.13349100 12092.80610907 0 88.43119172 0 3837.96572163 0 -84.06998687 0 71.61919354 0 19468
0.13450000 0.13450700 11877.61833221 0 74.76825081 0 3526.48718151 0 161.81923098 0 -175.11825301 0 19953
0.13550000 0.13551000 11982.85053754 0 -0.78206752 0 3941.86879368 0 -183.57198006 0 -219.82546341 0 19956
0.13650000 0.13649900 11833.89973333 0 -0.77780440 0 3376.10838288 0 694.11184604 0 -202.08977252 0 19723
0.13750000 0.13749600 11956.48756334 0 7.62784098 0 3106.44811058 0 61.87609735 0 -468.53156506 0 20946
0.13850000 0.13851100 11836.86556793 0 143.95062676 0 3099.83539788 0 -65.04899114 0 -371.40817121 0 20955
0.13950000 0.13949800 11776.88980164 0 265.55204215 0 3440.91736111 0 137.58726387 0 -605.11044516 0 20506
0.14050000 0.14048300 11332.67368645 0 26.88990414 0 3144.89411461 0 -193.88429680 0 86.98606135 0 21447
0.14150000 0.14148400 11335.63952104 0 99.34765995 0 3138.73176939 0 402.50110235 0 -247.80976052 0 21771
0.14250000 0.14249400 11131.54616248 0 86.59863548 0 3102.90009363 0 436.18968800 0 238.06864156 0 22470
0.14350000 0.14350900 11095.84630159 0 246.73876469 0 2959.29877628 0 -31.11138523 0 635.49157601 0 22519
0.14450000 0.14449900 10768.34127008 0 152.40655074 0 3118.34440268 0 10.82554892 0 803.44678923 0 22218
0.14550000 0.14550500 10808.59972859 0 140.74862386 0 3080.18399753 0 46.64368071 0 631.22626647 0 23559
0.14650000 0.14650700 10544.32189686 0 205.25552634 0 3245.28212343 0 -115.97182194 0 894.27053071 0 23044
0.14750000 0.14750500 10282.33984079 0 117.53932045 0 3475.87027106 0 -312.20132499 0 920.65108022 0 23649
0.14850000 0.14849900 10210.99504187 0 98.24173318 0 3726.23064933 0 -59.77782430 0 442.31029185 0 23640
0.14950000 0.14949500 9915.38920914 0 73.64035489 0 3330.91785128 0 132.69473524 0 813.86126250 0 24457
0.15050000 0.15050000 10130.19252597 0 63.51246913 0 3341.43008724 0 487.35033480 0 233.95382067 0 24591
0.15150000 0.15149900 10047.88512361 0 73.43483354 0 3309.51990389 0 70.83170953 0 187.55388763 0 25020
0.15250000 0.15250500 9930.40511986 0 152.26704667 0 2898.18061443 0 -3.50794522 0 569.15903756 0 25297
0.15350000 0.15350100 9617.41070872 0 82.49864376 0 3151.42993530 0 -124.55626541 0 241.57052329 0 25452
0.15450000 0.15450400 9351.33140709 0 216.37850454 0 2992.81270722 0 -58.70693832 0 -87.98807406 0 26061
0.15550000 0.15549900 9277.48212562 0 141.84049037 0 3060.08222971 0 38.54497503 0 -139.11302100 0 26128
0.15650000 0.15649500 9133.88080827 0 46.98013816 0 2717.42947261 0 332.96216717 0 -95.04423395 0 26331
0.15750000 0.15749700 9285.73153963 0 45.88596489 0 2731.99501585 0 340.03733037 0 286.89286977 0 27345
0.15850000 0.15849900 9034.08596636 0 -116.39582644 0 2293.90829216 0 88.57519947 0 -261.29002799 0 26980
0.15950000 0.15949700 8836.89091938 0 252.64407091 0 2454.67849646 0 130.11995143 0 420.95847966 0 27777
0.16050000 0.16050000 8853.66436172 0 57.60276908 0 2448.88962671 0 -263.62644658 0 333.63442301 0 28224
0.16150000 0.16150500 8883.63027572 0 -36.52688936 0 2253.10060502 0 436.75868886 0 500.66473523 0 28075
0.16250000 0.16249700 8913.85981946 0 -1.22881118 0 2331.83802129 0 174.28562240 0 386.97001518 0 28590
0.16350000 0.16349900 9016.12619019 0 -99.92643708 0 2276.45380633 0 -218.59628974 0 -146.22113792 0 29163
0.16450000 0.16449100 8789.07507494 0 286.40515474 0 2319.12887081 0 -59.42873458 0 354.27992718 0 28996
0.16550000 0.16550500 8834.17772996 0 115.53243904 0 2550.71661454 0 -26.49797459 0 317.80894930 0 30777
0.16650000 0.16650700 8672.28709925 0 25.28110364 0 2529.39555916 0 -113.48821008 0 323.53850235 0 29211
0.16750000 0.16749900 8561.69442250 0 59.94808517 0 2568.40177640 0 -30.68298690 0 -522.48449020 0 30922
0.16850000 0.16850800 8358.30407659 0 142.29854705 0 2607.97919141 0 -152.81297992 0 -224.98711407 0 30867
0.16950000 0.16949900 8248.77690338 0 177.45686851 0 2534.40452426 0 39.68638197 0 -328.74409130 0 30852
0.17050000 0.17049200 8040.74008326 0 161.86097236 0 2584.02183861 0 117.62170474 0 -52.54558171 0 31257
0.17150000 0.17149500 8061.24828027 0 -30.43155003 0 2337.72575219 0 483.84296078 0 -219.42232960 0 32608
0.17250000 0.17250900 8106.70244161 0 -104.87509687 0 2014.49371941 0 256.40079474 0 -412.55418318 0 32361
0.17350000 0.17350400 8026.64687664 0 155.06591576 0 1964.86542049 0 -79.89936435 0 -13.26244340 0 32508
0.17450000 0.17449800 7837.50352136 0 107.62497477 0 2012.85701810 0 3.23398998 0 248.31724777 0 32791
0.17550000 0.17549800 7684.45547159 0 83.73418848 0 2096.24090856 0 132.67825838 0 148.19836098 0 33633
0.17650000 0.17650100 7712.47711624 0 216.09839794 0 2418.70402126 0 -395.73240873 0 -48.21008076 0 33984
0.17750000 0.17750300 7423.95633282 0 86.68947789 0 2267.60024083 0 117.40091483 0 413.00125529 0 34069
0.17850000 0.17849800 7507.81255990 0 -17.75161852 0 2426.60192894 0 270.97842101 0 426.92200412 0 34536
