### header ###
fiducial parameters:
Omega_m = 0.31
Omega_nu = 0
Omega_de = 0.69
Omega_k = 0
H_0 = 100
w_de = -1
zeff = 0
beta = 0
fgrowth = 0
b_1 = 2
gamma = 0.55
Lx = 3500 Ly = 3500 Lz = 3500
nx = 700 ny = 700 nz = 700
xoffset = -983.599254 yoffset = -42.9823471 zoffset = 800.977702
bins = 400 dk = 0.001
kx_ny = 0.628318531 ky_ny = 0.628318531 kz_ny = 0.628318531
############################
A(data) = 8.9819494 (not used)
A(ran) = 8.98288206 (used)
Ngal = 498309
weighted Ngal = 0
Nran = 25229228
weighted Nran = 0
SN(data) = 6754.70077
SN(ran) = 133.344695
SN(data+ran) = 6888.04547
############################
13 columns: k_central k_mean P_0(k) sigma^{lin}_{P_0(k)} P^img_1(k) sigma^{lin}_{P_1(k)} P_2(k) sigma^{lin}_{P_2(k)} P^img_3(k) sigma^{lin}_{P_3(k)} P_4(k) sigma^{lin}_{P_4(k)} N_modes
### header ###
0.00050000 0 0 0 0 0 0 0 0 0 0 0 0
0.00150000 0.00179520 83435.29826466 0 -66829.26081909 0 36392.21849917 0 -119771.38559793 0 150678.67747006 0 3
0.00250000 0.00253879 103007.38999864 0 -29618.25227970 0 2423.47132576 0 -102902.04794759 0 82178.44346990 0 6
0.00350000 0.00331552 84437.75035843 0 14007.19741855 0 -20235.99930080 0 -55624.77709466 0 2213.51220544 0 7
0.00450000 0.00420575 90892.50489868 0 5977.11237069 0 -30730.00087066 0 -20243.79834733 0 11783.59039091 0 24
0.00550000 0.00557378 96142.03213530 0 5583.54611968 0 28790.78442715 0 -18482.53197964 0 -34895.90002214 0 45
0.00650000 0.00659388 63766.76198341 0 23665.38286070 0 29303.10489235 0 -41661.40812071 0 -10180.57876040 0 40
0.00750000 0.00754703 68663.24505727 0 16081.96348772 0 50289.78988336 0 26934.28181518 0 19166.10193138 0 57
0.00850000 0.00846663 62754.09423713 0 -11910.35235850 0 63205.88970740 0 18344.12636512 0 5414.14204133 0 75
0.00950000 0.00948925 65413.45925908 0 -4708.11962323 0 27273.26572504 0 32903.73793878 0 -788.26171610 0 112
0.01050000 0.01054430 66072.86315113 0 4961.66552756 0 35429.96994104 0 -13819.25138168 0 -23391.31777479 0 105
0.01150000 0.01145670 64281.05967167 0 12236.48431844 0 39661.77652800 0 748.93914317 0 14752.39082247 0 144
0.01250000 0.01249090 61891.47575232 0 139.15695929 0 44793.54914656 0 4777.23455392 0 1384.95688020 0 169
0.01350000 0.01339930 63841.12753978 0 -6317.41442926 0 39236.45387765 0 12454.41823845 0 -1601.71545095 0 180
0.01450000 0.01448870 71349.08289913 0 -322.71465941 0 27650.47594748 0 16981.49013640 0 -14907.05360442 0 267
0.01550000 0.01550050 61601.48303617 0 1100.25872804 0 31481.56532668 0 -10618.69843780 0 -6048.65489192 0 238
0.01650000 0.01653350 72622.96378139 0 4496.19426442 0 29422.94657921 0 940.51118744 0 3326.06267020 0 315
0.01750000 0.01747870 67430.77601364 0 -3051.23964878 0 33629.59849496 0 4037.39063685 0 -20937.03472294 0 297
0.01850000 0.01844180 66075.60929428 0 1583.90945879 0 28278.35411623 0 -4699.92513209 0 -13462.58230997 0 388
0.01950000 0.01947590 64556.33306055 0 3588.45115545 0 30493.17348581 0 4939.63047496 0 3449.44138943 0 399
0.02050000 0.02045430 65181.24539471 0 -5767.76838644 0 37889.74527918 0 4857.98214696 0 -14083.75988944 0 462
0.02150000 0.02154770 70327.95703197 0 -2877.45272597 0 21017.11225706 0 9242.12278648 0 -5213.45390027 0 571
0.02250000 0.02255340 75787.17975917 0 3285.39778250 0 25929.96234407 0 -17141.75505036 0 -32401.85281754 0 510
0.02350000 0.02348930 63798.94678107 0 8192.78853693 0 22291.21283077 0 -4214.92329890 0 -7866.48082383 0 555
0.02450000 0.02439640 70055.42978623 0 -920.62911107 0 36723.07382532 0 -2217.32385212 0 -23823.01147724 0 592
0.02550000 0.02547300 64595.98736757 0 -1314.47986252 0 30986.71033189 0 7947.14054030 0 -19974.01724474 0 837
0.02650000 0.02652900 68658.96107396 0 -2003.78376114 0 26202.48958981 0 -6495.59518111 0 -28196.73874195 0 723
0.02750000 0.02749970 65679.06622409 0 2176.09875123 0 20791.26944479 0 2775.49392327 0 -27846.98995096 0 826
0.02850000 0.02848090 63217.86289152 0 2813.31380667 0 21174.41133643 0 3858.77050210 0 -17908.91759944 0 831
0.02950000 0.02946900 60735.34948813 0 4085.66783334 0 26451.50985023 0 1602.04498813 0 -18155.63109962 0 996
0.03050000 0.03053250 61368.50025172 0 1933.33969718 0 25661.38954445 0 2147.50590880 0 -17395.93805990 0 1041
0.03150000 0.03150510 55110.58925213 0 1761.96938034 0 22722.46715031 0 -2150.80128057 0 -17553.12729353 0 1036
0.03250000 0.03246190 48238.75049097 0 3299.07357536 0 24887.19686892 0 -3015.75947934 0 -10652.42107563 0 1059
0.03350000 0.03345080 50159.40300682 0 -14.08551742 0 24798.22183101 0 4087.28256551 0 -6299.60843711 0 1302
0.03450000 0.03451200 48555.98494712 0 -1718.44850377 0 22410.06590610 0 4630.95300085 0 -13109.86768438 0 1339
0.03550000 0.03553350 47049.78035476 0 1725.84112112 0 20441.41080807 0 1380.81569634 0 -3368.46312036 0 1365
0.03650000 0.03647120 49372.24853564 0 269.04843161 0 19900.09107126 0 2367.04357641 0 -5093.91978144 0 1308
0.03750000 0.03744890 48658.03162640 0 982.17347433 0 16123.48517207 0 3241.47047675 0 -6462.45472563 0 1579
0.03850000 0.03847530 49911.81074083 0 -718.33282859 0 19982.25567417 0 -1483.88394087 0 -11306.09102080 0 1662
0.03950000 0.03950240 47343.83736277 0 1858.99610995 0 16170.05975982 0 -1652.68386773 0 -5826.48092689 0 1683
0.04050000 0.04050350 45429.11651611 0 674.31764625 0 17531.81722273 0 2255.16570467 0 -5987.09734717 0 1822
0.04150000 0.04152450 45025.21378230 0 841.76537222 0 18439.14291795 0 -1377.01503422 0 -8337.31255838 0 1887
0.04250000 0.04250150 43350.83538372 0 3479.95653206 0 20785.11808414 0 -482.26667461 0 -6913.52521411 0 1920
0.04350000 0.04349210 40280.20796433 0 717.71110178 0 20428.88839533 0 -4.69353211 0 -1051.00939687 0 2005
0.04450000 0.04448520 38828.26716053 0 367.35156855 0 20324.64480153 0 2228.92356077 0 -2807.73364380 0 2151
0.04550000 0.04548030 40040.52459061 0 -390.42246634 0 16905.03751124 0 4622.43995710 0 -3264.96647750 0 2274
0.04650000 0.04648670 38988.20253732 0 301.64844611 0 16818.14954212 0 5215.82656794 0 2611.83477638 0 2311
0.04750000 0.04749250 40330.40746103 0 -761.88995424 0 11451.30707032 0 3374.72432673 0 4198.14985657 0 2568
0.04850000 0.04851840 39011.59967691 0 42.49184181 0 12649.94363040 0 1310.90987643 0 1271.73889061 0 2493
0.04950000 0.04949480 38707.43686214 0 1722.51279563 0 9673.20135286 0 -2377.25922891 0 4123.94906879 0 2644
0.05050000 0.05050630 35825.74409115 0 519.05840202 0 10167.39727330 0 1276.29748823 0 1684.01186873 0 2829
0.05150000 0.05149060 36068.39329947 0 1001.85563148 0 11599.70864590 0 -55.42321019 0 3592.18591012 0 2784
0.05250000 0.05249300 34424.44216695 0 606.84161380 0 10222.60573509 0 -1179.27075862 0 -2766.94792580 0 3055
0.05350000 0.05348950 35538.05813524 0 483.85614226 0 10991.60270780 0 -384.30515787 0 -4227.44571165 0 3009
0.05450000 0.05448610 33767.89426376 0 -297.06128860 0 10832.79874199 0 -434.13337602 0 -4896.16452125 0 3336
0.05550000 0.05550870 34511.43998179 0 -236.21115033 0 10794.17698479 0 546.52971958 0 -3491.86380874 0 3349
0.05650000 0.05647670 33391.34311567 0 253.53821512 0 9961.67819800 0 1064.99605314 0 -3994.74852608 0 3324
0.05750000 0.05747970 34486.39515630 0 1124.87515519 0 9381.65981198 0 423.67935829 0 -2314.10892114 0 3639
0.05850000 0.05849280 34171.57730612 0 287.22460386 0 10458.70813816 0 431.51575237 0 -2213.53417458 0 3846
0.05950000 0.05951020 32812.12660346 0 409.62349922 0 12341.93621522 0 829.72518222 0 -1367.08498061 0 3787
0.06050000 0.06049470 31734.54003323 0 1661.50447951 0 12388.84034014 0 -1378.64075097 0 2847.56370398 0 3930
0.06150000 0.06148310 30360.58969475 0 665.58381259 0 13972.59601492 0 460.63914966 0 2254.91305950 0 4083
0.06250000 0.06249100 29913.73728214 0 -150.05365529 0 12568.10856467 0 2644.95326272 0 3809.20811061 0 4303
0.06350000 0.06350600 31010.54685439 0 -584.31225543 0 12273.72201949 0 1599.44164442 0 1583.71173649 0 4470
0.06450000 0.06451750 29845.08370351 0 540.99569192 0 10695.11810925 0 -504.53460015 0 2560.18531611 0 4479
0.06550000 0.06550280 29398.01159945 0 1160.00381831 0 10575.14460752 0 -82.58256590 0 4235.64020279 0 4636
0.06650000 0.06648880 29215.88738605 0 -1043.81669874 0 11096.94475885 0 286.84893147 0 946.41869058 0 4653
0.06750000 0.06749660 29564.20818260 0 174.68875622 0 8833.69440876 0 2074.75508459 0 490.21181596 0 5220
0.06850000 0.06852730 29715.57559278 0 167.68499274 0 7425.31841982 0 774.48156979 0 1804.18309277 0 5029
0.06950000 0.06949320 28618.87586625 0 -10.74950273 0 7688.58567088 0 1157.98265695 0 2168.50841157 0 5040
0.07050000 0.07048030 29390.65193582 0 963.20970823 0 9166.10954422 0 -112.75773600 0 608.82103378 0 5475
0.07150000 0.07148790 28375.01835495 0 604.73806815 0 7747.82547081 0 -1222.30831399 0 1432.69583264 0 5509
0.07250000 0.07249820 26531.14800144 0 707.80631268 0 10545.89269073 0 -2004.13526747 0 2039.29688430 0 5916
0.07350000 0.07351270 25814.51448624 0 727.84656690 0 10500.83397401 0 -473.50208415 0 456.26838823 0 5721
0.07450000 0.07449140 25673.69226574 0 848.98772870 0 11726.58045921 0 1045.25787467 0 896.11154507 0 6028
0.07550000 0.07549160 26165.91096311 0 -277.25061195 0 12107.19589916 0 646.38387818 0 272.72716496 0 6183
0.07650000 0.07648840 25102.60433724 0 -415.64524191 0 11451.30707032 0 431.04890804 0 362.58096868 0 6330
0.07750000 0.07749960 24811.29347238 0 966.28099472 0 11956.59740907 0 -452.54571658 0 -433.72145455 0 6583
0.07850000 0.07848650 24331.81687921 0 857.12839544 0 10838.40087400 0 449.81714875 0 1071.02878040 0 6549
0.07950000 0.07947320 23719.42695780 0 75.72841230 0 11529.95661001 0 1545.01308728 0 2069.08704514 0 6828
0.08050000 0.08048110 23388.13224874 0 -342.24522946 0 9352.97909297 0 1058.82821563 0 -1025.36151835 0 7147
0.08150000 0.08149960 23254.88938333 0 657.54749929 0 9145.45854777 0 759.49312050 0 706.57164672 0 7386
0.08250000 0.08250610 22366.67684441 0 377.82755542 0 8215.43872559 0 176.85930776 0 680.60521560 0 7227
0.08350000 0.08350160 22063.61248689 0 -145.94542514 0 7508.27391195 0 583.85859259 0 14.99602864 0 7798
0.08450000 0.08449610 21997.70505140 0 180.75333874 0 7041.10004007 0 383.88005491 0 -966.73685448 0 7371
0.08550000 0.08548940 21704.85634638 0 307.01440982 0 6664.98827488 0 -307.90965248 0 -539.15687447 0 8256
0.08650000 0.08650700 21083.45907545 0 271.88684516 0 6832.64580619 0 -376.29740446 0 -1669.85275467 0 8037
0.08750000 0.08749060 21405.41689781 0 223.29878526 0 6728.36925868 0 217.87570178 0 -3051.75592369 0 8155
0.08850000 0.08849210 21147.05975070 0 251.72466219 0 6994.74514378 0 -113.33662298 0 -2722.18579254 0 8718
0.08950000 0.08949900 20600.79695623 0 28.97049203 0 7414.30089352 0 -407.54411963 0 -1621.07026784 0 8571
0.09050000 0.09049190 20141.09259370 0 298.47720001 0 6858.90991923 0 1335.60319559 0 -1602.90178479 0 8932
0.09150000 0.09150830 20324.75464726 0 170.92873702 0 6532.92075874 0 697.56210029 0 -1366.64559771 0 9285
0.09250000 0.09250820 19727.85297319 0 58.26931294 0 6400.91915003 0 1203.46977201 0 375.23409784 0 9204
0.09350000 0.09350330 20020.48198676 0 343.94344438 0 5141.94433276 0 749.22913588 0 -694.44907242 0 9349
0.09450000 0.09448040 19186.31354493 0 408.64587226 0 5719.22756020 0 -423.15429572 0 1171.17512862 0 9564
0.09550000 0.09549270 18399.70830238 0 596.43153436 0 5262.81856945 0 -649.07619692 0 393.67829366 0 10155
0.09650000 0.09649430 17730.85767790 0 491.53985078 0 6483.57805870 0 -121.60031693 0 756.23509628 0 9913
0.09750000 0.09749140 17467.88701030 0 274.73953866 0 5916.62032949 0 349.24679602 0 218.89287320 0 10476
0.09850000 0.09850240 17097.92660576 0 87.09755476 0 6015.07505354 0 600.24208259 0 131.10856296 0 10575
0.09950000 0.09950330 16845.39128212 0 247.27261492 0 5770.08613125 0 185.40420677 0 190.94262827 0 10882
0.10050000 0.10051200 16567.70128726 0 166.89190660 0 5502.15043685 0 38.69249784 0 1218.13417641 0 10875
0.10150000 0.10150300 16390.73982298 0 251.90590764 0 6438.01405163 0 -1.52405452 0 1252.98822521 0 11118
0.10250000 0.10250800 15723.75657584 0 416.08792018 0 6338.24117888 0 -354.83794347 0 879.40730555 0 11575
0.10350000 0.10349800 15764.94872302 0 173.44640106 0 6900.60735675 0 -191.93563363 0 421.63842471 0 11364
0.10450000 0.10450100 15438.26753445 0 164.21716318 0 6816.64128394 0 -14.50326072 0 683.69188049 0 12093
0.10550000 0.10551000 15434.75247122 0 109.91492862 0 6747.10893950 0 1546.97932578 0 1284.38213365 0 12067
0.10650000 0.10649700 15902.36572601 0 -518.20709764 0 5379.63949885 0 739.23537175 0 1461.47541280 0 12054
0.10750000 0.10749900 15489.45564268 0 114.65257478 0 5720.26011002 0 370.86773023 0 1663.75631689 0 12807
0.10850000 0.10850100 15824.26541496 0 161.92248596 0 4654.58081647 0 -153.06013281 0 1407.80479117 0 12736
0.10950000 0.10950300 15215.06101960 0 235.88051470 0 4865.90202379 0 408.85567759 0 1056.20290279 0 12933
0.11050000 0.11050200 14934.07565297 0 216.52350089 0 4723.05864195 0 -420.36860812 0 1002.49163823 0 13428
0.11150000 0.11150900 14682.19940367 0 315.93388276 0 4736.30603648 0 413.29124800 0 1039.10102173 0 13453
0.11250000 0.11250000 14322.89403454 0 108.90171165 0 4149.20260115 0 330.45658617 0 1105.93775206 0 13668
0.11350000 0.11349100 14366.83232486 0 -22.59164089 0 4496.64463190 0 201.38566142 0 594.88600500 0 13791
0.11450000 0.11448600 14081.01374630 0 91.00674445 0 3647.20763418 0 240.82027699 0 386.74812682 0 14205
0.11550000 0.11549300 13943.92628048 0 -11.32322695 0 3812.61332811 0 444.63133203 0 1068.54626700 0 14776
0.11650000 0.11649800 14034.21946710 0 197.55753788 0 3326.60091425 0 -19.32680623 0 1094.21172083 0 14553
0.11750000 0.11747300 14212.60892582 0 185.67991954 0 3910.39799323 0 163.26260382 0 484.71733275 0 14568
0.11850000 0.11849100 13695.23555724 0 104.41418421 0 3771.67382610 0 -158.81824575 0 1001.41185475 0 16015
0.11950000 0.11950300 13657.00924466 0 27.99264538 0 3637.24462685 0 109.31187559 0 1060.78237109 0 15270
0.12050000 0.12050700 13766.52543329 0 -182.63060219 0 3810.28459873 0 253.29216070 0 1141.01149231 0 15999
0.12150000 0.12150000 13825.40274233 0 54.10583040 0 3642.72592857 0 211.57604940 0 865.43932305 0 15670
0.12250000 0.12250700 14027.07949492 0 70.34311574 0 2914.00938352 0 -28.39193460 0 788.94275960 0 16887
0.12350000 0.12352200 13674.58456079 0 79.27423233 0 3294.96534522 0 -187.87353869 0 218.40186281 0 16407
0.12450000 0.12449800 13453.90449763 0 307.09349874 0 3785.02008179 0 -520.50836560 0 71.73903523 0 16306
0.12550000 0.12549900 12895.00944469 0 499.57726254 0 3974.84448057 0 -335.78410387 0 40.16014659 0 17523
0.12650000 0.12650100 12813.83345331 0 194.22372010 0 4198.57825490 0 227.18842241 0 -105.81779289 0 17154
0.12750000 0.12750600 12385.54496837 0 208.56737497 0 3934.49814548 0 375.73719126 0 -50.96127681 0 18007
0.12850000 0.12850300 12447.71764918 0 -54.81422548 0 3966.64998942 0 186.23244354 0 468.32175972 0 17496
0.12950000 0.12949900 12325.78889353 0 -75.19247500 0 3808.65888198 0 834.12230662 0 474.09415261 0 18405
0.13050000 0.13049000 12403.88920458 0 51.08496309 0 3427.94458089 0 -341.46312789 0 612.96221764 0 18100
0.13150000 0.13148800 12022.50484455 0 334.37148783 0 3590.59314710 0 -581.04214818 0 182.57348242 0 19059
0.13250000 0.13249300 12061.50007722 0 159.88814312 0 4054.20801747 0 -210.84667378 0 698.47381982 0 18957
0.13350000 0.13349100 11785.45776825 0 66.14371364 0 4047.00213785 0 602.55213821 0 323.64285579 0 19468
0.13450000 0.13450700 11825.44161245 0 80.80152730 0 4178.48747165 0 -37.01416500 0 339.77919292 0 19953
0.13550000 0.13551000 11535.33905057 0 297.03492563 0 4164.64691020 0 -112.24915029 0 460.26237882 0 19956
0.13650000 0.13649900 11389.24423524 0 65.21760433 0 4174.13758091 0 131.22829480 0 382.08188038 0 19723
0.13750000 0.13749600 11296.97382556 0 17.78171625 0 3978.09591405 0 351.04936438 0 326.13305840 0 20946
0.13850000 0.13851100 11217.55536579 0 -36.22041978 0 3895.90934200 0 141.10122864 0 192.12346982 0 20955
0.13950000 0.13949800 11357.82835766 0 31.59800180 0 3149.74929569 0 511.53177288 0 147.07903304 0 20506
0.14050000 0.14048300 11123.85696167 0 -32.80081249 0 2885.44949481 0 74.81438601 0 1.32773824 0 21447
0.14150000 0.14148400 11090.35401530 0 190.86244089 0 2706.55474575 0 302.87542287 0 208.87164763 0 21771
0.14250000 0.14249400 10879.38431430 0 85.92099719 0 2613.86692231 0 121.89799885 0 2.38264167 0 22470
0.14350000 0.14350900 10720.62428679 0 260.29262880 0 2455.87581487 0 53.11117735 0 16.36360793 0 22519
0.14450000 0.14449900 10506.24936829 0 155.13402011 0 2535.72267297 0 -88.06298885 0 -115.82572713 0 22218
0.14550000 0.14550500 10451.94164145 0 46.23110016 0 2625.75222984 0 167.29284350 0 -88.30475929 0 23559
0.14650000 0.14650700 10041.93148528 0 11.98076347 0 2505.76774354 0 -26.46557010 0 480.05218478 0 23044
0.14750000 0.14750500 10218.80507298 0 224.38955332 0 2334.95763990 0 267.28650616 0 -9.84606557 0 23649
0.14850000 0.14849900 9974.02485758 0 25.01626560 0 2423.65806349 0 -144.26917937 0 328.15971204 0 23640
0.14950000 0.14949500 9790.32985030 0 78.70578069 0 2402.49079213 0 159.96173976 0 238.90566599 0 24457
0.15050000 0.15050000 9675.94749601 0 251.46432782 0 2293.39201725 0 66.36713985 0 560.71190124 0 24591
0.15150000 0.15149900 9627.47257721 0 214.91755638 0 2514.50047874 0 1.76241975 0 541.68881845 0 25020
0.15250000 0.15250500 9286.36864484 0 68.74486043 0 2586.73502804 0 194.75757032 0 715.75804477 0 25297
0.15350000 0.15350100 9311.03999486 0 -10.53744555 0 2412.45379946 0 109.21070767 0 781.39525977 0 25452
0.15450000 0.15450400 9140.36170609 0 81.11491715 0 2158.41358937 0 243.50051270 0 642.83805815 0 26061
0.15550000 0.15549900 9182.70723339 0 110.33453929 0 2397.13032071 0 -306.71562945 0 579.46586201 0 26128
0.15650000 0.15649500 8899.95335057 0 67.51425877 0 2421.75773244 0 -227.11372732 0 664.62925323 0 26331
0.15750000 0.15749700 8678.42747533 0 295.56848519 0 2555.41801161 0 -262.01610824 0 314.95186197 0 27345
0.15850000 0.15849900 8621.36262077 0 107.75514196 0 2875.81602466 0 -20.82982529 0 213.94652017 0 26980
0.15950000 0.15949700 8685.60040122 0 48.53972778 0 2916.36008206 0 92.15452244 0 -160.80315802 0 27777
0.16050000 0.16050000 8665.81718600 0 5.24542999 0 2922.03910608 0 188.91817154 0 378.86669599 0 28224
0.16150000 0.16150500 8673.68213997 0 -211.25090606 0 2400.82113710 0 100.68832704 0 138.49239265 0 28075
0.16250000 0.16249700 8785.45016599 0 -92.19077153 0 2573.31188034 0 224.25554153 0 89.39618642 0 28590
0.16350000 0.16349900 8717.51058457 0 252.65285857 0 2410.48756097 0 -9.41394347 0 144.10331232 0 29163
0.16450000 0.16449100 8830.49789814 0 -8.36224754 0 2480.97556322 0 -237.57543425 0 -165.40130010 0 28996
0.16550000 0.16550500 8589.71606716 0 56.75113517 0 2390.33087028 0 106.02078779 0 -50.82364011 0 30777
0.16650000 0.16650700 8518.27240709 0 119.48468825 0 2509.34871420 0 139.09874105 0 -211.39480396 0 29211
0.16750000 0.16749900 8502.38871514 0 132.10266678 0 2311.57148487 0 42.45669118 0 -50.48905003 0 30922
0.16850000 0.16850800 8473.47732010 0 104.61322466 0 2308.11134451 0 186.36315996 0 -10.22036488 0 30867
0.16950000 0.16949900 8333.34712768 0 -47.29385756 0 2296.67640445 0 216.01052135 0 338.00298753 0 30852
0.17050000 0.17049200 8146.02721145 0 63.63967048 0 1903.51658262 0 331.90984512 0 589.44644466 0 31257
0.17150000 0.17149500 8324.08713300 0 30.99593737 0 2135.65355498 0 223.29439143 0 786.55910735 0 32608
0.17250000 0.17250900 8081.64663155 0 115.89163456 0 2002.05918325 0 -186.92886545 0 736.20253126 0 32361
0.17350000 0.17350400 8070.21169150 0 92.01139346 0 2262.70112146 0 -291.74475547 0 585.10534158 0 32508
0.17450000 0.17449800 7927.79670798 0 113.03454723 0 2101.45858054 0 -298.61560562 0 673.05661732 0 32791
0.17550000 0.17549800 8068.75074334 0 -52.98683199 0 2356.61921703 0 123.74121013 0 69.50301563 0 33633
0.17650000 0.17650100 7975.92012046 0 -1.98157296 0 2187.68747530 0 -43.70497800 0 -196.67987053 0 33984
0.17750000 0.17750300 8012.30102485 0 116.61222252 0 2185.07314703 0 158.76332289 0 -55.42496772 0 34069
0.17850000 0.17849800 7930.54285112 0 -0.63792246 0 2061.80427352 0 97.34242623 0 -114.42080029 0 34536
