### header ###
fiducial parameters:
Omega_m = 0.31
Omega_nu = 0
Omega_de = 0.69
Omega_k = 0
H_0 = 100
w_de = -1
zeff = 0
beta = 0
fgrowth = 0
b_1 = 2
gamma = 0.55
Lx = 3500 Ly = 3500 Lz = 3500
nx = 700 ny = 700 nz = 700
xoffset = -983.599254 yoffset = -42.9823471 zoffset = 800.977702
bins = 400 dk = 0.001
kx_ny = 0.628318531 ky_ny = 0.628318531 kz_ny = 0.628318531
############################
A(data) = 9.06509733 (not used)
A(ran) = 9.0418538 (used)
Ngal = 502155
weighted Ngal = 0
Nran = 25229228
weighted Nran = 0
SN(data) = 6784.71381
SN(ran) = 134.22009
SN(data+ran) = 6918.9339
############################
13 columns: k_central k_mean P_0(k) sigma^{lin}_{P_0(k)} P^img_1(k) sigma^{lin}_{P_1(k)} P_2(k) sigma^{lin}_{P_2(k)} P^img_3(k) sigma^{lin}_{P_3(k)} P_4(k) sigma^{lin}_{P_4(k)} N_modes
### header ###
0.00050000 0 0 0 0 0 0 0 0 0 0 0 0
0.00150000 0.00179520 126266.56336528 0 16971.60402108 0 41329.12480013 0 -15046.00844757 0 -396005.92458726 0 3
0.00250000 0.00253879 126398.37823626 0 62179.82078258 0 41029.13612293 0 45218.54225973 0 104025.98941411 0 6
0.00350000 0.00331552 112562.21061280 0 5481.01611920 0 54662.30884509 0 -30643.99166735 0 100539.04669389 0 7
0.00450000 0.00420575 84470.70407617 0 -35641.42296323 0 -6699.28211048 0 101170.76946304 0 4409.32826445 0 24
0.00550000 0.00557378 88712.61646991 0 -3019.43931116 0 -12607.21364306 0 7766.52121334 0 -31867.67305291 0 45
0.00650000 0.00659388 119318.82120758 0 30838.41860204 0 -10378.25712857 0 -20065.62858007 0 66636.37172456 0 40
0.00750000 0.00754703 127679.17939924 0 7819.20322344 0 21731.98824066 0 -10962.04322298 0 -31184.32279263 0 57
0.00850000 0.00846663 74317.99317642 0 3652.18364556 0 33439.89492648 0 -12088.30243432 0 34734.20711374 0 75
0.00950000 0.00948925 72664.15592857 0 4862.91422005 0 37423.66986456 0 15722.10888995 0 10363.27417157 0 112
0.01050000 0.01054430 73809.29762017 0 -7449.69318638 0 26917.69511058 0 32082.53129260 0 25359.75318137 0 105
0.01150000 0.01145670 77961.24636447 0 4939.36684522 0 24933.00253658 0 8186.19779338 0 12433.87708773 0 144
0.01250000 0.01249090 70070.25895921 0 453.03672697 0 23379.34459068 0 -10747.07513756 0 6663.88981763 0 169
0.01350000 0.01339930 85841.68858005 0 8284.99303918 0 27271.06881052 0 9338.38059601 0 12284.48690062 0 180
0.01450000 0.01448870 70362.88797278 0 -1097.75644240 0 34217.05343661 0 9548.55940778 0 26670.21269032 0 267
0.01550000 0.01550050 80441.23331616 0 -5942.44505963 0 32241.80759503 0 8318.29826325 0 30675.18785348 0 238
0.01650000 0.01653350 86705.18583067 0 -4377.07755935 0 24456.16224083 0 -9146.08466840 0 -17790.39406129 0 315
0.01750000 0.01747870 81815.40334609 0 6729.72036111 0 37062.16758090 0 36.28226293 0 4500.02788025 0 297
0.01850000 0.01844180 80326.44453269 0 7026.38071281 0 46547.34600489 0 -7041.44056182 0 15064.24283805 0 388
0.01950000 0.01947590 72473.57359428 0 3029.85268597 0 43291.51869178 0 13849.45895628 0 24055.22534161 0 399
0.02050000 0.02045430 79411.86901956 0 -1090.01561411 0 54234.45974304 0 15114.77187193 0 15067.86774701 0 462
0.02150000 0.02154770 72722.04462607 0 -86.89269248 0 41008.15558930 0 4797.44616747 0 29853.10244149 0 571
0.02250000 0.02255340 71439.59577720 0 931.67300035 0 37173.66099260 0 15376.42439082 0 32835.96312596 0 510
0.02350000 0.02348930 81465.76440082 0 584.02006580 0 35135.25385868 0 4789.44939863 0 24709.24679310 0 555
0.02450000 0.02439640 71952.46547102 0 4789.15281517 0 30058.51394877 0 9001.82427669 0 31965.76528606 0 592
0.02550000 0.02547300 67420.34066969 0 2318.43684274 0 31275.60459078 0 -1602.50634017 0 20449.75908324 0 837
0.02650000 0.02652900 61385.30664777 0 3803.23250313 0 38095.92570653 0 -3476.11193166 0 19327.02591970 0 723
0.02750000 0.02749970 59190.47920029 0 4232.13612414 0 28467.72814753 0 5460.32118446 0 7094.59490854 0 826
0.02850000 0.02848090 56607.34711207 0 -910.34205885 0 31218.26512190 0 -2197.94706609 0 398.69824333 0 831
0.02950000 0.02946900 52616.10266463 0 837.60990842 0 22700.27831370 0 5940.65457430 0 -1924.77173057 0 996
0.03050000 0.03053250 51581.02639029 0 1126.85237826 0 20734.14966737 0 6155.30410711 0 189.75080214 0 1041
0.03150000 0.03150510 53193.45179951 0 -661.74799985 0 11289.28462475 0 2814.04977303 0 -2951.09330056 0 1036
0.03250000 0.03246190 54389.34221644 0 -965.04303339 0 15151.89972725 0 3774.02452463 0 -9501.83103602 0 1059
0.03350000 0.03345080 49545.03586234 0 2114.11280815 0 8135.97632754 0 -2795.92522827 0 -901.69390486 0 1302
0.03450000 0.03451200 48895.84762278 0 1677.54195548 0 14081.12359202 0 -3712.90636279 0 -5639.78713129 0 1339
0.03550000 0.03553350 48846.63673762 0 1271.24458484 0 13179.18033737 0 1398.91827195 0 -6195.36484331 0 1365
0.03650000 0.03647120 45981.42082550 0 -887.66990104 0 13546.61429022 0 4800.24723347 0 -1223.73630842 0 1308
0.03750000 0.03744890 48117.04142677 0 -1128.91747790 0 10604.03403341 0 3003.02835972 0 1516.89258148 0 1579
0.03850000 0.03847530 50346.90966078 0 773.94771956 0 11909.25390124 0 685.55486400 0 -3822.54338173 0 1662
0.03950000 0.03950240 48787.75942858 0 984.23637706 0 10997.53437699 0 -2534.69012314 0 -185.15156160 0 1683
0.04050000 0.04050350 47518.71175826 0 1457.85050385 0 12633.57661725 0 -2508.19533408 0 -3890.99923805 0 1822
0.04150000 0.04152450 45918.14968743 0 815.62758177 0 17928.03075574 0 -5541.70588272 0 -5860.59900932 0 1887
0.04250000 0.04250150 43897.09817819 0 1523.00000383 0 15569.97255970 0 2406.39031539 0 -7399.65845827 0 1920
0.04350000 0.04349210 46438.70858206 0 132.61894169 0 17771.72028790 0 1359.99993130 0 -6219.65173329 0 2005
0.04450000 0.04448520 42339.48578616 0 -636.61200241 0 16444.12484572 0 2641.16358518 0 -4540.56095308 0 2151
0.04550000 0.04548030 42639.25477190 0 918.11034858 0 16303.96169958 0 -1702.86139528 0 -9582.41386048 0 2274
0.04650000 0.04648670 41987.10069775 0 2186.92953979 0 17231.49900835 0 -730.61028536 0 -7441.72937126 0 2311
0.04750000 0.04749250 39494.81102477 0 2248.02573249 0 19409.62990551 0 -687.01031987 0 -6084.77216656 0 2568
0.04850000 0.04851840 38413.92908276 0 -432.48788704 0 15832.83338157 0 3699.70290655 0 -744.03562997 0 2493
0.04950000 0.04949480 38905.59855150 0 -824.06922580 0 17144.72088496 0 1624.80502251 0 -6229.46095661 0 2644
0.05050000 0.05050630 37734.20373143 0 1808.84055154 0 16275.51165660 0 2385.43175091 0 -1220.45192122 0 2829
0.05150000 0.05149060 39144.62285087 0 -575.96947256 0 13493.99818755 0 1500.32784602 0 -1785.14682848 0 2784
0.05250000 0.05249300 38706.88763351 0 -1101.10454013 0 13223.77770205 0 1259.07367842 0 -1925.85920325 0 3055
0.05350000 0.05348950 37129.83254800 0 577.61056770 0 11926.71937165 0 1133.44312181 0 -2523.10139907 0 3009
0.05450000 0.05448610 36543.58590934 0 1178.00753277 0 11370.46061613 0 -3048.99879598 0 -1240.89421080 0 3336
0.05550000 0.05550870 35771.15076542 0 1377.92675375 0 14057.28706952 0 -314.44107934 0 -3917.63682656 0 3349
0.05650000 0.05647670 34895.90002214 0 621.75536799 0 14181.41273969 0 -624.03906063 0 -4188.03306523 0 3324
0.05750000 0.05747970 34800.99331503 0 772.62078320 0 14814.78319473 0 -1395.69979219 0 -7542.63365499 0 3639
0.05850000 0.05849280 33446.04628713 0 211.04659301 0 16934.25647430 0 804.95936488 0 -3309.35513530 0 3846
0.05950000 0.05951020 33086.30153509 0 336.78369997 0 16353.50212193 0 -964.48501710 0 -6161.14789972 0 3787
0.06050000 0.06049470 32934.05535911 0 -82.67626430 0 16511.89965855 0 1458.03724158 0 -2258.18646213 0 3930
0.06150000 0.06148310 32561.34881142 0 468.77871794 0 15929.05823738 0 1395.15056356 0 -5633.70167808 0 4083
0.06250000 0.06249100 33073.22989371 0 59.22013755 0 14821.26409255 0 1458.50957821 0 -169.31180794 0 4303
0.06350000 0.06350600 32790.26730402 0 284.55095889 0 15599.85059712 0 865.68867285 0 -2304.11296009 0 4470
0.06450000 0.06451750 32342.42627988 0 1048.39946242 0 15122.35122701 0 716.41492221 0 606.95805027 0 4479
0.06550000 0.06550280 31129.94915835 0 61.92728546 0 14860.25932522 0 889.89098162 0 2234.59160022 0 4636
0.06650000 0.06648880 31306.36139401 0 -672.78749529 0 13408.20867569 0 2176.92259417 0 508.45609256 0 4653
0.06750000 0.06749660 31584.38092604 0 785.44527169 0 11874.87218906 0 1056.22157656 0 897.63400683 0 5220
0.06850000 0.06852730 30561.82706444 0 890.07552244 0 11908.37513543 0 558.00530256 0 2434.41196005 0 5029
0.06950000 0.06949320 29472.26731010 0 -253.47120923 0 10505.07401902 0 425.44238219 0 1192.48519943 0 5040
0.07050000 0.07048030 29289.81355952 0 594.59491383 0 11343.65825903 0 -467.85381693 0 -980.39726894 0 5475
0.07150000 0.07148790 27802.72212346 0 1330.01204815 0 11390.23284677 0 -1803.27137324 0 -1290.97287719 0 5509
0.07250000 0.07249820 26991.51143833 0 793.94733086 0 11586.63700453 0 -234.22623807 0 -1838.77351183 0 5916
0.07350000 0.07351270 26517.41728572 0 44.63328423 0 11895.85272269 0 1404.92683315 0 -3902.02774893 0 5721
0.07450000 0.07449140 26499.07304951 0 368.51483479 0 11693.40705002 0 467.81427247 0 -2738.57477483 0 6028
0.07550000 0.07549160 25459.82263759 0 291.54154088 0 10557.29467707 0 1527.50367859 0 -1559.22712420 0 6183
0.07650000 0.07648840 25537.48356574 0 35.38097875 0 11548.95992057 0 119.95812333 0 -793.84737125 0 6330
0.07750000 0.07749960 25878.77423584 0 113.63100952 0 9833.69694285 0 1006.48672728 0 -1513.22373423 0 6583
0.07850000 0.07848650 25081.73364934 0 119.88452670 0 10823.78040790 0 30.12365246 0 994.35206995 0 6549
0.07950000 0.07947320 25189.16276918 0 176.22879329 0 9717.84265584 0 398.28742031 0 843.57453133 0 6828
0.08050000 0.08048110 24724.84488617 0 349.58292394 0 10590.97337661 0 998.38340809 0 1537.92803797 0 7147
0.08150000 0.08149960 25326.03054354 0 390.06217236 0 10431.08193811 0 -90.13973214 0 -153.66757967 0 7386
0.08250000 0.08250610 23889.68783281 0 475.47601184 0 10392.75676438 0 -1023.24149584 0 224.67844758 0 7227
0.08350000 0.08350160 22918.76146234 0 654.52124955 0 10593.74148890 0 671.50559567 0 1731.05879309 0 7798
0.08450000 0.08449610 22841.53991710 0 204.13619839 0 10890.64350120 0 376.99712174 0 798.14892988 0 7371
0.08550000 0.08548940 22485.85945691 0 234.70736235 0 10205.79933904 0 1758.01493421 0 1748.12881889 0 8256
0.08650000 0.08650700 21824.47834179 0 72.30419149 0 9315.42283932 0 1028.73158522 0 1945.82915620 0 8037
0.08750000 0.08749060 21720.12490227 0 147.81390094 0 8199.34632676 0 1253.75714529 0 2058.45397888 0 8155
0.08850000 0.08849210 21598.96506670 0 343.03611869 0 7170.03695303 0 -75.03638422 0 1701.78490716 0 8718
0.08950000 0.08949900 20763.03909325 0 -119.50885431 0 7238.49280936 0 61.37190547 0 2048.94133903 0 8571
0.09050000 0.09049190 20402.52542114 0 830.64568940 0 7293.42665683 0 -169.23711285 0 378.55143876 0 8932
0.09150000 0.09150830 20257.41921734 0 230.91438943 0 6991.21909598 0 327.86532549 0 786.26142543 0 9285
0.09250000 0.09250820 19981.26706264 0 -45.65561840 0 6941.32716731 0 -459.04089435 0 -458.91786713 0 9204
0.09350000 0.09350330 19348.55568196 0 488.20713146 0 6883.89982186 0 505.34965543 0 -667.03048080 0 9349
0.09450000 0.09448040 19062.18787476 0 601.00990422 0 7468.67452780 0 -654.25652135 0 -668.52108730 0 9564
0.09550000 0.09549270 18850.73485257 0 285.02109860 0 6992.40542982 0 257.75189716 0 -366.92646559 0 10155
0.09650000 0.09649430 17954.72326711 0 -38.69557352 0 7539.89849641 0 713.29640206 0 -619.19815950 0 9913
0.09750000 0.09749140 17969.99182300 0 175.12923758 0 6615.35997596 0 701.89551417 0 213.93883097 0 10476
0.09850000 0.09850240 18000.19939760 0 77.77176249 0 5856.94114665 0 868.41833914 0 1252.81247205 0 10575
0.09950000 0.09950330 17824.11669912 0 10.89115978 0 6716.33016713 0 116.87585227 0 1179.16091289 0 10882
0.10050000 0.10051200 17250.17278174 0 863.96299650 0 6401.77594669 0 -706.27176789 0 622.88128668 0 10875
0.10150000 0.10150300 16757.29501002 0 416.91286158 0 7079.10666120 0 -290.71110719 0 1873.49574576 0 11118
0.10250000 0.10250800 15959.81504061 0 108.74529133 0 7696.64834715 0 653.87315976 0 2205.47149831 0 11575
0.10350000 0.10349800 16593.40518710 0 62.68522097 0 7387.83905817 0 1098.57808843 0 2087.74983396 0 11364
0.10450000 0.10450100 15950.25846247 0 214.16950699 0 6480.80994641 0 480.31142069 0 2597.21431028 0 12093
0.10550000 0.10551000 15804.93256721 0 88.11307850 0 6348.79735313 0 455.83889144 0 3249.20361584 0 12067
0.10650000 0.10649700 15718.48398100 0 165.94613490 0 6368.07527801 0 544.52283817 0 2779.38246197 0 12054
0.10750000 0.10749900 15281.84722089 0 216.80580441 0 6140.27721182 0 -47.71841129 0 3014.34246948 0 12807
0.10850000 0.10850100 15140.58561749 0 215.55466159 0 5693.35889177 0 71.13125882 0 3022.81157494 0 12736
0.10950000 0.10950300 14652.87059488 0 84.04549127 0 6015.32769870 0 218.99612818 0 1825.73482417 0 12933
0.11050000 0.11050200 14399.56635116 0 253.57556267 0 5383.31933066 0 -42.42977897 0 2329.19073929 0 13428
0.11150000 0.11150900 14264.01672550 0 355.07850561 0 6083.31121841 0 -31.89414587 0 1675.55374784 0 13453
0.11250000 0.11250000 13787.94534983 0 48.63902832 0 5203.61172323 0 81.04692265 0 1711.59413048 0 13668
0.11350000 0.11349100 14080.35467194 0 -135.60784389 0 5011.76616310 0 961.95746695 0 940.00040482 0 13791
0.11450000 0.11448600 13957.54715048 0 -29.45666922 0 4575.71158534 0 516.63190993 0 1381.04637236 0 14205
0.11550000 0.11549300 13924.59343274 0 133.07919528 0 4004.92024029 0 -118.75860801 0 720.46054029 0 14776
0.11650000 0.11649800 13965.67573419 0 198.58020158 0 4098.55273698 0 -50.01462634 0 770.40080108 0 14553
0.11750000 0.11747300 13577.15140199 0 265.15330217 0 4164.72380221 0 -592.72973340 0 836.08854511 0 14568
0.11850000 0.11849100 13399.31117190 0 15.78318311 0 4603.28286252 0 271.72427349 0 107.81259127 0 16015
0.11950000 0.11950300 13494.87695336 0 -104.15088400 0 4259.32294128 0 180.12941502 0 357.07110707 0 15270
0.12050000 0.12050700 13625.81305853 0 -231.80853364 0 3955.66541684 0 176.89445839 0 -364.00237237 0 15999
0.12150000 0.12150000 13829.57687991 0 58.26217297 0 3442.57603157 0 555.70842843 0 -107.51062537 0 15670
0.12250000 0.12250700 13807.93727193 0 67.32763088 0 3392.16782799 0 -105.79780097 0 -327.28973389 0 16887
0.12350000 0.12352200 13486.41883247 0 73.94276018 0 3204.21080655 0 107.21898497 0 -230.99677373 0 16407
0.12450000 0.12449800 13316.15795746 0 371.55865985 0 3391.70647594 0 36.81874945 0 -82.14131561 0 16306
0.12550000 0.12549900 13017.04804607 0 180.02176621 0 3353.77674682 0 -220.97554816 0 214.16731008 0 17523
0.12650000 0.12650100 12782.96680436 0 144.10221387 0 3820.87372669 0 340.98969281 0 595.84605665 0 17154
0.12750000 0.12750600 12691.13577758 0 107.94506522 0 3260.39689530 0 370.90947161 0 397.29661187 0 18007
0.12850000 0.12850300 12464.41419950 0 6.81978287 0 3235.85736016 0 269.75913345 0 616.47618241 0 17496
0.12950000 0.12949900 12694.43114936 0 373.52050451 0 3558.56213345 0 -404.31245837 0 151.63763066 0 18405
0.13050000 0.13049000 11913.86742172 0 190.31650763 0 3631.43378796 0 -496.11931909 0 823.36731161 0 18100
0.13150000 0.13148800 11931.00335495 0 67.76459717 0 3962.09139180 0 26.21259540 0 97.07725864 0 19059
0.13250000 0.13249300 11946.27191084 0 121.73982100 0 3982.20414420 0 -60.62693176 0 -205.66744781 0 18957
0.13350000 0.13349100 11823.90377228 0 20.25467307 0 3932.12547780 0 194.83446233 0 9.97067456 0 19468
0.13450000 0.13450700 11647.38169090 0 -51.44503738 0 3567.11911549 0 504.29953029 0 241.42442848 0 19953
0.13550000 0.13551000 11919.79909092 0 33.03126883 0 3428.31805635 0 263.09259635 0 62.93336246 0 19956
0.13650000 0.13649900 11848.50921487 0 -1.04466141 0 3408.47991827 0 119.86914829 0 422.04595235 0 19723
0.13750000 0.13749600 11807.97614204 0 79.98240772 0 3112.54454836 0 153.12164641 0 257.13346573 0 20946
0.13850000 0.13851100 11690.33136969 0 121.33998256 0 3384.81914893 0 -484.22192853 0 -112.51717387 0 20955
0.13950000 0.13949800 11326.30263435 0 210.68849594 0 3106.40417229 0 198.44399288 0 291.55142700 0 20506
0.14050000 0.14048300 11332.34414927 0 163.38782795 0 3880.91540042 0 -24.88785594 0 231.10661945 0 21447
0.14150000 0.14148400 11214.15014829 0 24.36158507 0 3237.30732374 0 37.59250275 0 125.94251847 0 21771
0.14250000 0.14249400 10958.36339116 0 295.31364311 0 3536.15360539 0 160.21658184 0 -194.02599779 0 22470
0.14350000 0.14350900 10687.68155361 0 395.80380845 0 3877.74085895 0 -642.08012264 0 31.04130366 0 22519
0.14450000 0.14449900 10328.39815362 0 155.83922967 0 3770.38863111 0 271.90551894 0 343.08554926 0 22218
0.14550000 0.14550500 10237.40195436 0 -118.67512525 0 3857.58416826 0 699.45144678 0 651.39504019 0 23559
0.14650000 0.14650700 10258.28362684 0 -97.36450522 0 3113.89565079 0 778.26136122 0 1229.12973356 0 23044
0.14750000 0.14750500 10074.43483554 0 51.67099004 0 2851.54011925 0 228.18801852 0 899.12681024 0 23649
0.14850000 0.14849900 10098.78763296 0 340.74473685 0 2839.55595057 0 -18.27228726 0 1665.23923419 0 23640
0.14950000 0.14949500 9918.92624151 0 118.54331038 0 2881.47307954 0 -176.94388897 0 924.13758355 0 24457
0.15050000 0.15050000 9855.75396459 0 -87.05932845 0 2949.52250668 0 152.11545956 0 1204.45838354 0 24591
0.15150000 0.15149900 9745.68854733 0 91.02662653 0 2693.90051814 0 -20.29597507 0 689.22261279 0 25020
0.15250000 0.15250500 9743.27194136 0 152.58559927 0 2736.89413522 0 -136.47013284 0 563.31524495 0 25297
0.15350000 0.15350100 9556.52322291 0 -16.80529759 0 2682.66330039 0 39.76393305 0 468.57989717 0 25452
0.15450000 0.15450400 9495.33915363 0 6.54313641 0 2817.02659220 0 229.37764773 0 163.42737241 0 26061
0.15550000 0.15549900 9388.20661724 0 234.14275531 0 2598.38965954 0 -354.78961135 0 -140.33560393 0 26128
0.15650000 0.15649500 9125.89502400 0 465.91723678 0 2975.08360708 0 -319.22266379 0 113.79248274 0 26331
0.15750000 0.15749700 8857.37714725 0 45.44383584 0 3129.20814496 0 105.11137503 0 314.25653852 0 27345
0.15850000 0.15849900 8900.72227065 0 -119.84168686 0 2936.71449505 0 494.90772074 0 206.07936928 0 26980
0.15950000 0.15949700 9088.85504526 0 -46.47254107 0 2569.91764741 0 396.07512739 0 182.16705323 0 27777
0.16050000 0.16050000 8670.26593790 0 13.48114624 0 2500.18758067 0 82.72141089 0 694.46445082 0 28224
0.16150000 0.16150500 8872.74456429 0 125.80850669 0 2382.76249977 0 58.18528096 0 823.60018455 0 28075
0.16250000 0.16249700 8626.34961672 0 57.65549503 0 2199.02355420 0 134.72688117 0 643.75856533 0 28590
0.16350000 0.16349900 8829.57519404 0 98.66343093 0 2304.88188017 0 75.50586486 0 327.90706687 0 29163
0.16450000 0.16449100 8578.29211167 0 141.50765782 0 2383.25680554 0 -21.96782701 0 498.17233571 0 28996
0.16550000 0.16550500 8684.46899025 0 68.72607681 0 2232.48256229 0 -175.04795174 0 70.92343071 0 30777
0.16650000 0.16650700 8362.04981584 0 -36.16538708 0 2044.96492375 0 -209.50545747 0 1.72071133 0 29211
0.16750000 0.16749900 8382.12961452 0 58.00963765 0 2205.73512805 0 209.41428552 0 -239.43402393 0 30922
0.16850000 0.16850800 8252.41279690 0 86.95058118 0 2193.28960732 0 -121.73652563 0 -280.30102776 0 30867
0.16950000 0.16949900 8220.57950556 0 125.59650444 0 2245.02694417 0 -12.58656265 0 -278.87083641 0 30852
0.17050000 0.17049200 8153.71641226 0 130.37369505 0 2274.79513587 0 18.56744273 0 -236.68568387 0 31257
0.17150000 0.17149500 8050.84589004 0 23.85728334 0 2185.75419053 0 81.25376215 0 -286.28322599 0 32608
0.17250000 0.17250900 8125.31030756 0 -96.48705756 0 2038.36319563 0 387.21606961 0 -510.03128027 0 32361
0.17350000 0.17350400 8024.03254836 0 145.78944421 0 2007.61737697 0 -91.08242816 0 -158.80945809 0 32508
0.17450000 0.17449800 7806.35127352 0 148.66740223 0 2004.00345260 0 -136.87436511 0 152.34613559 0 32791
0.17550000 0.17549800 7883.43001932 0 112.24036264 0 2281.31997198 0 8.18201267 0 46.36511195 0 33633
0.17650000 0.17650100 7706.77612307 0 62.48200637 0 2133.50057876 0 -48.86992403 0 -406.47092689 0 33984
0.17750000 0.17750300 7656.78533325 0 92.81832016 0 2151.87776869 0 273.79266850 0 -38.57957644 0 34069
0.17850000 0.17849800 7529.60595191 0 -149.57472793 0 1912.18341039 0 145.11938529 0 500.80643621 0 34536
