### header ###
fiducial parameters:
Omega_m = 0.31
Omega_nu = 0
Omega_de = 0.69
Omega_k = 0
H_0 = 100
w_de = -1
zeff = 0
beta = 0
fgrowth = 0
b_1 = 2
gamma = 0.55
Lx = 3500 Ly = 3500 Lz = 3500
nx = 700 ny = 700 nz = 700
xoffset = -983.599254 yoffset = -42.9823471 zoffset = 800.977702
bins = 400 dk = 0.001
kx_ny = 0.628318531 ky_ny = 0.628318531 kz_ny = 0.628318531
############################
A(data) = 9.03274087 (not used)
A(ran) = 9.0324868 (used)
Ngal = 501512
weighted Ngal = 0
Nran = 25229228
weighted Nran = 0
SN(data) = 6740.13973
SN(ran) = 134.081044
SN(data+ran) = 6874.22077
############################
13 columns: k_central k_mean P_0(k) sigma^{lin}_{P_0(k)} P^img_1(k) sigma^{lin}_{P_1(k)} P_2(k) sigma^{lin}_{P_2(k)} P^img_3(k) sigma^{lin}_{P_3(k)} P_4(k) sigma^{lin}_{P_4(k)} N_modes
### header ###
0.00050000 0 0 0 0 0 0 0 0 0 0 0 0
0.00150000 0.00179520 54965.15351115 0 7905.12455017 0 -1808.54396808 0 3240.29512748 0 -111059.52108367 0 3
0.00250000 0.00253879 67213.61101371 0 34412.57882856 0 25739.38000978 0 -30197.35894619 0 58761.20210381 0 6
0.00350000 0.00331552 65789.24148708 0 6982.78294423 0 16585.82583202 0 11612.89013300 0 42008.74030573 0 7
0.00450000 0.00420575 53984.23117964 0 -11227.55132684 0 36158.46679464 0 28095.35113703 0 -4058.40412419 0 24
0.00550000 0.00557378 62233.64518823 0 4711.81043962 0 34215.18605927 0 -13881.97329112 0 -18902.69188088 0 45
0.00650000 0.00659388 88536.75346288 0 5456.69627551 0 67007.10104918 0 5420.75475402 0 51133.40505760 0 40
0.00750000 0.00754703 74821.08660064 0 -11725.92138486 0 49958.71486576 0 38864.29655860 0 10469.78058732 0 57
0.00850000 0.00846663 83487.47498442 0 -3918.52657694 0 54757.65493509 0 -11917.16279350 0 -14911.55727917 0 75
0.00950000 0.00948925 78085.48188037 0 13074.60720640 0 57721.40246326 0 -383.69551410 0 6901.03575508 0 112
0.01050000 0.01054430 75092.40554340 0 18322.81629431 0 97102.85269899 0 4813.29690570 0 19089.97884339 0 105
0.01150000 0.01145670 69005.19480172 0 -2445.24274862 0 69627.58068418 0 24856.00068279 0 13073.28905769 0 144
0.01250000 0.01249090 68676.53639009 0 -345.92725819 0 76638.15459705 0 34262.41972137 0 6695.88787755 0 169
0.01350000 0.01339930 69675.69311209 0 3968.90182680 0 70453.18115940 0 7019.11991033 0 21975.07683188 0 180
0.01450000 0.01448870 77570.08573485 0 -5008.95411252 0 43945.54014328 0 34466.40323421 0 37911.93411580 0 267
0.01550000 0.01550050 79492.27609086 0 -15023.70976523 0 43737.05295568 0 24086.20183629 0 35905.82162527 0 238
0.01650000 0.01653350 88493.47424691 0 2122.95538908 0 24957.38828772 0 -13578.03016780 0 1156.88419969 0 315
0.01750000 0.01747870 85076.94263694 0 12435.30508216 0 26060.67875779 0 -3063.03707973 0 19479.49178713 0 297
0.01850000 0.01844180 72829.03436302 0 7239.76701977 0 50858.24151444 0 -9141.64690108 0 18567.11318852 0 388
0.01950000 0.01947590 74839.43083685 0 -1986.23041416 0 38720.28881206 0 20292.56984960 0 6787.29050600 0 399
0.02050000 0.02045430 81732.68951455 0 -12503.62912362 0 31032.95538246 0 12727.82425000 0 2807.59084436 0 462
0.02150000 0.02154770 89299.19264576 0 -1473.51450435 0 30546.33881710 0 -6223.86980916 0 -22840.77099702 0 571
0.02250000 0.02255340 80057.21265872 0 14380.67288632 0 27387.83481706 0 -16109.64461062 0 8452.56269391 0 510
0.02350000 0.02348930 77336.99310467 0 926.61350621 0 34932.47864883 0 4983.53581157 0 -3488.50252953 0 555
0.02450000 0.02439640 78072.19054754 0 52.50449941 0 38938.99165215 0 7032.52108888 0 -9372.64147789 0 592
0.02550000 0.02547300 72012.44123732 0 4737.58024690 0 33834.35092788 0 2903.24450239 0 -12515.49246201 0 837
0.02650000 0.02652900 67243.70874258 0 2008.99044855 0 31039.65597173 0 1502.60165255 0 3751.84667259 0 723
0.02750000 0.02749970 66779.17116811 0 2190.52149503 0 29829.26591899 0 10330.83672874 0 2326.62034931 0 826
0.02850000 0.02848090 61752.08152626 0 611.21017831 0 26029.59241738 0 4468.49117237 0 13417.65540811 0 831
0.02950000 0.02946900 59508.26288507 0 -1166.59456186 0 20463.16026178 0 8477.46471995 0 8319.38573593 0 996
0.03050000 0.03053250 59496.50939241 0 -79.84345288 0 15135.31302266 0 11440.76188065 0 16583.73876323 0 1041
0.03150000 0.03150510 64839.95472460 0 505.71983553 0 12964.65163486 0 -1791.68264917 0 9120.10615425 0 1036
0.03250000 0.03246190 57254.66797428 0 5332.87817337 0 18235.37909656 0 -6296.34601905 0 14260.17212510 0 1059
0.03350000 0.03345080 53214.32248741 0 5482.27934505 0 25851.42265011 0 -9158.43132799 0 12784.39479880 0 1302
0.03450000 0.03451200 49863.47862148 0 629.92788999 0 26884.96108429 0 3669.17677935 0 8183.46263481 0 1339
0.03550000 0.03553350 51045.63832268 0 -2173.41851552 0 28402.69947785 0 3803.48514830 0 1558.10669780 0 1365
0.03650000 0.03647120 49751.21628969 0 1193.14427379 0 28631.83766190 0 1822.42846783 0 6792.09076422 0 1308
0.03750000 0.03744890 48327.72552888 0 1198.42785320 0 26538.94704798 0 -471.28869277 0 6392.04361538 0 1579
0.03850000 0.03847530 49350.38923620 0 1468.45061639 0 26335.95214667 0 2143.11207977 0 1208.27003023 0 1662
0.03950000 0.03950240 47054.17418380 0 1557.70026862 0 25298.89864927 0 -990.41959297 0 -2201.55000590 0 1683
0.04050000 0.04050350 46221.54358213 0 1500.38276889 0 26761.38464275 0 1547.08917150 0 2773.07731731 0 1822
0.04150000 0.04152450 43735.07573262 0 -502.05428366 0 23047.06127009 0 3822.36762857 0 2333.01337055 0 1887
0.04250000 0.04250150 44097.34693635 0 37.89446865 0 21043.03584835 0 4346.69423159 0 -1266.86174038 0 1920
0.04350000 0.04349210 43929.83220449 0 1110.94671716 0 19189.71876243 0 2172.46285770 0 -1310.42655524 0 2005
0.04450000 0.04448520 39845.87796447 0 1101.60983047 0 14770.40552150 0 -697.17104951 0 2554.98961328 0 2151
0.04550000 0.04548030 39542.37422405 0 1016.73643196 0 18498.67930134 0 -159.26751477 0 103.87615984 0 2274
0.04650000 0.04648670 39101.78301781 0 719.12481627 0 17820.82132734 0 1950.87107502 0 -1383.95728410 0 2311
0.04750000 0.04749250 37763.53254022 0 228.48789735 0 15261.74545307 0 1668.35885280 0 -403.39085273 0 2568
0.04850000 0.04851840 37810.43666514 0 -508.10678315 0 13076.03520083 0 2151.29558634 0 -1747.67845141 0 2493
0.04950000 0.04949480 37582.17724690 0 373.54027674 0 14811.92720586 0 1267.26816956 0 -1194.81392882 0 2644
0.05050000 0.05050630 36033.57220439 0 1475.76634173 0 11827.74837269 0 -373.54467057 0 1087.88021320 0 2829
0.05150000 0.05149060 36362.12077029 0 702.87863342 0 13926.24111863 0 1061.77427800 0 2082.46625454 0 2784
0.05250000 0.05249300 35251.69032805 0 -442.98254769 0 12009.32335746 0 797.45250797 0 -1006.20442377 0 3055
0.05350000 0.05348950 36214.70780625 0 570.85285865 0 14317.84113115 0 -92.25986449 0 -2869.52186457 0 3009
0.05450000 0.05448610 34373.80328735 0 1198.21914632 0 13023.08956099 0 -3197.07083437 0 -1.47654625 0 3336
0.05550000 0.05550870 33310.05727857 0 -98.44209179 0 14941.32547087 0 1942.84135246 0 1668.31491451 0 3349
0.05650000 0.05647670 32803.33894539 0 1069.11416940 0 15028.98236007 0 2551.95787124 0 1589.44568338 0 3324
0.05750000 0.05747970 34384.23863130 0 811.43806578 0 14743.71301013 0 1670.57773646 0 4592.35321280 0 3639
0.05850000 0.05849280 31966.53420614 0 -432.74931987 0 13864.94720362 0 2132.01766146 0 5689.82185940 0 3846
0.05950000 0.05951020 32746.32901369 0 240.96637180 0 15002.61938587 0 1172.13078644 0 6203.79001048 0 3787
0.06050000 0.06049470 31199.81103997 0 508.03098960 0 13810.90310652 0 -346.06676226 0 9351.54011397 0 3930
0.06150000 0.06148310 31193.00060497 0 -220.17257591 0 14566.75154585 0 634.47879841 0 7944.08682912 0 4083
0.06250000 0.06249100 31923.58452735 0 -150.92912572 0 14089.69155864 0 848.35391886 0 6315.71182051 0 4303
0.06350000 0.06350600 32911.31729387 0 381.82154601 0 13506.08121739 0 169.77535690 0 3137.67725043 0 4470
0.06450000 0.06451750 32708.10270111 0 123.26777505 0 14093.09677614 0 -1692.04159128 0 3073.42848540 0 4479
0.06550000 0.06550280 31891.61942114 0 463.57752282 0 13993.68639428 0 164.66862911 0 -122.12977333 0 4636
0.06650000 0.06648880 32008.38542768 0 293.69891094 0 14612.33752206 0 -826.48912714 0 1259.95244423 0 4653
0.06750000 0.06749660 30020.94671054 0 374.61456794 0 14265.00533704 0 771.60141486 0 1387.18674843 0 5220
0.06850000 0.06852730 30122.88354409 0 102.31646038 0 11957.91555778 0 3127.56045908 0 837.40559537 0 5029
0.06950000 0.06949320 30887.73933293 0 148.43452929 0 11973.84318802 0 1016.35856266 0 -283.40307106 0 5040
0.07050000 0.07048030 29267.18534001 0 656.07556657 0 11588.06499896 0 345.69328679 0 1731.16863882 0 5475
0.07150000 0.07148790 28723.55884295 0 1037.64666432 0 12551.08247717 0 -660.91756616 0 2256.26416193 0 5509
0.07250000 0.07249820 27873.35292516 0 476.89192325 0 11766.89384059 0 -1264.20347381 0 205.28628314 0 5916
0.07350000 0.07351270 27509.98326417 0 616.77166741 0 12029.86450818 0 862.39439953 0 981.69784234 0 5721
0.07450000 0.07449140 27197.47217423 0 19.38337678 0 12182.11068416 0 1886.85298602 0 1249.24248596 0 6028
0.07550000 0.07549160 26816.74688856 0 -241.34753647 0 11525.89231815 0 1072.60506656 0 2015.27362406 0 6183
0.07650000 0.07648840 25904.03875278 0 572.55876277 0 11360.24496363 0 -835.66014678 0 798.99364351 0 6330
0.07750000 0.07749960 25379.19587484 0 810.70100096 0 11868.06175406 0 51.40944737 0 1771.15248302 0 6583
0.07850000 0.07848650 25910.73934205 0 374.10927760 0 11739.98163776 0 843.10439162 0 1583.15152329 0 6549
0.07950000 0.07947320 24787.45694988 0 -1.66741418 0 10875.58365219 0 389.93145595 0 -505.62756512 0 6828
0.08050000 0.08048110 24960.68365949 0 323.34187850 0 10362.71395837 0 147.93582970 0 -679.63198247 0 7147
0.08150000 0.08149960 24000.30247870 0 651.12372125 0 11223.59688071 0 288.34832563 0 423.86060374 0 7386
0.08250000 0.08250610 23197.44006873 0 -205.51366380 0 9590.39964475 0 1024.23999349 0 935.46817017 0 7227
0.08350000 0.08350160 23835.75358143 0 -0.97353191 0 8387.29236363 0 1533.30353291 0 -1189.15687394 0 7798
0.08450000 0.08449610 22650.51819991 0 235.56855284 0 8005.19400639 0 726.21425941 0 -1078.25553070 0 7371
0.08550000 0.08548940 22818.36246895 0 169.62926209 0 7309.34330250 0 294.65237184 0 514.66237607 0 8256
0.08650000 0.08650700 22155.11397649 0 798.16430828 0 6912.92106262 0 122.37692621 0 -381.88525653 0 8037
0.08750000 0.08749060 21867.31817486 0 417.23141419 0 6330.45311692 0 -260.40576990 0 194.07542837 0 8155
0.08850000 0.08849210 21334.45655894 0 166.87762666 0 6652.61964616 0 202.78619442 0 -2077.77584205 0 8718
0.08950000 0.08949900 20759.85356721 0 387.93336220 0 6486.86244590 0 -266.02328032 0 -1623.88231842 0 8571
0.09050000 0.09049190 19736.20124835 0 383.70210484 0 6543.27921068 0 488.32027256 0 -426.02126917 0 8932
0.09150000 0.09150830 19912.17410110 0 -193.40756635 0 5993.86384388 0 388.91098916 0 -308.02389204 0 9285
0.09250000 0.09250820 19736.75047698 0 122.74051557 0 5988.54731075 0 594.28734580 0 -1407.84872946 0 9204
0.09350000 0.09350330 19293.74266477 0 627.11693787 0 5219.29769288 0 323.30013713 0 -1865.50996149 0 9349
0.09450000 0.09448040 19162.58686815 0 330.49173680 0 5627.38554885 0 64.41814714 0 312.88127004 0 9564
0.09550000 0.09549270 18847.43948079 0 23.34056905 0 5152.07210868 0 839.34547088 0 -141.22864968 0 10155
0.09650000 0.09649430 18371.25825939 0 346.15354038 0 5740.23006298 0 -242.21971153 0 -365.99717075 0 9913
0.09750000 0.09749140 18128.16966817 0 423.41792546 0 5418.98623784 0 -995.64495414 0 -694.35570355 0 10476
0.09850000 0.09850240 17757.22065210 0 11.42889854 0 6030.90382263 0 -22.29714450 0 -560.84151920 0 10575
0.09950000 0.09950330 17590.47484031 0 257.84636449 0 5889.48843521 0 25.07283615 0 -1073.79579423 0 10882
0.10050000 0.10051200 17269.94501239 0 705.50284781 0 6196.32050113 0 333.16757868 0 -1098.08378267 0 10875
0.10150000 0.10150300 17129.12279189 0 -44.96161311 0 6254.06639919 0 -309.50021859 0 -49.08500196 0 11118
0.10250000 0.10250800 16480.92316387 0 14.78567408 0 6619.77577414 0 363.57177713 0 -1211.62032487 0 11575
0.10350000 0.10349800 16456.64725847 0 246.85629962 0 6545.12461888 0 655.77349082 0 557.77792191 0 11364
0.10450000 0.10450100 16376.78941580 0 126.42364275 0 5840.67299466 0 359.36578428 0 649.75724042 0 12093
0.10550000 0.10551000 16105.47047304 0 132.02467631 0 5993.31461525 0 148.30271442 0 802.61525709 0 12067
0.10650000 0.10649700 15996.83305021 0 350.92523871 0 6261.61280055 0 364.35058332 0 -88.02025886 0 12054
0.10750000 0.10749900 15895.22575383 0 -74.76264867 0 5860.20356471 0 -8.41921353 0 948.58594675 0 12807
0.10850000 0.10850100 15578.65037204 0 111.96245295 0 5756.91562873 0 805.47344287 0 627.00928906 0 12736
0.10950000 0.10950300 15624.78557688 0 194.27205222 0 5168.82358187 0 108.26976919 0 1935.08624422 0 12933
0.11050000 0.11050200 15417.94607517 0 30.81040794 0 4894.00056046 0 547.34147950 0 544.60632092 0 13428
0.11150000 0.11150900 15005.03599184 0 213.01612687 0 4936.45593348 0 417.25118642 0 1368.60085163 0 13453
0.11250000 0.11250000 14989.10836160 0 149.12545891 0 4680.03207114 0 314.92549899 0 1732.67352526 0 13668
0.11350000 0.11349100 14809.62044562 0 -117.22735859 0 4221.85456420 0 486.65281444 0 1507.81932452 0 13791
0.11450000 0.11448600 14705.92608045 0 316.35019806 0 4211.34232824 0 -344.03571479 0 1405.52000007 0 14205
0.11550000 0.11549300 14059.04460114 0 469.46964755 0 4446.41218148 0 -1004.60067617 0 822.58191467 0 14776
0.11650000 0.11649800 13818.59230733 0 336.49919954 0 5064.19552803 0 278.74341537 0 426.66166975 0 14553
0.11750000 0.11747300 13643.16868321 0 61.28567657 0 4791.85502002 0 453.10153595 0 688.64372581 0 14568
0.11850000 0.11849100 13736.64739587 0 -172.29961168 0 4639.55392118 0 48.22886438 0 449.38655350 0 16015
0.11950000 0.11950300 13726.65143482 0 -70.85312945 0 4389.44618808 0 634.07566460 0 778.37669923 0 15270
0.12050000 0.12050700 13932.06294210 0 77.70190061 0 4204.74060012 0 284.59379872 0 619.23550704 0 15999
0.12150000 0.12150000 13292.43128068 0 138.88454189 0 3938.63932934 0 -70.99461074 0 1565.55423801 0 15670
0.12250000 0.12250700 13038.57780833 0 581.24755968 0 4096.02628528 0 -305.91924793 0 950.47858860 0 16887
0.12350000 0.12352200 12995.29859236 0 196.72820265 0 4564.24369156 0 196.37559787 0 1825.65793216 0 16407
0.12450000 0.12449800 12835.69275275 0 -106.33703364 0 4385.65651054 0 847.68605685 0 1419.52533011 0 16306
0.12550000 0.12549900 12530.65117217 0 -46.25526622 0 4089.46849545 0 238.86282615 0 1477.28221275 0 17523
0.12650000 0.12650100 12856.67328638 0 183.61591836 0 3829.43070874 0 -272.79087549 0 1212.57598268 0 17154
0.12750000 0.12750600 12411.35871393 0 152.41973222 0 4256.95027360 0 -425.76862400 0 1276.79179399 0 18007
0.12850000 0.12850300 12378.18530474 0 -50.43149087 0 3755.95490274 0 299.25490775 0 1395.99637565 0 17496
0.12950000 0.12949900 12718.92674621 0 -156.79049365 0 3658.65355881 0 695.83642394 0 771.64535315 0 18405
0.13050000 0.13049000 12520.76505684 0 42.51348142 0 3793.26949580 0 79.67330185 0 721.90391313 0 18100
0.13150000 0.13148800 12293.05486723 0 354.98513674 0 3811.35010227 0 -311.01499115 0 1095.07510824 0 19059
0.13250000 0.13249300 12090.60919456 0 185.00766370 0 3681.83100696 0 -48.44954444 0 1199.93273964 0 18957
0.13350000 0.13349100 12176.61839787 0 30.46109853 0 4021.30922259 0 221.16228590 0 1172.21866302 0 19468
0.13450000 0.13450700 12029.86450818 0 65.49628294 0 3816.47989766 0 -30.01468550 0 656.57097079 0 19953
0.13550000 0.13551000 12078.74585617 0 43.93686233 0 3887.01183821 0 147.85234694 0 761.39894385 0 19956
0.13650000 0.13649900 11833.89973333 0 108.98903900 0 3530.16701333 0 -50.13578618 0 870.15829543 0 19723
0.13750000 0.13749600 11728.88721946 0 164.89710822 0 3957.86233136 0 -100.18369577 0 1099.21519364 0 20946
0.13850000 0.13851100 11562.14140767 0 75.25761352 0 3469.93860187 0 269.58997103 0 715.11764419 0 20955
0.13950000 0.13949800 11468.55284928 0 -13.72401514 0 3334.59768309 0 563.82163374 0 1112.53948018 0 20506
0.14050000 0.14048300 11411.87245476 0 127.63633957 0 3184.64728278 0 227.71678035 0 485.84984219 0 21447
0.14150000 0.14148400 11289.83385338 0 273.92887720 0 3054.24942167 0 0.63453812 0 1290.99484634 0 21771
0.14250000 0.14249400 11193.49915184 0 4.12268584 0 3102.92206278 0 114.63060563 0 706.07734096 0 22470
0.14350000 0.14350900 10746.41606321 0 46.82437693 0 2898.32341388 0 -24.54228129 0 667.36221489 0 22519
0.14450000 0.14449900 10688.79099545 0 341.81683113 0 2972.18367991 0 -282.63634789 0 303.47518053 0 22218
0.14550000 0.14550500 10470.46163082 0 154.26953425 0 3056.16073730 0 -126.70704473 0 404.11363761 0 23559
0.14650000 0.14650700 10416.74707090 0 128.44480411 0 3547.12719339 0 -294.49419399 0 72.53310998 0 23044
0.14750000 0.14750500 10013.79999489 0 109.19873449 0 2946.44682636 0 334.71420650 0 584.72527536 0 23649
0.14850000 0.14849900 10431.94971935 0 -350.02889759 0 2776.16398220 0 591.48078750 0 -83.56876082 0 23640
0.14950000 0.14949500 10524.36292848 0 -57.94175299 0 2374.76573093 0 541.37795504 0 -87.35909744 0 24457
0.15050000 0.15050000 10477.56864928 0 251.11062458 0 2431.39120259 0 -180.52815500 0 139.86326731 0 24591
0.15150000 0.15149900 10098.54597236 0 212.73821718 0 2518.46590944 0 -780.67137644 0 174.46027711 0 25020
0.15250000 0.15250500 9999.10263678 0 212.40208926 0 2937.21978539 0 -134.63241384 0 -222.23438018 0 25297
0.15350000 0.15350100 9788.93480958 0 32.80828200 0 3005.96124060 0 87.34547657 0 -404.50249148 0 25452
0.15450000 0.15450400 9765.07631794 0 -19.38667215 0 3023.25095785 0 32.10241337 0 -852.66096977 0 26061
0.15550000 0.15549900 9664.75421655 0 431.84748646 0 3100.52742596 0 -247.15727691 0 -807.31335878 0 26128
0.15650000 0.15649500 9288.38980620 0 324.36234530 0 3473.01428219 0 -456.43535373 0 -742.12431434 0 26331
0.15750000 0.15749700 8933.25857464 0 0.58415078 0 3408.39204169 0 389.26688931 0 -201.83163507 0 27345
0.15850000 0.15849900 9086.44942386 0 50.90415703 0 3458.80024527 0 316.06020534 0 -661.31520769 0 26980
0.15950000 0.15949700 8876.12781264 0 8.28316960 0 2996.82207621 0 546.85925676 0 392.06575840 0 27777
0.16050000 0.16050000 8816.93195100 0 41.46412520 0 2621.61104598 0 322.55977694 0 108.01723386 0 28224
0.16150000 0.16150500 8725.01304764 0 73.29554916 0 2459.58860041 0 123.15133858 0 478.98448432 0 28075
0.16250000 0.16249700 8570.19648168 0 58.50855693 0 2534.07498708 0 521.81223436 0 864.25848150 0 28590
0.16350000 0.16349900 8626.63521560 0 141.12539470 0 2528.78042310 0 -307.14842161 0 959.76274935 0 29163
0.16450000 0.16449100 8622.69175405 0 27.78536650 0 2257.37360376 0 229.21946988 0 423.52996810 0 28996
0.16550000 0.16550500 8550.85264937 0 -15.45133918 0 2335.64966797 0 -124.60240062 0 811.46882259 0 30777
0.16650000 0.16650700 8323.48298150 0 95.87928116 0 2345.64562902 0 -59.98334565 0 589.71776360 0 29211
0.16750000 0.16749900 8428.51746453 0 161.39852185 0 2528.14331789 0 -140.08186030 0 346.16232804 0 30922
0.16850000 0.16850800 8369.82689323 0 83.83722378 0 2517.53222077 0 -215.59969834 0 137.39393539 0 30867
0.16950000 0.16949900 8285.42143751 0 89.91399917 0 2684.45378572 0 233.01683663 0 -7.19196216 0 30852
0.17050000 0.17049200 8123.11339305 0 -24.15320773 0 2546.25687807 0 -145.75209667 0 292.94536926 0 31257
0.17150000 0.17149500 8032.27097780 0 12.53383670 0 2737.76191646 0 141.11111475 0 299.25271083 0 32608
0.17250000 0.17250900 7936.24384429 0 220.51968840 0 2571.36761099 0 207.69190454 0 338.66096343 0 32361
0.17350000 0.17350400 7904.38858381 0 -19.25134221 0 2662.66039372 0 140.39931445 0 711.62455011 0 32508
0.17450000 0.17449800 7962.99127853 0 65.45487110 0 2393.48344261 0 508.03208806 0 698.79017551 0 32791
0.17550000 0.17549800 8037.18108174 0 -86.96024761 0 2231.07653700 0 222.08279308 0 1317.83015716 0 33633
0.17650000 0.17650100 7924.88579625 0 29.22961810 0 1803.73272529 0 134.94217879 0 860.79724268 0 33984
0.17750000 0.17750300 7879.14603602 0 256.13826345 0 2221.12451424 0 -383.83062434 0 929.97039160 0 34069
0.17850000 0.17849800 7648.21736664 0 30.79810522 0 2189.79651324 0 -2.05252231 0 806.36758708 0 34536
