### header ###
fiducial parameters:
Omega_m = 0.31
Omega_nu = 0
Omega_de = 0.69
Omega_k = 0
H_0 = 100
w_de = -1
zeff = 0
beta = 0
fgrowth = 0
b_1 = 2
gamma = 0.55
Lx = 3500 Ly = 3500 Lz = 3500
nx = 700 ny = 700 nz = 700
xoffset = -983.599254 yoffset = -42.9823471 zoffset = 800.977702
bins = 400 dk = 0.001
kx_ny = 0.628318531 ky_ny = 0.628318531 kz_ny = 0.628318531
############################
A(data) = 8.99484877 (not used)
A(ran) = 8.99925027 (used)
Ngal = 500132
weighted Ngal = 0
Nran = 25229228
weighted Nran = 0
SN(data) = 6754.76281
SN(ran) = 133.58767
SN(data+ran) = 6888.35048
############################
13 columns: k_central k_mean P_0(k) sigma^{lin}_{P_0(k)} P^img_1(k) sigma^{lin}_{P_1(k)} P_2(k) sigma^{lin}_{P_2(k)} P^img_3(k) sigma^{lin}_{P_3(k)} P_4(k) sigma^{lin}_{P_4(k)} N_modes
### header ###
0.00050000 0 0 0 0 0 0 0 0 0 0 0 0
0.00150000 0.00179520 21647.95626041 0 -23453.38060988 0 14985.04406974 0 -69029.58055285 0 -9726.92689736 0 3
0.00250000 0.00253879 28222.55248752 0 -7856.06744902 0 -6763.47595265 0 -31619.97094120 0 12967.28793228 0 6
0.00350000 0.00331552 53864.38949278 0 -14963.40446176 0 -30929.92009164 0 7336.22255161 0 -17301.14119852 0 7
0.00450000 0.00420575 47133.81233501 0 -2285.74675473 0 -22057.13158906 0 -13527.17159675 0 2745.63785500 0 24
0.00550000 0.00557378 55373.01069110 0 13712.92071910 0 3844.20495886 0 -11615.74612187 0 20147.35380007 0 45
0.00650000 0.00659388 68484.19652419 0 -12479.79260112 0 2554.84681383 0 12477.48584087 0 46831.62674330 0 40
0.00750000 0.00754703 67579.06774349 0 -37078.53459405 0 -15849.63977762 0 1606.13124913 0 -14513.03698592 0 57
0.00850000 0.00846663 75728.74183304 0 -949.31751928 0 -2235.50331975 0 -9232.10485629 0 -12348.85649595 0 75
0.00950000 0.00948925 77206.93576531 0 25155.76966853 0 17163.94388698 0 -23385.82548850 0 16557.59548049 0 112
0.01050000 0.01054430 73416.81884184 0 4361.89688004 0 60321.45079327 0 -8805.21141206 0 31951.70503316 0 105
0.01150000 0.01145670 60530.04782659 0 6063.01172828 0 61379.81436148 0 7796.58598850 0 15464.63050864 0 144
0.01250000 0.01249090 65150.37874575 0 -1516.12366139 0 60517.08603094 0 34281.64272339 0 39435.49433283 0 169
0.01350000 0.01339930 75949.86127910 0 -10052.88310414 0 50089.98050810 0 34018.89174724 0 23991.73451209 0 180
0.01450000 0.01448870 78802.88431565 0 -2349.19364596 0 54855.74716824 0 6688.70396709 0 26637.58850976 0 267
0.01550000 0.01550050 85784.56880263 0 472.66066589 0 40748.59013920 0 -14578.17550133 0 34954.55763972 0 238
0.01650000 0.01653350 73525.23657322 0 2514.09404955 0 55137.72114641 0 5361.15246320 0 30900.81097430 0 315
0.01750000 0.01747870 82964.38963809 0 2585.88921595 0 44675.79452848 0 8857.88243759 0 11376.94151395 0 297
0.01850000 0.01844180 80897.31276974 0 6301.46482988 0 52074.01400774 0 12265.92297296 0 -4637.10436150 0 388
0.01950000 0.01947590 80106.20385243 0 -1394.57936578 0 48194.37281774 0 -2220.77300792 0 12098.62793254 0 399
0.02050000 0.02045430 72066.04595152 0 6112.64002720 0 39745.03958817 0 570.69907463 0 -3941.07790445 0 462
0.02150000 0.02154770 69515.64788958 0 -2533.28409785 0 44361.63575266 0 -2989.37453600 0 -1524.28519882 0 571
0.02250000 0.02255340 64947.27399872 0 4778.35498032 0 40431.57537450 0 8271.25133888 0 -14976.80564031 0 510
0.02350000 0.02348930 68170.36728554 0 482.79503255 0 29726.12078245 0 10513.66395478 0 -7150.14389208 0 555
0.02450000 0.02439640 67040.49414982 0 -1157.19176773 0 36573.68363821 0 765.77849294 0 -3471.70711805 0 592
0.02550000 0.02547300 64806.67146968 0 3439.10490663 0 34918.30855020 0 -4761.19707795 0 -15210.44749911 0 837
0.02650000 0.02652900 62469.37411582 0 3272.55681715 0 36268.64205763 0 -1132.45451027 0 -7503.33085429 0 723
0.02750000 0.02749970 63421.18733000 0 -1735.03520837 0 38348.57087590 0 11418.46319831 0 -13500.58893110 0 826
0.02850000 0.02848090 65732.56109256 0 -3443.32298250 0 32672.18314877 0 1456.45546313 0 -7246.97289939 0 831
0.02950000 0.02946900 60998.86938436 0 4195.90900377 0 27966.39225492 0 5703.32189910 0 -7565.33876651 0 996
0.03050000 0.03053250 60968.33227258 0 1942.69855302 0 35471.38177967 0 -2757.09476420 0 -3301.35836646 0 1041
0.03150000 0.03150510 58553.04445340 0 2716.57267595 0 29932.19136408 0 1373.44504814 0 -5011.67828652 0 1036
0.03250000 0.03246190 57897.37531602 0 241.82426692 0 31773.64511162 0 556.75855357 0 -6321.18213766 0 1059
0.03350000 0.03345080 51497.10425577 0 2597.28021771 0 29723.48448503 0 1857.13971718 0 2250.48627675 0 1302
0.03450000 0.03451200 50972.15153211 0 1134.69536308 0 29222.58797532 0 5906.98685934 0 -1886.98480089 0 1339
0.03550000 0.03553350 51557.29971352 0 -759.32285963 0 24539.64499245 0 6617.54590590 0 -1591.66456704 0 1365
0.03650000 0.03647120 49510.21476726 0 -871.61045593 0 21598.63552952 0 7206.68148716 0 511.59218803 0 1308
0.03750000 0.03744890 50724.33957468 0 818.51432744 0 16858.13338631 0 -378.39435937 0 -939.93779276 0 1579
0.03850000 0.03847530 48063.32686684 0 3075.08715586 0 18239.00400551 0 -1838.33412892 0 3512.28412917 0 1662
0.03950000 0.03950240 46459.24973279 0 495.07688316 0 17514.57144377 0 -2278.85942773 0 -4409.35023359 0 1683
0.04050000 0.04050350 45734.15809670 0 989.16405632 0 14539.18026867 0 2961.26501477 0 -1220.49585951 0 1822
0.04150000 0.04152450 46480.99918650 0 -2053.41206007 0 16145.45431724 0 3273.53444411 0 -5667.03985587 0 1887
0.04250000 0.04250150 43111.04216427 0 2906.79251934 0 15127.29428467 0 136.08018051 0 1315.84194952 0 1920
0.04350000 0.04349210 41567.38017942 0 4910.18083587 0 19768.93527464 0 -6438.37654253 0 -3230.47491959 0 2005
0.04450000 0.04448520 37696.41680175 0 900.79646528 0 19715.11086899 0 1139.83614305 0 1636.26193172 0 2151
0.04550000 0.04548030 37501.66032988 0 -1863.30206240 0 21506.91434846 0 5136.02364814 0 -1227.27334080 0 2274
0.04650000 0.04648670 39294.89180379 0 -695.51457596 0 17403.40756925 0 2478.35025038 0 -3727.60372091 0 2311
0.04750000 0.04749250 39294.45242088 0 1074.07370392 0 17500.95057377 0 324.96979216 0 2487.61024506 0 2568
0.04850000 0.04851840 39805.89412027 0 -417.55985291 0 15712.88184898 0 -649.80557254 0 354.35242536 0 2493
0.04950000 0.04949480 39886.63072874 0 -393.07853599 0 15665.53834116 0 1083.77527842 0 -1288.36953349 0 2644
0.05050000 0.05050630 40102.14804279 0 -547.42276533 0 13395.02718859 0 3962.71751244 0 -1171.74632640 0 2829
0.05150000 0.05149060 40080.28874335 0 841.87851332 0 13824.52397652 0 742.33192276 0 1854.14092887 0 2784
0.05250000 0.05249300 37410.92776036 0 1664.82182043 0 13849.67864773 0 -2635.60539145 0 -718.75243926 0 3055
0.05350000 0.05348950 37597.11626562 0 674.26492030 0 13706.00043837 0 1800.53621467 0 222.44857934 0 3009
0.05450000 0.05448610 36491.18949813 0 410.65604904 0 14010.60263605 0 1772.63540031 0 -856.56928069 0 3336
0.05550000 0.05550870 35462.70396733 0 657.28496801 0 12575.68791975 0 -405.61193331 0 -74.81229894 0 3349
0.05650000 0.05647670 33477.68185616 0 1595.95953492 0 13836.05777773 0 -266.63512101 0 765.25562728 0 3324
0.05750000 0.05747970 33851.70655255 0 128.95009445 0 12438.82014539 0 1789.37588893 0 1878.44978799 0 3639
0.05850000 0.05849280 33339.60577881 0 -595.56924542 0 11453.17444766 0 2512.16076478 0 -876.39094192 0 3846
0.05950000 0.05951020 33369.81335341 0 69.77905794 0 9191.45095316 0 792.83898749 0 -991.34119861 0 3787
0.06050000 0.06049470 32996.55757710 0 956.65741068 0 10567.85085132 0 93.53099923 0 1993.85370753 0 3930
0.06150000 0.06148310 30782.39728188 0 1229.82176163 0 11313.67037588 0 -3209.88983057 0 1106.04759779 0 4083
0.06250000 0.06249100 29767.97200399 0 884.40967990 0 11611.24244711 0 1537.89508425 0 1953.15586612 0 4303
0.06350000 0.06350600 30849.40317462 0 -264.17237984 0 11973.18411366 0 1929.83561853 0 655.14187790 0 4470
0.06450000 0.06451750 30164.29538272 0 47.00002024 0 11025.65488280 0 1660.02156221 0 1935.06427507 0 4479
0.06550000 0.06550280 30597.74661678 0 -126.85204108 0 10340.25050744 0 -301.07724834 0 2683.34434389 0 4636
0.06650000 0.06648880 29584.96902478 0 129.25876094 0 10927.05735931 0 111.01228742 0 4016.93736270 0 4653
0.06750000 0.06749660 29631.98299543 0 667.49402976 0 11833.78988761 0 520.89062872 0 2131.54532484 0 5220
0.06850000 0.06852730 29201.93697887 0 456.15854250 0 11071.02116756 0 137.96403471 0 4749.79509161 0 5029
0.06950000 0.06949320 29480.61558526 0 68.24945621 0 11471.40883815 0 453.09933904 0 2538.71047671 0 5040
0.07050000 0.07048030 28043.83349162 0 316.54242808 0 11114.52007498 0 1214.80585092 0 4935.89572028 0 5475
0.07150000 0.07148790 28239.79826647 0 576.69335589 0 11126.16372192 0 830.21289724 0 4382.28424675 0 5509
0.07250000 0.07249820 28040.86765702 0 90.85296044 0 10781.84130978 0 246.79588447 0 4370.70650725 0 5916
0.07350000 0.07351270 27357.40755101 0 234.06915868 0 9927.12073266 0 744.58156323 0 5702.13556527 0 5721
0.07450000 0.07449140 27039.95340341 0 130.58130348 0 10532.10705215 0 595.97457614 0 3562.12113497 0 6028
0.07550000 0.07549160 26224.01935207 0 628.25384113 0 10115.06676952 0 -1488.16792418 0 1339.34893484 0 6183
0.07650000 0.07648840 26025.52812552 0 679.60452104 0 10454.49006229 0 829.15618136 0 4049.45169754 0 6330
0.07750000 0.07749960 25175.10251628 0 6.86302913 0 8560.99140986 0 1532.29295223 0 2151.82284582 0 6583
0.07850000 0.07848650 26158.22176231 0 -826.58688983 0 7480.05454499 0 1016.05209309 0 1230.56871257 0 6549
0.07950000 0.07947320 25422.36524508 0 761.35390710 0 7522.98225464 0 476.22515969 0 -526.62347715 0 6828
0.08050000 0.08048110 24040.17647717 0 1311.84356510 0 7935.99119913 0 -1465.14426004 0 1648.56465301 0 7147
0.08150000 0.08149960 23344.63334132 0 640.22922216 0 7595.82095543 0 77.72793404 0 482.99055794 0 7386
0.08250000 0.08250610 23401.97281020 0 -172.47975867 0 8714.99511745 0 362.39423095 0 -1108.76078722 0 7227
0.08350000 0.08350160 22340.31387021 0 688.79531291 0 8444.29131075 0 -562.98351085 0 -1580.73491732 0 7798
0.08450000 0.08449610 21745.49926493 0 187.80433588 0 8939.06941354 0 -724.59623187 0 -152.42632297 0 7371
0.08550000 0.08548940 21827.88355929 0 -96.13236571 0 8213.52740997 0 1317.19305195 0 -739.80217570 0 8256
0.08650000 0.08650700 21589.07895137 0 133.50429824 0 8965.04792769 0 746.05349595 0 6.83036102 0 8037
0.08750000 0.08749060 21520.86475564 0 314.81125944 0 6999.30374140 0 1327.61741133 0 553.19845360 0 8155
0.08850000 0.08849210 21520.31552701 0 -181.20919850 0 6624.20255689 0 1183.17028188 0 455.68071359 0 8718
0.08950000 0.08949900 21483.07782596 0 253.17352731 0 6594.79685609 0 -8.38000959 0 1703.61933079 0 8571
0.09050000 0.09049190 20641.65956623 0 1071.83614648 0 6626.46537884 0 -370.37891675 0 1755.55438995 0 8932
0.09150000 0.09150830 19445.21992067 0 488.11595951 0 7040.61671887 0 -958.46876670 0 2808.45862559 0 9285
0.09250000 0.09250820 18653.12239183 0 -80.83327271 0 6910.30673434 0 1252.62573431 0 2154.82163414 0 9204
0.09350000 0.09350330 19066.91124097 0 -18.46748312 0 6472.91203873 0 1246.11188277 0 1270.92603223 0 9349
0.09450000 0.09448040 19155.00751307 0 335.64789517 0 5882.63406192 0 310.37129520 0 1749.17235328 0 9564
0.09550000 0.09549270 18813.16761434 0 462.14623301 0 5834.78526376 0 -262.90146479 0 1463.51854330 0 10155
0.09650000 0.09649430 18424.20389924 0 330.88827987 0 5837.84995951 0 -1008.00149984 0 585.02515420 0 9913
0.09750000 0.09749140 17432.95606949 0 -59.83790991 0 6113.85931476 0 290.55073243 0 -341.95303983 0 10476
0.09850000 0.09850240 17454.04644885 0 362.75782030 0 5686.12005844 0 -165.47379828 0 -904.83549261 0 10575
0.09950000 0.09950330 17062.77597350 0 459.14744470 0 5506.57721960 0 134.14689574 0 -913.97026317 0 10882
0.10050000 0.10051200 16698.41770098 0 244.14640556 0 5202.48031226 0 769.41438646 0 -216.32358167 0 10875
0.10150000 0.10150300 16584.50768331 0 -369.27606567 0 4755.73774537 0 725.75180891 0 -1275.57250644 0 11118
0.10250000 0.10250800 16306.92753418 0 225.54403190 0 4676.60488450 0 236.71753913 0 -1033.46044371 0 11575
0.10350000 0.10349800 16121.50794901 0 607.89503431 0 4389.27043492 0 -701.11341261 0 -478.96800747 0 11364
0.10450000 0.10450100 15342.92144444 0 413.54169626 0 5144.76736792 0 -763.44756663 0 -606.47363062 0 12093
0.10550000 0.10551000 14805.44630804 0 163.81512782 0 5441.09818244 0 126.55216225 0 -167.43454449 0 12067
0.10650000 0.10649700 14753.15974255 0 313.86658620 0 6441.13367025 0 566.79186217 0 -651.35329881 0 12054
0.10750000 0.10749900 15087.53013193 0 -181.74304873 0 5561.82961968 0 -113.95395596 0 -339.51666163 0 12807
0.10850000 0.10850100 15255.92362960 0 -11.27116008 0 5490.00149957 0 234.16911829 0 -913.78682081 0 12736
0.10950000 0.10950300 15106.20390531 0 46.94586630 0 5383.79166729 0 46.46847677 0 -464.84184713 0 12933
0.11050000 0.11050200 15196.60693766 0 189.75629443 0 5643.30219452 0 -163.53502122 0 -994.81671737 0 13428
0.11150000 0.11150900 14759.31110320 0 107.18284573 0 5418.78851553 0 313.05153091 0 -736.03446730 0 13453
0.11250000 0.11250000 14644.74201117 0 27.68815303 0 4995.19044308 0 537.26972490 0 -442.72001640 0 13668
0.11350000 0.11349100 14494.58290399 0 120.72704341 0 5346.70775025 0 -401.67066867 0 -1299.54084381 0 13791
0.11450000 0.11448600 14432.08068600 0 114.29228079 0 4888.01396840 0 306.59260223 0 -974.06026902 0 14205
0.11550000 0.11549300 14215.57476042 0 209.27368299 0 5265.29009828 0 118.75970646 0 -259.17659623 0 14776
0.11650000 0.11649800 14005.43988694 0 96.42521442 0 4487.80205097 0 174.50421540 0 -587.96682273 0 14553
0.11750000 0.11747300 14215.57476042 0 128.36022290 0 5278.72423055 0 640.41266452 0 -143.97698974 0 14568
0.11850000 0.11849100 14047.40095420 0 -111.45167032 0 4174.98339300 0 302.37782173 0 -277.39121448 0 16015
0.11950000 0.11950300 13944.14597193 0 -39.26040025 0 4410.13013825 0 632.50377226 0 229.44465362 0 15270
0.12050000 0.12050700 13613.07095433 0 352.52678940 0 4353.01036083 0 379.59607161 0 1348.61991410 0 15999
0.12150000 0.12150000 13323.73731254 0 322.57185997 0 4379.72484134 0 -640.67849118 0 1177.93064076 0 15670
0.12250000 0.12250700 12812.51530460 0 500.02872848 0 5195.16458692 0 -168.76038240 0 1759.30012920 0 16887
0.12350000 0.12352200 12697.39698395 0 24.61225302 0 4839.89055592 0 237.71493832 0 1903.25295288 0 16407
0.12450000 0.12449800 12892.37314727 0 -233.18929441 0 4908.21459738 0 932.34745310 0 1875.62675284 0 16306
0.12550000 0.12549900 13531.45558005 0 -422.85771226 0 4165.51469143 0 734.78881677 0 1611.87618059 0 17523
0.12650000 0.12650100 13205.76300302 0 -15.89423714 0 3808.45017510 0 -302.58982398 0 1503.08497374 0 17154
0.12750000 0.12750600 13408.53821287 0 435.09452612 0 4060.35937811 0 -692.44988021 0 1028.01978491 0 18007
0.12850000 0.12850300 13005.07486196 0 358.28929617 0 4863.24375723 0 -852.40393077 0 1249.62694600 0 17496
0.12950000 0.12949900 12655.87529959 0 203.88025785 0 5038.90904195 0 -99.38654534 0 174.97655202 0 18405
0.13050000 0.13049000 12371.15517829 0 132.59367717 0 5103.73998932 0 210.14475960 0 460.87751488 0 18100
0.13150000 0.13148800 12530.87086362 0 50.25793462 0 4844.67982957 0 419.52609140 0 -189.19388431 0 19059
0.13250000 0.13249300 12062.48868875 0 27.03863525 0 4752.38745074 0 505.37162458 0 473.05501204 0 18957
0.13350000 0.13349100 12075.45048440 0 77.22209448 0 4381.55926496 0 305.16570625 0 549.39229920 0 19468
0.13450000 0.13450700 11977.57794270 0 245.81606060 0 3988.13581339 0 356.26593790 0 696.36368342 0 19953
0.13550000 0.13551000 11841.25939696 0 -85.79764044 0 3584.85920021 0 289.93449791 0 879.81263627 0 19956
0.13650000 0.13649900 11678.79756848 0 70.47811614 0 3534.00062916 0 404.55851280 0 725.53980666 0 19723
0.13750000 0.13749600 11518.53265452 0 72.99380295 0 2940.48220344 0 128.13613762 0 735.87079717 0 20946
0.13850000 0.13851100 11344.64687056 0 177.89734987 0 2824.21050267 0 256.62048619 0 638.37612477 0 20955
0.13950000 0.13949800 11292.36030507 0 115.47861463 0 2698.22843974 0 37.86272323 0 877.27629847 0 20506
0.14050000 0.14048300 11201.95727273 0 32.15140456 0 2720.06577003 0 157.54403533 0 177.97204496 0 21447
0.14150000 0.14148400 10949.61967139 0 203.96813443 0 2364.48417100 0 -40.22374726 0 296.42747877 0 21771
0.14250000 0.14249400 10720.64625593 0 313.88086614 0 2983.44286681 0 -361.12551281 0 129.25546556 0 22470
0.14350000 0.14350900 10310.27360886 0 389.71396141 0 3350.55826705 0 -513.92091742 0 535.95487156 0 22519
0.14450000 0.14449900 10125.43620604 0 9.58837848 0 3207.33042516 0 179.40333477 0 -78.88713599 0 22218
0.14550000 0.14550500 10144.64822348 0 12.65137162 0 3373.08762542 0 332.00321398 0 4.33376539 0 23559
0.14650000 0.14650700 10172.07670122 0 24.71924275 0 3571.42506794 0 -182.82173376 0 493.33802532 0 23044
0.14750000 0.14750500 9875.93262443 0 120.11520272 0 3016.59430686 0 -72.86110931 0 58.83666612 0 23649
0.14850000 0.14849900 9994.23647113 0 60.55168743 0 3379.00831004 0 434.19708654 0 514.64809612 0 23640
0.14950000 0.14949500 9896.60559002 0 109.79058326 0 3154.96696767 0 -202.07000029 0 109.20620400 0 24457
0.15050000 0.15050000 9708.09933996 0 114.00997728 0 3315.31975821 0 154.08499343 0 111.52416850 0 24591
0.15150000 0.15149900 9676.46377092 0 19.26463355 0 3002.73177626 0 -46.53636143 0 105.49583507 0 25020
0.15250000 0.15250500 9652.91284731 0 40.74287816 0 3068.11195227 0 370.68868170 0 -76.72932655 0 25297
0.15350000 0.15350100 9555.13916676 0 91.37890177 0 2698.89849866 0 204.80955269 0 -37.16498318 0 25452
0.15450000 0.15450400 9359.07553076 0 41.56067959 0 2639.30719241 0 329.94470508 0 64.35432677 0 26061
0.15550000 0.15549900 9313.10509450 0 163.36146497 0 2514.97281536 0 -110.88816175 0 243.48952812 0 26128
0.15650000 0.15649500 9062.12958016 0 114.87666006 0 2485.74286772 0 -33.32741290 0 -116.49908143 0 26331
0.15750000 0.15749700 9013.76450709 0 139.69300643 0 2550.55184595 0 4.34400301 0 71.57152049 0 27345
0.15850000 0.15849900 8741.43498365 0 135.84950449 0 2760.07158337 0 -498.55240192 0 -171.64602961 0 26980
0.15950000 0.15949700 8697.95804538 0 169.07344271 0 2806.17383449 0 -84.79793449 0 -262.85642804 0 27777
0.16050000 0.16050000 8597.97646574 0 -20.51643544 0 3111.35821452 0 87.60866693 0 -677.29556388 0 28224
0.16150000 0.16150500 8704.86734153 0 66.63955725 0 2826.51726291 0 125.88539870 0 -403.47653240 0 28075
0.16250000 0.16249700 8570.92146347 0 -85.75381200 0 2980.96035341 0 414.07334957 0 127.32437770 0 28590
0.16350000 0.16349900 8705.59232332 0 20.97009829 0 2428.67801316 0 254.08304992 0 -223.92270899 0 29163
0.16450000 0.16449100 8727.88002109 0 57.78610160 0 2606.88073415 0 101.97055619 0 227.54102719 0 28996
0.16550000 0.16550500 8627.07459851 0 -29.42843887 0 2393.01110599 0 222.02237793 0 193.95899190 0 30777
0.16650000 0.16650700 8597.78972801 0 84.13534508 0 2316.25091279 0 -118.74322960 0 611.57376767 0 29211
0.16750000 0.16749900 8400.01249868 0 121.94523251 0 2345.97516620 0 67.15001034 0 532.27284283 0 30922
0.16850000 0.16850800 8373.40786389 0 127.58800745 0 2389.64982678 0 -4.23859505 0 144.23512719 0 30867
0.16950000 0.16949900 8328.29422430 0 165.61440081 0 2327.23548537 0 50.06932951 0 491.95287071 0 30852
0.17050000 0.17049200 8234.11249898 0 18.87149569 0 2328.63052609 0 194.96627720 0 179.07599451 0 31257
0.17150000 0.17149500 8104.74718769 0 113.64089564 0 2420.12103112 0 -179.58018639 0 232.71146551 0 32608
0.17250000 0.17250900 7949.79880686 0 92.37520251 0 2172.57270343 0 73.96681639 0 340.14717610 0 32361
0.17350000 0.17350400 7829.93515085 0 -30.72351997 0 2429.68859384 0 197.86620436 0 320.09374039 0 32508
0.17450000 0.17449800 7902.68597506 0 30.47032557 0 2052.10489593 0 -8.66636641 0 346.86643914 0 32791
0.17550000 0.17549800 7766.54318249 0 174.72720222 0 2186.77575578 0 49.63884411 0 95.19362414 0 33633
0.17650000 0.17650100 7620.99759578 0 112.75334218 0 2101.09608964 0 -88.03431911 0 346.56985568 0 33984
0.17750000 0.17750300 7584.08943191 0 107.44230133 0 2314.30664345 0 -151.13673415 0 168.23092600 0 34069
0.17850000 0.17849800 7674.89889344 0 50.09426449 0 2442.48562090 0 92.38267202 0 27.65750607 0 34536
