### header ###
fiducial parameters:
Omega_m = 0.31
Omega_nu = 0
Omega_de = 0.69
Omega_k = 0
H_0 = 100
w_de = -1
zeff = 0
beta = 0
fgrowth = 0
b_1 = 2
gamma = 0.55
Lx = 3500 Ly = 3500 Lz = 3500
nx = 700 ny = 700 nz = 700
xoffset = -983.599254 yoffset = -42.9823471 zoffset = 800.977702
bins = 400 dk = 0.001
kx_ny = 0.628318531 ky_ny = 0.628318531 kz_ny = 0.628318531
############################
A(data) = 9.00847126 (not used)
A(ran) = 9.00938664 (used)
Ngal = 500533
weighted Ngal = 0
Nran = 25229228
weighted Nran = 0
SN(data) = 6763.41212
SN(ran) = 133.738138
SN(data+ran) = 6897.15026
############################
13 columns: k_central k_mean P_0(k) sigma^{lin}_{P_0(k)} P^img_1(k) sigma^{lin}_{P_1(k)} P_2(k) sigma^{lin}_{P_2(k)} P^img_3(k) sigma^{lin}_{P_3(k)} P_4(k) sigma^{lin}_{P_4(k)} N_modes
### header ###
0.00050000 0 0 0 0 0 0 0 0 0 0 0 0
0.00150000 0.00179520 68844.60035058 0 -52125.53165315 0 -682.64614918 0 -73385.95219289 0 6601.37661506 0 3
0.00250000 0.00253879 62471.35133889 0 -10025.38871897 0 -19474.43888374 0 -46069.29740615 0 42372.21981245 0 6
0.00350000 0.00331552 50719.50636274 0 23695.48058957 0 6910.17491947 0 -12834.26475832 0 -19812.76371924 0 7
0.00450000 0.00420575 36514.36694627 0 18861.38988797 0 21070.60712553 0 -13123.48855438 0 26198.64498941 0 24
0.00550000 0.00557378 32917.02927161 0 925.69299903 0 34586.13507534 0 27321.26830722 0 -614.68130325 0 45
0.00650000 0.00659388 36245.46460948 0 165.32111272 0 44286.50127620 0 12541.19636185 0 18191.22111479 0 40
0.00750000 0.00754703 54818.72915864 0 -16463.12815629 0 9532.67571583 0 2513.41300605 0 -13720.50007418 0 57
0.00850000 0.00846663 57966.79781473 0 -11060.58582361 0 7855.25459065 0 14408.13431777 0 4369.99251004 0 75
0.00950000 0.00948925 69030.89870156 0 -5905.44901917 0 16498.71817145 0 -13871.86748435 0 -17423.06995417 0 112
0.01050000 0.01054430 87834.94912066 0 -275.36236393 0 2543.24710519 0 5622.49741405 0 -30675.95677356 0 105
0.01150000 0.01145670 77434.31641774 0 536.27891645 0 24724.73504044 0 -36348.93928320 0 -8687.64353172 0 144
0.01250000 0.01249090 70947.59677128 0 7925.19336428 0 24474.06709414 0 -2612.31809758 0 -9274.62613675 0 169
0.01350000 0.01339930 79874.53921669 0 -2301.24598665 0 33612.13302456 0 12949.27323324 0 -18437.38538633 0 180
0.01450000 0.01448870 82392.42294378 0 -2305.34323222 0 18359.94414963 0 14143.18642711 0 -8410.71147237 0 267
0.01550000 0.01550050 88704.70757765 0 1552.37275091 0 20751.72498350 0 7601.87345492 0 -15003.60799741 0 238
0.01650000 0.01653350 90512.98791599 0 -2326.14801269 0 7306.10285359 0 6024.14831049 0 9741.07502684 0 315
0.01750000 0.01747870 86362.79670331 0 -1299.20032206 0 7848.70778539 0 -358.93409058 0 8924.89931491 0 297
0.01850000 0.01844180 84469.38592746 0 2128.93099656 0 10583.81143529 0 1056.86856788 0 -3872.18266522 0 388
0.01950000 0.01947590 76065.74851983 0 4509.87005729 0 13827.81934830 0 -4858.67417503 0 6114.08999078 0 399
0.02050000 0.02045430 76064.10083395 0 3723.15496901 0 18589.52171658 0 -3817.84198466 0 3445.84943419 0 462
0.02150000 0.02154770 68289.65974378 0 6445.68128330 0 21708.81079251 0 -4146.06101339 0 8091.71948461 0 571
0.02250000 0.02255340 68274.94041652 0 3540.66826472 0 31367.10608038 0 7908.00250819 0 4964.71923873 0 510
0.02350000 0.02348930 58154.08477724 0 3296.34940136 0 22972.80555944 0 3333.32347267 0 11244.90695152 0 555
0.02450000 0.02439640 54983.38790164 0 40.51461874 0 29687.67477842 0 9407.89097131 0 19279.35287469 0 592
0.02550000 0.02547300 58337.41729363 0 -1974.44396778 0 18688.05333264 0 9623.17760933 0 18374.77332262 0 837
0.02650000 0.02652900 59432.35948853 0 -1883.17315420 0 16397.44041225 0 6876.48523536 0 20495.78444235 0 723
0.02750000 0.02749970 60737.21686547 0 417.09959932 0 14090.35063299 0 1850.69177308 0 16862.74690680 0 826
0.02850000 0.02848090 61899.60433603 0 1724.07260493 0 10409.47528385 0 -5137.50656544 0 11825.66130390 0 831
0.02950000 0.02946900 58687.16608462 0 1304.26421002 0 17372.76061175 0 -5656.67041935 0 6263.40328588 0 996
0.03050000 0.03053250 58272.16893249 0 729.03729457 0 24125.63645186 0 -1187.09177429 0 4745.11566369 0 1041
0.03150000 0.03150510 56622.83535940 0 2355.21319174 0 24282.05676541 0 -4466.49198016 0 7127.37287312 0 1036
0.03250000 0.03246190 57739.08762512 0 -450.34550669 0 28343.05324874 0 10227.50485446 0 4220.90989096 0 1059
0.03350000 0.03345080 58909.93321657 0 -979.09010481 0 27776.46899499 0 -473.68003422 0 4218.83380674 0 1302
0.03450000 0.03451200 58971.00744012 0 1018.74990411 0 22828.13873855 0 6257.94395331 0 126.12705929 0 1339
0.03550000 0.03553350 60760.28446789 0 -1350.76190576 0 23248.95771414 0 734.12095476 0 10616.68826102 0 1365
0.03650000 0.03647120 56922.93388233 0 679.64406550 0 21257.45470514 0 828.41032888 0 4344.23368733 0 1308
0.03750000 0.03744890 55630.26938095 0 3129.04337638 0 24343.13098897 0 -660.05088338 0 13462.69215569 0 1579
0.03850000 0.03847530 53671.28070680 0 1560.47936548 0 21975.84575196 0 4039.30195247 0 6452.86519376 0 1662
0.03950000 0.03950240 50717.74883113 0 1780.04998681 0 24922.89672981 0 1746.34931813 0 9206.08240384 0 1683
0.04050000 0.04050350 49050.29071328 0 1986.49404390 0 19766.18913150 0 208.19499796 0 8247.40383181 0 1822
0.04150000 0.04152450 46573.92867054 0 864.02890393 0 21107.84482658 0 1429.01600082 0 7374.59166364 0 1887
0.04250000 0.04250150 44678.54067163 0 2725.56904089 0 23270.26778495 0 2288.81145048 0 11467.56423774 0 1920
0.04350000 0.04349210 42980.32575055 0 1235.78638455 0 21383.11821547 0 226.92479267 0 10104.34582668 0 2005
0.04450000 0.04448520 41736.54259717 0 479.41068574 0 22188.39723141 0 687.08940879 0 5116.03172604 0 2151
0.04550000 0.04548030 40821.08831824 0 -257.83208454 0 19343.06339566 0 4466.22835042 0 4608.64333394 0 2274
0.04650000 0.04648670 42142.86193695 0 -1093.90744817 0 19375.68757623 0 -103.42216746 0 7287.05560474 0 2311
0.04750000 0.04749250 41019.03031616 0 1168.56080035 0 17391.54423086 0 1905.14229936 0 3024.67895228 0 2568
0.04850000 0.04851840 40800.54716751 0 811.47431487 0 13389.75459375 0 1980.57335928 0 4676.17648617 0 2493
0.04950000 0.04949480 41221.14645165 0 -376.43361316 0 15158.82000798 0 962.05083582 0 4824.46821602 0 2644
0.05050000 0.05050630 39690.66595389 0 523.42037579 0 13937.11584548 0 1621.86115706 0 -594.08303275 0 2829
0.05150000 0.05149060 38829.80500069 0 1251.41743133 0 11964.72599278 0 -1499.49301851 0 1243.17900189 0 2784
0.05250000 0.05249300 37731.89697119 0 -447.65977869 0 11172.07923531 0 474.22816440 0 253.13398285 0 3055
0.05350000 0.05348950 36452.52380264 0 420.90904909 0 12311.50894917 0 1410.89145607 0 -1118.21850421 0 3009
0.05450000 0.05448610 36854.66900484 0 1576.12139683 0 10477.86523274 0 87.00572374 0 -2181.42626893 0 3336
0.05550000 0.05550870 35714.69006235 0 1403.03748667 0 12569.31686765 0 -1117.05413951 0 -2208.72293179 0 3349
0.05650000 0.05647670 34676.75779914 0 57.63671141 0 12670.59462685 0 89.91828316 0 -2514.62130904 0 3324
0.05750000 0.05747970 33176.48487598 0 571.21644800 0 12515.60230773 0 -599.30509855 0 -35.29013633 0 3639
0.05850000 0.05849280 32618.24889740 0 760.55862405 0 14355.51821511 0 488.90904565 0 -1840.58596630 0 3846
0.05950000 0.05951020 31462.56201611 0 1151.63357400 0 13867.69334677 0 492.25055263 0 1341.65569509 0 3787
0.06050000 0.06049470 32406.57618375 0 -469.30817434 0 14777.43564796 0 1869.56326877 0 105.53746660 0 3930
0.06150000 0.06148310 32520.04681852 0 -315.81964320 0 13945.90350355 0 2466.55281942 0 3315.61634167 0 4083
0.06250000 0.06249100 32084.61836139 0 376.62474472 0 12312.38771498 0 1678.23398355 0 3152.93482174 0 4303
0.06350000 0.06350600 32022.00629768 0 -36.64804919 0 12241.97660473 0 264.74357761 0 4458.13272043 0 4470
0.06450000 0.06451750 31649.51944145 0 118.83220464 0 12119.16908327 0 626.56770924 0 3986.07071375 0 4479
0.06550000 0.06550280 31214.09098432 0 618.09420995 0 12259.11253796 0 -1240.46581247 0 799.54616751 0 4636
0.06650000 0.06648880 30765.26134865 0 932.90546939 0 12102.47253295 0 -297.68631078 0 3799.12427298 0 4653
0.06750000 0.06749660 29551.57592414 0 362.39972323 0 11941.76823608 0 1434.48631797 0 2658.03588866 0 5220
0.06850000 0.06852730 29794.33497818 0 -249.56179985 0 11135.83014579 0 1701.68604601 0 2319.87582174 0 5029
0.06950000 0.06949320 29197.54314984 0 341.75861289 0 9870.34147698 0 2188.74199427 0 961.44009358 0 5040
0.07050000 0.07048030 28862.40384038 0 708.34455674 0 9551.87674870 0 559.37068493 0 3193.35804884 0 5475
0.07150000 0.07148790 27747.90910628 0 279.59142437 0 8744.78527829 0 470.48791743 0 4306.62251081 0 5509
0.07250000 0.07249820 27659.15375982 0 -33.62729173 0 8459.35115976 0 830.89394074 0 4049.05625293 0 5916
0.07350000 0.07351270 27878.40582855 0 420.73329593 0 8067.71819352 0 -108.41828061 0 2631.49716130 0 5721
0.07450000 0.07449140 26762.92248291 0 1114.85722500 0 8804.05803194 0 -852.14469486 0 3429.04303815 0 6028
0.07550000 0.07549160 25615.69372251 0 139.76550461 0 7730.40393869 0 -314.42899631 0 3311.32137379 0 6183
0.07650000 0.07648840 25469.92844436 0 -402.46485327 0 9374.83839241 0 1142.87886965 0 2322.02879797 0 6330
0.07750000 0.07749960 25515.40457485 0 914.59748227 0 8923.10882958 0 -533.58549925 0 1343.43519584 0 6583
0.07850000 0.07848650 24864.34895795 0 697.35009804 0 9116.43730701 0 -894.96914952 0 456.08824124 0 6549
0.07950000 0.07947320 23565.97247884 0 642.09000876 0 8668.89286633 0 130.62414331 0 641.88459725 0 6828
0.08050000 0.08048110 24008.43106241 0 144.39769887 0 10245.50856893 0 444.66208884 0 643.54546462 0 7147
0.08150000 0.08149960 22929.85588065 0 403.38645890 0 9458.68363492 0 -739.22328872 0 -1480.97302913 0 7386
0.08250000 0.08250610 21872.59076970 0 781.00091362 0 9701.48662726 0 -482.57534110 0 -774.48596362 0 7227
0.08350000 0.08350160 21356.86508700 0 88.61595223 0 9519.24158356 0 1252.13142855 0 -401.21151353 0 7798
0.08450000 0.08449610 21762.08596953 0 -483.73311505 0 8409.62399969 0 2017.64629174 0 -338.30726019 0 7371
0.08550000 0.08548940 22761.35253725 0 -668.16848252 0 6570.69670384 0 2130.82034305 0 -111.38905826 0 8256
0.08650000 0.08650700 22966.54435307 0 158.81275347 0 6045.17278241 0 -510.73539137 0 -1513.16881137 0 8037
0.08750000 0.08749060 22244.52839730 0 674.85589031 0 6100.77668882 0 -1253.37268525 0 -203.25962950 0 8155
0.08850000 0.08849210 21444.52197620 0 701.17382776 0 6832.25036158 0 -219.31358233 0 -229.61271758 0 8718
0.08950000 0.08949900 20744.91454850 0 17.75700096 0 7463.96214616 0 78.44984015 0 -1098.62202672 0 8571
0.09050000 0.09049190 20470.41007969 0 733.71452557 0 7289.72485587 0 306.31908638 0 -1547.11114065 0 8932
0.09150000 0.09150830 19562.20561866 0 648.71700139 0 7683.95018125 0 -524.72753992 0 238.35863427 0 9285
0.09250000 0.09250820 19352.83966526 0 -62.99992897 0 7348.97564038 0 1058.59863807 0 -272.82053383 0 9204
0.09350000 0.09350330 19634.48410625 0 -133.73717118 0 7254.17877900 0 1063.27147524 0 -1184.07101683 0 9349
0.09450000 0.09448040 19184.44616759 0 213.29403656 0 6271.69663818 0 278.63906193 0 422.47874451 0 9564
0.09550000 0.09549270 18729.57501700 0 247.25943343 0 6585.45996939 0 -191.73461595 0 -86.99408009 0 10155
0.09650000 0.09649430 18706.39756885 0 271.74184880 0 6389.62700941 0 -83.89181710 0 347.84736148 0 9913
0.09750000 0.09749140 18247.57197213 0 447.09956549 0 6209.52395737 0 375.33954973 0 -503.69208343 0 10476
0.09850000 0.09850240 18048.86105413 0 140.81562975 0 6730.80783379 0 -331.98454021 0 1035.12021263 0 10575
0.09950000 0.09950330 17459.09935224 0 234.73042995 0 6218.54229146 0 502.46950050 0 -412.89140956 0 10882
0.10050000 0.10051200 17203.04896537 0 53.83165547 0 5870.16657204 0 706.02022118 0 1054.57828450 0 10875
0.10150000 0.10150300 17081.55959262 0 158.87646399 0 5581.65677319 0 952.39649498 0 897.97672549 0 11118
0.10250000 0.10250800 17026.30719253 0 35.24971310 0 5443.40494268 0 158.28549398 0 626.95876002 0 11575
0.10350000 0.10349800 16806.83543236 0 385.94515456 0 6077.29167264 0 -560.97772790 0 663.48246386 0 11364
0.10450000 0.10450100 16707.86443340 0 139.13389169 0 4955.75582751 0 -709.14093825 0 -503.29554036 0 12093
0.10550000 0.10551000 16193.23720796 0 244.90324262 0 6380.81738220 0 -211.75619639 0 -814.02603108 0 12067
0.10650000 0.10649700 16058.45650239 0 285.81088937 0 5751.73091047 0 -152.20113923 0 -1284.92037770 0 12054
0.10750000 0.10749900 15985.29924900 0 -184.35408163 0 5774.84245118 0 945.50806951 0 -580.26444044 0 12807
0.10850000 0.10850100 16212.89959289 0 20.05793938 0 5361.04261747 0 927.70866810 0 -1198.08733145 0 12736
0.10950000 0.10950300 15850.51854343 0 329.65800774 0 4874.43703669 0 54.83905062 0 211.99126625 0 12933
0.11050000 0.11050200 15562.83258752 0 264.38767746 0 4836.83684474 0 326.38240819 0 688.77004840 0 13428
0.11150000 0.11150900 15310.95633823 0 29.87034822 0 5123.61108112 0 203.52984999 0 308.95538379 0 13453
0.11250000 0.11250000 15103.45776217 0 331.38917638 0 4976.49470054 0 -25.38479801 0 593.39869387 0 13668
0.11350000 0.11349100 14528.74492471 0 184.63308978 0 5021.57538642 0 131.47984151 0 1502.98611259 0 13791
0.11450000 0.11448600 14376.38890301 0 393.09501285 0 5309.63481779 0 278.04150118 0 1723.77602147 0 14205
0.11550000 0.11549300 14119.45975033 0 147.68538144 0 5019.83982395 0 365.82800833 0 1388.09846796 0 14776
0.11650000 0.11649800 13577.26124772 0 154.16298389 0 4662.44577044 0 40.12829133 0 1090.50442759 0 14553
0.11750000 0.11747300 13768.39281063 0 225.15517803 0 5153.48911855 0 -70.83105046 0 1280.60344068 0 14568
0.11850000 0.11849100 13353.28581278 0 172.95319375 0 4704.85720518 0 -50.11645333 0 1067.06444815 0 16015
0.11950000 0.11950300 13412.05327609 0 33.63970430 0 4783.50674486 0 552.27904487 0 943.34960100 0 15270
0.12050000 0.12050700 13065.38016543 0 -109.26002840 0 4488.93346195 0 62.84383820 0 618.91475752 0 15999
0.12150000 0.12150000 13149.08260850 0 100.83705815 0 4233.99251691 0 42.83379155 0 622.74507798 0 15670
0.12250000 0.12250700 13086.58039051 0 240.91254740 0 4154.62898001 0 -221.29190385 0 279.31461314 0 16887
0.12350000 0.12352200 12787.90986202 0 218.56882831 0 4412.27212990 0 235.68059548 0 1107.10211676 0 16407
0.12450000 0.12449800 12729.58178162 0 -1.07032028 0 4553.46782586 0 297.45453630 0 617.39778805 0 16306
0.12550000 0.12549900 12792.52338251 0 -10.90933924 0 4416.86368124 0 -152.55264555 0 1401.25798591 0 17523
0.12650000 0.12650100 12689.37824597 0 89.02831309 0 4534.79405247 0 479.88851465 0 443.01550141 0 17154
0.12750000 0.12750600 12734.52483928 0 68.71058857 0 4553.37994928 0 -191.10519994 0 1461.15686020 0 18007
0.12850000 0.12850300 12446.94872910 0 177.42061942 0 4904.51279642 0 16.23695581 0 1207.43520271 0 17496
0.12950000 0.12949900 12423.77128095 0 73.82643355 0 4350.35209426 0 267.51828065 0 1290.22592626 0 18405
0.13050000 0.13049000 12517.57953080 0 -238.58601492 0 4188.31866411 0 566.32062400 0 1319.25815159 0 18100
0.13150000 0.13148800 12559.21106088 0 212.82938914 0 3644.17589215 0 545.39171786 0 1173.82241061 0 19059
0.13250000 0.13249300 12356.32600530 0 148.06984148 0 3598.23840962 0 -338.45665038 0 793.99895835 0 18957
0.13350000 0.13349100 11837.96402519 0 367.29994106 0 3771.43216551 0 -317.00378012 0 1011.05191565 0 19468
0.13450000 0.13450700 11560.49372178 0 124.75288926 0 3563.82374372 0 371.05446797 0 1369.94096948 0 19953
0.13550000 0.13551000 11690.44121542 0 -84.00056437 0 3824.56454308 0 289.17107012 0 268.77601421 0 19956
0.13650000 0.13649900 11625.74208292 0 205.89592692 0 3062.30111337 0 -62.01384389 0 227.77060476 0 19723
0.13750000 0.13749600 11304.44333491 0 -66.58210794 0 3149.91406428 0 -78.98775467 0 700.17862548 0 20946
0.13850000 0.13851100 11267.86470822 0 121.18839546 0 3362.05911454 0 101.17417468 0 260.98575533 0 20955
0.13950000 0.13949800 11452.29568186 0 241.33215807 0 2871.54302592 0 358.16956433 0 593.22403917 0 20506
0.14050000 0.14048300 11107.59979425 0 66.60528538 0 3424.06702677 0 -391.32429975 0 -129.10937075 0 21447
0.14150000 0.14148400 10836.68728068 0 244.91752256 0 3721.25463795 0 -311.47524474 0 222.27722001 0 21771
0.14250000 0.14249400 10760.13579436 0 3.83459346 0 3429.83392737 0 250.14068682 0 357.59507118 0 22470
0.14350000 0.14350900 10822.71490436 0 36.46065239 0 3616.53870754 0 189.29823775 0 411.26129899 0 22519
0.14450000 0.14449900 10732.65239376 0 23.36363665 0 3315.89095598 0 161.61381947 0 245.49531108 0 22218
0.14550000 0.14550500 10618.74237609 0 79.47492047 0 3217.46918566 0 451.05071625 0 198.94379094 0 23559
0.14650000 0.14650700 10634.20865429 0 176.01898796 0 3291.72489631 0 -172.90705855 0 624.92990947 0 23044
0.14750000 0.14750500 10184.10480820 0 308.37759528 0 3282.00354957 0 43.37785743 0 610.15126552 0 23649
0.14850000 0.14849900 10186.20286156 0 -4.64452993 0 3208.67054302 0 -38.40217559 0 413.39560144 0 23640
0.14950000 0.14949500 9884.13810014 0 132.34322892 0 3154.09918643 0 -65.31130273 0 367.19119379 0 24457
0.15050000 0.15050000 9781.32250078 0 271.48700672 0 3254.99248559 0 44.98566932 0 432.78556896 0 24591
0.15150000 0.15149900 9656.26314194 0 -0.23527856 0 3074.25232834 0 349.52580417 0 618.18648036 0 25020
0.15250000 0.15250500 9625.67110731 0 -82.19634832 0 2813.57743641 0 214.41885679 0 186.49167946 0 25297
0.15350000 0.15350100 9512.45311771 0 -2.93760425 0 2863.19475076 0 -79.57553915 0 162.06308849 0 25452
0.15450000 0.15450400 9576.22954612 0 299.63717087 0 2846.47623129 0 -23.12988495 0 149.06284684 0 26061
0.15550000 0.15549900 9188.15558139 0 132.77711953 0 2876.77168247 0 -169.50843179 0 641.65501968 0 26128
0.15650000 0.15649500 9172.23893572 0 51.45887794 0 2973.50182862 0 258.90417883 0 -3.41152264 0 26331
0.15750000 0.15749700 8998.51792035 0 169.55786237 0 3091.27841584 0 -17.31201593 0 215.15262624 0 27345
0.15850000 0.15849900 8865.59360754 0 185.37784380 0 3021.13093534 0 297.02503951 0 825.49502332 0 26980
0.15950000 0.15949700 8668.80498974 0 6.67676374 0 2686.93629912 0 224.04573620 0 768.76519822 0 27777
0.16050000 0.16050000 8541.82333070 0 16.58066308 0 2753.38197867 0 418.72202069 0 1086.58403363 0 28224
0.16150000 0.16150500 8611.77308890 0 111.59886360 0 2671.00866888 0 237.32169062 0 1252.73558004 0 28075
0.16250000 0.16249700 8394.70695012 0 129.94090289 0 2812.19338027 0 -319.36436477 0 1194.19879275 0 28590
0.16350000 0.16349900 8278.78675567 0 260.71004256 0 2586.22973770 0 -239.16270498 0 1160.94849155 0 29163
0.16450000 0.16449100 8195.46877264 0 -102.90270702 0 2730.11665394 0 250.62181110 0 1103.48819238 0 28996
0.16550000 0.16550500 8495.83092531 0 -148.31809282 0 2553.72638743 0 393.18288943 0 606.56150720 0 30777
0.16650000 0.16650700 8419.02679382 0 62.03921825 0 2370.31697904 0 -87.20421496 0 933.72931233 0 29211
0.16750000 0.16749900 8302.70017018 0 99.79637974 0 2217.99391105 0 -221.27103316 0 573.25079085 0 30922
0.16850000 0.16850800 7929.90574592 0 146.82638787 0 2484.25995042 0 -112.55012758 0 678.60712184 0 30867
0.16950000 0.16949900 8087.61125447 0 148.19726252 0 2666.95536160 0 51.42570453 0 128.80070426 0 30852
0.17050000 0.17049200 8031.04070567 0 109.52695352 0 2498.35315705 0 77.27438104 0 356.38566974 0 31257
0.17150000 0.17149500 8046.55092216 0 -118.82561390 0 2252.62826840 0 278.93015310 0 431.08955095 0 32608
0.17250000 0.17250900 8004.40311716 0 -92.69452403 0 2166.42134278 0 80.99419670 0 -36.75152387 0 32361
0.17350000 0.17350400 7950.19425147 0 263.54516074 0 2235.60218090 0 -142.27987327 0 101.12430472 0 32508
0.17450000 0.17449800 7795.43260837 0 108.06446752 0 2358.46462522 0 -27.63180217 0 194.11497283 0 32791
0.17550000 0.17549800 7564.80052246 0 87.50914670 0 2414.23330022 0 -231.16154232 0 287.12903808 0 33633
0.17650000 0.17650100 7651.45781555 0 64.35630399 0 2272.55428306 0 286.28212753 0 201.22308975 0 33984
0.17750000 0.17750300 7744.43123788 0 -167.81790607 0 2240.78689916 0 251.85867397 0 252.36066894 0 34069
0.17850000 0.17849800 7727.09758235 0 85.35386371 0 2071.21805222 0 141.54610383 0 243.92012337 0 34536
