### header ###
fiducial parameters:
Omega_m = 0.31
Omega_nu = 0
Omega_de = 0.69
Omega_k = 0
H_0 = 100
w_de = -1
zeff = 0
beta = 0
fgrowth = 0
b_1 = 2
gamma = 0.55
Lx = 3500 Ly = 3500 Lz = 3500
nx = 700 ny = 700 nz = 700
xoffset = -983.599254 yoffset = -42.9823471 zoffset = 800.977702
bins = 400 dk = 0.001
kx_ny = 0.628318531 ky_ny = 0.628318531 kz_ny = 0.628318531
############################
A(data) = 9.07616339 (not used)
A(ran) = 9.07907178 (used)
Ngal = 504413
weighted Ngal = 0
Nran = 25229228
weighted Nran = 0
SN(data) = 6717.45703
SN(ran) = 134.772566
SN(data+ran) = 6852.2296
############################
13 columns: k_central k_mean P_0(k) sigma^{lin}_{P_0(k)} P^img_1(k) sigma^{lin}_{P_1(k)} P_2(k) sigma^{lin}_{P_2(k)} P^img_3(k) sigma^{lin}_{P_3(k)} P_4(k) sigma^{lin}_{P_4(k)} N_modes
### header ###
0.00050000 0 0 0 0 0 0 0 0 0 0 0 0
0.00150000 0.00179520 32004.65067300 0 -42751.40725796 0 23113.73762566 0 -143011.44580828 0 -18337.31593012 0 3
0.00250000 0.00253879 60422.28916957 0 -25777.38663091 0 -34948.07674190 0 -10185.31311118 0 -20005.10358514 0 6
0.00350000 0.00331552 102101.93168076 0 -25769.91712156 0 -11868.61098269 0 -55360.92766126 0 -7521.92773567 0 7
0.00450000 0.00420575 86160.46087636 0 19946.55581328 0 4918.56206475 0 -51319.92310004 0 54779.29454308 0 24
0.00550000 0.00557378 66042.43588508 0 15379.93945404 0 39840.05614100 0 20790.17098753 0 22386.33922933 0 45
0.00650000 0.00659388 69351.86791239 0 -11642.87801614 0 29731.83276020 0 25916.23162834 0 16077.02043005 0 40
0.00750000 0.00754703 69256.52182239 0 -1125.49029126 0 31086.23055948 0 40425.75355104 0 -17183.71611762 0 57
0.00850000 0.00846663 80277.34349325 0 -2181.40429978 0 27381.79330214 0 5264.21361017 0 16410.95143653 0 75
0.00950000 0.00948925 72876.59756229 0 5399.44468321 0 12960.80703445 0 792.55888089 0 42682.75367933 0 112
0.01050000 0.01054430 67013.91148418 0 893.10287064 0 29393.94730759 0 16384.14907943 0 25319.32995427 0 105
0.01150000 0.01145670 73484.37396322 0 4691.66473351 0 30482.51845040 0 -1185.44408841 0 19779.91984722 0 144
0.01250000 0.01249090 67104.64405370 0 4590.11235999 0 30320.49600483 0 6977.65314884 0 8864.05576738 0 169
0.01350000 0.01339930 64025.55851342 0 3913.03429065 0 45964.28489228 0 -185.24493047 0 39469.76619928 0 180
0.01450000 0.01448870 57264.99347251 0 3343.93456979 0 33566.21751117 0 19551.98996616 0 11070.25224748 0 267
0.01550000 0.01550050 62275.82594694 0 -6484.52273194 0 27551.83448570 0 18212.97056850 0 40551.30721564 0 238
0.01650000 0.01653350 64487.89917337 0 -1317.10517537 0 24321.27168953 0 9188.37527284 0 27463.62836787 0 315
0.01750000 0.01747870 61999.56394652 0 -2441.49700936 0 17130.44094060 0 6916.42514127 0 50549.13564200 0 297
0.01850000 0.01844180 69673.93558048 0 1840.81664233 0 26405.70418257 0 12006.13783141 0 28245.29055276 0 388
0.01950000 0.01947590 74273.17612028 0 703.78815603 0 21228.45543353 0 -12253.83994312 0 20252.36631395 0 399
0.02050000 0.02045430 64364.76211474 0 3892.94350740 0 22310.43583279 0 -4329.93177383 0 16326.26038192 0 462
0.02150000 0.02154770 67669.58062156 0 -1666.06307713 0 35964.80878003 0 -3059.11558732 0 6303.14546948 0 571
0.02250000 0.02255340 67237.99676484 0 -675.43917111 0 31540.99186434 0 6871.46528569 0 7435.99542437 0 510
0.02350000 0.02348930 69930.86473315 0 329.94580354 0 30688.80872348 0 2907.34174797 0 -5574.04446439 0 555
0.02450000 0.02439640 68692.90340324 0 2896.49997483 0 33488.11720011 0 -8597.75677429 0 -13325.82438133 0 592
0.02550000 0.02547300 64143.64266867 0 5306.72390605 0 37848.33344055 0 -2470.15575923 0 -937.27513236 0 837
0.02650000 0.02652900 61316.76291486 0 977.34685314 0 41675.90775652 0 8669.90344700 0 -7891.45974188 0 723
0.02750000 0.02749970 58238.44629467 0 -2848.34360863 0 35108.67119304 0 11592.01944509 0 -1874.97866305 0 826
0.02850000 0.02848090 62192.12350387 0 2375.34791328 0 27553.81170877 0 8852.23636728 0 -5061.57021518 0 831
0.02950000 0.02946900 57570.03505309 0 1446.29473350 0 26035.74377803 0 -3024.94258202 0 3485.02042002 0 996
0.03050000 0.03053250 57587.17098632 0 -132.94518349 0 23257.52568075 0 5240.75056313 0 -3175.79371728 0 1041
0.03150000 0.03150510 54990.41802809 0 938.84702470 0 24501.63837132 0 -1292.86222368 0 -2391.69295728 0 1036
0.03250000 0.03246190 52499.44650382 0 2668.97652295 0 20242.91958153 0 -2727.98564686 0 589.21137481 0 1059
0.03350000 0.03345080 51232.26621084 0 1144.60344755 0 22838.57408250 0 5887.85173390 0 573.01462253 0 1302
0.03450000 0.03451200 51787.75604627 0 -501.43695068 0 20810.38260108 0 1254.61394195 0 -4942.04708093 0 1339
0.03550000 0.03553350 51168.99507277 0 2843.82894930 0 17311.90607965 0 4040.62010118 0 -3579.10328418 0 1365
0.03650000 0.03647120 48243.80339436 0 -142.71266543 0 20642.31864059 0 1620.37823976 0 6447.81229038 0 1308
0.03750000 0.03744890 47896.03182643 0 -1617.91769551 0 13712.37149047 0 3515.38177863 0 4270.34046758 0 1579
0.03850000 0.03847530 49046.77565005 0 1686.77998102 0 14686.37354126 0 -1188.62961445 0 290.09267576 0 1662
0.03950000 0.03950240 45132.42321069 0 3822.21384455 0 15912.69122424 0 -2800.41791846 0 206.67363466 0 1683
0.04050000 0.04050350 41908.45115807 0 1622.33349368 0 18675.97030280 0 -2691.53883503 0 2304.48643556 0 1822
0.04150000 0.04152450 41940.96549291 0 -711.87719528 0 19284.84516098 0 1802.16193141 0 -448.88126316 0 1887
0.04250000 0.04250150 40962.24007591 0 898.39633617 0 15766.04718028 0 2342.02072007 0 -7257.93550282 0 1920
0.04350000 0.04349210 43128.94701758 0 -835.10652433 0 18791.63785208 0 1238.89501859 0 -6040.76796880 0 2005
0.04450000 0.04448520 40979.04647196 0 1981.30932564 0 14027.62872355 0 1281.09774644 0 -4625.94403575 0 2151
0.04550000 0.04548030 39805.78427455 0 724.36116202 0 17655.39366427 0 -319.99268232 0 -1083.37763689 0 2274
0.04650000 0.04648670 38085.16082540 0 1160.48713950 0 14100.23674832 0 1906.02106517 0 -1315.23779803 0 2311
0.04750000 0.04749250 38176.44262356 0 484.33616809 0 19406.66407091 0 1885.11742355 0 -1558.78774130 0 2568
0.04850000 0.04851840 36642.33721684 0 -236.95041207 0 13873.84470741 0 657.23773434 0 874.66197019 0 2493
0.04950000 0.04949480 36043.01893681 0 404.56070971 0 15702.22681358 0 -385.36736604 0 3327.91906296 0 2644
0.05050000 0.05050630 36234.37019117 0 -146.33427901 0 12919.28535010 0 3108.24958048 0 2264.83212854 0 2829
0.05150000 0.05149060 37166.85055760 0 337.69541950 0 15106.20390531 0 282.35843820 0 1247.38609319 0 2784
0.05250000 0.05249300 36608.17519612 0 718.01427598 0 16389.20198282 0 -1647.74081006 0 2694.53762335 0 3055
0.05350000 0.05348950 36079.70740923 0 286.53257578 0 15173.20979806 0 -629.57967904 0 -1563.31338520 0 3009
0.05450000 0.05448610 35695.24736888 0 313.22398870 0 15620.39174785 0 1598.52992490 0 1944.36820805 0 3336
0.05550000 0.05550870 36484.48890885 0 -878.29896217 0 14865.09253715 0 1239.79575354 0 -987.08687365 0 3349
0.05650000 0.05647670 36792.16678685 0 397.31858101 0 14401.32388277 0 1546.79258804 0 657.00046758 0 3324
0.05750000 0.05747970 34691.58697212 0 1081.47181355 0 14449.76584785 0 -867.08700894 0 478.84827562 0 3639
0.05850000 0.05849280 34481.01271574 0 937.32566140 0 14501.61303044 0 462.43952110 0 1922.51989319 0 3846
0.05950000 0.05951020 33857.63822175 0 1302.63849328 0 16177.08988627 0 2010.48435042 0 167.12258262 0 3787
0.06050000 0.06049470 33411.66457495 0 7.42240751 0 15313.70248138 0 -971.10102517 0 3851.22410074 0 3930
0.06150000 0.06148310 31216.83712747 0 217.66260107 0 14189.43147768 0 900.12420943 0 855.94206160 0 4083
0.06250000 0.06249100 31236.38966666 0 -21.45385886 0 14442.18649277 0 1389.96584530 0 3601.69854998 0 4303
0.06350000 0.06350600 31672.69688959 0 -445.73638003 0 11933.31011519 0 2504.69125543 0 2227.44064347 0 4470
0.06450000 0.06451750 31653.36404185 0 1165.08967541 0 11942.53715616 0 -599.31059084 0 1992.37079023 0 4479
0.06550000 0.06550280 30538.64961630 0 818.12547357 0 12486.16365321 0 1057.81763496 0 3290.00031841 0 4636
0.06650000 0.06648880 30266.89129063 0 -503.65803126 0 11972.96442221 0 253.95453042 0 2550.85941398 0 4653
0.06750000 0.06749660 30899.27313414 0 230.05539586 0 10350.54305195 0 2144.78173480 0 1656.92391274 0 5220
0.06850000 0.06852730 30471.75356928 0 -135.11134121 0 10204.37134461 0 626.70172103 0 3297.92019524 0 5029
0.06950000 0.06949320 30135.07641966 0 -560.86568526 0 8067.72917809 0 367.60531218 0 3178.33115355 0 5040
0.07050000 0.07048030 29571.01861761 0 419.89627149 0 8909.72962017 0 218.10857472 0 658.35925921 0 5475
0.07150000 0.07148790 28785.07244941 0 1351.66264071 0 9434.39674495 0 -1122.74414811 0 1170.80165316 0 5509
0.07250000 0.07249820 28437.95995584 0 854.04502591 0 9420.87473610 0 1438.57257897 0 2800.05542757 0 5916
0.07350000 0.07351270 28382.37801858 0 -591.98388093 0 8789.11901323 0 1560.60019578 0 1508.40150687 0 5721
0.07450000 0.07449140 28502.43939689 0 632.33021602 0 8068.84960450 0 128.55904366 0 2534.09695623 0 6028
0.07550000 0.07549160 27600.49614224 0 248.69401861 0 7744.10170070 0 -231.22085901 0 643.01271285 0 6183
0.07650000 0.07648840 26645.27771056 0 259.18318697 0 8618.69336963 0 -827.34262843 0 1218.17811470 0 6330
0.07750000 0.07749960 25923.81098342 0 665.27185073 0 8355.75565575 0 414.15024158 0 1113.60498372 0 6583
0.07850000 0.07848650 24597.86322713 0 419.20424342 0 8078.40618264 0 605.87826678 0 2104.77592146 0 6549
0.07950000 0.07947320 25010.33392756 0 792.92027333 0 8671.13371913 0 916.09358105 0 3092.82724058 0 6828
0.08050000 0.08048110 24190.33558436 0 484.47567216 0 7689.96972702 0 1102.84010259 0 1696.69905006 0 7147
0.08150000 0.08149960 23433.71822496 0 272.25043451 0 8326.21814008 0 484.79092939 0 3600.25957097 0 7386
0.08250000 0.08250610 22540.56262837 0 588.97300958 0 7050.75547937 0 -696.35819114 0 2575.53076400 0 7227
0.08350000 0.08350160 22354.59381457 0 -45.88091199 0 7559.69269621 0 198.50111266 0 2594.58899743 0 7798
0.08450000 0.08449610 22330.75729206 0 364.19570085 0 6941.03058385 0 332.44589226 0 428.56200080 0 7371
0.08550000 0.08548940 21178.03624538 0 869.35422472 0 7446.21107687 0 -720.82303119 0 1344.97303600 0 8256
0.08650000 0.08650700 20930.99320802 0 329.03847785 0 8272.82213276 0 -949.10991086 0 -26.68559109 0 8037
0.08750000 0.08749060 19918.32546175 0 305.67429196 0 7711.02715266 0 425.17655553 0 -832.44935622 0 8155
0.08850000 0.08849210 19951.38902522 0 225.05521842 0 8077.46150940 0 141.11111475 0 -885.64324740 0 8718
0.08950000 0.08949900 20043.32989773 0 158.34151530 0 8602.22749533 0 -352.94090778 0 -1676.58629766 0 8571
0.09050000 0.09049190 19304.06816300 0 259.67639428 0 7875.42226591 0 -59.49870631 0 -2276.31100689 0 8932
0.09150000 0.09150830 19441.48516599 0 -110.22579202 0 8700.33071305 0 -25.18520832 0 -835.70957736 0 9285
0.09250000 0.09250820 19270.34552518 0 92.15331414 0 7595.88686286 0 494.77480741 0 -2189.36811491 0 9204
0.09350000 0.09350330 19567.47821350 0 627.50798865 0 8335.55502677 0 344.15544663 0 -1952.36497689 0 9349
0.09450000 0.09448040 18752.42292797 0 208.53991354 0 8483.05586739 0 -429.79446985 0 -929.98686845 0 9564
0.09550000 0.09549270 18465.06650924 0 238.03458938 0 8253.29156271 0 1046.98135410 0 218.28103251 0 10155
0.09650000 0.09649430 18323.47536866 0 78.01880552 0 7645.64697666 0 1293.32357573 0 380.18923853 0 9913
0.09750000 0.09749140 17890.90290041 0 316.71818124 0 7273.23701243 0 656.27987962 0 1095.30248889 0 10476
0.09850000 0.09850240 17421.75180546 0 230.72325787 0 6988.64870599 0 462.31978926 0 1802.81002120 0 10575
0.09950000 0.09950330 16840.55807018 0 -57.72535691 0 6388.97891963 0 316.48970213 0 1427.75277498 0 10882
0.10050000 0.10051200 16781.90045260 0 437.79673097 0 6625.33396786 0 538.45605874 0 846.31847756 0 10875
0.10150000 0.10150300 16599.00731912 0 571.01872570 0 6236.32631447 0 -358.47164008 0 1702.75154955 0 11118
0.10250000 0.10250800 16473.23396306 0 -427.61073682 0 5466.86798972 0 943.36058557 0 1458.15807188 0 11575
0.10350000 0.10349800 16244.09577902 0 -304.28254662 0 5031.17590285 0 616.30482308 0 1349.57557192 0 11364
0.10450000 0.10450100 16208.28607240 0 541.67893233 0 5209.53240786 0 -178.74865424 0 899.28828346 0 12093
0.10550000 0.10551000 15971.34884182 0 473.73276017 0 5457.54208760 0 -592.23872301 0 2244.30196238 0 12067
0.10650000 0.10649700 15421.35129267 0 48.33113075 0 5414.46059393 0 269.59875869 0 691.94239296 0 12054
0.10750000 0.10749900 15395.75723856 0 319.87514740 0 5809.68551541 0 311.95856594 0 1375.79574667 0 12807
0.10850000 0.10850100 15312.71386984 0 3.06777143 0 5799.25017146 0 -51.67604294 0 1183.48883449 0 12736
0.10950000 0.10950300 15185.73221080 0 -50.08240115 0 5439.84594117 0 636.29784363 0 1630.61586141 0 12933
0.11050000 0.11050200 15050.73181378 0 224.35110732 0 5473.43676412 0 6.15736921 0 1049.72530033 0 13428
0.11150000 0.11150900 14974.60872579 0 -29.95635742 0 4993.86130979 0 11.22304765 0 1720.35981940 0 13453
0.11250000 0.11250000 14696.58919376 0 397.23839363 0 5546.94552384 0 288.05833292 0 1397.89670670 0 13668
0.11350000 0.11349100 14422.96349076 0 115.24134787 0 5285.75435700 0 -212.95571172 0 1706.69501111 0 13791
0.11450000 0.11448600 14238.64236284 0 62.67555454 0 5872.14379511 0 429.78128836 0 1445.28415282 0 14205
0.11550000 0.11549300 14344.42379680 0 290.70781182 0 5000.93537454 0 -285.61097014 0 619.40027563 0 14776
0.11650000 0.11649800 13996.43253742 0 -91.26158654 0 5418.19534861 0 501.90379501 0 1025.58120980 0 14553
0.11750000 0.11747300 14223.26396123 0 -205.80585343 0 5315.10513493 0 -123.17330773 0 984.24077089 0 14568
0.11850000 0.11849100 14010.16325315 0 333.73877645 0 4792.21751092 0 123.75329316 0 462.21104199 0 16015
0.11950000 0.11950300 14325.09094906 0 149.48685134 0 4768.98513991 0 -143.38272436 0 344.07086542 0 15270
0.12050000 0.12050700 13621.74876667 0 -102.63160777 0 4900.38259713 0 300.63237315 0 679.05089858 0 15999
0.12150000 0.12150000 13654.70248442 0 36.76975826 0 4422.48778240 0 735.65000726 0 226.79407626 0 15670
0.12250000 0.12250700 14040.92005638 0 126.39178749 0 4640.56450186 0 -532.50132194 0 52.57128561 0 16887
0.12350000 0.12352200 13229.59952552 0 379.92231341 0 4505.21259851 0 -416.98865513 0 -147.91495901 0 16407
0.12450000 0.12449800 13183.02493777 0 252.01795028 0 4918.75978705 0 128.42722879 0 -10.24995732 0 16306
0.12550000 0.12549900 13079.55026406 0 95.72033439 0 4939.00435432 0 -69.94986804 0 -99.12884727 0 17523
0.12650000 0.12650100 13109.53814720 0 -78.62844930 0 4954.14109534 0 255.79334787 0 -733.66070117 0 17154
0.12750000 0.12750600 12997.71519833 0 3.61853790 0 4601.97569838 0 471.91371495 0 -412.65633971 0 18007
0.12850000 0.12850300 13009.79822817 0 68.00988268 0 4732.74703496 0 356.89425545 0 443.83934435 0 17496
0.12950000 0.12949900 12974.75744163 0 258.66581360 0 4161.67009103 0 85.00466415 0 -73.97681235 0 18405
0.13050000 0.13049000 12789.11816501 0 10.78330226 0 4423.22374876 0 336.55192549 0 89.56633745 0 18100
0.13150000 0.13148800 12412.45717119 0 101.60575854 0 4040.19170285 0 -293.26392186 0 -231.12749014 0 19059
0.13250000 0.13249300 12441.78597998 0 113.39264430 0 4411.96456187 0 123.20516299 0 435.37682963 0 18957
0.13350000 0.13349100 12430.69156168 0 20.18019767 0 3874.10496542 0 25.73751263 0 -704.60760514 0 19468
0.13450000 0.13450700 12030.63342826 0 176.71101603 0 3767.52165767 0 165.83958455 0 -349.89927963 0 19953
0.13550000 0.13551000 12121.47584351 0 231.62838665 0 3862.52722592 0 199.43370287 0 -264.56672599 0 19956
0.13650000 0.13649900 11906.61760382 0 12.70948001 0 3690.38798900 0 -195.56383795 0 -795.00404675 0 19723
0.13750000 0.13749600 11838.62309954 0 137.13250256 0 3688.67439568 0 255.23972541 0 -1144.80116986 0 20946
0.13850000 0.13851100 11765.57569188 0 74.24922975 0 3904.68601549 0 -114.91730297 0 -296.22206726 0 20955
0.13950000 0.13949800 11554.23251541 0 39.20800383 0 3342.07817702 0 417.25558025 0 -537.37627525 0 20506
0.14050000 0.14048300 11467.01500912 0 -116.66934230 0 3230.51885788 0 285.28033451 0 -449.15148365 0 21447
0.14150000 0.14148400 11291.37169354 0 323.75379998 0 3569.74442834 0 144.90298921 0 -510.80788955 0 21771
0.14250000 0.14249400 11156.26145079 0 454.50206895 0 3565.98770452 0 -514.45147227 0 165.88352284 0 22470
0.14350000 0.14350900 10804.20589956 0 34.49089883 0 3929.76379469 0 -178.83872774 0 -123.93673552 0 22519
0.14450000 0.14449900 10720.88791653 0 130.89216688 0 3696.14390503 0 664.96318424 0 115.00957338 0 22218
0.14550000 0.14550500 10704.85044056 0 -66.00893294 0 3447.49712008 0 350.24858904 0 298.45632932 0 23559
0.14650000 0.14650700 10457.41195859 0 -4.68892957 0 3342.48460620 0 319.82242145 0 627.14000547 0 23044
0.14750000 0.14750500 10569.70724409 0 175.95857281 0 3498.11403054 0 -264.69304858 0 256.81161775 0 23649
0.14850000 0.14849900 10210.08332235 0 320.30903801 0 3063.47646264 0 16.62921489 0 402.77461821 0 23640
0.14950000 0.14949500 10248.82590984 0 72.83826140 0 3383.62183052 0 -257.03899840 0 313.43818787 0 24457
0.15050000 0.15050000 9841.80355742 0 168.05517284 0 3469.58709554 0 -86.08928085 0 62.99894036 0 24591
0.15150000 0.15149900 9931.93197545 0 -25.95138226 0 3266.09788847 0 418.38149894 0 36.86477481 0 25020
0.15250000 0.15250500 9912.25860595 0 -30.09619103 0 3033.19199603 0 111.76143527 0 -402.27152479 0 25297
0.15350000 0.15350100 9809.22331514 0 115.50387915 0 3250.84031716 0 1.51595889 0 -80.13838865 0 25452
0.15450000 0.15450400 9673.23430658 0 48.62892251 0 3114.24715711 0 121.96720166 0 -128.01970115 0 26061
0.15550000 0.15549900 9750.02745350 0 72.90449838 0 2921.08344827 0 91.79367923 0 -176.59018573 0 26128
0.15650000 0.15649500 9417.18391971 0 247.46264803 0 3023.10815840 0 -293.36497993 0 -362.24703767 0 26331
0.15750000 0.15749700 9324.89154088 0 236.90867069 0 3307.10329792 0 36.12111925 0 246.11264406 0 27345
0.15850000 0.15849900 9072.01569549 0 -68.80648388 0 3143.54301218 0 570.40139272 0 286.64242151 0 26980
0.15950000 0.15949700 9071.37859028 0 57.31277636 0 2964.24183394 0 507.23570655 0 314.05991467 0 27777
0.16050000 0.16050000 9119.94138566 0 84.34844578 0 2601.33352500 0 287.57830709 0 928.53141259 0 28224
0.16150000 0.16150500 8989.55450912 0 22.33723819 0 2672.64537019 0 135.33872186 0 1124.40281857 0 28075
0.16250000 0.16249700 8783.14340574 0 18.18517960 0 2192.88317813 0 62.74299982 0 970.53422122 0 28590
0.16350000 0.16349900 8637.46600417 0 152.46037514 0 2408.05997043 0 -147.34266278 0 820.21913311 0 29163
0.16450000 0.16449100 8571.55856868 0 229.64896667 0 2556.11003968 0 -262.94210771 0 924.16724190 0 28996
0.16550000 0.16550500 8558.43200445 0 75.63800926 0 2489.69731385 0 70.60059412 0 440.17708785 0 30777
0.16650000 0.16650700 8419.29042356 0 -41.91020869 0 2435.83995449 0 105.04195253 0 402.41652115 0 29211
0.16750000 0.16749900 8548.56785827 0 -86.86841658 0 2032.13494298 0 -11.79095005 0 -161.71158217 0 30922
0.16850000 0.16850800 8383.06330319 0 246.80357367 0 2414.61776026 0 -119.06178221 0 -154.11135640 0 30867
0.16950000 0.16949900 8261.76066817 0 173.44090877 0 2184.30422695 0 -245.54584011 0 -197.70473115 0 30852
0.17050000 0.17049200 8170.69856147 0 -16.63986993 0 2355.94915810 0 52.51076061 0 -580.71261100 0 31257
0.17150000 0.17149500 8023.04393683 0 130.69773994 0 2680.20275613 0 -261.79092450 0 -624.06102978 0 32608
0.17250000 0.17250900 7807.47169992 0 39.29401304 0 2096.05417083 0 279.11908775 0 -493.43908338 0 32361
0.17350000 0.17350400 8179.96954073 0 -92.58775399 0 2367.87840392 0 420.19395341 0 -596.37111921 0 32508
0.17450000 0.17449800 8088.68774258 0 -43.79329397 0 1801.27218103 0 253.29106224 0 -464.30909536 0 32791
0.17550000 0.17549800 7953.47863867 0 119.49457437 0 1819.96792357 0 -201.98322217 0 -252.24972476 0 33633
0.17650000 0.17650100 7891.09725099 0 213.25119672 0 2021.61172244 0 97.73984806 0 -375.70204063 0 33984
0.17750000 0.17750300 7934.72797328 0 106.66986619 0 2082.08179450 0 135.48591513 0 153.49951571 0 34069
0.17850000 0.17849800 7731.78799484 0 -78.84418631 0 1959.34018048 0 32.40108390 0 -21.46077914 0 34536
