### header ###
fiducial parameters:
Omega_m = 0.31
Omega_nu = 0
Omega_de = 0.69
Omega_k = 0
H_0 = 100
w_de = -1
zeff = 0
beta = 0
fgrowth = 0
b_1 = 2
gamma = 0.55
Lx = 3500 Ly = 3500 Lz = 3500
nx = 700 ny = 700 nz = 700
xoffset = -983.599254 yoffset = -42.9823471 zoffset = 800.977702
bins = 400 dk = 0.001
kx_ny = 0.628318531 ky_ny = 0.628318531 kz_ny = 0.628318531
############################
A(data) = 9.06197542 (not used)
A(ran) = 9.0644731 (used)
Ngal = 503231
weighted Ngal = 0
Nran = 25229228
weighted Nran = 0
SN(data) = 6724.94071
SN(ran) = 134.555858
SN(data+ran) = 6859.49656
############################
13 columns: k_central k_mean P_0(k) sigma^{lin}_{P_0(k)} P^img_1(k) sigma^{lin}_{P_1(k)} P_2(k) sigma^{lin}_{P_2(k)} P^img_3(k) sigma^{lin}_{P_3(k)} P_4(k) sigma^{lin}_{P_4(k)} N_modes
### header ###
0.00050000 0 0 0 0 0 0 0 0 0 0 0 0
0.00150000 0.00179520 26780.05841614 0 622.13213883 0 4305.09565523 0 2412.68447548 0 -22719.39146999 0 3
0.00250000 0.00253879 42574.77533085 0 4358.08523336 0 -807.54293635 0 -31410.82467925 0 -32844.09170967 0 6
0.00350000 0.00331552 53624.04704470 0 -13387.77737069 0 -1913.11709906 0 -63012.12184707 0 -17203.59819400 0 7
0.00450000 0.00420575 45573.67349128 0 -4915.76099874 0 -12124.00229521 0 8346.71535251 0 -13878.67791935 0 24
0.00550000 0.00557378 65136.09880140 0 -8972.37463760 0 -6712.47458215 0 -4801.70818163 0 -4365.37898955 0 45
0.00650000 0.00659388 78760.15432831 0 -5407.19979146 0 -27683.97889386 0 -10850.89033303 0 23431.08192754 0 40
0.00750000 0.00754703 68611.61756613 0 -5547.51672161 0 -4243.05478929 0 -27600.38629651 0 -23447.99816931 0 57
0.00850000 0.00846663 77445.52068178 0 3283.48646687 0 -9678.60576257 0 -11558.51649872 0 -12200.67461182 0 75
0.00950000 0.00948925 82296.74731660 0 9856.35811609 0 36246.67291246 0 -20490.29215606 0 -39845.10904439 0 112
0.01050000 0.01054430 71445.19790922 0 -3659.93875381 0 -1185.15848952 0 -2168.49742700 0 12796.91721154 0 105
0.01150000 0.01145670 90208.93494694 0 -14944.07161401 0 28565.82038069 0 -16.92975280 0 -41426.55795892 0 144
0.01250000 0.01249090 72403.38217549 0 3095.39763056 0 6608.23098836 0 -1529.46991708 0 -14144.17503864 0 169
0.01350000 0.01339930 100872.64816318 0 20549.82853945 0 43037.00614507 0 -19481.35916446 0 -28106.55540106 0 180
0.01450000 0.01448870 84121.50451381 0 -1097.01388530 0 46472.87060279 0 -8781.35292041 0 -22364.80946707 0 267
0.01550000 0.01550050 77300.96370661 0 -7130.38264601 0 51922.20721467 0 15695.19668713 0 -23099.78721848 0 238
0.01650000 0.01653350 84089.64925333 0 131.85771081 0 34871.18473383 0 9271.86900903 0 5165.31950322 0 315
0.01750000 0.01747870 91520.38306743 0 -2231.41705875 0 46257.90251738 0 1342.22689286 0 -1441.23084554 0 297
0.01850000 0.01844180 80479.67932020 0 9177.76417573 0 44633.39407832 0 3984.08250611 0 -11963.29799834 0 388
0.01950000 0.01947590 71984.43057724 0 8974.45072182 0 49925.32176511 0 2189.11546974 0 1999.08236408 0 399
0.02050000 0.02045430 74324.91345714 0 4481.55182917 0 50148.96766286 0 4574.97561898 0 900.40651295 0 462
0.02150000 0.02154770 67589.06370454 0 -2111.41060330 0 50466.86119337 0 10059.46286312 0 8733.57002968 0 571
0.02250000 0.02255340 68105.00907868 0 39.41638118 0 42849.06010821 0 2813.17100723 0 -6387.88046237 0 510
0.02350000 0.02348930 71811.86294198 0 3453.04432924 0 40913.90795655 0 8918.91272285 0 -7936.06809113 0 555
0.02450000 0.02439640 64058.73192262 0 1435.42000664 0 42595.75586448 0 -4676.06664044 0 2627.81732949 0 592
0.02550000 0.02547300 61209.66333220 0 3039.31040296 0 42234.69296373 0 -1111.84745211 0 1648.64154502 0 837
0.02650000 0.02652900 60120.21342358 0 1017.61739468 0 44583.74381025 0 5231.91896678 0 -2084.35560103 0 723
0.02750000 0.02749970 63128.11893353 0 -1322.60844623 0 42332.67535116 0 13558.80716578 0 -943.29028431 0 826
0.02850000 0.02848090 57472.49204857 0 717.08827651 0 38350.21856179 0 5092.59064815 0 2277.09091154 0 831
0.02950000 0.02946900 60191.28360818 0 3266.31757993 0 36497.34085877 0 1208.32495309 0 5136.77059908 0 996
0.03050000 0.03053250 57366.16138598 0 1085.00445209 0 33375.30563970 0 7828.45223355 0 9642.69719481 0 1041
0.03150000 0.03150510 56404.35221076 0 -485.36652099 0 31128.30147246 0 5864.14702627 0 12265.48359005 0 1036
0.03250000 0.03246190 55691.56329596 0 -1779.63257305 0 27750.87494088 0 7344.23030502 0 11936.71533269 0 1059
0.03350000 0.03345080 56646.12265328 0 1013.58605654 0 24537.22838648 0 2725.72282491 0 12149.26681214 0 1302
0.03450000 0.03451200 53818.14444221 0 1644.37953085 0 20462.61103316 0 1358.31929169 0 12956.41320542 0 1339
0.03550000 0.03553350 54866.95143228 0 184.35627855 0 22191.03352883 0 2753.60167012 0 17020.37552334 0 1365
0.03650000 0.03647120 52197.48060356 0 431.68711170 0 20017.18661498 0 4108.59263632 0 10321.17030487 0 1308
0.03750000 0.03744890 51679.66785207 0 3182.95565861 0 20778.85687777 0 -2085.44307371 0 10568.43303367 0 1579
0.03850000 0.03847530 50226.29905384 0 1081.35647554 0 22112.82337205 0 -1626.00234093 0 9251.85511779 0 1662
0.03950000 0.03950240 47609.00494488 0 676.69031393 0 25326.14038927 0 -541.51965603 0 6203.17487442 0 1683
0.04050000 0.04050350 46663.01355418 0 2083.39994321 0 27847.20964241 0 -854.83371822 0 -34.05722791 0 1822
0.04150000 0.04152450 44640.09466759 0 1823.71366282 0 24689.58440818 0 -2445.83591553 0 4453.87070627 0 1887
0.04250000 0.04250150 45623.43360508 0 205.37745510 0 28529.46144544 0 2485.80877516 0 1478.92989863 0 1920
0.04350000 0.04349210 42336.30026011 0 -818.06066459 0 25589.55043977 0 3701.16385470 0 405.91181214 0 2005
0.04450000 0.04448520 42512.16326714 0 1182.39037723 0 24781.30558924 0 4915.78296788 0 2675.58923565 0 2151
0.04550000 0.04548030 42479.75877802 0 578.96167013 0 18575.02208078 0 3323.36046534 0 3832.03405244 0 2274
0.04650000 0.04648670 40469.69184136 0 -240.51929970 0 19577.69386600 0 3365.00298000 0 5950.40887475 0 2311
0.04750000 0.04749250 39685.72289623 0 2353.60944414 0 15874.57475738 0 -176.48363538 0 1602.80292363 0 2568
0.04850000 0.04851840 36979.45374937 0 2104.13881625 0 17094.63123399 0 -1543.23358653 0 4578.90809596 0 2493
0.04950000 0.04949480 34731.13143342 0 674.89873014 0 14647.81769150 0 1468.70326156 0 3062.21323679 0 2644
0.05050000 0.05050630 35060.22922795 0 -712.70103822 0 15914.11921867 0 2156.16175199 0 63.46754223 0 2829
0.05150000 0.05149060 34772.65311777 0 -114.54931979 0 12188.26204481 0 -89.99220933 0 -2250.72793734 0 2784
0.05250000 0.05249300 34538.79156752 0 357.17216514 0 10505.53537107 0 879.96642029 0 -2833.53640479 0 3055
0.05350000 0.05348950 34419.05972638 0 -969.98059877 0 8667.88228565 0 2374.98542238 0 -2266.52375272 0 3009
0.05450000 0.05448610 35176.88538877 0 -736.23109115 0 7407.53439681 0 2845.16906716 0 -5551.39427573 0 3336
0.05550000 0.05550870 35400.75097798 0 1249.45119284 0 5785.05810368 0 -159.40811730 0 -3500.76131253 0 3349
0.05650000 0.05647670 33746.58419295 0 1378.55287439 0 6431.67595326 0 -4270.56015903 0 -4953.03165351 0 3324
0.05750000 0.05747970 33602.02721778 0 571.31970299 0 9076.78299999 0 -608.20150388 0 -7592.95398198 0 3639
0.05850000 0.05849280 31548.35152797 0 148.43672621 0 8086.54575093 0 1617.39043602 0 -4019.71645956 0 3846
0.05950000 0.05951020 32254.65954495 0 -574.67109608 0 6550.69379717 0 2663.44029837 0 -3008.64147631 0 3787
0.06050000 0.06049470 32575.73860151 0 -491.99021826 0 5838.08063553 0 2537.73284975 0 -1784.60858443 0 3930
0.06150000 0.06148310 32968.87645419 0 -224.25334462 0 6097.98660738 0 -9.96977383 0 -2737.25662612 0 4083
0.06250000 0.06249100 32726.77647450 0 1344.30297708 0 6521.03545120 0 -2540.14945572 0 307.61197057 0 4303
0.06350000 0.06350600 31309.65676578 0 497.62091017 0 6572.66294234 0 -180.58637324 0 536.23827353 0 4470
0.06450000 0.06451750 32257.07615092 0 135.64738835 0 7637.38657807 0 1592.83991630 0 -53.50925826 0 4479
0.06550000 0.06550280 31413.24128522 0 -7.48317416 0 8854.43328180 0 204.58656587 0 2247.17992040 0 4636
0.06650000 0.06648880 30346.09005894 0 1456.52137057 0 9273.63752522 0 -1545.10096386 0 705.80382510 0 4653
0.06750000 0.06749660 30369.37735282 0 748.33279476 0 9519.59308989 0 -803.52148433 0 2069.76808864 0 5220
0.06850000 0.06852730 28715.64995070 0 692.80797728 0 12593.70261878 0 509.05475177 0 1808.79661325 0 5029
0.06950000 0.06949320 28022.52342081 0 295.38833820 0 11955.27926036 0 -556.02807950 0 3051.32752536 0 5040
0.07050000 0.07048030 27680.35398490 0 204.86996784 0 11358.70712346 0 708.08422237 0 2097.95450188 0 5475
0.07150000 0.07148790 27433.86017618 0 -32.02222599 0 12078.30647327 0 1838.33412892 0 2883.47227175 0 5509
0.07250000 0.07249820 28529.13190826 0 272.29327435 0 11548.74022912 0 572.41816024 0 1461.75002712 0 5916
0.07350000 0.07351270 27131.78443019 0 192.06964541 0 9659.11913082 0 -301.65613531 0 1680.33203691 0 5721
0.07450000 0.07449140 27310.72311754 0 60.40877815 0 9901.99901516 0 1313.19466753 0 2960.63889413 0 6028
0.07550000 0.07549160 27011.28366897 0 -213.57194624 0 9159.81538413 0 1536.29133665 0 2220.54233189 0 6183
0.07650000 0.07648840 26423.16965297 0 580.96305925 0 8112.91970969 0 96.45201677 0 1354.28795355 0 6330
0.07750000 0.07749960 26247.41649167 0 360.73116666 0 7190.41333517 0 1043.51572145 0 2400.14009360 0 6583
0.07850000 0.07848650 26057.27354028 0 88.35342095 0 7752.05453125 0 668.18935321 0 2532.96554525 0 6549
0.07950000 0.07947320 24653.77470157 0 421.97674954 0 6965.88867160 0 -526.11379298 0 759.39316089 0 6828
0.08050000 0.08048110 24635.76000253 0 1087.19038204 0 6985.56204110 0 -762.55232397 0 602.67955925 0 7147
0.08150000 0.08149960 23716.13158602 0 565.84718893 0 7343.54926152 0 112.01737581 0 -305.64353516 0 7386
0.08250000 0.08250610 23099.23798986 0 188.55677910 0 7469.63018561 0 -239.25058157 0 -861.42995406 0 7227
0.08350000 0.08350160 22529.35836433 0 50.06735229 0 7206.92314776 0 1029.44668089 0 -179.61973085 0 7798
0.08450000 0.08449610 22364.26023844 0 326.31650076 0 6723.12961756 0 252.98678958 0 -1548.23156705 0 7371
0.08550000 0.08548940 21875.33691284 0 530.55815105 0 7032.83964149 0 -764.03853664 0 229.11291953 0 8256
0.08650000 0.08650700 21217.14132377 0 528.21953555 0 7130.74513690 0 624.95846936 0 -277.08913874 0 8037
0.08750000 0.08749060 20700.53687527 0 -13.45687033 0 6334.69316193 0 1252.40604286 0 1270.54157219 0 8155
0.08850000 0.08849210 20725.69154648 0 40.07776229 0 6494.02438723 0 577.08880051 0 -160.99978187 0 8718
0.08950000 0.08949900 20589.37300074 0 579.17806621 0 6152.04168905 0 -99.81736028 0 918.47943022 0 8571
0.09050000 0.09049190 19875.48562868 0 605.95845416 0 6965.87768703 0 -401.83104343 0 1803.60091042 0 8932
0.09150000 0.09150830 19180.27203001 0 139.21298061 0 7047.62487618 0 -614.03870575 0 2028.51003402 0 9285
0.09250000 0.09250820 18734.07869176 0 428.20500219 0 7835.31759142 0 263.73958768 0 1607.20773724 0 9204
0.09350000 0.09350330 19055.92666839 0 -107.74031279 0 7058.13711214 0 867.76915090 0 -90.79562097 0 9349
0.09450000 0.09448040 18711.67016369 0 65.07249813 0 7863.99831043 0 105.72453387 0 2473.23143955 0 9564
0.09550000 0.09549270 18819.20912926 0 45.22776930 0 7134.33709214 0 125.77884834 0 867.46377978 0 10155
0.09650000 0.09649430 18828.76570741 0 371.86293251 0 7451.05527338 0 6.95924301 0 1292.18118018 0 9913
0.09750000 0.09749140 18082.47384623 0 161.40950642 0 6972.55630716 0 605.34990884 0 1752.27000275 0 10476
0.09850000 0.09850240 18130.80596559 0 66.36637093 0 6792.53014713 0 677.00996499 0 1615.16056779 0 10575
0.09950000 0.09950330 17822.57885896 0 101.07278708 0 6516.37799243 0 49.29920113 0 980.56313599 0 10882
0.10050000 0.10051200 17312.67499973 0 610.67413117 0 6554.95581134 0 -153.34353478 0 1074.55043437 0 10875
0.10150000 0.10150300 17038.06068520 0 396.71223260 0 6483.72085815 0 -359.11204066 0 1233.96294550 0 11118
0.10250000 0.10250800 16524.53191702 0 154.94069163 0 6833.61244858 0 117.35477963 0 214.45510588 0 11575
0.10350000 0.10349800 16398.97825241 0 -280.13186534 0 5650.12361409 0 876.04492788 0 399.28811487 0 11364
0.10450000 0.10450100 16481.36254677 0 76.31905276 0 5160.35447641 0 749.92885316 0 -1093.60756934 0 12093
0.10550000 0.10551000 16138.09465361 0 566.30854097 0 5094.65574780 0 -740.52386211 0 -817.76847496 0 12067
0.10650000 0.10649700 15650.70916817 0 492.91402081 0 5405.43127527 0 -900.40870986 0 -1235.92918399 0 12054
0.10750000 0.10749900 15037.44048096 0 147.42065324 0 5648.04752988 0 39.53171919 0 -1144.53754011 0 12807
0.10850000 0.10850100 15015.58118152 0 -210.11510125 0 5145.26167368 0 553.54007381 0 -1821.65954774 0 12736
0.10950000 0.10950300 15374.33732203 0 11.05740030 0 4944.93602352 0 1035.26520899 0 -1435.24425348 0 12933
0.11050000 0.11050200 14901.34162667 0 164.01614550 0 4644.93636175 0 -208.40809867 0 -1472.65770769 0 13428
0.11150000 0.11150900 14618.92826561 0 488.29390959 0 5015.80848581 0 -203.40462586 0 -534.45767432 0 13453
0.11250000 0.11250000 14924.07969192 0 -141.36485838 0 5149.51270327 0 190.10670229 0 -910.46398761 0 13668
0.11350000 0.11349100 14445.70155600 0 -127.53857687 0 4619.48510708 0 583.22807812 0 -1049.68575587 0 13791
0.11450000 0.11448600 14716.36142440 0 314.83213013 0 4912.26790466 0 68.94983256 0 -639.58332929 0 14205
0.11550000 0.11549300 14372.54430261 0 183.54012480 0 4941.00354653 0 -489.60546755 0 52.89906525 0 14776
0.11650000 0.11649800 14369.90800519 0 113.01367655 0 5406.14527249 0 266.31876532 0 -700.27199435 0 14553
0.11750000 0.11747300 14105.50934315 0 264.54255993 0 5144.72342963 0 192.49914220 0 -220.94588982 0 14568
0.11850000 0.11849100 14131.76247162 0 -56.55780669 0 5231.30383071 0 51.18887715 0 -341.39062971 0 16015
0.11950000 0.11950300 13776.41154862 0 24.95123693 0 5142.46060767 0 47.41117279 0 248.66545872 0 15270
0.12050000 0.12050700 13839.24330378 0 -43.03524861 0 5023.04731914 0 531.73789415 0 108.02755936 0 15999
0.12150000 0.12150000 14173.17431026 0 121.87712816 0 4547.81077098 0 222.06521776 0 926.20597857 0 15670
0.12250000 0.12250700 13880.87483387 0 -103.28090586 0 4244.61459859 0 603.43310093 0 284.96617573 0 16887
0.12350000 0.12352200 14074.86238565 0 42.11649896 0 4016.91539355 0 962.77252224 0 888.52669770 0 16407
0.12450000 0.12449800 13705.34136402 0 225.26172838 0 3535.50551560 0 -159.29717312 0 1426.42364170 0 16306
0.12550000 0.12549900 13435.88979860 0 438.27126451 0 4124.44337455 0 -134.34571650 0 1365.62403246 0 17523
0.12650000 0.12650100 13246.73545875 0 199.11405181 0 3995.07806326 0 -44.24508944 0 1090.79222339 0 17154
0.12750000 0.12750600 12676.08691314 0 87.05405586 0 4270.21963728 0 -401.95187373 0 727.40938091 0 18007
0.12850000 0.12850300 12558.00275789 0 131.54794586 0 3791.09455043 0 158.55022218 0 800.37989657 0 17496
0.12950000 0.12949900 12638.29998346 0 -4.70506591 0 4260.16875337 0 -80.94223967 0 140.47620646 0 18405
0.13050000 0.13049000 12432.77863047 0 104.86499107 0 3624.70024496 0 231.35267388 0 146.10030762 0 18100
0.13150000 0.13148800 12403.88920458 0 250.22087420 0 3726.80184711 0 218.77204290 0 -369.93843539 0 19059
0.13250000 0.13249300 12277.67646562 0 127.77694210 0 4075.71581058 0 -501.12938265 0 -1.88133873 0 18957
0.13350000 0.13349100 11974.83179955 0 212.18898855 0 3614.90200622 0 138.01346528 0 -333.29499972 0 19468
0.13450000 0.13450700 11905.62899229 0 62.66995241 0 4156.73801794 0 258.15722789 0 -27.79865783 0 19953
0.13550000 0.13551000 11489.53338291 0 200.43000361 0 3654.85289670 0 -59.78946794 0 0.48382429 0 19956
0.13650000 0.13649900 11521.49848912 0 257.81231231 0 4275.50321669 0 282.03439331 0 -92.55271320 0 19723
0.13750000 0.13749600 11230.07777854 0 32.19786930 0 4076.00140947 0 125.46029574 0 753.72402298 0 20946
0.13850000 0.13851100 11199.98004966 0 33.23931663 0 4086.28296940 0 157.68024403 0 472.10155114 0 20955
0.13950000 0.13949800 10976.27922904 0 22.83143411 0 3857.92469001 0 89.20692224 0 959.89346576 0 20506
0.14050000 0.14048300 11263.03149628 0 -59.89656753 0 3677.56899280 0 356.95467060 0 365.47869893 0 21447
0.14150000 0.14148400 11104.30442248 0 -101.38496863 0 3459.98657911 0 292.01717287 0 620.03408547 0 21771
0.14250000 0.14249400 11362.66156959 0 164.75760415 0 3395.97947468 0 45.41857133 0 307.85802499 0 22470
0.14350000 0.14350900 11175.48445281 0 196.06583292 0 3365.21168688 0 -164.14466500 0 260.46179122 0 22519
0.14450000 0.14449900 10872.12351183 0 122.41976605 0 3444.03697972 0 -244.36829393 0 5.15964048 0 22218
0.14550000 0.14550500 10910.87708389 0 107.63848580 0 3484.86663600 0 82.01444380 0 -287.62883613 0 23559
0.14650000 0.14650700 10623.19112799 0 37.13697252 0 3415.18050755 0 -189.25100409 0 -120.14815644 0 23044
0.14750000 0.14750500 10312.66824569 0 214.03659366 0 3441.74120405 0 -99.21485647 0 -421.30559216 0 23649
0.14850000 0.14849900 10318.17151655 0 178.76622956 0 3792.73125174 0 -60.06386257 0 -532.08280972 0 23640
0.14950000 0.14949500 10054.24519114 0 198.21551377 0 3694.49621915 0 -153.68405653 0 -839.68599263 0 24457
0.15050000 0.15050000 9947.79369825 0 177.30857678 0 3702.40511140 0 -5.59261938 0 -1112.13305100 0 24591
0.15150000 0.15149900 9809.08051570 0 29.47007040 0 3656.77519690 0 243.53017104 0 -647.14401060 0 25020
0.15250000 0.15250500 9927.59306928 0 -49.13948544 0 3382.34762010 0 581.94508004 0 -684.92215262 0 25297
0.15350000 0.15350100 9913.92826098 0 -149.31878738 0 3007.65286478 0 328.82427868 0 -106.13777349 0 25452
0.15450000 0.15450400 9879.37079564 0 -62.12676530 0 2706.80739092 0 478.17711824 0 -606.28249905 0 26061
0.15550000 0.15549900 9790.01129769 0 177.80178409 0 2516.12619548 0 1.10324653 0 4.97641781 0 26128
0.15650000 0.15649500 9735.54978684 0 233.88461786 0 2641.78970581 0 -302.94462568 0 -421.15180814 0 26331
0.15750000 0.15749700 9368.81884664 0 245.18774305 0 2659.14533049 0 -163.06268460 0 269.07808995 0 27345
0.15850000 0.15849900 9207.90584289 0 127.27165176 0 3010.90429826 0 407.85058920 0 109.19873449 0 26980
0.15950000 0.15949700 9316.90575662 0 -125.78763600 0 2429.97419273 0 281.87401855 0 464.25087712 0 27777
0.16050000 0.16050000 9422.87392831 0 -51.46502930 0 2559.32851944 0 428.41261062 0 -7.45525138 0 28224
0.16150000 0.16150500 9300.42889774 0 61.68287872 0 1937.73352621 0 -200.20921370 0 156.61144512 0 28075
0.16250000 0.16249700 9160.36461276 0 98.71648641 0 2316.76718770 0 195.01131395 0 729.44482221 0 28590
0.16350000 0.16349900 8956.45799193 0 177.96545422 0 2226.86944570 0 -372.98665429 0 -88.46491436 0 29163
0.16450000 0.16449100 8672.37497583 0 518.70360032 0 2882.45070650 0 -610.14906860 0 -40.74090094 0 28996
0.16550000 0.16550500 8295.93367347 0 260.07842964 0 3005.23625881 0 -60.76555706 0 129.54435982 0 30777
0.16650000 0.16650700 8326.47078525 0 -180.87197212 0 3156.49382326 0 382.46853734 0 -167.54878404 0 29211
0.16750000 0.16749900 8361.63240208 0 -120.26239599 0 2803.85608968 0 212.29663737 0 -282.73081521 0 30922
0.16850000 0.16850800 8273.12970079 0 118.77069104 0 2622.62162666 0 220.13303144 0 -49.99397534 0 30867
0.16950000 0.16949900 8248.33752048 0 59.47465009 0 2438.48723648 0 -175.90255149 0 45.91957768 0 30852
0.17050000 0.17049200 8264.69354905 0 98.42462632 0 2663.93460414 0 -19.27616735 0 -35.60748063 0 31257
0.17150000 0.17149500 8110.29439685 0 60.00531479 0 2539.96271798 0 195.24967918 0 -155.23068435 0 32608
0.17250000 0.17250900 8143.27008374 0 64.82578463 0 2574.32246102 0 -44.27892192 0 -322.83109588 0 32361
0.17350000 0.17350400 8023.04393683 0 207.89182376 0 2679.71943494 0 -246.03794896 0 -183.91909256 0 32508
0.17450000 0.17449800 8000.28390244 0 -55.63103830 0 2645.44756848 0 307.91184940 0 -2.57095020 0 32791
0.17550000 0.17549800 7947.48106205 0 -145.29184308 0 2458.44620486 0 390.30383296 0 -15.24175353 0 33633
0.17650000 0.17650100 8101.61658451 0 37.34051665 0 1989.14132589 0 210.99496551 0 -63.97393102 0 33984
0.17750000 0.17750300 8064.93909666 0 39.60674382 0 2259.84513259 0 137.60703610 0 227.26970825 0 34069
0.17850000 0.17849800 8038.30150815 0 43.03250247 0 1795.03294381 0 -54.94065791 0 39.18460670 0 34536
