### header ###
fiducial parameters:
Omega_m = 0.31
Omega_nu = 0
Omega_de = 0.69
Omega_k = 0
H_0 = 100
w_de = -1
zeff = 0
beta = 0
fgrowth = 0
b_1 = 2
gamma = 0.55
Lx = 3500 Ly = 3500 Lz = 3500
nx = 700 ny = 700 nz = 700
xoffset = -983.599254 yoffset = -42.9823471 zoffset = 800.977702
bins = 400 dk = 0.001
kx_ny = 0.628318531 ky_ny = 0.628318531 kz_ny = 0.628318531
############################
A(data) = 9.01107184 (not used)
A(ran) = 9.01756114 (used)
Ngal = 500868
weighted Ngal = 0
Nran = 25229228
weighted Nran = 0
SN(data) = 6741.79684
SN(ran) = 133.859482
SN(data+ran) = 6875.65632
############################
13 columns: k_central k_mean P_0(k) sigma^{lin}_{P_0(k)} P^img_1(k) sigma^{lin}_{P_1(k)} P_2(k) sigma^{lin}_{P_2(k)} P^img_3(k) sigma^{lin}_{P_3(k)} P_4(k) sigma^{lin}_{P_4(k)} N_modes
### header ###
0.00050000 0 0 0 0 0 0 0 0 0 0 0 0
0.00150000 0.00179520 3707.15044676 0 -8874.89754052 0 16888.56065236 0 -41519.70713441 0 25803.85945083 0 3
0.00250000 0.00253879 27573.14455651 0 -22460.48509425 0 -1949.99230921 0 -34418.94988066 0 17139.66798157 0 6
0.00350000 0.00331552 29389.22394138 0 -20726.46046656 0 -43325.57086679 0 15130.04042782 0 -30784.04496776 0 7
0.00450000 0.00420575 45676.92847355 0 -16968.96772366 0 -16762.45775913 0 -23415.04445157 0 -4159.94551314 0 24
0.00550000 0.00557378 66907.58082159 0 6721.80048427 0 -6438.84887915 0 -24052.14966129 0 -13248.82252754 0 45
0.00650000 0.00659388 64225.03835150 0 9882.58927541 0 23835.53388998 0 -8132.65898662 0 15360.60660630 0 40
0.00750000 0.00754703 68621.06429855 0 3446.00321821 0 36669.68880257 0 -24590.72325495 0 -5147.74418709 0 57
0.00850000 0.00846663 57694.92964334 0 382.16865851 0 49960.25270592 0 14718.88787610 0 -1603.31919855 0 75
0.00950000 0.00948925 53990.71207746 0 7228.17829570 0 58326.10318387 0 8785.90053346 0 865.63484844 0 112
0.01050000 0.01054430 60588.81528990 0 5430.20148644 0 50600.54344168 0 9340.87409399 0 15755.17245342 0 105
0.01150000 0.01145670 57661.31685124 0 -5997.14823108 0 48228.75452992 0 33696.82407916 0 14893.65242587 0 144
0.01250000 0.01249090 69610.22505950 0 -9752.97131895 0 36614.54624821 0 20067.60580313 0 20297.84244444 0 169
0.01350000 0.01339930 76589.27324906 0 -3086.42323476 0 11893.21642527 0 19092.61514081 0 3179.44059538 0 180
0.01450000 0.01448870 75843.64046224 0 2730.16059223 0 31298.45250175 0 -10479.26027346 0 2680.30161728 0 267
0.01550000 0.01550050 70344.32404512 0 10401.81903676 0 19817.59693118 0 -11193.82868902 0 18385.53820375 0 238
0.01650000 0.01653350 71120.60378944 0 -7376.01965807 0 21544.15204951 0 13313.74135149 0 -5065.12921670 0 315
0.01750000 0.01747870 76449.65933155 0 -7578.67403763 0 10020.88504421 0 14486.12478310 0 -15000.31262563 0 297
0.01850000 0.01844180 82796.32567760 0 446.17905831 0 244.38257388 0 -4285.54311603 0 -15948.94031376 0 388
0.01950000 0.01947590 77374.78003435 0 3819.08324136 0 271.56280027 0 -3655.14948016 0 -6395.73443177 0 399
0.02050000 0.02045430 75617.46811279 0 2186.06175856 0 6539.52248686 0 -1190.95834384 0 -7866.51377755 0 462
0.02150000 0.02154770 67771.51745511 0 3212.69089658 0 7005.31230260 0 1113.51710714 0 -8614.32150974 0 571
0.02250000 0.02255340 67364.09965807 0 2073.75548849 0 10859.68897567 0 -5879.87693420 0 -12699.92343565 0 510
0.02350000 0.02348930 63063.41980102 0 556.57401275 0 7559.40709732 0 753.78443813 0 -2603.93686870 0 555
0.02450000 0.02439640 60449.97029247 0 2366.13185688 0 9041.95092033 0 6013.28456820 0 343.24262865 0 592
0.02550000 0.02547300 67081.13706838 0 -1435.27720720 0 5438.03348669 0 3350.89878880 0 -867.49563504 0 837
0.02650000 0.02652900 60895.50455637 0 1219.56217084 0 1927.38605884 0 2550.27723164 0 4575.62370876 0 723
0.02750000 0.02749970 61758.89196126 0 1428.29101903 0 4400.67242126 0 2198.00198895 0 9650.01292015 0 826
0.02850000 0.02848090 58797.89057624 0 -983.01489259 0 7375.52535231 0 -722.41469576 0 5204.94085652 0 831
0.02950000 0.02946900 60193.48052270 0 3683.85216831 0 11239.63435668 0 -6316.39286401 0 5961.30557075 0 996
0.03050000 0.03053250 55385.09372094 0 2261.16328130 0 12095.77194367 0 -1138.44110233 0 4935.84079742 0 1041
0.03150000 0.03150510 54131.97368086 0 -424.23847304 0 13924.15404984 0 3509.38420201 0 11985.70652641 0 1036
0.03250000 0.03246190 60049.25308470 0 -843.27355404 0 16140.40141385 0 1063.25829375 0 3468.02728624 0 1059
0.03350000 0.03345080 56597.13145956 0 24.17968055 0 14832.90773949 0 -881.67342287 0 2270.20358453 0 1302
0.03450000 0.03451200 54668.35036001 0 2835.39279756 0 22885.14867024 0 -3718.91492399 0 5320.70726695 0 1339
0.03550000 0.03553350 51371.77028262 0 4750.25644366 0 22105.02432552 0 -8288.36530296 0 -510.63543176 0 1365
0.03650000 0.03647120 50195.87178779 0 1839.36667875 0 30422.43283838 0 -410.89331581 0 -45.32432369 0 1308
0.03750000 0.03744890 47793.43591852 0 1395.49108531 0 33074.21850525 0 6703.23655661 0 875.30786306 0 1579
0.03850000 0.03847530 47763.88741828 0 565.36167082 0 28750.80058296 0 839.43664284 0 2884.16429982 0 1662
0.03950000 0.03950240 44944.80671100 0 57.47348066 0 25681.05192937 0 5200.84361094 0 1488.78306024 0 1683
0.04050000 0.04050350 44106.57397732 0 758.63742230 0 25357.00703822 0 5195.36230923 0 6731.67561502 0 1822
0.04150000 0.04152450 43557.01581107 0 66.55266928 0 19989.28580063 0 4858.93780478 0 7752.93329706 0 1887
0.04250000 0.04250150 43993.43287973 0 -1127.48948347 0 17560.04757426 0 6708.47619773 0 12877.87351146 0 1920
0.04350000 0.04349210 44045.71944522 0 493.88286012 0 13384.59184464 0 735.27982716 0 4400.44174523 0 2005
0.04450000 0.04448520 43748.25721972 0 1241.91577605 0 12197.59893150 0 -2395.81217200 0 7419.41970434 0 2151
0.04550000 0.04548030 42270.06328744 0 665.14552815 0 15366.31858404 0 -235.85525018 0 5359.37296244 0 2274
0.04650000 0.04648670 40419.49234467 0 736.52877307 0 14372.43445688 0 -3482.23033858 0 543.87145302 0 2311
0.04750000 0.04749250 38247.40296243 0 2268.23734604 0 15937.29666682 0 1395.77668419 0 3481.09892761 0 2568
0.04850000 0.04851840 39472.95172533 0 -123.12058178 0 19329.22283421 0 -518.38504772 0 2962.39642574 0 2493
0.04950000 0.04949480 37847.23498329 0 646.77712588 0 15781.20589044 0 2571.35662642 0 1137.17787648 0 2644
0.05050000 0.05050630 38934.59782312 0 294.93797072 0 17605.96308765 0 2867.14919689 0 1499.08658932 0 2829
0.05150000 0.05149060 36635.30709039 0 -187.67801330 0 17285.65295118 0 631.64368023 0 4790.75656276 0 2784
0.05250000 0.05249300 38127.56127557 0 -90.72455078 0 16744.66275155 0 -498.41179939 0 4102.89164315 0 3055
0.05350000 0.05348950 37934.67218104 0 192.22892172 0 14354.30991212 0 -472.04772674 0 2551.48553462 0 3009
0.05450000 0.05448610 36595.76262910 0 437.56715341 0 15869.74154544 0 109.01485274 0 599.47755634 0 3336
0.05550000 0.05550870 36522.82506716 0 1803.64484871 0 17438.22866433 0 -2293.27118695 0 -1868.35496579 0 3349
0.05650000 0.05647670 34651.38343648 0 1858.55672705 0 18158.15755132 0 -1380.06874540 0 -2605.49667800 0 3324
0.05750000 0.05747970 33105.52453710 0 86.63093012 0 19232.44874977 0 142.70058240 0 -3675.29518627 0 3639
0.05850000 0.05849280 33779.64775642 0 -141.73723539 0 17414.28229611 0 3142.70818467 0 -5271.58425837 0 3846
0.05950000 0.05951020 33248.65351784 0 -258.73941024 0 16073.83490401 0 2651.35726853 0 -4273.61387021 0 3787
0.06050000 0.06049470 32862.65563733 0 910.74958649 0 14280.16404720 0 1213.81723938 0 -2792.30031932 0 3930
0.06150000 0.06148310 32415.91307045 0 242.78102319 0 13833.97070894 0 -1031.63480775 0 -4929.98602023 0 4083
0.06250000 0.06249100 31573.39635346 0 -136.73046721 0 12313.92555514 0 425.46435134 0 -1277.41791463 0 4303
0.06350000 0.06350600 32109.44349543 0 -1270.67338706 0 11962.08969536 0 4452.19006666 0 -2091.75920295 0 4470
0.06450000 0.06451750 33128.48229380 0 65.56702358 0 9201.97417370 0 1208.17116908 0 -2466.39903541 0 4479
0.06550000 0.06550280 31915.45594364 0 1291.03878463 0 10046.68780520 0 -1252.90034863 0 -4359.60110437 0 4636
0.06650000 0.06648880 31573.72589064 0 1833.86340788 0 11376.83166822 0 -1873.08931657 0 -1107.33279278 0 4653
0.06750000 0.06749660 30381.78991983 0 -801.02139561 0 12049.63673883 0 -1387.04394899 0 -1089.13025756 0 5220
0.06850000 0.06852730 29373.73569404 0 -228.14737560 0 11883.33030995 0 2223.14567559 0 -3315.13302048 0 5029
0.06950000 0.06949320 30765.92042300 0 1018.61149850 0 12257.02546917 0 767.05599873 0 -3304.52192336 0 5040
0.07050000 0.07048030 29179.74814226 0 791.25281521 0 10850.33011983 0 954.86912227 0 -958.67857204 0 5475
0.07150000 0.07148790 29418.99213308 0 395.44461293 0 11587.18623316 0 439.43672766 0 27.67233525 0 5509
0.07250000 0.07249820 28161.14872679 0 119.50006666 0 10300.22272495 0 825.53896161 0 -1177.11778239 0 5916
0.07350000 0.07351270 27202.85461479 0 868.83245752 0 10074.27006695 0 687.53098861 0 -166.26029368 0 5721
0.07450000 0.07449140 26355.94406877 0 705.81590813 0 10573.33215304 0 849.92581120 0 2491.86127465 0 6028
0.07550000 0.07549160 25834.61625406 0 -86.42101494 0 9911.90709963 0 895.57439947 0 -150.05804912 0 6183
0.07650000 0.07648840 25329.87514395 0 887.37221912 0 9066.57833206 0 -165.61330235 0 1087.46060252 0 6330
0.07750000 0.07749960 24952.99445868 0 200.59477219 0 9549.51506560 0 527.99435181 0 2510.41421774 0 6583
0.07850000 0.07848650 24184.29406944 0 44.04363238 0 9083.87903388 0 657.87154418 0 3269.12963051 0 6549
0.07950000 0.07947320 24760.76443851 0 397.93261862 0 9656.74646314 0 313.13611212 0 -27.56347813 0 6828
0.08050000 0.08048110 23909.67975491 0 561.43468612 0 9246.35184693 0 -866.26975674 0 3265.13124609 0 7147
0.08150000 0.08149960 23547.18885972 0 -187.68460404 0 9166.85649516 0 798.34665218 0 762.45016744 0 7386
0.08250000 0.08250610 23446.78986633 0 217.98884288 0 9887.86187025 0 284.17968034 0 1523.25264900 0 7227
0.08350000 0.08350160 23075.29162163 0 433.19419506 0 9669.67530507 0 -433.39850811 0 1146.18522600 0 7798
0.08450000 0.08449610 23277.18806567 0 145.59282036 0 8915.25486018 0 1029.83004248 0 266.00790192 0 7371
0.08550000 0.08548940 22709.83489185 0 -71.43498226 0 8324.97688338 0 534.58839073 0 890.82357183 0 8256
0.08650000 0.08650700 22590.43258789 0 213.09192042 0 7576.46613854 0 249.12900769 0 -2083.05942146 0 8037
0.08750000 0.08749060 22293.40974529 0 301.60121245 0 8169.50124306 0 320.88023579 0 636.82070929 0 8155
0.08850000 0.08849210 21367.52012241 0 203.37826289 0 5570.65023147 0 1492.62766064 0 20.40351403 0 8718
0.08950000 0.08949900 21368.72842539 0 -384.55121230 0 6041.94331807 0 124.78035070 0 -620.52509586 0 8571
0.09050000 0.09049190 21697.71637420 0 833.72246818 0 5531.72090624 0 137.78169080 0 -1052.96794616 0 8932
0.09150000 0.09150830 20353.86376460 0 931.85534425 0 6386.78200512 0 -1127.73114406 0 -1137.95778114 0 9285
0.09250000 0.09250820 18925.32010040 0 753.19127121 0 7225.28935311 0 -1678.62942816 0 229.17223622 0 9204
0.09350000 0.09350330 18825.69002708 0 331.38038872 0 8112.44737307 0 1090.06504468 0 -939.22159862 0 9349
0.09450000 0.09448040 18749.56693909 0 51.47656311 0 7370.54934093 0 840.63396125 0 -241.59249244 0 9564
0.09550000 0.09549270 18618.30129675 0 34.68104178 0 7619.99799968 0 393.07743754 0 -544.15815036 0 10155
0.09650000 0.09649430 17935.71995654 0 222.41123180 0 7320.49264367 0 -45.88947995 0 1177.50224243 0 9913
0.09750000 0.09749140 17684.17324443 0 563.25263288 0 7031.02718701 0 473.12751022 0 760.02587227 0 10476
0.09850000 0.09850240 17406.92263248 0 159.60254424 0 7612.18796857 0 -681.27417607 0 629.62142042 0 10575
0.09950000 0.09950330 17015.54231140 0 420.56413351 0 7388.97046915 0 648.10955453 0 -516.21559463 0 10882
0.10050000 0.10051200 16712.14841671 0 21.01019198 0 6912.45971057 0 -35.05517632 0 -262.17648300 0 10875
0.10150000 0.10150300 16578.13663121 0 -118.39062482 0 6903.43039191 0 640.79602611 0 348.21204929 0 11118
0.10250000 0.10250800 16521.23654524 0 136.50088964 0 6488.14764090 0 397.32627021 0 -542.48300304 0 11575
0.10350000 0.10349800 16831.55072067 0 -107.40363564 0 5371.76356031 0 264.42282809 0 -149.33746116 0 11364
0.10450000 0.10450100 16127.65930965 0 -214.56605006 0 5131.12452877 0 1116.13143542 0 -643.10937709 0 12093
0.10550000 0.10551000 16815.18370752 0 140.54431081 0 4794.40344086 0 594.30821648 0 -263.31338626 0 12067
0.10650000 0.10649700 16326.26038192 0 478.67471938 0 5077.94821290 0 -931.45989964 0 -570.94183369 0 12054
0.10750000 0.10749900 15770.66070076 0 636.88332135 0 5477.62188628 0 -841.84555960 0 -870.88217877 0 12807
0.10850000 0.10850100 15229.67050113 0 440.59669852 0 6197.71554185 0 -596.92913550 0 -667.57202023 0 12736
0.10950000 0.10950300 14830.05175062 0 200.24436433 0 6689.28614943 0 141.41099358 0 -1044.59550494 0 12933
0.11050000 0.11050200 14658.47272690 0 -2.23000005 0 5969.64286134 0 564.25552436 0 -237.38869651 0 13428
0.11150000 0.11150900 14763.81477795 0 17.77578458 0 6342.37137817 0 741.82553396 0 -1310.15194092 0 13453
0.11250000 0.11250000 14279.17543567 0 304.96139320 0 5683.51671474 0 -209.73283812 0 -352.90356024 0 13668
0.11350000 0.11349100 14216.34368050 0 139.14048243 0 5536.18064271 0 459.32209940 0 -471.33702489 0 13791
0.11450000 0.11448600 14040.15113630 0 -69.31111515 0 5229.23873107 0 800.77204581 0 342.00796269 0 14205
0.11550000 0.11549300 13911.74148282 0 -30.72187229 0 5104.35512539 0 627.25754040 0 -154.75065853 0 14776
0.11650000 0.11649800 14043.55635380 0 107.95550056 0 4168.82104778 0 301.52432044 0 407.73854656 0 14553
0.11750000 0.11747300 13759.16576966 0 177.09327916 0 4491.94323483 0 -410.98009393 0 55.27085417 0 14568
0.11850000 0.11849100 13653.16464425 0 98.00556487 0 4706.64769051 0 -206.55170591 0 -495.14608596 0 16015
0.11950000 0.11950300 13727.85973781 0 252.85167934 0 5189.65033148 0 -455.64116913 0 -396.46727664 0 15270
0.12050000 0.12050700 13500.47908537 0 32.17677893 0 4770.32525776 0 -376.33804738 0 -1251.40644676 0 15999
0.12150000 0.12150000 13668.43320014 0 -2.91273517 0 5321.17960357 0 22.89668247 0 -1150.75480819 0 15670
0.12250000 0.12250700 13383.49338738 0 -161.93676591 0 4602.85446419 0 859.59003815 0 -1419.41548439 0 16887
0.12350000 0.12352200 13791.46041305 0 -145.72683215 0 4500.51120145 0 573.25298776 0 -668.99781775 0 16407
0.12450000 0.12449800 13741.81014499 0 278.11180244 0 3918.71331468 0 705.10850165 0 -799.92293835 0 16306
0.12550000 0.12549900 13912.07102000 0 75.16907786 0 3817.77607723 0 347.87042908 0 133.23517621 0 17523
0.12650000 0.12650100 13185.22185229 0 3.19386334 0 3222.62095020 0 86.29831726 0 553.83006652 0 17154
0.12750000 0.12750600 13239.70533229 0 284.55645118 0 3578.66390128 0 68.08402855 0 -81.81814949 0 18007
0.12850000 0.12850300 12841.62442195 0 367.07256041 0 3573.28146071 0 -660.74291146 0 -7.58357316 0 17496
0.12950000 0.12949900 12379.39360772 0 206.48250310 0 3693.37579274 0 263.35842301 0 213.05017904 0 18405
0.13050000 0.13049000 12257.13531489 0 69.35472390 0 3334.80638997 0 262.25117809 0 26.39285223 0 18100
0.13150000 0.13148800 12189.58019352 0 -34.11193108 0 3334.13633104 0 498.03063472 0 248.26232491 0 19059
0.13250000 0.13249300 12216.05301344 0 -8.96279609 0 3291.65898887 0 134.51048509 0 112.13930457 0 18957
0.13350000 0.13349100 12366.76134925 0 -1.78669565 0 2872.56459117 0 -30.41957685 0 -296.34289756 0 19468
0.13450000 0.13450700 12067.87112932 0 244.30018958 0 3032.79655142 0 -231.50206407 0 -318.72396419 0 19953
0.13550000 0.13551000 12084.23814246 0 116.12780287 0 3597.37062838 0 -298.09273997 0 -183.92788022 0 19956
0.13650000 0.13649900 11919.46955374 0 123.36883312 0 3430.66875489 0 -177.75345197 0 -141.66363875 0 19723
0.13750000 0.13749600 11743.60654671 0 58.51536737 0 3568.93156997 0 285.04526466 0 7.25316820 0 20946
0.13850000 0.13851100 11590.70129638 0 50.89877459 0 3718.59637139 0 264.54146148 0 24.08949721 0 20955
0.13950000 0.13949800 11476.57158726 0 223.12632747 0 3545.55639952 0 100.76565843 0 180.32823578 0 20506
0.14050000 0.14048300 11547.64177186 0 260.65292278 0 3911.25478989 0 -147.52500668 0 725.23443554 0 21447
0.14150000 0.14148400 11144.94734103 0 91.17722502 0 3679.74393817 0 139.82042747 0 669.70192885 0 21771
0.14250000 0.14249400 10957.60545566 0 103.24894075 0 3795.32361087 0 124.30471870 0 990.40531302 0 22470
0.14350000 0.14350900 10773.32826603 0 40.29987035 0 3937.17838119 0 382.03244981 0 1144.55950926 0 22519
0.14450000 0.14449900 10872.68372503 0 106.40546753 0 3748.03502591 0 -26.85310582 0 1140.49521740 0 22218
0.14550000 0.14550500 10732.43270231 0 114.61852260 0 3601.62165797 0 32.33286970 0 969.19300491 0 23559
0.14650000 0.14650700 10683.96876808 0 91.50577359 0 3648.00950798 0 -30.78327605 0 649.11134755 0 23044
0.14750000 0.14750500 10346.23709950 0 346.46330533 0 3897.01878383 0 -147.58652029 0 865.92813653 0 23649
0.14850000 0.14849900 10226.10981375 0 198.16388628 0 3997.01134804 0 -124.78254761 0 896.21699697 0 23640
0.14950000 0.14949500 9995.78529586 0 -149.37261179 0 3605.02687547 0 661.63156338 0 784.96744278 0 24457
0.15050000 0.15050000 10123.78852015 0 -16.25266375 0 3912.66081518 0 461.75847760 0 1040.09512555 0 24591
0.15150000 0.15149900 9873.42814188 0 239.89098215 0 3001.20492067 0 -266.67686239 0 1033.38465016 0 25020
0.15250000 0.15250500 9720.59978355 0 241.21682006 0 3573.94053507 0 -7.51433740 0 1107.01424018 0 25297
0.15350000 0.15350100 9419.01834333 0 183.80155763 0 3448.17816358 0 -225.14968574 0 860.70277535 0 25452
0.15450000 0.15450400 9250.98733656 0 108.84371310 0 3621.20715088 0 188.28326325 0 1161.62953505 0 26061
0.15550000 0.15549900 9347.48680668 0 -58.40343457 0 3404.88796304 0 88.16767182 0 908.82069555 0 26128
0.15650000 0.15649500 9278.14119998 0 -47.06570799 0 3288.23180223 0 254.55209117 0 652.87795749 0 26331
0.15750000 0.15749700 9415.15177378 0 78.19543745 0 3208.06639153 0 186.51584552 0 920.84221178 0 27345
0.15850000 0.15849900 9421.64365618 0 -3.22273080 0 3142.47750864 0 -129.30160077 0 574.61617322 0 26980
0.15950000 0.15949700 9104.34329259 0 178.91122592 0 3478.57247591 0 -233.56386834 0 434.74961054 0 27777
0.16050000 0.16050000 8982.18386092 0 252.15306052 0 3499.32233352 0 -372.16940209 0 331.28701985 0 28224
0.16150000 0.16150500 9022.84874861 0 1.98970154 0 3340.39753741 0 215.25368430 0 378.10766202 0 28075
0.16250000 0.16249700 8960.95068212 0 -78.03923683 0 3375.84475313 0 438.72053353 0 46.97585418 0 28590
0.16350000 0.16349900 8842.39419025 0 99.05173557 0 2769.52930036 0 350.37491163 0 381.17345623 0 29163
0.16450000 0.16449100 8926.03072588 0 -52.46528448 0 2727.48035652 0 293.23536197 0 827.76004218 0 28996
0.16550000 0.16550500 8893.47245275 0 0.66320895 0 2504.60337884 0 429.23425665 0 435.82500019 0 30777
0.16650000 0.16650700 8843.17409490 0 115.45664549 0 2364.60500130 0 -32.18886196 0 631.91609763 0 29211
0.16750000 0.16749900 8643.81508712 0 160.37256277 0 2563.59053361 0 -687.62325902 0 -56.74696103 0 30922
0.16850000 0.16850800 8425.09027788 0 218.82147348 0 2850.40870828 0 -238.01591561 0 -91.61759653 0 30867
0.16950000 0.16949900 8460.20795642 0 92.97572909 0 2916.16235975 0 -43.98310738 0 -375.94040585 0 30852
0.17050000 0.17049200 8350.15352373 0 -84.90569315 0 2851.88064100 0 47.49168971 0 -381.89843802 0 31257
0.17150000 0.17149500 8393.32289398 0 -15.33204672 0 2657.08023085 0 306.12685635 0 -469.67615752 0 32608
0.17250000 0.17250900 8343.69459505 0 80.34863337 0 2581.11092687 0 156.69602633 0 -429.86916494 0 32361
0.17350000 0.17350400 8217.80040870 0 105.08534159 0 2496.63956372 0 128.35473061 0 -108.60205251 0 32508
0.17450000 0.17449800 8140.30424914 0 91.00169155 0 2264.55751422 0 159.04672486 0 -419.52389448 0 32791
0.17550000 0.17549800 8094.74024207 0 153.28861192 0 2431.06166541 0 77.70398767 0 14.99020682 0 33633
0.17650000 0.17650100 8040.28971579 0 -28.96159453 0 2097.82268701 0 140.52234166 0 -205.75971822 0 33984
0.17750000 0.17750300 8004.26031772 0 40.69465589 0 1937.23922045 0 300.93225198 0 -28.82692367 0 34069
0.17850000 0.17849800 7858.17648696 0 -12.41663131 0 1851.10918684 0 72.81134920 0 -267.82584868 0 34536
