### header ###
fiducial parameters:
Omega_m = 0.31
Omega_nu = 0
Omega_de = 0.69
Omega_k = 0
H_0 = 100
w_de = -1
zeff = 0
beta = 0
fgrowth = 0
b_1 = 2
gamma = 0.55
Lx = 3500 Ly = 3500 Lz = 3500
nx = 700 ny = 700 nz = 700
xoffset = -983.599254 yoffset = -42.9823471 zoffset = 800.977702
bins = 400 dk = 0.001
kx_ny = 0.628318531 ky_ny = 0.628318531 kz_ny = 0.628318531
############################
A(data) = 9.04021339 (not used)
A(ran) = 9.02375452 (used)
Ngal = 501624
weighted Ngal = 0
Nran = 25229228
weighted Nran = 0
SN(data) = 6772.76555
SN(ran) = 133.951419
SN(data+ran) = 6906.71697
############################
13 columns: k_central k_mean P_0(k) sigma^{lin}_{P_0(k)} P^img_1(k) sigma^{lin}_{P_1(k)} P_2(k) sigma^{lin}_{P_2(k)} P^img_3(k) sigma^{lin}_{P_3(k)} P_4(k) sigma^{lin}_{P_4(k)} N_modes
### header ###
0.00050000 0 0 0 0 0 0 0 0 0 0 0 0
0.00150000 0.00179520 22415.00896376 0 -21933.99453043 0 -19613.94295552 0 -24505.92235462 0 -76521.27874478 0 3
0.00250000 0.00253879 37715.52995804 0 -33774.92439021 0 -37984.32244911 0 66826.07529304 0 33491.85195479 0 6
0.00350000 0.00331552 72943.05422641 0 -25866.80105172 0 18410.91256641 0 -56789.03194256 0 -14402.75187721 0 7
0.00450000 0.00420575 66616.26995673 0 12769.34593436 0 4292.00204471 0 -30154.84865030 0 33264.80083953 0 24
0.00550000 0.00557378 50822.76134500 0 -6508.07365556 0 -5204.89691823 0 19610.86727520 0 -13777.07062297 0 45
0.00650000 0.00659388 64877.19242566 0 -11818.96071462 0 4897.02131792 0 8716.97234051 0 -939.58518798 0 40
0.00750000 0.00754703 83222.08771085 0 13197.30488213 0 17459.31904369 0 -27063.46038874 0 -32423.60227125 0 57
0.00850000 0.00846663 60919.34107887 0 12046.23152133 0 20257.52906306 0 -26802.13740703 0 37726.95391353 0 75
0.00950000 0.00948925 59556.59500443 0 -4721.99313840 0 46520.87318497 0 -1879.24067722 0 -26871.45006001 0 112
0.01050000 0.01054430 69566.83599781 0 -2050.36933346 0 41319.01899335 0 9260.67572957 0 -8381.62432418 0 105
0.01150000 0.01145670 70023.68437147 0 -1226.66918930 0 39586.75189727 0 825.70153328 0 -25584.27784493 0 144
0.01250000 0.01249090 75686.89061150 0 4437.25104795 0 39233.92742596 0 17258.19151973 0 6107.34546322 0 169
0.01350000 0.01339930 72260.91226911 0 -6062.68219110 0 41584.62595837 0 9303.71328495 0 20273.56653903 0 180
0.01450000 0.01448870 77364.67422758 0 -929.30692341 0 28249.13515317 0 17228.97255666 0 3003.12722088 0 267
0.01550000 0.01550050 88303.55098698 0 1020.38331006 0 22565.27791668 0 9932.97550984 0 14077.38883735 0 238
0.01650000 0.01653350 82155.48571320 0 2505.40525264 0 24115.86018226 0 297.50176996 0 8790.76669912 0 315
0.01750000 0.01747870 81081.41420620 0 -5945.68550854 0 25161.81118345 0 -14243.03619187 0 -13382.94415875 0 297
0.01850000 0.01844180 85526.10180979 0 5673.32303138 0 31288.56638642 0 -90.33844306 0 307.51310941 0 388
0.01950000 0.01947590 76707.46725004 0 -3460.90928320 0 25727.18713422 0 -4689.23714297 0 -4552.44626061 0 399
0.02050000 0.02045430 76570.92901285 0 2089.58425758 0 17782.81470621 0 -6935.79094273 0 -29140.53321814 0 462
0.02150000 0.02154770 74018.77341930 0 10782.09395495 0 36333.12149868 0 -3113.63202104 0 -21605.66565597 0 571
0.02250000 0.02255340 69331.10707021 0 2065.35229046 0 35277.17453644 0 -2388.46349294 0 -17425.48656014 0 510
0.02350000 0.02348930 69458.30842070 0 -3168.00565532 0 32136.46554398 0 9745.62263989 0 -22864.05829089 0 555
0.02450000 0.02439640 66071.32531097 0 -1734.67271747 0 25640.07947365 0 7361.39919197 0 -18884.45749039 0 592
0.02550000 0.02547300 64675.07629016 0 5731.60717350 0 24737.25745318 0 1757.67441246 0 -14338.38228188 0 837
0.02650000 0.02652900 62094.47065362 0 4427.61757780 0 31059.31835665 0 -2352.95036979 0 -8985.31446410 0 723
0.02750000 0.02749970 59607.01419258 0 889.74818217 0 31677.74979298 0 1325.95874087 0 -15280.96845508 0 826
0.02850000 0.02848090 53963.69002891 0 945.79366840 0 32099.77707156 0 3883.20019152 0 -2145.73739261 0 831
0.02950000 0.02946900 54417.57256797 0 572.40827413 0 31205.41317198 0 -1422.74380988 0 -2769.60619237 0 996
0.03050000 0.03053250 56690.39048078 0 496.06549469 0 27449.67796070 0 5429.94884127 0 -8351.57053360 0 1041
0.03150000 0.03150510 58136.39961539 0 -1458.24594846 0 30602.25029154 0 7236.40574056 0 -5127.33485123 0 1036
0.03250000 0.03246190 57667.57805762 0 -128.46677325 0 25264.29724564 0 -4821.63419629 0 -12482.53874426 0 1059
0.03350000 0.03345080 58229.10940797 0 2166.38838907 0 27596.21215893 0 -2436.25736824 0 -1207.76473989 0 1302
0.03450000 0.03451200 53478.28176654 0 -144.37902509 0 28632.60658198 0 3963.69513940 0 -9775.58855390 0 1339
0.03550000 0.03553350 56745.31334369 0 1903.94498095 0 28971.48064612 0 386.51854925 0 -9765.20813281 0 1365
0.03650000 0.03647120 52047.54118782 0 1988.91064987 0 27803.93042644 0 447.60375737 0 -4952.43848659 0 1308
0.03750000 0.03744890 52761.42855989 0 494.45625480 0 27995.39152654 0 4569.65908585 0 230.89351875 0 1579
0.03850000 0.03847530 50557.48391716 0 256.42715771 0 26134.60493126 0 7231.38579090 0 -2177.53773024 0 1662
0.03950000 0.03950240 52125.20211597 0 125.29223178 0 23967.23891523 0 2564.37043826 0 2320.13945149 0 1683
0.04050000 0.04050350 49237.90721297 0 2797.11156211 0 24594.45800963 0 -612.51953937 0 5719.79875798 0 1822
0.04150000 0.04152450 45334.86888336 0 2076.30390933 0 28236.39304897 0 -1424.61118722 0 9312.24829784 0 1887
0.04250000 0.04250150 45175.48273521 0 -155.29549333 0 23829.60222079 0 4405.11018858 0 7158.17361464 0 1920
0.04350000 0.04349210 43113.45877024 0 1148.81053885 0 26233.02670159 0 5362.43765819 0 5330.37369082 0 2005
0.04450000 0.04448520 42412.42334810 0 2038.68174823 0 24336.86978259 0 -786.27790229 0 10827.85568433 0 2151
0.04550000 0.04548030 40466.61616104 0 149.36821796 0 23952.40974225 0 2847.73945714 0 10579.32972967 0 2274
0.04650000 0.04648670 39771.18287091 0 77.01009222 0 23568.71862198 0 1922.17937144 0 6165.56369790 0 2311
0.04750000 0.04749250 38601.43573673 0 2695.52623488 0 20503.69333461 0 3104.71254811 0 9068.22601795 0 2568
0.04850000 0.04851840 36265.45653158 0 413.39560144 0 19713.13364593 0 1380.09071455 0 8842.53698969 0 2493
0.04950000 0.04949480 36547.10097256 0 -500.88662359 0 16025.17324747 0 2538.73244585 0 11162.19311998 0 2644
0.05050000 0.05050630 36287.31583102 0 -623.53377029 0 14279.28528139 0 4594.95655650 0 7776.56111268 0 2829
0.05150000 0.05149060 35732.37522421 0 -514.07470144 0 9551.40441208 0 2921.14935570 0 6878.34162813 0 2784
0.05250000 0.05249300 37216.94020857 0 334.68015432 0 10330.04583951 0 783.06491481 0 7504.57211099 0 3055
0.05350000 0.05348950 35250.15248789 0 369.66601799 0 7565.05316763 0 -628.69981478 0 6345.23835161 0 3009
0.05450000 0.05448610 35821.56995357 0 464.13553911 0 9134.03459228 0 -552.22412201 0 5046.64218105 0 3336
0.05550000 0.05550870 35769.06369663 0 258.46589438 0 8206.56319095 0 -509.77533973 0 971.64366305 0 3349
0.05650000 0.05647670 34416.53327469 0 858.31033545 0 11375.62336524 0 -1059.94095284 0 1396.50166598 0 3324
0.05750000 0.05747970 34158.17612757 0 554.53088225 0 10387.94552159 0 -400.65239879 0 2252.73811413 0 3639
0.05850000 0.05849280 33360.69615817 0 412.36305162 0 11876.30018350 0 -340.70958621 0 2366.20874889 0 3846
0.05950000 0.05951020 32335.50599915 0 1104.71846451 0 10801.17415753 0 1400.20346694 0 238.08511841 0 3787
0.06050000 0.06049470 33551.60802963 0 -560.04623615 0 11654.96104598 0 230.01145757 0 1045.55006430 0 3930
0.06150000 0.06148310 32427.00748875 0 193.72062667 0 11873.22450317 0 387.35557368 0 353.01340596 0 4083
0.06250000 0.06249100 32162.60882672 0 994.15764302 0 11355.19206024 0 -1890.53281783 0 334.34402640 0 4303
0.06350000 0.06350600 30983.74449729 0 392.87971523 0 12341.49683232 0 -553.44340957 0 -301.05527919 0 4470
0.06450000 0.06451750 31364.79932014 0 467.47155380 0 12278.55523143 0 395.46328670 0 -4204.25727893 0 4479
0.06550000 0.06550280 30840.39582511 0 1115.75795995 0 13254.31481383 0 641.08601882 0 -1075.68294380 0 4636
0.06650000 0.06648880 29227.86057016 0 -576.99213627 0 12184.85682731 0 1466.80293050 0 138.02115448 0 4653
0.06750000 0.06749660 28810.22712062 0 -158.14928528 0 10798.99921215 0 2216.91742294 0 632.71467606 0 5220
0.06850000 0.06852730 28872.39980143 0 260.10149724 0 9271.50651814 0 2564.54619142 0 799.91744606 0 5029
0.06950000 0.06949320 28658.09079037 0 232.94873228 0 7493.96101388 0 33.48668921 0 1367.77700868 0 5040
0.07050000 0.07048030 29416.02629848 0 724.71376680 0 8316.36497847 0 13.84111068 0 2247.99277877 0 5475
0.07150000 0.07148790 27762.51858781 0 532.83305603 0 7310.78228151 0 -530.43292692 0 1401.03829446 0 5509
0.07250000 0.07249820 27478.23784941 0 -463.87190937 0 8379.07590334 0 314.68493685 0 1776.72166131 0 5916
0.07350000 0.07351270 27552.05417715 0 759.50080971 0 8441.39138359 0 965.08477477 0 1097.99920146 0 5721
0.07450000 0.07449140 26858.15872719 0 40.16849486 0 7854.99096091 0 123.65443201 0 2669.06439953 0 6028
0.07550000 0.07549160 27329.28704520 0 -158.56230521 0 7347.98702885 0 603.77581959 0 1241.87183776 0 6183
0.07650000 0.07648840 27019.96148131 0 423.03126851 0 7888.37307699 0 -14.05058648 0 1507.39092619 0 6330
0.07750000 0.07749960 26221.60274610 0 955.12725972 0 9387.78920348 0 -1321.66377299 0 2400.56849193 0 6583
0.07850000 0.07848650 25305.81893000 0 561.21169930 0 9236.21308643 0 415.00044749 0 3043.04515764 0 6549
0.07950000 0.07947320 25673.58242002 0 -429.09475257 0 8992.89381918 0 445.77482604 0 1937.67860335 0 6828
0.08050000 0.08048110 24797.12337375 0 422.37439107 0 8671.33144144 0 1481.84081037 0 2296.42375928 0 7147
0.08150000 0.08149960 25273.41444088 0 513.16957265 0 8488.89966001 0 459.70985482 0 2091.36375833 0 7386
0.08250000 0.08250610 24294.79886961 0 352.71023176 0 8163.86615733 0 -473.42738906 0 3417.87172783 0 7227
0.08350000 0.08350160 23334.52753455 0 336.37507387 0 7908.39795280 0 -75.52585678 0 2234.78932253 0 7798
0.08450000 0.08449610 23297.50952495 0 217.33416235 0 7885.60496469 0 1410.49601145 0 1057.44745486 0 7371
0.08550000 0.08548940 22837.58547097 0 481.66142466 0 7510.43787275 0 356.38566974 0 1632.79080678 0 8256
0.08650000 0.08650700 22161.48502859 0 681.66412839 0 6718.94449540 0 -899.58267001 0 450.14998130 0 8037
0.08750000 0.08749060 20952.85250746 0 173.45299180 0 7520.60958696 0 -6.46529973 0 1191.80415593 0 8155
0.08850000 0.08849210 21208.57335715 0 79.38792265 0 7683.32406061 0 221.96745507 0 -718.86338344 0 8718
0.08950000 0.08949900 20083.64327910 0 626.22608903 0 6925.36658335 0 -564.45764049 0 -861.21355798 0 8571
0.09050000 0.09049190 20215.78768725 0 1083.58304840 0 8239.27524810 0 -1554.81132603 0 -3366.49688187 0 8932
0.09150000 0.09150830 19143.14417468 0 209.01115171 0 8011.51013562 0 -172.25567339 0 -1350.33350742 0 9285
0.09250000 0.09250820 19304.39770018 0 -383.63509895 0 8207.32112646 0 1661.36168007 0 -2353.59845957 0 9204
0.09350000 0.09350330 19217.83926824 0 14.45108400 0 7790.20395183 0 685.68887579 0 -2580.69351312 0 9349
0.09450000 0.09448040 18843.15549749 0 874.68943162 0 8188.47159991 0 13.68699713 0 -1065.80012385 0 9564
0.09550000 0.09549270 18254.05286995 0 111.75813990 0 7730.18424724 0 191.02171719 0 47.89306599 0 10155
0.09650000 0.09649430 18153.98341373 0 38.13107634 0 7892.47032256 0 813.83599798 0 633.63847861 0 9913
0.09750000 0.09749140 17781.38671178 0 122.52741486 0 7013.92420750 0 926.70248125 0 1088.95999668 0 10476
0.09850000 0.09850240 17725.25554588 0 112.83682493 0 6898.98164001 0 1332.14305523 0 2325.07152458 0 10575
0.09950000 0.09950330 17724.04724290 0 100.67931969 0 6795.79256518 0 771.96500421 0 3446.44260111 0 10882
0.10050000 0.10051200 17728.33122621 0 -10.83663236 0 6064.87910562 0 865.16141337 0 4212.42980093 0 10875
0.10150000 0.10150300 17108.58164117 0 17.36177604 0 6179.19555247 0 -469.38836172 0 3060.70835035 0 11118
0.10250000 0.10250800 16950.29395027 0 644.31877853 0 5783.36647950 0 -395.02170688 0 2530.82355360 0 11575
0.10350000 0.10349800 16215.20635313 0 590.07366375 0 7074.89956990 0 -1031.45575922 0 2869.45595713 0 11364
0.10450000 0.10450100 15637.08829817 0 312.62752641 0 6685.71616334 0 596.99943677 0 2568.08322379 0 12093
0.10550000 0.10551000 15733.20330826 0 -88.84904486 0 6805.55785021 0 693.04963787 0 2628.82791017 0 12067
0.10650000 0.10649700 15385.43174033 0 -70.61190823 0 5925.32011097 0 274.73953866 0 1741.53807534 0 12054
0.10750000 0.10749900 15225.27667210 0 165.28596209 0 5549.90037386 0 727.49286366 0 2829.45014379 0 12807
0.10850000 0.10850100 15643.12981309 0 205.37086435 0 5365.38152364 0 329.40316565 0 2201.06668470 0 12736
0.10950000 0.10950300 15200.45153806 0 -45.35760695 0 5115.50446656 0 -78.71599635 0 2651.04970050 0 12933
0.11050000 0.11050200 15508.56879897 0 100.37032366 0 5112.52764739 0 239.75037962 0 1440.30814144 0 13428
0.11150000 0.11150900 15143.11206919 0 16.98280829 0 5149.98503989 0 331.07721452 0 2360.02443453 0 13453
0.11250000 0.11250000 14896.72810619 0 42.41396119 0 4675.22082835 0 42.84170044 0 2337.85756706 0 13668
0.11350000 0.11349100 15062.15576926 0 -146.18708574 0 4884.16936800 0 328.77374965 0 1543.42032426 0 13791
0.11450000 0.11448600 14859.81994232 0 217.50222631 0 3831.04544090 0 225.14419346 0 1105.56427659 0 14205
0.11550000 0.11549300 14722.29309360 0 378.17686483 0 4666.57596973 0 -922.21967718 0 159.30486232 0 14776
0.11650000 0.11649800 14488.54138907 0 493.07000175 0 5072.52183405 0 -872.80118360 0 532.13443722 0 14553
0.11750000 0.11747300 14207.22648526 0 143.39810276 0 5468.72438248 0 70.70560664 0 -362.13829040 0 14568
0.11850000 0.11849100 13812.99017531 0 -207.00646721 0 4641.58606711 0 523.49507088 0 -1406.19005900 0 16015
0.11950000 0.11950300 14007.96633863 0 2.05900321 0 4927.23987709 0 40.33414222 0 -1022.43962204 0 15270
0.12050000 0.12050700 13738.40492749 0 144.58553506 0 4297.73599160 0 309.38268367 0 -1156.26906363 0 15999
0.12150000 0.12150000 13824.30428507 0 155.38776374 0 3958.11497653 0 579.74596861 0 -359.25813547 0 15670
0.12250000 0.12250700 13529.25866554 0 231.42407360 0 4140.07442134 0 -79.40385028 0 -350.35074557 0 16887
0.12350000 0.12352200 13489.71420424 0 156.72788159 0 3988.64110373 0 125.21973360 0 -517.32503646 0 16407
0.12450000 0.12449800 13413.81080771 0 -114.17804124 0 3453.78029560 0 754.44900478 0 271.59795090 0 16306
0.12550000 0.12549900 13449.29097715 0 -150.50731814 0 3680.89731829 0 343.12509372 0 26.35198962 0 17523
0.12650000 0.12650100 13283.75346834 0 380.33203797 0 3833.67075375 0 -451.34070897 0 -122.20666534 0 17154
0.12750000 0.12750600 12916.20966977 0 215.49973873 0 3773.36545028 0 -431.95843065 0 582.15268847 0 18007
0.12850000 0.12850300 12876.11597985 0 -41.98138872 0 3807.94488477 0 737.09228164 0 238.40916331 0 17496
0.12950000 0.12949900 13021.44187510 0 -54.31519635 0 3769.58675731 0 -75.25267046 0 30.28853090 0 18405
0.13050000 0.13049000 12777.14498089 0 396.89897034 0 3620.55906110 0 96.51396976 0 272.58985781 0 18100
0.13150000 0.13148800 12493.19377966 0 361.82523009 0 4086.51364543 0 -446.70851471 0 24.72495473 0 19059
0.13250000 0.13249300 12285.69520360 0 -83.58293092 0 3950.81023576 0 -67.41836345 0 609.71078416 0 18957
0.13350000 0.13349100 11981.20285165 0 7.24911489 0 4037.81903518 0 286.20743244 0 -578.39266927 0 19468
0.13450000 0.13450700 11980.21424012 0 131.93020899 0 3514.66778142 0 441.00971845 0 395.68627353 0 19953
0.13550000 0.13551000 12002.95230536 0 69.45028968 0 3671.45058587 0 33.52843058 0 -278.22933737 0 19956
0.13650000 0.13649900 11921.55662253 0 78.52508448 0 3548.42337296 0 26.51565975 0 -157.28260251 0 19723
0.13750000 0.13749600 12102.47253295 0 100.68975503 0 3257.74961331 0 252.89232225 0 -239.79541637 0 20946
0.13850000 0.13851100 11626.95038590 0 127.45289720 0 3277.42298281 0 -277.62079205 0 -212.51193499 0 20955
0.13950000 0.13949800 11473.16636976 0 259.54567787 0 3355.32557155 0 -417.81799036 0 -611.10033259 0 20506
0.14050000 0.14048300 11200.19974111 0 228.54282021 0 3644.76905907 0 382.14009862 0 -551.51122325 0 21447
0.14150000 0.14148400 11081.23682006 0 -73.19602893 0 3515.21701005 0 574.05705847 0 -90.71993726 0 21771
0.14250000 0.14249400 11117.15637240 0 52.24372565 0 3192.75389735 0 29.46820302 0 -301.48807135 0 22470
0.14350000 0.14350900 10811.32390259 0 175.70263227 0 2996.72321506 0 113.13450684 0 10.39354765 0 22519
0.14450000 0.14449900 10854.50425741 0 -10.05189449 0 3039.27744924 0 291.42071058 0 481.69437838 0 22218
0.14550000 0.14550500 10509.56670921 0 84.06570289 0 2850.30984712 0 162.09384530 0 93.59822482 0 23559
0.14650000 0.14650700 10490.50847578 0 305.91046028 0 2985.12350642 0 -310.34712914 0 426.73197101 0 23044
0.14750000 0.14750500 10445.80126537 0 186.86735184 0 2791.56435296 0 253.99407488 0 270.79827402 0 23649
0.14850000 0.14849900 10256.18557347 0 -88.83860952 0 2895.18182612 0 199.42271830 0 312.21670339 0 23640
0.14950000 0.14949500 10034.16539246 0 192.62216941 0 2820.98103833 0 -6.68871495 0 -197.21701613 0 24457
0.15050000 0.15050000 9893.85944688 0 246.85300425 0 2715.90261702 0 -414.64125197 0 213.48736503 0 24591
0.15150000 0.15149900 9548.87796039 0 80.16310394 0 2817.24628365 0 138.71318256 0 200.92321091 0 25020
0.15250000 0.15250500 9678.56182428 0 -59.34635029 0 2907.14402566 0 329.69645374 0 139.21078370 0 25297
0.15350000 0.15350100 9684.75712322 0 9.85339228 0 2640.74617142 0 59.43818131 0 -186.24123120 0 25452
0.15450000 0.15450400 9677.78191963 0 154.03007056 0 2305.91442999 0 83.68662529 0 -113.02026729 0 26061
0.15550000 0.15549900 9402.49754617 0 48.64539937 0 2840.25896321 0 -59.76749880 0 125.06704804 0 26128
0.15650000 0.15649500 9320.35491241 0 282.13984521 0 2618.42551993 0 -202.77301294 0 -252.02783639 0 26331
0.15750000 0.15749700 9203.31429155 0 39.83170787 0 2849.59584991 0 91.70437466 0 133.02646933 0 27345
0.15850000 0.15849900 9189.59456040 0 -57.91418171 0 2595.21511807 0 209.27478145 0 -116.20799025 0 26980
0.15950000 0.15949700 8904.91837738 0 162.99458025 0 2781.31574674 0 102.23956838 0 -78.41381075 0 27777
0.16050000 0.16050000 9050.03556575 0 61.16605458 0 2507.33853742 0 124.64853582 0 306.69585721 0 28224
0.16150000 0.16150500 8887.73850586 0 149.12655736 0 2602.16835251 0 -28.75266796 0 -94.78049436 0 28075
0.16250000 0.16249700 8806.88106709 0 73.46756757 0 2618.17287476 0 200.70132255 0 266.89435692 0 28590
0.16350000 0.16349900 8721.03663237 0 13.64349822 0 2436.03767679 0 -4.32606520 0 365.74562404 0 29163
0.16450000 0.16449100 8427.49589928 0 -30.15199266 0 2418.83583613 0 174.04725718 0 236.63295792 0 28996
0.16550000 0.16550500 8505.39848802 0 166.77876550 0 2096.05417083 0 372.64173871 0 417.17978670 0 30777
0.16650000 0.16650700 8507.16700421 0 137.68502656 0 2240.39145455 0 11.62673069 0 460.39968597 0 29211
0.16750000 0.16749900 8527.81800066 0 62.97708106 0 2081.67536532 0 -228.98110466 0 116.43317399 0 30922
0.16850000 0.16850800 8388.21506773 0 143.07735324 0 2419.17635788 0 -104.36519302 0 348.67449979 0 30867
0.16950000 0.16949900 8179.65098812 0 -17.56817616 0 2307.32045528 0 -312.82854409 0 -22.40852807 0 30852
0.17050000 0.17049200 8227.28009484 0 69.04023559 0 2392.78042997 0 147.77765185 0 57.92088230 0 31257
0.17150000 0.17149500 8051.16444264 0 62.11523150 0 2403.06198990 0 132.93419892 0 -155.03186358 0 32608
0.17250000 0.17250900 8083.28333287 0 78.94799052 0 2515.40121369 0 133.04294619 0 284.69595525 0 32361
0.17350000 0.17350400 8124.49744919 0 135.22558076 0 2432.62147472 0 315.76472034 0 322.95412309 0 32508
0.17450000 0.17449800 7960.99208632 0 -16.58999997 0 2359.26649902 0 -11.02115121 0 698.65836063 0 32791
0.17550000 0.17549800 7978.41361843 0 -2.46725583 0 2239.58958075 0 81.54375487 0 712.14192348 0 33633
0.17650000 0.17650100 7876.50973860 0 21.32918396 0 2221.78358859 0 173.42113654 0 475.72206627 0 33984
0.17750000 0.17750300 7889.06510506 0 90.32130712 0 2137.52093232 0 76.31147341 0 786.57778112 0 34069
0.17850000 0.17849800 7820.38955728 0 103.54838020 0 2144.46318219 0 -103.65943423 0 564.18192772 0 34536
