### header ###
fiducial parameters:
Omega_m = 0.31
Omega_nu = 0
Omega_de = 0.69
Omega_k = 0
H_0 = 100
w_de = -1
zeff = 0
beta = 0
fgrowth = 0
b_1 = 2
gamma = 0.55
Lx = 3500 Ly = 3500 Lz = 3500
nx = 700 ny = 700 nz = 700
xoffset = -983.599254 yoffset = -42.9823471 zoffset = 800.977702
bins = 400 dk = 0.001
kx_ny = 0.628318531 ky_ny = 0.628318531 kz_ny = 0.628318531
############################
A(data) = 8.987037 (not used)
A(ran) = 8.9706107 (used)
Ngal = 498484
weighted Ngal = 0
Nran = 25229228
weighted Nran = 0
SN(data) = 6763.55084
SN(ran) = 133.162536
SN(data+ran) = 6896.71337
############################
13 columns: k_central k_mean P_0(k) sigma^{lin}_{P_0(k)} P^img_1(k) sigma^{lin}_{P_1(k)} P_2(k) sigma^{lin}_{P_2(k)} P^img_3(k) sigma^{lin}_{P_3(k)} P_4(k) sigma^{lin}_{P_4(k)} N_modes
### header ###
0.00050000 0 0 0 0 0 0 0 0 0 0 0 0
0.00150000 0.00179520 6735.33347769 0 8750.49725603 0 14949.23436313 0 -6393.12010349 0 4138.18507485 0 3
0.00250000 0.00253879 3600.42433956 0 -8713.10577097 0 -6914.50284107 0 37730.57882248 0 846.23499481 0 6
0.00350000 0.00331552 16256.94772894 0 -22722.57699604 0 18074.89449115 0 -6965.16368981 0 -46528.56238578 0 7
0.00450000 0.00420575 37015.92253034 0 -19833.85409860 0 -688.35922538 0 12341.60667804 0 1251.76893765 0 24
0.00550000 0.00557378 74875.35038919 0 -5211.18009374 0 1764.61666233 0 -4077.68204907 0 8565.69280692 0 45
0.00650000 0.00659388 50780.03135766 0 -6040.31760133 0 -22804.85144468 0 -3755.44961240 0 25322.40563459 0 40
0.00750000 0.00754703 91136.58210144 0 8554.07112913 0 18268.55250576 0 8106.70244161 0 -10953.20064205 0 57
0.00850000 0.00846663 68110.72105643 0 -4665.51046619 0 13691.39095684 0 -25919.85653729 0 7491.93985252 0 75
0.00950000 0.00948925 79247.21027657 0 -3830.43030484 0 19152.37121565 0 11223.37718926 0 -3400.90056319 0 112
0.01050000 0.01054430 85668.68156190 0 -12078.08678182 0 4511.01245284 0 3316.15458573 0 -17338.26905384 0 105
0.01150000 0.01145670 90904.80761997 0 2548.75037605 0 -8559.89295260 0 2541.92895648 0 -9114.72371368 0 144
0.01250000 0.01249090 91617.81622623 0 6568.76341907 0 7088.05908785 0 -4805.78345806 0 -29222.69782105 0 169
0.01350000 0.01339930 93576.80490038 0 2146.86880359 0 14653.41982351 0 -12859.96865816 0 -4459.82434461 0 180
0.01450000 0.01448870 73077.39554908 0 12187.71281618 0 19031.10153435 0 -18447.38134738 0 -22395.34657884 0 267
0.01550000 0.01550050 65556.80793126 0 1334.31800060 0 32412.94723585 0 -11272.47822870 0 -16790.02903631 0 238
0.01650000 0.01653350 66148.32716477 0 1751.91849643 0 23589.04008126 0 9927.68094586 0 -29804.66047641 0 315
0.01750000 0.01747870 69402.39694627 0 -3697.92340579 0 32743.80256200 0 2488.51098001 0 -13191.59290439 0 297
0.01850000 0.01844180 71794.06793440 0 3465.07243621 0 31608.65683144 0 -140.90350633 0 -22203.77563302 0 388
0.01950000 0.01947590 65769.68894789 0 -3297.00847572 0 14219.30951510 0 8359.33662641 0 -7166.21432177 0 399
0.02050000 0.02045430 75333.51691156 0 -1160.59698523 0 30112.66789159 0 -2591.82088514 0 -35573.53830468 0 462
0.02150000 0.02154770 67717.69304946 0 7029.26965540 0 20909.13390859 0 -7170.04793760 0 -21081.81138957 0 571
0.02250000 0.02255340 71603.81513729 0 3137.65528128 0 41279.03514916 0 -6892.07234386 0 -19143.80324904 0 510
0.02350000 0.02348930 61356.63691333 0 -4657.44778992 0 23531.81045811 0 3459.05289044 0 -14286.20556212 0 555
0.02450000 0.02439640 66532.45766794 0 -193.77225416 0 32487.53248368 0 11908.37513543 0 -25176.31081926 0 592
0.02550000 0.02547300 60630.22712853 0 5780.58738264 0 25426.64922839 0 -5898.72646075 0 -17246.65771852 0 837
0.02650000 0.02652900 57405.37631010 0 5869.49651311 0 32223.35351310 0 3149.09022134 0 -2793.53059145 0 723
0.02750000 0.02749970 55958.59825541 0 -4011.58787585 0 26266.52964796 0 10735.69512037 0 -9240.79365320 0 826
0.02850000 0.02848090 55920.15225138 0 -254.36205807 0 26892.76013082 0 6193.29974367 0 -1135.68397461 0 831
0.02950000 0.02946900 53767.94494551 0 1439.23165333 0 23950.87190209 0 2890.68913593 0 3371.73652299 0 996
0.03050000 0.03053250 54853.11087082 0 394.01002775 0 23009.93341477 0 -649.79568642 0 2493.10253135 0 1041
0.03150000 0.03150510 55090.92686721 0 3922.72268367 0 29720.73834189 0 -4285.99348351 0 4528.45595409 0 1036
0.03250000 0.03246190 50764.43326460 0 1517.30999523 0 26279.60128933 0 -219.91773382 0 8502.44363800 0 1059
0.03350000 0.03345080 54260.49318006 0 -2205.81202006 0 33743.50851263 0 3650.56891339 0 -3116.25733389 0 1302
0.03450000 0.03451200 51381.65639794 0 1076.40243331 0 31136.53990190 0 -884.58982689 0 3214.11889102 0 1339
0.03550000 0.03553350 52116.52430363 0 3033.31282633 0 33945.73449385 0 1805.77585579 0 4146.30267399 0 1365
0.03650000 0.03647120 49446.28455484 0 602.51039683 0 33704.29358851 0 2249.06926688 0 9116.93161277 0 1308
0.03750000 0.03744890 50107.99520714 0 -73.65024101 0 32955.91465855 0 7792.17019032 0 5628.60483641 0 1579
0.03850000 0.03847530 49216.15775926 0 1173.52582716 0 29685.80740108 0 1512.93813535 0 5303.39558056 0 1662
0.03950000 0.03950240 46237.47121237 0 2378.67623877 0 32389.98947916 0 2141.34356358 0 10457.44491231 0 1683
0.04050000 0.04050350 43974.75910634 0 582.13840852 0 25603.72053840 0 1266.88370952 0 9394.21517844 0 1822
0.04150000 0.04152450 42257.10149180 0 1229.86569992 0 25912.82641084 0 3083.63315332 0 2615.64642307 0 1887
0.04250000 0.04250150 43790.87736133 0 1239.09274089 0 27572.37563643 0 894.69123984 0 4696.76157519 0 1920
0.04350000 0.04349210 40426.08308821 0 -251.22706105 0 21174.85071933 0 1770.50439323 0 6996.11821535 0 2005
0.04450000 0.04448520 40203.31595626 0 660.37932210 0 21277.77616442 0 5581.18443657 0 4132.35226681 0 2151
0.04550000 0.04548030 40876.12102687 0 346.29963520 0 20034.76193111 0 -1778.28147062 0 -2144.01281472 0 2274
0.04650000 0.04648670 39579.72177082 0 964.20930433 0 18634.66830989 0 -443.18356537 0 12.37115518 0 2311
0.04750000 0.04749250 39606.74381937 0 -921.22008108 0 19201.69194654 0 3304.90638340 0 3559.12234665 0 2568
0.04850000 0.04851840 38308.03780308 0 151.47066515 0 16035.60859142 0 136.14608794 0 500.75920255 0 2493
0.04950000 0.04949480 39682.42752446 0 1198.04339316 0 17521.38187877 0 5248.47271766 0 3993.12280934 0 2644
0.05050000 0.05050630 37974.10679661 0 192.53099746 0 15856.12067544 0 1799.42677284 0 8583.54273737 0 2829
0.05150000 0.05149060 38446.00403470 0 -148.46418764 0 16467.30229387 0 2824.52905528 0 8426.47433403 0 2784
0.05250000 0.05249300 37547.46599755 0 -361.12661127 0 13940.19152581 0 2006.90337976 0 8553.09350217 0 3055
0.05350000 0.05348950 37750.46089885 0 1090.42424021 0 12780.55019839 0 -562.15747100 0 9681.82424234 0 3009
0.05450000 0.05448610 36083.55200963 0 516.40013545 0 13189.06645269 0 933.15262227 0 9917.66301566 0 3336
0.05550000 0.05550870 36548.85850418 0 447.17426059 0 14631.12114117 0 -766.53313307 0 8029.51385008 0 3349
0.05650000 0.05647670 35231.91809740 0 1467.19837512 0 14318.06082260 0 -1078.58506788 0 6295.63202184 0 3324
0.05750000 0.05747970 33633.33324964 0 595.56814696 0 12897.42605066 0 1391.34990144 0 6177.16340655 0 3639
0.05850000 0.05849280 35678.33112711 0 -931.59720679 0 14604.64832125 0 537.47843178 0 1523.86778506 0 3846
0.05950000 0.05951020 33785.14004271 0 738.00619808 0 14323.44326317 0 -676.53872683 0 1499.96535513 0 3787
0.06050000 0.06049470 33973.74515393 0 600.78472048 0 11959.12386076 0 -77.03843242 0 3199.86091581 0 3930
0.06150000 0.06148310 32371.31570577 0 -707.66131632 0 11856.52795285 0 1005.22240298 0 445.43650120 0 4083
0.06250000 0.06249100 33647.61319399 0 862.27356923 0 13426.77260335 0 1805.00693571 0 -2439.12434169 0 4303
0.06350000 0.06350600 32296.29107504 0 1497.84533262 0 12931.69791711 0 -2619.48003890 0 1208.96205830 0 4470
0.06450000 0.06451750 30013.69689263 0 940.99780401 0 13640.42254006 0 -15.47177048 0 2043.92138936 0 4479
0.06550000 0.06550280 29490.94108349 0 -395.59949540 0 11888.16352188 0 3176.49672993 0 2449.92217653 0 4636
0.06650000 0.06648880 30940.46528132 0 -555.87100011 0 11760.52278849 0 3281.83878098 0 2993.10929068 0 4653
0.06750000 0.06749660 31014.72099197 0 581.57709686 0 10297.52052010 0 274.88783039 0 1027.13332991 0 5220
0.06850000 0.06852730 29993.26558763 0 982.31956915 0 10330.13371609 0 -1176.87612179 0 4892.21007513 0 5029
0.06950000 0.06949320 28581.63816520 0 -42.47580433 0 10666.26163708 0 -860.95542052 0 3332.75227490 0 5040
0.07050000 0.07048030 28218.59804139 0 197.69374658 0 10473.42746542 0 2448.41729009 0 3098.62709490 0 5475
0.07150000 0.07148790 29520.48958373 0 347.20915781 0 10879.81271263 0 32.92175264 0 1565.36750028 0 5509
0.07250000 0.07249820 27417.05378013 0 389.61400180 0 8695.37667082 0 450.68053615 0 3062.18028307 0 5916
0.07350000 0.07351270 27847.86871677 0 301.11569434 0 10795.25347290 0 404.39374421 0 3046.29659112 0 5721
0.07450000 0.07449140 26704.81409396 0 137.62021759 0 8293.12162289 0 640.10619495 0 3732.14034938 0 6028
0.07550000 0.07549160 27009.19660018 0 264.12514618 0 9295.62863953 0 576.73070344 0 806.99700309 0 6183
0.07650000 0.07648840 26432.61638539 0 1060.27927767 0 8955.86482501 0 -266.07380935 0 1659.18673469 0 6330
0.07750000 0.07749960 24800.52859125 0 548.24770674 0 9641.29116952 0 -45.80687597 0 2896.02763821 0 6583
0.07850000 0.07848650 25779.14416253 0 -370.78644440 0 9292.50902091 0 642.57662532 0 3529.02461778 0 6549
0.07950000 0.07947320 24013.37412007 0 -53.03088013 0 9088.03120231 0 817.03690243 0 1044.02211025 0 6828
0.08050000 0.08048110 24857.09914005 0 772.05947154 0 8327.65711909 0 14.82368070 0 1935.55858084 0 7147
0.08150000 0.08149960 23925.71723088 0 1044.57683117 0 9082.93436063 0 -133.04843848 0 1337.37171178 0 7386
0.08250000 0.08250610 22823.52521806 0 727.29184598 0 10231.54717717 0 -759.74356876 0 1372.15985314 0 7227
0.08350000 0.08350160 21947.83509188 0 390.78495724 0 9103.54141880 0 341.72785609 0 1746.66787073 0 7798
0.08450000 0.08449610 21474.61970507 0 -154.73308321 0 9120.53455258 0 1897.78263573 0 3493.79709351 0 7371
0.08550000 0.08548940 21322.26368337 0 -370.24160960 0 7380.99566945 0 1514.93732756 0 2251.09042824 0 8256
0.08650000 0.08650700 21360.59984168 0 448.78020510 0 7829.13327705 0 84.39238407 0 2847.36598167 0 8037
0.08750000 0.08749060 21398.82615426 0 342.20898037 0 6154.13974242 0 189.86614015 0 2275.78374740 0 8155
0.08850000 0.08849210 20995.91203198 0 -114.91071223 0 6218.33358458 0 990.96113240 0 2450.97669550 0 8718
0.08950000 0.08949900 20851.35505681 0 -3.99265047 0 5954.22052143 0 399.18376144 0 3576.48895590 0 8571
0.09050000 0.09049190 21210.22104304 0 254.89041601 0 6139.20072370 0 485.46867752 0 2796.90285523 0 8932
0.09150000 0.09150830 20865.19561826 0 317.30365896 0 5852.92079309 0 -804.20033091 0 2412.19016972 0 9285
0.09250000 0.09250820 19811.99479916 0 251.97291353 0 6270.75196494 0 -162.13668513 0 2053.91735040 0 9204
0.09350000 0.09350330 19330.87052010 0 617.64054710 0 6473.01089988 0 -83.51856132 0 3190.57895198 0 9349
0.09450000 0.09448040 19027.47662540 0 505.02121671 0 7180.09882151 0 505.40567675 0 3126.45101725 0 9564
0.09550000 0.09549270 18726.93871958 0 -42.96934118 0 6899.56382236 0 455.78726395 0 2317.96450612 0 10155
0.09650000 0.09649430 18501.31559876 0 247.71309628 0 6187.08247559 0 183.48520194 0 1630.30829338 0 9913
0.09750000 0.09749140 18036.44848711 0 578.79140926 0 6554.06606096 0 -676.98799585 0 1899.91364281 0 10476
0.09850000 0.09850240 17136.15291835 0 360.93657816 0 6751.12929307 0 -388.00915575 0 1731.94854347 0 10575
0.09950000 0.09950330 16790.02903631 0 368.76198767 0 6780.84256190 0 530.99204167 0 1023.43043049 0 10882
0.10050000 0.10051200 16749.27627203 0 44.74225119 0 6166.25572597 0 322.72674244 0 838.73143328 0 10875
0.10150000 0.10150300 16772.89310308 0 28.36798823 0 5874.49449364 0 571.07364856 0 -125.60089827 0 11118
0.10250000 0.10250800 16634.70718001 0 -57.34825653 0 5715.27311407 0 146.88570456 0 48.23611419 0 11575
0.10350000 0.10349800 16238.38380127 0 -29.17348694 0 4879.56683208 0 770.95771891 0 1080.80395154 0 11364
0.10450000 0.10450100 16564.95514412 0 111.40004283 0 5467.32934177 0 -262.80260364 0 -279.07295254 0 12093
0.10550000 0.10551000 16000.12842198 0 395.88179892 0 5037.93141499 0 -719.09515792 0 -585.22836879 0 12067
0.10650000 0.10649700 15760.00566536 0 86.74725674 0 4805.11339913 0 410.72195647 0 -351.04936438 0 12054
0.10750000 0.10749900 15940.37234714 0 -246.54763313 0 4944.12316514 0 468.78640714 0 -107.70735907 0 12807
0.10850000 0.10850100 16095.80404917 0 447.27971248 0 4863.28769552 0 190.29893231 0 -1054.78479447 0 12736
0.10950000 0.10950300 16089.10345989 0 -121.86614359 0 4043.93744210 0 -194.72461661 0 -865.01751546 0 12933
0.11050000 0.11050200 15312.82371557 0 3.25780454 0 4183.90286594 0 844.12485841 0 -596.59849987 0 13428
0.11150000 0.11150900 15877.97997488 0 598.04077425 0 4684.52476133 0 -301.09482366 0 -691.93470376 0 13453
0.11250000 0.11250000 14667.15053924 0 157.82853576 0 4228.53318433 0 -398.01500291 0 115.44566092 0 13668
0.11350000 0.11349100 14831.15020788 0 191.82139407 0 4452.84914102 0 638.49036432 0 -681.83548773 0 13791
0.11450000 0.11448600 14652.10167480 0 43.17629053 0 4351.67024297 0 -72.16908124 0 -75.81519042 0 14205
0.11550000 0.11549300 14263.02811397 0 107.01807714 0 4355.70158111 0 464.36621513 0 -240.45888455 0 14776
0.11650000 0.11649800 14200.52589598 0 122.44283365 0 4002.55855719 0 540.56619513 0 805.14720107 0 14553
0.11750000 0.11747300 14229.08578469 0 127.33536228 0 4468.90858613 0 392.95331187 0 1198.70246751 0 14568
0.11850000 0.11849100 14203.38188485 0 -33.55721016 0 3964.09058401 0 203.22228196 0 646.27622937 0 16015
0.11950000 0.11950300 14358.92343261 0 22.74926951 0 3881.14607645 0 -64.15825215 0 1043.23012257 0 15270
0.12050000 0.12050700 13817.16431289 0 240.59069942 0 4107.73583966 0 -556.12254682 0 1257.92029830 0 15999
0.12150000 0.12150000 13899.54860725 0 256.64135688 0 4433.13183323 0 -177.07680230 0 513.26733535 0 15670
0.12250000 0.12250700 13755.21132354 0 120.68420358 0 4655.40465942 0 145.34347057 0 1139.90205048 0 16887
0.12350000 0.12352200 13416.44710513 0 231.69429409 0 4684.99709795 0 174.31198538 0 979.03737886 0 16407
0.12450000 0.12449800 13208.61899189 0 173.89567008 0 4538.82539061 0 353.88997485 0 1323.31145887 0 16306
0.12550000 0.12549900 13012.87390849 0 141.63947269 0 4659.35910555 0 78.17819167 0 1238.70828085 0 17523
0.12650000 0.12650100 12581.72943467 0 256.03830384 0 4510.34239391 0 169.38760149 0 1079.57477787 0 17154
0.12750000 0.12750600 12561.40797540 0 186.86845030 0 4568.42881372 0 242.12194884 0 1543.04684879 0 18007
0.12850000 0.12850300 12541.30620757 0 -75.07570899 0 4018.80474004 0 152.87449353 0 736.02897501 0 17496
0.12950000 0.12949900 12379.50345345 0 -26.76731631 0 4296.57162690 0 -134.52256812 0 651.93767807 0 18405
0.13050000 0.13049000 12170.46703723 0 346.54349271 0 3894.23968697 0 -499.43006927 0 38.69019108 0 18100
0.13150000 0.13148800 11750.52682744 0 283.69526069 0 4281.94017622 0 78.73137475 0 117.14387584 0 19059
0.13250000 0.13249300 11916.17418197 0 -210.30513436 0 3818.47908987 0 578.19165159 0 279.91546926 0 18957
0.13350000 0.13349100 12033.81895431 0 -323.74281540 0 3672.28541339 0 406.37096728 0 -52.98386615 0 19468
0.13450000 0.13450700 12229.67388344 0 233.48477942 0 3137.06211436 0 488.10058111 0 -304.25618364 0 19953
0.13550000 0.13551000 11908.81451834 0 160.54611902 0 2832.58074698 0 -240.95868260 0 653.95334714 0 19956
0.13650000 0.13649900 11774.03381276 0 129.01050960 0 2980.77361567 0 112.46225100 0 334.25395291 0 19723
0.13750000 0.13749600 11703.62270252 0 212.57125168 0 3380.17267473 0 -103.89988652 0 216.50043329 0 20946
0.13850000 0.13851100 11360.57450080 0 122.49885497 0 3183.65867125 0 -52.73045207 0 -86.34236540 0 20955
0.13950000 0.13949800 11295.65567685 0 103.66097207 0 3371.59372354 0 42.97626146 0 1000.68577450 0 20506
0.14050000 0.14048300 11321.46942241 0 97.33978993 0 3487.60179458 0 -187.59562900 0 -197.43011683 0 21447
0.14150000 0.14148400 11035.98038102 0 120.77537553 0 3654.79797384 0 -46.38323649 0 -87.81462766 0 21771
0.14250000 0.14249400 10826.66935049 0 179.91960968 0 3574.81930087 0 -21.27371187 0 81.76201832 0 22470
0.14350000 0.14350900 10601.41970513 0 154.18495304 0 3552.66341798 0 208.13348436 0 563.04941829 0 22519
0.14450000 0.14449900 10630.48488418 0 40.64874037 0 3615.45123485 0 379.82894455 0 313.66337160 0 22218
0.14550000 0.14550500 10655.79333941 0 -3.79577398 0 3033.41168748 0 316.97741715 0 549.69986723 0 23559
0.14650000 0.14650700 10478.32658479 0 -12.81548114 0 2990.40708583 0 218.13054386 0 478.59782737 0 23044
0.14750000 0.14750500 10359.68221634 0 160.69441075 0 2999.05194445 0 -183.76421009 0 155.50090483 0 23649
0.14850000 0.14849900 10146.54855454 0 290.50899106 0 3085.90695985 0 -370.21634508 0 -2.81463196 0 23640
0.14950000 0.14949500 10069.62359275 0 153.87299118 0 2910.46136658 0 45.03971342 0 -70.52249381 0 24457
0.15050000 0.15050000 9976.27669496 0 -113.19602045 0 3034.14765385 0 149.37700562 0 -179.67355526 0 24591
0.15150000 0.15149900 9866.21127769 0 77.90149029 0 2812.44602544 0 140.49927406 0 -463.77304821 0 25020
0.15250000 0.15250500 9922.13373670 0 135.00039702 0 2971.76626616 0 -139.71497558 0 -521.68261640 0 25297
0.15350000 0.15350100 9748.84111966 0 104.32224334 0 2640.58140283 0 57.39988402 0 -602.22040411 0 25452
0.15450000 0.15450400 9672.50932479 0 -18.20308445 0 2856.09871688 0 -149.06504376 0 -726.08903528 0 26061
0.15550000 0.15549900 9626.33018166 0 122.61968527 0 2973.50182862 0 125.45919728 0 -801.18286882 0 26128
0.15650000 0.15649500 9510.27817234 0 65.52011946 0 2973.93022696 0 84.17950306 0 -633.04091786 0 26331
0.15750000 0.15749700 9395.17083626 0 236.33527600 0 2461.37908574 0 314.88265916 0 -773.56985027 0 27345
0.15850000 0.15849900 9187.48552246 0 -101.26809278 0 2740.42018302 0 149.64832456 0 -82.53928668 0 26980
0.15950000 0.15949700 9096.18175517 0 162.02464249 0 2371.64611232 0 341.80804347 0 76.77754882 0 27777
0.16050000 0.16050000 9076.58527768 0 56.66402751 0 2279.69425524 0 282.56384971 0 433.77088512 0 28224
0.16150000 0.16150500 9156.98136440 0 63.93768193 0 2223.32142875 0 188.83578725 0 250.29117547 0 28075
0.16250000 0.16249700 8929.40298966 0 56.39644332 0 2051.83028161 0 -164.23254158 0 593.02631686 0 28590
0.16350000 0.16349900 8911.77275067 0 141.53621771 0 2334.58416443 0 -21.56732950 0 294.50957239 0 29163
0.16450000 0.16449100 8630.27110913 0 159.54432600 0 2556.11003968 0 -304.65382517 0 782.21141352 0 28996
0.16550000 0.16550500 8622.47206260 0 131.02837558 0 2539.61121166 0 270.01946782 0 561.59066705 0 30777
0.16650000 0.16650700 8386.79805786 0 120.89620583 0 2662.03427308 0 -4.95363581 0 592.93184954 0 29211
0.16750000 0.16749900 8390.00555306 0 109.81969238 0 2753.46985525 0 -62.70301597 0 757.14571734 0 30922
0.16850000 0.16850800 8140.80953948 0 67.97242529 0 2753.63462384 0 95.83863824 0 966.67753779 0 30867
0.16950000 0.16949900 8052.71326737 0 74.35237489 0 2723.97627787 0 1.43702375 0 541.80195954 0 30852
0.17050000 0.17049200 7898.72054436 0 125.32079167 0 2530.08758723 0 41.69919505 0 922.51626064 0 31257
0.17150000 0.17149500 8054.62458300 0 -29.23423162 0 2495.16763100 0 503.45591512 0 631.62280954 0 32608
0.17250000 0.17250900 8047.04522792 0 -133.86678913 0 2139.09172620 0 260.07842964 0 549.88550651 0 32361
0.17350000 0.17350400 8048.94555898 0 46.20825225 0 1789.22210491 0 41.34362444 0 544.15705191 0 32508
0.17450000 0.17449800 7821.86149001 0 227.56739017 0 1934.58095388 0 -417.78613510 0 196.12954344 0 32791
0.17550000 0.17549800 7705.42502064 0 153.03816366 0 2112.58595256 0 -226.95225410 0 -28.54418077 0 33633
0.17650000 0.17650100 7665.99040508 0 96.46816410 0 2110.05950087 0 123.93563706 0 -14.90639453 0 33984
0.17750000 0.17750300 7708.18214836 0 -148.78823253 0 1979.06847284 0 251.62360412 0 -229.38314002 0 34069
0.17850000 0.17849800 7662.87078646 0 -108.74474210 0 1683.56150125 0 302.40088934 0 -231.24722198 0 34536
