### header ###
fiducial parameters:
Omega_m = 0.31
Omega_nu = 0
Omega_de = 0.69
Omega_k = 0
H_0 = 100
w_de = -1
zeff = 0
beta = 0
fgrowth = 0
b_1 = 2
gamma = 0.55
Lx = 3500 Ly = 3500 Lz = 3500
nx = 700 ny = 700 nz = 700
xoffset = -983.599254 yoffset = -42.9823471 zoffset = 800.977702
bins = 400 dk = 0.001
kx_ny = 0.628318531 ky_ny = 0.628318531 kz_ny = 0.628318531
############################
A(data) = 9.11037226 (not used)
A(ran) = 9.10394147 (used)
Ngal = 506072
weighted Ngal = 0
Nran = 25229228
weighted Nran = 0
SN(data) = 6694.92755
SN(ran) = 135.141739
SN(data+ran) = 6830.06929
############################
13 columns: k_central k_mean P_0(k) sigma^{lin}_{P_0(k)} P^img_1(k) sigma^{lin}_{P_1(k)} P_2(k) sigma^{lin}_{P_2(k)} P^img_3(k) sigma^{lin}_{P_3(k)} P_4(k) sigma^{lin}_{P_4(k)} N_modes
### header ###
0.00050000 0 0 0 0 0 0 0 0 0 0 0 0
0.00150000 0.00179520 11204.81326160 0 -10058.47425158 0 19732.13695650 0 -47773.11445925 0 -9984.22952551 0 3
0.00250000 0.00253879 22111.72491479 0 -2497.99066615 0 -34886.12375254 0 16120.73902893 0 3910.01353319 0 6
0.00350000 0.00331552 38061.76368581 0 -956.01151781 0 -738.35221211 0 -12221.65514545 0 -5603.37327319 0 7
0.00450000 0.00420575 47546.06334399 0 -3202.73887382 0 -25162.68994926 0 -13888.34434322 0 9584.74258987 0 24
0.00550000 0.00557378 39114.08573910 0 -320.32331796 0 -5941.50038639 0 -25898.87600366 0 -9681.32993657 0 45
0.00650000 0.00659388 25100.40742272 0 7897.38042650 0 -1550.57128101 0 -9780.16912066 0 8774.25688653 0 40
0.00750000 0.00754703 42146.15730873 0 -5942.77459681 0 -93.59438022 0 -7161.94132304 0 -15038.31924676 0 57
0.00850000 0.00846663 39865.10096649 0 -8151.84903492 0 -511.87559000 0 9836.39914771 0 -13004.85517050 0 75
0.00950000 0.00948925 54917.81000333 0 -1551.60383083 0 7622.71118911 0 -7226.39879494 0 -13966.33480855 0 112
0.01050000 0.01054430 57654.83595342 0 3499.39922553 0 -14639.03003343 0 1290.76417032 0 829.40333424 0 105
0.01150000 0.01145670 68479.14362080 0 -14414.83490705 0 3828.67277323 0 3585.69402773 0 4646.46321734 0 144
0.01250000 0.01249090 61225.26142526 0 -8217.82237784 0 -1170.54900799 0 66.91625863 0 -2135.55469383 0 169
0.01350000 0.01339930 75759.93801917 0 8281.86243599 0 13621.19953804 0 -7500.17828196 0 9798.78797119 0 180
0.01450000 0.01448870 66288.71000236 0 7931.76213868 0 11954.62018600 0 -3714.70783270 0 9388.50320070 0 267
0.01550000 0.01550050 62410.27711534 0 -786.85459235 0 19907.45073489 0 1963.22871917 0 29524.44402986 0 238
0.01650000 0.01653350 65987.07363927 0 1240.31202845 0 24701.22805512 0 22692.69895862 0 16577.47755686 0 315
0.01750000 0.01747870 59193.99426352 0 896.50149740 0 22630.08689491 0 -5469.50428714 0 38548.05071398 0 297
0.01850000 0.01844180 61555.45767706 0 599.81038889 0 12196.06109134 0 8110.68984146 0 14740.96686699 0 388
0.01950000 0.01947590 65662.69921095 0 4870.37274483 0 20878.81648826 0 2537.12869826 0 29235.54977097 0 399
0.02050000 0.02045430 55019.08776253 0 -2542.59901540 0 24464.51051599 0 2256.01151676 0 24758.45767827 0 462
0.02150000 0.02154770 58059.39776159 0 -3985.18096337 0 13181.81663479 0 -1255.97602895 0 9754.93755744 0 571
0.02250000 0.02255340 59261.21984772 0 3315.94587885 0 16858.57276922 0 2617.64561528 0 7787.79833043 0 510
0.02350000 0.02348930 65544.72490142 0 -335.98731846 0 16521.01685379 0 1412.97852486 0 6099.12900293 0 555
0.02450000 0.02439640 62754.42377431 0 -3816.39202108 0 14246.88079228 0 4784.69307870 0 3353.23850276 0 592
0.02550000 0.02547300 70222.61498091 0 864.44412078 0 11894.42472826 0 -1698.56642740 0 -5688.15220437 0 837
0.02650000 0.02652900 64486.14164176 0 2362.94633084 0 8286.72860165 0 -3359.56561657 0 -710.25367545 0 723
0.02750000 0.02749970 58350.81847218 0 785.02016873 0 20439.54343073 0 -596.81269903 0 20.47150854 0 826
0.02850000 0.02848090 63907.36451245 0 -1104.48778848 0 12687.73056008 0 5593.05875953 0 3403.84442864 0 831
0.02950000 0.02946900 62805.06265391 0 935.98224817 0 18079.39816591 0 1698.66528855 0 -2125.69054765 0 996
0.03050000 0.03053250 61361.68981672 0 3456.05410212 0 17649.35214935 0 -5977.29910843 0 -7985.35586831 0 1041
0.03150000 0.03150510 59050.53574561 0 1428.69744822 0 25201.24579902 0 -6921.46706009 0 3465.46788083 0 1036
0.03250000 0.03246190 58312.59215959 0 2396.53715379 0 27005.90122841 0 84.31516253 0 -7117.62955724 0 1059
0.03350000 0.03345080 54911.10941405 0 292.70700403 0 29186.44873153 0 1175.71175710 0 338.15567309 0 1302
0.03450000 0.03451200 56441.91944899 0 1354.81521304 0 29416.79521856 0 2025.93964404 0 -8450.15707251 0 1339
0.03550000 0.03553350 56495.74385464 0 718.14059856 0 29037.16839015 0 -589.21686709 0 327.81479646 0 1365
0.03650000 0.03647120 53657.44014535 0 293.77140912 0 27285.78813778 0 8333.83044888 0 -1490.44173070 0 1308
0.03750000 0.03744890 52796.79888360 0 627.87597184 0 26452.27877031 0 -1667.93045447 0 1899.80379709 0 1579
0.03850000 0.03847530 51445.80630182 0 654.67393510 0 21394.98155386 0 7199.87105216 0 2425.81103972 0 1662
0.03950000 0.03950240 50230.03380851 0 923.66414848 0 23921.10371039 0 3166.91818264 0 5690.54684119 0 1683
0.04050000 0.04050350 50273.64256166 0 2467.21189378 0 16740.48861397 0 3427.72488944 0 4164.10866614 0 1822
0.04150000 0.04152450 49119.82305772 0 -172.91145237 0 16935.35493156 0 -494.91431148 0 4127.03573368 0 1887
0.04250000 0.04250150 46171.67362261 0 1568.41022688 0 18981.56111201 0 -1150.15065670 0 2388.43053922 0 1920
0.04350000 0.04349210 44234.65409362 0 1943.26975079 0 16733.78802469 0 1839.90492280 0 3310.29980854 0 2005
0.04450000 0.04448520 42565.98767279 0 22.38183555 0 17681.97632991 0 -340.46133487 0 4149.91659837 0 2151
0.04550000 0.04548030 41807.50293604 0 -185.38772991 0 17618.81503757 0 453.53542657 0 1249.98943689 0 2274
0.04650000 0.04648670 40698.17095105 0 1573.45214570 0 15251.96918347 0 4080.83462140 0 -66.37197306 0 2311
0.04750000 0.04749250 42055.97396783 0 169.10419952 0 14240.39989445 0 367.40649141 0 -731.32647949 0 2568
0.04850000 0.04851840 41127.55789326 0 -716.69832419 0 13299.46140714 0 -1292.75237795 0 -1708.19989755 0 2493
0.04950000 0.04949480 38883.08017771 0 803.50171209 0 14424.39148519 0 649.01358485 0 -1082.27368735 0 2644
0.05050000 0.05050630 37260.65880745 0 1781.74161098 0 14024.33335178 0 -991.55539777 0 -2028.29034257 0 2829
0.05150000 0.05149060 38576.61060269 0 643.00172828 0 13266.06830649 0 2079.14891362 0 -3053.63428561 0 2784
0.05250000 0.05249300 38702.05442157 0 -368.11170097 0 14353.43114632 0 1867.50915370 0 -3587.97881882 0 3055
0.05350000 0.05348950 37560.75733037 0 -467.79340178 0 12925.32686501 0 -1014.10233145 0 -3415.97139677 0 3009
0.05450000 0.05448610 37241.87518833 0 1303.66005853 0 14462.83748923 0 -1302.02335721 0 -4987.11678223 0 3336
0.05550000 0.05550870 36666.72296798 0 303.08962204 0 14315.64421664 0 112.45126643 0 -4487.26380691 0 3349
0.05650000 0.05647670 36158.46679464 0 365.25571210 0 14442.95541285 0 265.42132574 0 -2038.75864024 0 3324
0.05750000 0.05747970 36328.50797820 0 898.58307390 0 14597.83788625 0 92.16869254 0 -3537.31797008 0 3639
0.05850000 0.05849280 35172.71125119 0 24.85874683 0 14508.31361971 0 2123.80120117 0 -1324.71748416 0 3846
0.05950000 0.05951020 34351.06522210 0 812.63428574 0 13866.81458096 0 538.98661359 0 -2784.81982539 0 3787
0.06050000 0.06049470 33929.36748070 0 1196.38472270 0 15634.89138365 0 366.58484539 0 2006.47498143 0 3930
0.06150000 0.06148310 33035.99219266 0 206.55060745 0 14012.36016766 0 1354.32090727 0 -1653.74937127 0 4083
0.06250000 0.06249100 32904.06747596 0 -523.31712081 0 14130.22463146 0 1238.54351226 0 1486.02593252 0 4303
0.06350000 0.06350600 32884.84447394 0 969.52034517 0 11914.96587898 0 621.06224146 0 -983.52787213 0 4470
0.06450000 0.06451750 31876.13117380 0 68.68774065 0 12833.71552969 0 -33.34531776 0 2538.63358470 0 4479
0.06550000 0.06550280 31270.00245876 0 -15.48165660 0 12346.87927288 0 -1156.47777051 0 -3053.41459415 0 4636
0.06650000 0.06648880 31294.93743852 0 1115.23070047 0 14027.95826073 0 439.90796582 0 -2516.86216185 0 4653
0.06750000 0.06749660 29759.84342028 0 1110.97967088 0 12801.53073202 0 -2347.06263888 0 -2434.24719146 0 5220
0.06850000 0.06852730 29029.80872652 0 925.17452721 0 14264.45610841 0 711.33345894 0 -4512.48438556 0 5029
0.06950000 0.06949320 28753.54672610 0 182.23186221 0 15352.03863969 0 1066.06265513 0 -2622.83033354 0 5040
0.07050000 0.07048030 28327.89453857 0 -784.46984164 0 11870.80789721 0 2351.74206680 0 -1449.02989207 0 5475
0.07150000 0.07148790 29202.81574468 0 -519.33191787 0 11382.54364597 0 2058.55284003 0 -2704.48964611 0 5509
0.07250000 0.07249820 28689.28697650 0 853.71109491 0 11084.86172901 0 17.38813901 0 -2759.65416961 0 5916
0.07350000 0.07351270 27650.47594748 0 872.52437237 0 10986.33011296 0 -792.40619533 0 -119.05299455 0 5721
0.07450000 0.07449140 26896.27519405 0 162.38713338 0 11188.11671128 0 834.42657928 0 -513.29809215 0 6028
0.07550000 0.07549160 26771.16091235 0 117.32621974 0 11239.08512805 0 1749.46893674 0 -773.60280399 0 6183
0.07650000 0.07648840 26327.82356296 0 -158.55571447 0 8933.33546665 0 357.43030260 0 -1113.96747462 0 6330
0.07750000 0.07749960 27024.46515607 0 546.06177679 0 9408.02278618 0 582.73816618 0 -543.55949116 0 6583
0.07850000 0.07848650 25265.72524007 0 1340.01899377 0 9331.99855934 0 -1714.17550504 0 -701.10023112 0 6549
0.07950000 0.07947320 24299.08285292 0 814.32371300 0 10502.04227699 0 -714.72659341 0 -1421.96390523 0 6828
0.08050000 0.08048110 23609.91076916 0 153.72469945 0 10861.13893925 0 853.44416979 0 -838.93684478 0 7147
0.08150000 0.08149960 23705.80608780 0 -74.20935575 0 9272.30839194 0 2065.09964529 0 -554.45728562 0 7386
0.08250000 0.08250610 23387.03379149 0 -441.73250333 0 8852.06061412 0 -102.56855632 0 -1004.97964392 0 7227
0.08350000 0.08350160 23185.90626752 0 497.97790877 0 8316.41990133 0 637.34247649 0 -2167.60767662 0 7798
0.08450000 0.08449610 22752.01565056 0 836.95303098 0 8928.96360676 0 -671.03545596 0 422.07011841 0 7371
0.08550000 0.08548940 22520.46086054 0 318.73824414 0 8820.00763133 0 333.05004375 0 -810.27699646 0 8256
0.08650000 0.08650700 21751.87031703 0 133.23847158 0 7897.90768599 0 784.69063155 0 -386.04840954 0 8037
0.08750000 0.08749060 21336.76331918 0 234.42615729 0 8858.47560451 0 628.78439599 0 -348.69976431 0 8155
0.08850000 0.08849210 20826.20038560 0 436.37203191 0 8133.10935410 0 219.59588585 0 603.71540444 0 8718
0.08950000 0.08949900 20296.19475855 0 793.57056002 0 8759.61445127 0 475.29147102 0 -32.52224373 0 8571
0.09050000 0.09049190 19808.47973594 0 394.44391837 0 8613.43175936 0 -717.09816263 0 809.23565898 0 8932
0.09150000 0.09150830 19213.77497638 0 -43.48319948 0 7753.42760282 0 728.57154869 0 209.80313939 0 9285
0.09250000 0.09250820 19306.04538607 0 9.16663680 0 8340.58596101 0 572.38630498 0 -139.84019970 0 9204
0.09350000 0.09350330 18633.67969836 0 279.51672928 0 7320.25098308 0 1118.84462485 0 -342.84169175 0 9349
0.09450000 0.09448040 18958.05412669 0 138.39133458 0 7365.09000836 0 -626.66657039 0 774.32119503 0 9564
0.09550000 0.09549270 18107.18913454 0 259.52700409 0 7271.68818770 0 -569.79284740 0 -562.16735711 0 10155
0.09650000 0.09649430 18244.60613753 0 262.46318034 0 6658.05700958 0 1005.44538980 0 -311.71910226 0 9913
0.09750000 0.09749140 18298.97977181 0 -149.63624153 0 6704.20319900 0 605.98371868 0 -240.67967446 0 10476
0.09850000 0.09850240 18475.61169892 0 -160.26161859 0 6241.15952640 0 556.11375916 0 -767.18232131 0 10575
0.09950000 0.09950330 18432.55217440 0 83.59270719 0 6005.35370680 0 -19.98697904 0 -502.41128227 0 10882
0.10050000 0.10051200 17671.87052314 0 422.00421097 0 6352.08174033 0 -979.59759206 0 -112.09866165 0 10875
0.10150000 0.10150300 17772.81874516 0 492.75584297 0 6752.66713323 0 -286.11735894 0 -694.41941408 0 11118
0.10250000 0.10250800 17065.96149955 0 461.23780886 0 7222.51025625 0 -190.98656656 0 -2322.16061284 0 11575
0.10350000 0.10349800 16568.03082444 0 175.75975205 0 6932.91298471 0 491.40803591 0 -682.64834610 0 11364
0.10450000 0.10450100 16020.88926416 0 245.49750799 0 6755.41327637 0 464.43102411 0 -629.78728746 0 12093
0.10550000 0.10551000 16473.01427161 0 79.17614009 0 6349.06098287 0 1096.77771699 0 -710.15920813 0 12067
0.10650000 0.10649700 15674.10630777 0 99.53857182 0 5379.82623658 0 323.44842886 0 -983.21261490 0 12054
0.10750000 0.10749900 15672.56846761 0 158.12621768 0 4646.35337161 0 523.43465573 0 329.97985572 0 12807
0.10850000 0.10850100 15349.84172517 0 310.68215860 0 4904.86430274 0 268.51897521 0 -716.61154606 0 12736
0.10950000 0.10950300 14826.97607030 0 184.02015063 0 4805.40998259 0 228.96792317 0 777.93402095 0 12933
0.11050000 0.11050200 14891.67520280 0 72.69864749 0 4607.32518523 0 864.29692750 0 1235.56669309 0 13428
0.11150000 0.11150900 14641.55648512 0 8.70675669 0 4392.04953178 0 100.90516250 0 398.20503602 0 13453
0.11250000 0.11250000 14186.90502598 0 101.44230810 0 3804.14422265 0 417.37201672 0 1279.40612227 0 13668
0.11350000 0.11349100 14533.35844520 0 318.98320010 0 4464.22915821 0 -533.97655004 0 1065.00154542 0 13791
0.11450000 0.11448600 14098.25952525 0 137.71798028 0 4404.52800623 0 -271.09815285 0 1183.18126645 0 14205
0.11550000 0.11549300 14062.55966436 0 20.33310292 0 4684.83232936 0 10.55094559 0 196.43161919 0 14776
0.11650000 0.11649800 14074.42300275 0 111.48352559 0 4799.92868087 0 -398.32916169 0 128.42283496 0 14553
0.11750000 0.11747300 14205.90833655 0 -18.16375968 0 4767.57911462 0 408.84359456 0 -88.93373592 0 14568
0.11850000 0.11849100 14157.68606292 0 -121.70357191 0 4418.53333627 0 319.77518779 0 290.01907912 0 16015
0.11950000 0.11950300 14072.44577968 0 97.97656560 0 4554.45643739 0 79.47733707 0 -272.51186734 0 15270
0.12050000 0.12050700 13850.66725927 0 504.89379567 0 4488.19749558 0 -248.89174092 0 -413.75479696 0 15999
0.12150000 0.12150000 13561.99269183 0 290.22668754 0 4843.61432603 0 -216.99144369 0 866.77944091 0 15670
0.12250000 0.12250700 13228.50106826 0 -198.33414716 0 4981.77827995 0 244.33204484 0 -116.61991172 0 16887
0.12350000 0.12352200 13638.66500845 0 -58.73099453 0 4540.46209193 0 547.12508342 0 559.24326389 0 16407
0.12450000 0.12449800 13405.24284109 0 90.57801659 0 4278.00769924 0 212.98097624 0 32.15865438 0 16306
0.12550000 0.12549900 13438.08671311 0 212.28565279 0 4242.99986642 0 417.83007339 0 852.40612768 0 17523
0.12650000 0.12650100 13502.34646271 0 -61.37201531 0 4141.28272432 0 227.46852901 0 501.92137033 0 17154
0.12750000 0.12750600 13401.17854924 0 67.79535398 0 4301.52566914 0 10.63083639 0 211.23442920 0 18007
0.12850000 0.12850300 12935.76220897 0 290.45846202 0 4133.28595548 0 -763.87376805 0 1061.60511558 0 17496
0.12950000 0.12949900 12645.33010992 0 332.62054696 0 4151.74003742 0 192.94182048 0 102.99124268 0 18405
0.13050000 0.13049000 12737.71036533 0 -112.15358451 0 4251.04057355 0 322.67401649 0 264.22510579 0 18100
0.13150000 0.13148800 12391.14710038 0 182.50867344 0 4310.46711122 0 79.70208143 0 -44.07669594 0 19059
0.13250000 0.13249300 12399.60522127 0 43.86732999 0 3968.91281137 0 205.56419283 0 -6.39688781 0 18957
0.13350000 0.13349100 12589.30878975 0 -260.68477804 0 2997.72281117 0 528.01302558 0 -36.62487175 0 19468
0.13450000 0.13450700 12546.46895668 0 40.57832926 0 3058.84097301 0 280.70635849 0 -608.82762452 0 19953
0.13550000 0.13551000 12472.76247466 0 204.55031678 0 2998.65649984 0 -409.36975559 0 -360.82014169 0 19956
0.13650000 0.13649900 12101.81345859 0 330.74328351 0 3071.70390750 0 -194.58401408 0 -326.73281606 0 19723
0.13750000 0.13749600 11943.63561342 0 57.65922978 0 3118.30046439 0 583.55102455 0 72.99534079 0 20946
0.13850000 0.13851100 11789.96144301 0 107.19470907 0 2962.06688857 0 -9.62530862 0 -851.02097308 0 20955
0.13950000 0.13949800 11850.37659220 0 273.68611815 0 3269.50310597 0 -69.68052632 0 3.22476294 0 20506
0.14050000 0.14048300 11297.30336273 0 260.66280890 0 3760.90894497 0 -524.55837751 0 -148.81239859 0 21447
0.14150000 0.14148400 11017.19676191 0 153.89935415 0 3821.99415310 0 -337.71629018 0 277.76798532 0 21771
0.14250000 0.14249400 11021.70043667 0 -32.56541310 0 3609.08018275 0 809.79477373 0 -160.06060091 0 22470
0.14350000 0.14350900 11095.40691869 0 11.29433753 0 3623.37111168 0 188.73472918 0 321.53711323 0 22519
0.14450000 0.14449900 10867.88346681 0 320.27388738 0 3625.18356616 0 -324.76877448 0 -413.23522668 0 22218
0.14550000 0.14550500 10672.98419550 0 223.86778612 0 3641.04528897 0 -115.94326205 0 113.90452538 0 23559
0.14650000 0.14650700 10310.91071407 0 -11.55049776 0 3764.94028311 0 247.72737623 0 400.30528630 0 23044
0.14750000 0.14750500 10340.03081599 0 -3.10909539 0 3642.35245310 0 152.45048903 0 -484.91835043 0 23649
0.14850000 0.14849900 10361.11021077 0 370.84685955 0 3534.60478065 0 -205.15776364 0 -865.52280580 0 23640
0.14950000 0.14949500 9921.15610974 0 253.28117612 0 3763.19373607 0 -369.98786597 0 -391.21225711 0 24457
0.15050000 0.15050000 9647.37662273 0 -107.89343773 0 3616.86824471 0 502.10151732 0 -120.83908605 0 24591
0.15150000 0.15149900 9702.95855999 0 -70.21964915 0 3389.77319117 0 570.08613548 0 -175.50271305 0 25020
0.15250000 0.15250500 9732.12260019 0 122.33518484 0 2986.43067055 0 286.97086023 0 -40.17684314 0 25297
0.15350000 0.15350100 9708.58266115 0 216.85523499 0 2961.17713819 0 -56.39523502 0 -432.71307078 0 25452
0.15450000 0.15450400 9412.84501354 0 68.51693055 0 2897.70827781 0 69.38866623 0 330.80589557 0 26061
0.15550000 0.15549900 9379.66061977 0 44.33538262 0 2940.37235772 0 22.73048589 0 43.71629211 0 26128
0.15650000 0.15649500 9309.82070730 0 161.37874962 0 3059.10460275 0 -186.17532377 0 130.68565691 0 26331
0.15750000 0.15749700 9148.68801211 0 107.66704569 0 3200.91543478 0 -173.16299909 0 -222.98023266 0 27345
0.15850000 0.15849900 9114.19645420 0 -16.87384133 0 2966.84517764 0 384.43477583 0 -264.60187663 0 26980
0.15950000 0.15949700 9218.78056975 0 28.64183362 0 3032.76359770 0 9.84342927 0 -429.03214051 0 27777
0.16050000 0.16050000 9067.59989731 0 79.40406997 0 2878.73792097 0 93.65051138 0 -70.63211985 0 28224
0.16150000 0.16150500 9011.43577770 0 76.98977077 0 3146.42097020 0 91.02827422 0 -210.27657447 0 28075
0.16250000 0.16249700 8844.29452130 0 120.94453795 0 2815.60958234 0 -253.08894610 0 29.82344410 0 28590
0.16350000 0.16349900 8789.02015207 0 67.73032531 0 2982.34440955 0 482.23591781 0 234.32619768 0 29163
0.16450000 0.16449100 8519.87615469 0 98.70901690 0 2773.27503961 0 224.28629834 0 460.58752216 0 28996
0.16550000 0.16550500 8676.71388200 0 43.03338124 0 2922.86294902 0 315.90202750 0 499.24552845 0 30777
0.16650000 0.16650700 8519.05231174 0 36.55599848 0 2525.15551414 0 128.41185039 0 794.04069973 0 29211
0.16750000 0.16749900 8513.48313344 0 113.25533714 0 2823.30976772 0 74.07138952 0 969.66643999 0 30922
0.16850000 0.16850800 8400.14431355 0 83.89137772 0 2608.79204978 0 -147.65352618 0 1213.37785648 0 30867
0.16950000 0.16949900 8371.04618078 0 91.33320595 0 2865.96286305 0 -81.32131727 0 829.23417182 0 30852
0.17050000 0.17049200 8431.40640712 0 -5.78724403 0 2839.32527454 0 81.85297058 0 1028.01978491 0 31257
0.17150000 0.17149500 8256.02672128 0 38.43018625 0 2699.04129811 0 141.69110018 0 943.72747030 0 32608
0.17250000 0.17250900 8293.64888237 0 73.65298715 0 2613.48246227 0 64.04587997 0 929.77376775 0 32361
0.17350000 0.17350400 8158.31894817 0 -77.16365655 0 2448.71387355 0 415.87811484 0 1200.74559801 0 32508
0.17450000 0.17449800 8240.39567450 0 23.25049555 0 2223.81573452 0 138.77249925 0 742.57578027 0 32791
0.17550000 0.17549800 8087.49042417 0 266.96795356 0 2375.32594413 0 -236.76367433 0 854.13180404 0 33633
0.17650000 0.17650100 7930.48792826 0 110.25764729 0 2149.13162554 0 35.43084871 0 957.10558124 0 33984
0.17750000 0.17750300 7849.02633800 0 16.38250139 0 2261.55872591 0 52.77482974 0 613.68060869 0 34069
0.17850000 0.17849800 7748.23189999 0 113.72218148 0 2225.97969532 0 -115.72247214 0 589.17951955 0 34536
