### header ###
fiducial parameters:
Omega_m = 0.31
Omega_nu = 0
Omega_de = 0.69
Omega_k = 0
H_0 = 100
w_de = -1
zeff = 0
beta = 0
fgrowth = 0
b_1 = 2
gamma = 0.55
Lx = 3500 Ly = 3500 Lz = 3500
nx = 700 ny = 700 nz = 700
xoffset = -983.599254 yoffset = -42.9823471 zoffset = 800.977702
bins = 400 dk = 0.001
kx_ny = 0.628318531 ky_ny = 0.628318531 kz_ny = 0.628318531
############################
A(data) = 9.07415074 (not used)
A(ran) = 9.07070495 (used)
Ngal = 504101
weighted Ngal = 0
Nran = 25229228
weighted Nran = 0
SN(data) = 6726.28816
SN(ran) = 134.648366
SN(data+ran) = 6860.93653
############################
13 columns: k_central k_mean P_0(k) sigma^{lin}_{P_0(k)} P^img_1(k) sigma^{lin}_{P_1(k)} P_2(k) sigma^{lin}_{P_2(k)} P^img_3(k) sigma^{lin}_{P_3(k)} P_4(k) sigma^{lin}_{P_4(k)} N_modes
### header ###
0.00050000 0 0 0 0 0 0 0 0 0 0 0 0
0.00150000 0.00179520 6808.78731455 0 -4435.15299459 0 15644.77749898 0 -36834.45739129 0 -25710.92996680 0 3
0.00250000 0.00253879 15148.49450975 0 -8471.08268328 0 -12198.03831440 0 600.18386436 0 13305.61276778 0 6
0.00350000 0.00331552 8651.32853477 0 -6653.15789021 0 -8773.41107444 0 1114.35193466 0 10446.98759921 0 7
0.00450000 0.00420575 21251.85257312 0 -14952.74942635 0 -19382.49801123 0 -5524.14155116 0 -14001.15590363 0 24
0.00550000 0.00557378 41057.58616592 0 -7409.72032675 0 -17437.78928143 0 -920.11283616 0 -8706.39419712 0 45
0.00650000 0.00659388 55499.55296724 0 -14471.18576439 0 -37564.93146795 0 -15320.18337920 0 2501.02240818 0 40
0.00750000 0.00754703 64959.90625719 0 -3208.68152759 0 -30833.58539010 0 -6215.26888883 0 -6041.41605859 0 57
0.00850000 0.00846663 72491.03906469 0 -14439.87973253 0 -23174.70200349 0 1116.39506516 0 9078.34280929 0 75
0.00950000 0.00948925 84869.88344378 0 866.15551718 0 -13823.97474789 0 -31989.60180857 0 -17908.69790799 0 112
0.01050000 0.01054430 74777.25815604 0 2318.81031820 0 6547.31054882 0 -29708.21592915 0 -6491.11347549 0 105
0.01150000 0.01145670 90365.46510623 0 -6835.10635045 0 -4503.29029831 0 25299.88726080 0 -1877.62594505 0 144
0.01250000 0.01249090 110764.03608123 0 -20613.97844333 0 1076.53974046 0 -799.28473468 0 -9319.76174549 0 169
0.01350000 0.01339930 117336.10585665 0 4893.89071473 0 12816.57959646 0 -15601.71797446 0 -34159.27458483 0 180
0.01450000 0.01448870 104168.01993759 0 17932.31473904 0 35626.48394452 0 -38642.18850100 0 -4985.13955916 0 267
0.01550000 0.01550050 92345.54415974 0 10408.73931748 0 63859.91115890 0 -3800.01402336 0 23844.87077668 0 238
0.01650000 0.01653350 94227.97036300 0 -1889.93965091 0 68593.27332992 0 17578.61150192 0 5330.59338227 0 315
0.01750000 0.01747870 94271.46927043 0 -4562.89258914 0 61878.95333958 0 15628.74002301 0 -18986.94355258 0 297
0.01850000 0.01844180 84593.84113481 0 7165.36850968 0 56160.93408236 0 2569.96158570 0 9433.73767059 0 388
0.01950000 0.01947590 84882.40585652 0 7226.33288751 0 53079.21224466 0 12935.43267179 0 24255.47409977 0 399
0.02050000 0.02045430 83311.50213167 0 3858.45194950 0 63217.97273724 0 10224.90151076 0 34593.82427615 0 462
0.02150000 0.02154770 77781.75844849 0 -3271.71100506 0 38823.43394860 0 20770.50860261 0 11357.49882048 0 571
0.02250000 0.02255340 77259.00263935 0 1985.06604946 0 48893.76055399 0 4976.46174682 0 22305.27308368 0 510
0.02350000 0.02348930 71192.11335694 0 4071.13524382 0 29455.24122260 0 2914.64648873 0 23236.98453003 0 555
0.02450000 0.02439640 77473.64118758 0 -1314.00752590 0 35905.49208809 0 4336.54448653 0 12697.28713823 0 592
0.02550000 0.02547300 71123.89916121 0 5696.54441782 0 37982.23538032 0 -5944.05979180 0 918.40583358 0 837
0.02650000 0.02652900 64961.77363453 0 8759.49362098 0 38414.03892849 0 -12007.67567157 0 1512.23512270 0 723
0.02750000 0.02749970 61544.80264165 0 -867.25726981 0 46134.21623011 0 2700.68898399 0 -6600.62966413 0 826
0.02850000 0.02848090 58060.82575603 0 -3891.38369809 0 35733.25399001 0 9411.37308082 0 -12618.19821564 0 831
0.02950000 0.02946900 61340.59943737 0 2073.52481246 0 38254.65278033 0 6408.61933541 0 -9033.48181487 0 996
0.03050000 0.03053250 59179.05524481 0 -324.79074363 0 23776.98611812 0 3289.85751897 0 -4807.03569933 0 1041
0.03150000 0.03150510 61878.40411095 0 -880.22236083 0 26810.48568219 0 13890.32156629 0 -3998.39540418 0 1036
0.03250000 0.03246190 61515.14429568 0 -1208.21510737 0 16985.00519963 0 538.06940178 0 -10481.59998742 0 1059
0.03350000 0.03345080 59414.56448095 0 2452.55847395 0 15327.76273428 0 891.95717972 0 1360.94460454 0 1302
0.03450000 0.03451200 56203.99360688 0 3542.05232086 0 19450.93189841 0 -5833.67582193 0 -5781.78470105 0 1339
0.03550000 0.03553350 52365.65440978 0 1076.91321593 0 19308.46199203 0 -4281.61063905 0 -8767.33660580 0 1365
0.03650000 0.03647120 48618.92654801 0 5012.56803690 0 25774.86017922 0 2608.42955888 0 -12901.16080534 0 1308
0.03750000 0.03744890 47065.04891065 0 1818.32023768 0 23061.34121445 0 -258.90857266 0 -6437.15725497 0 1579
0.03850000 0.03847530 45193.27774279 0 -635.48718218 0 25224.64293862 0 672.16576848 0 -5407.60622064 0 1662
0.03950000 0.03950240 45331.68335732 0 -389.78206576 0 21545.14066105 0 4871.71286269 0 -11295.21629394 0 1683
0.04050000 0.04050350 45191.30051973 0 1362.87788931 0 17605.96308765 0 2828.27479453 0 -4017.01425471 0 1822
0.04150000 0.04152450 43692.56543673 0 -14.63870050 0 18150.13881333 0 3943.81306302 0 -650.80516864 0 1887
0.04250000 0.04250150 43006.68872475 0 1141.20921462 0 18112.57157510 0 2276.24509945 0 3535.92292936 0 1920
0.04350000 0.04349210 41675.68806507 0 1915.22613699 0 16626.24905912 0 493.88725395 0 1007.35011469 0 2005
0.04450000 0.04448520 41133.92894536 0 -273.25442445 0 14700.43379416 0 3720.01338125 0 4431.09968731 0 2151
0.04550000 0.04548030 40414.43944128 0 -544.32950970 0 16697.20939800 0 -2510.77670864 0 3375.16370963 0 2274
0.04650000 0.04648670 39112.21836176 0 237.78414113 0 14563.78571125 0 3199.66319350 0 5525.48166901 0 2311
0.04750000 0.04749250 40636.21796170 0 1445.29513739 0 14526.32831875 0 934.40815892 0 2358.60742467 0 2568
0.04850000 0.04851840 38563.97834422 0 1977.01435776 0 13171.82067374 0 239.55375577 0 5602.01118619 0 2493
0.04950000 0.04949480 37303.38879479 0 180.82803383 0 16888.01142373 0 -1713.27477008 0 697.00078863 0 2644
0.05050000 0.05050630 34862.94630439 0 1596.44285611 0 15242.30275960 0 94.89374531 0 2454.41486672 0 2829
0.05150000 0.05149060 33429.78911971 0 82.49622715 0 16453.46173242 0 1736.37532622 0 2025.98358233 0 2784
0.05250000 0.05249300 35443.15142814 0 -594.47847736 0 14554.44882455 0 1664.70099013 0 824.25376662 0 3055
0.05350000 0.05348950 34177.50897532 0 -49.11301262 0 12968.05685236 0 2200.16594975 0 579.43510521 0 3009
0.05450000 0.05448610 34968.94742980 0 466.04246091 0 12316.34216111 0 -754.62036411 0 2410.69626785 0 3336
0.05550000 0.05550870 33786.34834570 0 632.23684715 0 11246.22510023 0 1787.31078928 0 2563.86514792 0 3349
0.05650000 0.05647670 34755.84672172 0 -168.04858209 0 11243.25926563 0 1140.84672373 0 1561.23730099 0 3324
0.05750000 0.05747970 33274.57710913 0 567.02803048 0 11532.37321597 0 -109.47752294 0 1904.56011702 0 3639
0.05850000 0.05849280 31672.03781524 0 1726.71988692 0 12797.68613162 0 256.32390273 0 3834.50558127 0 3846
0.05950000 0.05951020 31068.87493480 0 148.67179606 0 11650.01798832 0 1316.99532964 0 4600.21816677 0 3787
0.06050000 0.06049470 30708.03172550 0 265.85631481 0 11856.41810712 0 1827.31660262 0 5208.29115115 0 3930
0.06150000 0.06148310 29840.58002875 0 419.44151019 0 10494.05649272 0 1141.79139697 0 3301.64396535 0 4083
0.06250000 0.06249100 28829.88950554 0 203.67045252 0 10533.24944769 0 -53.97873889 0 5346.55396623 0 4303
0.06350000 0.06350600 29562.01126809 0 181.11473118 0 10107.89384363 0 -129.59598731 0 2518.68560089 0 4470
0.06450000 0.06451750 29038.37669314 0 824.77223844 0 10982.47452798 0 -1104.31203532 0 575.53668040 0 4479
0.06550000 0.06550280 27676.50938450 0 309.20802896 0 10027.25609631 0 -417.52470227 0 1939.26038180 0 4636
0.06650000 0.06648880 28685.99160473 0 -320.93955248 0 11486.45770258 0 572.65323010 0 1351.11341208 0 4653
0.06750000 0.06749660 28623.92876964 0 -546.47479672 0 8207.39801847 0 874.69272699 0 -2810.12828062 0 5220
0.06850000 0.06852730 29378.12952308 0 -298.52992596 0 9330.03232085 0 843.27025867 0 -454.43835843 0 5029
0.06950000 0.06949320 28862.07430321 0 347.09601671 0 7239.90981922 0 -687.09929491 0 -2238.27143204 0 5040
0.07050000 0.07048030 28879.97915651 0 604.92480588 0 9177.98386718 0 -319.36546323 0 -2068.69160053 0 5475
0.07150000 0.07148790 28915.23963450 0 488.21482066 0 10217.26723282 0 539.66765709 0 -2301.65241583 0 5509
0.07250000 0.07249820 28478.71272012 0 115.46433469 0 9081.26470560 0 -781.49302247 0 -2181.84368269 0 5916
0.07350000 0.07351270 27483.94982715 0 208.23344397 0 9877.34963429 0 1030.54403969 0 -1912.07356466 0 5721
0.07450000 0.07449140 27018.09410398 0 336.59915915 0 9044.86183207 0 325.78265053 0 -2047.68909775 0 6028
0.07550000 0.07549160 26801.03894977 0 1069.81608359 0 9527.50198215 0 -418.15631520 0 -1095.90004964 0 6183
0.07650000 0.07648840 25745.09198752 0 552.37241374 0 9854.08430956 0 469.61134854 0 -104.05059486 0 6330
0.07750000 0.07749960 25457.73556880 0 -283.36572351 0 10733.72888188 0 1339.15121254 0 769.59013962 0 6583
0.07850000 0.07848650 25107.76708635 0 -7.64614128 0 8557.24567061 0 1346.23626185 0 1705.23406296 0 6549
0.07950000 0.07947320 25281.65287032 0 280.61518653 0 8489.64661094 0 -141.77568139 0 859.95802133 0 6828
0.08050000 0.08048110 25212.77960023 0 186.40380288 0 7691.68332034 0 1633.29609712 0 2269.46761817 0 7147
0.08150000 0.08149960 25166.64439539 0 249.62111654 0 8363.70848630 0 432.44175184 0 816.27127772 0 7386
0.08250000 0.08250610 24559.19753164 0 685.85693975 0 8261.95839048 0 -1512.98207364 0 3606.22419388 0 7227
0.08350000 0.08350160 23849.92368006 0 3.02037300 0 8745.62010581 0 266.01449266 0 1205.24927277 0 7798
0.08450000 0.08449610 23125.38127260 0 383.71418787 0 8710.74408786 0 306.16530236 0 323.94273462 0 7371
0.08550000 0.08548940 22415.55819239 0 1170.03273307 0 9247.81279508 0 -1238.31283624 0 481.70206758 0 8256
0.08650000 0.08650700 22009.12900688 0 661.07794092 0 9508.38882585 0 975.96060008 0 818.09801214 0 8037
0.08750000 0.08749060 21120.25739360 0 101.82885521 0 9304.53712789 0 627.70790787 0 2061.88116553 0 8155
0.08850000 0.08849210 20946.70114682 0 -134.65328453 0 7708.08328721 0 2142.14543738 0 1461.88184199 0 8718
0.08950000 0.08949900 20444.70617985 0 -186.31263092 0 7563.24071315 0 1123.32633046 0 1942.64363016 0 8571
0.09050000 0.09049190 19811.44557053 0 727.34457193 0 5975.06924019 0 134.57419561 0 1162.07990253 0 8932
0.09150000 0.09150830 19241.78563646 0 746.72794871 0 6075.39134158 0 -436.61039713 0 1811.13632721 0 9285
0.09250000 0.09250820 18529.21641311 0 518.80465839 0 5796.03169169 0 -307.04406817 0 668.61335771 0 9204
0.09350000 0.09350330 17593.11113773 0 217.79551440 0 6369.85477877 0 -180.87636595 0 -231.46361806 0 9349
0.09450000 0.09448040 17481.50788030 0 371.00613585 0 5292.93826747 0 944.75342938 0 -25.35261321 0 9564
0.09550000 0.09549270 17490.40538410 0 -306.18836996 0 5618.04866216 0 4.60296431 0 -640.68727884 0 10155
0.09650000 0.09649430 17675.27574064 0 -96.01164526 0 4142.45807359 0 756.88318606 0 -854.74913702 0 9913
0.09750000 0.09749140 17154.05777165 0 309.91543544 0 4019.55169097 0 625.50000879 0 -87.61525767 0 10476
0.09850000 0.09850240 17274.55853287 0 -134.05682224 0 3903.25802105 0 181.38275475 0 112.80387121 0 10575
0.09950000 0.09950330 17398.57435732 0 582.53275468 0 4346.37567899 0 -503.58992691 0 -586.18951889 0 10882
0.10050000 0.10051200 16723.46252647 0 480.65194244 0 5226.44864963 0 -881.37683941 0 79.44383413 0 10875
0.10150000 0.10150300 16307.25707136 0 7.43455645 0 5883.79842662 0 -260.47497271 0 949.10222166 0 11118
0.10250000 0.10250800 16240.36102434 0 -62.03284720 0 5396.33604917 0 684.46629286 0 -225.58247790 0 11575
0.10350000 0.10349800 16592.74611275 0 -159.99359502 0 5024.66205131 0 1332.37373125 0 801.04116784 0 11364
0.10450000 0.10450100 16651.84311324 0 -84.82913068 0 4450.61927278 0 294.42279427 0 231.02423516 0 12093
0.10550000 0.10551000 16547.92905662 0 558.00640102 0 4518.91036052 0 -507.01491664 0 705.91696620 0 12067
0.10650000 0.10649700 16044.61594094 0 263.01680280 0 4816.36160145 0 -29.40295466 0 926.02033930 0 12054
0.10750000 0.10749900 15347.09558202 0 -34.51341720 0 4514.21994803 0 18.00920675 0 438.44152538 0 12807
0.10850000 0.10850100 15501.64851824 0 358.33982521 0 4636.46725629 0 556.49053000 0 213.97617851 0 12736
0.10950000 0.10950300 15226.04559218 0 448.36388980 0 5036.27274453 0 -482.86423536 0 550.57973149 0 12933
0.11050000 0.11050200 14520.06711237 0 246.12362863 0 4775.99329721 0 114.88215234 0 546.93395185 0 13428
0.11150000 0.11150900 14760.51940618 0 -50.62547842 0 5025.35407938 0 -280.82718879 0 175.20393267 0 13453
0.11250000 0.11250000 14370.01785091 0 9.38767936 0 4653.26266776 0 472.73975481 0 582.60525286 0 13668
0.11350000 0.11349100 14487.88231471 0 70.68737225 0 4915.31063126 0 141.39231981 0 328.29592074 0 13791
0.11450000 0.11448600 14421.86503350 0 244.44738285 0 4856.97156628 0 -563.21967916 0 -144.77776508 0 14205
0.11550000 0.11549300 14180.53397389 0 139.94235623 0 4937.53242160 0 294.47002793 0 -53.79430792 0 14776
0.11650000 0.11649800 14307.95501583 0 -232.10182173 0 4872.99805768 0 660.98347360 0 528.98625871 0 14553
0.11750000 0.11747300 14409.12292930 0 64.95012999 0 4177.45492183 0 -20.17964844 0 -475.61441746 0 14568
0.11850000 0.11849100 14209.31355405 0 214.58801921 0 4239.60563350 0 -199.14041478 0 -763.84410970 0 16015
0.11950000 0.11950300 13722.91668015 0 285.70763438 0 4381.08692834 0 227.41360615 0 14.76293601 0 15270
0.12050000 0.12050700 13629.32812175 0 19.12095534 0 4312.42236514 0 319.62799451 0 267.27881696 0 15999
0.12150000 0.12150000 13687.98573934 0 18.28689674 0 3702.51495713 0 545.00615937 0 -163.87334605 0 15670
0.12250000 0.12250700 13567.37513239 0 42.88640765 0 3917.95537917 0 198.73398560 0 -148.77834641 0 16887
0.12350000 0.12352200 13340.43386286 0 308.79061521 0 3538.83384110 0 -227.59814697 0 499.54980111 0 16407
0.12450000 0.12449800 13166.54807890 0 207.10203299 0 4049.37480553 0 34.14477495 0 199.61055449 0 16306
0.12550000 0.12549900 12834.70414122 0 -100.27168220 0 3929.78576384 0 361.43747467 0 895.01418627 0 17523
0.12650000 0.12650100 13146.33646535 0 190.60210652 0 3837.70209189 0 187.10901244 0 -96.76716416 0 17154
0.12750000 0.12750600 12718.26767186 0 305.04817133 0 3822.35664399 0 -456.82530606 0 436.14574971 0 18007
0.12850000 0.12850300 12407.29442208 0 127.02669579 0 4105.24234168 0 138.73954553 0 616.73431987 0 17496
0.12950000 0.12949900 12219.78776812 0 -178.14560121 0 3519.95136083 0 694.47982922 0 773.86863064 0 18405
0.13050000 0.13049000 12612.37639217 0 113.08837164 0 3609.13510562 0 270.75433573 0 519.20889066 0 18100
0.13150000 0.13148800 12102.69222440 0 458.09292573 0 3432.03084189 0 -382.87826190 0 601.94029751 0 19059
0.13250000 0.13249300 11934.07903527 0 -26.74831300 0 3454.04392534 0 211.03121460 0 966.49299697 0 18957
0.13350000 0.13349100 11873.55404035 0 -137.10284422 0 3150.90267581 0 436.46100695 0 580.37099079 0 19468
0.13450000 0.13450700 12060.73115714 0 172.32158083 0 3259.97948155 0 -158.46893634 0 453.08835446 0 19953
0.13550000 0.13551000 11572.46690590 0 287.74966643 0 3374.60349643 0 -297.23594331 0 441.99283770 0 19956
0.13650000 0.13649900 11612.89013300 0 42.58290391 0 3546.72076421 0 247.00019752 0 946.50546870 0 19723
0.13750000 0.13749600 11453.72367629 0 -42.29269151 0 3667.60598547 0 -181.58926471 0 44.99302898 0 20946
0.13850000 0.13851100 11513.58959686 0 280.95680674 0 3527.30003989 0 -197.38068626 0 468.82485314 0 20955
0.13950000 0.13949800 11267.20563386 0 249.21908118 0 4226.21543952 0 -129.67507624 0 788.68242523 0 20506
0.14050000 0.14048300 11188.55609418 0 -11.20865786 0 4295.74778396 0 81.54990623 0 -201.75584152 0 21447
0.14150000 0.14148400 10988.30733602 0 321.51184871 0 4686.53493811 0 -441.60398383 0 418.41774802 0 21771
0.14250000 0.14249400 10846.67225716 0 107.75602073 0 4388.90794402 0 38.13766708 0 88.97668559 0 22470
0.14350000 0.14350900 10757.37866664 0 -242.23179456 0 4181.81579714 0 763.64528894 0 797.06145719 0 22519
0.14450000 0.14449900 10711.84761329 0 -49.52724085 0 3932.18040066 0 571.55257592 0 522.42297660 0 22218
0.14550000 0.14550500 10710.50749544 0 438.28883982 0 3883.29905267 0 -60.25719104 0 741.57288880 0 23559
0.14650000 0.14650700 10492.89212803 0 241.67048290 0 3957.62067076 0 -306.22901288 0 474.92788167 0 23044
0.14750000 0.14750500 10239.32425456 0 54.56443630 0 4216.98839855 0 -80.98035614 0 780.98883059 0 23649
0.14850000 0.14849900 9877.12994284 0 24.14815483 0 3957.76347020 0 115.74444129 0 659.75320147 0 23640
0.14950000 0.14949500 10005.53959631 0 70.43692399 0 3688.08122876 0 453.15426190 0 404.55192206 0 24457
0.15050000 0.15050000 9806.64194058 0 173.50022547 0 3902.63190042 0 -24.30556375 0 344.17082503 0 24591
0.15150000 0.15149900 9923.04545623 0 -0.07430986 0 3526.66293468 0 241.87589441 0 599.86421330 0 25020
0.15250000 0.15250500 9664.27089536 0 40.44354856 0 3147.05807541 0 230.86166348 0 281.27426089 0 25297
0.15350000 0.15350100 9881.60066388 0 -56.03790687 0 3081.91956000 0 315.78449257 0 79.78281804 0 25452
0.15450000 0.15450400 9793.17485460 0 -33.64706397 0 2777.92151381 0 44.73785736 0 330.95967959 0 26061
0.15550000 0.15549900 9665.65495150 0 92.12772009 0 2651.68680571 0 240.26885144 0 163.42078166 0 26128
0.15650000 0.15649500 9631.97625197 0 176.72200060 0 2477.41656171 0 219.74966986 0 54.13790535 0 26331
0.15750000 0.15749700 9429.98094677 0 36.79491293 0 2353.88405846 0 0.24475166 0 271.74514418 0 27345
0.15850000 0.15849900 9422.33568425 0 129.03797103 0 2336.82501724 0 485.87181133 0 407.57597489 0 26980
0.15950000 0.15949700 9156.15752146 0 75.00925233 0 2252.97977472 0 -299.66133693 0 535.06512118 0 27777
0.16050000 0.16050000 9025.52898432 0 208.81233094 0 2299.30171730 0 88.07111743 0 468.46346071 0 28224
0.16150000 0.16150500 8832.07967659 0 29.76808185 0 2005.95870651 0 393.84525916 0 830.84451016 0 28075
0.16250000 0.16249700 8914.31018694 0 -8.33738945 0 2076.05126416 0 179.31216282 0 713.01959083 0 28590
0.16350000 0.16349900 8841.09801068 0 107.64408793 0 2063.11143766 0 -283.01531564 0 325.68598629 0 29163
0.16450000 0.16449100 8509.45179531 0 240.06014456 0 2215.81896568 0 -343.76110048 0 800.81818101 0 28996
0.16550000 0.16550500 8296.24124150 0 315.03095089 0 2529.51638946 0 -279.71115621 0 278.01403975 0 30777
0.16650000 0.16650700 8267.20901617 0 37.89062404 0 2626.32342762 0 -117.65905229 0 325.93423763 0 29211
0.16750000 0.16749900 8255.48847723 0 -94.19710371 0 2525.68277363 0 518.61792065 0 46.10214128 0 30922
0.16850000 0.16850800 8341.17912793 0 -7.08527999 0 2396.60306122 0 83.77538063 0 350.38699466 0 30867
0.16950000 0.16949900 8227.77440060 0 38.32846911 0 2504.02119650 0 -159.99469348 0 109.96326074 0 30852
0.17050000 0.17049200 8271.18543144 0 36.04840138 0 2369.55904353 0 192.96818345 0 442.21911989 0 31257
0.17150000 0.17149500 8191.40448079 0 12.48770149 0 2281.49572514 0 122.32420027 0 414.56216305 0 32608
0.17250000 0.17250900 8315.72787326 0 51.70921635 0 2324.40146565 0 -113.78259663 0 259.67859119 0 32361
0.17350000 0.17350400 8186.56028428 0 125.66680570 0 2365.13226078 0 25.04153011 0 202.46105108 0 32508
0.17450000 0.17449800 8077.42855568 0 -1.65636370 0 2313.43886221 0 12.08478737 0 336.24106209 0 32791
0.17550000 0.17549800 8001.59106658 0 126.50383013 0 2236.51390042 0 86.88269652 0 271.28489058 0 33633
0.17650000 0.17650100 7912.62701324 0 181.51896345 0 2406.79674458 0 20.38703717 0 235.91346841 0 33984
0.17750000 0.17750300 7813.26056967 0 -2.88893160 0 2184.63376412 0 168.33418098 0 398.12924247 0 34069
0.17850000 0.17849800 7821.79558257 0 35.43590161 0 2174.19842017 0 228.63289371 0 -232.58843829 0 34536
