### header ###
fiducial parameters:
Omega_m = 0.31
Omega_nu = 0
Omega_de = 0.69
Omega_k = 0
H_0 = 100
w_de = -1
zeff = 0
beta = 0
fgrowth = 0
b_1 = 2
gamma = 0.55
Lx = 3500 Ly = 3500 Lz = 3500
nx = 700 ny = 700 nz = 700
xoffset = -983.599254 yoffset = -42.9823471 zoffset = 800.977702
bins = 400 dk = 0.001
kx_ny = 0.628318531 ky_ny = 0.628318531 kz_ny = 0.628318531
############################
A(data) = 9.06870633 (not used)
A(ran) = 9.06976248 (used)
Ngal = 503344
weighted Ngal = 0
Nran = 25229228
weighted Nran = 0
SN(data) = 6731.56348
SN(ran) = 134.634375
SN(data+ran) = 6866.19785
############################
13 columns: k_central k_mean P_0(k) sigma^{lin}_{P_0(k)} P^img_1(k) sigma^{lin}_{P_1(k)} P_2(k) sigma^{lin}_{P_2(k)} P^img_3(k) sigma^{lin}_{P_3(k)} P_4(k) sigma^{lin}_{P_4(k)} N_modes
### header ###
0.00050000 0 0 0 0 0 0 0 0 0 0 0 0
0.00150000 0.00179520 11689.12306671 0 -16227.94845732 0 -1183.80738709 0 -16234.64904660 0 26102.52997932 0 3
0.00250000 0.00253879 14293.34553430 0 -6819.47530367 0 -10307.53845029 0 -5208.34607402 0 -14265.44471994 0 6
0.00350000 0.00331552 18813.93653442 0 2648.75392483 0 -1770.22977892 0 -9174.94114057 0 16676.33871009 0 7
0.00450000 0.00420575 32754.23790595 0 -7894.29376161 0 -9266.20096958 0 -12264.16544134 0 6152.64584054 0 24
0.00550000 0.00557378 29690.31107584 0 2251.82639460 0 738.37088589 0 -6521.81535586 0 1338.74478335 0 45
0.00650000 0.00659388 32133.82924656 0 5084.72569419 0 -2162.93923327 0 -4329.75602067 0 14224.25257276 0 40
0.00750000 0.00754703 39064.65516248 0 -13083.28501873 0 -5885.49005079 0 12383.67759103 0 -4824.11670969 0 57
0.00850000 0.00846663 42517.76539915 0 -15377.74253953 0 -5731.74997294 0 -308.88398407 0 -8788.64667661 0 75
0.00950000 0.00948925 57168.65877097 0 4995.78360999 0 -6396.69008958 0 -16679.30454469 0 -10417.48303726 0 112
0.01050000 0.01054430 57479.85171220 0 1890.90629330 0 9305.80035374 0 -6811.13801308 0 -880.57496561 0 105
0.01150000 0.01145670 60341.77225254 0 865.48216288 0 10656.93573496 0 -11625.96177437 0 -10142.55017012 0 144
0.01250000 0.01249090 58097.18469127 0 1391.28399401 0 29824.54255278 0 -5515.60653826 0 -1014.62739402 0 169
0.01350000 0.01339930 66767.52752118 0 -3409.44656066 0 36201.85585633 0 -6458.86277039 0 -27002.82554809 0 180
0.01450000 0.01448870 65939.51044000 0 -5985.91101333 0 19289.56852719 0 14773.15166465 0 -867.17927935 0 267
0.01550000 0.01550050 77933.12585866 0 -132.39156104 0 34261.21141839 0 4293.44102372 0 2093.58264200 0 238
0.01650000 0.01653350 68794.40085389 0 1995.00708765 0 19890.09511022 0 950.41268117 0 17420.43365675 0 315
0.01750000 0.01747870 76417.36468816 0 3584.48572474 0 43606.22669624 0 -5598.02378634 0 -13271.12120988 0 297
0.01850000 0.01844180 70785.35463426 0 130.40994414 0 20707.34731027 0 17445.03909933 0 20868.27129858 0 388
0.01950000 0.01947590 72024.63411288 0 1227.95438430 0 33718.79322432 0 8877.78648310 0 12983.21556252 0 399
0.02050000 0.02045430 75784.76315320 0 1249.87959117 0 22653.92341741 0 1921.90475712 0 17431.30838361 0 462
0.02150000 0.02154770 72186.32702128 0 -319.92457797 0 23709.43099675 0 6736.58571897 0 4244.17521569 0 571
0.02250000 0.02255340 74922.47420557 0 -2095.20835874 0 16431.05320435 0 5175.31546426 0 32843.43263531 0 510
0.02350000 0.02348930 68231.77104627 0 -2033.34324596 0 18993.64414185 0 -573.71324135 0 7060.81734785 0 555
0.02450000 0.02439640 72285.62755742 0 4395.31194984 0 17286.20217981 0 -5053.19997088 0 10761.98120255 0 592
0.02550000 0.02547300 61808.43238361 0 7872.29166273 0 22169.39392084 0 -8332.75396076 0 -4979.74613403 0 837
0.02650000 0.02652900 62137.64002387 0 5151.16038916 0 32727.32570313 0 72.86286685 0 10959.72547816 0 723
0.02750000 0.02749970 58332.91361887 0 -1808.51101436 0 28277.25565897 0 7177.85796871 0 -3985.65329999 0 826
0.02850000 0.02848090 56160.05531655 0 -739.01348338 0 25327.23884653 0 5250.32911042 0 3821.30212503 0 831
0.02950000 0.02946900 56037.57733227 0 -780.63183198 0 16250.57667684 0 6801.74620352 0 -4887.70640037 0 996
0.03050000 0.03053250 54023.99533238 0 1689.87763049 0 13972.92555210 0 1322.16906333 0 1022.99544142 0 1041
0.03150000 0.03150510 55994.51780775 0 165.03221846 0 12465.84219394 0 1505.43567227 0 -3982.34694364 0 1036
0.03250000 0.03246190 53714.99930567 0 -78.44940077 0 9228.75456165 0 868.02399298 0 -9515.34206030 0 1059
0.03350000 0.03345080 51016.52920534 0 2002.80613418 0 10457.70854205 0 -2853.27568172 0 -5372.10408206 0 1302
0.03450000 0.03451200 49630.93521993 0 2305.28830936 0 10062.87906519 0 -5363.07476340 0 -13918.22238064 0 1339
0.03550000 0.03553350 47245.96482107 0 306.89357952 0 13613.73002869 0 4493.20646068 0 -8786.01037919 0 1365
0.03650000 0.03647120 46992.99011452 0 790.54870411 0 11171.09062377 0 -1875.69266027 0 -11580.26595243 0 1308
0.03750000 0.03744890 46427.17478085 0 528.74569657 0 13502.12677126 0 -2153.19591739 0 -12462.76651361 0 1579
0.03850000 0.03847530 45294.77519344 0 251.23804562 0 12793.40214831 0 3233.64946107 0 -7229.69416672 0 1662
0.03950000 0.03950240 46429.92092400 0 -2370.88817681 0 9355.47259095 0 5026.30973720 0 -6892.39089646 0 1683
0.04050000 0.04050350 46830.52828604 0 1416.32881949 0 8450.26691824 0 2721.46081075 0 -6521.96913987 0 1822
0.04150000 0.04152450 48477.44525316 0 2253.93543254 0 10123.18436866 0 -3476.66116029 0 -4502.45547079 0 1887
0.04250000 0.04250150 45248.42029715 0 1342.58938375 0 13022.65017809 0 -1788.15660137 0 -1911.87584236 0 1920
0.04350000 0.04349210 41445.01204086 0 1076.19372643 0 15545.25727139 0 -2237.86500285 0 -9.86872674 0 2005
0.04450000 0.04448520 39428.24451492 0 1988.67997384 0 17323.00049796 0 -1229.81077706 0 -4175.36785304 0 2151
0.04550000 0.04548030 38319.35191284 0 2023.92946726 0 18015.35810776 0 674.19461904 0 -2718.98928191 0 2274
0.04650000 0.04648670 36686.27550717 0 191.21175030 0 19306.70446042 0 3925.86427143 0 954.66480922 0 2311
0.04750000 0.04749250 37532.63682456 0 -401.98043361 0 17591.90283475 0 276.94853621 0 -1766.98933001 0 2568
0.04850000 0.04851840 36114.96788721 0 726.80303250 0 16678.86516179 0 1546.07859082 0 1126.07247360 0 2493
0.04950000 0.04949480 36241.40031763 0 -347.66941140 0 15909.50569819 0 638.33877722 0 -235.32689224 0 2644
0.05050000 0.05050630 36382.44222957 0 328.94401052 0 15022.94084515 0 1401.11518647 0 4048.89148434 0 2829
0.05150000 0.05149060 38590.67085560 0 -179.02326856 0 12266.25251013 0 1270.04726643 0 -2463.93849115 0 2784
0.05250000 0.05249300 37607.77130102 0 -186.37414453 0 15011.73658112 0 604.76003729 0 -840.10780022 0 3055
0.05350000 0.05348950 36888.61133412 0 1179.90786382 0 14249.95647260 0 -1332.30782382 0 895.13391811 0 3009
0.05450000 0.05448610 35923.83632430 0 -287.90125353 0 14326.95832639 0 -102.34150521 0 774.25528760 0 3336
0.05550000 0.05550870 36118.26325899 0 1448.74429318 0 15913.56999004 0 1410.37518115 0 -1137.68316682 0 3349
0.05650000 0.05647670 35262.34536345 0 553.67957788 0 14214.47630316 0 924.41000095 0 1597.94774255 0 3324
0.05750000 0.05747970 34759.80116785 0 -572.58183038 0 14484.80663439 0 1288.80891640 0 -352.91344635 0 3639
0.05850000 0.05849280 34964.11421787 0 1172.43835447 0 15165.08121435 0 297.57756351 0 -54.15031792 0 3846
0.05950000 0.05951020 32889.01861153 0 697.25123689 0 13876.59085056 0 -1048.89376819 0 2209.01951525 0 3787
0.06050000 0.06049470 31925.67159614 0 11.97812717 0 14611.56860198 0 1562.07212850 0 3442.51012413 0 3930
0.06150000 0.06148310 33803.70397037 0 -991.33900169 0 13074.60720640 0 4259.82823162 0 1588.27033411 0 4083
0.06250000 0.06249100 33081.79786033 0 -236.77905273 0 11069.81286457 0 2487.19283130 0 2565.97418586 0 4303
0.06350000 0.06350600 33962.21135272 0 1169.91190278 0 11033.56377506 0 -1927.71559602 0 2185.77615967 0 4470
0.06450000 0.06451750 32391.96670222 0 1554.63557286 0 12588.86940685 0 -2003.79474572 0 1807.06105078 0 4479
0.06550000 0.06550280 31274.61597925 0 103.30529161 0 12854.25668041 0 2025.67601430 0 4238.03483962 0 4636
0.06650000 0.06648880 32029.91518994 0 -733.55524927 0 12877.10459138 0 731.39787921 0 2565.17231206 0 4653
0.06750000 0.06749660 29579.36689277 0 600.96816284 0 11003.57589191 0 789.86985752 0 2884.74648217 0 5220
0.06850000 0.06852730 30355.53679136 0 1291.00583091 0 12798.56489743 0 -594.66741201 0 2763.55369288 0 5029
0.06950000 0.06949320 29418.55275018 0 116.12340904 0 11882.34169842 0 446.29439632 0 4725.76084680 0 5040
0.07050000 0.07048030 29233.68239363 0 237.21514027 0 11758.43571970 0 1089.78713500 0 1718.81099467 0 5475
0.07150000 0.07148790 29289.26433089 0 -195.67148676 0 10896.25661779 0 1438.07827320 0 4202.58762390 0 5509
0.07250000 0.07249820 29328.80879219 0 4.33674221 0 10429.63197453 0 1122.46953380 0 1100.05002116 0 5916
0.07350000 0.07351270 29009.81680442 0 456.15634559 0 10275.04608460 0 -801.54426126 0 2511.89713504 0 5721
0.07450000 0.07449140 27702.54282152 0 994.96940293 0 9910.79765780 0 -676.71557845 0 2803.08716960 0 6028
0.07550000 0.07549160 26882.32478687 0 563.79527077 0 11549.06976630 0 -222.01249181 0 3105.92085109 0 6183
0.07650000 0.07648840 25723.67207099 0 648.32045832 0 11374.63475371 0 -34.44080918 0 593.95780862 0 6330
0.07750000 0.07749960 25356.89719250 0 588.40840255 0 11304.55318064 0 442.65850280 0 491.12463394 0 6583
0.07850000 0.07848650 24526.57335107 0 915.19394456 0 11994.82372165 0 -398.33904780 0 602.88606921 0 6549
0.07950000 0.07947320 23652.09152787 0 296.01775421 0 11692.85782139 0 174.33944681 0 571.48007775 0 6828
0.08050000 0.08048110 23675.59851320 0 232.97179988 0 10728.51120990 0 1039.09333253 0 597.49264408 0 7147
0.08150000 0.08149960 23216.88276220 0 60.63736710 0 10277.29792198 0 850.00380166 0 -805.57230403 0 7386
0.08250000 0.08250610 22649.85912555 0 -178.20272099 0 10056.98034971 0 1594.30086446 0 1185.23538153 0 7227
0.08350000 0.08350160 23128.12741574 0 -61.66870862 0 7567.11826727 0 1522.29699119 0 265.13133302 0 7798
0.08450000 0.08449610 23276.63883704 0 354.65230419 0 7615.42841748 0 402.00350122 0 430.81054281 0 7371
0.08550000 0.08548940 22480.80655353 0 348.16591408 0 6703.37935606 0 177.50849600 0 1459.08077598 0 8256
0.08650000 0.08650700 22002.86780051 0 146.98017188 0 7383.42325999 0 482.50503984 0 1872.54008794 0 8037
0.08750000 0.08749060 21477.36584822 0 163.92717046 0 6679.44397240 0 -68.96455188 0 1272.11236607 0 8155
0.08850000 0.08849210 20949.44728996 0 681.86734299 0 7197.21278559 0 395.17329399 0 1294.04855752 0 8718
0.08950000 0.08949900 20403.18449549 0 404.84081631 0 6511.23721246 0 67.73878343 0 1899.46327534 0 8571
0.09050000 0.09049190 20564.21832953 0 -17.96526846 0 6980.66292173 0 882.97509472 0 2462.44458928 0 8932
0.09150000 0.09150830 19848.90296304 0 68.36929789 0 6423.05306378 0 -165.63417304 0 1591.42290644 0 9285
0.09250000 0.09250820 19882.40590941 0 385.59694361 0 6022.62145490 0 776.56644167 0 2002.23493641 0 9204
0.09350000 0.09350330 19274.73935421 0 496.88494380 0 6132.28044298 0 300.61809321 0 2600.04833000 0 9349
0.09450000 0.09448040 19226.73677203 0 267.84012862 0 6597.48807637 0 -41.31121995 0 1687.86745370 0 9564
0.09550000 0.09549270 18712.32923804 0 278.51273934 0 6435.00427875 0 -524.61549728 0 1237.56588530 0 10155
0.09650000 0.09649430 17770.29229347 0 277.57026302 0 6814.29058541 0 -473.74264629 0 2345.67858274 0 9913
0.09750000 0.09749140 17946.70452912 0 290.25744435 0 6803.31699740 0 -88.17547087 0 665.56953265 0 10476
0.09850000 0.09850240 17589.48622878 0 -3.81285499 0 6350.71965333 0 1024.91334779 0 1206.75415921 0 10575
0.09950000 0.09950330 17346.39763755 0 -16.53815279 0 6226.72579803 0 1065.38490701 0 1118.73477912 0 10882
0.10050000 0.10051200 17564.22171184 0 -112.61273965 0 5760.28789251 0 821.45160215 0 1304.63768549 0 10875
0.10150000 0.10150300 17249.95309029 0 374.98145267 0 5178.39114459 0 -142.63137960 0 777.00802149 0 11118
0.10250000 0.10250800 17002.91005294 0 682.09911747 0 5396.78641665 0 -838.89730032 0 332.14491497 0 11575
0.10350000 0.10349800 16533.97864944 0 293.14968231 0 5587.63238068 0 -395.26117057 0 1546.23237484 0 11364
0.10450000 0.10450100 16458.95401871 0 -162.03452860 0 5776.72081309 0 170.20595215 0 373.64902401 0 12093
0.10550000 0.10551000 16195.76365966 0 -86.09147776 0 5757.30008877 0 789.61281852 0 581.18494762 0 12067
0.10650000 0.10649700 15969.70115593 0 143.51014540 0 5423.94028007 0 522.27138950 0 318.70089659 0 12054
0.10750000 0.10749900 16222.67586248 0 208.11810596 0 4874.62377442 0 532.83415449 0 1338.15161643 0 12807
0.10850000 0.10850100 15753.41492181 0 160.05950245 0 4997.07978956 0 -217.62964735 0 1424.83087867 0 12736
0.10950000 0.10950300 15756.92998503 0 298.29595456 0 5404.51955575 0 -337.16266773 0 777.47706273 0 12933
0.11050000 0.11050200 15330.39903170 0 297.17223279 0 4918.79274077 0 -236.36822972 0 654.63988293 0 13428
0.11150000 0.11150900 15328.97103726 0 -219.22680421 0 5146.50293038 0 646.16528518 0 525.66452397 0 13453
0.11250000 0.11250000 15189.57681121 0 -43.16398780 0 4676.59389993 0 84.95094959 0 49.08412320 0 13668
0.11350000 0.11349100 14782.15901417 0 588.57646651 0 4985.19448203 0 -696.66685763 0 -999.94870968 0 13791
0.11450000 0.11448600 14471.18576439 0 491.64420422 0 4951.31806019 0 -713.85551680 0 -256.03720538 0 14205
0.11550000 0.11549300 13762.35129571 0 136.21968458 0 5618.10358502 0 157.33423000 0 -369.14534925 0 14776
0.11650000 0.11649800 14054.10154347 0 55.30435711 0 5264.08179529 0 871.41273362 0 -984.07819922 0 14553
0.11750000 0.11747300 14045.75326831 0 -199.36230315 0 4532.39941565 0 781.06352568 0 -143.24102338 0 14568
0.11850000 0.11849100 14033.23085557 0 -39.54424160 0 4492.83298521 0 165.19259322 0 -562.00149006 0 16015
0.11950000 0.11950300 13894.93508677 0 321.26140046 0 4507.84889593 0 69.97106827 0 787.90471749 0 15270
0.12050000 0.12050700 13620.87000087 0 145.69168152 0 4627.00953929 0 -523.69169473 0 -61.02611112 0 15999
0.12150000 0.12150000 13489.49451279 0 14.41527429 0 4741.79832277 0 733.70134408 0 1066.26147590 0 15670
0.12250000 0.12250700 13687.98573934 0 63.41986918 0 4654.28423301 0 517.09655735 0 580.06781659 0 16887
0.12350000 0.12352200 13569.13266401 0 30.66585097 0 4645.63937439 0 -297.68191695 0 1481.96164067 0 16407
0.12450000 0.12449800 13293.20020076 0 130.40005803 0 4611.05993991 0 252.41778872 0 1156.22512534 0 16306
0.12550000 0.12549900 13492.57019312 0 51.39198190 0 4653.46039007 0 -166.90179272 0 545.22585082 0 17523
0.12650000 0.12650100 13405.90191545 0 70.32565027 0 4838.90194439 0 156.46644876 0 1004.33265260 0 17154
0.12750000 0.12750600 13420.95077989 0 73.52523657 0 4391.40144200 0 341.62899494 0 300.10950749 0 18007
0.12850000 0.12850300 13379.75863271 0 -117.87654683 0 4807.37622108 0 -327.65002787 0 439.50153664 0 17496
0.12950000 0.12949900 12975.96574461 0 400.94788379 0 4459.09936282 0 -171.70095248 0 -315.39124487 0 18405
0.13050000 0.13049000 12742.76326871 0 415.26737261 0 4508.57387772 0 -50.35591701 0 229.33590635 0 18100
0.13150000 0.13148800 12592.71400725 0 -85.45415286 0 4523.16139011 0 482.30731753 0 119.98997859 0 19059
0.13250000 0.13249300 12643.90211548 0 -188.24042341 0 4313.60869898 0 673.61683052 0 30.94672649 0 18957
0.13350000 0.13349100 12324.25105336 0 176.61325333 0 3383.42410822 0 90.18828395 0 290.32005641 0 19468
0.13450000 0.13450700 12430.14233305 0 200.12902632 0 3741.68594296 0 -74.20562100 0 330.90695364 0 19953
0.13550000 0.13551000 12286.24443223 0 217.27814103 0 3690.45389644 0 179.17156029 0 452.43477239 0 19956
0.13650000 0.13649900 11855.42949559 0 141.57905754 0 3992.09025952 0 -278.12827930 0 292.02815745 0 19723
0.13750000 0.13749600 11814.89642277 0 151.61016922 0 3902.78568443 0 82.16910658 0 909.38200721 0 20946
0.13850000 0.13851100 11637.71526703 0 203.81435042 0 4351.11002977 0 87.58537963 0 684.28834278 0 20955
0.13950000 0.13949800 11468.88238645 0 174.82935875 0 4086.07426253 0 95.35114291 0 1222.25339113 0 20506
0.14050000 0.14048300 11354.86252306 0 -125.71294091 0 3869.24978434 0 688.44490505 0 947.30514559 0 21447
0.14150000 0.14148400 11174.27614982 0 54.14636347 0 3484.73482113 0 302.04828456 0 1519.71561663 0 21771
0.14250000 0.14249400 11265.55794797 0 140.24553043 0 3382.74306471 0 181.12461729 0 1413.19821631 0 22470
0.14350000 0.14350900 11073.43777353 0 149.92623425 0 3295.07519094 0 -10.98676950 0 1029.20062647 0 22519
0.14450000 0.14449900 10924.93733680 0 317.64857454 0 3498.48750600 0 -643.74977767 0 995.56806214 0 22218
0.14550000 0.14550500 10336.69150592 0 308.88178716 0 3520.92898779 0 -506.36792531 0 298.94184743 0 23559
0.14650000 0.14650700 10201.70209347 0 11.36013512 0 4099.09098103 0 144.39440350 0 537.59376979 0 23044
0.14750000 0.14750500 10389.52730004 0 -171.45929188 0 3479.61601031 0 787.15227426 0 -123.47538347 0 23649
0.14850000 0.14849900 10514.07038397 0 -17.50303764 0 3258.11210421 0 199.06242432 0 112.66546560 0 23640
0.14950000 0.14949500 10434.43223275 0 -4.54733843 0 2917.45853931 0 208.01594943 0 173.52768690 0 24457
0.15050000 0.15050000 10373.74246924 0 25.72729698 0 2945.63396799 0 -60.46589792 0 349.58841623 0 24591
0.15150000 0.15149900 10240.04923635 0 227.97711472 0 2928.57492677 0 -15.12795336 0 -78.64053233 0 25020
0.15250000 0.15250500 10010.66939171 0 127.71762540 0 2814.34635649 0 176.13322751 0 246.83213356 0 25297
0.15350000 0.15350100 9978.84708494 0 128.06583635 0 2741.91408489 0 243.54884482 0 288.73168722 0 25452
0.15450000 0.15450400 9727.38824941 0 174.42073265 0 2638.71402549 0 201.88545947 0 515.90143586 0 26061
0.15550000 0.15549900 9634.81027169 0 157.38475903 0 2833.90988026 0 -133.05063539 0 508.13753995 0 26128
0.15650000 0.15649500 9267.20056569 0 144.81950646 0 2456.93033384 0 153.55224166 0 369.09591868 0 26331
0.15750000 0.15749700 9011.75433031 0 49.55876658 0 2305.15649449 0 236.42864487 0 908.46589385 0 27345
0.15850000 0.15849900 9013.66564594 0 61.57841543 0 2285.01078837 0 196.63153841 0 457.46900201 0 26980
0.15950000 0.15949700 9038.63357941 0 90.73894057 0 2198.52924844 0 199.54354860 0 417.74439373 0 27777
0.16050000 0.16050000 8978.61387483 0 72.26201073 0 1988.05385321 0 103.31627618 0 708.61258031 0 28224
0.16150000 0.16150500 8804.47544570 0 68.48079131 0 2046.51374848 0 -233.78685516 0 443.53287477 0 28075
0.16250000 0.16249700 8663.79602465 0 139.12620249 0 2241.57778838 0 -222.41672408 0 459.85924500 0 28590
0.16350000 0.16349900 8584.79497864 0 26.86782515 0 2107.34631144 0 159.85079558 0 556.62564024 0 29163
0.16450000 0.16449100 8767.96272644 0 -100.65284687 0 2258.24138499 0 568.87453713 0 851.54713411 0 28996
0.16550000 0.16550500 8822.76475904 0 26.12581727 0 1958.90079758 0 -108.94806654 0 325.30482162 0 30777
0.16650000 0.16650700 8622.19744828 0 280.38560897 0 2440.31067553 0 -365.48199430 0 587.40770799 0 29211
0.16750000 0.16749900 8515.14180390 0 162.80454714 0 2361.48538268 0 -73.93638912 0 1131.35605302 0 30922
0.16850000 0.16850800 8397.94739903 0 -67.63937305 0 2652.44474122 0 140.79695598 0 574.60518864 0 30867
0.16950000 0.16949900 8414.10570530 0 70.52765656 0 2337.31932300 0 244.92081793 0 608.53213952 0 30852
0.17050000 0.17049200 8275.32661531 0 79.44625073 0 2261.31706531 0 -139.70069563 0 921.92089681 0 31257
0.17150000 0.17149500 8187.18640492 0 106.20225293 0 2375.04034525 0 -17.50084073 0 751.00753819 0 32608
0.17250000 0.17250900 8061.76455518 0 185.10982023 0 2511.04033838 0 75.49389167 0 688.75906382 0 32361
0.17350000 0.17350400 7922.63395887 0 9.11235105 0 2495.10172356 0 106.50015454 0 934.99912892 0 32508
0.17450000 0.17449800 7900.66481370 0 -82.07518849 0 2175.34081572 0 66.24015819 0 469.50809356 0 32791
0.17550000 0.17549800 8031.53501144 0 212.46689824 0 2484.78720991 0 -29.87737835 0 468.60296478 0 33633
0.17650000 0.17650100 7761.76489341 0 93.00373975 0 2293.02952636 0 -204.15157680 0 642.20314985 0 33984
0.17750000 0.17750300 7775.27591769 0 75.94755452 0 2686.06851789 0 -60.51444973 0 489.69004876 0 34069
0.17850000 0.17849800 7699.25169085 0 38.46083321 0 2432.21504553 0 36.81699192 0 415.75618609 0 34536
