### header ###
fiducial parameters:
Omega_m = 0.31
Omega_nu = 0
Omega_de = 0.69
Omega_k = 0
H_0 = 100
w_de = -1
zeff = 0
beta = 0
fgrowth = 0
b_1 = 2
gamma = 0.55
Lx = 3500 Ly = 3500 Lz = 3500
nx = 700 ny = 700 nz = 700
xoffset = -983.599254 yoffset = -42.9823471 zoffset = 800.977702
bins = 400 dk = 0.001
kx_ny = 0.628318531 ky_ny = 0.628318531 kz_ny = 0.628318531
############################
A(data) = 9.03883282 (not used)
A(ran) = 9.04391185 (used)
Ngal = 502567
weighted Ngal = 0
Nran = 25229228
weighted Nran = 0
SN(data) = 6720.61745
SN(ran) = 134.250641
SN(data+ran) = 6854.86809
############################
13 columns: k_central k_mean P_0(k) sigma^{lin}_{P_0(k)} P^img_1(k) sigma^{lin}_{P_1(k)} P_2(k) sigma^{lin}_{P_2(k)} P^img_3(k) sigma^{lin}_{P_3(k)} P_4(k) sigma^{lin}_{P_4(k)} N_modes
### header ###
0.00050000 0 0 0 0 0 0 0 0 0 0 0 0
0.00150000 0.00179520 3003.99500211 0 -10587.64505112 0 -11950.22635697 0 9770.57958880 0 -4133.20906347 0 3
0.00250000 0.00253879 8306.47886315 0 -8511.25326521 0 -4698.28843077 0 -13587.14736304 0 -22172.35975544 0 6
0.00350000 0.00331552 21359.17184724 0 -11304.44333491 0 -17339.58720255 0 -13356.14180166 0 17408.24078119 0 7
0.00450000 0.00420575 28885.80097998 0 -4035.84181211 0 -13338.01725690 0 -18479.23660787 0 -3807.16498011 0 24
0.00550000 0.00557378 30902.56850592 0 294.28438865 0 -13049.23284373 0 -9151.50006269 0 1116.69164862 0 45
0.00650000 0.00659388 37755.62364796 0 -12904.56602284 0 -1643.06138214 0 -1603.11049167 0 -20099.90044652 0 40
0.00750000 0.00754703 47833.30991699 0 -1881.20691571 0 -10455.50064296 0 -15025.68698829 0 -4248.30541498 0 57
0.00850000 0.00846663 60240.82403052 0 -13701.05738071 0 -11675.39235098 0 -8698.40841285 0 -31174.32683158 0 75
0.00950000 0.00948925 62916.22652843 0 2656.00374273 0 -1130.20267289 0 -8989.14807993 0 574.54806887 0 112
0.01050000 0.01054430 61932.66789950 0 1334.33996975 0 17021.25428915 0 -15470.56217784 0 -14909.03082748 0 105
0.01150000 0.01145670 65219.47170729 0 8435.39380696 0 7615.23069518 0 6420.68039610 0 11782.16239647 0 144
0.01250000 0.01249090 66997.65431676 0 -9368.64309347 0 28234.19613446 0 -4289.66233075 0 -25125.78178539 0 169
0.01350000 0.01339930 65415.65617359 0 1259.42518474 0 21308.64281337 0 7519.24749996 0 585.61173037 0 180
0.01450000 0.01448870 63865.62313664 0 2525.32028273 0 20674.72312970 0 -3325.95282447 0 5552.84423931 0 267
0.01550000 0.01550050 70225.58081551 0 -4427.45280921 0 23851.02213732 0 7875.48817335 0 10958.63800548 0 238
0.01650000 0.01653350 73219.31622683 0 1619.10402934 0 32016.29431994 0 2688.14460211 0 -18185.72882849 0 315
0.01750000 0.01747870 66825.41621868 0 3484.25149994 0 11096.83491312 0 -30.40958089 0 3654.67714354 0 297
0.01850000 0.01844180 67662.22095793 0 182.25273290 0 34755.40733882 0 -1444.40538701 0 -126.84105651 0 388
0.01950000 0.01947590 68323.05284442 0 2186.07274313 0 19451.48112704 0 622.91424040 0 -11529.07784420 0 399
0.02050000 0.02045430 60628.68928837 0 444.15460158 0 25975.21878310 0 3686.89489492 0 -13.39700441 0 462
0.02150000 0.02154770 60879.46708040 0 -472.33662100 0 18805.36856781 0 11527.10062114 0 5185.61899335 0 571
0.02250000 0.02255340 65267.25459802 0 792.14805787 0 22211.79437101 0 2471.30913935 0 1867.12469366 0 510
0.02350000 0.02348930 62981.47488957 0 1519.67167834 0 14109.68348074 0 -996.40069274 0 1624.36563961 0 555
0.02450000 0.02439640 61926.95592176 0 4624.55997961 0 21150.68465965 0 -2119.11078867 0 9487.84767513 0 592
0.02550000 0.02547300 57882.21660586 0 1886.30375739 0 22810.78311387 0 -2122.36222216 0 6528.07656223 0 837
0.02650000 0.02652900 57158.55296420 0 653.86547056 0 32674.48990901 0 -1874.05595896 0 8619.85773432 0 723
0.02750000 0.02749970 49552.28568025 0 2223.66195050 0 23386.70425431 0 5444.60226110 0 4309.52243798 0 826
0.02850000 0.02848090 55187.04187730 0 -434.50465457 0 35053.74833013 0 2824.04573408 0 12366.87119498 0 831
0.02950000 0.02946900 55689.69591862 0 990.48659886 0 30346.85897903 0 7871.70948038 0 12750.67216097 0 996
0.03050000 0.03053250 53982.36380230 0 -3584.87018478 0 22364.04054699 0 3519.94037626 0 9329.77967568 0 1041
0.03150000 0.03150510 59070.74735916 0 -156.40713207 0 17869.48298388 0 5049.48718535 0 8183.25392793 0 1036
0.03250000 0.03246190 55619.61434555 0 1364.67935922 0 23300.03597664 0 -1622.49826227 0 5061.47135403 0 1059
0.03350000 0.03345080 57128.12569815 0 1273.23279248 0 19981.37690837 0 293.31774627 0 11551.48637227 0 1302
0.03450000 0.03451200 53915.57760101 0 2085.55291944 0 21570.29533226 0 -1406.22301272 0 5567.05827623 0 1339
0.03550000 0.03553350 54410.54244152 0 910.02899853 0 21880.71935341 0 1230.71151201 0 5722.40210168 0 1365
0.03650000 0.03647120 52773.84112690 0 -1058.72935448 0 19041.64672403 0 4459.36299256 0 -2598.22489096 0 1308
0.03750000 0.03744890 51821.91806700 0 1498.49342240 0 21821.84204437 0 -2176.57108785 0 5502.82049578 0 1579
0.03850000 0.03847530 51470.74128158 0 1179.79801810 0 20660.00380244 0 1886.54541798 0 1763.54017422 0 1662
0.03950000 0.03950240 49401.68719016 0 488.20163918 0 21416.95069902 0 -746.93995096 0 -1887.33630721 0 1683
0.04050000 0.04050350 48910.89648722 0 1687.53791653 0 21046.33122013 0 1203.60158688 0 -3512.36102117 0 1822
0.04150000 0.04152450 43760.01071238 0 3149.56255796 0 21241.96645780 0 337.71958556 0 96.51781436 0 1887
0.04250000 0.04250150 44079.77162022 0 929.85175821 0 20371.43908073 0 4355.52582795 0 3501.21168000 0 1920
0.04350000 0.04349210 43384.88755872 0 -611.10692333 0 17547.19562434 0 2707.18086639 0 -957.96347636 0 2005
0.04450000 0.04448520 40380.16757482 0 1995.50139342 0 19479.93117003 0 267.74785821 0 1721.20563149 0 2151
0.04550000 0.04548030 38669.10070383 0 420.44659858 0 12886.33163235 0 -87.03648054 0 2552.21051641 0 2274
0.04650000 0.04648670 39127.04753474 0 407.00917094 0 16079.10749884 0 2953.01560076 0 -1264.09362809 0 2311
0.04750000 0.04749250 37902.04800047 0 980.33355842 0 13778.27892596 0 879.48968984 0 1246.85883371 0 2568
0.04850000 0.04851840 38198.85115162 0 599.60058355 0 12898.74419937 0 316.28429062 0 -2501.56065224 0 2493
0.04950000 0.04949480 37011.52870130 0 392.18658870 0 12917.52781848 0 619.64193623 0 -2210.31569482 0 2644
0.05050000 0.05050630 35057.59293053 0 337.41970672 0 13434.46180416 0 -219.22131192 0 -1116.35112687 0 2829
0.05150000 0.05149060 33960.45382111 0 142.06237874 0 12390.59787176 0 2260.22959263 0 3068.97973350 0 2784
0.05250000 0.05249300 34795.83056592 0 -59.12193547 0 9320.21211296 0 4384.86562131 0 1743.47136011 0 3055
0.05350000 0.05348950 34848.66636004 0 312.93070061 0 9864.48669980 0 1205.74357854 0 727.48078063 0 3009
0.05450000 0.05448610 34849.10574294 0 1495.38478836 0 9155.50943168 0 -1925.96904898 0 1158.34514785 0 3336
0.05550000 0.05550870 32831.45945120 0 258.78774236 0 10617.66588798 0 -890.58300969 0 4191.51517473 0 3349
0.05650000 0.05647670 31797.48163412 0 -551.36952226 0 9905.00878805 0 764.12751168 0 4230.75206799 0 3324
0.05750000 0.05747970 33267.21744550 0 -690.32766079 0 8390.66462741 0 3190.88652001 0 425.81475920 0 3639
0.05850000 0.05849280 32474.35099658 0 798.84974561 0 8953.64594135 0 273.57297705 0 232.66752722 0 3846
0.05950000 0.05951020 33908.27710135 0 1126.21527305 0 10298.50913163 0 -3474.23356974 0 304.01342459 0 3787
0.06050000 0.06049470 31610.96359169 0 498.11851130 0 10015.08518989 0 -7.39468245 0 -136.29437967 0 3930
0.06150000 0.06148310 31465.19831353 0 45.57070766 0 12727.71440428 0 -1146.82233121 0 -2207.33887565 0 4083
0.06250000 0.06249100 30055.43826844 0 302.23392383 0 9478.10435925 0 -103.59253818 0 -2120.69256713 0 4303
0.06350000 0.06350600 29915.71450521 0 188.31841388 0 11288.07632177 0 1126.31413420 0 -2076.73230766 0 4470
0.06450000 0.06451750 30584.01590106 0 1347.27979625 0 12291.07764417 0 434.26519089 0 -1685.70349291 0 4479
0.06550000 0.06550280 29154.26393387 0 425.58518163 0 11583.34163275 0 -505.26617268 0 -1171.71337268 0 4636
0.06650000 0.06648880 30112.00881724 0 -445.99341903 0 11194.37791765 0 1524.21929139 0 -1228.89905754 0 4653
0.06750000 0.06749660 29327.38079775 0 -411.64466057 0 10572.28861865 0 1455.14829900 0 -1680.83732725 0 5220
0.06850000 0.06852730 29539.93227720 0 384.79506981 0 10059.74846200 0 -545.35437032 0 -604.24815621 0 5029
0.06950000 0.06949320 28916.44793748 0 837.75160940 0 9655.94458934 0 -1005.96386163 0 -1311.07464502 0 5040
0.07050000 0.07048030 28917.87593192 0 597.80570439 0 12225.71943731 0 -543.11351751 0 -824.95568080 0 5475
0.07150000 0.07148790 27417.05378013 0 159.70250385 0 11267.20563386 0 1445.92125803 0 -286.32936119 0 5509
0.07250000 0.07249820 28135.22513550 0 -75.83276574 0 10433.57543609 0 1577.59332956 0 -308.53687158 0 5916
0.07350000 0.07351270 27731.21255596 0 -187.96031681 0 10383.12329422 0 914.01420146 0 957.29341743 0 5721
0.07450000 0.07449140 27584.67835772 0 521.54530925 0 9723.30198841 0 481.01663025 0 1178.17230136 0 6028
0.07550000 0.07549160 26186.67180529 0 860.17222050 0 9634.39285793 0 65.73080356 0 1335.98765563 0 6183
0.07650000 0.07648840 26020.25553069 0 524.46171327 0 9929.96573695 0 387.54780370 0 1597.17882247 0 6330
0.07750000 0.07749960 25556.92625920 0 537.82444581 0 9675.21152965 0 490.53146702 0 805.25155451 0 6583
0.07850000 0.07848650 24875.44337626 0 208.26749614 0 9653.68176739 0 977.68957180 0 2385.60750407 0 6549
0.07950000 0.07947320 24731.65532117 0 -84.03176056 0 8815.06457367 0 374.68486921 0 1273.67217538 0 6828
0.08050000 0.08048110 24408.81873300 0 144.10221387 0 8542.13089874 0 -185.62060285 0 458.91127639 0 7147
0.08150000 0.08149960 22890.53111081 0 728.44852148 0 8470.80806897 0 -498.08336067 0 743.10303976 0 7386
0.08250000 0.08250610 23080.01498784 0 859.18031359 0 9644.68540244 0 308.43581351 0 1737.70445951 0 7227
0.08350000 0.08350160 22155.55335939 0 275.11081721 0 9210.39934087 0 -15.05029243 0 596.92584013 0 7798
0.08450000 0.08449610 21823.27003881 0 89.45308651 0 9293.95898449 0 1405.41015435 0 686.86422505 0 7371
0.08550000 0.08548940 21724.18919412 0 323.30343250 0 8299.40479841 0 143.76059366 0 995.98108207 0 8256
0.08650000 0.08650700 21021.72577755 0 104.23634398 0 7245.35816722 0 1090.04966628 0 1322.28989362 0 8037
0.08750000 0.08749060 21182.97930304 0 -54.65011597 0 7729.88766378 0 -24.85962559 0 1293.44440603 0 8155
0.08850000 0.08849210 20725.58170075 0 381.72488177 0 6587.98642109 0 78.91349896 0 -131.50290911 0 8718
0.08950000 0.08949900 20471.94791985 0 420.53996745 0 7304.23547625 0 -531.45668909 0 -413.05178432 0 8571
0.09050000 0.09049190 19764.87098279 0 448.20021966 0 7498.29992005 0 152.33624947 0 -701.51325105 0 8932
0.09150000 0.09150830 19177.74557832 0 586.60034190 0 7225.61889029 0 47.60417173 0 -727.95970800 0 9285
0.09250000 0.09250820 19010.45053790 0 65.87579992 0 7559.96731052 0 508.21443196 0 -251.83011409 0 9204
0.09350000 0.09350330 18643.45596796 0 80.97706077 0 7013.11134913 0 969.42477939 0 -349.36323249 0 9349
0.09450000 0.09448040 18558.43537618 0 124.02790747 0 6844.01483881 0 -200.05323277 0 650.09556525 0 9564
0.09550000 0.09549270 18484.06981980 0 143.03561187 0 6914.44791821 0 239.70644133 0 215.21194293 0 10155
0.09650000 0.09649430 18139.81331510 0 295.16754829 0 6992.05392349 0 -698.21897773 0 -58.43682768 0 9913
0.09750000 0.09749140 17714.60051048 0 435.70087452 0 6942.33774799 0 500.55159413 0 356.53945376 0 10476
0.09850000 0.09850240 17424.93733151 0 355.87818249 0 8190.26208524 0 400.25365880 0 1633.87827947 0 10575
0.09950000 0.09950330 17657.15119588 0 -38.11679639 0 7514.43625717 0 269.49770063 0 1083.44244587 0 10882
0.10050000 0.10051200 17087.16172463 0 348.54707875 0 7192.02806734 0 691.12953459 0 2241.78649526 0 10875
0.10150000 0.10150300 16907.67380866 0 -141.82950580 0 7170.53125879 0 475.34200006 0 2237.05214448 0 11118
0.10250000 0.10250800 16620.09769848 0 -4.12538805 0 6699.40294078 0 479.96101283 0 2529.04405284 0 11575
0.10350000 0.10349800 16350.64613306 0 667.56982332 0 6939.86621916 0 224.57299568 0 2564.35945369 0 11364
0.10450000 0.10450100 15910.82384690 0 221.45118015 0 6907.87914380 0 -268.49590761 0 3372.81301110 0 12093
0.10550000 0.10551000 15787.13755963 0 163.09893369 0 6738.42014259 0 546.55827947 0 2100.87639819 0 12067
0.10650000 0.10649700 15388.94680356 0 281.81140649 0 6941.30519817 0 -263.62864349 0 1652.65091401 0 12054
0.10750000 0.10749900 15542.51112825 0 17.91133421 0 6458.26960347 0 274.05739670 0 2705.52219593 0 12807
0.10850000 0.10850100 15167.71751177 0 -70.29027995 0 6256.26331370 0 499.35537418 0 1363.95437743 0 12736
0.10950000 0.10950300 15304.03605750 0 249.21688427 0 6172.78056209 0 -241.56503101 0 1513.24570338 0 12933
0.11050000 0.11050200 15047.21675055 0 188.10970700 0 6345.71068823 0 55.20285966 0 1285.01923886 0 13428
0.11150000 0.11150900 14705.48669755 0 98.63179536 0 6736.27815094 0 -17.96164355 0 786.02745403 0 13453
0.11250000 0.11250000 14413.18722116 0 267.92800520 0 6041.56984260 0 272.58107015 0 632.90910299 0 13668
0.11350000 0.11349100 14553.35036730 0 -28.99312025 0 6650.77423796 0 63.02662148 0 741.46304307 0 13791
0.11450000 0.11448600 14229.63501332 0 143.85396253 0 5357.61543082 0 358.24096405 0 389.61180489 0 14205
0.11550000 0.11549300 14009.61402452 0 214.48037039 0 5746.28256247 0 -2.76883727 0 465.37020507 0 14776
0.11650000 0.11649800 13786.84689257 0 185.34928391 0 5125.15990586 0 542.19850262 0 849.04814385 0 14553
0.11750000 0.11747300 13955.13054452 0 -164.08644676 0 4810.12236423 0 871.74776309 0 931.22373133 0 14568
0.11850000 0.11849100 13683.81160176 0 -71.95894637 0 4530.78468348 0 185.17572766 0 358.19263193 0 16015
0.11950000 0.11950300 13841.44021830 0 105.37873953 0 4128.72735786 0 73.52150182 0 293.84939958 0 15270
0.12050000 0.12050700 13666.34613135 0 290.10036496 0 4213.71499592 0 -33.16791691 0 697.30286438 0 15999
0.12150000 0.12150000 13275.29534746 0 126.25118496 0 4301.45976170 0 -103.03463174 0 532.56063863 0 15670
0.12250000 0.12250700 13448.52205706 0 14.86663038 0 4115.40307132 0 68.90842072 0 -25.25265360 0 16887
0.12350000 0.12352200 13471.91919666 0 37.64303178 0 3993.11182477 0 75.19247500 0 -391.61758784 0 16407
0.12450000 0.12449800 13228.94045116 0 90.42071751 0 4488.46112533 0 -107.57367682 0 -377.87478908 0 16306
0.12550000 0.12549900 13056.70235309 0 110.07859875 0 4419.98329985 0 -346.31830897 0 -242.32736035 0 17523
0.12650000 0.12650100 13110.96614164 0 119.41548545 0 4381.63615697 0 51.43218543 0 -494.30027387 0 17154
0.12750000 0.12750600 13024.40770970 0 118.65974685 0 4658.00800312 0 166.83368837 0 -471.37876627 0 18007
0.12850000 0.12850300 12756.27429299 0 184.37055849 0 4662.05032583 0 -162.41129944 0 -225.35729416 0 17496
0.12950000 0.12949900 12695.41976089 0 138.62420752 0 4477.74018249 0 415.78804135 0 -219.15210911 0 18405
0.13050000 0.13049000 12757.26290452 0 -150.92583035 0 4924.10927390 0 -177.62712938 0 -42.64200092 0 18100
0.13150000 0.13148800 12823.39003146 0 238.22352403 0 4687.91899426 0 201.29778484 0 -395.12606032 0 19059
0.13250000 0.13249300 12519.33706241 0 -55.59445967 0 4871.97649243 0 -422.63911927 0 -227.19721007 0 18957
0.13350000 0.13349100 12476.82676652 0 116.14318127 0 4795.01857693 0 325.92215460 0 -537.50809012 0 19468
0.13450000 0.13450700 12633.57661725 0 195.14422728 0 4573.27301023 0 183.94435708 0 -486.16619788 0 19953
0.13550000 0.13551000 12165.74367102 0 304.60549305 0 4490.88871587 0 45.36584538 0 -194.31379359 0 19956
0.13650000 0.13649900 11930.56397205 0 45.99405308 0 4737.27267887 0 361.03653777 0 146.97577805 0 19723
0.13750000 0.13749600 11858.17563874 0 -27.51975953 0 4290.55208113 0 666.34614193 0 408.53602653 0 20946
0.13850000 0.13851100 11706.36884566 0 95.32247318 0 3719.66187493 0 356.23957493 0 184.31563563 0 20955
0.13950000 0.13949800 11586.52715880 0 183.24573826 0 3858.33111920 0 -181.46733596 0 565.88014264 0 20506
0.14050000 0.14048300 11195.47637491 0 375.42852477 0 3979.90836853 0 -206.18262427 0 401.73108382 0 21447
0.14150000 0.14148400 10897.31113676 0 296.67353319 0 4235.05802045 0 -23.20798526 0 492.88985475 0 21771
0.14250000 0.14249400 10788.19039273 0 89.18297587 0 3774.81541386 0 -138.27489811 0 -228.63509062 0 22470
0.14350000 0.14350900 10374.47843560 0 29.04441821 0 4104.79197420 0 248.85329492 0 -43.83558457 0 22519
0.14450000 0.14449900 10410.92524743 0 106.09207767 0 3990.02515987 0 188.24152187 0 -400.34592921 0 22218
0.14550000 0.14550500 10457.20325171 0 23.64802724 0 3410.58895621 0 16.03110492 0 -133.41642166 0 23559
0.14650000 0.14650700 10354.71718953 0 -85.20128800 0 3545.52344580 0 407.48480293 0 -243.76194552 0 23044
0.14750000 0.14750500 10587.91966543 0 -88.45272148 0 2925.83976819 0 541.05940244 0 -526.89589455 0 23649
0.14850000 0.14849900 10500.58132884 0 -70.64596041 0 2622.74245696 0 202.56760143 0 -66.20951123 0 23640
0.14950000 0.14949500 10440.56162425 0 94.98601572 0 2745.82459273 0 -60.44744384 0 -255.22324856 0 24457
0.15050000 0.15050000 10373.39096292 0 268.24985318 0 2556.09905511 0 -127.54406916 0 105.16201391 0 24591
0.15150000 0.15149900 10175.61373359 0 81.71335667 0 2612.63665018 0 122.03091218 0 -204.10104776 0 25020
0.15250000 0.15250500 10205.52472473 0 19.78299553 0 2770.14443643 0 -28.32536809 0 -29.08561036 0 25297
0.15350000 0.15350100 10032.60558315 0 140.98039834 0 2662.51759427 0 69.03045932 0 -470.84271913 0 25452
0.15450000 0.15450400 9773.01816391 0 140.16534305 0 2730.08370022 0 -299.53721126 0 -10.42387606 0 26061
0.15550000 0.15549900 9749.44527115 0 164.96521257 0 2814.33537192 0 66.54882468 0 -378.57230944 0 26128
0.15650000 0.15649500 9477.17067058 0 62.90568134 0 2929.54156915 0 8.35118607 0 -356.41313118 0 26331
0.15750000 0.15749700 9352.13328088 0 220.50321154 0 2813.70925128 0 244.45397360 0 -415.53979001 0 27345
0.15850000 0.15849900 9292.78363523 0 141.98878210 0 2704.89607529 0 154.25525430 0 -238.60359024 0 26980
0.15950000 0.15949700 9176.94033278 0 -53.53056833 0 2584.92257356 0 391.05517772 0 267.31396760 0 27777
0.16050000 0.16050000 9049.50830627 0 30.05488904 0 2498.86943196 0 288.50760193 0 281.37971279 0 28224
0.16150000 0.16150500 8824.40146036 0 261.88319491 0 2394.38417756 0 -144.77337125 0 609.11212495 0 28075
0.16250000 0.16249700 8598.73440125 0 139.83031359 0 2680.44441673 0 -12.31513386 0 779.82336744 0 28590
0.16350000 0.16349900 8664.21343841 0 150.42383539 0 2735.31235677 0 -197.40375386 0 570.68040086 0 29163
0.16450000 0.16449100 8569.68020677 0 5.05695669 0 2738.78348171 0 -19.27023568 0 560.88985132 0 28996
0.16550000 0.16550500 8596.07613468 0 -58.54623402 0 2798.46266454 0 70.09947792 0 190.37472586 0 30777
0.16650000 0.16650700 8553.24728619 0 104.70582461 0 2588.45960593 0 -110.10715864 0 331.13982658 0 29211
0.16750000 0.16749900 8531.80540051 0 92.49361620 0 2882.11018475 0 -50.52222344 0 30.17363227 0 30922
0.16850000 0.16850800 8298.85556978 0 212.76238324 0 2972.45829423 0 -179.82184699 0 15.56239320 0 30867
0.16950000 0.16949900 8131.38477620 0 126.16111147 0 2968.85535442 0 106.33209058 0 -149.39458094 0 30852
0.17050000 0.17049200 8180.16726304 0 -12.59557000 0 2965.19749175 0 304.09141506 0 214.53309634 0 31257
0.17150000 0.17149500 8060.01800814 0 -113.80236886 0 2473.19848583 0 413.77347074 0 134.19193248 0 32608
0.17250000 0.17250900 8221.46925594 0 21.62972187 0 2240.55622313 0 360.26102695 0 378.21970466 0 32361
0.17350000 0.17350400 7986.60810958 0 191.74450207 0 1991.32725584 0 -159.96503513 0 521.64746577 0 32508
0.17450000 0.17449800 7851.39900568 0 213.27426432 0 2217.66437387 0 -70.47778660 0 -1.29165392 0 32791
0.17550000 0.17549800 7640.12173665 0 97.24235677 0 2344.72292492 0 114.75802667 0 329.83705627 0 33633
0.17650000 0.17650100 7404.48068563 0 132.85620846 0 2361.49636725 0 -230.89461720 0 489.35721621 0 33984
0.17750000 0.17750300 7296.28264571 0 -68.58338721 0 2136.35656763 0 459.57254766 0 476.25262112 0 34069
0.17850000 0.17849800 7514.86465550 0 58.07444663 0 1963.89877810 0 368.43794278 0 222.24646321 0 34536
