### header ###
fiducial parameters:
Omega_m = 0.31
Omega_nu = 0
Omega_de = 0.69
Omega_k = 0
H_0 = 100
w_de = -1
zeff = 0
beta = 0
fgrowth = 0
b_1 = 2
gamma = 0.55
Lx = 3500 Ly = 3500 Lz = 3500
nx = 700 ny = 700 nz = 700
xoffset = -983.599254 yoffset = -42.9823471 zoffset = 800.977702
bins = 400 dk = 0.001
kx_ny = 0.628318531 ky_ny = 0.628318531 kz_ny = 0.628318531
############################
A(data) = 9.06750206 (not used)
A(ran) = 9.06576179 (used)
Ngal = 503997
weighted Ngal = 0
Nran = 25229228
weighted Nran = 0
SN(data) = 6741.95211
SN(ran) = 134.574988
SN(data+ran) = 6876.5271
############################
13 columns: k_central k_mean P_0(k) sigma^{lin}_{P_0(k)} P^img_1(k) sigma^{lin}_{P_1(k)} P_2(k) sigma^{lin}_{P_2(k)} P^img_3(k) sigma^{lin}_{P_3(k)} P_4(k) sigma^{lin}_{P_4(k)} N_modes
### header ###
0.00050000 0 0 0 0 0 0 0 0 0 0 0 0
0.00150000 0.00179520 124785.84298132 0 -24960.35412231 0 -8059.78733212 0 96816.04550889 0 -224833.33005219 0 3
0.00250000 0.00253879 173650.71410942 0 20759.96341293 0 39279.84293935 0 -37032.94861784 0 184746.23087384 0 6
0.00350000 0.00331552 114801.96496213 0 47524.75327318 0 35349.45302402 0 -73981.64556398 0 129299.40385499 0 7
0.00450000 0.00420575 73997.79288567 0 21838.20905752 0 43419.92834526 0 21940.03604535 0 21197.91832175 0 24
0.00550000 0.00557378 67319.50229339 0 -540.66615474 0 26802.24725275 0 53895.25614173 0 -7483.41582420 0 45
0.00650000 0.00659388 71123.02039541 0 745.06817979 0 25354.70027798 0 33679.46845448 0 582.10106097 0 40
0.00750000 0.00754703 65788.69225846 0 -715.73058334 0 -7918.47080586 0 25747.83813067 0 23143.06643445 0 57
0.00850000 0.00846663 94573.21547924 0 -14075.63130573 0 11403.41433387 0 -1972.36788356 0 6680.00418560 0 75
0.00950000 0.00948925 76854.44083117 0 7203.48497654 0 -8550.51212762 0 -22132.81529415 0 -12588.21033249 0 112
0.01050000 0.01054430 80699.04123464 0 8684.19437593 0 25734.98618075 0 -11773.70427559 0 -4364.79680720 0 105
0.01150000 0.01145670 76438.56491324 0 1612.26064063 0 19218.05895969 0 -15352.36817686 0 2058.95926922 0 144
0.01250000 0.01249090 74422.45646166 0 -1730.60842562 0 33870.16063449 0 21779.33174848 0 -7738.68630642 0 169
0.01350000 0.01339930 81801.01355600 0 -2586.77896633 0 19151.27275839 0 9293.39877129 0 -2993.51571987 0 180
0.01450000 0.01448870 85085.29091210 0 -5508.77413412 0 30749.00418123 0 7900.56595255 0 -5657.05487939 0 267
0.01550000 0.01550050 86128.93515305 0 2132.30326035 0 10901.99056468 0 -5265.20222170 0 2363.30882173 0 238
0.01650000 0.01653350 81266.17471702 0 10387.35235467 0 40082.15612069 0 -17216.99937255 0 3636.39881476 0 315
0.01750000 0.01747870 74116.75580673 0 9999.01476020 0 36533.26041111 0 925.29425905 0 8831.06909592 0 297
0.01850000 0.01844180 78122.49988996 0 -2951.09330056 0 54246.54277288 0 7883.94629423 0 -4713.19449577 0 388
0.01950000 0.01947590 76165.81797605 0 146.90877216 0 46258.45174600 0 12372.14378982 0 5842.93581661 0 399
0.02050000 0.02045430 75280.13188882 0 548.21035919 0 37651.59974562 0 8028.43736197 0 2606.47430496 0 462
0.02150000 0.02154770 73757.67012904 0 1067.12486330 0 42878.49876272 0 2484.75425619 0 11603.66309203 0 571
0.02250000 0.02255340 65610.30279973 0 4108.23014542 0 39099.14672039 0 -760.49491352 0 10156.50057730 0 510
0.02350000 0.02348930 65659.62353062 0 6945.45736660 0 51694.16748788 0 -4658.02997226 0 7204.93494012 0 555
0.02450000 0.02439640 59014.39650181 0 4205.85004195 0 43518.13042414 0 4261.24524148 0 6547.12381109 0 592
0.02550000 0.02547300 58476.70167396 0 -300.95092575 0 50316.04301183 0 9256.84211374 0 5146.76656013 0 837
0.02650000 0.02652900 60901.87560847 0 -2502.39547976 0 34926.10759674 0 11938.03348140 0 10383.31003196 0 723
0.02750000 0.02749970 64494.59976265 0 -1962.17420021 0 35961.29371680 0 9658.77860907 0 -5159.21208086 0 826
0.02850000 0.02848090 59142.47661811 0 5264.64200850 0 29620.11965704 0 -1800.70098326 0 10945.45651838 0 831
0.02950000 0.02946900 53807.05002390 0 6347.66594215 0 36639.15169080 0 -8741.77550540 0 10311.58077300 0 996
0.03050000 0.03053250 51631.99480707 0 -773.96529488 0 38815.96443924 0 8457.68150473 0 13345.37692053 0 1041
0.03150000 0.03150510 56109.52628268 0 -3780.93382079 0 33983.96080643 0 9505.78548215 0 5468.46075274 0 1036
0.03250000 0.03246190 51820.38022684 0 -1969.43500268 0 25657.10556115 0 10224.06668325 0 8349.41755737 0 1059
0.03350000 0.03345080 57564.76245825 0 1384.82506533 0 26852.33690372 0 258.70535806 0 8823.76435515 0 1302
0.03450000 0.03451200 53064.71260886 0 3680.54581197 0 24286.34074872 0 -2098.22911620 0 12057.21609391 0 1339
0.03550000 0.03553350 50581.54013112 0 1567.26783133 0 28667.20798561 0 2225.38652840 0 12337.54238619 0 1365
0.03650000 0.03647120 51873.98494104 0 708.36652588 0 30151.77296998 0 4522.07391742 0 5543.57326005 0 1308
0.03750000 0.03744890 48141.86656080 0 -1175.72274167 0 25614.48541953 0 3469.47724982 0 12026.12975351 0 1579
0.03850000 0.03847530 48851.79948673 0 1018.31161967 0 20764.68677914 0 1002.74208649 0 6049.72039546 0 1662
0.03950000 0.03950240 46695.74758047 0 1294.82846217 0 19518.37717406 0 4787.52709843 0 11152.19715893 0 1683
0.04050000 0.04050350 47959.41281023 0 943.50448347 0 18583.91958457 0 3775.16692018 0 5816.77056472 0 1822
0.04150000 0.04152450 45939.89914115 0 893.72130208 0 19779.48046432 0 -2922.67621129 0 5421.35890551 0 1887
0.04250000 0.04250150 42326.52399051 0 3339.26612644 0 21909.71862502 0 -5641.87420008 0 5742.60273066 0 1920
0.04350000 0.04349210 38534.42984398 0 2578.09016941 0 21546.89819266 0 -2318.37093530 0 -548.32130337 0 2005
0.04450000 0.04448520 36587.52419966 0 190.22204031 0 21232.08034248 0 3554.84934792 0 2344.76686321 0 2151
0.04550000 0.04548030 39113.09712757 0 -1868.13527434 0 21225.26990748 0 9512.70576288 0 2670.43747111 0 2274
0.04650000 0.04648670 38382.07382228 0 163.60092865 0 16969.84648947 0 3926.05100916 0 5198.72358844 0 2311
0.04750000 0.04749250 38748.07978069 0 927.79984005 0 14799.29494739 0 179.57359565 0 4704.37388398 0 2568
0.04850000 0.04851840 36817.43130379 0 1208.37987596 0 14165.59495517 0 -1328.82571431 0 6639.73474252 0 2493
0.04950000 0.04949480 36390.90035046 0 516.52316266 0 17600.03141846 0 -2456.24929034 0 4769.65519884 0 2644
0.05050000 0.05050630 35293.21201240 0 74.36962067 0 14813.46504602 0 2135.66453956 0 4363.00632187 0 2829
0.05150000 0.05149060 36005.12216140 0 -1684.14368360 0 13662.50153095 0 3970.49458982 0 4012.70830226 0 2784
0.05250000 0.05249300 37239.67827382 0 518.07198740 0 13132.93528680 0 1850.80161880 0 481.87562383 0 3055
0.05350000 0.05348950 36897.61868364 0 1330.76998366 0 11907.38652390 0 -2748.38399814 0 1800.21766207 0 3009
0.05450000 0.05448610 34632.92935454 0 1319.52178133 0 13135.24204704 0 -223.80187869 0 1105.49836916 0 3336
0.05550000 0.05550870 33436.92909188 0 233.49466553 0 13727.20066345 0 27.83062294 0 -1534.98417252 0 3349
0.05650000 0.05647670 33768.22380094 0 107.63705780 0 11748.22006720 0 1959.41707249 0 -1535.53340115 0 3324
0.05750000 0.05747970 33349.93127704 0 -210.36884488 0 12089.07135440 0 1219.30952567 0 1567.60835308 0 3639
0.05850000 0.05849280 32079.78514946 0 -84.56747816 0 7836.93232359 0 1710.92407155 0 124.40797368 0 3846
0.05950000 0.05951020 33386.61974946 0 -13.46082478 0 8553.35713191 0 2160.11619812 0 -289.30288499 0 3787
0.06050000 0.06049470 32121.96590817 0 913.31668110 0 6892.77535650 0 -1212.99339644 0 -883.61988913 0 3930
0.06150000 0.06148310 31628.97829072 0 1407.40934656 0 8769.95093407 0 20.83531758 0 55.61401221 0 4083
0.06250000 0.06249100 30940.02589842 0 -305.72811637 0 8908.24670287 0 -1258.43657321 0 427.34051633 0 4303
0.06350000 0.06350600 29765.77508947 0 617.74490054 0 8578.92921688 0 28.96148469 0 -2972.78783141 0 4470
0.06450000 0.06451750 30844.02073406 0 -185.40530523 0 9094.05074809 0 33.89004271 0 -3199.71811636 0 4479
0.06550000 0.06550280 29140.75290959 0 399.37489300 0 8723.14567030 0 -259.64673593 0 -2814.21454162 0 4636
0.06650000 0.06648880 29305.85103549 0 723.96022512 0 8853.56550056 0 -340.00547511 0 -3576.98326167 0 4653
0.06750000 0.06749660 28761.01623546 0 297.69949227 0 9868.75969853 0 295.02035502 0 -1532.62248941 0 5220
0.06850000 0.06852730 28203.21963978 0 676.47941014 0 10068.84368810 0 -576.92183500 0 -3832.17685188 0 5029
0.06950000 0.06949320 27648.05934152 0 802.43840547 0 10182.44613774 0 686.98615381 0 -1638.31604679 0 5040
0.07050000 0.07048030 27448.46965771 0 -412.38502076 0 11244.46756862 0 588.76869653 0 -2107.37926516 0 5475
0.07150000 0.07148790 27686.28565410 0 -199.11295335 0 9449.05016477 0 734.05065349 0 -2557.54901869 0 5509
0.07250000 0.07249820 27515.47555046 0 554.30569851 0 9992.97324528 0 -80.67542440 0 -1149.97490354 0 5916
0.07350000 0.07351270 26996.34465026 0 446.73817305 0 10184.80782084 0 -108.25977322 0 -1965.53547942 0 5721
0.07450000 0.07449140 26538.39781935 0 372.95809440 0 9861.53184977 0 483.55296806 0 -679.32551289 0 6028
0.07550000 0.07549160 25916.01193689 0 331.35622266 0 9784.03569021 0 -506.33936542 0 -1610.92052277 0 6183
0.07650000 0.07648840 25253.86190169 0 638.70895731 0 10304.35292424 0 1226.85592704 0 -1757.59752045 0 6330
0.07750000 0.07749960 25162.58010353 0 146.13435979 0 10014.12953207 0 202.53025388 0 -366.09493345 0 6583
0.07850000 0.07848650 24591.16263785 0 32.31771099 0 9122.81934368 0 167.59272233 0 -1371.91819255 0 6549
0.07950000 0.07947320 24816.23653004 0 118.39392020 0 8762.18484126 0 868.25796438 0 -1688.72425037 0 6828
0.08050000 0.08048110 24296.66624695 0 505.51442402 0 8592.74780919 0 838.79843917 0 -300.95751650 0 7147
0.08150000 0.08149960 23746.33916062 0 114.89313691 0 8397.24438639 0 -96.05789031 0 141.27258797 0 7386
0.08250000 0.08250610 23734.03643933 0 217.82736966 0 8754.26496443 0 902.63418427 0 -763.21029987 0 7227
0.08350000 0.08350160 23393.73438076 0 563.99628845 0 9350.97990076 0 -925.53701810 0 117.28118299 0 7798
0.08450000 0.08449610 22021.10219100 0 391.00574715 0 8440.88609325 0 -111.35720300 0 160.82732408 0 7371
0.08550000 0.08548940 22326.03392585 0 210.54130267 0 9485.89242121 0 1353.61789463 0 1237.34619385 0 8256
0.08650000 0.08650700 22158.73888544 0 225.51986584 0 9227.87579584 0 681.24781309 0 1042.50294386 0 8037
0.08750000 0.08749060 22017.80681922 0 106.13689473 0 9146.18352956 0 -403.08877699 0 1302.34190982 0 8155
0.08850000 0.08849210 21188.47158933 0 888.66070949 0 8941.80457211 0 -462.11877158 0 398.30829100 0 8718
0.08950000 0.08949900 20615.18674631 0 -22.53199466 0 8072.63928204 0 684.26307827 0 1780.25869369 0 8571
0.09050000 0.09049190 20693.83628599 0 16.77893462 0 8990.43327493 0 1071.42971730 0 411.34148637 0 8932
0.09150000 0.09150830 20063.43166555 0 337.51417405 0 7887.69203349 0 724.41169105 0 23.14438458 0 9285
0.09250000 0.09250820 19760.03777085 0 416.38779901 0 7817.89605930 0 -338.00518444 0 1672.70874354 0 9204
0.09350000 0.09350330 19133.69744226 0 100.54563744 0 6441.88062118 0 565.46053197 0 177.50739754 0 9349
0.09450000 0.09448040 18713.20800385 0 324.56116606 0 6913.12976950 0 415.61338664 0 587.04521709 0 9564
0.09550000 0.09549270 18731.44239434 0 432.55379448 0 6182.75455399 0 411.42167375 0 -464.61117110 0 10155
0.09650000 0.09649430 18313.36956189 0 411.94453940 0 6971.71049507 0 477.91568541 0 547.12398496 0 9913
0.09750000 0.09749140 17853.44550791 0 -161.60063799 0 6075.12771184 0 -173.27833710 0 367.47679268 0 10476
0.09850000 0.09850240 17444.05048780 0 107.42384725 0 5602.68124511 0 444.18755530 0 847.28731686 0 10575
0.09950000 0.09950330 17567.51708362 0 199.69733261 0 5510.30098971 0 643.87280489 0 81.12183743 0 10882
0.10050000 0.10051200 17233.69592287 0 138.66924427 0 5432.95861416 0 694.33043904 0 1588.76463988 0 10875
0.10150000 0.10150300 17182.39796891 0 117.12520206 0 5363.41528515 0 320.51225261 0 1651.99183965 0 11118
0.10250000 0.10250800 17082.10882125 0 378.57340790 0 5636.26108350 0 -413.38901070 0 897.01228002 0 11575
0.10350000 0.10349800 16165.11670216 0 367.85576043 0 5173.23938005 0 -331.01240554 0 874.17095980 0 11364
0.10450000 0.10450100 15880.17688940 0 163.28567142 0 5776.30339933 0 -408.05160688 0 670.64220827 0 12093
0.10550000 0.10551000 15483.41412776 0 430.35578151 0 5601.73657187 0 661.08013783 0 1593.88345070 0 12067
0.10650000 0.10649700 15812.84145947 0 -94.62451343 0 5527.94221327 0 742.52415278 0 536.88856023 0 12054
0.10750000 0.10749900 15625.77418841 0 -49.64049180 0 4489.81222775 0 330.69055756 0 356.43290341 0 12807
0.10850000 0.10850100 15201.54999532 0 476.80294821 0 4901.56893096 0 -497.84170007 0 339.51007089 0 12736
0.10950000 0.10950300 14889.03890538 0 85.95592813 0 5022.21249163 0 -571.18788811 0 178.46085844 0 12933
0.11050000 0.11050200 14654.18874359 0 387.36545979 0 5580.47043935 0 -500.73723341 0 -403.31066535 0 13428
0.11150000 0.11150900 14694.17258779 0 162.83530395 0 5439.74708002 0 -403.24805329 0 -1349.05929701 0 13453
0.11250000 0.11250000 14224.03288131 0 -0.74728157 0 5995.00623943 0 268.62113173 0 -758.50670589 0 13668
0.11350000 0.11349100 13997.64084041 0 -6.13631178 0 5650.03573751 0 820.32458500 0 -788.05191076 0 13791
0.11450000 0.11448600 14288.40247663 0 155.80407904 0 5801.21640995 0 158.18443591 0 -469.51248739 0 14205
0.11550000 0.11549300 14091.33924452 0 101.10431280 0 5088.17484998 0 684.35425022 0 -195.99992548 0 14776
0.11650000 0.11649800 13930.30541048 0 -62.97180847 0 4365.24717468 0 743.88074749 0 406.02165787 0 14553
0.11750000 0.11747300 14154.50053687 0 133.59986402 0 4523.80947989 0 98.91146257 0 566.70069022 0 14568
0.11850000 0.11849100 13488.94528416 0 329.57342653 0 4489.75730489 0 -337.08797263 0 711.23679470 0 16015
0.11950000 0.11950300 13467.85490481 0 247.54283541 0 4350.50587828 0 553.20614280 0 1162.69503859 0 15270
0.12050000 0.12050700 13311.54443697 0 -35.96173310 0 4350.56080114 0 373.98625039 0 311.17536591 0 15999
0.12150000 0.12150000 13310.55582544 0 -118.86625682 0 3816.76549655 0 98.60806868 0 716.11174801 0 15670
0.12250000 0.12250700 13185.22185229 0 -43.88721206 0 3361.75154651 0 672.09986105 0 872.60455975 0 16887
0.12350000 0.12352200 13265.73876931 0 -159.44107102 0 3357.35771748 0 186.46861185 0 1033.20779854 0 16407
0.12450000 0.12449800 13579.34831651 0 95.15517813 0 2942.92077856 0 33.21262412 0 687.59250222 0 16306
0.12550000 0.12549900 13268.59475818 0 250.94695445 0 3252.83950937 0 -318.94365564 0 777.03218755 0 17523
0.12650000 0.12650100 13062.63402228 0 148.34884963 0 3639.01314304 0 -223.14609970 0 839.41577215 0 17154
0.12750000 0.12750600 12951.25045631 0 429.04092817 0 3898.41382455 0 -296.54611215 0 389.61290334 0 18007
0.12850000 0.12850300 12898.52450792 0 -86.80360760 0 3972.31802887 0 32.63802113 0 492.16816834 0 17496
0.12950000 0.12949900 12385.76465982 0 69.12503649 0 3906.53142368 0 300.39400792 0 350.34964711 0 18405
0.13050000 0.13049000 12512.63647313 0 363.81453618 0 3850.92751728 0 215.63484897 0 795.22703357 0 18100
0.13150000 0.13148800 12454.85762136 0 25.63996963 0 3755.08712150 0 188.79404587 0 515.14130343 0 19059
0.13250000 0.13249300 12125.32044392 0 -132.44648390 0 3481.26369620 0 398.24128511 0 902.62649507 0 18957
0.13350000 0.13349100 11893.32627100 0 171.57462989 0 3414.41158747 0 -70.76162796 0 275.25910894 0 19468
0.13450000 0.13450700 12138.06254811 0 174.27573629 0 3440.23631761 0 -283.58651342 0 380.03545451 0 19953
0.13550000 0.13551000 11393.19868137 0 235.30602155 0 3279.99337279 0 -104.68264716 0 172.40945741 0 19956
0.13650000 0.13649900 11618.49226501 0 131.28651303 0 3575.88480441 0 1.94787229 0 -433.68520546 0 19723
0.13750000 0.13749600 11332.67368645 0 159.48391085 0 3702.73464858 0 -16.30571923 0 -95.15012523 0 20946
0.13850000 0.13851100 11080.68759143 0 170.01262367 0 3670.54985092 0 -56.24189038 0 -265.06542559 0 20955
0.13950000 0.13949800 11305.10240927 0 -63.66691222 0 3711.50033750 0 193.18238262 0 40.05194855 0 20506
0.14050000 0.14048300 10983.99039900 0 125.76346994 0 3614.89102165 0 225.28369753 0 -151.04226682 0 21447
0.14150000 0.14148400 10943.42437245 0 219.90345388 0 3441.01622226 0 -79.63881029 0 21.31018065 0 21771
0.14250000 0.14249400 10751.65570433 0 33.96122274 0 3354.36991374 0 354.83684501 0 -26.97415581 0 22470
0.14350000 0.14350900 10611.70126507 0 -29.68448925 0 3467.31328902 0 105.91258975 0 277.37803300 0 22519
0.14450000 0.14449900 10482.92912070 0 233.87143637 0 3350.94272709 0 47.49157986 0 0.31500788 0 22218
0.14550000 0.14550500 10463.90384099 0 171.16600379 0 3001.62233443 0 -3.29709635 0 545.46970833 0 23559
0.14650000 0.14650700 10324.76226010 0 -176.46935543 0 3003.65448036 0 551.19706447 0 481.97228807 0 23044
0.14750000 0.14750500 10518.87064218 0 -30.68847919 0 2497.61719068 0 501.85216752 0 311.14790448 0 23649
0.14850000 0.14849900 10332.29767689 0 133.79868478 0 2450.91078807 0 108.81647136 0 576.19685321 0 23640
0.14950000 0.14949500 10071.20537120 0 285.27374377 0 2434.71952808 0 -200.92540783 0 324.79403900 0 24457
0.15050000 0.15050000 9907.22767171 0 165.38042941 0 2628.54231128 0 -89.86973135 0 625.37917849 0 24591
0.15150000 0.15149900 9778.80703366 0 65.97718752 0 2514.63229361 0 -11.88058417 0 670.83883212 0 25020
0.15250000 0.15250500 9715.09651269 0 109.74576620 0 2797.70472903 0 -104.25776390 0 367.82939746 0 25297
0.15350000 0.15350100 9450.55505121 0 22.78804505 0 2750.69075838 0 135.21789156 0 181.87925743 0 25452
0.15450000 0.15450400 9474.06203654 0 143.36624750 0 2429.49087153 0 -85.73019517 0 300.04689543 0 26061
0.15550000 0.15549900 9265.64075638 0 102.55306808 0 2667.93298856 0 -77.29689941 0 145.18199735 0 26128
0.15650000 0.15649500 9292.95938839 0 151.78921776 0 2882.90107397 0 74.48089439 0 -396.67378660 0 26331
0.15750000 0.15749700 9129.43205637 0 288.84482831 0 2709.02627458 0 -171.20115442 0 -0.11369252 0 27345
0.15850000 0.15849900 8771.01643761 0 56.12688191 0 2954.69624037 0 -24.09136459 0 -212.39879389 0 26980
0.15950000 0.15949700 8694.59676617 0 -14.35244253 0 2850.48560029 0 139.17673152 0 -74.14103171 0 27777
0.16050000 0.16050000 8774.94891460 0 -10.26648910 0 2495.10172356 0 407.28927754 0 -175.74327519 0 28224
0.16150000 0.16150500 8749.06926160 0 -43.62149525 0 2347.65580580 0 138.00687454 0 55.75406551 0 28075
0.16250000 0.16249700 8890.42972615 0 28.38095002 0 2235.22870543 0 206.13319369 0 -71.33095835 0 28590
0.16350000 0.16349900 8639.06975177 0 93.58383503 0 2249.67341838 0 -86.97683431 0 163.78217410 0 29163
0.16450000 0.16449100 8645.31997357 0 94.62824819 0 2179.89941334 0 144.75250056 0 -42.71219233 0 28996
0.16550000 0.16550500 8612.31133296 0 154.34093397 0 2285.93349247 0 -92.24020211 0 6.61842467 0 30777
0.16650000 0.16650700 8278.99546255 0 205.08197009 0 2162.67560353 0 -6.82582439 0 370.29433555 0 29211
0.16750000 0.16749900 8258.42135811 0 23.07518178 0 2500.94551618 0 59.96093712 0 219.12354922 0 30922
0.16850000 0.16850800 8127.35343806 0 25.85955123 0 2303.87129949 0 141.62958658 0 194.02819471 0 30867
0.16950000 0.16949900 8083.06364142 0 53.11502195 0 2221.48700513 0 135.32993420 0 301.12777737 0 30852
0.17050000 0.17049200 7968.42864196 0 65.21430896 0 2036.97913948 0 155.41302825 0 367.10441567 0 31257
0.17150000 0.17149500 8015.51950461 0 125.24280120 0 2317.73383009 0 -196.26465368 0 289.87847659 0 32608
0.17250000 0.17250900 7753.97683145 0 220.79979500 0 2111.69620218 0 -308.95977762 0 -6.94730277 0 32361
0.17350000 0.17350400 7926.68726615 0 -78.22256935 0 2343.18508476 0 203.64299109 0 135.44966604 0 32508
0.17450000 0.17449800 7804.93426366 0 -148.29612368 0 2202.40680256 0 278.53361003 0 -162.73534434 0 32791
0.17550000 0.17549800 7941.43954713 0 49.60325410 0 2038.93439340 0 77.15508858 0 -47.79541314 0 33633
0.17650000 0.17650100 7970.39488045 0 69.92778905 0 1986.97736509 0 -74.42289584 0 17.27741452 0 33984
0.17750000 0.17750300 7870.00687163 0 -16.36569500 0 2002.70727303 0 16.25782649 0 278.25130652 0 34069
0.17850000 0.17849800 7875.67491108 0 74.29130067 0 1938.78804518 0 248.29198326 0 -222.41562563 0 34536
