### header ###
fiducial parameters:
Omega_m = 0.31
Omega_nu = 0
Omega_de = 0.69
Omega_k = 0
H_0 = 100
w_de = -1
zeff = 0
beta = 0
fgrowth = 0
b_1 = 2
gamma = 0.55
Lx = 3500 Ly = 3500 Lz = 3500
nx = 700 ny = 700 nz = 700
xoffset = -983.599254 yoffset = -42.9823471 zoffset = 800.977702
bins = 400 dk = 0.001
kx_ny = 0.628318531 ky_ny = 0.628318531 kz_ny = 0.628318531
############################
A(data) = 9.04717382 (not used)
A(ran) = 9.03441021 (used)
Ngal = 501633
weighted Ngal = 0
Nran = 25229228
weighted Nran = 0
SN(data) = 6766.49362
SN(ran) = 134.109595
SN(data+ran) = 6900.60322
############################
13 columns: k_central k_mean P_0(k) sigma^{lin}_{P_0(k)} P^img_1(k) sigma^{lin}_{P_1(k)} P_2(k) sigma^{lin}_{P_2(k)} P^img_3(k) sigma^{lin}_{P_3(k)} P_4(k) sigma^{lin}_{P_4(k)} N_modes
### header ###
0.00050000 0 0 0 0 0 0 0 0 0 0 0 0
0.00150000 0.00179520 19752.23872432 0 -3996.41818112 0 350.50452958 0 -1459.56409717 0 -36746.91034782 0 3
0.00250000 0.00253879 23110.77179107 0 -3481.53831051 0 7473.76038490 0 11039.16590707 0 -9526.38155574 0 6
0.00350000 0.00331552 30960.34735769 0 -5323.81590099 0 16187.85476740 0 -39541.16592106 0 -23056.61784824 0 7
0.00450000 0.00420575 38439.52313688 0 5355.42950088 0 1489.94742493 0 14694.28243351 0 3356.83045800 0 24
0.00550000 0.00557378 49395.20629233 0 -16191.36983063 0 -3236.91187913 0 -1418.08635111 0 4721.99313840 0 45
0.00650000 0.00659388 55864.68015984 0 -1558.98546361 0 2411.98146284 0 -161.55450278 0 -11627.60946026 0 40
0.00750000 0.00754703 58619.94050042 0 5731.33255919 0 5732.07951012 0 -7414.65239984 0 -13160.50656398 0 57
0.00850000 0.00846663 79370.78671811 0 -8649.36229628 0 18610.94163312 0 -22943.69644210 0 -18037.21740719 0 75
0.00950000 0.00948925 59113.14780932 0 5970.80722603 0 24208.02074622 0 14745.36069602 0 10109.77220554 0 112
0.01050000 0.01054430 69115.91929334 0 3685.97219082 0 28989.49534515 0 -6643.71115779 0 21710.01909549 0 105
0.01150000 0.01145670 71058.21141718 0 -11277.53113209 0 23784.01624458 0 19998.73253305 0 -13559.35639441 0 144
0.01250000 0.01249090 89907.40842958 0 1804.96299742 0 27306.54897996 0 18675.09153699 0 -14659.02195553 0 169
0.01350000 0.01339930 81343.83564517 0 -11279.61820088 0 9924.30868207 0 -26345.06934192 0 4811.68217353 0 180
0.01450000 0.01448870 85455.36116237 0 6476.81156199 0 24960.57381376 0 -3899.84181898 0 -7543.02909960 0 267
0.01550000 0.01550050 86559.85993542 0 6623.94991172 0 29471.38854429 0 -19868.45550223 0 -24011.83627991 0 238
0.01650000 0.01653350 78687.54630355 0 2809.94154289 0 33223.71853808 0 6474.64760119 0 -14488.76108052 0 315
0.01750000 0.01747870 78727.09076484 0 -6264.63355801 0 40368.63377361 0 3624.15101634 0 -28767.27744183 0 297
0.01850000 0.01844180 84376.12690625 0 5244.45236409 0 39583.89590840 0 -7201.71646035 0 -33466.03820922 0 388
0.01950000 0.01947590 76428.34926074 0 7861.62564275 0 41577.48598619 0 -5147.77714080 0 -21188.25189788 0 399
0.02050000 0.02045430 73059.49069577 0 690.52648155 0 40779.78632533 0 501.01734001 0 -26296.84706828 0 462
0.02150000 0.02154770 75458.63119326 0 -2517.44434419 0 43158.93490073 0 10270.04810407 0 -26389.55686087 0 571
0.02250000 0.02255340 68308.66305434 0 -540.58157353 0 20535.10921219 0 16600.32546783 0 -15361.70506356 0 510
0.02350000 0.02348930 78888.01475316 0 -187.52422928 0 35647.46447815 0 123.49625416 0 -22552.42596676 0 555
0.02450000 0.02439640 74619.30000232 0 840.48896489 0 16862.74690680 0 2653.62009048 0 -8793.35905824 0 592
0.02550000 0.02547300 70060.81222679 0 2729.27084185 0 28624.36815254 0 -4274.50362059 0 -8871.39346186 0 837
0.02650000 0.02652900 65342.27922875 0 4101.10115782 0 21552.06094177 0 -3125.63815888 0 -9636.18334327 0 723
0.02750000 0.02749970 66483.57631995 0 3826.91524161 0 37858.76878450 0 1092.50471825 0 -17736.78934709 0 826
0.02850000 0.02848090 57198.64665412 0 4233.19064311 0 30224.16130329 0 -1772.49260087 0 -9033.78938290 0 831
0.02950000 0.02946900 58545.46509832 0 384.77090375 0 35851.44799099 0 4979.36167399 0 937.95727432 0 996
0.03050000 0.03053250 55669.48430507 0 -907.59042342 0 28354.03782132 0 8550.53409676 0 -10921.31242785 0 1041
0.03150000 0.03150510 59752.01055065 0 352.61027215 0 27750.10602080 0 3314.62773014 0 -4956.22816413 0 1036
0.03250000 0.03246190 54834.98632607 0 2824.90253074 0 25901.29260963 0 -801.44320319 0 -387.91908225 0 1059
0.03350000 0.03345080 51850.58780144 0 2299.81799221 0 29690.86030447 0 -1640.55689960 0 5010.29423037 0 1302
0.03450000 0.03451200 50564.40419789 0 -139.66774191 0 25220.46880104 0 2670.11891850 0 -5306.20763114 0 1339
0.03550000 0.03553350 50403.91959248 0 -1996.69871183 0 21940.14589107 0 6285.82279852 0 -3337.99191602 0 1365
0.03650000 0.03647120 51512.81219456 0 898.55890784 0 18365.87581883 0 6824.78085222 0 -2338.42876483 0 1308
0.03750000 0.03744890 52357.08644317 0 1591.78539734 0 17904.63361614 0 -1033.16166334 0 554.80549657 0 1579
0.03850000 0.03847530 50490.58787014 0 654.00827001 0 18911.91892185 0 -3275.88514264 0 -3292.30707865 0 1662
0.03950000 0.03950240 48264.56423653 0 1479.19352838 0 21304.90805869 0 -4905.54534624 0 -7975.03037008 0 1683
0.04050000 0.04050350 46238.89920681 0 2616.06383683 0 24332.80549074 0 -150.85443063 0 -4311.37883074 0 1822
0.04150000 0.04152450 42227.00376293 0 -674.53514079 0 23209.41325285 0 4509.70528870 0 -1922.06952571 0 1887
0.04250000 0.04250150 43997.05778868 0 195.34963879 0 23799.06510901 0 2550.55184595 0 -2796.24378088 0 1920
0.04350000 0.04349210 43755.06765472 0 3522.49978167 0 20262.25242927 0 4500.57710888 0 -3643.33008006 0 2005
0.04450000 0.04448520 44117.22901272 0 -696.11982591 0 20615.18674631 0 -1326.15646317 0 -272.96882556 0 2151
0.04550000 0.04548030 40483.97178572 0 311.21930420 0 20008.83833982 0 387.64336948 0 -1729.64178323 0 2274
0.04650000 0.04648670 39833.35555172 0 2467.70619954 0 19127.32639017 0 1531.43615557 0 586.18512506 0 2311
0.04750000 0.04749250 36880.48275041 0 -218.50292087 0 16200.15748869 0 1310.19587921 0 2514.43457130 0 2568
0.04850000 0.04851840 37678.73163989 0 199.38976458 0 16265.95507845 0 4885.37767098 0 -2974.71013161 0 2493
0.04950000 0.04949480 37305.47586358 0 -387.30065082 0 12017.01255826 0 3314.13342437 0 -1114.47276496 0 2644
0.05050000 0.05050630 38227.19134888 0 -87.77420443 0 13110.74645019 0 1547.35280124 0 3024.90962831 0 2829
0.05150000 0.05149060 36186.69714617 0 574.20644866 0 10753.20452906 0 -1090.85263854 0 1641.74323343 0 2784
0.05250000 0.05249300 36957.81414138 0 1243.14604818 0 10484.03856253 0 1683.90202300 0 637.13596652 0 3055
0.05350000 0.05348950 36003.58432124 0 -291.82933668 0 11040.70374723 0 -1514.09151547 0 1882.67884843 0 3009
0.05450000 0.05448610 35568.48540129 0 -275.25471512 0 11138.57628893 0 2187.96208961 0 1917.54388181 0 3336
0.05550000 0.05550870 35877.15189083 0 93.22518873 0 10023.36755761 0 472.19492001 0 3302.76439175 0 3349
0.05650000 0.05647670 34838.67039899 0 1657.69283282 0 12247.24919957 0 -1498.26274638 0 1946.12573966 0 3324
0.05750000 0.05747970 35548.82301637 0 67.40023890 0 10371.95198391 0 -1762.80420785 0 211.55737563 0 3639
0.05850000 0.05849280 34679.17440511 0 -42.82632204 0 12703.10896169 0 105.65917567 0 -2451.40509383 0 3846
0.05950000 0.05951020 34352.27352509 0 66.95107973 0 11209.64647353 0 -891.99892110 0 -5090.89902398 0 3787
0.06050000 0.06049470 33920.90935982 0 464.32557221 0 12768.46716855 0 -871.17326994 0 -4784.79193985 0 3930
0.06150000 0.06148310 33675.40416262 0 1016.99237250 0 11896.40195132 0 602.40933876 0 -5551.13064599 0 4083
0.06250000 0.06249100 32779.72211434 0 54.96097937 0 11035.21146094 0 1551.14247878 0 -5089.95435073 0 4303
0.06350000 0.06350600 32316.28299713 0 179.50988512 0 10189.22361902 0 322.66522883 0 -7545.72031988 0 4470
0.06450000 0.06451750 31446.08515724 0 763.40033297 0 10684.67178073 0 1300.10105701 0 -4753.10144796 0 4479
0.06550000 0.06550280 30487.57135379 0 738.22369262 0 9553.60132660 0 2002.09213697 0 -2985.21138300 0 4636
0.06650000 0.06648880 30783.93512204 0 -471.82254300 0 7997.60366673 0 345.63506856 0 -3233.40780047 0 4653
0.06750000 0.06749660 30840.83520801 0 -98.52162009 0 8089.35780151 0 1253.47154640 0 -3053.35967129 0 5220
0.06850000 0.06852730 30124.20169280 0 387.91358997 0 6122.78977227 0 -284.30490446 0 -1927.35310512 0 5029
0.06950000 0.06949320 29997.11018804 0 83.85490894 0 6501.42798915 0 602.68285462 0 -391.40558559 0 5040
0.07050000 0.07048030 29054.08463193 0 288.87009283 0 6629.58499745 0 547.58643547 0 -1277.80237467 0 5475
0.07150000 0.07148790 29197.21361266 0 1045.42374171 0 7174.51865864 0 424.15938411 0 -2743.27617189 0 5509
0.07250000 0.07249820 27655.08946797 0 1078.25113687 0 7839.63452844 0 -488.06323356 0 896.86069292 0 5916
0.07350000 0.07351270 27943.43449823 0 -274.68791117 0 7611.62775537 0 -386.03412960 0 714.19164472 0 5721
0.07450000 0.07449140 26718.43496396 0 520.06458886 0 9236.56459276 0 -931.22922361 0 -1295.13603020 0 6028
0.07550000 0.07549160 25704.66876042 0 1419.09693178 0 9042.73082499 0 -718.14279548 0 -702.53701321 0 6183
0.07650000 0.07648840 24855.34160843 0 212.95790863 0 10153.11732894 0 496.33022289 0 1574.21008120 0 6330
0.07750000 0.07749960 24991.44046272 0 -187.01234820 0 9624.57265005 0 1726.68693321 0 -439.96398714 0 6583
0.07850000 0.07848650 25384.35862395 0 352.65530889 0 8602.37029477 0 1061.59413101 0 -882.07435977 0 6549
0.07950000 0.07947320 24147.16621412 0 704.69438327 0 9332.30612738 0 -1274.16648115 0 571.11099611 0 6828
0.08050000 0.08048110 23254.01061753 0 901.26221115 0 9863.03673622 0 -218.89177474 0 2189.84045153 0 7147
0.08150000 0.08149960 22282.09563553 0 382.19721840 0 10178.68941391 0 329.32517519 0 1206.68825178 0 7386
0.08250000 0.08250610 22554.40318982 0 -361.78678408 0 9660.23955722 0 1179.11697460 0 1872.45221136 0 7227
0.08350000 0.08350160 22525.29407248 0 -6.60411177 0 8572.86573282 0 1788.73878372 0 2511.72138188 0 7798
0.08450000 0.08449610 22251.33883230 0 135.21899002 0 8028.06388650 0 458.68169882 0 2395.92201772 0 7371
0.08550000 0.08548940 23139.99075413 0 357.72798451 0 8721.67373758 0 -660.20027357 0 2571.42253386 0 8256
0.08650000 0.08650700 21609.62010210 0 297.64237249 0 8249.56779260 0 -525.44043869 0 882.85755979 0 8037
0.08750000 0.08749060 21848.86409292 0 434.21576031 0 9844.08834851 0 -493.97293361 0 2274.46559869 0 8155
0.08850000 0.08849210 20767.43292229 0 158.69412008 0 8631.32562810 0 -41.67942282 0 914.99951762 0 8718
0.08950000 0.08949900 20996.24156916 0 157.57589059 0 9006.61355034 0 1349.20209645 0 326.26597173 0 8571
0.09050000 0.09049190 20814.55673866 0 275.47880040 0 9044.09291199 0 -6.83779757 0 -79.43197079 0 8932
0.09150000 0.09150830 19960.72591191 0 864.48915752 0 8914.22231036 0 -145.27316930 0 832.44276547 0 9285
0.09250000 0.09250820 19962.15390635 0 35.78554056 0 8944.86926786 0 319.69939424 0 966.44027102 0 9204
0.09350000 0.09350330 19267.92891921 0 -162.33989972 0 8504.90418226 0 612.97430067 0 582.49101330 0 9349
0.09450000 0.09448040 18883.68857031 0 423.30258745 0 8185.47281159 0 413.89869487 0 245.23058288 0 9564
0.09550000 0.09549270 18498.78914706 0 703.01813749 0 8229.03762645 0 -28.10468802 0 900.65146892 0 10155
0.09650000 0.09649430 17666.15854540 0 371.86952325 0 8285.49832952 0 -275.86326044 0 281.12047687 0 9913
0.09750000 0.09749140 17462.94395264 0 261.83596125 0 8110.94248663 0 852.66646205 0 345.12538439 0 10476
0.09850000 0.09850240 17053.21939536 0 -121.65084597 0 7205.49515332 0 1715.65842233 0 1001.85892685 0 10575
0.09950000 0.09950330 17226.33625924 0 -365.13158643 0 6234.54681371 0 256.17561100 0 1079.14857645 0 10882
0.10050000 0.10051200 17469.86423337 0 363.28947361 0 5950.39789018 0 78.22300873 0 -327.21064497 0 10875
0.10150000 0.10150300 16890.20833825 0 594.69047961 0 5846.28611125 0 -807.51437646 0 394.37581402 0 11118
0.10250000 0.10250800 15986.17801481 0 114.91620452 0 6225.23189616 0 -210.22714389 0 -40.65005852 0 11575
0.10350000 0.10349800 16338.78279467 0 159.46413862 0 6080.33439924 0 526.12038373 0 -866.12695730 0 11364
0.10450000 0.10450100 16075.92197280 0 14.22392304 0 5560.74214700 0 909.33037972 0 -759.00430702 0 12093
0.10550000 0.10551000 16062.96017715 0 231.11870248 0 5462.25446923 0 456.93185641 0 493.27431480 0 12067
0.10650000 0.10649700 15735.51006850 0 9.06749005 0 5252.81162383 0 -193.19556410 0 -589.45303540 0 12054
0.10750000 0.10749900 15680.69705132 0 209.46591301 0 5488.91402689 0 -55.47461799 0 297.25022325 0 12807
0.10850000 0.10850100 15194.08048597 0 -28.97982892 0 5165.70396326 0 367.57455537 0 123.13156635 0 12736
0.10950000 0.10950300 14976.91548603 0 212.98427161 0 5550.24089561 0 -307.07372651 0 728.99115936 0 12933
0.11050000 0.11050200 15224.83728919 0 293.83402118 0 4997.35440387 0 242.37569246 0 -110.09178024 0 13428
0.11150000 0.11150900 14985.48345265 0 28.72553607 0 5436.74829170 0 627.39814293 0 476.03292967 0 13453
0.11250000 0.11250000 15165.30090580 0 -68.61524248 0 4848.08504707 0 340.10433626 0 -99.41345754 0 13668
0.11350000 0.11349100 14702.63070868 0 252.09703920 0 4806.96979189 0 -18.57491224 0 48.40494707 0 13791
0.11450000 0.11448600 14268.52040026 0 311.77292666 0 4526.57759218 0 -255.79005250 0 380.76922396 0 14205
0.11550000 0.11549300 14063.21873872 0 210.07116296 0 5358.05481373 0 -190.84486557 0 491.75075458 0 14776
0.11650000 0.11649800 13942.27859460 0 244.33643867 0 4914.04740542 0 118.19070560 0 -377.35082497 0 14553
0.11750000 0.11747300 13570.23112127 0 132.26304154 0 4929.50269904 0 -27.10882667 0 195.89227667 0 14568
0.11850000 0.11849100 13684.36083039 0 -142.04260651 0 5035.53677817 0 459.35615158 0 -317.97591480 0 16015
0.11950000 0.11950300 13829.79657136 0 123.69727184 0 5076.99255509 0 361.77909488 0 583.93328768 0 15270
0.12050000 0.12050700 13916.68454048 0 -211.67381210 0 4440.39263571 0 250.60313733 0 136.46244364 0 15999
0.12150000 0.12150000 13932.94170790 0 -121.62228608 0 4636.48922543 0 121.65853517 0 536.02517282 0 15670
0.12250000 0.12250700 13944.91489202 0 66.12910416 0 4030.32755668 0 232.79055443 0 486.58580855 0 16887
0.12350000 0.12352200 13897.02215556 0 -103.97655884 0 4149.41130803 0 579.03746368 0 614.36934139 0 16407
0.12450000 0.12449800 14035.42777009 0 337.82723437 0 4512.57226214 0 -432.07816249 0 107.13352500 0 16306
0.12550000 0.12549900 13838.47438370 0 375.09459376 0 4632.67757875 0 -272.50307968 0 709.81319409 0 17523
0.12650000 0.12650100 13485.75975812 0 269.73277048 0 4954.19601820 0 -110.14560464 0 396.82207833 0 17154
0.12750000 0.12750600 13148.53337987 0 122.00674612 0 4691.37913462 0 -315.98001796 0 101.72977436 0 18007
0.12850000 0.12850300 12970.14392115 0 -10.75492911 0 4624.62588704 0 408.67443215 0 709.78133883 0 17496
0.12950000 0.12949900 13079.44041833 0 144.96120744 0 5165.06685805 0 122.00015537 0 -302.99954854 0 18405
0.13050000 0.13049000 12729.14239871 0 206.65605934 0 4913.68491452 0 -193.42184630 0 304.52310876 0 18100
0.13150000 0.13148800 12555.36646048 0 149.02879467 0 5033.18607963 0 73.83093723 0 -621.85093377 0 19059
0.13250000 0.13249300 12532.62839523 0 -152.31647724 0 4065.93954098 0 445.24756655 0 322.49057413 0 18957
0.13350000 0.13349100 12762.31580791 0 -57.22621793 0 4527.35749684 0 715.61414687 0 -588.78077956 0 19468
0.13450000 0.13450700 12545.26065370 0 92.76163977 0 3614.82511421 0 -160.97671427 0 -71.68861604 0 19953
0.13550000 0.13551000 12376.53761885 0 366.38492616 0 3200.01469982 0 399.37818837 0 -524.98348047 0 19956
0.13650000 0.13649900 11971.20689060 0 221.38746963 0 3724.63788631 0 -150.02948923 0 -54.19260852 0 19723
0.13750000 0.13749600 11695.49411881 0 239.45379616 0 3689.70694550 0 -166.38991163 0 102.03206980 0 20946
0.13850000 0.13851100 11401.87649371 0 114.93048446 0 3438.10531052 0 293.25074038 0 -186.76629377 0 20955
0.13950000 0.13949800 11313.89006733 0 -47.24376791 0 3171.78434829 0 697.50937434 0 258.34835946 0 20506
0.14050000 0.14048300 11380.56642290 0 -61.49251608 0 3097.35288448 0 14.66396501 0 -331.85382380 0 21447
0.14150000 0.14148400 11141.87166071 0 377.75066341 0 2961.69341310 0 -125.13075856 0 307.59659217 0 21771
0.14250000 0.14249400 10927.83726396 0 172.34354997 0 3069.64979243 0 -141.15065921 0 171.50542708 0 22470
0.14350000 0.14350900 10800.09766941 0 -1.28050458 0 3124.45182504 0 42.57191934 0 140.94305079 0 22519
0.14450000 0.14449900 10842.06972125 0 23.39823806 0 3144.36685513 0 263.71212625 0 -275.62269830 0 22218
0.14550000 0.14550500 10391.79012199 0 246.78050607 0 3004.12681698 0 -79.70845248 0 220.29011083 0 23559
0.14650000 0.14650700 10469.33021984 0 108.36214944 0 3147.14595199 0 -105.23484163 0 443.54715472 0 23044
0.14750000 0.14750500 10248.78197155 0 -0.44605603 0 2981.05921456 0 673.82334049 0 304.53848716 0 23649
0.14850000 0.14849900 10524.48375877 0 -150.25906680 0 2586.93275034 0 698.72097270 0 -247.14299696 0 23640
0.14950000 0.14949500 10404.51025704 0 86.06072096 0 2472.97879438 0 -241.62654461 0 569.10741007 0 24457
0.15050000 0.15050000 10059.29809453 0 292.49719870 0 2592.88638868 0 -419.77544120 0 208.37624341 0 24591
0.15150000 0.15149900 9990.80928448 0 184.76600310 0 2726.10728495 0 -261.45809195 0 -21.15650648 0 25020
0.15250000 0.15250500 9985.58062793 0 139.88633491 0 2953.78452084 0 -79.87146354 0 -321.79854606 0 25297
0.15350000 0.15350100 9669.29084503 0 41.83957789 0 2848.28868577 0 -111.75704144 0 -318.85797598 0 25452
0.15450000 0.15450400 9860.02696333 0 84.00891264 0 3027.30426513 0 44.36954464 0 -605.80027632 0 26061
0.15550000 0.15549900 9428.42113746 0 181.26631828 0 3185.67983261 0 -398.92562398 0 -801.23779169 0 26128
0.15650000 0.15649500 9416.67862937 0 193.88429680 0 3495.87317773 0 -193.91615206 0 -927.99975927 0 26331
0.15750000 0.15749700 9021.71733764 0 50.00100547 0 3575.70905125 0 167.54658713 0 -680.45033312 0 27345
0.15850000 0.15849900 9240.29934743 0 142.15684606 0 3347.74621647 0 86.01458575 0 -723.58565119 0 26980
0.15950000 0.15949700 8917.52866670 0 44.53859722 0 3604.69733829 0 303.06325906 0 -603.17935730 0 27777
0.16050000 0.16050000 8868.03218265 0 116.80994483 0 3255.33300734 0 396.96158240 0 -168.56705392 0 28224
0.16150000 0.16150500 9026.38578098 0 -129.53996599 0 2962.44036404 0 637.40948238 0 -175.00840728 0 28075
0.16250000 0.16249700 8853.71928458 0 -13.13974572 0 2551.92491753 0 132.00490408 0 106.36383600 0 28590
0.16350000 0.16349900 8917.50669756 0 173.38928128 0 2411.23451190 0 -149.07822524 0 67.41704530 0 29163
0.16450000 0.16449100 8616.86993058 0 63.57760764 0 2187.34695355 0 132.43989316 0 529.72552045 0 28996
0.16550000 0.16550500 8693.98163010 0 -23.33782291 0 2165.55356155 0 408.94904646 0 305.33486867 0 30777
0.16650000 0.16650700 8662.45590679 0 83.47627072 0 1838.26822149 0 332.81607236 0 375.46916769 0 29211
0.16750000 0.16749900 8637.79554135 0 -14.71954695 0 1786.21233202 0 173.88578396 0 542.31164371 0 30922
0.16850000 0.16850800 8607.09366098 0 53.87328700 0 1421.98587437 0 40.14498788 0 363.04122227 0 30867
0.16950000 0.16949900 8357.73287881 0 180.12502119 0 1555.63516897 0 -84.89459873 0 265.15110525 0 30852
0.17050000 0.17049200 8200.23607714 0 176.44518937 0 1693.48057029 0 -302.66232216 0 329.75137661 0 31257
0.17150000 0.17149500 8033.94063283 0 124.91875631 0 1995.07299509 0 -51.77611240 0 98.10244880 0 32608
0.17250000 0.17250900 7951.11695557 0 127.90216622 0 1982.18809145 0 -198.66368433 0 -163.35597269 0 32361
0.17350000 0.17350400 7752.21929984 0 117.82162396 0 2209.59071303 0 -15.15871016 0 54.01751443 0 32508
0.17450000 0.17449800 7809.93224418 0 50.17093681 0 2038.49501050 0 164.06667453 0 -186.72674931 0 32791
0.17550000 0.17549800 7665.90252850 0 -15.67641307 0 2009.42983145 0 179.60105708 0 217.36272224 0 33633
0.17650000 0.17650100 7730.01947865 0 -0.82363973 0 1795.87875590 0 323.74501232 0 143.99126968 0 33984
0.17750000 0.17750300 7641.14330190 0 143.18719897 0 1768.53815474 0 22.56692560 0 274.83949827 0 34069
0.17850000 0.17849800 7553.80496530 0 98.15242861 0 1674.91664263 0 139.85447965 0 528.09101605 0 34536
