### header ###
fiducial parameters:
Omega_m = 0.31
Omega_nu = 0
Omega_de = 0.69
Omega_k = 0
H_0 = 100
w_de = -1
zeff = 0
beta = 0
fgrowth = 0
b_1 = 2
gamma = 0.55
Lx = 3500 Ly = 3500 Lz = 3500
nx = 700 ny = 700 nz = 700
xoffset = -983.599254 yoffset = -42.9823471 zoffset = 800.977702
bins = 400 dk = 0.001
kx_ny = 0.628318531 ky_ny = 0.628318531 kz_ny = 0.628318531
############################
A(data) = 9.09689941 (not used)
A(ran) = 9.10832685 (used)
Ngal = 505979
weighted Ngal = 0
Nran = 25229228
weighted Nran = 0
SN(data) = 6701.76804
SN(ran) = 135.206837
SN(data+ran) = 6836.97488
############################
13 columns: k_central k_mean P_0(k) sigma^{lin}_{P_0(k)} P^img_1(k) sigma^{lin}_{P_1(k)} P_2(k) sigma^{lin}_{P_2(k)} P^img_3(k) sigma^{lin}_{P_3(k)} P_4(k) sigma^{lin}_{P_4(k)} N_modes
### header ###
0.00050000 0 0 0 0 0 0 0 0 0 0 0 0
0.00150000 0.00179520 31524.62485120 0 -23879.25248886 0 -43492.97575293 0 88067.16298503 0 9099.68583382 0 3
0.00250000 0.00253879 84449.50385109 0 -54913.19648284 0 -17357.05267296 0 -134693.92744969 0 -40006.47241561 0 6
0.00350000 0.00331552 104741.96385496 0 -10308.45016982 0 -51490.40366650 0 -98419.13403142 0 -86357.96349138 0 7
0.00450000 0.00420575 111579.09136677 0 33796.67384392 0 -23665.05332352 0 -76994.93351449 0 28536.27188044 0 24
0.00550000 0.00557378 52594.68274810 0 14376.93813164 0 18244.38644608 0 -10396.67825679 0 5070.36885782 0 45
0.00650000 0.00659388 56466.19535439 0 -5547.48376789 0 50484.65620095 0 29870.23837472 0 -24313.91202590 0 40
0.00750000 0.00754703 60182.71564157 0 -7799.14539391 0 22062.40418390 0 -9874.23001568 0 -39091.12798240 0 57
0.00850000 0.00846663 58680.79503252 0 1975.61931704 0 2340.69158679 0 12641.92489242 0 4244.31801513 0 75
0.00950000 0.00948925 63075.83236804 0 -6081.32301077 0 14542.14610326 0 3444.73999236 0 2298.14833718 0 112
0.01050000 0.01054430 68145.76184296 0 -4447.07125584 0 15335.12239791 0 8995.11270285 0 -3248.19303517 0 105
0.01150000 0.01145670 78768.39275775 0 1804.39179965 0 103.59231849 0 7391.69464315 0 -289.91802105 0 144
0.01250000 0.01249090 77190.23921499 0 -4366.85092228 0 3875.86249704 0 4738.23932125 0 9096.03895572 0 169
0.01350000 0.01339930 91799.94043962 0 -1659.07688897 0 4859.57490999 0 8016.59599273 0 1128.34628013 0 180
0.01450000 0.01448870 76124.07660024 0 5394.75427072 0 17786.00023226 0 -22092.17237560 0 15407.84026840 0 267
0.01550000 0.01550050 79797.86690007 0 4750.68484199 0 24151.66988887 0 -5772.70045953 0 11548.74022912 0 238
0.01650000 0.01653350 72738.08210204 0 1912.61180872 0 28757.17163505 0 6520.06880882 0 -8616.17790251 0 315
0.01750000 0.01747870 73847.30424131 0 1047.79970476 0 24891.04146932 0 527.52201519 0 11851.69474091 0 297
0.01850000 0.01844180 69752.58512016 0 1830.82068128 0 21975.51621478 0 9350.37574927 0 1616.09425646 0 388
0.01950000 0.01947590 72040.45189740 0 -2705.30250448 0 22878.99730960 0 2232.48256229 0 16952.27117334 0 399
0.02050000 0.02045430 72785.20591842 0 -854.41410755 0 10701.20356246 0 22365.90792432 0 22524.63499812 0 462
0.02150000 0.02154770 73581.91696774 0 -2488.51098001 0 15605.67242059 0 3138.52306251 0 16598.23839904 0 571
0.02250000 0.02255340 71074.68827605 0 3618.46100774 0 7805.19789340 0 550.15902236 0 6382.02568519 0 510
0.02350000 0.02348930 73341.79421111 0 3295.73426530 0 11737.12564889 0 -12216.93177924 0 4484.34191061 0 555
0.02450000 0.02439640 69627.14130128 0 482.84336467 0 22476.41272449 0 -4845.49268794 0 17898.15271831 0 592
0.02550000 0.02547300 70049.27842558 0 -302.20426549 0 15516.47769123 0 6253.81375402 0 2291.25002560 0 837
0.02650000 0.02652900 70485.36595706 0 193.89967521 0 22308.45860972 0 -8930.13895603 0 -12210.78041860 0 723
0.02750000 0.02749970 68744.09151147 0 5660.75668035 0 26884.85123856 0 -4693.96050918 0 -6920.41254112 0 826
0.02850000 0.02848090 59532.86832765 0 3766.74175301 0 31288.01715779 0 -5365.10690932 0 146.75608660 0 831
0.02950000 0.02946900 60722.05815531 0 2728.75456694 0 29296.29445735 0 7704.52428569 0 3853.38806154 0 996
0.03050000 0.03053250 55137.61130068 0 279.92755229 0 34482.66040163 0 4166.52527211 0 -3352.55745926 0 1041
0.03150000 0.03150510 53901.29765665 0 3186.78927444 0 31004.17580229 0 7620.16276827 0 5969.07166356 0 1036
0.03250000 0.03246190 55709.13861209 0 -701.72195793 0 24392.89110276 0 -239.75037962 0 -1794.99999009 0 1059
0.03350000 0.03345080 48664.73221567 0 1317.98394117 0 21859.40928260 0 5429.95982585 0 5704.67300153 0 1302
0.03450000 0.03451200 49575.24343694 0 1521.76973170 0 19113.70552017 0 6205.16308206 0 8278.05078931 0 1339
0.03550000 0.03553350 51000.93111227 0 -955.34804963 0 13255.41327108 0 5441.26295103 0 9191.01157026 0 1365
0.03650000 0.03647120 49256.80067781 0 -2035.02388556 0 13343.18000601 0 4411.72290127 0 2978.26913312 0 1308
0.03750000 0.03744890 49127.84179570 0 2226.78156912 0 8497.00627457 0 -2482.93081714 0 7789.84146093 0 1579
0.03850000 0.03847530 47596.04314923 0 2224.09034883 0 11363.32064395 0 -2297.67600056 0 2149.90054562 0 1662
0.03950000 0.03950240 45650.12611645 0 376.78182411 0 11859.71347890 0 273.29067354 0 6383.95896996 0 1683
0.04050000 0.04050350 44558.25960186 0 -704.08473949 0 13169.18437632 0 295.78597973 0 6027.16906795 0 1822
0.04150000 0.04152450 45555.32925507 0 2432.70935130 0 12821.41280840 0 -1035.65296440 0 -964.67285329 0 1887
0.04250000 0.04250150 43035.35845919 0 1827.05297288 0 15732.98361681 0 -182.44496292 0 3177.67207919 0 1920
0.04350000 0.04349210 40760.67316904 0 1083.95103158 0 18173.97533583 0 -1709.92447545 0 5199.49250852 0 2005
0.04450000 0.04448520 41122.39514415 0 748.68320263 0 18628.51694925 0 1575.09983158 0 1749.55681332 0 2151
0.04550000 0.04548030 37526.48546392 0 1052.42201290 0 18629.94494368 0 429.54951388 0 3156.49382326 0 2274
0.04650000 0.04648670 38853.09229457 0 178.66626995 0 20268.40378992 0 1991.83254617 0 2919.99597558 0 2311
0.04750000 0.04749250 38082.08514508 0 -172.01071742 0 17879.80848210 0 4300.67985705 0 5693.09526203 0 2568
0.04850000 0.04851840 38846.50155102 0 -952.47668236 0 15582.49497244 0 -1232.44707448 0 1588.33624154 0 2493
0.04950000 0.04949480 39448.23643702 0 32.52652772 0 14683.18801521 0 3321.50407257 0 2858.63615314 0 2644
0.05050000 0.05050630 39962.53412528 0 340.41849504 0 13923.27528403 0 -742.34949808 0 -702.64026820 0 2829
0.05150000 0.05149060 39659.35992204 0 785.90552528 0 11424.83425040 0 -795.33578084 0 2390.69336118 0 2784
0.05250000 0.05249300 37009.88101542 0 -344.41687946 0 12630.39109121 0 187.76588988 0 -3804.95708102 0 3055
0.05350000 0.05348950 37652.47851143 0 2242.22587817 0 14313.66699357 0 -1617.00597598 0 -1788.67287628 0 3009
0.05450000 0.05448610 35377.35383838 0 1764.32007887 0 15384.77266598 0 -1201.23990378 0 -4794.56820945 0 3336
0.05550000 0.05550870 33739.33437505 0 584.05741335 0 15795.59568052 0 1843.17832543 0 -1752.73135480 0 3349
0.05650000 0.05647670 34412.79852001 0 -1020.63925060 0 16044.83563239 0 1699.12664060 0 -3088.91673274 0 3324
0.05750000 0.05747970 34308.44508049 0 -725.12458981 0 13038.57780833 0 1442.21945707 0 -2135.59863212 0 3639
0.05850000 0.05849280 35392.95193144 0 224.88385909 0 12452.77055257 0 1229.60207018 0 -581.58917989 0 3846
0.05950000 0.05951020 35085.38389917 0 -338.98830369 0 11488.43492565 0 267.99610955 0 -2446.26431387 0 3787
0.06050000 0.06049470 34779.13401560 0 1307.52662808 0 12439.47921974 0 -1011.90761385 0 -680.19329413 0 3930
0.06150000 0.06148310 34353.48182807 0 1224.45030564 0 14340.57919640 0 39.08091233 0 -962.11344788 0 4083
0.06250000 0.06249100 33031.81805508 0 -387.76090441 0 13370.75128319 0 429.04861737 0 123.19747379 0 4303
0.06350000 0.06350600 32329.90386714 0 799.99873190 0 13429.18920932 0 1048.01610084 0 -2219.31205976 0 4470
0.06450000 0.06451750 32141.40860164 0 1400.81860301 0 15668.17463858 0 -812.70129163 0 913.01130999 0 4479
0.06550000 0.06550280 30132.87950514 0 516.32873573 0 14026.09088339 0 482.88730296 0 3045.62653219 0 4636
0.06650000 0.06648880 30428.47435330 0 -661.99185736 0 13840.45160677 0 4363.30290533 0 4056.98711433 0 4653
0.06750000 0.06749660 29391.20116445 0 70.91618089 0 12609.08102040 0 1573.36426912 0 5040.40294382 0 5220
0.06850000 0.06852730 30547.10773718 0 1384.27583670 0 12593.81246451 0 59.94347165 0 4951.79039681 0 5029
0.06950000 0.06949320 29776.21043342 0 591.94873029 0 12165.19444239 0 27.40057692 0 6424.76665710 0 5040
0.07050000 0.07048030 27505.47958941 0 -297.17113433 0 13233.99335455 0 -237.91266062 0 5763.18781967 0 5475
0.07150000 0.07148790 27551.61479425 0 802.63173395 0 13075.70566365 0 429.34080700 0 4608.59939565 0 5509
0.07250000 0.07249820 27862.91758121 0 898.31834570 0 12871.50245937 0 1295.95987315 0 4143.63342285 0 5916
0.07350000 0.07351270 26006.74450641 0 -298.61450717 0 11810.61243946 0 89.62883967 0 5774.72162088 0 5721
0.07450000 0.07449140 26192.16409158 0 508.86471866 0 11613.87874453 0 1261.55619182 0 3514.66778142 0 6028
0.07550000 0.07549160 25666.00306494 0 361.87026683 0 10914.58986943 0 -131.63801936 0 2596.37948276 0 6183
0.07650000 0.07648840 25319.54964572 0 166.43714530 0 10156.59943845 0 187.29465171 0 1437.28738398 0 6330
0.07750000 0.07749960 25085.02902111 0 78.50476302 0 10706.76175619 0 -263.14642076 0 712.61426010 0 6583
0.07850000 0.07848650 24609.72656552 0 490.28541260 0 9567.14530459 0 571.40098882 0 837.18151009 0 6549
0.07950000 0.07947320 24360.37676792 0 -20.52752986 0 10486.31236905 0 -11.92474215 0 -131.51169677 0 6828
0.08050000 0.08048110 24602.25705616 0 415.22892660 0 9078.40871673 0 733.18836454 0 -550.77635534 0 7147
0.08150000 0.08149960 24202.19892275 0 -7.07603098 0 9461.19910204 0 525.25919324 0 445.29150485 0 7386
0.08250000 0.08250610 23705.36670489 0 542.90481063 0 9464.94484130 0 180.10744587 0 240.15790726 0 7227
0.08350000 0.08350160 23416.91182891 0 359.29108919 0 9344.01568175 0 631.77329819 0 2409.31221170 0 7798
0.08450000 0.08449610 23243.35558212 0 -605.93648502 0 9044.79592463 0 743.70938816 0 649.12013521 0 7371
0.08550000 0.08548940 23016.96354122 0 601.23618641 0 8805.38716522 0 715.35381250 0 2246.66364549 0 8256
0.08650000 0.08650700 22272.86859456 0 378.47784212 0 8263.81478324 0 -8.74793785 0 3089.35611564 0 8037
0.08750000 0.08749060 22536.60818224 0 56.46784304 0 8165.97519526 0 711.61136862 0 2877.24401909 0 8155
0.08850000 0.08849210 21430.35187757 0 451.97122343 0 7900.07164678 0 168.57364466 0 1836.33493671 0 8718
0.08950000 0.08949900 21755.60507171 0 922.75572432 0 9050.50790237 0 -315.18143953 0 1776.99627563 0 8571
0.09050000 0.09049190 20509.07577517 0 357.65219096 0 8399.36440890 0 -713.31068200 0 1291.63195155 0 8932
0.09150000 0.09150830 20402.85495831 0 -341.76740055 0 8145.46699825 0 591.21496084 0 726.12857975 0 9285
0.09250000 0.09250820 20385.60917936 0 -313.78859573 0 7991.71593583 0 1067.55875392 0 156.97942830 0 9204
0.09350000 0.09350330 19839.23653916 0 633.41329487 0 7411.35702807 0 -342.71976300 0 -28.86580906 0 9349
0.09450000 0.09448040 19507.83198438 0 867.21992227 0 7535.39482166 0 -420.77284039 0 147.61288326 0 9564
0.09550000 0.09549270 19141.05710589 0 608.55630558 0 8771.58763539 0 -869.24877282 0 -941.95895411 0 10155
0.09650000 0.09649430 18323.47536866 0 400.32945236 0 9101.02595168 0 545.86844831 0 -102.27340086 0 9913
0.09750000 0.09749140 18122.67738188 0 -296.75591749 0 7875.55408078 0 1594.97092338 0 1019.34966178 0 10476
0.09850000 0.09850240 18445.73366149 0 -483.37501798 0 7642.02206770 0 1336.76756029 0 1067.63674439 0 10575
0.09950000 0.09950330 18436.50662053 0 421.76694421 0 7060.26811922 0 120.52273036 0 843.04287802 0 10882
0.10050000 0.10051200 17987.56713913 0 440.82957146 0 6473.60406680 0 -13.44907129 0 1786.71762236 0 10875
0.10150000 0.10150300 17632.98513620 0 54.48402923 0 6690.01113122 0 453.37065798 0 1315.38059747 0 11118
0.10250000 0.10250800 17216.77968109 0 433.45233252 0 6804.70105355 0 -83.26185186 0 1366.15129194 0 11575
0.10350000 0.10349800 16362.17993427 0 542.21827485 0 6746.72447946 0 -643.41694512 0 1371.70948567 0 11364
0.10450000 0.10450100 15944.10710182 0 518.76181856 0 7555.84809580 0 -198.30229190 0 611.61111521 0 12093
0.10550000 0.10551000 15354.56509138 0 299.53940818 0 7357.64246814 0 -73.05103257 0 454.35048185 0 12067
0.10650000 0.10649700 15384.55297453 0 -219.09169396 0 6874.78262661 0 1280.30685722 0 174.72500531 0 12054
0.10750000 0.10749900 15798.01228649 0 43.78703276 0 6631.99061885 0 222.59357570 0 433.40839423 0 12807
0.10850000 0.10850100 14926.38645216 0 394.07593518 0 6431.55512296 0 51.75139711 0 1178.10639392 0 12736
0.10950000 0.10950300 15015.25164434 0 12.35193218 0 5844.66039451 0 866.64652758 0 768.81462880 0 12933
0.11050000 0.11050200 14968.56721087 0 108.66697133 0 6353.96010224 0 -85.61870176 0 891.65290706 0 13428
0.11150000 0.11150900 14727.12630553 0 242.84253680 0 5845.64900604 0 -234.61948576 0 372.43632720 0 13453
0.11250000 0.11250000 14472.50391310 0 -142.27438099 0 6252.04523783 0 238.69366374 0 1773.08576779 0 13668
0.11350000 0.11349100 14693.07413053 0 -51.14208287 0 6011.59294403 0 -75.41392398 0 11.52545294 0 13791
0.11450000 0.11448600 14799.62448457 0 338.54892079 0 5801.82056144 0 71.99058194 0 -14.59684927 0 14205
0.11550000 0.11549300 14473.49252463 0 138.23205828 0 6387.04563486 0 -682.57914329 0 -956.27514756 0 14776
0.11650000 0.11649800 14470.96607294 0 63.62143609 0 6063.92344780 0 187.22435045 0 -932.53528929 0 14553
0.11750000 0.11747300 14094.52477057 0 179.74934881 0 6058.62888382 0 20.46261103 0 -1009.32733775 0 14568
0.11850000 0.11849100 14210.19231985 0 -154.98682684 0 5686.05415101 0 548.82879063 0 -1185.82854845 0 16015
0.11950000 0.11950300 13999.28852629 0 207.86436233 0 5065.96404422 0 539.55122062 0 -726.43834469 0 15270
0.12050000 0.12050700 13931.07433056 0 35.74237119 0 4885.89394589 0 828.34551990 0 -809.01157370 0 15999
0.12150000 0.12150000 13645.91482635 0 210.77527406 0 4584.51022798 0 175.51259916 0 409.66963442 0 15670
0.12250000 0.12250700 13439.95409045 0 180.31395584 0 4120.20332954 0 443.24507897 0 19.69907339 0 16887
0.12350000 0.12352200 13545.51583296 0 225.02995390 0 4309.05010135 0 89.82579306 0 971.94134497 0 16407
0.12450000 0.12449800 12934.11452308 0 -87.28396296 0 4117.14961836 0 186.79924749 0 833.65985612 0 16306
0.12550000 0.12549900 12971.02268695 0 46.11037971 0 4390.87418251 0 -42.60597152 0 733.64642122 0 17523
0.12650000 0.12650100 13117.66673091 0 287.58819321 0 4236.34321544 0 82.84982055 0 894.63631697 0 17154
0.12750000 0.12750600 12900.28203953 0 46.62764323 0 4524.53446168 0 6.64567740 0 970.08934603 0 18007
0.12850000 0.12850300 12701.57112153 0 62.85515230 0 4117.01780349 0 -144.58223969 0 93.00615635 0 17496
0.12950000 0.12949900 12576.78637701 0 228.50327575 0 4582.82958837 0 105.65467199 0 295.01376427 0 18405
0.13050000 0.13049000 12255.48762900 0 297.09424232 0 4642.46483292 0 -311.55653058 0 553.61916273 0 18100
0.13150000 0.13148800 12213.19702457 0 -49.56327025 0 4388.29280796 0 517.42719299 0 567.52013933 0 19059
0.13250000 0.13249300 11989.22158963 0 -201.46365189 0 4029.78931262 0 269.06271155 0 66.89395995 0 18957
0.13350000 0.13349100 12217.37116215 0 367.00225914 0 3791.81953222 0 138.40890990 0 -440.74389180 0 19468
0.13450000 0.13450700 12092.25688045 0 93.80396586 0 3108.22761133 0 94.11724587 0 -352.45099584 0 19953
0.13550000 0.13551000 11821.26747486 0 -21.41870823 0 3685.03850215 0 -155.06811267 0 -274.11341802 0 19956
0.13650000 0.13649900 11645.29462211 0 83.44024132 0 3008.87215234 0 503.13296869 0 -406.35229350 0 19723
0.13750000 0.13749600 11585.86808445 0 91.22742452 0 3236.40658879 0 289.08429199 0 -130.17157892 0 20946
0.13850000 0.13851100 11585.09916437 0 83.52603083 0 2874.36606108 0 -292.14788929 0 -937.91113911 0 20955
0.13950000 0.13949800 11564.99739654 0 162.27069692 0 3129.44980556 0 316.63030466 0 -134.07220064 0 20506
0.14050000 0.14048300 11201.84742700 0 86.77427879 0 3262.33018008 0 -264.69414704 0 -279.92865075 0 21447
0.14150000 0.14148400 11243.58880281 0 167.75419555 0 3353.16161075 0 -61.16649396 0 -7.07799722 0 21771
0.14250000 0.14249400 10968.46919794 0 167.75529401 0 3359.32395597 0 121.08184511 0 137.22147760 0 22470
0.14350000 0.14350900 10948.46629127 0 -98.62136001 0 3302.92916034 0 553.52359695 0 446.91282776 0 22519
0.14450000 0.14449900 11146.26548974 0 147.97098033 0 3325.24981182 0 104.97340880 0 220.73278911 0 22218
0.14550000 0.14550500 10747.56944333 0 135.50678582 0 3402.39446506 0 0.71538786 0 845.43751484 0 23559
0.14650000 0.14650700 10569.20195375 0 94.78719495 0 3048.28479876 0 233.00585205 0 1517.02439635 0 23044
0.14750000 0.14750500 10748.62396230 0 86.41244697 0 3308.67409180 0 -44.69831290 0 804.70671971 0 23649
0.14850000 0.14849900 10395.55783039 0 157.32654080 0 3138.19352534 0 -66.13239953 0 845.17168818 0 23640
0.14950000 0.14949500 10125.02977685 0 223.96115499 0 3374.15312896 0 -61.44616118 0 872.54084923 0 24457
0.15050000 0.15050000 9737.81260879 0 250.70749077 0 3609.24495134 0 -148.24339773 0 994.18400599 0 24591
0.15150000 0.15149900 9697.51021199 0 200.51678173 0 3436.39171720 0 235.46310094 0 1116.73558691 0 25020
0.15250000 0.15250500 9586.26944546 0 35.82958869 0 3206.56150508 0 125.77006068 0 626.22059675 0 25297
0.15350000 0.15350100 9603.31750210 0 -81.19938852 0 3151.51781188 0 507.69705859 0 969.91249442 0 25452
0.15450000 0.15450400 9454.54245106 0 4.72851797 0 2765.37713193 0 151.35313023 0 552.23840195 0 26061
0.15550000 0.15549900 9379.85834208 0 188.04819339 0 2724.61338308 0 23.73414629 0 888.51461467 0 26128
0.15650000 0.15649500 9230.64390813 0 89.42353801 0 2764.66313471 0 -296.81303726 0 428.02265829 0 26331
0.15750000 0.15749700 9033.88824406 0 161.46662620 0 2546.20195521 0 -88.87617676 0 676.86826401 0 27345
0.15850000 0.15849900 8929.04049877 0 175.83993942 0 2833.90988026 0 -40.72717022 0 265.46855940 0 26980
0.15950000 0.15949700 8830.50888271 0 -14.85465719 0 2740.95842708 0 485.97067249 0 588.42817478 0 27777
0.16050000 0.16050000 8750.28854915 0 81.99159589 0 2709.47664206 0 43.86403461 0 321.43715362 0 28224
0.16150000 0.16150500 8677.63658610 0 118.28846830 0 2584.59303638 0 254.66523227 0 810.10234176 0 28075
0.16250000 0.16249700 8395.10239474 0 61.38750356 0 2544.27965501 0 -15.04787582 0 1034.79506928 0 28590
0.16350000 0.16349900 8597.92154288 0 52.54525217 0 2529.96675693 0 55.87083152 0 404.02466257 0 29163
0.16450000 0.16449100 8470.45656264 0 84.29791675 0 2420.82404377 0 65.83087302 0 744.72546113 0 28996
0.16550000 0.16550500 8432.43895694 0 -79.90716340 0 2400.45864620 0 61.67925381 0 570.17401207 0 30777
0.16650000 0.16650700 8361.65437122 0 140.40810211 0 2185.68828309 0 115.72686597 0 590.91288510 0 29211
0.16750000 0.16749900 8377.51609403 0 -34.22232603 0 2180.62439513 0 15.27360879 0 583.43898191 0 30922
0.16850000 0.16850800 8381.25084871 0 -60.45886780 0 2112.06967765 0 352.60917369 0 680.35696426 0 30867
0.16950000 0.16949900 8434.51504116 0 158.99180200 0 2256.25317735 0 -207.98848800 0 127.37490674 0 30852
0.17050000 0.17049200 8297.73514337 0 268.19163495 0 2240.27062425 0 -327.23920486 0 335.15139249 0 31257
0.17150000 0.17149500 7990.61747857 0 112.15578143 0 2737.45434842 0 -327.12057147 0 514.25704534 0 32608
0.17250000 0.17250900 7960.00347479 0 106.03067391 0 2420.30776886 0 24.12882198 0 98.25546390 0 32361
0.17350000 0.17350400 7871.88523354 0 -173.70124314 0 2498.45201820 0 530.53618191 0 176.03326790 0 32508
0.17450000 0.17449800 8031.07365939 0 126.51151933 0 2371.97564950 0 424.18904246 0 503.67121274 0 32791
0.17550000 0.17549800 7962.34318875 0 -40.20770979 0 2031.59669892 0 164.02603161 0 895.85560453 0 33633
0.17650000 0.17650100 7963.33180028 0 -13.18335447 0 1899.13373816 0 218.60727431 0 686.25018745 0 33984
0.17750000 0.17750300 7941.58234657 0 53.72082113 0 1761.51901286 0 126.52579928 0 725.43984705 0 34069
0.17850000 0.17849800 7747.36411876 0 178.75194962 0 1754.02753436 0 -309.85611875 0 838.84127900 0 34536
