### header ###
fiducial parameters:
Omega_m = 0.31
Omega_nu = 0
Omega_de = 0.69
Omega_k = 0
H_0 = 100
w_de = -1
zeff = 0
beta = 0
fgrowth = 0
b_1 = 2
gamma = 0.55
Lx = 3500 Ly = 3500 Lz = 3500
nx = 700 ny = 700 nz = 700
xoffset = -983.599254 yoffset = -42.9823471 zoffset = 800.977702
bins = 400 dk = 0.001
kx_ny = 0.628318531 ky_ny = 0.628318531 kz_ny = 0.628318531
############################
A(data) = 8.99869736 (not used)
A(ran) = 9.00113522 (used)
Ngal = 500122
weighted Ngal = 0
Nran = 25229228
weighted Nran = 0
SN(data) = 6727.01742
SN(ran) = 133.615651
SN(data+ran) = 6860.63307
############################
13 columns: k_central k_mean P_0(k) sigma^{lin}_{P_0(k)} P^img_1(k) sigma^{lin}_{P_1(k)} P_2(k) sigma^{lin}_{P_2(k)} P^img_3(k) sigma^{lin}_{P_3(k)} P_4(k) sigma^{lin}_{P_4(k)} N_modes
### header ###
0.00050000 0 0 0 0 0 0 0 0 0 0 0 0
0.00150000 0.00179520 9680.04474158 0 -13046.70639204 0 -5615.59910247 0 6763.60776752 0 39032.79990200 0 3
0.00250000 0.00253879 35402.06912669 0 -19590.87535310 0 -18269.87065447 0 -17003.56912729 0 42221.51147663 0 6
0.00350000 0.00331552 48707.68189447 0 -17446.02771087 0 -25382.49124661 0 -6850.83625839 0 23369.23878390 0 7
0.00450000 0.00420575 62856.14091641 0 -6424.39318163 0 -14597.06896617 0 -119.38472864 0 45518.75062838 0 24
0.00550000 0.00557378 75499.16426609 0 -15103.34791644 0 -10692.31704324 0 -13280.56794230 0 -4685.07398996 0 45
0.00650000 0.00659388 89623.12769118 0 -2767.78275332 0 -13547.71274747 0 -1544.23318263 0 8153.69444311 0 40
0.00750000 0.00754703 99689.28015900 0 226.57218789 0 1423.62257569 0 -26988.87514091 0 -18586.33619054 0 57
0.00850000 0.00846663 82678.02183090 0 16314.17735209 0 15533.39393300 0 -21006.56706738 0 26933.62274082 0 75
0.00950000 0.00948925 82654.84438275 0 15930.04684892 0 54761.16999832 0 28357.99226745 0 6835.53474878 0 112
0.01050000 0.01054430 76936.60543408 0 1276.48422596 0 47114.25979582 0 18612.47947328 0 41940.85564718 0 105
0.01150000 0.01145670 71854.15354642 0 -3216.18399066 0 77301.18339806 0 7906.36580687 0 40105.11387739 0 144
0.01250000 0.01249090 67668.37231857 0 3126.34117152 0 38294.96616171 0 18242.62891447 0 39323.23200105 0 169
0.01350000 0.01339930 66004.64895540 0 2739.24483375 0 49402.67580169 0 11758.98494833 0 38728.52724149 0 180
0.01450000 0.01448870 65416.86447658 0 816.26468698 0 47905.36871312 0 12412.01778829 0 46639.61641458 0 267
0.01550000 0.01550050 69721.93816266 0 -428.45435199 0 43295.14360074 0 42165.38031074 0 44249.48326660 0 238
0.01650000 0.01653350 77405.53683758 0 -4788.10928077 0 36599.38753805 0 -610.49837801 0 36325.76183505 0 315
0.01750000 0.01747870 74340.07216730 0 1758.26757938 0 25700.93400575 0 9090.22811683 0 16335.48742289 0 297
0.01850000 0.01844180 78672.49743911 0 1429.31258428 0 28528.03345101 0 -8885.29993075 0 22983.79013203 0 388
0.01950000 0.01947590 72345.16394081 0 1249.67088429 0 38324.18512477 0 -12904.01679421 0 9703.35400460 0 399
0.02050000 0.02045430 69443.91863062 0 4753.80446060 0 27500.20699457 0 7192.62123426 0 5591.18039762 0 462
0.02150000 0.02154770 72234.00006628 0 -3130.46038624 0 26354.51607434 0 18619.61944546 0 -8341.90410972 0 571
0.02250000 0.02255340 79111.55080519 0 -5121.99634895 0 18975.73928854 0 5297.02452847 0 -2387.88131060 0 510
0.02350000 0.02348930 70054.00179179 0 5432.91467587 0 16110.85291360 0 -988.88175281 0 7459.91982345 0 555
0.02450000 0.02439640 67983.62955166 0 3368.28736720 0 18326.33135754 0 -9294.89267316 0 14426.36870826 0 592
0.02550000 0.02547300 63270.69868563 0 2263.82154786 0 13496.30494779 0 1987.42773257 0 -10737.47462113 0 837
0.02650000 0.02652900 67661.45203785 0 -375.56693039 0 21667.61864533 0 8000.27291787 0 3881.11312273 0 723
0.02750000 0.02749970 63594.08450243 0 -658.87553412 0 9846.53790820 0 2015.11984005 0 1925.41982035 0 826
0.02850000 0.02848090 65908.97332822 0 -1054.46404495 0 13713.36010200 0 4930.24964997 0 2808.40370273 0 831
0.02950000 0.02946900 62280.32962170 0 4872.64655136 0 10975.22471008 0 -3641.40777986 0 165.19149476 0 996
0.03050000 0.03053250 57568.05783003 0 3447.73878068 0 16428.74644411 0 -3209.95573801 0 5493.80216169 0 1041
0.03150000 0.03150510 55680.24918620 0 1085.18459908 0 20359.02651371 0 -3477.34220379 0 1994.82034992 0 1036
0.03250000 0.03246190 50179.28508319 0 4225.14993598 0 28168.72808187 0 507.74429226 0 -3385.91760619 0 1059
0.03350000 0.03345080 49133.77346490 0 2789.54319160 0 21941.90342268 0 677.01216191 0 244.57809927 0 1302
0.03450000 0.03451200 46949.49120710 0 -300.16223344 0 27826.77833741 0 -2054.26885673 0 -1419.17382379 0 1339
0.03550000 0.03553350 46144.54172834 0 2902.14604514 0 24187.36974976 0 -121.99795846 0 -5658.93324130 0 1365
0.03650000 0.03647120 43541.30787228 0 -886.65602499 0 25577.57725566 0 8924.70159260 0 3178.95727419 0 1308
0.03750000 0.03744890 44786.95840301 0 -2301.39977066 0 24875.00399335 0 3047.51587868 0 809.22687132 0 1579
0.03850000 0.03847530 48049.48630539 0 943.08926663 0 16264.74677547 0 3541.96444428 0 -1642.34738493 0 1662
0.03950000 0.03950240 46002.95058776 0 -1231.06301834 0 16985.33473681 0 -23.14196798 0 2113.68440982 0 1683
0.04050000 0.04050350 44369.32495346 0 1054.23007355 0 17602.11848725 0 1551.28527823 0 5333.41641743 0 1822
0.04150000 0.04152450 46595.01904990 0 3127.45061335 0 18780.76312523 0 1353.40918775 0 4665.66425021 0 1887
0.04250000 0.04250150 41876.15651468 0 1720.41474226 0 18851.50377265 0 -690.45837720 0 6849.89158514 0 1920
0.04350000 0.04349210 42545.22683061 0 -353.99762366 0 21157.16555747 0 2148.13202943 0 6322.64308581 0 2005
0.04450000 0.04448520 40722.44685646 0 491.85400956 0 21202.42199651 0 2303.51979317 0 6539.32476455 0 2151
0.04550000 0.04548030 38412.72077978 0 869.56073468 0 18937.62282169 0 2953.27923050 0 11668.14253308 0 2274
0.04650000 0.04648670 41115.58470915 0 327.71593531 0 21118.28017054 0 3485.59161779 0 13079.55026406 0 2311
0.04750000 0.04749250 38709.85346811 0 -401.82335423 0 16020.88926416 0 2304.56332757 0 14915.73141675 0 2568
0.04850000 0.04851840 38399.42944696 0 378.52287887 0 16070.75922368 0 1055.68992325 0 10607.31842061 0 2493
0.04950000 0.04949480 39416.49102226 0 829.19792273 0 16270.89813611 0 392.73471887 0 13630.31673329 0 2644
0.05050000 0.05050630 38070.22180669 0 297.79066422 0 16444.89376580 0 509.22940647 0 9267.46419543 0 2829
0.05150000 0.05149060 37578.88187513 0 259.23042063 0 15157.28216782 0 1590.84072409 0 10435.00343053 0 2784
0.05250000 0.05249300 37570.09421706 0 -428.69820950 0 14485.90509165 0 -648.11834219 0 5352.74926517 0 3055
0.05350000 0.05348950 36769.86810451 0 662.79373116 0 13024.51755542 0 1820.37435275 0 5464.52827576 0 3009
0.05450000 0.05448610 36640.46983951 0 212.07365054 0 12900.06234808 0 324.34257307 0 2759.33561701 0 3336
0.05550000 0.05550870 37122.14334720 0 1444.02092697 0 11803.36262156 0 -5.82884261 0 2463.82864542 0 3349
0.05650000 0.05647670 35743.24995106 0 -241.23000154 0 14870.80451490 0 -2992.71384607 0 -2774.23069743 0 3324
0.05750000 0.05747970 34356.33781694 0 1533.01793402 0 11999.54708786 0 -131.23378709 0 -3825.53118547 0 3639
0.05850000 0.05849280 33189.33682590 0 -133.89754594 0 12162.77783642 0 881.12858807 0 865.43712614 0 3846
0.05950000 0.05951020 33596.53493149 0 -108.33809323 0 11661.11240663 0 1785.04796733 0 -4178.25679563 0 3787
0.06050000 0.06049470 32961.07740766 0 1642.58904552 0 9243.58373464 0 678.02384104 0 -2591.99663830 0 3930
0.06150000 0.06148310 31679.39747887 0 428.09625493 0 11403.63402532 0 -82.41878592 0 -1647.61997977 0 4083
0.06250000 0.06249100 30646.95750195 0 -151.49263430 0 11769.63998373 0 -776.86961587 0 -2742.35346780 0 4303
0.06350000 0.06350600 30114.86480611 0 1048.83225458 0 11001.15928594 0 1617.81883435 0 -2521.50863605 0 4470
0.06450000 0.06451750 30306.54559765 0 -74.77692862 0 10839.02699464 0 917.90054324 0 108.15047673 0 4479
0.06550000 0.06550280 29302.00643509 0 428.34450627 0 10360.70378159 0 679.11570756 0 -1082.26709661 0 4636
0.06650000 0.06648880 29103.51520854 0 495.85459089 0 11759.86371413 0 -57.07155515 0 -488.28072810 0 4653
0.06750000 0.06749660 28962.14375942 0 590.32191509 0 10260.56841793 0 997.52002068 0 1980.03511522 0 5220
0.06850000 0.06852730 28564.28254052 0 -525.92815371 0 11243.47895709 0 -174.10108159 0 739.60994568 0 5029
0.06950000 0.06949320 28846.80574732 0 450.33781749 0 10664.66887406 0 36.16802337 0 1054.14549234 0 5040
0.07050000 0.07048030 28591.08489762 0 -233.75060607 0 8970.34249167 0 1222.95640377 0 -229.86206738 0 5475
0.07150000 0.07148790 28124.46025437 0 39.03565589 0 10009.69176475 0 672.58318224 0 2239.58958075 0 5509
0.07250000 0.07249820 28286.59254567 0 1263.51144574 0 9438.08756133 0 154.75834773 0 238.16201042 0 5916
0.07350000 0.07351270 27306.43913424 0 282.30900763 0 9168.11972100 0 97.93460453 0 2034.44170322 0 5721
0.07450000 0.07449140 27050.16905591 0 -207.87974073 0 9462.28657473 0 678.02713641 0 705.87192945 0 6028
0.07550000 0.07549160 26092.97340117 0 494.76492129 0 8759.81217358 0 14.61881842 0 686.51711256 0 6183
0.07650000 0.07648840 25150.38722797 0 440.29352432 0 8560.49710409 0 -26.25785184 0 1428.32397275 0 6330
0.07750000 0.07749960 25477.39795372 0 747.94503935 0 9226.74438487 0 94.72227613 0 -856.60003750 0 6583
0.07850000 0.07848650 24309.73788832 0 558.77751801 0 9497.08570067 0 -998.52730599 0 -121.06756516 0 6549
0.07950000 0.07947320 23678.78403925 0 363.25542144 0 9251.13013600 0 738.41152881 0 392.63146389 0 6828
0.08050000 0.08048110 23511.59884456 0 264.22840116 0 9673.83845807 0 757.74657346 0 -1014.31982599 0 7147
0.08150000 0.08149960 22975.66154831 0 279.61998426 0 9060.36106398 0 216.67508800 0 -330.35333118 0 7386
0.08250000 0.08250610 22996.42239049 0 477.30384472 0 9111.91166310 0 168.05187746 0 -931.50164101 0 7227
0.08350000 0.08350160 22061.19588092 0 280.11978231 0 9407.36371182 0 304.51102573 0 -17.63825773 0 7798
0.08450000 0.08449610 22039.88581011 0 366.81991524 0 8895.99890444 0 -109.59659571 0 -450.60034877 0 7371
0.08550000 0.08548940 21183.74822312 0 45.76194907 0 8366.30084543 0 1164.66127708 0 1564.60956477 0 8256
0.08650000 0.08650700 21331.38087861 0 345.67461302 0 8491.04165166 0 999.34126282 0 -46.23527430 0 8037
0.08750000 0.08749060 20932.53104819 0 -45.02861900 0 7669.97780492 0 -0.72012222 0 1509.35716468 0 8155
0.08850000 0.08849210 21029.52482408 0 191.37322351 0 7257.27642847 0 419.44919939 0 1140.50620198 0 8718
0.08950000 0.08949900 20295.97506710 0 111.98112672 0 7751.52727177 0 437.12886896 0 2108.30196925 0 8571
0.09050000 0.09049190 19684.79344867 0 627.15428542 0 7311.13378784 0 -298.51125218 0 677.78986964 0 8932
0.09150000 0.09150830 19344.93077300 0 616.25319559 0 7871.21517461 0 180.60065318 0 2223.43127448 0 9285
0.09250000 0.09250820 19466.74968293 0 168.84056978 0 7954.59906508 0 910.45190458 0 1685.80235406 0 9204
0.09350000 0.09350330 19051.20330218 0 -126.35663686 0 7321.74488495 0 606.55821183 0 1287.19418423 0 9349
0.09450000 0.09448040 18609.40379296 0 341.31044233 0 7258.00141026 0 -815.64405863 0 1597.39851392 0 9564
0.09550000 0.09549270 18097.52271067 0 323.12877780 0 7457.23958774 0 -201.50759018 0 2066.80225404 0 10155
0.09650000 0.09649430 17803.13616549 0 141.42966736 0 7627.98378394 0 375.39996488 0 511.81078103 0 9913
0.09750000 0.09749140 17738.65672443 0 176.66158545 0 7116.45420798 0 387.24462950 0 823.37390235 0 10476
0.09850000 0.09850240 17691.20337088 0 28.80539391 0 7374.93218539 0 63.30310317 0 760.15329332 0 10575
0.09950000 0.09950330 17516.87820402 0 277.51314324 0 6518.02567832 0 60.35824911 0 -206.70878529 0 10882
0.10050000 0.10051200 17456.79259200 0 208.51025520 0 6871.70694629 0 226.79737163 0 -703.89360793 0 10875
0.10150000 0.10150300 16658.76339396 0 314.16646503 0 6805.01960615 0 -540.29377773 0 -371.29832548 0 11118
0.10250000 0.10250800 16315.93488370 0 187.96031681 0 6337.64801196 0 105.44662419 0 -1482.25822413 0 11575
0.10350000 0.10349800 15915.21767593 0 450.72886827 0 7022.14066779 0 493.17874901 0 -1292.84025453 0 11364
0.10450000 0.10450100 15695.52622430 0 297.01515340 0 6168.49657878 0 16.66063077 0 -945.06319432 0 12093
0.10550000 0.10551000 15213.96256234 0 -42.14923299 0 6191.78387265 0 975.88480653 0 -527.11009372 0 12067
0.10650000 0.10649700 15481.54675042 0 81.27155716 0 5462.29840752 0 1271.61806031 0 -358.43758790 0 12054
0.10750000 0.10749900 15235.16278742 0 48.41186735 0 4818.64639255 0 732.28323576 0 942.18743322 0 12807
0.10850000 0.10850100 15101.59038483 0 -122.08034275 0 4190.59247064 0 303.41037156 0 757.15889883 0 12736
0.10950000 0.10950300 14890.02751691 0 343.58424886 0 5033.49364767 0 -282.13435292 0 961.95417158 0 12933
0.11050000 0.11050200 14821.26409255 0 305.76766083 0 4468.67791011 0 -496.43677324 0 745.68770968 0 13428
0.11150000 0.11150900 14340.35950494 0 18.97727713 0 5072.46691119 0 44.26694874 0 510.14222445 0 13453
0.11250000 0.11250000 14617.17073399 0 19.59241319 0 4873.77796233 0 -152.32306799 0 -247.77131452 0 13668
0.11350000 0.11349100 14494.69274971 0 75.77784287 0 4780.73863257 0 243.20722461 0 -436.89489756 0 13791
0.11450000 0.11448600 14157.13683429 0 195.82087695 0 4852.74250584 0 219.81997113 0 -7.30181887 0 14205
0.11550000 0.11549300 14127.58833404 0 -39.06718161 0 4284.80714967 0 286.19315249 0 215.18448150 0 14776
0.11650000 0.11649800 14197.66990711 0 -17.68186648 0 3827.42053195 0 854.44266744 0 402.50000390 0 14553
0.11750000 0.11747300 14604.53847552 0 -240.08870445 0 3436.72125438 0 583.86738025 0 -230.54420934 0 14568
0.11850000 0.11849100 14407.69493487 0 9.42793782 0 3166.84129063 0 89.86423906 0 -27.01754488 0 16015
0.11950000 0.11950300 14478.21589084 0 204.63929182 0 2989.52832002 0 127.63633957 0 327.05027021 0 15270
0.12050000 0.12050700 13982.70182170 0 350.48915118 0 3232.28737407 0 -774.49584974 0 540.74084983 0 15999
0.12150000 0.12150000 14100.23674832 0 -4.95692019 0 3367.34269396 0 189.62667647 0 -287.45857525 0 15670
0.12250000 0.12250700 13551.33765643 0 148.73660504 0 3708.35874974 0 249.57278442 0 -389.24492016 0 16887
0.12350000 0.12352200 13531.45558005 0 209.65704457 0 3336.70672103 0 -223.80737097 0 405.66795463 0 16407
0.12450000 0.12449800 13582.20430538 0 226.38654862 0 3565.48241418 0 44.36350313 0 -19.14303433 0 16306
0.12550000 0.12549900 13196.97534495 0 88.44118768 0 3981.67688471 0 -316.77090719 0 -271.69900897 0 17523
0.12650000 0.12650100 12969.81438397 0 380.65388595 0 4097.79480147 0 -409.20938083 0 -669.94358945 0 17154
0.12750000 0.12750600 12595.02076749 0 219.43001880 0 4058.28329389 0 145.08423465 0 -305.72921483 0 18007
0.12850000 0.12850300 12600.07367088 0 -195.57042870 0 4142.05164440 0 380.89554654 0 -53.61844491 0 17496
0.12950000 0.12949900 12383.78743675 0 7.16358901 0 4133.75829210 0 143.38711819 0 119.49018054 0 18405
0.13050000 0.13049000 12377.63607611 0 267.73687364 0 3648.65759776 0 324.05367881 0 -415.72872466 0 18100
0.13150000 0.13148800 12483.41751007 0 125.50533249 0 3601.80839570 0 -120.86984286 0 -396.88139502 0 19059
0.13250000 0.13249300 12017.56178689 0 95.40540670 0 3638.69459043 0 365.81922068 0 206.11012609 0 18957
0.13350000 0.13349100 12022.72453601 0 116.60343487 0 3293.16387531 0 256.84676838 0 245.52606788 0 19468
0.13450000 0.13450700 11700.32733074 0 198.42531911 0 2895.76400847 0 526.58832652 0 408.18452021 0 19953
0.13550000 0.13551000 11712.52020631 0 18.60116536 0 3201.88207716 0 151.73319644 0 252.60013262 0 19956
0.13650000 0.13649900 11403.19464242 0 136.35479482 0 2694.18611703 0 117.93037123 0 381.29868036 0 19723
0.13750000 0.13749600 11179.76843611 0 113.22458034 0 2855.54948825 0 -450.44656476 0 487.38548543 0 20946
0.13850000 0.13851100 11193.82868902 0 129.44330176 0 3231.60633057 0 -197.19285007 0 82.65209824 0 20955
0.13950000 0.13949800 11180.20781902 0 155.60415982 0 3413.13737705 0 -631.03074108 0 -925.00646325 0 20506
0.14050000 0.14048300 10727.14912290 0 141.19020367 0 3418.19028043 0 -485.34015802 0 -798.75857365 0 21447
0.14150000 0.14148400 10802.34950679 0 132.66837227 0 4089.12797370 0 297.67312930 0 -1064.93344107 0 21771
0.14250000 0.14249400 11074.20669361 0 -92.16616609 0 3375.87770685 0 586.74204289 0 -866.72561650 0 22470
0.14350000 0.14350900 11059.48736635 0 -10.53806069 0 3480.79135958 0 504.95970311 0 -589.95283346 0 22519
0.14450000 0.14449900 11125.50464756 0 -112.74125915 0 2840.56653125 0 471.58637469 0 -177.90394061 0 22218
0.14550000 0.14550500 11086.07003199 0 41.70567595 0 2777.92151381 0 -2.92073194 0 -16.28693561 0 23559
0.14650000 0.14650700 10500.98775802 0 222.64630165 0 2643.10785452 0 -29.83069391 0 473.43837363 0 23044
0.14750000 0.14750500 10552.85690975 0 386.19999664 0 3173.56384905 0 -19.08657363 0 272.07577981 0 23649
0.14850000 0.14849900 10144.24179430 0 253.79635258 0 3036.75099755 0 -355.01809046 0 416.68877630 0 23640
0.14950000 0.14949500 10119.52650599 0 48.21634196 0 3172.72902153 0 342.36935513 0 331.95817724 0 24457
0.15050000 0.15050000 9775.59953847 0 58.45319469 0 2947.20476186 0 131.02727712 0 622.30349816 0 24591
0.15150000 0.15149900 9961.22783052 0 108.05919493 0 3003.50069634 0 325.37622135 0 329.32847056 0 25020
0.15250000 0.15250500 9637.98481317 0 31.28054765 0 2887.86610078 0 167.51473187 0 960.94359090 0 25297
0.15350000 0.15350100 9601.18649502 0 82.15251988 0 2840.28093236 0 162.27509074 0 964.21919045 0 25452
0.15450000 0.15450400 9572.18722341 0 135.79018779 0 2664.22020302 0 -42.73954392 0 952.59861111 0 26061
0.15550000 0.15549900 9448.77555046 0 -6.47093482 0 2585.51574048 0 195.54186881 0 1090.86911540 0 26128
0.15650000 0.15649500 9254.32664662 0 33.79425724 0 2492.44345700 0 129.16539207 0 845.61326800 0 26331
0.15750000 0.15749700 9448.89638075 0 122.59002692 0 2330.57479544 0 86.93465355 0 849.81267010 0 27345
0.15850000 0.15849900 9150.19289855 0 126.35993223 0 2324.33555821 0 -11.06651749 0 452.41500016 0 26980
0.15950000 0.15949700 9030.96634775 0 55.90784953 0 2313.85627597 0 -181.06530060 0 709.09699996 0 27777
0.16050000 0.16050000 9021.33287760 0 197.56632553 0 2418.56122181 0 102.70432564 0 146.06625544 0 28224
0.16150000 0.16150500 8716.41212731 0 100.17216197 0 2462.80708017 0 -174.83155566 0 383.66146192 0 28075
0.16250000 0.16249700 8596.63634789 0 64.81655759 0 2460.80788796 0 -78.18027874 0 57.70789144 0 28590
0.16350000 0.16349900 8375.07751892 0 95.75065181 0 2592.19436061 0 129.90465380 0 79.81533237 0 29163
0.16450000 0.16449100 8518.94246602 0 25.94973457 0 2388.60629239 0 130.51319913 0 264.31298237 0 28996
0.16550000 0.16550500 8622.87849178 0 -13.96325913 0 2085.68473431 0 344.05658548 0 103.01628750 0 30777
0.16650000 0.16650700 8611.32272143 0 60.46348132 0 2596.74197366 0 -204.20759812 0 244.40234611 0 29211
0.16750000 0.16749900 8413.98487500 0 130.00790879 0 2164.02670596 0 -149.83945612 0 372.87241473 0 30922
0.16850000 0.16850800 8380.50389777 0 -68.58327737 0 2340.01054329 0 324.21515202 0 341.62020728 0 30867
0.16950000 0.16949900 8555.91653733 0 -75.53881857 0 2258.26335414 0 262.25886729 0 -62.19519918 0 30852
0.17050000 0.17049200 8614.44234004 0 211.09162975 0 2164.11458254 0 -430.98190214 0 364.79326160 0 31257
0.17150000 0.17149500 8128.00152785 0 188.84567336 0 2477.74609888 0 -474.02165443 0 38.18468105 0 32608
0.17250000 0.17250900 8126.16710423 0 73.86729616 0 2850.26590883 0 78.11030701 0 84.42566733 0 32361
0.17350000 0.17350400 8275.34858445 0 118.23244698 0 2725.62396375 0 61.30204359 0 -232.74002540 0 32508
0.17450000 0.17449800 7979.00678535 0 -7.74108094 0 2733.88436234 0 111.18144984 0 -151.25317062 0 32791
0.17550000 0.17549800 7823.98151251 0 143.59143124 0 2662.56153256 0 187.41987584 0 34.78484599 0 33633
0.17650000 0.17650100 7772.09039164 0 149.28253829 0 2548.78332977 0 97.57903392 0 9.35245183 0 33984
0.17750000 0.17750300 7600.35758390 0 159.75522979 0 2496.05738138 0 138.15846164 0 582.75354459 0 34069
0.17850000 0.17849800 7512.29426552 0 66.55772218 0 2450.65814290 0 323.10680865 0 278.06786415 0 34536
