### header ###
fiducial parameters:
Omega_m = 0.31
Omega_nu = 0
Omega_de = 0.69
Omega_k = 0
H_0 = 100
w_de = -1
zeff = 0
beta = 0
fgrowth = 0
b_1 = 2
gamma = 0.55
Lx = 3500 Ly = 3500 Lz = 3500
nx = 700 ny = 700 nz = 700
xoffset = -983.599254 yoffset = -42.9823471 zoffset = 800.977702
bins = 400 dk = 0.001
kx_ny = 0.628318531 ky_ny = 0.628318531 kz_ny = 0.628318531
############################
A(data) = 9.12957172 (not used)
A(ran) = 9.12252161 (used)
Ngal = 506114
weighted Ngal = 0
Nran = 25229228
weighted Nran = 0
SN(data) = 6745.40344
SN(ran) = 135.417548
SN(data+ran) = 6880.82099
############################
13 columns: k_central k_mean P_0(k) sigma^{lin}_{P_0(k)} P^img_1(k) sigma^{lin}_{P_1(k)} P_2(k) sigma^{lin}_{P_2(k)} P^img_3(k) sigma^{lin}_{P_3(k)} P_4(k) sigma^{lin}_{P_4(k)} N_modes
### header ###
0.00050000 0 0 0 0 0 0 0 0 0 0 0 0
0.00150000 0.00179520 20733.82013019 0 18515.04631448 0 17608.37969362 0 29294.31723428 0 -38298.59107066 0 3
0.00250000 0.00253879 31421.04033175 0 34169.81977451 0 13323.29792964 0 31384.90108796 0 75101.85227582 0 6
0.00350000 0.00331552 26320.68359079 0 10749.52469725 0 21315.56309410 0 -5639.50153241 0 16645.91144404 0 7
0.00450000 0.00420575 30752.73893591 0 -8748.41018724 0 17220.51443577 0 27980.89189073 0 6257.95493788 0 24
0.00550000 0.00557378 55974.74557711 0 -9998.17993268 0 13096.79604301 0 9487.43026137 0 2293.19429494 0 45
0.00650000 0.00659388 62525.06589881 0 -12280.09307159 0 1843.63967748 0 -23644.51217279 0 7525.70642864 0 40
0.00750000 0.00754703 63383.18070887 0 -5408.79255448 0 5836.87233255 0 15839.86350802 0 -15492.86086018 0 57
0.00850000 0.00846663 89328.85099173 0 -8359.79797846 0 17540.93441797 0 -33343.77991639 0 -20264.22965234 0 75
0.00950000 0.00948925 80913.13055425 0 6060.03490911 0 25906.45535874 0 6087.38649484 0 -5645.08169528 0 112
0.01050000 0.01054430 84764.98077563 0 3178.03457009 0 43166.95363871 0 -20748.42961172 0 -16486.85483306 0 105
0.01150000 0.01145670 91538.61745791 0 -5127.74128041 0 35627.36271033 0 279.31131777 0 -7657.92772880 0 144
0.01250000 0.01249090 86921.03268189 0 8394.23461350 0 51747.44266490 0 580.88067496 0 -16214.65712450 0 169
0.01350000 0.01339930 80759.34653812 0 7210.38328812 0 55340.27666481 0 4478.36630312 0 24177.81317162 0 180
0.01450000 0.01448870 90515.40452196 0 -1321.07060607 0 46349.18431553 0 21990.23554204 0 -9099.97143271 0 267
0.01550000 0.01550050 86063.13756329 0 4518.31719360 0 54444.59461652 0 17125.16834577 0 20640.23157180 0 238
0.01650000 0.01653350 84198.83590479 0 -1553.87763736 0 48262.58701347 0 -1489.03570541 0 31961.15176558 0 315
0.01750000 0.01747870 68976.96445019 0 1540.92682628 0 39059.38256764 0 32847.49692717 0 57104.39902137 0 297
0.01850000 0.01844180 88598.59660652 0 -939.54893889 0 24404.86428687 0 17484.36386918 0 25994.77132230 0 388
0.01950000 0.01947590 77205.61761660 0 3200.61885132 0 41388.88087497 0 -1212.78468956 0 38443.03820010 0 399
0.02050000 0.02045430 79316.19339238 0 6156.33665693 0 27911.24970056 0 6579.19876302 0 41806.18478733 0 462
0.02150000 0.02154770 74535.92709643 0 3377.09699441 0 44616.36799082 0 -3222.45618161 0 27493.17686812 0 571
0.02250000 0.02255340 65264.50845487 0 3834.03324465 0 42378.37117310 0 -4031.77752026 0 26077.37530811 0 510
0.02350000 0.02348930 68520.66530516 0 684.50364041 0 50747.29733137 0 4428.52929732 0 15837.99613068 0 555
0.02450000 0.02439640 61307.20633672 0 -659.74001998 0 42556.54094037 0 4386.48035348 0 20824.77239116 0 592
0.02550000 0.02547300 64076.19739302 0 2875.80504009 0 43460.35157236 0 1496.79081365 0 6123.64656893 0 837
0.02650000 0.02652900 60200.62049487 0 2598.46655155 0 39879.60060229 0 6695.04206547 0 15907.41862940 0 723
0.02750000 0.02749970 63151.40622740 0 -2748.83436562 0 32167.55188438 0 7123.90174819 0 2163.63126135 0 826
0.02850000 0.02848090 61266.23388099 0 -845.19365733 0 29139.32491516 0 6372.63387563 0 5125.39058188 0 831
0.02950000 0.02946900 61306.21772519 0 2784.52324194 0 24179.57070323 0 -366.63976825 0 -5036.80000401 0 996
0.03050000 0.03053250 59585.48443032 0 2206.96540018 0 25779.47369970 0 -5066.64508772 0 -4793.72239736 0 1041
0.03150000 0.03150510 58182.53482023 0 3189.15095754 0 27622.46528740 0 3840.44823503 0 -10905.79122679 0 1036
0.03250000 0.03246190 49362.14272886 0 1027.37389205 0 23312.00916076 0 -478.08704474 0 -6954.55259270 0 1059
0.03350000 0.03345080 52416.73267228 0 167.57624547 0 23840.14741047 0 6090.91254264 0 -7807.30693133 0 1302
0.03450000 0.03451200 49189.13571071 0 1913.84208085 0 21460.22991499 0 4567.83564680 0 -5909.31558872 0 1339
0.03550000 0.03553350 46415.53113392 0 -973.10131584 0 12950.26184477 0 5591.60879595 0 300.50934594 0 1365
0.03650000 0.03647120 49873.69427398 0 -1813.35521087 0 9510.88232383 0 8165.36005920 0 575.68826750 0 1308
0.03750000 0.03744890 46277.34521084 0 2174.36318876 0 8127.67199067 0 2236.82146846 0 3792.12710025 0 1579
0.03850000 0.03847530 47163.80021816 0 937.25975396 0 10166.92493668 0 -4386.61216835 0 1110.89179430 0 1662
0.03950000 0.03950240 43526.36885357 0 1509.57685614 0 9453.69663897 0 -4594.23157471 0 1022.35943466 0 1683
0.04050000 0.04050350 42543.13976182 0 2327.80668315 0 12616.44068403 0 -2094.74700669 0 -4506.02545688 0 1822
0.04150000 0.04152450 41485.10573078 0 1310.14095635 0 14757.11418868 0 -3349.55867095 0 -5725.15922940 0 1887
0.04250000 0.04250150 40364.56948176 0 459.60769829 0 16184.33970417 0 1305.34069813 0 -10690.96594082 0 1920
0.04350000 0.04349210 38770.26861730 0 -543.02014864 0 16020.77941844 0 853.03774061 0 -6425.45868517 0 2005
0.04450000 0.04448520 39573.13102727 0 590.76349491 0 15738.91528600 0 704.89210557 0 -8677.26311063 0 2151
0.04550000 0.04548030 38688.10401439 0 483.41566090 0 12345.89066135 0 1812.33364562 0 -8637.16942071 0 2274
0.04650000 0.04648670 38496.31337712 0 1303.78088882 0 15773.51668963 0 -2644.37108037 0 -10686.89066439 0 2311
0.04750000 0.04749250 37248.57577761 0 951.06296787 0 13367.23621996 0 143.90339310 0 -9060.87733889 0 2568
0.04850000 0.04851840 36940.89789961 0 91.25938962 0 16617.13186388 0 1023.52489781 0 -7012.30947533 0 2493
0.04950000 0.04949480 36725.71012274 0 -474.88833721 0 14499.41611592 0 156.22039434 0 -9001.52769323 0 2644
0.05050000 0.05050630 34977.84493359 0 -172.14143384 0 14874.20973240 0 1536.85154986 0 -7124.90134429 0 2829
0.05150000 0.05149060 34661.59908898 0 1747.52466739 0 13741.59045353 0 953.48286921 0 -5164.45172198 0 2784
0.05250000 0.05249300 34347.33046742 0 1408.57371125 0 15150.14219564 0 -233.80662739 0 -2943.10751629 0 3055
0.05350000 0.05348950 35341.54413176 0 -537.72997849 0 16188.40399603 0 796.58692365 0 -3378.39317397 0 3009
0.05450000 0.05448610 33857.63822175 0 216.95189923 0 16503.11200048 0 -126.88169943 0 -3457.50406570 0 3336
0.05550000 0.05550870 33926.51149183 0 889.03967724 0 15404.87443380 0 510.33994676 0 -1023.29751716 0 3349
0.05650000 0.05647670 33238.65755679 0 -371.19616896 0 16328.89667934 0 -592.99995389 0 -2175.38475401 0 3324
0.05750000 0.05747970 31943.57644945 0 858.71237080 0 15738.47590310 0 -460.93683157 0 -3831.30907065 0 3639
0.05850000 0.05849280 32215.11508366 0 1281.55909849 0 17101.66136044 0 1057.88683776 0 -51.42405685 0 3846
0.05950000 0.05951020 32092.74694510 0 -292.45216195 0 16351.74459031 0 2409.34516542 0 -2954.02618144 0 3787
0.06050000 0.06049470 32148.65841954 0 -838.12288796 0 15609.62686672 0 1902.01169618 0 -2179.31723099 0 3930
0.06150000 0.06148310 32443.26465617 0 216.24998504 0 13114.70089632 0 204.21968115 0 -2497.08993120 0 4083
0.06250000 0.06249100 31210.35622964 0 1129.38981452 0 14221.94581252 0 -2130.98511164 0 -241.96157408 0 4303
0.06350000 0.06350600 30636.41231227 0 758.10357207 0 15095.76856136 0 2078.08341008 0 -1488.92585968 0 4470
0.06450000 0.06451750 30904.98511188 0 -566.79515754 0 12771.98223178 0 2809.31542225 0 1426.81908631 0 4479
0.06550000 0.06550280 31286.25962618 0 -1259.89752136 0 12599.41459653 0 2334.32053469 0 468.87538218 0 4636
0.06650000 0.06648880 31301.52818207 0 1333.28545078 0 12327.54642514 0 -133.34721885 0 637.48198056 0 4653
0.06750000 0.06749660 30137.16348845 0 746.93775404 0 12465.62250249 0 -1699.75276124 0 1982.23202974 0 5220
0.06850000 0.06852730 28481.67855471 0 939.37098881 0 14309.27316454 0 -533.47894890 0 3528.46440458 0 5029
0.06950000 0.06949320 29433.16223171 0 589.73533892 0 14830.82067070 0 1022.02989749 0 1745.43759860 0 5040
0.07050000 0.07048030 28301.20202720 0 0.56102716 0 14062.55966436 0 942.44007839 0 3020.73549072 0 5475
0.07150000 0.07148790 28616.67895174 0 61.81326560 0 14272.58469212 0 1844.28776726 0 2871.58696421 0 5509
0.07250000 0.07249820 28201.02272526 0 24.10652330 0 13933.05155363 0 647.58888579 0 4918.51812646 0 5916
0.07350000 0.07351270 27667.17249781 0 -222.24866012 0 11383.97164040 0 212.67340820 0 3110.00711209 0 5721
0.07450000 0.07449140 27741.20851700 0 572.19407496 0 13293.41989222 0 50.20564806 0 3457.93246403 0 6028
0.07550000 0.07549160 27364.32783174 0 614.82629961 0 11729.54629381 0 722.83320797 0 3187.10782704 0 6183
0.07650000 0.07648840 26736.99889162 0 -66.16337603 0 11478.54881033 0 1350.84978234 0 2364.95650762 0 6330
0.07750000 0.07749960 26838.16680509 0 423.92980655 0 11286.64832733 0 27.46846158 0 1547.04523321 0 6583
0.07850000 0.07848650 24969.80085473 0 1244.56305804 0 11523.69540364 0 -667.04695766 0 2782.01875939 0 6549
0.07950000 0.07947320 24325.77536429 0 634.06358157 0 11793.91588914 0 -780.13313239 0 1377.25669482 0 6828
0.08050000 0.08048110 23828.39391780 0 252.88463305 0 11307.95839814 0 766.16295298 0 21.37718655 0 7147
0.08150000 0.08149960 23699.76457288 0 333.84203143 0 12293.82378731 0 1213.98200797 0 755.01251335 0 7386
0.08250000 0.08250610 23531.70061238 0 -127.49903241 0 11660.12379510 0 -278.52592083 0 1106.21236638 0 7227
0.08350000 0.08350160 23100.44629284 0 -57.36176756 0 9831.47805919 0 1583.96438166 0 1107.17900876 0 7798
0.08450000 0.08449610 23238.52237019 0 -53.19158442 0 8918.06691076 0 903.39211978 0 62.22628552 0 7371
0.08550000 0.08548940 23240.38974753 0 186.24013274 0 8070.46433667 0 1170.21947081 0 2279.80410097 0 8256
0.08650000 0.08650700 23134.93785074 0 422.92252124 0 8236.80371927 0 1401.85115283 0 2662.13313423 0 8037
0.08750000 0.08749060 22302.41709480 0 43.08962225 0 7553.32164411 0 380.62752297 0 3063.91584554 0 8155
0.08850000 0.08849210 21863.14403728 0 677.42188646 0 7318.14194514 0 296.61531496 0 2284.79109692 0 8718
0.08950000 0.08949900 21462.97605814 0 44.32297006 0 7483.38287048 0 130.96136969 0 3403.58079890 0 8571
0.09050000 0.09049190 20470.84946259 0 790.18731167 0 7648.36016608 0 -279.19817667 0 2730.49012941 0 8932
0.09150000 0.09150830 20171.08047685 0 920.53793912 0 7817.26993867 0 -1423.32599223 0 2409.61977973 0 9285
0.09250000 0.09250820 18874.13199217 0 219.59478739 0 8522.71017441 0 448.72308532 0 2282.83584300 0 9204
0.09350000 0.09350330 18834.69737660 0 90.83659342 0 9370.71917769 0 306.10378875 0 741.68932526 0 9349
0.09450000 0.09448040 18376.86039141 0 254.78057028 0 8055.41547223 0 -51.64144154 0 1020.92484948 0 9564
0.09550000 0.09549270 18121.35923317 0 360.19182414 0 8224.33622939 0 398.83115666 0 479.21406189 0 10155
0.09650000 0.09649430 18040.40293324 0 -19.83022919 0 7515.69948302 0 492.40543510 0 462.17698982 0 9913
0.09750000 0.09749140 17732.06598088 0 164.07875756 0 7519.47817599 0 678.00956110 0 448.19033355 0 10476
0.09850000 0.09850240 17310.69777666 0 -11.06849472 0 6041.47098145 0 656.34908242 0 981.39466813 0 10575
0.09950000 0.09950330 18090.93196712 0 187.10022478 0 6574.72804198 0 456.29255429 0 -689.12924392 0 10882
0.10050000 0.10051200 17458.76981506 0 -68.10500908 0 5194.65929658 0 -34.32305456 0 -120.85226754 0 10875
0.10150000 0.10150300 17184.04565480 0 139.50407178 0 5212.63005732 0 308.30509710 0 -834.28707521 0 11118
0.10250000 0.10250800 16575.17079662 0 425.96305093 0 5603.50508806 0 -176.07061545 0 -141.10672092 0 11575
0.10350000 0.10349800 16201.58548313 0 568.70207934 0 5510.68544975 0 21.68310689 0 326.12097537 0 11364
0.10450000 0.10450100 16074.05459546 0 -78.44577586 0 5273.08914481 0 643.80909436 0 -656.30514413 0 12093
0.10550000 0.10551000 16079.21734457 0 -23.30453965 0 5058.28582798 0 167.20606538 0 -577.83135761 0 12067
0.10650000 0.10649700 15583.48358397 0 492.10555627 0 5460.58481420 0 -592.28595667 0 -719.48840562 0 12054
0.10750000 0.10749900 15155.63448193 0 352.75526851 0 6170.92416932 0 -303.52680802 0 752.55636292 0 12807
0.10850000 0.10850100 15349.62203372 0 121.09063276 0 5880.32730168 0 190.25169865 0 -588.95104044 0 12736
0.10950000 0.10950300 14729.54291150 0 79.53852114 0 6054.96003658 0 -68.35435888 0 -147.18997722 0 12933
0.11050000 0.11050200 15065.89052394 0 285.07821837 0 6484.68750053 0 221.51928450 0 -37.95719055 0 13428
0.11150000 0.11150900 14326.51894349 0 141.90749626 0 6100.05170702 0 677.57457202 0 501.61380230 0 13453
0.11250000 0.11250000 14798.52602731 0 177.66887076 0 6323.29117560 0 237.85883622 0 840.31870402 0 13668
0.11350000 0.11349100 14381.11226922 0 -56.08283377 0 5805.87386872 0 192.87371613 0 679.75830505 0 13791
0.11450000 0.11448600 14102.43366283 0 -103.02913945 0 5536.78479420 0 816.21305949 0 1371.84130054 0 14205
0.11550000 0.11549300 14310.15193034 0 -175.03586871 0 4688.95154408 0 678.71147528 0 889.04407107 0 14776
0.11650000 0.11649800 14591.24714270 0 7.12877890 0 4070.32238544 0 609.35598246 0 1205.93031627 0 14553
0.11750000 0.11747300 14289.06155099 0 158.13061151 0 3910.95820643 0 -208.60582098 0 968.67233617 0 14568
0.11850000 0.11849100 14494.80259544 0 67.49591453 0 3572.58943264 0 39.06355671 0 246.62452514 0 16015
0.11950000 0.11950300 14262.14934816 0 377.69024827 0 3826.06942953 0 -184.19041150 0 -226.06250372 0 15270
0.12050000 0.12050700 13492.02096449 0 166.72933493 0 3889.21973730 0 -85.09199150 0 625.05733051 0 15999
0.12150000 0.12150000 13439.51470755 0 166.15264487 0 4221.04170583 0 -264.70073778 0 -196.79520854 0 15670
0.12250000 0.12250700 13117.33719374 0 368.28965105 0 3898.16117938 0 -177.13172516 0 -228.26271361 0 16887
0.12350000 0.12352200 12591.61554999 0 265.51139924 0 4581.53340881 0 435.63716400 0 550.71044791 0 16407
0.12450000 0.12449800 12742.21404008 0 -204.85349098 0 4343.13523007 0 107.91419857 0 174.39656659 0 16306
0.12550000 0.12549900 12707.72248218 0 123.81920059 0 3838.97630231 0 812.14437380 0 455.14466645 0 17523
0.12650000 0.12650100 12808.34116702 0 25.37853680 0 4328.65756341 0 -243.52248184 0 508.64612567 0 17154
0.12750000 0.12750600 12850.30223428 0 183.13259716 0 3825.71792320 0 -76.04224153 0 696.00998019 0 18007
0.12850000 0.12850300 12664.44326621 0 1.20081151 0 4136.81200328 0 -98.81501803 0 385.07517641 0 17496
0.12950000 0.12949900 12293.71394159 0 137.31484647 0 4112.85465048 0 139.18991301 0 1036.93376556 0 18405
0.13050000 0.13049000 12444.53212313 0 -151.34544103 0 3993.34250079 0 304.50553344 0 342.99986960 0 18100
0.13150000 0.13148800 12121.36599779 0 240.00632016 0 3993.38643908 0 138.42648521 0 453.71008127 0 19059
0.13250000 0.13249300 12056.44717383 0 265.37519054 0 3809.74635467 0 36.43319095 0 1124.94106263 0 18957
0.13350000 0.13349100 12131.14226738 0 -6.05980423 0 3860.67083316 0 219.47395709 0 382.50698334 0 19468
0.13450000 0.13450700 11938.80240148 0 249.14438609 0 3812.58037440 0 -129.79151271 0 360.91351056 0 19953
0.13550000 0.13551000 11590.04222203 0 154.11465177 0 3589.26401382 0 -186.16653611 0 589.72874817 0 19956
0.13650000 0.13649900 11407.25893427 0 -80.39586703 0 3812.32772923 0 356.80637887 0 614.50994392 0 19723
0.13750000 0.13749600 11473.82544412 0 112.45126643 0 3803.26545685 0 -179.85040687 0 16.13414021 0 20946
0.13850000 0.13851100 11491.73029742 0 224.86628377 0 3249.73087533 0 269.19232951 0 -409.67842208 0 20955
0.13950000 0.13949800 11075.19530514 0 101.40056672 0 3583.84861953 0 -30.84687672 0 419.20424342 0 20506
0.14050000 0.14048300 11194.92714628 0 -68.19343489 0 2907.24288681 0 252.98019883 0 -374.52778982 0 21447
0.14150000 0.14148400 10970.36952900 0 12.53120040 0 3300.75421497 0 402.74056604 0 -203.34091534 0 21771
0.14250000 0.14249400 10772.53737681 0 366.48818115 0 2961.36387592 0 -504.32699173 0 -470.06830676 0 22470
0.14350000 0.14350900 10681.79382271 0 225.10245208 0 3076.30644341 0 -173.19595280 0 -144.91287532 0 22519
0.14450000 0.14449900 10428.46760984 0 -60.79411695 0 3430.92140006 0 207.68751071 0 -767.32951458 0 22218
0.14550000 0.14550500 10427.99527322 0 118.68171600 0 3014.33148491 0 262.45109731 0 -487.16030170 0 23559
0.14650000 0.14650700 10439.30938298 0 -18.04842167 0 3034.82869735 0 427.58876767 0 -234.02741730 0 23044
0.14750000 0.14750500 10273.50824444 0 76.24941057 0 3037.92634681 0 -179.05402536 0 -244.40014919 0 23649
0.14850000 0.14849900 10026.45422251 0 223.94467813 0 2664.97813853 0 -41.28936065 0 -48.02894515 0 23640
0.14950000 0.14949500 10016.77681406 0 76.17218903 0 3247.85251342 0 123.06126509 0 -152.98104388 0 24457
0.15050000 0.15050000 10022.21417749 0 57.01696182 0 2929.51960001 0 -186.10392404 0 97.75204094 0 24591
0.15150000 0.15149900 9830.64323167 0 207.53812052 0 3296.38235508 0 181.62331689 0 -279.94952144 0 25020
0.15250000 0.15250500 9885.08277339 0 -34.81351573 0 3010.33310049 0 3.26864631 0 70.69901589 0 25297
0.15350000 0.15350100 9662.49139460 0 36.86060067 0 2988.28706332 0 47.78816332 0 248.58417289 0 25452
0.15450000 0.15450400 9592.14619179 0 6.24744270 0 2935.37437719 0 372.80760575 0 94.85826514 0 26061
0.15550000 0.15549900 9590.54244419 0 179.44397769 0 2977.18166044 0 174.68436239 0 305.60069533 0 26128
0.15650000 0.15649500 9504.43437972 0 242.21971153 0 3001.42461213 0 -203.61882503 0 530.66030758 0 26331
0.15750000 0.15749700 9308.45862030 0 -5.74403073 0 2913.57000062 0 241.23769075 0 798.08192398 0 27345
0.15850000 0.15849900 9289.90567721 0 -89.48582053 0 2772.24248979 0 301.40239169 0 333.92771110 0 26980
0.15950000 0.15949700 9396.35717010 0 177.80507946 0 2831.16373712 0 -194.60818014 0 294.65566721 0 27777
0.16050000 0.16050000 9061.72315098 0 212.04948448 0 2949.57742954 0 -379.25884523 0 396.52110104 0 28224
0.16150000 0.16150500 8851.98372211 0 101.11145277 0 2826.27560232 0 322.22255056 0 486.84504446 0 28075
0.16250000 0.16249700 8883.48747627 0 -76.09562656 0 2782.72177203 0 445.89565634 0 443.13193788 0 28590
0.16350000 0.16349900 8980.90965050 0 55.19462123 0 2542.50015425 0 162.39701950 0 413.68559416 0 29163
0.16450000 0.16449100 8658.05109319 0 186.25551115 0 2594.33635226 0 -87.40138804 0 680.57995108 0 28996
0.16550000 0.16550500 8483.84675662 0 201.79538598 0 2500.51711784 0 -259.81370144 0 322.62458591 0 30777
0.16650000 0.16650700 8335.52207305 0 87.93776472 0 2674.15025664 0 145.88171462 0 785.49470226 0 29211
0.16750000 0.16749900 8396.87091092 0 -13.90778704 0 2732.84082794 0 217.78233291 0 138.15406781 0 30922
0.16850000 0.16850800 8305.62206649 0 72.35658790 0 2491.48779918 0 102.15388871 0 364.00127391 0 30867
0.16950000 0.16949900 8194.06274735 0 -12.01239904 0 2422.55960623 0 -173.68696320 0 250.61082653 0 30852
0.17050000 0.17049200 8143.00645399 0 132.86938994 0 2246.25721630 0 28.47168259 0 -25.75893255 0 31257
0.17150000 0.17149500 8035.97277876 0 186.81901972 0 2432.14913810 0 228.38244545 0 140.20598597 0 32608
0.17250000 0.17250900 7896.78725958 0 22.68995282 0 2464.66347294 0 -57.99096387 0 160.60982954 0 32361
0.17350000 0.17350400 7827.80414377 0 56.09337896 0 2275.11368848 0 11.68835415 0 105.54021274 0 32508
0.17450000 0.17449800 7739.82870197 0 83.08851531 0 2325.32416974 0 77.93081910 0 -166.92266340 0 32791
0.17550000 0.17549800 7749.70383272 0 34.38753400 0 2320.00763662 0 17.64858323 0 300.69498521 0 33633
0.17650000 0.17650100 7669.68122146 0 -16.44676114 0 2111.90490906 0 34.34985692 0 -53.96379987 0 33984
0.17750000 0.17750300 7640.42930468 0 80.12971084 0 2232.41665485 0 126.30171400 0 71.22561630 0 34069
0.17850000 0.17849800 7653.63276092 0 68.18256016 0 1980.45252898 0 239.14293275 0 163.25381616 0 34536
