### header ###
fiducial parameters:
Omega_m = 0.31
Omega_nu = 0
Omega_de = 0.69
Omega_k = 0
H_0 = 100
w_de = -1
zeff = 0
beta = 0
fgrowth = 0
b_1 = 2
gamma = 0.55
Lx = 3500 Ly = 3500 Lz = 3500
nx = 700 ny = 700 nz = 700
xoffset = -983.599254 yoffset = -42.9823471 zoffset = 800.977702
bins = 400 dk = 0.001
kx_ny = 0.628318531 ky_ny = 0.628318531 kz_ny = 0.628318531
############################
A(data) = 9.07441618 (not used)
A(ran) = 9.06101097 (used)
Ngal = 503439
weighted Ngal = 0
Nran = 25229228
weighted Nran = 0
SN(data) = 6747.25362
SN(ran) = 134.504465
SN(data+ran) = 6881.75808
############################
13 columns: k_central k_mean P_0(k) sigma^{lin}_{P_0(k)} P^img_1(k) sigma^{lin}_{P_1(k)} P_2(k) sigma^{lin}_{P_2(k)} P^img_3(k) sigma^{lin}_{P_3(k)} P_4(k) sigma^{lin}_{P_4(k)} N_modes
### header ###
0.00050000 0 0 0 0 0 0 0 0 0 0 0 0
0.00150000 0.00179520 34361.50056605 0 -27237.67570988 0 8136.16306528 0 -32665.15302232 0 -17938.35625396 0 3
0.00250000 0.00253879 60927.14012540 0 -28168.17885324 0 -9024.76006424 0 -49266.90648458 0 -5984.62581834 0 6
0.00350000 0.00331552 59264.07583659 0 -1636.53654603 0 -11465.47716895 0 2079.11595991 0 32248.94756721 0 7
0.00450000 0.00420575 59973.34968817 0 12890.39592421 0 7956.43348870 0 -34965.98159521 0 6017.15113775 0 24
0.00550000 0.00557378 51997.89091976 0 3056.87473452 0 27442.75767997 0 11499.63918968 0 -6532.48137583 0 45
0.00650000 0.00659388 65974.55122653 0 -51.19129376 0 22330.31790916 0 11772.27628115 0 6528.73563658 0 40
0.00750000 0.00754703 59065.91414722 0 -4772.90663232 0 15881.71472956 0 -10414.11077348 0 -3351.97527691 0 57
0.00850000 0.00846663 62616.34769696 0 2687.05712942 0 27351.91526472 0 -6380.98215079 0 -5664.72211105 0 75
0.00950000 0.00948925 62116.00041588 0 2588.61338995 0 36426.92974852 0 -16231.90290345 0 -31617.77402669 0 112
0.01050000 0.01054430 61031.71325638 0 5346.00473761 0 39179.44394596 0 12083.68891383 0 -11696.81226752 0 105
0.01150000 0.01145670 71565.91836189 0 -9251.50361147 0 50662.60627677 0 13865.38658653 0 -4796.56740166 0 144
0.01250000 0.01249090 78359.10758337 0 -637.99166473 0 37079.19366840 0 10619.62114190 0 -26396.58698732 0 169
0.01350000 0.01339930 84462.35580101 0 4786.02221198 0 41125.58067019 0 1735.27686897 0 -4006.77663306 0 180
0.01450000 0.01448870 74516.81394014 0 108.04052116 0 41575.83830030 0 5331.07670347 0 1268.77305601 0 267
0.01550000 0.01550050 77950.59132907 0 4646.72684708 0 55382.56726925 0 9675.92552686 0 16855.71678035 0 238
0.01650000 0.01653350 68128.40621828 0 -2429.16133436 0 35761.92372445 0 16818.03969639 0 15229.56065540 0 315
0.01750000 0.01747870 81735.10612052 0 -7322.08540670 0 38135.14063065 0 24117.06848524 0 40929.50604962 0 297
0.01850000 0.01844180 84915.57926572 0 1565.93869805 0 15580.95713228 0 -2725.66790204 0 -11301.69719177 0 388
0.01950000 0.01947590 82519.73414000 0 3174.28883084 0 37826.47414111 0 -6358.91414448 0 29766.76370100 0 399
0.02050000 0.02045430 78754.44235057 0 5971.68599184 0 38383.83135389 0 -540.26411938 0 18485.27812279 0 462
0.02150000 0.02154770 77319.30794282 0 -3263.61537507 0 33840.72197997 0 9066.49045548 0 11682.86186034 0 571
0.02250000 0.02255340 74917.09176500 0 4129.15575619 0 37965.75852144 0 -1942.87430618 0 14585.42531923 0 510
0.02350000 0.02348930 71956.41991715 0 2820.17916453 0 37092.92438413 0 6659.51795774 0 6566.98391831 0 555
0.02450000 0.02439640 70793.48321797 0 2433.43433309 0 43219.78943283 0 -913.50122192 0 19881.30745215 0 592
0.02550000 0.02547300 69882.20307662 0 2990.64874642 0 42579.16915988 0 2794.96957046 0 9080.41889351 0 837
0.02650000 0.02652900 65318.33286052 0 -466.57521268 0 34994.43163819 0 3526.64096553 0 15806.69009883 0 723
0.02750000 0.02749970 65650.39648966 0 -2897.25791034 0 32582.54903651 0 10498.42835261 0 3473.66237197 0 826
0.02850000 0.02848090 71543.07045092 0 3364.59655081 0 35514.22161274 0 -2357.43207540 0 4305.44716155 0 831
0.02950000 0.02946900 65267.36444374 0 3799.26707243 0 29821.13733528 0 2343.50363737 0 5694.84180907 0 996
0.03050000 0.03053250 60531.47582102 0 -1680.07939174 0 25753.44026268 0 8020.63831544 0 7187.76605317 0 1041
0.03150000 0.03150510 65399.06946899 0 -1003.49562817 0 23480.29281270 0 4280.07279888 0 10588.32609462 0 1036
0.03250000 0.03246190 61622.35372408 0 142.74891452 0 22790.90103750 0 304.35834017 0 6398.95291154 0 1059
0.03350000 0.03345080 61980.78032741 0 2428.41438342 0 20981.74193335 0 2618.57930395 0 2122.93341993 0 1302
0.03450000 0.03451200 58715.83581905 0 4631.40336833 0 21352.47125797 0 -2997.42622771 0 2925.92764477 0 1339
0.03550000 0.03553350 55693.21098185 0 1995.72108487 0 24527.67180833 0 1595.54212116 0 6608.99990844 0 1365
0.03650000 0.03647120 52559.53211584 0 -1726.59905663 0 24090.59566532 0 5238.66349434 0 3741.44428236 0 1308
0.03750000 0.03744890 53263.42352685 0 -1434.68404028 0 21621.26374904 0 4840.01138622 0 5105.55244380 0 1579
0.03850000 0.03847530 53240.13623298 0 3046.41742142 0 16401.06532120 0 -2293.56777041 0 1235.81933826 0 1662
0.03950000 0.03950240 50140.72923343 0 3059.14854104 0 19959.18807175 0 -4244.74641346 0 3975.84407667 0 1683
0.04050000 0.04050350 49585.45908944 0 501.95761942 0 20444.81602557 0 2805.93217390 0 -1223.23101809 0 1822
0.04150000 0.04152450 47930.52338434 0 -797.95999523 0 22332.62466940 0 368.17650995 0 -1828.56884390 0 1887
0.04250000 0.04250150 47289.35388276 0 1143.48302115 0 18132.12411430 0 1176.39280060 0 2243.51107316 0 1920
0.04350000 0.04349210 44780.69719664 0 1711.89071394 0 19586.70121552 0 3074.97731013 0 1665.25021876 0 2005
0.04450000 0.04448520 45871.79479114 0 842.47058178 0 17162.07650964 0 4021.27626887 0 7012.36439820 0 2151
0.04550000 0.04548030 45180.86517577 0 763.56290465 0 19837.69869900 0 1179.29272776 0 2622.80836439 0 2274
0.04650000 0.04648670 42162.96370478 0 693.19902806 0 17741.51271330 0 -1087.16182215 0 3309.38808902 0 2311
0.04750000 0.04749250 41457.31476215 0 2179.55889159 0 21792.29354413 0 -3038.71723604 0 6423.49244668 0 2568
0.04850000 0.04851840 36297.53148352 0 2178.21877374 0 22695.55494749 0 -1967.13922701 0 2938.35119636 0 2493
0.04950000 0.04949480 37020.31635937 0 1496.34044618 0 25611.95896784 0 677.07477397 0 5439.56034228 0 2644
0.05050000 0.05050630 36065.31761915 0 378.60086933 0 24857.53852295 0 2685.61815041 0 2260.47125322 0 2829
0.05150000 0.05149060 35739.62504211 0 -1535.11598739 0 23220.94705406 0 3543.38145414 0 4168.84301693 0 2784
0.05250000 0.05249300 38711.94053690 0 -1385.12164879 0 18736.71498917 0 5738.60434624 0 1750.28179511 0 3055
0.05350000 0.05348950 38152.60610105 0 -399.61215977 0 15238.89754210 0 1071.90534929 0 3877.14769203 0 3009
0.05450000 0.05448610 36715.93385314 0 1424.07294316 0 15772.41823237 0 -2278.03558478 0 953.60150259 0 3336
0.05550000 0.05550870 36731.86148338 0 1526.54802077 0 15215.28071105 0 1622.69598458 0 4431.27544047 0 3349
0.05650000 0.05647670 35900.21949325 0 -420.17967347 0 16284.84854329 0 55.35115139 0 -88.65703453 0 3324
0.05750000 0.05747970 35143.60213385 0 766.04541805 0 13901.63567604 0 1013.83760325 0 -1854.84394151 0 3639
0.05850000 0.05849280 34385.44693428 0 524.61989111 0 14986.80160136 0 1242.30023609 0 -403.70830688 0 3846
0.05950000 0.05951020 33803.59412465 0 -187.96690755 0 11891.01951076 0 91.33979669 0 -468.11744667 0 3787
0.06050000 0.06049470 33812.93101134 0 617.71743911 0 12688.60932589 0 2462.48852757 0 439.71134197 0 3930
0.06150000 0.06148310 33014.35258468 0 171.87890255 0 11439.22404049 0 -23.54499195 0 1117.17496981 0 4083
0.06250000 0.06249100 32618.68828030 0 115.09415459 0 11772.49597260 0 684.22133689 0 -961.76853230 0 4303
0.06350000 0.06350600 31989.05257994 0 1296.95946925 0 12305.90681715 0 -323.84936576 0 231.31972016 0 4470
0.06450000 0.06451750 31649.73913290 0 -4.87790816 0 12599.41459653 0 -120.36784789 0 2438.17966845 0 4479
0.06550000 0.06550280 31328.11084772 0 27.72835657 0 11665.72592711 0 1723.51239173 0 1162.27762483 0 4636
0.06650000 0.06648880 32005.85897599 0 -1.78582787 0 11517.87358017 0 1226.21882183 0 -1274.92441665 0 4653
0.06750000 0.06749660 31180.47819222 0 880.22675466 0 12551.19232289 0 -1988.48225154 0 -35.30177998 0 5220
0.06850000 0.06852730 30447.36781814 0 925.54251039 0 14436.25482358 0 -1914.09472602 0 371.45870024 0 5029
0.06950000 0.06949320 28582.07754811 0 303.62896455 0 14089.80140436 0 686.60498914 0 346.09312523 0 5040
0.07050000 0.07048030 28814.84064111 0 93.40643418 0 12689.70778315 0 1184.75206033 0 -2289.77809287 0 5475
0.07150000 0.07148790 28727.73298054 0 537.79478747 0 13028.91138446 0 913.09918657 0 -2108.69741387 0 5509
0.07250000 0.07249820 27811.18024435 0 376.89057138 0 11744.04592962 0 1665.50286393 0 -240.15571035 0 5916
0.07350000 0.07351270 27575.01193385 0 -73.09892531 0 9792.26313507 0 1465.96810299 0 447.32804460 0 5721
0.07450000 0.07449140 27563.91751554 0 165.86814444 0 9303.84509982 0 655.22206528 0 -1540.72910398 0 6028
0.07550000 0.07549160 25892.83448874 0 762.83133211 0 8257.38880828 0 848.72519741 0 -811.93456847 0 6183
0.07650000 0.07648840 26179.42198739 0 259.37761391 0 8129.75905946 0 184.66384658 0 -249.63539648 0 6330
0.07750000 0.07749960 24689.03517955 0 245.59417223 0 7206.36293455 0 -89.74527614 0 -804.35521338 0 6583
0.07850000 0.07848650 25297.36080911 0 757.66638608 0 8037.92803268 0 816.29104995 0 -430.72815852 0 6549
0.07950000 0.07947320 24136.07179581 0 -28.84900266 0 7299.05075800 0 734.20114214 0 84.57527721 0 6828
0.08050000 0.08048110 23942.63347265 0 341.25881484 0 8327.84385682 0 -710.46677616 0 -911.74588723 0 7147
0.08150000 0.08149960 23343.09550116 0 1151.51274370 0 7677.00793137 0 -1092.90895052 0 -1209.61014808 0 7386
0.08250000 0.08250610 22475.75365014 0 630.54851834 0 9222.83387703 0 -677.97441046 0 180.19532245 0 7227
0.08350000 0.08350160 21134.31764650 0 106.07318421 0 8908.02701142 0 1611.07430679 0 -3.79586185 0 7798
0.08450000 0.08449610 22133.69405995 0 -169.48865956 0 8504.51972222 0 1767.39575919 0 -534.06991890 0 7371
0.08550000 0.08548940 21630.60063573 0 240.89497208 0 6915.20585371 0 1445.41596769 0 592.33758416 0 8256
0.08650000 0.08650700 21267.45066619 0 201.89754250 0 6488.80671525 0 -68.26472476 0 160.90860992 0 8037
0.08750000 0.08749060 20717.89249995 0 285.30010674 0 5982.54973412 0 -666.34064964 0 1554.41588141 0 8155
0.08850000 0.08849210 19945.67704748 0 345.78885257 0 5736.44038544 0 223.78759874 0 -117.41080095 0 8718
0.08950000 0.08949900 19268.58799356 0 446.43390039 0 6264.26008254 0 -49.60632978 0 -922.03074253 0 8571
0.09050000 0.09049190 19204.76762687 0 540.89792922 0 6176.87780766 0 -637.92026500 0 -1290.13804968 0 8932
0.09150000 0.09150830 18738.25282934 0 250.48340549 0 7288.78018263 0 -129.63553178 0 -1950.09117037 0 9285
0.09250000 0.09250820 18266.79497414 0 335.30407805 0 6317.77692016 0 -243.14900637 0 -1308.57016247 0 9204
0.09350000 0.09350330 18904.11987531 0 7.40644692 0 7149.25414170 0 445.15968997 0 -1864.09295163 0 9349
0.09450000 0.09448040 18302.71452649 0 -239.43512238 0 6758.31320353 0 134.78509940 0 -2245.46632708 0 9564
0.09550000 0.09549270 18446.94196448 0 163.99417635 0 6522.38655363 0 542.31493908 0 -1262.25920447 0 10155
0.09650000 0.09649430 18053.47457462 0 -88.94439095 0 6295.46725325 0 125.20655211 0 -1181.94000975 0 9913
0.09750000 0.09749140 17983.72253872 0 400.28441561 0 6216.09273177 0 74.35621949 0 -730.39718465 0 10476
0.09850000 0.09850240 17792.48113008 0 384.16675226 0 6705.98269976 0 404.35859358 0 -557.30778220 0 10575
0.09950000 0.09950330 17531.48768555 0 112.81705270 0 5937.46904825 0 294.71278699 0 -403.69622385 0 10882
0.10050000 0.10051200 16919.86668422 0 323.33858313 0 6234.95324290 0 382.12362176 0 -860.39520732 0 10875
0.10150000 0.10150300 16876.58746825 0 410.65385212 0 5747.28215857 0 -18.41234056 0 649.33543283 0 11118
0.10250000 0.10250800 16190.60091055 0 -30.56962611 0 6135.87239821 0 380.40673306 0 753.21653573 0 11575
0.10350000 0.10349800 16373.60388975 0 -45.08112526 0 5942.77459681 0 666.32417278 0 381.79408458 0 11364
0.10450000 0.10450100 15852.49576649 0 326.30222082 0 5615.90667050 0 93.98619992 0 1180.68776848 0 12093
0.10550000 0.10551000 15860.07512157 0 463.33256685 0 5615.92863965 0 174.69974079 0 924.92627587 0 12067
0.10650000 0.10649700 15611.27455260 0 190.41207341 0 6051.95026369 0 -150.26895291 0 1798.03173212 0 12054
0.10750000 0.10749900 15255.70393815 0 -106.05615812 0 5718.94196132 0 181.46184367 0 1294.70763187 0 12807
0.10850000 0.10850100 15278.11246621 0 133.69652826 0 6049.54464230 0 758.73957883 0 1663.40481057 0 12736
0.10950000 0.10950300 15132.23734233 0 163.93705658 0 5467.12063489 0 -164.27647987 0 2345.85433590 0 12933
0.11050000 0.11050200 15249.77226895 0 142.00416050 0 5873.34111352 0 125.18458297 0 1241.76199203 0 13428
0.11150000 0.11150900 15092.58303531 0 65.94038921 0 5843.84753614 0 -506.55356459 0 314.70251217 0 13453
0.11250000 0.11250000 14679.12372335 0 335.04594059 0 5991.97449740 0 -722.16314904 0 780.03976352 0 13668
0.11350000 0.11349100 14333.54906994 0 65.65874476 0 6721.50390081 0 -399.82965430 0 -208.64536544 0 13791
0.11450000 0.11448600 14440.97818979 0 319.38194009 0 6258.93256484 0 180.84121532 0 -1547.23197095 0 14205
0.11550000 0.11549300 14227.10856163 0 87.28121682 0 6278.40821203 0 479.85775784 0 -848.89875366 0 14776
0.11650000 0.11649800 13841.11068112 0 -54.82048669 0 5903.33998124 0 314.95076351 0 -1199.41646473 0 14553
0.11750000 0.11747300 14006.64818992 0 94.86112113 0 5672.02685182 0 484.45370301 0 -1059.24782631 0 14568
0.11850000 0.11849100 14114.62653840 0 11.13802706 0 5408.70467790 0 593.10870116 0 -1435.78249753 0 16015
0.11950000 0.11950300 13649.97911821 0 -66.53179859 0 4457.86909069 0 252.65835086 0 229.87085504 0 15270
0.12050000 0.12050700 13522.11869336 0 98.75042874 0 4633.51240626 0 346.23043239 0 -98.78448092 0 15999
0.12150000 0.12150000 13590.33288909 0 157.31335931 0 4043.84956552 0 501.78296472 0 -194.73779809 0 15670
0.12250000 0.12250700 14142.63719848 0 57.38780099 0 4188.04404980 0 242.26145291 0 -714.98692778 0 16887
0.12350000 0.12352200 13547.71274747 0 -33.23371450 0 3774.22224694 0 -33.88411104 0 540.66615474 0 16407
0.12450000 0.12449800 13633.39241361 0 -112.52376461 0 3964.81556580 0 28.63018998 0 90.38512749 0 16306
0.12550000 0.12549900 13180.49848608 0 497.66484846 0 4047.37561332 0 -362.61611931 0 -82.64309089 0 17523
0.12650000 0.12650100 13224.54662213 0 257.54209183 0 3437.89660365 0 434.41458108 0 211.56616329 0 17154
0.12750000 0.12750600 13033.85444212 0 -148.35544037 0 4108.94414264 0 733.65411042 0 526.12038373 0 18007
0.12850000 0.12850300 12990.02599752 0 29.88287063 0 3706.51334155 0 107.61157360 0 594.57733851 0 17496
0.12950000 0.12949900 12739.57774266 0 338.94326694 0 3486.90976650 0 -107.68769668 0 562.82093918 0 18405
0.13050000 0.13049000 12327.65627086 0 126.42364275 0 3863.71355976 0 -331.41553935 0 612.63817275 0 18100
0.13150000 0.13148800 12365.66289200 0 200.33333937 0 3929.53311867 0 15.20704228 0 639.55257249 0 19059
0.13250000 0.13249300 12211.98872158 0 155.52726781 0 4379.29644301 0 -236.30671611 0 103.54486514 0 18957
0.13350000 0.13349100 11948.24913390 0 154.07730423 0 4269.42874805 0 -134.53684806 0 231.69758946 0 19468
0.13450000 0.13450700 11879.04632664 0 -56.37216741 0 4199.43505157 0 333.02148386 0 446.89195707 0 19953
0.13550000 0.13551000 11914.63634181 0 67.74427572 0 4184.13354196 0 58.46736479 0 -97.88517396 0 19956
0.13650000 0.13649900 11983.72930334 0 415.29153867 0 4347.70481227 0 186.44224888 0 480.82549869 0 19723
0.13750000 0.13749600 11591.90959937 0 -52.83074121 0 4417.51177102 0 119.62529078 0 1078.12701120 0 20946
0.13850000 0.13851100 11404.84232831 0 -25.65194281 0 3849.06013994 0 424.56141947 0 549.20556146 0 20955
0.13950000 0.13949800 11315.75744467 0 293.39134290 0 4119.86280779 0 -13.34911168 0 1021.47957040 0 20506
0.14050000 0.14048300 11335.85921249 0 93.81560951 0 3611.84829504 0 374.34215054 0 1418.22915055 0 21447
0.14150000 0.14148400 11346.51424790 0 -164.58954019 0 3778.72592170 0 724.40839568 0 1335.93273277 0 21771
0.14250000 0.14249400 11239.96389386 0 156.36099687 0 3362.26782142 0 -377.04215848 0 908.12097827 0 22470
0.14350000 0.14350900 10839.43342383 0 283.58321805 0 3513.33864813 0 -497.96912112 0 1367.07399604 0 22519
0.14450000 0.14449900 10559.51356074 0 85.86728263 0 3414.59832520 0 370.22403428 0 1194.89082083 0 22218
0.14550000 0.14550500 10766.95721393 0 -14.32388265 0 3419.08003081 0 356.67676092 0 724.76100046 0 23559
0.14650000 0.14650700 10786.86125945 0 106.92855287 0 3302.03940996 0 186.90689630 0 1042.11958228 0 23044
0.14750000 0.14750500 10375.88446089 0 161.65116702 0 3297.23915174 0 -197.04016451 0 922.74473975 0 23649
0.14850000 0.14849900 10415.57172163 0 60.04200327 0 2991.48357394 0 -7.48808427 0 913.60777228 0 23640
0.14950000 0.14949500 10301.16739819 0 -0.15994416 0 3199.63023978 0 396.12455797 0 918.10046246 0 24457
0.15050000 0.15050000 10315.32651225 0 -64.69451898 0 3149.33188193 0 32.89967365 0 782.08509093 0 24591
0.15150000 0.15149900 10285.17386052 0 234.18229978 0 3024.16267737 0 -248.65447415 0 137.16655474 0 25020
0.15250000 0.15250500 9894.19996863 0 418.14093680 0 3252.33421903 0 -233.23213425 0 935.90974999 0 25297
0.15350000 0.15350100 9847.92196434 0 -98.13803882 0 3404.02018181 0 185.75791001 0 668.18605784 0 25452
0.15450000 0.15450400 9806.14763482 0 -55.29062640 0 3146.51983135 0 595.79003532 0 310.57341134 0 26061
0.15550000 0.15549900 9779.04869426 0 191.00084650 0 3148.99136018 0 -175.40165498 0 438.99954167 0 26128
0.15650000 0.15649500 9570.38575350 0 56.53825415 0 2630.42067319 0 187.21775970 0 788.21448243 0 26331
0.15750000 0.15749700 9634.08528990 0 -46.44002673 0 2940.30645028 0 127.57921979 0 607.14149263 0 27345
0.15850000 0.15849900 9464.87893386 0 217.69335787 0 2433.45630224 0 86.06621324 0 167.89479808 0 26980
0.15950000 0.15949700 9340.56652596 0 158.47662555 0 2945.48018397 0 -261.29661874 0 381.36458779 0 27777
0.16050000 0.16050000 9033.17424684 0 79.52413135 0 2462.70821902 0 31.16839516 0 370.93253921 0 28224
0.16150000 0.16150500 9100.15817044 0 -50.57472970 0 2774.70303405 0 318.53173417 0 28.34645847 0 28075
0.16250000 0.16249700 8992.82791175 0 77.04447394 0 2323.70943758 0 -32.60155235 0 278.70606782 0 28590
0.16350000 0.16349900 9040.43504932 0 147.76666728 0 2701.82039497 0 74.22528338 0 46.68564177 0 29163
0.16450000 0.16449100 8927.70038091 0 150.61936078 0 2294.90788827 0 -245.59527069 0 42.72229814 0 28996
0.16550000 0.16550500 8811.04422010 0 32.79389221 0 2643.32754597 0 274.13978100 0 -6.51537840 0 30777
0.16650000 0.16650700 8599.90975051 0 80.73111619 0 2519.01513807 0 114.22088107 0 79.20393106 0 29211
0.16750000 0.16749900 8552.59919641 0 60.73842517 0 2398.15188596 0 222.53535747 0 398.79820294 0 30922
0.16850000 0.16850800 8456.53910918 0 99.41609384 0 2295.62188548 0 -71.92412527 0 113.84081486 0 30867
0.16950000 0.16949900 8234.39809787 0 149.30999973 0 2013.76873762 0 89.40969745 0 385.27729255 0 30852
0.17050000 0.17049200 8191.23971220 0 52.69629004 0 2163.11498644 0 158.46454252 0 219.62554419 0 31257
0.17150000 0.17149500 8061.98424663 0 161.78408035 0 1890.60970984 0 183.98499999 0 189.06975864 0 32608
0.17250000 0.17250900 8021.49511210 0 -17.36748802 0 1658.92310495 0 144.32080686 0 89.09136453 0 32361
0.17350000 0.17350400 7765.32389493 0 35.53047878 0 1738.74799390 0 126.80041359 0 108.59216639 0 32508
0.17450000 0.17449800 7754.40522978 0 129.39277272 0 1517.95808502 0 31.92182700 0 172.41604815 0 32791
0.17550000 0.17549800 7595.99670859 0 195.22441466 0 1547.68233842 0 -103.64152937 0 308.64452039 0 33633
0.17650000 0.17650100 7607.46460236 0 49.60017842 0 1607.20773724 0 -29.05034988 0 389.80952719 0 33984
0.17750000 0.17750300 7415.64101137 0 -17.92418616 0 1609.02019172 0 313.77761116 0 312.45067479 0 34069
0.17850000 0.17849800 7428.89939048 0 26.69130307 0 1556.61279593 0 203.04103651 0 474.07328192 0 34536
