### header ###
fiducial parameters:
Omega_m = 0.31
Omega_nu = 0
Omega_de = 0.69
Omega_k = 0
H_0 = 100
w_de = -1
zeff = 0
beta = 0
fgrowth = 0
b_1 = 2
gamma = 0.55
Lx = 3500 Ly = 3500 Lz = 3500
nx = 700 ny = 700 nz = 700
xoffset = -983.599254 yoffset = -42.9823471 zoffset = 800.977702
bins = 400 dk = 0.001
kx_ny = 0.628318531 ky_ny = 0.628318531 kz_ny = 0.628318531
############################
A(data) = 9.06873247 (not used)
A(ran) = 9.06235735 (used)
Ngal = 502829
weighted Ngal = 0
Nran = 25229228
weighted Nran = 0
SN(data) = 6728.72507
SN(ran) = 134.524451
SN(data+ran) = 6863.24952
############################
13 columns: k_central k_mean P_0(k) sigma^{lin}_{P_0(k)} P^img_1(k) sigma^{lin}_{P_1(k)} P_2(k) sigma^{lin}_{P_2(k)} P^img_3(k) sigma^{lin}_{P_3(k)} P_4(k) sigma^{lin}_{P_4(k)} N_modes
### header ###
0.00050000 0 0 0 0 0 0 0 0 0 0 0 0
0.00150000 0.00179520 6305.38632229 0 -10473.33958883 0 -20463.59964469 0 14890.35705409 0 -10444.68083897 0 3
0.00250000 0.00253879 21855.34499074 0 -9844.45083941 0 -4463.39433069 0 -9977.46302880 0 21018.43040577 0 6
0.00350000 0.00331552 34550.87459736 0 -8846.21682151 0 3366.09045268 0 -45672.09526161 0 4432.69245033 0 7
0.00450000 0.00420575 40614.13897081 0 -4146.25873570 0 -3999.62567631 0 -28330.86037317 0 1436.66126334 0 24
0.00550000 0.00557378 42643.09937231 0 6626.11387252 0 2421.47213355 0 -5715.47083638 0 5789.72654703 0 45
0.00650000 0.00659388 38648.99893600 0 -8438.30471870 0 6986.05634686 0 6114.80398800 0 5500.18419836 0 40
0.00750000 0.00754703 59244.30360594 0 -7305.24605693 0 4038.66484726 0 11279.28866370 0 -12187.27343327 0 57
0.00850000 0.00846663 57803.45722045 0 4592.19942878 0 15251.96918347 0 -7292.97628936 0 -3140.36847071 0 75
0.00950000 0.00948925 55024.36035737 0 486.36831401 0 13620.43061796 0 4784.62717126 0 10134.88293846 0 112
0.01050000 0.01054430 60488.63598796 0 -15945.20555908 0 14371.44584535 0 9129.98128500 0 -14654.51828077 0 105
0.01150000 0.01145670 58902.90309011 0 2443.77081589 0 11961.65031245 0 -9657.91082783 0 3735.44670573 0 144
0.01250000 0.01249090 67715.93551785 0 3722.26521863 0 5973.12497085 0 18440.68075811 0 1910.86526168 0 169
0.01350000 0.01339930 73744.81817912 0 -1213.94905425 0 8088.91841860 0 11619.81041372 0 11410.66415177 0 180
0.01450000 0.01448870 75251.24246293 0 -5042.98431838 0 10458.11497124 0 -7310.80425066 0 -11334.76075524 0 267
0.01550000 0.01550050 78944.91483913 0 -1452.18246440 0 5089.66875185 0 -10609.54828884 0 11642.21894179 0 238
0.01650000 0.01653350 73468.33648725 0 1916.08293365 0 5661.95399876 0 8903.76499726 0 8891.25356909 0 315
0.01750000 0.01747870 68851.19109413 0 -4673.30951272 0 9822.31692566 0 2963.54980587 0 1557.18399370 0 297
0.01850000 0.01844180 80164.31224138 0 8593.76937444 0 5667.18265531 0 -12876.00613412 0 -19767.94666311 0 388
0.01950000 0.01947590 76546.54326172 0 -1937.95321766 0 12966.29932074 0 -5357.61543082 0 -5364.12928237 0 399
0.02050000 0.02045430 73028.07481819 0 -622.68576129 0 22550.88812659 0 -1547.85809158 0 -22927.87865759 0 462
0.02150000 0.02154770 71815.26815948 0 3357.03916487 0 26903.96439485 0 -17018.28845455 0 -29783.67994278 0 571
0.02250000 0.02255340 70073.33463953 0 6938.51511673 0 27526.67981449 0 -10000.08026374 0 -28624.25830682 0 510
0.02350000 0.02348930 65708.83441579 0 1366.21719938 0 31104.68464141 0 9023.92523673 0 -24675.41430955 0 555
0.02450000 0.02439640 64479.44105248 0 -4229.22521241 0 27299.07947061 0 11659.68441219 0 -18123.66599341 0 592
0.02550000 0.02547300 67595.98398526 0 -1101.63179961 0 23359.46251431 0 3471.09198199 0 -23560.91957545 0 837
0.02650000 0.02652900 65522.09668191 0 3769.13638984 0 21195.61156151 0 -2404.46801519 0 -18441.77921537 0 723
0.02750000 0.02749970 61305.88818801 0 6564.99571068 0 28961.81422224 0 -1416.04322061 0 -12813.72360759 0 826
0.02850000 0.02848090 59041.63824182 0 2086.13510179 0 23297.07014205 0 -4708.52605242 0 -10977.71820805 0 831
0.02950000 0.02946900 52878.08472070 0 1879.42741495 0 29260.48475073 0 715.93379793 0 -15357.53092598 0 996
0.03050000 0.03053250 54453.71181177 0 1515.31080302 0 28189.37907832 0 8206.33251492 0 -8573.30511572 0 1041
0.03150000 0.03150510 49148.49279216 0 -1820.48419848 0 25781.45092277 0 1121.20630795 0 -11466.13624331 0 1036
0.03250000 0.03246190 51900.89714386 0 1552.53751950 0 23142.51720583 0 6059.45272676 0 -4607.35813895 0 1059
0.03350000 0.03345080 52103.89204517 0 95.38058156 0 23891.88474732 0 -2350.08339634 0 -7129.42698820 0 1302
0.03450000 0.03451200 50924.36864138 0 817.33458435 0 21208.24381998 0 1904.03285753 0 903.46022413 0 1339
0.03550000 0.03553350 51582.12484755 0 -1146.16325686 0 27130.35643576 0 894.20682019 0 -580.93340091 0 1365
0.03650000 0.03647120 48480.08155058 0 2274.76218215 0 24821.06974198 0 -3070.02326790 0 -4103.70450152 0 1308
0.03750000 0.03744890 50303.95998199 0 3166.95113635 0 27822.27466266 0 -293.79996900 0 2898.21356815 0 1579
0.03850000 0.03847530 47210.26496018 0 -476.75351763 0 32204.35020253 0 4670.80503018 0 2055.05974595 0 1662
0.03950000 0.03950240 50067.35228858 0 -205.10393924 0 28780.01954602 0 1703.21290160 0 -3463.86413323 0 1683
0.04050000 0.04050350 50070.42796891 0 2117.59491766 0 32459.85136077 0 136.73705795 0 2356.48740216 0 1822
0.04150000 0.04152450 45785.67574210 0 706.17180828 0 28084.58625590 0 -2060.05772648 0 4643.45344445 0 1887
0.04250000 0.04250150 45690.43949782 0 -66.72501723 0 30833.91492728 0 5648.42100534 0 2607.85836111 0 1920
0.04350000 0.04349210 45284.99892385 0 -143.61999113 0 29996.78065086 0 5373.49912278 0 2385.47568920 0 2005
0.04450000 0.04448520 44590.66409098 0 1806.56674502 0 26636.59989822 0 -2082.56511570 0 1426.22591939 0 2151
0.04550000 0.04548030 43052.71408387 0 2508.06351921 0 26947.35345655 0 3089.07051675 0 3519.73166938 0 2274
0.04650000 0.04648670 42289.17644374 0 -2002.74022675 0 23158.66452752 0 5345.98276846 0 2794.00292807 0 2311
0.04750000 0.04749250 41279.91391496 0 26.67713297 0 21801.19104792 0 2112.19050795 0 1818.32023768 0 2568
0.04850000 0.04851840 39651.45102978 0 1831.46877106 0 20103.19581829 0 -1565.23568541 0 1086.66092564 0 2493
0.04950000 0.04949480 39401.00277492 0 990.29107347 0 19626.79490544 0 -1735.73822101 0 -2593.06214184 0 2644
0.05050000 0.05050630 39553.35879663 0 1275.04524695 0 21597.09768936 0 207.71826751 0 -3565.48241418 0 2829
0.05150000 0.05149060 37815.48956853 0 -63.82289315 0 17803.57554839 0 1454.12673375 0 -3610.13470172 0 2784
0.05250000 0.05249300 37940.38415878 0 -654.67063973 0 18515.81523456 0 3011.98078638 0 -3451.85799540 0 3055
0.05350000 0.05348950 36626.29974088 0 363.32791962 0 14072.33593396 0 2852.91319083 0 -2851.26550494 0 3009
0.05450000 0.05448610 36968.46917678 0 620.14612811 0 14731.41028884 0 2989.55028917 0 -409.90799965 0 3336
0.05550000 0.05550870 34821.09508286 0 1573.21048510 0 12877.76366574 0 -282.87800849 0 -1862.30246630 0 3349
0.05650000 0.05647670 34748.48705810 0 1223.46169411 0 15266.13928210 0 -433.57535973 0 514.56571183 0 3324
0.05750000 0.05747970 32171.39648479 0 -335.23487524 0 11269.07301120 0 2154.04172948 0 1815.94757000 0 3639
0.05850000 0.05849280 32536.41383166 0 -668.75176332 0 11401.65680226 0 1012.42169185 0 -796.09371635 0 3846
0.05950000 0.05951020 32817.39919830 0 1303.46233622 0 10201.82292377 0 257.27626517 0 -2830.93306109 0 3787
0.06050000 0.06049470 32735.78382402 0 863.02820937 0 10531.66766924 0 -1048.47525597 0 -1873.44082289 0 3930
0.06150000 0.06148310 31109.29816190 0 288.80857922 0 10041.25044178 0 -227.59924543 0 -2064.29777149 0 4083
0.06250000 0.06249100 30288.53089862 0 280.72613072 0 11452.40552758 0 -63.26806239 0 -5394.46867183 0 4303
0.06350000 0.06350600 30231.74065837 0 600.62983800 0 11062.34335522 0 -397.28013501 0 -4575.06349556 0 4470
0.06450000 0.06451750 29342.53950791 0 329.42403634 0 10801.66846329 0 441.36561860 0 -6640.06427970 0 4479
0.06550000 0.06550280 29573.65491502 0 344.92107134 0 10328.22240046 0 467.19693949 0 -4635.55553676 0 4636
0.06650000 0.06648880 28849.11250756 0 -407.92528430 0 11073.21808207 0 275.53372326 0 -2663.92361956 0 4653
0.06750000 0.06749660 28887.00928296 0 -110.18954294 0 8537.18784107 0 3009.10282836 0 -3438.27007911 0 5220
0.06850000 0.06852730 29333.75184985 0 -107.80841714 0 7961.47540751 0 2102.00780917 0 -3187.71197853 0 5029
0.06950000 0.06949320 29285.52957622 0 363.16754486 0 6828.59249891 0 413.60540678 0 536.61614283 0 5040
0.07050000 0.07048030 28461.90632407 0 964.48941093 0 7773.55133979 0 -1156.57663166 0 -128.24927872 0 5475
0.07150000 0.07148790 27770.75701725 0 -269.66576459 0 6953.03672168 0 1496.87869023 0 2031.19026973 0 5509
0.07250000 0.07249820 27223.94499415 0 541.17474045 0 6734.24600501 0 1273.74906739 0 205.42798413 0 5916
0.07350000 0.07351270 27565.56520143 0 24.35005127 0 6945.42441288 0 53.26067738 0 2567.59990260 0 5721
0.07450000 0.07449140 27190.11251060 0 85.28553967 0 6463.11379998 0 201.68993408 0 1217.84857752 0 6028
0.07550000 0.07549160 26721.73033573 0 400.80398589 0 7040.67164174 0 -1402.97157923 0 1248.47356588 0 6183
0.07650000 0.07648840 26003.33928891 0 646.06312866 0 6457.86317429 0 -775.31310194 0 -585.97312281 0 6330
0.07750000 0.07749960 25508.81383130 0 850.12133659 0 9002.67008878 0 -275.64356898 0 347.34866188 0 6583
0.07850000 0.07848650 25050.64730893 0 375.18906109 0 7975.64550614 0 839.97708381 0 680.71176595 0 6549
0.07950000 0.07947320 24946.95294376 0 -380.32984106 0 7959.87165992 0 1104.26809703 0 17.41955489 0 6828
0.08050000 0.08048110 24439.24599905 0 49.72957668 0 7285.21019654 0 131.82256018 0 484.35484186 0 7147
0.08150000 0.08149960 23655.49674537 0 928.83678370 0 7022.47020497 0 -250.96123439 0 165.93954416 0 7386
0.08250000 0.08250610 23967.89798959 0 781.71600929 0 8224.54493626 0 -317.18282866 0 379.66637287 0 7227
0.08350000 0.08350160 22338.22680142 0 752.20046277 0 7822.98191641 0 -831.84190935 0 31.88184315 0 7798
0.08450000 0.08449610 21437.82138693 0 136.89194042 0 9018.47688873 0 294.18772442 0 -1452.74267760 0 7371
0.08550000 0.08548940 21169.35843304 0 134.85320375 0 7657.60917620 0 1001.19985250 0 -112.49740163 0 8256
0.08650000 0.08650700 20989.87051706 0 203.83851648 0 6779.97478066 0 1743.39446810 0 -918.33553232 0 8037
0.08750000 0.08749060 20899.24779326 0 267.94777743 0 6652.94918333 0 -397.99742760 0 88.50709512 0 8155
0.08850000 0.08849210 20194.69730790 0 311.46535863 0 6059.77127937 0 585.97861510 0 -705.68519172 0 8718
0.08950000 0.08949900 20239.73405548 0 -105.45903675 0 5211.52061549 0 648.95866199 0 -54.91978723 0 8571
0.09050000 0.09049190 19914.92024425 0 -172.32267928 0 5196.13122931 0 -37.52780361 0 -1469.42824335 0 8932
0.09150000 0.09150830 19808.80927311 0 705.62367811 0 5108.24366408 0 48.37210320 0 -828.39824585 0 9285
0.09250000 0.09250820 19641.07484980 0 108.75177223 0 5111.15457582 0 -216.93871774 0 227.06869057 0 9204
0.09350000 0.09350330 19586.48152407 0 -397.86012044 0 4872.11929187 0 871.28641104 0 -1539.13634095 0 9349
0.09450000 0.09448040 19497.06710326 0 516.65497753 0 5475.98518496 0 -641.95380006 0 -1375.60900893 0 9564
0.09550000 0.09549270 18746.38141305 0 521.20368904 0 5181.34599461 0 -221.66537932 0 -773.84885841 0 10155
0.09650000 0.09649430 18857.43544184 0 121.25649981 0 5938.33682948 0 329.73599820 0 -999.45330546 0 9913
0.09750000 0.09749140 18325.23290028 0 329.81948096 0 5695.89632804 0 -563.44046907 0 -703.06097733 0 10476
0.09850000 0.09850240 17636.39035370 0 512.78401416 0 6205.67935697 0 -311.04135413 0 -707.46688939 0 10575
0.09950000 0.09950330 17158.89098359 0 242.47784899 0 5905.40508088 0 499.07087375 0 -1041.69447932 0 10882
0.10050000 0.10051200 16828.91442325 0 231.84368427 0 6327.77288121 0 689.40385823 0 -421.67027997 0 10875
0.10150000 0.10150300 16586.70459783 0 47.04824251 0 5717.77759662 0 10.68497935 0 -734.20114214 0 11118
0.10250000 0.10250800 16469.16967121 0 372.08811625 0 6130.68767995 0 -52.23603645 0 -1008.94727154 0 11575
0.10350000 0.10349800 15932.13391771 0 468.52058048 0 5423.91831093 0 -210.61050547 0 11.63112452 0 11364
0.10450000 0.10450100 16099.53880385 0 -158.60953887 0 6186.99459901 0 63.43612635 0 -1431.61934453 0 12093
0.10550000 0.10551000 15633.35354349 0 142.00855433 0 5612.79803646 0 764.53833469 0 -497.20349641 0 12067
0.10650000 0.10649700 15601.05890010 0 162.80784251 0 4927.98682802 0 10.64798331 0 -1216.82701227 0 12054
0.10750000 0.10749900 15600.61951720 0 -6.83922557 0 5239.41044528 0 272.33172035 0 -343.24372711 0 12807
0.10850000 0.10850100 15313.70248138 0 270.62032394 0 5218.00151332 0 292.46534344 0 -965.46593943 0 12736
0.10950000 0.10950300 14797.31772433 0 391.49895446 0 5378.34331929 0 -497.62750091 0 -238.89797679 0 12933
0.11050000 0.11050200 14721.19463634 0 95.55864149 0 5346.90547256 0 -30.11783064 0 -744.24763222 0 13428
0.11150000 0.11150900 14806.98414820 0 104.73119897 0 5575.60427370 0 761.05183135 0 -655.34838786 0 13453
0.11250000 0.11250000 14668.35884222 0 -37.06194789 0 5449.76501021 0 -42.55972647 0 -436.43025014 0 13668
0.11350000 0.11349100 14659.35149271 0 -159.15657059 0 4900.94281033 0 -290.26623200 0 -781.81706736 0 13791
0.11450000 0.11448600 14477.99619939 0 253.27678229 0 5383.19850037 0 252.35407820 0 -491.77272372 0 14205
0.11550000 0.11549300 14217.00275486 0 180.36228796 0 4840.61553771 0 -233.47159793 0 -942.41920770 0 14776
0.11650000 0.11649800 14093.20662186 0 195.43861382 0 5196.88916481 0 422.34473272 0 -1001.93252349 0 14553
0.11750000 0.11747300 14217.77167494 0 18.52097798 0 4832.97027519 0 302.99295780 0 -1146.73445463 0 14568
0.11850000 0.11849100 13899.54860725 0 152.63612830 0 5075.10320860 0 240.54236730 0 -237.08442385 0 16015
0.11950000 0.11950300 13842.09929265 0 218.41174892 0 4752.72797249 0 168.19247999 0 -516.01347850 0 15270
0.12050000 0.12050700 13691.17126539 0 -24.07620588 0 4528.02755576 0 441.39527695 0 100.48610105 0 15999
0.12150000 0.12150000 13526.18298521 0 -106.03023453 0 4469.26009245 0 305.41615451 0 139.19760221 0 15670
0.12250000 0.12250700 13522.77776771 0 181.37506555 0 4318.23320403 0 -60.77522349 0 -83.31084306 0 16887
0.12350000 0.12352200 13755.54086071 0 246.33672934 0 4479.91512786 0 84.85340658 0 456.09702889 0 16407
0.12450000 0.12449800 13367.23621996 0 -92.17330606 0 4221.34927387 0 168.50224494 0 573.30131988 0 16306
0.12550000 0.12549900 13309.01798528 0 -143.43764722 0 4345.05753028 0 214.99334993 0 403.05582327 0 17523
0.12650000 0.12650100 13453.24542327 0 394.71743422 0 4489.80124318 0 -6.31804055 0 431.19610131 0 17154
0.12750000 0.12750600 12940.37572945 0 302.62826999 0 4401.50724877 0 11.25578168 0 588.17662807 0 18007
0.12850000 0.12850300 12926.42532227 0 266.53735831 0 4851.88570918 0 -245.86878655 0 187.93505229 0 17496
0.12950000 0.12949900 12564.04427281 0 181.39593624 0 4849.13956603 0 -101.10969524 0 843.98096051 0 18405
0.13050000 0.13049000 12104.33991029 0 75.64009633 0 4884.00459941 0 285.36711263 0 877.43777168 0 18100
0.13150000 0.13148800 12154.53940698 0 80.80185683 0 4590.47485089 0 310.50201161 0 647.79539575 0 19059
0.13250000 0.13249300 11767.66276067 0 94.07297804 0 4444.89631047 0 478.43855107 0 1171.16414405 0 18957
0.13350000 0.13349100 12045.57244698 0 183.01286532 0 4400.18910006 0 419.20314496 0 957.83495686 0 19468
0.13450000 0.13450700 11775.35196147 0 -21.43364725 0 3927.43506531 0 21.59149556 0 1086.69717473 0 19953
0.13550000 0.13551000 11845.65322599 0 -59.96807709 0 3785.09697380 0 312.42760719 0 793.26848428 0 19956
0.13650000 0.13649900 11432.74314266 0 227.21808076 0 3596.99715291 0 -273.34559640 0 883.93734328 0 19723
0.13750000 0.13749600 11292.79968798 0 284.75966577 0 3885.86944266 0 -459.36274232 0 521.71447167 0 20946
0.13850000 0.13851100 10962.79017391 0 181.52884956 0 3945.80127066 0 170.77385455 0 288.39226392 0 20955
0.13950000 0.13949800 11075.19530514 0 26.08715158 0 3843.10650160 0 356.74925910 0 509.14043143 0 20506
0.14050000 0.14048300 11118.36467538 0 -117.14607275 0 3684.12678263 0 372.31329999 0 -371.32578691 0 21447
0.14150000 0.14148400 10994.45869667 0 85.93044393 0 3592.25181756 0 -161.67533308 0 -92.13233361 0 21771
0.14250000 0.14249400 10732.04824227 0 308.52369009 0 3469.97155558 0 -509.21073270 0 132.53106511 0 22470
0.14350000 0.14350900 10640.25016921 0 69.25948766 0 3783.60307193 0 -107.28664994 0 -378.87548365 0 22519
0.14450000 0.14449900 10601.04622967 0 -33.51052573 0 3696.25375076 0 556.47185623 0 -712.15840034 0 22218
0.14550000 0.14550500 10722.85415502 0 -33.24590737 0 3339.81535507 0 102.75254791 0 -743.41390316 0 23559
0.14650000 0.14650700 10599.40952835 0 92.06357018 0 3118.87166217 0 0.49023269 0 -1152.46840152 0 23044
0.14750000 0.14750500 10546.23321248 0 136.08127897 0 3393.27726982 0 24.32720336 0 -437.80771555 0 23649
0.14850000 0.14849900 10107.97073563 0 131.87308921 0 2979.01608406 0 35.99270959 0 -446.78980055 0 23640
0.14950000 0.14949500 10272.25600316 0 49.93268143 0 3110.85292418 0 130.30229533 0 -779.87060110 0 24457
0.15050000 0.15050000 9922.24358243 0 205.32363069 0 2794.82677102 0 425.96195247 0 -337.40432832 0 24591
0.15150000 0.15149900 10009.92244077 0 66.88330492 0 2873.02594322 0 481.43514247 0 -92.50954383 0 25020
0.15250000 0.15250500 10022.96112843 0 -168.78015463 0 2305.67276940 0 437.83737389 0 438.71833661 0 25297
0.15350000 0.15350100 9861.80646409 0 69.57353659 0 2229.73641914 0 -64.49635729 0 -28.61547065 0 25452
0.15450000 0.15450400 9617.07018697 0 209.50106364 0 2077.20464428 0 -265.63882028 0 380.92520489 0 26061
0.15550000 0.15549900 9631.24028560 0 338.32154013 0 2489.25793095 0 -63.65087474 0 -263.71102779 0 26128
0.15650000 0.15649500 9231.03935275 0 23.23797314 0 2357.43207540 0 341.52354304 0 778.40306220 0 26331
0.15750000 0.15749700 9382.23100976 0 -142.73573304 0 2269.20398843 0 592.75280101 0 758.21341780 0 27345
0.15850000 0.15849900 9297.10057225 0 70.66496372 0 2037.22080008 0 39.01884949 0 612.27678031 0 26980
0.15950000 0.15949700 9219.11010692 0 209.56916799 0 2226.34218621 0 -466.88387917 0 344.36305505 0 27777
0.16050000 0.16050000 8958.83065961 0 317.97921017 0 2240.92969860 0 -200.92211246 0 518.54102865 0 28224
0.16150000 0.16150500 8789.59134985 0 107.69736311 0 2674.91917672 0 -428.25443277 0 438.28005217 0 28075
0.16250000 0.16249700 8685.47957092 0 -20.53675690 0 2716.60562966 0 61.29874822 0 -348.86343444 0 28590
0.16350000 0.16349900 8651.83382511 0 105.07172072 0 2938.69171811 0 120.12618729 0 -75.81892517 0 29163
0.16450000 0.16449100 8669.22240350 0 27.04280939 0 2697.59133453 0 75.04528173 0 42.22601515 0 28996
0.16550000 0.16550500 8528.78464305 0 -12.45705454 0 2739.81603153 0 -123.88181266 0 -274.12000877 0 30777
0.16650000 0.16650700 8567.73593742 0 263.44959496 0 2497.15583863 0 168.87572041 0 -280.58662665 0 29211
0.16750000 0.16749900 8516.55881377 0 -31.54725307 0 2832.97619159 0 31.61085375 0 161.13818748 0 30922
0.16850000 0.16850800 8240.35173621 0 9.29870432 0 2601.80586162 0 213.25888592 0 -5.58126133 0 30867
0.16950000 0.16949900 8306.21523341 0 187.02003740 0 2460.07192160 0 247.20560903 0 0.42003138 0 30852
0.17050000 0.17049200 8293.03374631 0 29.79257745 0 2221.11352967 0 193.56903957 0 613.15884149 0 31257
0.17150000 0.17149500 8143.45682147 0 0.97494233 0 2290.72276611 0 320.86266047 0 414.03380511 0 32608
0.17250000 0.17250900 8140.11751140 0 152.72949717 0 2323.27005467 0 -98.50009033 0 794.04289664 0 32361
0.17350000 0.17350400 7868.16146344 0 194.37970103 0 2198.89173933 0 -183.12271105 0 590.61520318 0 32508
0.17450000 0.17449800 7693.71546627 0 -12.60238043 0 2550.43101565 0 8.74457657 0 795.27756260 0 32791
0.17550000 0.17549800 7751.51628719 0 18.44979795 0 2324.58820338 0 252.59903417 0 968.99747952 0 33633
0.17650000 0.17650100 7775.19902568 0 -93.01900830 0 2033.15650823 0 544.12080282 0 1032.47622601 0 33984
0.17750000 0.17750300 7996.59308606 0 73.30895034 0 1981.13357248 0 60.65856733 0 859.78556354 0 34069
0.17850000 0.17849800 7758.44755249 0 110.23897351 0 1889.99457377 0 -369.58692907 0 878.51645671 0 34536
