### header ###
fiducial parameters:
Omega_m = 0.31
Omega_nu = 0
Omega_de = 0.69
Omega_k = 0
H_0 = 100
w_de = -1
zeff = 0
beta = 0
fgrowth = 0
b_1 = 2
gamma = 0.55
Lx = 3500 Ly = 3500 Lz = 3500
nx = 700 ny = 700 nz = 700
xoffset = -983.599254 yoffset = -42.9823471 zoffset = 800.977702
bins = 400 dk = 0.001
kx_ny = 0.628318531 ky_ny = 0.628318531 kz_ny = 0.628318531
############################
A(data) = 9.05172277 (not used)
A(ran) = 9.04550828 (used)
Ngal = 502550
weighted Ngal = 0
Nran = 25229228
weighted Nran = 0
SN(data) = 6757.53257
SN(ran) = 134.274339
SN(data+ran) = 6891.80691
############################
13 columns: k_central k_mean P_0(k) sigma^{lin}_{P_0(k)} P^img_1(k) sigma^{lin}_{P_1(k)} P_2(k) sigma^{lin}_{P_2(k)} P^img_3(k) sigma^{lin}_{P_3(k)} P_4(k) sigma^{lin}_{P_4(k)} N_modes
### header ###
0.00050000 0 0 0 0 0 0 0 0 0 0 0 0
0.00150000 0.00179520 17494.57952168 0 -27753.51123830 0 -19144.46232339 0 -31616.23618653 0 -43413.00806453 0 3
0.00250000 0.00253879 24164.08245589 0 -21698.59514001 0 -19848.13404295 0 20648.25030978 0 41901.31118589 0 6
0.00350000 0.00331552 26348.80409659 0 -9713.37193479 0 -4049.40775925 0 -31290.43376376 0 -14532.15014221 0 7
0.00450000 0.00420575 28874.15733304 0 -11686.81630647 0 -37669.72429038 0 2232.50453143 0 -12622.81173612 0 24
0.00550000 0.00557378 68556.47501178 0 -10918.57726927 0 -25532.76019953 0 -28579.88063359 0 -33000.95140613 0 45
0.00650000 0.00659388 61136.50607880 0 12541.52589902 0 -42927.48995644 0 -44567.92602574 0 15506.70142163 0 40
0.00750000 0.00754703 50227.06797392 0 -408.91609274 0 -3251.90582070 0 -26946.03530784 0 -9749.17065684 0 57
0.00850000 0.00846663 64941.01279235 0 -7538.78905458 0 -9021.19007815 0 13501.90707981 0 1455.01648412 0 75
0.00950000 0.00948925 57980.08914756 0 -2174.53894192 0 -6323.09345329 0 -3221.44560093 0 -24041.38478016 0 112
0.01050000 0.01054430 76222.71806202 0 -3013.20007393 0 -7061.01507016 0 -11384.19133185 0 -21081.37200666 0 105
0.01150000 0.01145670 73362.22551611 0 3867.78883619 0 199.94558395 0 -9177.85205231 0 -11732.18259123 0 144
0.01250000 0.01249090 72731.71104994 0 1506.17163864 0 17025.53827245 0 834.79675938 0 3975.71226180 0 169
0.01350000 0.01339930 66897.80455199 0 -1181.32487369 0 18383.89051786 0 -12933.23575727 0 509.91594226 0 180
0.01450000 0.01448870 74904.12996936 0 -145.67081083 0 21555.02677637 0 5703.53060598 0 -10546.60668795 0 267
0.01550000 0.01550050 74078.09011124 0 4379.18659729 0 37228.03462688 0 7149.03445025 0 27666.18388627 0 238
0.01650000 0.01653350 75201.70204059 0 54.20952476 0 31864.26783541 0 10121.34994504 0 22734.00095153 0 315
0.01750000 0.01747870 76441.20121066 0 -337.94257238 0 34304.82017153 0 1204.98564303 0 14604.20893835 0 297
0.01850000 0.01844180 70555.77706731 0 2801.80197461 0 28869.98319546 0 604.70950826 0 16094.15636328 0 388
0.01950000 0.01947590 73926.61285534 0 5102.67448578 0 47838.25297465 0 -3922.63480709 0 33333.45441817 0 399
0.02050000 0.02045430 67918.38119053 0 3600.68796930 0 47817.05274957 0 5470.27320722 0 10621.62033411 0 462
0.02150000 0.02154770 61426.93817786 0 4121.45557081 0 53509.91733558 0 940.24536079 0 20523.24587380 0 571
0.02250000 0.02255340 60894.73563629 0 -3214.10790645 0 41799.37435233 0 16101.29633546 0 24652.89593576 0 510
0.02350000 0.02348930 66758.30048021 0 -2538.69949214 0 53762.34281350 0 12633.46677153 0 17404.39618078 0 555
0.02450000 0.02439640 65155.98087777 0 7150.61622870 0 41271.12625690 0 -610.40500914 0 16608.56389727 0 592
0.02550000 0.02547300 61973.53050950 0 1393.86536856 0 42092.99197743 0 7443.99219321 0 29227.42118726 0 837
0.02650000 0.02652900 60979.31684517 0 -5073.90589019 0 38904.39024852 0 10514.48779772 0 27335.76794303 0 723
0.02750000 0.02749970 62507.16104550 0 2026.42296523 0 34255.82897782 0 8534.40874421 0 23664.61394062 0 826
0.02850000 0.02848090 62850.53878440 0 817.63226626 0 32337.37337649 0 6370.39302282 0 35043.09329473 0 831
0.02950000 0.02946900 60554.87296062 0 -1673.99393853 0 25551.87335582 0 5323.67310155 0 16941.17675503 0 996
0.03050000 0.03053250 62840.98220625 0 2056.05934206 0 26373.51938490 0 -1560.20475116 0 18298.76008036 0 1041
0.03150000 0.03150510 60878.80800605 0 2711.93718632 0 23426.02902415 0 -733.58820299 0 11918.92032511 0 1036
0.03250000 0.03246190 56866.80271644 0 1785.63014968 0 33120.35371009 0 -2414.37609966 0 17890.57336323 0 1059
0.03350000 0.03345080 54677.90693815 0 1719.67877590 0 28843.83991272 0 3156.47185411 0 10617.89656401 0 1302
0.03450000 0.03451200 53519.58375945 0 -687.31569099 0 24159.35908968 0 4769.35861538 0 7555.97991067 0 1339
0.03550000 0.03553350 52595.67135963 0 -701.33420252 0 24251.40980791 0 4440.33771285 0 7574.19233201 0 1365
0.03650000 0.03647120 52691.45683254 0 3023.66837160 0 22536.93771942 0 533.60746840 0 4703.44019532 0 1308
0.03750000 0.03744890 49452.87529838 0 3834.29687439 0 17196.45822182 0 -1208.62153655 0 1227.81158485 0 1579
0.03850000 0.03847530 45628.04712556 0 1911.73304291 0 20369.46185767 0 -1464.39730911 0 1412.41831165 0 1662
0.03950000 0.03950240 44214.77201725 0 375.33295899 0 21872.04154107 0 1509.44504127 0 310.57890362 0 1683
0.04050000 0.04050350 43748.91629407 0 304.55496402 0 19997.74392151 0 3430.77860061 0 -643.53887388 0 1822
0.04150000 0.04152450 41209.83234189 0 -222.62543096 0 16706.32659324 0 253.27788075 0 -731.61317684 0 1887
0.04250000 0.04250150 40460.90418330 0 399.80438979 0 15773.95607253 0 2257.72511008 0 864.08053142 0 1920
0.04350000 0.04349210 41511.13916780 0 13.60340453 0 13367.56575714 0 3456.47151588 0 -2603.81603840 0 2005
0.04450000 0.04448520 41938.10950404 0 1683.75922356 0 15421.90052130 0 -1406.61845733 0 887.30960706 0 2151
0.04550000 0.04548030 40391.37183886 0 31.17125115 0 13540.24323812 0 -750.66152415 0 -892.68106305 0 2274
0.04650000 0.04648670 39890.14579197 0 618.66321081 0 18943.11510798 0 -2394.28531641 0 -919.63171188 0 2311
0.04750000 0.04749250 37885.24160442 0 2220.45445531 0 18432.88171157 0 1616.59954680 0 -118.89371825 0 2568
0.04850000 0.04851840 38175.23432057 0 118.70368514 0 19201.91163799 0 506.71174243 0 1036.38673385 0 2493
0.04950000 0.04949480 38248.17188251 0 -592.45402063 0 18433.32109448 0 -426.04543523 0 -4967.79491906 0 2644
0.05050000 0.05050630 37202.77010994 0 1438.92408529 0 22127.76239076 0 -396.57822082 0 1451.47945175 0 2829
0.05150000 0.05149060 35906.70039107 0 -8.12826516 0 19572.31142544 0 2892.16106866 0 2998.84323757 0 2784
0.05250000 0.05249300 36647.28027451 0 -553.99044128 0 19022.86310492 0 3036.71804383 0 1678.71730474 0 3055
0.05350000 0.05348950 38034.85148298 0 1361.75746291 0 18873.14338063 0 1.67617987 0 -52.27997474 0 3009
0.05450000 0.05448610 36125.07369399 0 848.88776909 0 18128.49920535 0 868.71162722 0 4714.23803016 0 3336
0.05550000 0.05550870 35090.65649400 0 -181.23556148 0 18940.69850201 0 1642.02883232 0 2908.15460634 0 3349
0.05650000 0.05647670 34737.94186842 0 -898.67424585 0 14308.28455301 0 2907.53947027 0 5145.61318000 0 3324
0.05750000 0.05747970 35244.44051014 0 -134.15238802 0 16194.44551095 0 2264.42569935 0 3791.91839337 0 3639
0.05850000 0.05849280 34548.34814566 0 1358.96738147 0 12379.50345345 0 -544.93256273 0 4895.88990694 0 3846
0.05950000 0.05951020 33396.83540196 0 1713.46150782 0 15846.34440585 0 -748.17461692 0 2765.65174624 0 3787
0.06050000 0.06049470 32490.60816400 0 -45.60168415 0 13388.10690787 0 -1515.44261789 0 2234.32797048 0 3930
0.06150000 0.06148310 31380.39741320 0 263.24528191 0 15230.98864984 0 1988.40535953 0 -348.03629612 0 4083
0.06250000 0.06249100 31393.90843748 0 315.17594725 0 12659.82974572 0 579.43620367 0 -686.19746150 0 4303
0.06350000 0.06350600 30523.82044331 0 1103.75182212 0 14623.65163182 0 925.32062202 0 56.12160931 0 4470
0.06450000 0.06451750 30208.89274740 0 221.53356445 0 12621.49358741 0 164.21936009 0 -22.92304545 0 4479
0.06550000 0.06550280 29462.27134905 0 -596.95440002 0 11456.57966516 0 989.31454497 0 -2196.24445734 0 4636
0.06650000 0.06648880 30414.19440895 0 203.89014397 0 11571.25860291 0 -249.88584474 0 -3753.71404993 0 4653
0.06750000 0.06749660 29165.24850645 0 917.57649835 0 12076.54894165 0 -901.40720751 0 -1478.77611462 0 5220
0.06850000 0.06852730 29381.20520340 0 -424.33623573 0 11765.57569188 0 969.17652805 0 -3280.79524659 0 5029
0.06950000 0.06949320 29055.29293491 0 -861.74191592 0 10721.22843828 0 963.59966055 0 -2537.69989603 0 5040
0.07050000 0.07048030 29350.88778307 0 1346.08247784 0 10661.40645600 0 -222.61115102 0 -3714.99343158 0 5475
0.07150000 0.07148790 28053.28022404 0 913.41883763 0 10866.79599413 0 479.20197886 0 -543.38923028 0 5509
0.07250000 0.07249820 28309.87983954 0 -81.85593642 0 11613.65905308 0 1593.83951241 0 -2251.74950259 0 5916
0.07350000 0.07351270 27891.47746992 0 538.07709098 0 11127.15233345 0 285.14632272 0 -1393.07447934 0 5721
0.07450000 0.07449140 26581.12780669 0 462.18028519 0 10374.39055902 0 -235.02152112 0 1004.14811178 0 6028
0.07550000 0.07549160 26647.03524218 0 -37.61633927 0 9960.65663275 0 605.54323732 0 1126.96222398 0 6183
0.07650000 0.07648840 25946.32935721 0 307.33955317 0 10311.33911241 0 1974.10344603 0 1385.84663058 0 6330
0.07750000 0.07749960 25643.04530824 0 879.12829740 0 9023.63963784 0 1210.35709902 0 2725.82168606 0 6583
0.07850000 0.07848650 25572.08496937 0 -20.24753310 0 9297.95736891 0 1473.08610602 0 5542.68350967 0 6549
0.07950000 0.07947320 25261.11171959 0 -224.98821253 0 8653.18492753 0 1671.31370282 0 4060.52414670 0 6828
0.08050000 0.08048110 24999.01981780 0 432.69000318 0 7942.02172947 0 -171.00672749 0 3900.40203218 0 7147
0.08150000 0.08149960 24045.77860919 0 636.98218250 0 8999.15502556 0 -1233.19402542 0 5849.42769901 0 7386
0.08250000 0.08250610 23510.50038730 0 495.28668849 0 9557.46789615 0 -884.07245352 0 4083.44894968 0 7227
0.08350000 0.08350160 23567.73001045 0 222.05203627 0 8964.47672992 0 411.71386338 0 3427.23058367 0 7798
0.08450000 0.08449610 23129.66525591 0 -5.93772169 0 9591.28939513 0 -276.20597910 0 1209.71999381 0 7371
0.08550000 0.08548940 22682.70299757 0 219.49372932 0 8246.79968031 0 -14.69450212 0 441.89287809 0 8256
0.08650000 0.08650700 22588.45536482 0 523.52582768 0 9080.53972381 0 163.24173313 0 -169.81160599 0 8037
0.08750000 0.08749060 21707.27295235 0 405.38015883 0 8798.46688449 0 -695.24545393 0 -546.62967919 0 8155
0.08850000 0.08849210 21569.08702927 0 391.00355023 0 8490.37159273 0 493.13151535 0 -2134.59903601 0 8718
0.08950000 0.08949900 20341.01181468 0 274.57037624 0 7887.86778665 0 465.34494055 0 -1473.51450435 0 8571
0.09050000 0.09049190 20452.61507211 0 621.09629364 0 8693.26763288 0 310.26364639 0 -1821.57167116 0 8932
0.09150000 0.09150830 19528.70267229 0 573.53529128 0 8134.83393199 0 -246.84751196 0 -2092.96750593 0 9285
0.09250000 0.09250820 19183.89693896 0 524.03990568 0 7684.68614761 0 114.74814056 0 -1696.42443574 0 9204
0.09350000 0.09350330 18583.48020166 0 -87.06284351 0 7797.58558460 0 621.92013658 0 -1113.42923056 0 9349
0.09450000 0.09448040 18263.71929382 0 58.90718707 0 7750.03336990 0 277.79105292 0 -975.94192631 0 9564
0.09550000 0.09549270 18277.23031810 0 321.44923665 0 7218.21528837 0 1438.31993380 0 -505.76706919 0 10155
0.09650000 0.09649430 18101.25746534 0 -1.00905162 0 6903.14479302 0 207.06358699 0 153.17876619 0 9913
0.09750000 0.09749140 18017.55502227 0 134.85759758 0 6466.53000206 0 333.59927238 0 -1344.16017763 0 10476
0.09850000 0.09850240 17500.29149942 0 435.70087452 0 6621.01703084 0 22.19553720 0 -323.87902410 0 10575
0.09950000 0.09950330 16970.17602664 0 342.98998348 0 7067.67172114 0 -351.98415151 0 284.88488990 0 10882
0.10050000 0.10051200 16582.75015170 0 404.15428053 0 6633.33073670 0 146.07943693 0 664.70284987 0 10875
0.10150000 0.10150300 16374.48265556 0 -141.53182388 0 6391.28567987 0 869.56293160 0 -162.04002089 0 11118
0.10250000 0.10250800 16511.13073847 0 -157.23866422 0 5754.15850101 0 1087.46389789 0 838.38651770 0 11575
0.10350000 0.10349800 16360.09286548 0 0.67344108 0 5363.47020801 0 374.34105209 0 827.90174317 0 11364
0.10450000 0.10450100 16165.11670216 0 237.06794699 0 5094.65574780 0 10.08795684 0 730.14783485 0 12093
0.10550000 0.10551000 16397.00102935 0 314.85190236 0 5355.67116148 0 257.89030278 0 1077.47782296 0 12067
0.10650000 0.10649700 15408.71903421 0 80.47078182 0 5708.97895398 0 -332.73478652 0 848.44728773 0 12054
0.10750000 0.10749900 15835.79921617 0 96.46025520 0 5177.66616280 0 142.87084328 0 289.44678289 0 12807
0.10850000 0.10850100 15458.47914800 0 44.20807143 0 5048.61940411 0 -30.82435835 0 131.57430884 0 12736
0.10950000 0.10950300 15312.49417839 0 313.97862884 0 5421.00739919 0 -166.75789481 0 392.36673569 0 12933
0.11050000 0.11050200 14929.35228676 0 453.01585628 0 5658.43893554 0 -355.53875920 0 47.79640175 0 13428
0.11150000 0.11150900 14589.70930254 0 364.36486327 0 6038.87862232 0 -280.00883813 0 -373.89178307 0 13453
0.11250000 0.11250000 14234.02884236 0 237.41396103 0 5994.10550448 0 -190.59441732 0 -223.91501978 0 13668
0.11350000 0.11349100 14051.24555460 0 -99.36369743 0 5855.60102880 0 1002.86621216 0 145.31161531 0 13791
0.11450000 0.11448600 14492.38598947 0 -380.57919085 0 5124.43492407 0 692.31696688 0 252.84289168 0 14205
0.11550000 0.11549300 14208.21509679 0 181.52006191 0 5239.25666126 0 342.20788191 0 295.55859907 0 14776
0.11650000 0.11649800 14538.74088576 0 330.31488518 0 5129.37798173 0 -202.20840591 0 407.56718723 0 14553
0.11750000 0.11747300 14297.29998042 0 -25.67435134 0 5072.09343572 0 -0.52741107 0 1048.46207449 0 14568
0.11850000 0.11849100 14431.42161164 0 -324.40957896 0 4774.86188624 0 691.47225325 0 608.33331876 0 16015
0.11950000 0.11950300 14308.94362736 0 18.74012021 0 4498.63283954 0 170.79033141 0 771.84527237 0 15270
0.12050000 0.12050700 14473.38267890 0 200.91991554 0 4785.78055138 0 -47.96073096 0 400.56232529 0 15999
0.12150000 0.12150000 14114.51669267 0 264.37010214 0 4349.05591470 0 -190.81740414 0 133.25714536 0 15670
0.12250000 0.12250700 13866.04566088 0 91.77731222 0 4391.00599738 0 315.56699803 0 392.02731240 0 16887
0.12350000 0.12352200 13731.70433821 0 108.25636801 0 4135.52680829 0 318.79316700 0 169.46229658 0 16407
0.12450000 0.12449800 13907.78703669 0 154.76603693 0 4127.65086975 0 -191.19417498 0 -679.29036226 0 16306
0.12550000 0.12549900 13270.57198125 0 285.48684447 0 3767.07129019 0 354.43480965 0 118.94424728 0 17523
0.12650000 0.12650100 13056.26297018 0 24.20274815 0 3953.68819378 0 34.29295683 0 -79.86234634 0 17154
0.12750000 0.12750600 12972.89006429 0 277.79654521 0 3888.49475551 0 47.65393185 0 -72.27167715 0 18007
0.12850000 0.12850300 12732.32792476 0 73.07431987 0 3720.10125783 0 240.19964864 0 246.89913945 0 17496
0.12950000 0.12949900 12783.84557017 0 -129.73549139 0 3612.18881679 0 223.70741136 0 274.81423375 0 18405
0.13050000 0.13049000 12646.42856717 0 257.33668032 0 3811.56979372 0 256.53370806 0 513.04544698 0 18100
0.13150000 0.13148800 12349.84510748 0 333.48613128 0 3070.41871251 0 -146.49904760 0 653.73145878 0 19059
0.13250000 0.13249300 12148.49789206 0 133.81296473 0 4109.22974153 0 264.63153497 0 1138.11156515 0 18957
0.13350000 0.13349100 12024.48206762 0 61.28402889 0 3918.01030203 0 -162.78147954 0 1001.29651674 0 19468
0.13450000 0.13450700 11678.35818558 0 216.53558392 0 3852.20172770 0 559.57609644 0 1462.68371579 0 19953
0.13550000 0.13551000 11825.11207527 0 -163.28786834 0 3805.22071077 0 382.13021250 0 1244.05776770 0 19956
0.13650000 0.13649900 11682.75201461 0 112.30187624 0 3376.84434924 0 -94.57969638 0 1289.83048165 0 19723
0.13750000 0.13749600 11799.73771260 0 202.27321488 0 3291.09877567 0 24.40881873 0 1502.63460626 0 20946
0.13850000 0.13851100 11318.61343354 0 -37.13905959 0 3285.06824532 0 280.19887123 0 1182.56613039 0 20955
0.13950000 0.13949800 11763.70831454 0 -43.51703197 0 3125.22074512 0 -38.55277408 0 930.42844827 0 20506
0.14050000 0.14048300 11664.29793268 0 85.67461323 0 3012.29933898 0 -28.17553852 0 478.39131740 0 21447
0.14150000 0.14148400 11410.99368895 0 45.56521537 0 2843.46645841 0 -333.31806732 0 247.43298968 0 21771
0.14250000 0.14249400 11238.64574515 0 182.94915480 0 2921.07246369 0 211.29264743 0 518.65526820 0 22470
0.14350000 0.14350900 11109.02778869 0 26.25752230 0 2968.16332635 0 404.53874057 0 217.82407429 0 22519
0.14450000 0.14449900 11058.49875482 0 376.34244121 0 3244.11775874 0 -56.83011424 0 -297.89172229 0 22218
0.14550000 0.14550500 10787.56427210 0 254.78386565 0 2829.58195866 0 -56.20893666 0 935.66369556 0 23559
0.14650000 0.14650700 10352.02596925 0 13.24783392 0 3406.00838944 0 -196.44809604 0 472.92978792 0 23044
0.14750000 0.14750500 10297.87202642 0 395.69725810 0 3136.84242291 0 -111.89874243 0 138.83620977 0 23649
0.14850000 0.14849900 9894.95790414 0 130.72739829 0 3269.34932196 0 22.76706451 0 663.30231687 0 23640
0.14950000 0.14949500 9775.80824535 0 -8.58369652 0 3546.12759729 0 164.56757104 0 436.89160219 0 24457
0.15050000 0.15050000 9748.52256705 0 113.18503588 0 3161.18423575 0 364.81742766 0 719.28189566 0 24591
0.15150000 0.15149900 9697.25756682 0 136.22407841 0 3433.51375919 0 -279.01583277 0 502.33439026 0 25020
0.15250000 0.15250500 9524.52516298 0 -52.03545816 0 2987.00186833 0 364.87784281 0 600.79021276 0 25297
0.15350000 0.15350100 9267.84865547 0 186.61360821 0 3143.96042594 0 338.03374433 0 665.00053179 0 25452
0.15450000 0.15450400 9359.31719135 0 38.16128391 0 3115.91681214 0 -295.41909500 0 1177.17270525 0 26061
0.15550000 0.15549900 9269.22172704 0 77.01602389 0 2984.57427779 0 452.68192528 0 712.73069657 0 26128
0.15650000 0.15649500 9406.35313115 0 -13.44390854 0 2634.49594962 0 -67.56379919 0 409.66853596 0 26331
0.15750000 0.15749700 9275.13142709 0 67.22195929 0 2833.26179048 0 83.75527886 0 746.97949542 0 27345
0.15850000 0.15849900 9101.54222659 0 26.94471716 0 2791.23481578 0 148.28404065 0 907.01812719 0 26980
0.15950000 0.15949700 9255.40313473 0 72.50905376 0 2431.22643400 0 130.15839743 0 617.22862563 0 27777
0.16050000 0.16050000 9228.19434845 0 -0.53824296 0 2578.28789172 0 212.88650891 0 275.78856534 0 28224
0.16150000 0.16150500 9025.03467856 0 125.44272042 0 2285.71380102 0 -15.13783947 0 506.74689307 0 28075
0.16250000 0.16249700 8924.97620691 0 204.98310894 0 2555.67065678 0 -117.75022424 0 924.68241835 0 28590
0.16350000 0.16349900 8640.59660736 0 150.33046652 0 2670.02005735 0 -295.68602012 0 49.57886835 0 29163
0.16450000 0.16449100 8377.99941523 0 120.63477300 0 2786.18191239 0 -181.01367311 0 271.51446815 0 28996
0.16550000 0.16550500 8339.99279409 0 84.41446306 0 2851.49618096 0 137.87725658 0 145.62467563 0 30777
0.16650000 0.16650700 8339.04812085 0 11.08156636 0 2962.67104006 0 95.80601406 0 303.17530170 0 29211
0.16750000 0.16749900 8308.80759254 0 81.63459728 0 2260.52617609 0 291.90842561 0 165.80882774 0 30922
0.16850000 0.16850800 8460.60340104 0 -28.31789858 0 2659.35403737 0 317.75951872 0 321.34927704 0 30867
0.16950000 0.16949900 8298.63587833 0 -40.99728086 0 2152.54782761 0 102.67148177 0 143.16962365 0 30852
0.17050000 0.17049200 8314.26692511 0 94.64439551 0 2549.62914186 0 -324.71275316 0 185.44375123 0 31257
0.17150000 0.17149500 8186.31862368 0 130.21002492 0 2438.66298964 0 -274.01016304 0 102.35831160 0 32608
0.17250000 0.17250900 8125.04667782 0 112.05801873 0 2514.41260216 0 38.84254710 0 -67.16747581 0 32361
0.17350000 0.17350400 8123.33308450 0 49.87050875 0 2577.33223391 0 72.65547812 0 3.20155254 0 32508
0.17450000 0.17449800 7977.67765207 0 44.27233118 0 2603.58536238 0 -40.40103826 0 -448.74505446 0 32791
0.17550000 0.17549800 7972.99822415 0 133.00010636 0 2462.19194411 0 112.93348917 0 -36.94210620 0 33633
0.17650000 0.17650100 7817.80818272 0 92.52689945 0 2679.08232973 0 298.19929032 0 262.33356239 0 33984
0.17750000 0.17750300 7624.90810362 0 38.51564622 0 2372.95327646 0 8.37467109 0 535.15739159 0 34069
0.17850000 0.17849800 7780.71328112 0 49.79515458 0 2509.15099189 0 201.27361878 0 88.81905698 0 34536
