### header ###
fiducial parameters:
Omega_m = 0.31
Omega_nu = 0
Omega_de = 0.69
Omega_k = 0
H_0 = 100
w_de = -1
zeff = 0
beta = 0
fgrowth = 0
b_1 = 2
gamma = 0.55
Lx = 3500 Ly = 3500 Lz = 3500
nx = 700 ny = 700 nz = 700
xoffset = -983.599254 yoffset = -42.9823471 zoffset = 800.977702
bins = 400 dk = 0.001
kx_ny = 0.628318531 ky_ny = 0.628318531 kz_ny = 0.628318531
############################
A(data) = 9.09590095 (not used)
A(ran) = 9.09953687 (used)
Ngal = 505497
weighted Ngal = 0
Nran = 25229228
weighted Nran = 0
SN(data) = 6708.36261
SN(ran) = 135.076356
SN(data+ran) = 6843.43897
############################
13 columns: k_central k_mean P_0(k) sigma^{lin}_{P_0(k)} P^img_1(k) sigma^{lin}_{P_1(k)} P_2(k) sigma^{lin}_{P_2(k)} P^img_3(k) sigma^{lin}_{P_3(k)} P_4(k) sigma^{lin}_{P_4(k)} N_modes
### header ###
0.00050000 0 0 0 0 0 0 0 0 0 0 0 0
0.00150000 0.00179520 28563.40377472 0 -28072.61307178 0 -47680.51451238 0 44298.47446032 0 3532.31998956 0 3
0.00250000 0.00253879 34727.39667874 0 -19434.01565664 0 -32102.96259760 0 27814.69530757 0 35828.27054284 0 6
0.00350000 0.00331552 39791.61417592 0 -6146.40660332 0 -16813.31633018 0 -50292.53602650 0 -5360.84489516 0 7
0.00450000 0.00420575 52171.77670372 0 -5953.28683277 0 -33893.00854546 0 -35029.91180763 0 -2553.86918687 0 24
0.00550000 0.00557378 54854.86840244 0 414.77416530 0 -23345.62195285 0 -31410.82467925 0 -19904.15536312 0 45
0.00650000 0.00659388 47744.00534191 0 5423.02856055 0 -25177.18958507 0 -31934.67894566 0 5330.05513822 0 40
0.00750000 0.00754703 68269.77766740 0 -10186.75209019 0 -4475.42243767 0 -8668.78302060 0 -39358.16294186 0 57
0.00850000 0.00846663 53307.36181718 0 -2318.57964218 0 -5360.04302136 0 -9476.26993563 0 -6604.59509483 0 75
0.00950000 0.00948925 59157.96486545 0 5340.38063644 0 8826.82905090 0 -17145.70949649 0 -15228.13266097 0 112
0.01050000 0.01054430 63923.07245124 0 -4462.12012028 0 6268.23649782 0 2407.80732526 0 -17947.14391203 0 105
0.01150000 0.01145670 66535.86288544 0 1277.26413061 0 16945.68042979 0 4201.58802779 0 -1249.98943689 0 144
0.01250000 0.01249090 64639.04689209 0 -5713.82315049 0 16840.22853301 0 -2341.11998512 0 -7741.14685068 0 169
0.01350000 0.01339930 62161.03716347 0 6761.29002270 0 23664.72378634 0 17476.89435982 0 11294.22768241 0 180
0.01450000 0.01448870 69662.84116217 0 -2990.37413211 0 18798.88766998 0 320.90110648 0 -1147.19580668 0 267
0.01550000 0.01550050 75648.00522457 0 -1624.11299444 0 12180.79253545 0 -6738.77164891 0 -8449.47602901 0 238
0.01650000 0.01653350 74407.84698013 0 -645.90385236 0 11175.92383571 0 4660.98482229 0 -9357.07633855 0 315
0.01750000 0.01747870 76243.03952130 0 -5632.92177343 0 9272.29740736 0 -13787.94534983 0 -12183.31898715 0 297
0.01850000 0.01844180 82812.36315357 0 -3499.25642609 0 7038.89214098 0 505.83517354 0 -31435.43012184 0 388
0.01950000 0.01947590 83473.96396014 0 4649.92335770 0 12339.84914643 0 -8367.53111756 0 -31106.66186448 0 399
0.02050000 0.02045430 75900.32085676 0 7229.66121300 0 15282.94567815 0 -12255.70732046 0 -19139.62911146 0 462
0.02150000 0.02154770 69430.29776062 0 2964.67023227 0 22183.23448230 0 -3326.05168562 0 -21230.65234804 0 571
0.02250000 0.02255340 71820.87029150 0 872.44088962 0 32460.73012658 0 9566.42032280 0 -24671.45986342 0 510
0.02350000 0.02348930 68361.60869418 0 2693.77968784 0 26474.90698983 0 7148.72688222 0 -12125.21059819 0 555
0.02450000 0.02439640 67624.76356543 0 -1178.94122144 0 22482.45423941 0 6057.42058084 0 2381.45533564 0 592
0.02550000 0.02547300 64431.21877885 0 -827.20312435 0 21360.92937886 0 1671.54437885 0 -928.42156686 0 837
0.02650000 0.02652900 64927.50176808 0 5649.40961688 0 27667.61188071 0 -705.11399394 0 -6862.07347614 0 723
0.02750000 0.02749970 59184.65737683 0 6741.22120860 0 25149.72815361 0 -10847.43019267 0 -3124.51773247 0 826
0.02850000 0.02848090 54386.59607329 0 3785.94278589 0 38707.98609077 0 -2212.34784075 0 -9.00337310 0 831
0.02950000 0.02946900 55038.42061027 0 -4677.00032911 0 24816.23653004 0 13277.60210770 0 -5167.88989320 0 996
0.03050000 0.03053250 57729.64089270 0 -4801.34569073 0 23577.17674287 0 8565.09964000 0 -5032.71374301 0 1041
0.03150000 0.03150510 58531.07530824 0 2608.26479029 0 12645.65964709 0 191.53140136 0 -7266.62429974 0 1036
0.03250000 0.03246190 56902.39273160 0 4182.37601035 0 18430.57495133 0 -3677.09665618 0 -6546.40981387 0 1059
0.03350000 0.03345080 52411.02069454 0 2017.89893691 0 19690.61527214 0 1023.31948631 0 3863.76848262 0 1302
0.03450000 0.03451200 51943.40743975 0 -503.12637794 0 16676.88793872 0 4109.96570789 0 -3909.32150512 0 1339
0.03550000 0.03553350 53979.61765916 0 -535.78680760 0 14982.95700095 0 3109.84234350 0 706.92205459 0 1365
0.03650000 0.03647120 51667.80451369 0 103.50367299 0 14811.70751441 0 5165.79183984 0 3224.70801899 0 1308
0.03750000 0.03744890 51950.98679483 0 -594.01273148 0 11852.68335245 0 330.61037018 0 4561.16801124 0 1579
0.03850000 0.03847530 53145.11968015 0 914.84573361 0 16591.97719267 0 -1148.01964962 0 4073.82646410 0 1662
0.03950000 0.03950240 50030.55397044 0 1830.52409782 0 15398.28369025 0 -2481.39297698 0 2184.56785669 0 1683
0.04050000 0.04050350 50534.85569765 0 -191.31280836 0 15271.85125984 0 440.75707328 0 4868.65915151 0 1822
0.04150000 0.04152450 49854.69096341 0 1701.02697166 0 18031.28573800 0 1801.81042509 0 -1254.92150998 0 1887
0.04250000 0.04250150 49044.79842699 0 1907.98730366 0 18869.29878023 0 -158.51177618 0 6356.89298312 0 1920
0.04350000 0.04349210 45535.22748725 0 1086.26328411 0 19135.56481960 0 -361.74504271 0 1284.86545484 0 2005
0.04450000 0.04448520 46789.99521322 0 1479.95146388 0 21014.03657674 0 1135.72791290 0 6176.68008535 0 2151
0.04550000 0.04548030 41907.68223799 0 719.00288751 0 17874.20635009 0 1370.46822897 0 3584.63950876 0 2274
0.04650000 0.04648670 41802.45003266 0 1101.04961726 0 17763.37201274 0 2879.04548900 0 8004.31524058 0 2311
0.04750000 0.04749250 40891.49942849 0 355.40035358 0 19261.33817566 0 1459.49818974 0 5344.51083573 0 2568
0.04850000 0.04851840 38226.42242880 0 994.70797010 0 17486.23124651 0 -127.08052019 0 3492.84143570 0 2493
0.04950000 0.04949480 38992.15698345 0 1403.04847124 0 16952.05148188 0 444.52148631 0 4886.33332879 0 2644
0.05050000 0.05050630 37069.74693598 0 -310.04395494 0 18184.74021696 0 -1773.32742839 0 3775.54039565 0 2829
0.05150000 0.05149060 38424.91365535 0 660.07834481 0 16528.04698024 0 1172.53721562 0 -1124.68841746 0 2784
0.05250000 0.05249300 38841.11911045 0 -290.54414169 0 18196.16417245 0 -315.93388276 0 -5575.16489080 0 3055
0.05350000 0.05348950 38317.70422695 0 373.47217239 0 16358.77471677 0 -825.55543847 0 -2000.89481855 0 3009
0.05450000 0.05448610 36672.10540854 0 989.39033852 0 18059.95547244 0 -647.67676237 0 -4773.77441355 0 3336
0.05550000 0.05550870 35350.22194410 0 683.76218176 0 18444.08597561 0 -498.78966869 0 -3059.69776967 0 3349
0.05650000 0.05647670 34823.18215165 0 1580.88870133 0 17262.25581158 0 1894.11378849 0 -6995.04172723 0 3324
0.05750000 0.05747970 33996.15368200 0 -411.99396998 0 16383.38015935 0 2203.87873529 0 -376.88068527 0 3639
0.05850000 0.05849280 34377.86757920 0 466.33794591 0 15783.95203358 0 2456.64473495 0 -4345.87038865 0 3846
0.05950000 0.05951020 33641.68152480 0 -133.40983091 0 13417.32587093 0 410.63737527 0 -3957.82937764 0 3787
0.06050000 0.06049470 32356.81606996 0 1195.50595689 0 13848.58019048 0 -391.93284507 0 -3858.53982608 0 3930
0.06150000 0.06148310 32364.06588786 0 835.92926881 0 13766.19589612 0 -349.96189170 0 -3102.84517077 0 4083
0.06250000 0.06249100 30359.05185459 0 -437.71654359 0 13738.62461894 0 977.58741528 0 -1799.87714032 0 4303
0.06350000 0.06350600 31315.47858925 0 290.62542753 0 13428.31044351 0 464.98684348 0 -4848.34867681 0 4470
0.06450000 0.06451750 30051.92320522 0 762.21839296 0 13209.82729487 0 -85.18514068 0 -3887.46220568 0 4479
0.06550000 0.06550280 30932.11700616 0 992.18701070 0 13167.42684471 0 -879.45563767 0 -5082.93520886 0 4636
0.06650000 0.06648880 29467.65378961 0 19.39567950 0 15006.24429482 0 -276.66183886 0 -3876.49960225 0 4653
0.06750000 0.06749660 29495.11522107 0 -185.01974673 0 13385.47061045 0 845.38039506 0 -5024.35448328 0 5220
0.06850000 0.06852730 29172.71801581 0 674.67464486 0 14911.99666208 0 181.64858141 0 -4729.18803345 0 5029
0.06950000 0.06949320 28675.44641505 0 -25.95050349 0 12452.11147821 0 972.27966981 0 -5151.34712689 0 5040
0.07050000 0.07048030 28490.68590423 0 153.01729297 0 12362.14782877 0 1899.45229077 0 -3119.11332276 0 5475
0.07150000 0.07148790 28672.70027190 0 -51.87892800 0 11152.08731321 0 1992.15109878 0 -3174.31079998 0 5509
0.07250000 0.07249820 27656.40761668 0 226.74794105 0 10032.26506140 0 879.70169209 0 -1476.60116925 0 5916
0.07350000 0.07351270 27383.99021666 0 672.64469585 0 9159.68356926 0 816.40309259 0 -2501.52769852 0 5721
0.07450000 0.07449140 26977.12164825 0 364.16055022 0 8811.78018646 0 876.68532846 0 1265.02731676 0 6028
0.07550000 0.07549160 26628.47131451 0 -369.01243593 0 7582.78226777 0 1565.99362091 0 -990.13838791 0 6183
0.07650000 0.07648840 26753.36590476 0 232.02053589 0 7372.61444057 0 680.01863942 0 -413.33079246 0 6330
0.07750000 0.07749960 26024.75920544 0 340.39542744 0 5665.69973801 0 85.02981882 0 372.57912664 0 6583
0.07850000 0.07848650 26297.06675974 0 -77.37851479 0 6485.97269553 0 448.68463932 0 226.04822378 0 6549
0.07950000 0.07947320 25522.98392993 0 512.55992888 0 5874.45055535 0 690.80768661 0 -1167.92369514 0 6828
0.08050000 0.08048110 25453.45158549 0 424.49221666 0 5771.96449317 0 -352.32577172 0 -518.59924688 0 7147
0.08150000 0.08149960 24034.02511653 0 760.06431828 0 6085.66191694 0 -474.30066258 0 -256.27337369 0 7386
0.08250000 0.08250610 22914.58732476 0 1051.85630742 0 7069.76977451 0 -412.56626621 0 -52.02634096 0 7227
0.08350000 0.08350160 22428.08060513 0 475.30135714 0 6568.49978933 0 -47.33548909 0 617.01222955 0 7798
0.08450000 0.08449610 21766.36995283 0 264.92152769 0 7590.13094683 0 1020.69527192 0 846.43930786 0 7371
0.08550000 0.08548940 21420.24607080 0 167.81570915 0 7510.34999617 0 240.68626520 0 2352.36818744 0 8256
0.08650000 0.08650700 20674.94282115 0 275.51944331 0 6702.22597593 0 682.93284653 0 1006.31097412 0 8037
0.08750000 0.08749060 20664.06809430 0 135.77480939 0 5985.08717039 0 835.15595490 0 2690.72597666 0 8155
0.08850000 0.08849210 20574.87336494 0 256.23822306 0 6490.92673776 0 301.96260489 0 1279.13150795 0 8718
0.08950000 0.08949900 20511.49238114 0 616.92215606 0 6411.43138599 0 -575.37301027 0 2090.64976112 0 8571
0.09050000 0.09049190 19590.98519883 0 39.40122247 0 6003.23368429 0 -506.36792531 0 1181.34684283 0 8932
0.09150000 0.09150830 19344.27169865 0 -37.56108687 0 7144.32206862 0 375.19125800 0 1224.90067312 0 9285
0.09250000 0.09250820 19257.71326671 0 324.74900225 0 6683.54121797 0 -424.66467445 0 -509.87090551 0 9204
0.09350000 0.09350330 19340.75663542 0 82.58992556 0 6325.02673806 0 -401.59157974 0 -478.21117041 0 9349
0.09450000 0.09448040 18888.85131943 0 325.86064100 0 6644.27137099 0 39.66100761 0 -115.89053610 0 9564
0.09550000 0.09549270 19329.88190857 0 -15.90324449 0 6350.57685389 0 421.72959666 0 -2425.36067224 0 10155
0.09650000 0.09649430 18680.03459465 0 531.26336061 0 7168.04874539 0 -125.66570725 0 -807.36828164 0 9913
0.09750000 0.09749140 18091.70088720 0 183.13589253 0 6488.94951469 0 218.86651023 0 -1021.73880631 0 10476
0.09850000 0.09850240 17900.45947856 0 39.10167317 0 6827.02170503 0 842.02680505 0 -357.45556711 0 10575
0.09950000 0.09950330 18020.19131969 0 313.32175140 0 6126.70028011 0 818.64394540 0 475.93077315 0 10882
0.10050000 0.10051200 17600.58064709 0 17.88222509 0 5552.98703876 0 479.03501336 0 1260.65545687 0 10875
0.10150000 0.10150300 17276.20621876 0 46.15475738 0 5407.80394295 0 534.72350097 0 1352.95882027 0 11118
0.10250000 0.10250800 17414.28229611 0 347.19817324 0 5408.27627957 0 -181.77490399 0 455.54011106 0 11575
0.10350000 0.10349800 16485.64653008 0 457.16472935 0 5623.39814900 0 -318.69760122 0 784.88835386 0 11364
0.10450000 0.10450100 15572.27931994 0 534.85861122 0 5655.09962547 0 -363.86836059 0 1004.00750925 0 12093
0.10550000 0.10551000 15787.02771391 0 49.20001044 0 5699.65305186 0 709.06184933 0 714.96166326 0 12067
0.10650000 0.10649700 15775.16437552 0 -23.36605326 0 4702.62733694 0 549.99754915 0 -357.00959347 0 12054
0.10750000 0.10749900 15781.64527334 0 -129.47515702 0 4782.38631846 0 627.02466746 0 220.09129007 0 12807
0.10850000 0.10850100 15524.82596639 0 255.40010017 0 4104.48440617 0 -101.81149958 0 272.83591223 0 12736
0.10950000 0.10950300 15117.84755225 0 237.48865612 0 4492.14095714 0 -513.57050955 0 264.89846009 0 12933
0.11050000 0.11050200 15098.18516733 0 318.06928367 0 5025.07946507 0 -324.85884798 0 154.02018445 0 13428
0.11150000 0.11150900 14859.38055941 0 286.18546329 0 5295.90410206 0 183.54012480 0 474.82792206 0 13453
0.11250000 0.11250000 14343.43518527 0 -87.14775426 0 5154.96105127 0 9.84240771 0 533.13952561 0 13668
0.11350000 0.11349100 14585.42531923 0 160.82073333 0 5266.21280237 0 496.74873510 0 84.78969606 0 13791
0.11450000 0.11448600 14648.14722867 0 41.17336356 0 5263.14810662 0 614.33858459 0 843.38230131 0 14205
0.11550000 0.11549300 14402.75187721 0 -158.02076578 0 4836.67207615 0 246.34112317 0 1716.51521900 0 14776
0.11650000 0.11649800 14666.38161916 0 -95.65091190 0 4848.48049168 0 72.56749169 0 916.89875022 0 14553
0.11750000 0.11747300 14547.74823528 0 304.47148127 0 4287.04800247 0 -128.93361759 0 479.77757046 0 14568
0.11850000 0.11849100 14270.27793187 0 280.16481906 0 4621.28657698 0 -120.03940917 0 1013.87824617 0 16015
0.11950000 0.11950300 13803.98282580 0 120.16243638 0 4557.52113314 0 488.79919993 0 1905.69152799 0 15270
0.12050000 0.12050700 13885.59820008 0 214.37711541 0 4654.42703246 0 347.13775809 0 210.52702272 0 15999
0.12150000 0.12150000 13582.64368828 0 213.96299703 0 4629.48106812 0 -156.25664343 0 1483.62031113 0 15670
0.12250000 0.12250700 13441.49193061 0 -56.64238790 0 4281.43488588 0 407.12560741 0 836.85746520 0 16887
0.12350000 0.12352200 13247.83391600 0 -169.49305339 0 4266.45192888 0 300.62358549 0 1967.42482590 0 16407
0.12450000 0.12449800 13369.32328875 0 147.23611242 0 3602.26974775 0 316.01846396 0 1208.27003023 0 16306
0.12550000 0.12549900 13443.57899940 0 200.55742465 0 3475.13430470 0 55.49241300 0 1498.20782351 0 17523
0.12650000 0.12650100 13213.78174100 0 143.04879336 0 3913.10019809 0 273.56089402 0 1467.85744947 0 17154
0.12750000 0.12750600 13305.28323060 0 -147.64473852 0 3378.61286542 0 361.15077733 0 1458.43268620 0 18007
0.12850000 0.12850300 13261.12524883 0 -40.85448142 0 3440.88440739 0 -70.08344045 0 1494.67079114 0 17496
0.12950000 0.12949900 12932.24714574 0 295.76071521 0 3261.74799773 0 -429.61542131 0 1402.41136603 0 18405
0.13050000 0.13049000 12956.41320542 0 250.18352666 0 3776.81460607 0 -221.65549320 0 1396.88612602 0 18100
0.13150000 0.13148800 12709.04063089 0 39.23184036 0 3376.35004347 0 245.97863227 0 712.19684634 0 19059
0.13250000 0.13249300 12578.10452572 0 130.33415059 0 4032.77711636 0 205.85528400 0 1255.77830664 0 18957
0.13350000 0.13349100 12385.65481409 0 134.56870332 0 3607.99271007 0 157.68134249 0 1078.63669537 0 19468
0.13450000 0.13450700 12382.02990514 0 212.31531114 0 3623.89837117 0 -199.54245014 0 672.29099261 0 19953
0.13550000 0.13551000 12028.10697657 0 157.34960840 0 3686.47748116 0 331.18925716 0 1268.07004336 0 19956
0.13650000 0.13649900 11832.47173890 0 -18.72649934 0 3503.94683858 0 318.12860036 0 1559.99604428 0 19723
0.13750000 0.13749600 11819.29025180 0 150.89617201 0 3336.68475188 0 285.64612078 0 1156.14823333 0 20946
0.13850000 0.13851100 11657.37765195 0 262.71143168 0 3557.01330872 0 -438.07134529 0 873.11094854 0 20955
0.13950000 0.13949800 11320.59065661 0 314.73766280 0 3632.04892402 0 -395.04587294 0 906.65234092 0 20506
0.14050000 0.14048300 11227.77101829 0 25.64930651 0 3894.63513158 0 -17.68197633 0 261.05385968 0 21447
0.14150000 0.14148400 10971.00663421 0 -26.48677033 0 3639.90289342 0 135.22118693 0 528.91925282 0 21771
0.14250000 0.14249400 10963.14168024 0 179.02326856 0 3402.72400224 0 86.41409466 0 -170.04008510 0 22470
0.14350000 0.14350900 11027.41241441 0 147.79083334 0 3696.04504388 0 -203.23216807 0 -270.46104764 0 22519
0.14450000 0.14449900 10415.01150843 0 118.89701362 0 3762.10626338 0 -246.53225473 0 -135.00369240 0 22218
0.14550000 0.14550500 10429.34637565 0 114.43617870 0 3736.69894700 0 325.02691194 0 -72.27804820 0 23559
0.14650000 0.14650700 10566.31301116 0 73.26676958 0 3660.87244247 0 174.80409423 0 -449.12072685 0 23044
0.14750000 0.14750500 10667.40403263 0 -6.25750457 0 3626.97405149 0 92.60390131 0 -912.34015260 0 23649
0.14850000 0.14849900 10422.85449325 0 -75.87099205 0 3366.00257610 0 430.03283507 0 -79.39813830 0 23640
0.14950000 0.14949500 10529.66847703 0 -83.32182763 0 2942.59124138 0 334.43190298 0 -96.53780629 0 24457
0.15050000 0.15050000 10404.56517990 0 35.89681428 0 2851.66094955 0 126.50163322 0 -345.68340068 0 24591
0.15150000 0.15149900 10183.87413217 0 401.58279209 0 2678.53310110 0 -117.09114989 0 -392.86543529 0 25020
0.15250000 0.15250500 9873.98835508 0 386.95793215 0 2964.83500086 0 -482.02721093 0 -113.56180672 0 25297
0.15350000 0.15350100 9373.17972195 0 332.38547711 0 3515.37079406 0 -158.88195627 0 -118.29725596 0 25452
0.15450000 0.15450400 9335.49165342 0 -50.31164918 0 2952.76295559 0 414.28205645 0 -216.45759346 0 26061
0.15550000 0.15549900 9146.19451413 0 -34.70202232 0 3228.64049597 0 442.52449101 0 -204.68323011 0 26128
0.15650000 0.15649500 9066.04008800 0 94.88309027 0 2759.97272222 0 -125.93043544 0 -35.36395266 0 26331
0.15750000 0.15749700 8917.60555871 0 159.72117762 0 2966.47170217 0 -89.48175624 0 232.56537069 0 27345
0.15850000 0.15849900 8885.57454506 0 201.35600307 0 2921.09443284 0 -93.09172618 0 -261.00882293 0 26980
0.15950000 0.15949700 8906.26947981 0 -12.87754397 0 3171.98207060 0 344.95841889 0 93.86394163 0 27777
0.16050000 0.16050000 8991.87225393 0 -100.77191963 0 3019.39537287 0 -188.51284081 0 -309.59139055 0 28224
0.16150000 0.16150500 8931.89648764 0 105.92983553 0 2913.89953780 0 -131.97304882 0 -112.23377189 0 28075
0.16250000 0.16249700 8750.77187035 0 5.22656948 0 3023.25095785 0 290.71110719 0 -290.17725697 0 28590
0.16350000 0.16349900 8732.02120495 0 142.31172853 0 2854.54989214 0 -200.41242829 0 -473.49878878 0 29163
0.16450000 0.16449100 8667.75047078 0 181.34540720 0 3009.05889007 0 -7.30356542 0 -582.29438945 0 28996
0.16550000 0.16550500 8475.44355860 0 60.29530751 0 2891.85350063 0 182.73166026 0 -97.72150383 0 30777
0.16650000 0.16650700 8574.93083246 0 6.19679284 0 2799.94558184 0 406.81474401 0 -501.47429823 0 29211
0.16750000 0.16749900 8242.84523419 0 30.94848402 0 2445.72606981 0 392.21514859 0 190.04409023 0 30922
0.16850000 0.16850800 8359.42450299 0 -44.05055266 0 2054.48854818 0 154.11355332 0 186.22145897 0 30867
0.16950000 0.16949900 8228.30166009 0 133.67236220 0 2303.94819150 0 98.81578695 0 278.83348886 0 30852
0.17050000 0.17049200 8166.89789936 0 177.21520791 0 1932.88932970 0 102.11785931 0 545.06657452 0 31257
0.17150000 0.17149500 8145.88441201 0 -89.51690687 0 2112.57496799 0 173.44969643 0 609.72616256 0 32608
0.17250000 0.17250900 8136.99789279 0 97.17831671 0 1873.60559148 0 -72.76488446 0 219.69145163 0 32361
0.17350000 0.17350400 8069.10224967 0 134.87736981 0 2000.68611168 0 -121.17741089 0 456.02013689 0 32508
0.17450000 0.17449800 7947.65681521 0 31.72223731 0 2262.78899804 0 -30.96496088 0 383.52854859 0 32791
0.17550000 0.17549800 7913.79137794 0 2.37702855 0 1881.30577686 0 136.84141139 0 407.25742228 0 33633
0.17650000 0.17650100 7936.16695229 0 -48.43998786 0 1990.36061345 0 272.50857197 0 687.68147725 0 33984
0.17750000 0.17750300 8000.67934706 0 -52.10685788 0 1733.80493624 0 436.60929868 0 576.17378561 0 34069
0.17850000 0.17849800 8255.62029210 0 -13.61482849 0 1558.84266416 0 239.26595997 0 715.62513144 0 34536
