### header ###
fiducial parameters:
Omega_m = 0.31
Omega_nu = 0
Omega_de = 0.69
Omega_k = 0
H_0 = 100
w_de = -1
zeff = 0
beta = 0
fgrowth = 0
b_1 = 2
gamma = 0.55
Lx = 3500 Ly = 3500 Lz = 3500
nx = 700 ny = 700 nz = 700
xoffset = -983.599254 yoffset = -42.9823471 zoffset = 800.977702
bins = 400 dk = 0.001
kx_ny = 0.628318531 ky_ny = 0.628318531 kz_ny = 0.628318531
############################
A(data) = 9.0263683 (not used)
A(ran) = 9.01159857 (used)
Ngal = 500746
weighted Ngal = 0
Nran = 25229228
weighted Nran = 0
SN(data) = 6783.88896
SN(ran) = 133.770972
SN(data+ran) = 6917.65993
############################
13 columns: k_central k_mean P_0(k) sigma^{lin}_{P_0(k)} P^img_1(k) sigma^{lin}_{P_1(k)} P_2(k) sigma^{lin}_{P_2(k)} P^img_3(k) sigma^{lin}_{P_3(k)} P_4(k) sigma^{lin}_{P_4(k)} N_modes
### header ###
0.00050000 0 0 0 0 0 0 0 0 0 0 0 0
0.00150000 0.00179520 87793.97666493 0 -14793.36327820 0 -15195.06909750 0 80303.15723881 0 -102545.92810450 0 3
0.00250000 0.00253879 79722.18319499 0 21322.59322055 0 37055.13745445 0 -15934.44067795 0 -4082.51526101 0 6
0.00350000 0.00331552 72094.38614878 0 15126.08598169 0 43488.03269526 0 -27133.21242463 0 91392.74233403 0 7
0.00450000 0.00420575 49500.21880621 0 4194.16245673 0 10752.44659355 0 67243.48905113 0 42130.55921566 0 24
0.00550000 0.00557378 65187.06721817 0 -21167.60090143 0 -16757.29501002 0 31022.30034705 0 -21699.25421436 0 45
0.00650000 0.00659388 82960.54503769 0 -8840.06546086 0 -9902.68005866 0 4848.06307792 0 -28213.32544655 0 40
0.00750000 0.00754703 91200.73200531 0 12126.08936400 0 -8859.94753723 0 -49456.17067016 0 4608.39068877 0 57
0.00850000 0.00846663 69745.77468516 0 6047.80907983 0 10692.32802782 0 -42962.75043442 0 15684.10226882 0 75
0.00950000 0.00948925 76025.76467564 0 -3038.09111540 0 22614.48880184 0 16074.16444118 0 -42004.12678525 0 112
0.01050000 0.01054430 78172.80923239 0 6205.31686607 0 19089.75915194 0 5698.97200836 0 -13785.19920668 0 105
0.01150000 0.01145670 71428.83089607 0 4546.84412860 0 47955.23867264 0 -17268.62686368 0 -2384.31132451 0 144
0.01250000 0.01249090 71569.43342511 0 235.42245802 0 30474.49971242 0 13092.73175115 0 6934.76937748 0 169
0.01350000 0.01339930 72534.20843493 0 -1378.09152234 0 30151.22374135 0 6363.37388094 0 -9697.00492165 0 180
0.01450000 0.01448870 71763.31113117 0 1538.57612775 0 30503.49898404 0 26891.55182784 0 8187.57086496 0 267
0.01550000 0.01550050 75764.66138538 0 -171.15172385 0 35800.04019131 0 339.30905321 0 30937.06006382 0 238
0.01650000 0.01653350 71690.04403206 0 -170.26087501 0 18873.25322636 0 172.13154772 0 17348.15516917 0 315
0.01750000 0.01747870 76363.65012824 0 -297.76979354 0 36265.23684013 0 -1798.02074755 0 4865.56150204 0 297
0.01850000 0.01844180 70160.11276293 0 251.92787678 0 13788.71426991 0 -413.13307016 0 1245.31000897 0 388
0.01950000 0.01947590 79100.23669543 0 -962.07610034 0 33104.97530847 0 -5668.06142112 0 -7914.75802033 0 399
0.02050000 0.02045430 72603.52108792 0 3466.25877005 0 24540.52375825 0 -1915.11629127 0 -15141.35453758 0 462
0.02150000 0.02154770 74348.96967110 0 1168.86836838 0 34708.72290535 0 -6995.76670903 0 -24805.25195746 0 571
0.02250000 0.02255340 74143.22862665 0 -540.78039429 0 33461.97391737 0 -3066.00291433 0 -19802.43822102 0 510
0.02350000 0.02348930 70470.86632125 0 2427.10721928 0 34925.33867665 0 -9174.05139020 0 -34592.28643599 0 555
0.02450000 0.02439640 68451.68218935 0 6102.50126671 0 40241.65211457 0 -1354.89210505 0 -20527.20031993 0 592
0.02550000 0.02547300 70086.84566381 0 -1455.38995959 0 39376.28748662 0 11470.09068944 0 -27345.98359553 0 837
0.02650000 0.02652900 69627.36099273 0 1068.03768128 0 40062.60358150 0 6533.96429313 0 -16146.11339159 0 723
0.02750000 0.02749970 66055.83706363 0 2734.58737498 0 28700.49124053 0 -604.71829592 0 -15453.42624461 0 826
0.02850000 0.02848090 66118.44912735 0 4445.54440025 0 41158.20485076 0 4788.02140419 0 -1837.49930141 0 831
0.02950000 0.02946900 59740.14721226 0 480.60800415 0 35506.42256621 0 -1104.45483476 0 -1924.01379506 0 996
0.03050000 0.03053250 57520.49463075 0 1141.62662838 0 35024.30967561 0 6991.14220397 0 -2342.87751673 0 1041
0.03150000 0.03150510 56578.67737763 0 1030.72308823 0 30906.19341487 0 7257.13362903 0 3880.91540042 0 1036
0.03250000 0.03246190 53435.99116211 0 905.90099616 0 26579.80965798 0 12214.84471045 0 7071.59321355 0 1059
0.03350000 0.03345080 55141.67559254 0 -258.68778275 0 22419.62248425 0 5104.76155457 0 17022.68228358 0 1302
0.03450000 0.03451200 53817.70505931 0 -1074.46475470 0 17247.42663860 0 8442.86331632 0 13598.24178135 0 1339
0.03550000 0.03553350 54351.44544103 0 468.77212720 0 12058.64408835 0 618.18208653 0 8490.94279051 0 1365
0.03650000 0.03647120 52347.20032784 0 3062.02649906 0 14117.70221872 0 -5877.75691170 0 10652.44304477 0 1308
0.03750000 0.03744890 46817.78618185 0 5001.34180372 0 17875.08511589 0 -5673.03743250 0 6469.93521956 0 1579
0.03850000 0.03847530 44378.44214871 0 2059.31077554 0 17754.47450895 0 797.07903251 0 4597.64777678 0 1662
0.03950000 0.03950240 41989.62714944 0 -1583.38219931 0 18672.45523957 0 2383.07006780 0 862.69867219 0 1683
0.04050000 0.04050350 42687.14750836 0 285.35612806 0 15800.42889246 0 3947.19631138 0 -2582.19839956 0 1822
0.04150000 0.04152450 40364.34979031 0 1742.62554802 0 14027.84841500 0 -403.22498569 0 -2354.99350029 0 1887
0.04250000 0.04250150 40443.98794152 0 1395.31533215 0 14525.77909012 0 820.86722289 0 1991.82156160 0 1920
0.04350000 0.04349210 39095.74150289 0 960.15489859 0 17013.45524261 0 -649.36838655 0 -2614.64682696 0 2005
0.04450000 0.04448520 38296.61384760 0 -1117.68026015 0 12446.39950047 0 4228.55515348 0 2879.75948622 0 2151
0.04550000 0.04548030 38991.38806336 0 -1325.46443510 0 12674.76876443 0 3882.31044114 0 1383.05654914 0 2274
0.04650000 0.04648670 39968.90517738 0 939.00410409 0 11992.40711568 0 -611.45513428 0 42.31993325 0 2311
0.04750000 0.04749250 38793.66575690 0 2049.32579907 0 12638.51967492 0 -3859.93486679 0 3762.46875428 0 2568
0.04850000 0.04851840 36681.88167814 0 1528.52524384 0 15837.11736488 0 -1105.04800168 0 4026.02160422 0 2493
0.04950000 0.04949480 38340.22260074 0 -49.59962919 0 18445.73366149 0 1868.54170352 0 3458.40480066 0 2644
0.05050000 0.05050630 35505.32410895 0 -365.38313314 0 17138.13014141 0 -464.95279131 0 508.19575819 0 2829
0.05150000 0.05149060 35512.68377258 0 1218.77128162 0 17205.68526279 0 -464.11356996 0 1.59013771 0 2784
0.05250000 0.05249300 35631.42700218 0 844.28743009 0 19271.77351961 0 1222.00074596 0 2822.62872422 0 3055
0.05350000 0.05348950 34342.16771831 0 -571.19338040 0 16170.05975982 0 2487.24775417 0 2870.32373837 0 3009
0.05450000 0.05448610 34774.95987802 0 15.52405705 0 16379.64540467 0 2086.86008358 0 744.24982913 0 3336
0.05550000 0.05550870 34440.25995146 0 1779.03940613 0 14334.97706438 0 1326.76061466 0 2977.08279929 0 3349
0.05650000 0.05647670 33947.05264256 0 94.33638809 0 16529.69466613 0 -55.87368751 0 6587.28340844 0 3324
0.05750000 0.05747970 32809.16076886 0 -371.04458185 0 12763.96349380 0 4244.81232090 0 3971.79076939 0 3639
0.05850000 0.05849280 33184.39376824 0 -618.20844951 0 12768.68686000 0 1442.51604053 0 5371.59879172 0 3846
0.05950000 0.05951020 32850.68245322 0 1244.80471864 0 11002.14789747 0 -1947.70751812 0 4996.31086948 0 3787
0.06050000 0.06049470 31162.35364746 0 1133.58592125 0 14619.80703141 0 -1006.38127539 0 2653.70796706 0 3930
0.06150000 0.06148310 29623.19533737 0 681.15005040 0 13678.42916119 0 -1733.05798530 0 2578.43069116 0 4083
0.06250000 0.06249100 29960.97094424 0 699.77219629 0 15707.06002551 0 638.05317833 0 2246.22426259 0 4303
0.06350000 0.06350600 30785.80249938 0 -294.56010143 0 13057.03189027 0 2142.52989742 0 345.91737207 0 4470
0.06450000 0.06451750 30994.39953270 0 -2361.35356781 0 9126.22456118 0 4631.52419862 0 590.64705844 0 4479
0.06550000 0.06550280 32100.21645446 0 -1002.61466545 0 7074.40526414 0 1766.69274655 0 878.73285279 0 4636
0.06650000 0.06648880 32093.29617373 0 1698.65430398 0 7000.85256613 0 -760.81785996 0 881.69209664 0 4653
0.06750000 0.06749660 30527.33550654 0 1316.61086960 0 7262.15357870 0 -2053.39009092 0 2004.86024926 0 5220
0.06850000 0.06852730 29586.06748204 0 572.18309039 0 8542.35059019 0 -426.06410900 0 -1944.48903835 0 5029
0.06950000 0.06949320 28217.17004695 0 896.37407636 0 8834.59514371 0 570.93963677 0 525.61948722 0 5040
0.07050000 0.07048030 28271.76337268 0 -291.02636443 0 8499.73044857 0 1544.43090494 0 1184.71910662 0 5475
0.07150000 0.07148790 28608.22083085 0 149.39348248 0 8667.95917766 0 829.93498755 0 825.98713217 0 5509
0.07250000 0.07249820 27417.82270021 0 626.15249240 0 7870.62200769 0 -1045.47427075 0 -572.81030948 0 5916
0.07350000 0.07351270 26548.50362612 0 584.12332079 0 9025.40815403 0 58.11728646 0 2481.15131638 0 5721
0.07450000 0.07449140 25766.07252115 0 622.90215737 0 9769.98642188 0 433.96201668 0 2542.34637023 0 6028
0.07550000 0.07549160 25544.84322937 0 282.27385699 0 10710.58438745 0 -139.88194108 0 1467.62677345 0 6183
0.07650000 0.07648840 25181.69325983 0 633.35507664 0 9571.58307191 0 1403.03748667 0 2023.96242098 0 6330
0.07750000 0.07749960 24907.73801965 0 -61.77910357 0 9034.49239555 0 895.39864631 0 3282.16831816 0 6583
0.07850000 0.07848650 24837.32690940 0 -328.02899562 0 7494.51024251 0 340.59864203 0 2541.28086669 0 6549
0.07950000 0.07947320 25572.52435227 0 139.17123923 0 7132.29396164 0 1221.60530134 0 -87.42269811 0 6828
0.08050000 0.08048110 23883.20693499 0 511.83604554 0 7164.50072845 0 -1115.72500623 0 2327.04874764 0 7147
0.08150000 0.08149960 23873.97989402 0 685.65042978 0 8277.36974581 0 -217.85592955 0 1322.26792448 0 7386
0.08250000 0.08250610 22923.15529138 0 527.32758825 0 8082.39358249 0 -531.93341954 0 1288.65513238 0 7227
0.08350000 0.08350160 22797.49178105 0 135.62871458 0 8447.19123792 0 150.10308587 0 326.28135013 0 7798
0.08450000 0.08449610 22640.85177604 0 419.09988998 0 8571.93204415 0 707.74919290 0 -119.05189609 0 7371
0.08550000 0.08548940 21835.13337719 0 278.23482966 0 7943.01034100 0 118.07646605 0 2590.10729182 0 8256
0.08650000 0.08650700 22122.81933310 0 -352.82447131 0 7812.18408156 0 1377.13586452 0 523.66752867 0 8037
0.08750000 0.08749060 21578.75345315 0 310.89855468 0 7924.77595052 0 29.00641159 0 1871.62836842 0 8155
0.08850000 0.08849210 21429.03372886 0 908.08912301 0 7131.62390271 0 -484.03079697 0 711.85852151 0 8718
0.08950000 0.08949900 20919.89878972 0 157.74175764 0 8447.05942304 0 367.21865522 0 1125.31453810 0 8571
0.09050000 0.09049190 19962.59328925 0 168.15842782 0 8223.52337101 0 -172.19965207 0 345.22095017 0 8932
0.09150000 0.09150830 19540.01678205 0 981.15081062 0 7941.17591738 0 -666.65920225 0 666.86241684 0 9285
0.09250000 0.09250820 19214.54389646 0 -99.18091414 0 7295.87621652 0 1333.76877197 0 561.31605274 0 9204
0.09350000 0.09350330 18883.02949596 0 -110.82664814 0 7427.54828805 0 1042.14484680 0 424.63501611 0 9349
0.09450000 0.09448040 19127.98546452 0 33.71143356 0 5714.40533284 0 1553.18560928 0 1527.59155517 0 9564
0.09550000 0.09549270 19055.48728549 0 -97.72732565 0 5827.59036872 0 659.99705898 0 1423.21614650 0 10155
0.09650000 0.09649430 18745.39280151 0 348.15822488 0 4684.40393103 0 316.20849707 0 2288.53683617 0 9913
0.09750000 0.09749140 18162.99076325 0 386.64816721 0 5363.01984053 0 -537.07200259 0 2569.86272455 0 10476
0.09850000 0.09850240 17852.89627928 0 290.37827465 0 5476.49047530 0 235.93104373 0 2789.09282413 0 10575
0.09950000 0.09950330 18216.15609454 0 -80.08423471 0 4758.89031771 0 1313.65601958 0 2443.48521700 0 10882
0.10050000 0.10051200 17982.29454429 0 -270.40063249 0 4076.44079237 0 632.28408081 0 2863.97465542 0 10875
0.10150000 0.10150300 17568.61554087 0 423.20921858 0 4973.90234141 0 -647.24836404 0 2336.51744920 0 11118
0.10250000 0.10250800 16915.03347228 0 883.93185099 0 4611.85082913 0 -1154.70925432 0 1748.12881889 0 11575
0.10350000 0.10349800 16829.68334333 0 232.33359621 0 6147.70278288 0 -591.29734514 0 1832.78691977 0 11364
0.10450000 0.10450100 15855.90098399 0 327.84445481 0 5679.54029947 0 79.06486637 0 444.86200806 0 12093
0.10550000 0.10551000 15691.90131535 0 305.94121708 0 6700.22678372 0 -497.78238338 0 680.85566385 0 12067
0.10650000 0.10649700 15244.71936557 0 309.44090190 0 5789.81442361 0 354.90934319 0 581.90114175 0 12054
0.10750000 0.10749900 15424.97620163 0 35.96524816 0 6461.79565127 0 795.04139429 0 345.37583265 0 12807
0.10850000 0.10850100 15217.47762556 0 -242.79310622 0 5262.56592428 0 382.81345292 0 357.68844005 0 12736
0.10950000 0.10950300 15036.67156087 0 154.40903832 0 5250.74652418 0 -179.52526353 0 77.79109534 0 12933
0.11050000 0.11050200 14696.80888521 0 378.92161885 0 5157.74014813 0 -121.52012955 0 727.61039859 0 13428
0.11150000 0.11150900 14375.94952011 0 150.94560258 0 5226.56947993 0 356.85910482 0 -440.30780427 0 13453
0.11250000 0.11250000 14398.68758535 0 286.26345376 0 5294.48709220 0 -450.50368454 0 -662.39938500 0 13668
0.11350000 0.11349100 14227.43809881 0 385.61122355 0 5399.71929753 0 -35.92658247 0 -1051.31916182 0 13791
0.11450000 0.11448600 13584.95044852 0 -3.72151827 0 4852.55576811 0 363.25102761 0 -259.89828265 0 14205
0.11550000 0.11549300 13764.76790168 0 -400.00870284 0 5309.87647839 0 606.94706570 0 -726.26478845 0 14776
0.11650000 0.11649800 14096.72168509 0 304.40996766 0 4369.32245111 0 191.45780472 0 -584.47372865 0 14553
0.11750000 0.11747300 13860.77306604 0 -40.48836561 0 4424.97029581 0 -223.37457881 0 -1182.29151608 0 14568
0.11850000 0.11849100 13639.10439135 0 -13.47510472 0 4628.83297834 0 142.49077707 0 -544.10762133 0 16015
0.11950000 0.11950300 14116.60376146 0 5.17203108 0 4202.55467018 0 41.76488279 0 -1280.62540982 0 15270
0.12050000 0.12050700 13898.77968717 0 218.24478342 0 4563.37591033 0 -254.56417420 0 -1269.14653148 0 15999
0.12150000 0.12150000 13783.99090370 0 18.26602605 0 4658.83184606 0 -346.30512749 0 -1301.49609773 0 15670
0.12250000 0.12250700 13599.12054715 0 16.15830627 0 4441.68881527 0 261.69975255 0 -1781.78554927 0 16887
0.12350000 0.12352200 13541.34169538 0 214.96149467 0 4465.65715265 0 291.68983261 0 -1185.29030439 0 16407
0.12450000 0.12449800 13387.22814206 0 113.49260391 0 4339.40047540 0 259.45999820 0 -1181.92902518 0 16306
0.12550000 0.12549900 13347.57383504 0 215.47227730 0 4183.78203564 0 570.13995989 0 -658.86894337 0 17523
0.12650000 0.12650100 13117.11750229 0 165.18051019 0 4139.17368638 0 63.08879416 0 -1432.60795606 0 17154
0.12750000 0.12750600 12917.63766421 0 37.95191796 0 3611.10134411 0 81.15050717 0 -299.92606513 0 18007
0.12850000 0.12850300 12782.19788428 0 -35.83826650 0 3540.76712587 0 646.35641675 0 -656.81922213 0 17496
0.12950000 0.12949900 12583.48696628 0 177.72818745 0 3448.94708366 0 -411.88302580 0 -97.95338815 0 18405
0.13050000 0.13049000 12310.19080046 0 325.82549037 0 3849.90595203 0 100.57222010 0 -537.51797624 0 18100
0.13150000 0.13148800 12265.70328151 0 205.32912298 0 3940.29799980 0 -294.44805879 0 -805.42840613 0 19059
0.13250000 0.13249300 12059.19331698 0 133.52187356 0 4144.25954349 0 -620.45369614 0 -1146.97611523 0 18957
0.13350000 0.13349100 11798.52940962 0 137.17534240 0 4374.81473740 0 111.18584367 0 -763.40472680 0 19468
0.13450000 0.13450700 11991.08896697 0 24.80766856 0 4414.68873587 0 529.90786435 0 -605.52016972 0 19953
0.13550000 0.13551000 11764.47723462 0 -146.15193511 0 3784.49282231 0 545.64436303 0 176.48253692 0 19956
0.13650000 0.13649900 11801.38539849 0 -131.28211921 0 3455.32912033 0 1175.68978795 0 -24.38355422 0 19723
0.13750000 0.13749600 12156.07724714 0 16.17291575 0 2983.82732685 0 567.28506948 0 935.15181448 0 20946
0.13850000 0.13851100 11765.46584615 0 275.34698552 0 2918.19450568 0 -169.03829208 0 829.52745991 0 20955
0.13950000 0.13949800 11399.78942492 0 417.26436790 0 3091.09167811 0 -616.42125955 0 1537.78523853 0 20506
0.14050000 0.14048300 11120.12220700 0 -6.82835084 0 3161.45885006 0 160.05620708 0 630.80665580 0 21447
0.14150000 0.14148400 11287.85663031 0 5.62119025 0 3454.58216940 0 -20.99854833 0 316.73136272 0 21771
0.14250000 0.14249400 11111.88377756 0 186.24672349 0 3012.09063210 0 -144.27577011 0 25.70148323 0 22470
0.14350000 0.14350900 10811.45571746 0 316.49739133 0 3259.35336091 0 -461.28064869 0 -214.42874290 0 22519
0.14450000 0.14449900 10529.05334097 0 256.92036502 0 3627.36949610 0 -513.25964615 0 -386.82611728 0 22218
0.14550000 0.14550500 10355.00278842 0 67.56423857 0 3998.85675623 0 323.35945382 0 -359.57888499 0 23559
0.14650000 0.14650700 10063.68093899 0 14.29927720 0 3392.13487427 0 774.27725674 0 -218.38648440 0 23044
0.14750000 0.14750500 10297.14704463 0 -62.36798651 0 3087.92812120 0 251.74553288 0 -156.90583167 0 23649
0.14850000 0.14849900 10125.77672779 0 175.30718765 0 3170.68589103 0 345.01004638 0 218.53038231 0 23640
0.14950000 0.14949500 10070.20577510 0 -103.78553712 0 2614.65781154 0 335.36888702 0 799.96028589 0 24457
0.15050000 0.15050000 10117.73602066 0 129.96397050 0 2736.48770604 0 133.51967664 0 662.07973394 0 24591
0.15150000 0.15149900 9901.82326200 0 159.55750749 0 2362.52891708 0 55.09026779 0 805.28011440 0 25020
0.15250000 0.15250500 9930.97631763 0 0.13584182 0 2411.49814165 0 25.86372537 0 620.38229642 0 25297
0.15350000 0.15350100 9814.81446258 0 228.45933746 0 2644.75554041 0 -29.89385521 0 906.63476560 0 25452
0.15450000 0.15450400 9580.40368370 0 94.98063328 0 2576.55232925 0 -137.89373344 0 975.85075435 0 26061
0.15550000 0.15549900 9393.61102695 0 55.17891329 0 2879.37502617 0 262.73449929 0 662.09730925 0 26128
0.15650000 0.15649500 9375.85995766 0 179.55602033 0 3066.18965207 0 -577.16129868 0 649.89564603 0 26331
0.15750000 0.15749700 9096.78590666 0 249.80895273 0 3170.98247449 0 -137.78278926 0 765.78508368 0 27345
0.15850000 0.15849900 9180.94970178 0 76.11902370 0 3374.43872784 0 12.75704321 0 526.60150801 0 26980
0.15950000 0.15949700 8862.62777294 0 -154.80997522 0 3039.21154181 0 360.20500563 0 743.90381510 0 27777
0.16050000 0.16050000 9288.47768278 0 -45.64617167 0 3048.63630508 0 436.96190346 0 143.38821665 0 28224
0.16150000 0.16150500 9205.42332949 0 110.65089498 0 2927.36662378 0 -268.60135950 0 581.63421664 0 28075
0.16250000 0.16249700 9043.84026682 0 175.69713998 0 2615.56953106 0 -233.40678895 0 13.66546737 0 28590
0.16350000 0.16349900 8873.98582099 0 20.87398328 0 2874.69559826 0 166.21745384 0 176.01020030 0 29163
0.16450000 0.16449100 8784.71419962 0 8.19163516 0 2638.82387122 0 289.37758008 0 -62.02768445 0 28996
0.16550000 0.16550500 8784.12103270 0 114.67454392 0 2393.95577923 0 92.44901883 0 -75.13722260 0 30777
0.16650000 0.16650700 8557.20173232 0 128.39537353 0 2509.85400454 0 114.65477169 0 86.11674228 0 29211
0.16750000 0.16749900 8418.26885831 0 249.35858525 0 2370.05334930 0 -68.47101504 0 -146.80881255 0 30922
0.16850000 0.16850800 8240.30779792 0 76.07310818 0 2329.25664673 0 -3.38034843 0 446.90843393 0 30867
0.16950000 0.16949900 8119.99377444 0 52.24965732 0 2436.23539910 0 92.12222780 0 -257.00714314 0 30852
0.17050000 0.17049200 7998.09797250 0 137.23246217 0 2253.81460224 0 73.02576806 0 358.48262465 0 31257
0.17150000 0.17149500 7996.52717862 0 -37.92434668 0 2217.08219153 0 345.21216251 0 317.57717481 0 32608
0.17250000 0.17250900 7853.34327502 0 -56.25452264 0 2147.60476995 0 298.31352988 0 331.73079658 0 32361
0.17350000 0.17350400 8087.00710297 0 85.97515114 0 1709.45213883 0 55.63707982 0 576.20893624 0 32508
0.17450000 0.17449800 7860.37340148 0 87.29868229 0 1910.18421818 0 -144.40648653 0 80.44145301 0 32791
0.17550000 0.17549800 7635.64003103 0 328.94071515 0 2178.70209493 0 -278.23702657 0 447.21490350 0 33633
0.17650000 0.17650100 7537.76748933 0 -0.77347868 0 2181.31642320 0 -99.77594844 0 533.08350429 0 33984
0.17750000 0.17750300 7543.60029737 0 -50.87878267 0 2102.99642070 0 564.94974935 0 232.56866606 0 34069
0.17850000 0.17849800 7523.10308494 0 8.46085605 0 1840.64088917 0 253.15375508 0 249.68153169 0 34536
