### header ###
fiducial parameters:
Omega_m = 0.31
Omega_nu = 0
Omega_de = 0.69
Omega_k = 0
H_0 = 100
w_de = -1
zeff = 0
beta = 0
fgrowth = 0
b_1 = 2
gamma = 0.55
Lx = 3500 Ly = 3500 Lz = 3500
nx = 700 ny = 700 nz = 700
xoffset = -983.599254 yoffset = -42.9823471 zoffset = 800.977702
bins = 400 dk = 0.001
kx_ny = 0.628318531 ky_ny = 0.628318531 kz_ny = 0.628318531
############################
A(data) = 9.12188034 (not used)
A(ran) = 9.12773406 (used)
Ngal = 507462
weighted Ngal = 0
Nran = 25229228
weighted Nran = 0
SN(data) = 6695.77208
SN(ran) = 135.494924
SN(data+ran) = 6831.26701
############################
13 columns: k_central k_mean P_0(k) sigma^{lin}_{P_0(k)} P^img_1(k) sigma^{lin}_{P_1(k)} P_2(k) sigma^{lin}_{P_2(k)} P^img_3(k) sigma^{lin}_{P_3(k)} P_4(k) sigma^{lin}_{P_4(k)} N_modes
### header ###
0.00050000 0 0 0 0 0 0 0 0 0 0 0 0
0.00150000 0.00179520 23703.27963610 0 -33543.14990874 0 -28671.16243174 0 -30265.57314192 0 -105236.48931257 0 3
0.00250000 0.00253879 33110.13805759 0 -23483.25864730 0 -25164.22778942 0 6765.83763575 0 17480.84880595 0 6
0.00350000 0.00331552 50192.79610746 0 228.10343731 0 15962.67102948 0 -79578.61483135 0 15964.31871537 0 7
0.00450000 0.00420575 49327.76101668 0 8355.60187173 0 -17821.91978460 0 -17808.73829750 0 15177.49378137 0 24
0.00550000 0.00557378 54435.14788410 0 -7360.46550330 0 7486.27181307 0 -15718.04459810 0 -15225.38651782 0 45
0.00650000 0.00659388 52782.29924779 0 -10785.26849643 0 4250.01900830 0 12045.79213843 0 -1509.70867101 0 40
0.00750000 0.00754703 75547.38653972 0 -10981.98022221 0 23435.91513947 0 -17223.37042464 0 -5807.38973974 0 57
0.00850000 0.00846663 68833.61577800 0 8937.37778936 0 7020.26230588 0 -12299.20622788 0 -9883.68773267 0 75
0.00950000 0.00948925 83170.46021972 0 1519.93530808 0 32709.42084982 0 -3088.38947325 0 -4366.32366279 0 112
0.01050000 0.01054430 72966.67105746 0 9357.33996829 0 44263.98290241 0 -6748.84450197 0 -6411.74993859 0 105
0.01150000 0.01145670 70477.89644770 0 6491.28922865 0 66984.25313821 0 1604.23091807 0 31201.89810876 0 144
0.01250000 0.01249090 67505.36126147 0 -2093.34098140 0 40771.87743307 0 38622.08673318 0 7738.10412407 0 169
0.01350000 0.01339930 76722.95549738 0 -6644.88650706 0 52662.67725238 0 9683.84540370 0 24368.94473453 0 180
0.01450000 0.01448870 72902.41130786 0 5380.95764756 0 44227.29442999 0 27658.93406837 0 29661.53149568 0 267
0.01550000 0.01550050 81961.60800714 0 -2573.35581863 0 38311.77255776 0 -4752.11283642 0 48369.24721324 0 238
0.01650000 0.01653350 76197.56339081 0 -3846.28104308 0 26536.96982491 0 19738.61785432 0 26022.67213665 0 315
0.01750000 0.01747870 84546.82716416 0 -165.68140670 0 34002.41488837 0 4617.78249833 0 35915.59789486 0 297
0.01850000 0.01844180 79677.80552176 0 7020.70168878 0 32828.16407942 0 -12795.15967993 0 25688.85097591 0 388
0.01950000 0.01947590 68409.28173919 0 8990.74084296 0 40338.42619902 0 24.11893586 0 30782.72681905 0 399
0.02050000 0.02045430 65086.55837906 0 -2119.67100188 0 43072.81585169 0 17779.29964298 0 16492.56681081 0 462
0.02150000 0.02154770 70584.22711029 0 -2637.89018255 0 37698.61371627 0 6332.35344797 0 21026.99837238 0 571
0.02250000 0.02255340 66501.04179036 0 1139.34183728 0 33523.26783237 0 12915.66044114 0 22590.21289644 0 510
0.02350000 0.02348930 68047.99914699 0 2586.75699718 0 21101.14423731 0 500.18800478 0 13660.74399934 0 555
0.02450000 0.02439640 66290.57737970 0 3796.27926868 0 29626.82024632 0 7491.96182167 0 22148.85277012 0 592
0.02550000 0.02547300 64671.34153548 0 -202.40832513 0 22795.84409516 0 1717.96518258 0 15379.82960832 0 837
0.02650000 0.02652900 57000.92434765 0 4156.05697444 0 26829.04960985 0 3122.10112650 0 24875.77291344 0 723
0.02750000 0.02749970 58391.13185355 0 -863.92015666 0 16609.33281735 0 3462.45810794 0 11139.45505474 0 826
0.02850000 0.02848090 59926.00618034 0 -327.99823882 0 20941.20886052 0 7724.51620779 0 18863.91633967 0 831
0.02950000 0.02946900 58193.08000991 0 666.59549173 0 16208.61560958 0 -2655.20186893 0 10531.51388523 0 996
0.03050000 0.03053250 56082.17469695 0 2482.56832625 0 20638.80357736 0 -1004.29200968 0 10745.37252881 0 1041
0.03150000 0.03150510 59672.92162807 0 -1577.16493123 0 16860.33030083 0 -1515.87101623 0 4323.38496857 0 1036
0.03250000 0.03246190 58517.67412969 0 -2150.35091310 0 19057.68420000 0 6531.69048661 0 1075.73676821 0 1059
0.03350000 0.03345080 59417.20077837 0 1623.22324406 0 18465.61573787 0 -4491.97618855 0 -338.79497521 0 1302
0.03450000 0.03451200 57837.72908690 0 2841.70892679 0 22135.67128302 0 -4481.95825836 0 -35.28277667 0 1339
0.03550000 0.03553350 53671.82993543 0 1195.56087975 0 19901.40921997 0 1956.30843845 0 -7422.23175492 0 1365
0.03650000 0.03647120 55946.40537985 0 549.31980102 0 22672.59719080 0 1487.88232529 0 -7207.52729925 0 1308
0.03750000 0.03744890 52093.56654694 0 1348.27939235 0 20313.66022895 0 701.74282862 0 -6768.12242685 0 1579
0.03850000 0.03847530 49930.15497704 0 1582.26177291 0 17420.21396530 0 320.93735557 0 -6080.94953531 0 1662
0.03950000 0.03950240 49504.17325234 0 3457.35028169 0 21744.29096195 0 -1682.52895143 0 -11746.68222704 0 1683
0.04050000 0.04050350 46099.61482648 0 -95.79920363 0 20599.47880752 0 -764.17474534 0 -7169.07031064 0 1822
0.04150000 0.04152450 44979.40811463 0 455.42367459 0 19653.48741681 0 8831.81604685 0 -2760.26930568 0 1887
0.04250000 0.04250150 44852.20676414 0 -1445.73452029 0 20271.47947024 0 213.33248256 0 1664.14077693 0 1920
0.04350000 0.04349210 45764.25582557 0 586.48610235 0 15891.27130770 0 3074.83451069 0 -711.59818714 0 2005
0.04450000 0.04448520 45274.89311707 0 2098.63554538 0 18390.26156996 0 258.96788935 0 5774.12845396 0 2151
0.04550000 0.04548030 43264.05726033 0 -480.29494383 0 18185.83867422 0 1935.08624422 0 11864.98607374 0 2274
0.04650000 0.04648670 44311.54610169 0 217.67358564 0 19699.62262166 0 5150.08390105 0 10215.53167035 0 2311
0.04750000 0.04749250 42824.89404853 0 1214.80585092 0 17154.49715456 0 -1029.79489184 0 9484.70608737 0 2568
0.04850000 0.04851840 43233.52014855 0 1775.90880294 0 19575.71664294 0 1566.44398839 0 11236.99805926 0 2493
0.04950000 0.04949480 41779.93165886 0 -245.32395175 0 18522.51582384 0 3.77427717 0 14405.93740325 0 2644
0.05050000 0.05050630 39903.32727907 0 -174.01650038 0 16642.94560944 0 4246.81151311 0 10667.84341553 0 2829
0.05150000 0.05149060 39887.94887745 0 248.03604272 0 16409.52344209 0 727.18419717 0 10549.84713686 0 2784
0.05250000 0.05249300 38296.28431042 0 1893.28994555 0 14138.13352372 0 -238.52120595 0 9236.94905280 0 3055
0.05350000 0.05348950 37459.69926262 0 2445.82493096 0 18709.25355772 0 -527.36493580 0 9109.36324226 0 3009
0.05450000 0.05448610 36455.59948296 0 21.15079451 0 15750.55893294 0 -2085.23436683 0 1363.92142371 0 3336
0.05550000 0.05550870 35260.69767756 0 1134.77225509 0 18002.06677493 0 429.70439635 0 854.35259395 0 3349
0.05650000 0.05647670 34115.66583168 0 -128.00651966 0 16915.58270091 0 -887.91925084 0 2396.03186345 0 3324
0.05750000 0.05747970 33424.84606204 0 107.28873701 0 17705.48331524 0 -27.44495459 0 -1531.88652305 0 3639
0.05850000 0.05849280 34270.54830508 0 -445.10476711 0 14967.35890789 0 978.87700410 0 -4943.94741198 0 3846
0.05950000 0.05951020 35653.94537598 0 -205.72237068 0 13752.57502612 0 2551.07910544 0 -5403.72866652 0 3787
0.06050000 0.06049470 33899.26975183 0 -179.63071542 0 11469.76115226 0 1309.51483571 0 -1939.13955150 0 3930
0.06150000 0.06148310 34312.28968089 0 465.48554308 0 11107.59979425 0 1506.36936094 0 -3849.26884682 0 4083
0.06250000 0.06249100 33971.98762232 0 900.79097299 0 10457.09340599 0 463.01181733 0 -3118.46523298 0 4303
0.06350000 0.06350600 32106.03827793 0 628.58447677 0 11566.64508243 0 26.47084270 0 -3204.08997625 0 4470
0.06450000 0.06451750 31127.42270666 0 1012.71388148 0 11763.48862309 0 -1286.67790932 0 -482.07773996 0 4479
0.06550000 0.06550280 30748.45495260 0 134.30067975 0 10560.98549346 0 1358.13255396 0 -1459.05880683 0 4636
0.06650000 0.06648880 29687.45508697 0 -102.01361572 0 10059.64960085 0 2551.14501287 0 -1459.39932858 0 4653
0.06750000 0.06749660 31238.91611836 0 486.08271513 0 9641.54381469 0 961.68065572 0 -182.04512448 0 5220
0.06850000 0.06852730 30233.16865281 0 433.33809296 0 10509.61064750 0 -671.09806803 0 -1969.79749358 0 5029
0.06950000 0.06949320 29866.61346577 0 594.22473373 0 9833.52118969 0 -1615.08367578 0 -514.29768826 0 5040
0.07050000 0.07048030 28422.25201705 0 545.46970833 0 11723.06539599 0 -153.07880658 0 -2126.08599226 0 5475
0.07150000 0.07148790 28062.28757356 0 -15.13586225 0 9810.59638671 0 185.11091868 0 272.82382920 0 5509
0.07250000 0.07249820 28309.98968527 0 -673.65417807 0 10361.84617713 0 3080.65633416 0 211.35306258 0 5916
0.07350000 0.07351270 28936.22016813 0 26.00619528 0 8076.34108300 0 1074.19123884 0 -2166.06983646 0 5721
0.07450000 0.07449140 27867.42125596 0 1844.39761299 0 8824.40146036 0 -925.39641557 0 -1036.59104690 0 6028
0.07550000 0.07549160 26735.02166855 0 862.04509012 0 9408.00081703 0 -1620.70777694 0 1687.02164162 0 6183
0.07650000 0.07648840 26178.87275876 0 -274.09913808 0 10705.95988239 0 1501.89863990 0 -285.17268570 0 6330
0.07750000 0.07749960 24824.91434238 0 255.93395040 0 9046.01521219 0 633.65934930 0 -93.97246920 0 6583
0.07850000 0.07848650 25764.31498954 0 586.38504428 0 8997.12287963 0 1030.54953198 0 1547.86907615 0 6549
0.07950000 0.07947320 24880.82581682 0 -207.02843636 0 7260.36309336 0 836.09293894 0 470.70651043 0 6828
0.08050000 0.08048110 25151.15614805 0 0.68212548 0 7979.34730710 0 2047.22774570 0 1755.93884999 0 7147
0.08150000 0.08149960 24756.04107230 0 124.19487298 0 6767.75993595 0 -691.57550823 0 1326.91439868 0 7386
0.08250000 0.08250610 23919.89540741 0 665.28722913 0 6145.00057803 0 -234.21085966 0 604.28550376 0 7227
0.08350000 0.08350160 23535.87474996 0 586.32572759 0 7423.26430475 0 -50.72939248 0 655.97231158 0 7798
0.08450000 0.08449610 22996.64208195 0 645.78082514 0 7256.25486322 0 -389.61290334 0 -360.15227968 0 7371
0.08550000 0.08548940 21761.31704945 0 296.43406951 0 6793.34300550 0 -227.76511247 0 -121.32899799 0 8256
0.08650000 0.08650700 21686.29241872 0 617.59770727 0 7066.65015589 0 926.72115503 0 176.50889990 0 8037
0.08750000 0.08749060 21154.63910578 0 333.28071978 0 7096.04487212 0 669.28671201 0 125.71074399 0 8155
0.08850000 0.08849210 20814.33704721 0 143.01364272 0 6468.13374965 0 41.16545467 0 -1067.32807790 0 8718
0.08950000 0.08949900 19652.38895956 0 338.08647028 0 6983.29921915 0 -597.52010551 0 -260.90776487 0 8571
0.09050000 0.09049190 19779.04108142 0 640.61038683 0 7484.84381864 0 -251.16115362 0 -274.34079868 0 8932
0.09150000 0.09150830 19348.22614478 0 -148.06325074 0 6781.72132771 0 439.84974759 0 542.27649308 0 9285
0.09250000 0.09250820 19812.32433634 0 -235.98157276 0 6240.84097380 0 1664.07486949 0 -57.82553621 0 9204
0.09350000 0.09350330 19812.10464489 0 24.99923951 0 6134.56523408 0 -89.93772585 0 -592.10471122 0 9349
0.09450000 0.09448040 19467.18906583 0 609.65256592 0 5749.80861027 0 221.40724186 0 1113.25347740 0 9564
0.09550000 0.09549270 18886.43471346 0 458.68609265 0 7073.14203829 0 -286.41723777 0 740.13171287 0 10155
0.09650000 0.09649430 18101.36731107 0 240.77084641 0 6428.06202888 0 82.28114922 0 1732.81632471 0 9913
0.09750000 0.09749140 17781.71624895 0 532.54965406 0 7015.59386253 0 483.51122668 0 110.85191266 0 10476
0.09850000 0.09850240 17236.33222029 0 448.95266289 0 6416.66004254 0 -34.76397531 0 2164.10359797 0 10575
0.09950000 0.09950330 16696.55032364 0 314.44217780 0 6899.80548295 0 639.90078344 0 1633.98812519 0 10882
0.10050000 0.10051200 16434.67811330 0 -14.62518947 0 6085.21154947 0 537.26313415 0 1555.83289128 0 10875
0.10150000 0.10150300 16127.32977248 0 62.03757057 0 6031.60683527 0 169.36673080 0 1617.64308119 0 11118
0.10250000 0.10250800 16256.83788321 0 406.11722365 0 5676.22295855 0 -254.81022863 0 1320.59826945 0 11575
0.10350000 0.10349800 15837.99613068 0 -65.71026241 0 5377.20092374 0 235.91786224 0 1691.36054778 0 11364
0.10450000 0.10450100 15925.21363698 0 -252.67043389 0 5561.65386652 0 703.67611339 0 1079.74943257 0 12093
0.10550000 0.10551000 16260.46279216 0 -155.71730091 0 4834.88159082 0 98.96298022 0 -167.29504041 0 12067
0.10650000 0.10649700 16266.17476990 0 128.78093203 0 4460.05502063 0 27.01073444 0 42.65199688 0 12054
0.10750000 0.10749900 16029.23753933 0 46.34676771 0 4493.78864303 0 269.22418477 0 777.11017801 0 12807
0.10850000 0.10850100 15992.54906690 0 249.79467279 0 4334.18280342 0 -156.92560390 0 -519.98110611 0 12736
0.10950000 0.10950300 15768.90316915 0 600.56063520 0 5180.12670705 0 -355.03896115 0 -200.33553628 0 12933
0.11050000 0.11050200 15188.69804540 0 148.52570124 0 4771.23697729 0 74.16552731 0 146.03330173 0 13428
0.11150000 0.11150900 14868.71744611 0 84.30417796 0 5737.41801240 0 461.06864644 0 -149.53628192 0 13453
0.11250000 0.11250000 14860.25932522 0 193.91285669 0 5216.01330568 0 -756.51190751 0 -744.59913854 0 13668
0.11350000 0.11349100 14452.84152818 0 429.60443674 0 5727.98226455 0 -284.78602874 0 -306.08511498 0 13791
0.11450000 0.11448600 14415.82351858 0 243.91463108 0 5631.04341152 0 -247.37477145 0 -78.84748168 0 14205
0.11550000 0.11549300 14042.56774226 0 -130.61755256 0 6434.24634324 0 117.43606547 0 -154.66168349 0 14776
0.11650000 0.11649800 14452.51199100 0 -121.13127568 0 5705.26616845 0 372.59230813 0 -975.36963007 0 14553
0.11750000 0.11747300 14471.40545584 0 8.30851101 0 6061.60570299 0 295.58825742 0 -25.51046152 0 14568
0.11850000 0.11849100 14119.78928751 0 228.99867998 0 5873.16536036 0 8.56636287 0 -131.59408107 0 16015
0.11950000 0.11950300 14147.03102751 0 183.54451863 0 6168.18901075 0 -340.72606307 0 -307.67238572 0 15270
0.12050000 0.12050700 13954.25177871 0 364.18581473 0 6460.82900889 0 85.18437176 0 -255.42536469 0 15999
0.12150000 0.12150000 13819.58091886 0 47.36064376 0 5755.20203541 0 970.90549978 0 957.88328898 0 15670
0.12250000 0.12250700 13906.57873371 0 -206.12111066 0 6243.18068776 0 207.48759149 0 -11.09441831 0 16887
0.12350000 0.12352200 13477.74102013 0 438.27016605 0 5355.13291742 0 232.92676313 0 70.51777045 0 16407
0.12450000 0.12449800 13123.37870866 0 135.98791010 0 5562.35687917 0 -15.18397468 0 803.62144394 0 16306
0.12550000 0.12549900 13099.10280325 0 -231.79095833 0 5094.01864259 0 684.84306370 0 1221.28674874 0 17523
0.12650000 0.12650100 12916.31951550 0 83.64784974 0 4651.37332128 0 981.92961682 0 1210.49989846 0 17154
0.12750000 0.12750600 13073.28905769 0 173.03338113 0 4003.38240013 0 544.53821657 0 1386.37389006 0 18007
0.12850000 0.12850300 12646.64825863 0 266.80208651 0 3937.43102636 0 70.44197690 0 1865.26830089 0 17496
0.12950000 0.12949900 12829.76108356 0 173.48484706 0 3757.33895888 0 57.18502578 0 1680.70551238 0 18405
0.13050000 0.13049000 12128.72566142 0 103.00585216 0 4319.76005962 0 -129.31478226 0 2200.25382633 0 18100
0.13150000 0.13148800 12270.53649344 0 -61.99000737 0 3616.35196980 0 237.78194421 0 1501.10775068 0 19059
0.13250000 0.13249300 12381.92005942 0 -4.26662768 0 3898.57859313 0 4.46164778 0 1228.34982891 0 18957
0.13350000 0.13349100 12142.89576005 0 172.43472192 0 3750.83609192 0 -111.30996934 0 1381.47477069 0 19468
0.13450000 0.13450700 12299.97514796 0 189.89140467 0 4039.98299597 0 -282.68687692 0 1363.26234935 0 19953
0.13550000 0.13551000 12080.06400488 0 -24.18011993 0 3886.03421125 0 85.82499203 0 284.14013588 0 19956
0.13650000 0.13649900 12091.26826891 0 155.50310175 0 4518.95429881 0 -298.55519047 0 373.56114743 0 19723
0.13750000 0.13749600 11697.03195897 0 204.84030950 0 3937.16739661 0 -178.37298186 0 393.23341847 0 20946
0.13850000 0.13851100 11530.50583864 0 51.84597428 0 4123.67445447 0 860.48418236 0 1027.47934394 0 20955
0.13950000 0.13949800 11826.43022398 0 -2.71320041 0 3977.98606833 0 255.48358293 0 346.57974180 0 20506
0.14050000 0.14048300 11298.51166572 0 194.64333077 0 3970.99988016 0 -148.01491862 0 614.87792710 0 21447
0.14150000 0.14148400 11188.22655700 0 238.25098546 0 3689.95959067 0 -145.79054267 0 534.40714528 0 21771
0.14250000 0.14249400 11194.48776337 0 156.35770149 0 3829.36480130 0 -78.51168330 0 528.18658183 0 22470
0.14350000 0.14350900 10759.18013655 0 49.05160886 0 4106.00027719 0 -135.47932439 0 489.60217218 0 22519
0.14450000 0.14449900 10774.61346102 0 -26.49336107 0 3649.48144071 0 466.23359247 0 369.21894589 0 22218
0.14550000 0.14550500 10733.43229842 0 136.92379568 0 3871.75426689 0 192.36952425 0 500.46701292 0 23559
0.14650000 0.14650700 10450.26100184 0 399.35731768 0 3953.82000865 0 -310.72389998 0 558.69623218 0 23044
0.14750000 0.14750500 10534.65547298 0 27.19066174 0 3856.96903220 0 -2.37445816 0 594.27965660 0 23649
0.14850000 0.14849900 10303.59498874 0 -5.70611198 0 4087.52422611 0 306.65521430 0 575.08411601 0 23640
0.14950000 0.14949500 10161.09212864 0 60.88869412 0 4045.48626684 0 29.39350792 0 193.44711082 0 24457
0.15050000 0.15050000 10154.18283248 0 231.90190251 0 4022.30881869 0 33.97176793 0 750.22323970 0 24591
0.15150000 0.15149900 10069.88722249 0 29.01860446 0 3838.07556736 0 32.53850090 0 474.48520339 0 25020
0.15250000 0.15250500 9827.25998332 0 59.20959236 0 3885.59482834 0 290.79898377 0 574.65132385 0 25297
0.15350000 0.15350100 10041.77770126 0 123.12277869 0 3768.81783723 0 136.77770087 0 565.25731738 0 25452
0.15450000 0.15450400 9630.46038095 0 14.80632507 0 3476.37556140 0 102.70740132 0 459.53410165 0 26061
0.15550000 0.15549900 9683.16436020 0 3.52193957 0 3435.62279712 0 350.69236577 0 338.51157324 0 26128
0.15650000 0.15649500 9648.17849652 0 142.35456837 0 3241.22881615 0 -64.27172278 0 407.71657742 0 26331
0.15750000 0.15749700 9275.08748880 0 70.81061915 0 2990.03361036 0 21.35488786 0 521.96162455 0 27345
0.15850000 0.15849900 9121.66596356 0 209.83499465 0 3313.15579741 0 -192.01142718 0 88.20864428 0 26980
0.15950000 0.15949700 9055.63769777 0 323.55607767 0 3197.82876988 0 -293.28259564 0 -476.76010838 0 27777
0.16050000 0.16050000 8771.62058911 0 157.60335203 0 3440.78554623 0 286.25027227 0 133.44498155 0 28224
0.16150000 0.16150500 8698.89173404 0 -95.44198532 0 3138.78669226 0 344.21036949 0 -156.64989113 0 28075
0.16250000 0.16249700 8908.37851774 0 -49.90214432 0 3148.98037561 0 254.42247321 0 28.36897684 0 28590
0.16350000 0.16349900 8852.39015130 0 -53.68204559 0 2650.98379306 0 164.72025660 0 -148.54986730 0 29163
0.16450000 0.16449100 8728.96749377 0 14.64770785 0 2572.59788312 0 162.86606075 0 584.08926861 0 28996
0.16550000 0.16550500 8747.10302310 0 60.34484793 0 2568.00633178 0 119.29904898 0 398.95857770 0 30777
0.16650000 0.16650700 8755.08880737 0 56.52463328 0 2429.96320815 0 256.30742587 0 767.14936759 0 29211
0.16750000 0.16749900 8727.61639134 0 48.91704785 0 2470.40840440 0 107.82994690 0 467.79779561 0 30922
0.16850000 0.16850800 8455.44065192 0 168.40008842 0 2490.86167855 0 -101.51996903 0 646.21471576 0 30867
0.16950000 0.16949900 8472.75233831 0 176.77912038 0 2628.46541927 0 -315.46923534 0 688.40206522 0 30852
0.17050000 0.17049200 8172.00572561 0 23.88672200 0 2565.79843270 0 80.58150631 0 758.73188962 0 31257
0.17150000 0.17149500 8199.62094108 0 36.84752903 0 2681.87241116 0 263.73409539 0 281.31270689 0 32608
0.17250000 0.17250900 8332.25965500 0 105.64665325 0 2454.21714441 0 18.23318218 0 82.76293258 0 32361
0.17350000 0.17350400 8098.05758299 0 118.87174910 0 2429.35905666 0 -0.71437399 0 645.21292274 0 32508
0.17450000 0.17449800 7935.49689336 0 -5.42068885 0 2297.10480278 0 111.45167032 0 215.11418023 0 32791
0.17550000 0.17549800 8068.50908275 0 121.98807234 0 2509.38166792 0 -93.20278020 0 -51.18700977 0 33633
0.17650000 0.17650100 7636.80439573 0 248.38425367 0 2517.32351389 0 -294.48101250 0 95.11508444 0 33984
0.17750000 0.17750300 7497.34426223 0 113.75293828 0 2486.05043575 0 120.82370765 0 181.29817354 0 34069
0.17850000 0.17849800 7516.56726425 0 -97.99677722 0 2275.64094796 0 315.51866591 0 -44.75191762 0 34536
