### header ###
fiducial parameters:
Omega_m = 0.31
Omega_nu = 0
Omega_de = 0.69
Omega_k = 0
H_0 = 100
w_de = -1
zeff = 0
beta = 0
fgrowth = 0
b_1 = 2
gamma = 0.55
Lx = 3500 Ly = 3500 Lz = 3500
nx = 700 ny = 700 nz = 700
xoffset = -983.599254 yoffset = -42.9823471 zoffset = 800.977702
bins = 400 dk = 0.001
kx_ny = 0.628318531 ky_ny = 0.628318531 kz_ny = 0.628318531
############################
A(data) = 9.09599514 (not used)
A(ran) = 9.09268953 (used)
Ngal = 504947
weighted Ngal = 0
Nran = 25229228
weighted Nran = 0
SN(data) = 6709.47533
SN(ran) = 134.974712
SN(data+ran) = 6844.45005
############################
13 columns: k_central k_mean P_0(k) sigma^{lin}_{P_0(k)} P^img_1(k) sigma^{lin}_{P_1(k)} P_2(k) sigma^{lin}_{P_2(k)} P^img_3(k) sigma^{lin}_{P_3(k)} P_4(k) sigma^{lin}_{P_4(k)} N_modes
### header ###
0.00050000 0 0 0 0 0 0 0 0 0 0 0 0
0.00150000 0.00179520 72733.02919865 0 -62679.06960640 0 -58165.39888700 0 48322.56277976 0 -28350.52275809 0 3
0.00250000 0.00253879 114305.46228146 0 -50901.52073041 0 -19936.45000651 0 -101391.44952620 0 -14706.36546335 0 6
0.00350000 0.00331552 95934.31386779 0 18469.35049254 0 -13715.77670797 0 -99154.33147429 0 80048.20530920 0 7
0.00450000 0.00420575 84873.94773564 0 36971.98424001 0 13244.75823568 0 -44757.40990276 0 34890.73727302 0 24
0.00550000 0.00557378 58640.15211397 0 883.89450345 0 32980.08071822 0 35568.81493847 0 -26830.47760429 0 45
0.00650000 0.00659388 57929.99949658 0 -571.22853103 0 50075.04148939 0 27361.14230569 0 -6864.98438787 0 40
0.00750000 0.00754703 59968.62632196 0 5459.33257293 0 22965.44589581 0 -5292.05950166 0 -16582.09107734 0 57
0.00850000 0.00846663 59758.71113993 0 4096.70732878 0 35645.15771791 0 -15911.70261270 0 15952.34553126 0 75
0.00950000 0.00948925 61348.94771253 0 -8012.92714549 0 28727.18375191 0 -431.51465391 0 -30393.21387532 0 112
0.01050000 0.01054430 75715.56034594 0 -6848.67229759 0 25117.32366450 0 4441.27140152 0 -35615.16983476 0 105
0.01150000 0.01145670 81359.21404678 0 -7472.38731333 0 7225.36624512 0 4180.00334267 0 -39589.16850324 0 144
0.01250000 0.01249090 78634.27112653 0 575.85083918 0 22526.94175837 0 -1864.07098248 0 -11417.58443250 0 169
0.01350000 0.01339930 92677.82748033 0 4823.85307995 0 22523.64638659 0 -8249.11742513 0 -23404.05987899 0 180
0.01450000 0.01448870 83990.01918001 0 670.86739200 0 24726.71226351 0 -1753.43436744 0 -22256.50158141 0 267
0.01550000 0.01550050 76690.22147108 0 7925.44600945 0 33788.32556876 0 7612.37470631 0 -679.35187587 0 238
0.01650000 0.01653350 76356.18061888 0 436.71475057 0 25986.64273859 0 14292.90615139 0 -1816.21119974 0 315
0.01750000 0.01747870 77683.77606107 0 1174.93185245 0 28827.03351667 0 -682.48247905 0 3231.54042313 0 297
0.01850000 0.01844180 70352.56247455 0 3630.81865189 0 32439.52990150 0 -2000.25771334 0 3478.29786160 0 388
0.01950000 0.01947590 69343.29994578 0 -4536.32090806 0 24317.20739767 0 -3062.74049628 0 15099.50331604 0 399
0.02050000 0.02045430 78840.67124533 0 -2462.16997496 0 26160.96790545 0 9508.02633496 0 -14671.54436827 0 462
0.02150000 0.02154770 70433.95815738 0 5188.35415192 0 19533.97526713 0 -147.64364007 0 -4966.11427945 0 571
0.02250000 0.02255340 78271.34084844 0 2650.98379306 0 34458.49434195 0 -4974.87996837 0 800.56114201 0 510
0.02350000 0.02348930 71886.00880691 0 1030.20132103 0 33543.80898310 0 -4696.17939284 0 -4288.48698148 0 555
0.02450000 0.02439640 74982.01058896 0 -294.26791180 0 34146.97186354 0 3203.34302532 0 -8436.62407909 0 592
0.02550000 0.02547300 69100.87042891 0 248.77310754 0 26101.98075069 0 860.39960115 0 -17440.97480748 0 837
0.02650000 0.02652900 66422.17255922 0 1879.19673893 0 34317.89181291 0 -1864.14787449 0 -7009.29970245 0 723
0.02750000 0.02749970 71066.99907524 0 2988.85826109 0 28594.27042367 0 1367.86488526 0 -12129.05519859 0 826
0.02850000 0.02848090 63905.93651801 0 -1223.38480210 0 25264.07755419 0 8257.64145345 0 -4382.53689192 0 831
0.02950000 0.02946900 63093.40768417 0 3232.39721979 0 22479.92778772 0 754.43692175 0 -16999.06545253 0 996
0.03050000 0.03053250 64523.70887999 0 2085.98131777 0 25594.82303461 0 804.78031634 0 -12411.68825111 0 1041
0.03150000 0.03150510 57358.36233945 0 1048.03477461 0 22029.88984906 0 -283.08232154 0 -8492.08518606 0 1036
0.03250000 0.03246190 58645.75424598 0 735.93999998 0 20776.87965471 0 6097.65707020 0 -12103.68083593 0 1059
0.03350000 0.03345080 54870.57634123 0 2282.47335210 0 23071.66671268 0 -959.65180517 0 -3000.97424465 0 1302
0.03450000 0.03451200 52290.95931623 0 2094.37353122 0 22007.92070390 0 -499.93316269 0 -10694.40411203 0 1339
0.03550000 0.03553350 48997.45491916 0 2672.40370960 0 24116.73894806 0 -106.44413322 0 -2507.84382776 0 1365
0.03650000 0.03647120 47386.01812148 0 1660.15337708 0 24928.05947892 0 -1281.75682080 0 -9104.47510747 0 1308
0.03750000 0.03744890 44777.40182486 0 671.20351992 0 25145.66386176 0 -690.41114354 0 -6025.43350548 0 1579
0.03850000 0.03847530 45151.86590416 0 6.95636505 0 25261.22156532 0 5488.16707595 0 -2192.70742497 0 1662
0.03950000 0.03950240 47371.07910277 0 -1186.65239139 0 17321.24296634 0 5232.34736511 0 -10679.73970764 0 1683
0.04050000 0.04050350 46194.30184213 0 401.07200946 0 17600.91018426 0 2102.68885267 0 -7094.97936858 0 1822
0.04150000 0.04152450 44829.68839035 0 2061.14519916 0 16667.00182340 0 -2190.42263387 0 -4448.70795715 0 1887
0.04250000 0.04250150 43953.55888126 0 -445.34423079 0 14729.87244868 0 162.69360296 0 -4991.69734899 0 1920
0.04350000 0.04349210 43696.30019141 0 629.15787146 0 15106.53344249 0 1957.61560258 0 -11576.75088920 0 2005
0.04450000 0.04448520 41972.93059912 0 1480.79727597 0 15436.72969429 0 706.32010001 0 -6005.38666052 0 2151
0.04550000 0.04548030 40046.45625980 0 1213.05930388 0 15314.80093863 0 -1031.73916119 0 -5100.60938614 0 2274
0.04650000 0.04648670 38798.82850601 0 -9.45757419 0 15452.98686171 0 2411.48715707 0 -2683.11366786 0 2311
0.04750000 0.04749250 39488.43997267 0 259.45780129 0 12983.54509970 0 6677.11524301 0 -2249.54160351 0 2568
0.04850000 0.04851840 38768.51108569 0 62.49441894 0 9966.81897796 0 1075.53355361 0 2312.63698841 0 2493
0.04950000 0.04949480 39327.29629290 0 1464.10072565 0 11214.47968547 0 -450.07089238 0 -1691.78894612 0 2644
0.05050000 0.05050630 37181.02065623 0 1207.94049305 0 13048.90330656 0 -2370.43780934 0 2580.48480624 0 2829
0.05150000 0.05149060 34827.68582641 0 41.01189034 0 12648.73532742 0 1192.30944627 0 1757.66342789 0 2784
0.05250000 0.05249300 34472.11521195 0 1474.14062499 0 13911.63163709 0 -1791.61674173 0 2805.51476014 0 3055
0.05350000 0.05348950 33100.91101662 0 454.66683754 0 12338.75068917 0 1661.36168007 0 -513.57710030 0 3009
0.05450000 0.05448610 34045.91379579 0 -735.74557304 0 12692.01454339 0 1593.68572839 0 -1024.84304652 0 3336
0.05550000 0.05550870 33635.09078125 0 174.67996856 0 10974.52169743 0 446.84362495 0 -1570.92569400 0 3349
0.05650000 0.05647670 34504.19016389 0 739.79119112 0 11529.84676428 0 -1707.40900833 0 -1087.73192147 0 3324
0.05750000 0.05747970 32514.77422368 0 -166.30203505 0 10695.59044587 0 463.80160810 0 -3487.28324197 0 3639
0.05850000 0.05849280 33089.37721541 0 28.05745436 0 11038.17729554 0 301.34746882 0 -3873.08340017 0 3846
0.05950000 0.05951020 32664.71363941 0 1463.43066672 0 13768.94203926 0 -3429.26272960 0 -4552.75382864 0 3787
0.06050000 0.06049470 30860.05821003 0 1118.53705681 0 13879.00745653 0 1386.75835010 0 -885.09731414 0 3930
0.06150000 0.06148310 32026.61981816 0 -882.84218139 0 12936.64097477 0 3540.17395895 0 -2548.16819370 0 4083
0.06250000 0.06249100 32252.13309326 0 -177.43160399 0 12046.01182988 0 1239.03781803 0 -2562.82161353 0 4303
0.06350000 0.06350600 31246.60531916 0 691.82925186 0 11938.03348140 0 1350.36646114 0 2358.40970236 0 4470
0.06450000 0.06451750 31284.61194029 0 -351.37670465 0 11133.85292272 0 1182.61006868 0 2058.24527200 0 4479
0.06550000 0.06550280 30766.79918881 0 640.56754700 0 11250.06970063 0 -175.45108556 0 1587.74307463 0 4636
0.06650000 0.06648880 30690.23671792 0 783.91841610 0 11041.58251304 0 -272.17683788 0 2646.54602574 0 4653
0.06750000 0.06749660 30090.91843788 0 -430.58865445 0 9840.24374811 0 470.59996007 0 2225.74901929 0 5220
0.06850000 0.06852730 30015.23473279 0 24.22669452 0 9712.22953925 0 1816.54073692 0 402.79878427 0 5029
0.06950000 0.06949320 29647.69093422 0 835.77768171 0 11031.36686054 0 -857.53482462 0 985.05582618 0 5040
0.07050000 0.07048030 29108.67795766 0 672.51288098 0 9725.19133489 0 -673.40372981 0 521.77708373 0 5475
0.07150000 0.07148790 28348.10615212 0 309.37389601 0 10205.44783272 0 1137.69415139 0 510.96936277 0 5509
0.07250000 0.07249820 28467.61830181 0 532.63753064 0 10356.71638174 0 -275.17233082 0 -466.48733610 0 5916
0.07350000 0.07351270 27826.66849169 0 -222.44418552 0 8808.66056785 0 1651.79411735 0 2243.42319658 0 5721
0.07450000 0.07449140 28000.77396710 0 -635.98917714 0 9909.32572507 0 1702.23527464 0 943.37486552 0 6028
0.07550000 0.07549160 27816.23314774 0 811.46662567 0 7983.94984302 0 -602.07211238 0 -100.31210542 0 6183
0.07650000 0.07648840 26853.98458961 0 1389.69123098 0 9011.94106804 0 -1568.79468692 0 409.42248154 0 6330
0.07750000 0.07749960 25194.10582684 0 704.27916642 0 10599.85989583 0 -796.08273177 0 1028.09338155 0 6583
0.07850000 0.07848650 24886.97717747 0 541.48780077 0 10929.69365673 0 667.36551026 0 1275.78121331 0 6549
0.07950000 0.07947320 24301.60930461 0 566.72485627 0 10939.14038915 0 -54.44920814 0 -1121.04153936 0 6828
0.08050000 0.08048110 24034.13496225 0 262.21492900 0 9900.47215957 0 1573.13359309 0 274.17822700 0 7147
0.08150000 0.08149960 23292.89600446 0 -685.27256049 0 9768.87698005 0 642.90506404 0 -6.02493920 0 7386
0.08250000 0.08250610 23203.26189220 0 580.59178070 0 8478.87074524 0 1281.08676187 0 874.32364536 0 7227
0.08350000 0.08350160 22871.08841734 0 762.81265834 0 9194.77927866 0 -924.56927726 0 647.86020473 0 7798
0.08450000 0.08449610 21550.19356443 0 480.60251187 0 9011.60054629 0 -546.49896278 0 -344.84967162 0 7371
0.08550000 0.08548940 21546.01942685 0 174.93700756 0 8900.82113181 0 849.17776180 0 -361.23316162 0 8256
0.08650000 0.08650700 21738.90852138 0 -38.80366172 0 8917.59457414 0 -214.15083322 0 -1611.10726051 0 8037
0.08750000 0.08749060 20834.10927786 0 530.55485568 0 7799.20031677 0 492.48013020 0 -1283.78896673 0 8155
0.08850000 0.08849210 21036.77464198 0 60.49511689 0 8161.25182905 0 410.39241930 0 -696.78549101 0 8718
0.08950000 0.08949900 20148.78179451 0 117.48439759 0 8111.73337585 0 1007.05682660 0 -120.72814187 0 8571
0.09050000 0.09049190 20495.56475090 0 312.06621475 0 6825.62666431 0 974.50514421 0 -274.44185674 0 8932
0.09150000 0.09150830 19934.03340054 0 214.26287586 0 7528.00220431 0 4.36166620 0 676.48050859 0 9285
0.09250000 0.09250820 19857.80046683 0 -157.90982160 0 6839.43427205 0 72.90669529 0 633.90650218 0 9204
0.09350000 0.09350330 19410.83820849 0 564.27749350 0 7592.07521618 0 -759.94898027 0 -475.46722418 0 9349
0.09450000 0.09448040 18370.92872222 0 646.09937775 0 7302.99421955 0 -641.43203286 0 147.29323220 0 9564
0.09550000 0.09549270 18718.81013587 0 302.05157993 0 7929.03796468 0 701.29905188 0 -217.28583023 0 10155
0.09650000 0.09649430 18317.43385374 0 80.73386233 0 7640.52816583 0 1060.80983253 0 -57.18480609 0 9913
0.09750000 0.09749140 18110.37466059 0 -214.19806688 0 6172.90139238 0 504.08642959 0 -761.89215116 0 10476
0.09850000 0.09850240 17653.85582411 0 288.30768271 0 6713.97946860 0 659.18310215 0 299.64595853 0 10575
0.09950000 0.09950330 17212.38585206 0 696.68113757 0 5769.52591805 0 -118.66304222 0 220.11545613 0 10882
0.10050000 0.10051200 16645.47206114 0 42.47558464 0 6076.44586055 0 328.28603462 0 1486.93765205 0 10875
0.10150000 0.10150300 16596.70055888 0 103.91867014 0 6060.50724573 0 1154.78614633 0 780.67247490 0 11118
0.10250000 0.10250800 16407.87575620 0 212.29993274 0 5752.82936773 0 -519.18142923 0 320.91209105 0 11575
0.10350000 0.10349800 15905.44140633 0 560.96894024 0 6060.36444629 0 -476.71617009 0 1454.08279546 0 11364
0.10450000 0.10450100 15512.63309082 0 308.02499050 0 6235.30474922 0 -178.36858803 0 1471.74598817 0 12093
0.10550000 0.10551000 15521.31090316 0 75.18456611 0 6625.71842790 0 209.65265074 0 1239.66393867 0 12067
0.10650000 0.10649700 15386.31050614 0 195.60448087 0 6602.07962771 0 159.92878604 0 390.00285567 0 12054
0.10750000 0.10749900 15312.93356130 0 -110.92441084 0 6784.14891825 0 463.31718845 0 1784.92713703 0 12807
0.10850000 0.10850100 15083.35599435 0 -120.65234832 0 6128.10630540 0 594.76297779 0 1353.46411061 0 12736
0.10950000 0.10950300 15332.48610049 0 144.39330504 0 5734.70482297 0 351.15921011 0 946.63179129 0 12933
0.11050000 0.11050200 15344.34943888 0 234.95781060 0 6323.01656128 0 -391.62527704 0 823.30360109 0 13428
0.11150000 0.11150900 14587.18285085 0 270.78948636 0 6012.01035779 0 -125.29662561 0 647.93819520 0 13453
0.11250000 0.11250000 14616.07227674 0 70.39770907 0 6238.95162732 0 -134.26882449 0 296.78887120 0 13668
0.11350000 0.11349100 14509.96130560 0 -104.95934855 0 5816.67170357 0 386.04401571 0 65.72662942 0 13791
0.11450000 0.11448600 14550.38453270 0 240.10518131 0 5419.37069788 0 760.53445799 0 -695.15538044 0 14205
0.11550000 0.11549300 14791.05651796 0 2.19156503 0 5068.41360390 0 254.16872959 0 85.32497429 0 14776
0.11650000 0.11649800 14417.03182156 0 -234.51952615 0 4430.59439697 0 183.91909256 0 83.89730939 0 14553
0.11750000 0.11747300 14366.39294196 0 -14.65671520 0 4371.50838105 0 563.40312153 0 312.69563076 0 14568
0.11850000 0.11849100 14329.70446954 0 329.25377547 0 4523.27123584 0 170.32019170 0 228.38134700 0 16015
0.11950000 0.11950300 14289.28124244 0 388.47600008 0 4470.64414860 0 -315.04742775 0 878.80754788 0 15270
0.12050000 0.12050700 13532.55403731 0 81.36547525 0 4508.11252567 0 293.20680208 0 990.90401262 0 15999
0.12150000 0.12150000 13582.86337973 0 275.76769465 0 4478.38827227 0 395.54896637 0 1185.02667465 0 15670
0.12250000 0.12250700 13068.89522865 0 245.95336775 0 4529.96084054 0 -78.51475898 0 1480.55561538 0 16887
0.12350000 0.12352200 12999.03334704 0 181.79577468 0 4808.46369377 0 18.45144564 0 1688.81212695 0 16407
0.12450000 0.12449800 12858.32097227 0 141.89980706 0 4914.99207866 0 228.30555345 0 2313.47181593 0 16306
0.12550000 0.12549900 12673.45061572 0 -151.77274090 0 4288.41008947 0 355.49591936 0 1724.55592613 0 17523
0.12650000 0.12650100 13054.50543857 0 -330.50052446 0 4050.03387989 0 779.91234248 0 1407.49722314 0 17154
0.12750000 0.12750600 13123.15901720 0 187.69998244 0 3993.90271400 0 192.91875287 0 1234.33642097 0 18007
0.12850000 0.12850300 12964.54178913 0 340.89852086 0 3859.94585137 0 -924.51984668 0 1329.97909443 0 17496
0.12950000 0.12949900 12719.25628339 0 75.37394014 0 4163.35073064 0 -413.41427521 0 655.91299489 0 18405
0.13050000 0.13049000 12508.68202700 0 59.82736472 0 4535.62887999 0 -167.50594421 0 188.23273421 0 18100
0.13150000 0.13148800 12513.51523894 0 322.04240357 0 4288.46501234 0 50.74806625 0 -607.97412323 0 19059
0.13250000 0.13249300 12209.02288699 0 -37.31063861 0 4351.68122754 0 -116.84729238 0 81.10404243 0 18957
0.13350000 0.13349100 11935.17749253 0 48.77490748 0 4096.12514644 0 477.22475580 0 -593.65792979 0 19468
0.13450000 0.13450700 12134.32779343 0 241.17288177 0 4281.40193217 0 214.95051010 0 -426.68034352 0 19953
0.13550000 0.13551000 11578.06903791 0 265.86839784 0 3541.21749335 0 -117.04171931 0 -865.46458757 0 19956
0.13650000 0.13649900 11671.32805913 0 123.13376327 0 3830.52916599 0 352.43781436 0 -344.37184271 0 19723
0.13750000 0.13749600 11466.90516339 0 -82.61826576 0 3463.02930571 0 161.76101275 0 -29.05781939 0 20946
0.13850000 0.13851100 11120.34189845 0 43.68267932 0 3302.86325290 0 583.71359623 0 95.53052098 0 20955
0.13950000 0.13949800 11166.36725756 0 216.60258982 0 3083.45740016 0 19.99324025 0 -459.39459758 0 20506
0.14050000 0.14048300 10943.86375536 0 48.28005248 0 2939.59245307 0 55.40387734 0 -1.55664575 0 21447
0.14150000 0.14148400 10876.68210945 0 361.21558631 0 3247.80857513 0 233.85495951 0 208.25541311 0 21771
0.14250000 0.14249400 10640.37099951 0 49.11235355 0 3146.91527597 0 -297.72585524 0 640.27535736 0 22470
0.14350000 0.14350900 10613.74439557 0 -8.62382317 0 2982.16865639 0 240.86531373 0 71.63402271 0 22519
0.14450000 0.14449900 10602.50717782 0 5.21889126 0 3188.40400661 0 244.60006841 0 258.70096423 0 22218
0.14550000 0.14550500 10456.48925450 0 122.39889536 0 2675.34757505 0 -68.88293651 0 783.63281721 0 23559
0.14650000 0.14650700 10590.28134854 0 6.96593261 0 3298.16185584 0 139.01525830 0 660.24750723 0 23044
0.14750000 0.14750500 10267.74134383 0 99.68301895 0 2947.69906763 0 67.78184295 0 150.51390888 0 23649
0.14850000 0.14849900 10414.93461642 0 178.41692015 0 2935.02287087 0 -132.28720760 0 342.65824939 0 23640
0.14950000 0.14949500 10013.22879712 0 212.95131789 0 3208.02245324 0 -26.70206795 0 529.64862844 0 24457
0.15050000 0.15050000 9915.33428628 0 111.96245295 0 3037.51991763 0 200.79249450 0 292.56749996 0 24591
0.15150000 0.15149900 9796.30545778 0 115.92348982 0 3073.57128484 0 180.09975667 0 281.11937842 0 25020
0.15250000 0.15250500 9500.42501073 0 86.25624635 0 2986.79316145 0 92.33730573 0 439.09510745 0 25297
0.15350000 0.15350100 9432.69413620 0 210.30293744 0 3049.64688576 0 -88.01333858 0 606.44287381 0 25452
0.15450000 0.15450400 9305.59164686 0 -16.42742830 0 2917.91989136 0 35.60660187 0 571.52621295 0 26061
0.15550000 0.15549900 9316.15880568 0 36.53534748 0 3105.23980759 0 -23.09517370 0 222.14760206 0 26128
0.15650000 0.15649500 9149.40200932 0 191.04698171 0 2964.34069509 0 -209.18251104 0 210.39740477 0 26331
0.15750000 0.15749700 9124.33521469 0 45.60783551 0 3232.21048206 0 106.00892446 0 274.04751059 0 27345
0.15850000 0.15849900 9086.59222330 0 37.99871224 0 3084.65471858 0 200.31356714 0 28.59449012 0 26980
0.15950000 0.15949700 9145.16196431 0 -4.83103699 0 3229.28858575 0 269.68773373 0 335.48422504 0 27777
0.16050000 0.16050000 8975.37342592 0 153.24357517 0 2962.40741032 0 -232.76968374 0 303.27086748 0 28224
0.16150000 0.16150500 8847.00771073 0 160.68562309 0 3131.52588978 0 189.98806891 0 879.19859867 0 28075
0.16250000 0.16249700 8705.72413819 0 -73.75821936 0 3188.01954657 0 126.17648987 0 434.07735470 0 28590
0.16350000 0.16349900 8718.40033495 0 122.62188218 0 2947.10590071 0 196.18336785 0 738.46974704 0 29163
0.16450000 0.16449100 8679.73463946 0 -85.90254311 0 2851.44125810 0 268.44537857 0 1172.66903049 0 28996
0.16550000 0.16550500 8710.79901072 0 79.34563205 0 2800.13231957 0 148.67069760 0 1074.65039398 0 30777
0.16650000 0.16650700 8704.13137517 0 209.74821653 0 2751.84413851 0 -148.28623756 0 864.95490340 0 29211
0.16750000 0.16749900 8563.03454036 0 114.91400760 0 2831.17472169 0 -94.00685092 0 1039.99846131 0 30922
0.16850000 0.16850800 8302.03011125 0 166.30093660 0 3189.39261814 0 -321.38772304 0 637.93893878 0 30867
0.16950000 0.16949900 8101.00144844 0 104.26973708 0 3098.91269379 0 221.85541243 0 978.47936257 0 30852
0.17050000 0.17049200 8183.74823370 0 -69.53992379 0 3222.95048737 0 235.50374386 0 719.81464743 0 31257
0.17150000 0.17149500 8183.30885079 0 -88.33595548 0 2746.71434311 0 156.04024735 0 774.23881074 0 32608
0.17250000 0.17250900 8219.76664719 0 -9.86391550 0 2185.41366878 0 670.00729997 0 744.47391441 0 32361
0.17350000 0.17350400 8385.98519949 0 -88.03025482 0 1997.44566276 0 163.83490005 0 797.72822075 0 32508
0.17450000 0.17449800 8229.93836140 0 193.37241572 0 1933.10902116 0 -3.02501947 0 640.32478794 0 32791
0.17550000 0.17549800 8182.70469930 0 125.31969321 0 1893.22403811 0 -323.04529504 0 565.03872438 0 33633
0.17650000 0.17650100 7860.87869181 0 238.94191508 0 2137.78456206 0 -271.73306115 0 223.60745175 0 33984
0.17750000 0.17750300 7745.77135573 0 14.00752696 0 2297.28055594 0 50.50300044 0 271.30136744 0 34069
0.17850000 0.17849800 7732.15048573 0 71.39752486 0 2175.82413691 0 124.20695601 0 -108.57777660 0 34536
