### header ###
fiducial parameters:
Omega_m = 0.31
Omega_nu = 0
Omega_de = 0.69
Omega_k = 0
H_0 = 100
w_de = -1
zeff = 0
beta = 0
fgrowth = 0
b_1 = 2
gamma = 0.55
Lx = 3500 Ly = 3500 Lz = 3500
nx = 700 ny = 700 nz = 700
xoffset = -983.599254 yoffset = -42.9823471 zoffset = 800.977702
bins = 400 dk = 0.001
kx_ny = 0.628318531 ky_ny = 0.628318531 kz_ny = 0.628318531
############################
A(data) = 9.08043898 (not used)
A(ran) = 9.08203384 (used)
Ngal = 504200
weighted Ngal = 0
Nran = 25229228
weighted Nran = 0
SN(data) = 6732.02884
SN(ran) = 134.816535
SN(data+ran) = 6866.84538
############################
13 columns: k_central k_mean P_0(k) sigma^{lin}_{P_0(k)} P^img_1(k) sigma^{lin}_{P_1(k)} P_2(k) sigma^{lin}_{P_2(k)} P^img_3(k) sigma^{lin}_{P_3(k)} P_4(k) sigma^{lin}_{P_4(k)} N_modes
### header ###
0.00050000 0 0 0 0 0 0 0 0 0 0 0 0
0.00150000 0.00179520 32572.22353828 0 -12591.28601282 0 -57892.98148699 0 56701.59474481 0 -7786.38132057 0 3
0.00250000 0.00253879 37810.21697369 0 6921.82955098 0 4901.47006981 0 3084.76456430 0 7340.95690239 0 6
0.00350000 0.00331552 41218.40030851 0 -4647.18819913 0 1353.67281749 0 -23430.97208181 0 74115.54750374 0 7
0.00450000 0.00420575 43108.73540403 0 -12519.55675386 0 -9302.34021337 0 16675.24025283 0 -1459.77280405 0 24
0.00550000 0.00557378 54067.49423981 0 -2586.25170684 0 -17507.98070023 0 -204.17025057 0 12557.23383781 0 45
0.00650000 0.00659388 41251.02448907 0 3612.38653910 0 15895.22575383 0 -18369.17119060 0 2269.84109364 0 40
0.00750000 0.00754703 54935.38531946 0 -5094.67771694 0 -29408.99617203 0 21026.77868093 0 -634.28107611 0 57
0.00850000 0.00846663 58732.20283220 0 -6357.40925803 0 4539.82498672 0 -13966.00527137 0 -15504.17496994 0 75
0.00950000 0.00948925 66265.20301703 0 -4291.70546125 0 -13164.35116438 0 -19800.35115223 0 -26625.28578847 0 112
0.01050000 0.01054430 57336.28334856 0 7126.10964728 0 9614.22518268 0 -29017.39615951 0 -15289.86595887 0 105
0.01150000 0.01145670 53967.31493787 0 6419.55996970 0 13603.18483901 0 -9647.84895935 0 -488.13133791 0 144
0.01250000 0.01249090 66577.05503262 0 -4420.94994224 0 19428.30367890 0 2219.00449173 0 -40466.06693241 0 169
0.01350000 0.01339930 67050.70980233 0 -2748.10938383 0 24367.84627727 0 -13342.19139448 0 -50485.75465821 0 180
0.01450000 0.01448870 64353.99723361 0 2968.55877096 0 19830.33903537 0 -7861.35102844 0 -27938.05205766 0 267
0.01550000 0.01550050 65356.00994448 0 -297.84009480 0 29886.05615924 0 -4418.55530542 0 -12818.99620243 0 238
0.01650000 0.01653350 62591.85210011 0 -543.98898795 0 34257.80620089 0 5675.41010018 0 -28078.65458670 0 315
0.01750000 0.01747870 77313.37627362 0 -3883.28806810 0 18029.41836066 0 6157.35822218 0 -29434.04099752 0 297
0.01850000 0.01844180 73591.91292879 0 -2631.23353156 0 30973.85838197 0 3082.68848008 0 -31344.58770659 0 388
0.01950000 0.01947590 71655.44262842 0 4448.05986737 0 18265.03744253 0 -6211.11672039 0 -17497.76504772 0 399
0.02050000 0.02045430 82315.42108999 0 466.77073807 0 26931.97505494 0 -898.78958387 0 -26986.45853494 0 462
0.02150000 0.02154770 71188.70813944 0 -2141.04698012 0 25278.02796136 0 -4295.50612336 0 -20062.00367111 0 571
0.02250000 0.02255340 75005.95695719 0 3024.68993685 0 28073.05245469 0 -3785.67915614 0 -41145.79228374 0 510
0.02350000 0.02348930 73304.44666434 0 3353.12865704 0 27812.27870161 0 -5008.69048278 0 -27480.87414683 0 555
0.02450000 0.02439640 73656.61206129 0 3876.40074109 0 35624.28703001 0 -9852.35973167 0 -32852.98921346 0 592
0.02550000 0.02547300 67555.01152954 0 668.79240624 0 33071.47236210 0 3780.91185164 0 -26252.90877796 0 837
0.02650000 0.02652900 66307.93300438 0 -442.70463800 0 37102.48096228 0 5403.83851225 0 -25276.81965838 0 723
0.02750000 0.02749970 64670.13323250 0 2696.99816761 0 20568.94169574 0 6861.09584918 0 -24573.69716745 0 826
0.02850000 0.02848090 64153.52878400 0 2013.75775305 0 33292.70165389 0 3778.46229196 0 -9235.15856747 0 831
0.02950000 0.02946900 61628.61493045 0 3219.62216188 0 30633.44647767 0 -1525.81205441 0 -14432.95945180 0 996
0.03050000 0.03053250 60749.62943249 0 1473.99782555 0 26759.51726541 0 5195.19754064 0 -9772.73256502 0 1041
0.03150000 0.03150510 55262.94527383 0 416.86013563 0 25901.40245536 0 -8.56726360 0 -5943.25791800 0 1036
0.03250000 0.03246190 54760.73061542 0 -140.17083534 0 24410.13688171 0 3326.56796053 0 -3242.86551746 0 1059
0.03350000 0.03345080 54315.96527160 0 957.05505221 0 23936.48211201 0 1816.17824603 0 -5051.71705358 0 1302
0.03450000 0.03451200 50976.87489832 0 905.47918857 0 16901.96183091 0 4312.94962462 0 -5468.07629270 0 1339
0.03550000 0.03553350 53480.03929816 0 422.67646681 0 20063.10212837 0 6633.02316867 0 3065.60746972 0 1365
0.03650000 0.03647120 50737.63090750 0 696.41311400 0 16117.66334860 0 -2242.64329192 0 -1977.01435776 0 1308
0.03750000 0.03744890 49243.39949926 0 2330.38805770 0 17028.72379850 0 1649.42144967 0 -4116.10608396 0 1579
0.03850000 0.03847530 48337.28210702 0 1723.74306775 0 18064.45914720 0 -2128.61244396 0 -3184.91091252 0 1662
0.03950000 0.03950240 45225.68223191 0 559.15428885 0 17626.28454693 0 617.96019817 0 2161.51123884 0 1683
0.04050000 0.04050350 46388.06970246 0 -973.21775231 0 17028.39426132 0 3597.26078266 0 -596.40626985 0 1822
0.04150000 0.04152450 44392.17286443 0 -881.32191655 0 15230.00003831 0 2847.91521030 0 -4359.43633579 0 1887
0.04250000 0.04250150 45868.06003646 0 1569.50868414 0 10688.49441199 0 1355.62807141 0 -259.96528854 0 1920
0.04350000 0.04349210 44537.27906823 0 2398.07499395 0 14385.28640680 0 -278.63137273 0 2307.51817759 0 2005
0.04450000 0.04448520 44650.96939445 0 -925.23384390 0 14943.63223111 0 13.71160257 0 372.39788120 0 2151
0.04550000 0.04548030 43111.26185572 0 742.20340326 0 13296.93495544 0 -1216.26679907 0 -4127.95843778 0 2274
0.04650000 0.04648670 40892.37819429 0 1722.30408875 0 15294.69917081 0 -1186.60845310 0 374.04776400 0 2311
0.04750000 0.04749250 40041.95258504 0 615.48866934 0 17162.07650964 0 -451.70539678 0 -1825.46020986 0 2568
0.04850000 0.04851840 39213.49612096 0 1119.66846779 0 18129.48781688 0 -65.88612542 0 -4770.21541204 0 2493
0.04950000 0.04949480 37075.01953082 0 1836.65348932 0 18102.68545978 0 -2188.21473478 0 -391.39460102 0 2644
0.05050000 0.05050630 36847.19949549 0 1111.24330062 0 20778.85687777 0 1875.08850878 0 -3710.13825050 0 2829
0.05150000 0.05149060 36097.94179971 0 498.17782800 0 17466.67870732 0 1380.69486604 0 -2855.83508713 0 2784
0.05250000 0.05249300 34578.99510317 0 -778.54366473 0 16918.98791841 0 3346.06557687 0 -4197.99607256 0 3055
0.05350000 0.05348950 34764.08515116 0 997.63975253 0 15699.59051616 0 -473.40981374 0 -730.16101634 0 3009
0.05450000 0.05448610 34097.65113265 0 1027.80448729 0 15380.70837412 0 828.74316143 0 -3101.80163637 0 3336
0.05550000 0.05550870 33491.41257189 0 -1446.81100841 0 12500.77313475 0 5148.65590661 0 -83.94014922 0 3349
0.05650000 0.05647670 34155.64967588 0 -1051.99031920 0 9868.47409964 0 1752.88513881 0 -3758.55824644 0 3324
0.05750000 0.05747970 35365.05111709 0 990.51955258 0 9972.16846481 0 -880.43546154 0 -3266.07591933 0 3639
0.05850000 0.05849280 32031.12349292 0 2218.37837109 0 10889.79768911 0 -1739.20934595 0 -379.73118185 0 3846
0.05950000 0.05951020 31034.05383971 0 383.96573458 0 10973.93951508 0 -219.62115036 0 -532.21791997 0 3787
0.06050000 0.06049470 31248.47269650 0 165.39800473 0 11251.05831217 0 2528.07741045 0 -1159.95988002 0 3930
0.06150000 0.06148310 31371.82944659 0 -67.09629578 0 11104.52411393 0 -408.44265766 0 -1524.53784399 0 4083
0.06250000 0.06249100 30268.53897652 0 117.82162396 0 10623.00439026 0 2500.30841097 0 2139.21255650 0 4303
0.06350000 0.06350600 29884.62816480 0 775.83596759 0 10138.24421767 0 331.27603528 0 -361.06729458 0 4470
0.06450000 0.06451750 30470.32557484 0 247.53624466 0 9415.26161951 0 -1496.08780101 0 1683.92399215 0 4479
0.06550000 0.06550280 30299.07608830 0 -648.41163028 0 9007.95366819 0 2459.51170840 0 338.73675698 0 4636
0.06650000 0.06648880 29730.84414866 0 429.43417587 0 9887.24673418 0 -1419.49237640 0 -659.18639752 0 4653
0.06750000 0.06749660 29186.66842298 0 738.24346485 0 8834.71597401 0 -1461.14587563 0 -278.36993990 0 5220
0.06850000 0.06852730 28698.18448029 0 -103.53695624 0 9564.81657520 0 886.50883172 0 -2805.38294527 0 5029
0.06950000 0.06949320 29079.23930314 0 -801.66728847 0 8152.16758753 0 2293.93026131 0 -1981.12258791 0 5040
0.07050000 0.07048030 29654.94075213 0 109.20005264 0 7828.05678894 0 1551.48300053 0 -2461.33514745 0 5475
0.07150000 0.07148790 29659.88380979 0 117.09664217 0 5930.86732013 0 469.80248010 0 -929.78255540 0 5509
0.07250000 0.07249820 28774.19772255 0 654.39492696 0 5778.55523671 0 -1213.25702618 0 -3094.51886475 0 5916
0.07350000 0.07351270 28491.67451576 0 497.35288659 0 7744.18957728 0 -925.65894686 0 -1437.93547376 0 5721
0.07450000 0.07449140 27519.53984231 0 471.07778898 0 7095.15512174 0 340.38444286 0 -2605.07926425 0 6028
0.07550000 0.07549160 27220.21023947 0 447.64879412 0 8508.69385980 0 -726.39770177 0 -1900.79240862 0 6183
0.07650000 0.07648840 26591.67299637 0 731.37810698 0 7919.22874137 0 437.74180811 0 -1880.60276422 0 6330
0.07750000 0.07749960 26542.02272830 0 180.63250844 0 8648.43959218 0 262.34125159 0 -1671.57733257 0 6583
0.07850000 0.07848650 26149.76364142 0 -762.36448778 0 7567.35992787 0 1849.81300727 0 -194.92124046 0 6549
0.07950000 0.07947320 26537.62889927 0 182.31534496 0 7000.36924494 0 500.24292764 0 -1344.00639362 0 6828
0.08050000 0.08048110 25815.61294350 0 1031.49969751 0 7095.75927323 0 -712.18366485 0 990.27130124 0 7147
0.08150000 0.08149960 24421.56083720 0 1191.96892452 0 8094.22396716 0 -1050.16797861 0 -1376.76238906 0 7386
0.08250000 0.08250610 24019.30578927 0 748.46241272 0 9215.24353738 0 -417.45110564 0 386.97880284 0 7227
0.08350000 0.08350160 23281.69174043 0 -154.35741083 0 9564.19045457 0 1876.79111753 0 959.84073982 0 7798
0.08450000 0.08449610 23072.76516993 0 -428.19072225 0 7996.87868494 0 1682.90242690 0 179.59776170 0 7371
0.08550000 0.08548940 23081.88236518 0 717.47163809 0 8572.58013393 0 -763.72767323 0 1615.59995069 0 8256
0.08650000 0.08650700 21705.07603783 0 1215.12440352 0 8157.36329036 0 -664.16350736 0 912.49064125 0 8037
0.08750000 0.08749060 20976.13980133 0 360.82892935 0 9542.06752539 0 88.65516716 0 3051.87675399 0 8155
0.08850000 0.08849210 20298.61136452 0 157.02226814 0 9235.37825892 0 572.90477681 0 2049.92995056 0 8718
0.08950000 0.08949900 20865.30546399 0 -189.96939514 0 8017.29900537 0 1895.91525839 0 1740.75817068 0 8571
0.09050000 0.09049190 20977.12841287 0 76.32893888 0 7756.59115973 0 -210.56546873 0 466.94758969 0 8932
0.09150000 0.09150830 20084.30235345 0 683.36563869 0 7909.26573403 0 32.72106450 0 2124.21861493 0 9285
0.09250000 0.09250820 20234.02207774 0 -105.97937596 0 7604.50975234 0 243.03256990 0 1486.14676282 0 9204
0.09350000 0.09350330 19308.02260913 0 223.70521445 0 7287.38514191 0 -127.44410955 0 255.93395040 0 9349
0.09450000 0.09448040 19083.49794557 0 563.80735380 0 6568.40092818 0 1044.46698544 0 1728.06000478 0 9564
0.09550000 0.09549270 18812.72823144 0 -163.79425713 0 6780.22742583 0 696.12202283 0 1213.83920853 0 10155
0.09650000 0.09649430 18549.42802666 0 300.72793893 0 5757.30008877 0 771.97598879 0 774.71773810 0 9913
0.09750000 0.09749140 18065.11822155 0 555.72160992 0 6445.46159185 0 -748.67331651 0 578.44649368 0 10476
0.09850000 0.09850240 17034.10623907 0 385.78477980 0 6045.00801382 0 -249.68702397 0 1354.96899705 0 10575
0.09950000 0.09950330 17475.46636538 0 101.06740464 0 5901.59343420 0 645.88408012 0 -126.07872717 0 10882
0.10050000 0.10051200 17112.42624157 0 -34.94379276 0 5464.38547631 0 907.61019565 0 187.64066575 0 10875
0.10150000 0.10150300 17045.53019455 0 134.27321832 0 5219.34163117 0 -195.79121860 0 2.13077640 0 11118
0.10250000 0.10250800 16434.89780475 0 241.93740802 0 5170.94360438 0 -252.77039350 0 407.48040911 0 11575
0.10350000 0.10349800 16188.51384175 0 348.08133287 0 5277.07654466 0 -165.54409954 0 -3.48371326 0 11364
0.10450000 0.10450100 16028.68831070 0 197.35212637 0 5283.95288709 0 364.21876845 0 157.84830799 0 12093
0.10550000 0.10551000 15931.25515190 0 -32.70546640 0 5479.14874186 0 287.39047090 0 376.41384093 0 12067
0.10650000 0.10649700 16104.15232433 0 260.66171044 0 5033.10918763 0 -313.36239431 0 -854.18013616 0 12054
0.10750000 0.10749900 15657.84914035 0 -32.26454566 0 5303.19785826 0 205.88054852 0 221.49951227 0 12807
0.10850000 0.10850100 15434.42293405 0 409.01715081 0 5400.42231017 0 -143.66392942 0 -132.08618992 0 12736
0.10950000 0.10950300 15475.50523550 0 124.05536890 0 5173.88746983 0 214.76706774 0 -802.64162006 0 12933
0.11050000 0.11050200 15102.24945919 0 348.46908828 0 5736.47333915 0 -135.17944556 0 -652.05740992 0 13428
0.11150000 0.11150900 14481.95064552 0 359.66456466 0 5545.55048312 0 -485.62246153 0 -179.01777627 0 13453
0.11250000 0.11250000 14280.16404720 0 -129.22031493 0 5340.79805020 0 802.62734012 0 -17.10539612 0 13668
0.11350000 0.11349100 14298.50828341 0 50.34943611 0 5413.19736809 0 79.82994185 0 -891.66718700 0 13791
0.11450000 0.11448600 14105.39949743 0 168.52750946 0 4995.30028880 0 429.83730968 0 -12.40773380 0 14205
0.11550000 0.11549300 14242.04758034 0 -142.62039502 0 4923.73579843 0 254.41258710 0 -873.49431013 0 14776
0.11650000 0.11649800 14548.18761818 0 125.88869407 0 4662.84121505 0 -58.67738982 0 -424.22858692 0 14553
0.11750000 0.11747300 14382.21072648 0 -45.29631303 0 4399.11261195 0 109.47378819 0 -673.18513682 0 14568
0.11850000 0.11849100 14407.69493487 0 -281.04028949 0 4023.12167706 0 439.92554114 0 -468.77652102 0 16015
0.11950000 0.11950300 14503.70009923 0 189.32130535 0 4914.90420208 0 306.54866394 0 224.49390676 0 15270
0.12050000 0.12050700 14321.46604010 0 180.91261504 0 4003.01990924 0 70.83500490 0 -56.16510822 0 15999
0.12150000 0.12150000 14719.54695045 0 -13.70676936 0 4297.32956241 0 411.80173996 0 383.81634439 0 15670
0.12250000 0.12250700 14280.38373865 0 125.29992098 0 3977.57963914 0 97.60704458 0 515.11933429 0 16887
0.12350000 0.12352200 14265.22502849 0 158.68752934 0 4757.73693758 0 213.72353334 0 1868.97010185 0 16407
0.12450000 0.12449800 13871.31825572 0 -73.04037754 0 4059.43667402 0 -208.00826023 0 621.51590431 0 16306
0.12550000 0.12549900 13760.26422692 0 572.98935802 0 4904.80937988 0 -511.49991762 0 946.78447685 0 17523
0.12650000 0.12650100 13138.42757309 0 554.28043400 0 4938.79564744 0 -227.13349955 0 1029.36869043 0 17154
0.12750000 0.12750600 12921.26257316 0 19.28056118 0 5417.88778058 0 144.01323883 0 1445.31710654 0 18007
0.12850000 0.12850300 12677.84444476 0 153.52587868 0 5259.09479934 0 278.50395168 0 479.36784591 0 17496
0.12950000 0.12949900 12829.32170065 0 58.39398784 0 4812.28632502 0 470.07050367 0 918.69033401 0 18405
0.13050000 0.13049000 12485.17504168 0 -4.50776102 0 4670.66223073 0 179.77681024 0 657.16962999 0 18100
0.13150000 0.13148800 12322.16398457 0 230.38712995 0 4608.51151907 0 -63.45974318 0 823.62764598 0 19059
0.13250000 0.13249300 11943.08638479 0 112.83243110 0 4455.60626873 0 66.51136729 0 1089.96947890 0 18957
0.13350000 0.13349100 12200.01553747 0 -0.13772896 0 4361.18288283 0 384.25243193 0 252.02563948 0 19468
0.13450000 0.13450700 12026.56913641 0 72.20631894 0 3804.49572898 0 352.39936835 0 397.74588088 0 19953
0.13550000 0.13551000 12103.57099020 0 -39.82731404 0 3748.99068372 0 182.52624876 0 501.07116441 0 19956
0.13650000 0.13649900 12079.73446770 0 -32.26421612 0 3328.95161278 0 187.58903826 0 379.79269546 0 19723
0.13750000 0.13749600 11970.98719915 0 -15.37730316 0 2910.34053628 0 70.84159565 0 -31.06195465 0 20946
0.13850000 0.13851100 11872.67527454 0 305.82807598 0 3283.05806854 0 -83.48132362 0 -724.09313845 0 20955
0.13950000 0.13949800 11532.81259888 0 111.24186499 0 3201.84912345 0 -401.68385015 0 75.09042832 0 20506
0.14050000 0.14048300 11741.84901510 0 121.08733739 0 3610.50817719 0 179.66366914 0 -914.97205619 0 21447
0.14150000 0.14148400 11432.96283411 0 92.80898328 0 3408.44696456 0 -311.92890759 0 -849.90384205 0 21771
0.14250000 0.14249400 11305.10240927 0 128.36241981 0 3385.43428500 0 -169.60070220 0 -990.45694051 0 22470
0.14350000 0.14350900 11091.67216401 0 293.28039872 0 3895.10746820 0 -242.22190845 0 -713.33265115 0 22519
0.14450000 0.14449900 10945.44553381 0 29.47424453 0 3808.29639109 0 724.74891743 0 -351.49423957 0 22218
0.14550000 0.14550500 10973.89557679 0 23.10736657 0 3850.23548920 0 -135.83192917 0 -854.54152859 0 23559
0.14650000 0.14650700 10669.42519398 0 320.21017686 0 3747.10133724 0 107.64079256 0 -65.99124778 0 23044
0.14750000 0.14750500 10408.59651804 0 -9.82328357 0 3742.85030765 0 532.37939318 0 221.69943149 0 23649
0.14850000 0.14849900 10608.04340240 0 -29.48336173 0 3324.46990717 0 102.66115627 0 94.59606339 0 23640
0.14950000 0.14949500 10517.59643177 0 273.57078014 0 3421.58451336 0 116.78358186 0 -114.44716327 0 24457
0.15050000 0.15050000 10122.76695490 0 180.24255612 0 3367.15595622 0 -371.62346883 0 38.49411646 0 24591
0.15150000 0.15149900 10121.95409653 0 107.30455479 0 3244.16169703 0 1.58294282 0 -336.28280346 0 25020
0.15250000 0.15250500 9740.35004505 0 105.27054149 0 3552.57554140 0 15.45595270 0 -575.88928518 0 25297
0.15350000 0.15350100 9585.09409619 0 181.94736178 0 3051.41540194 0 237.14703592 0 -413.69767719 0 25452
0.15450000 0.15450400 9458.76052693 0 -71.22440800 0 3010.93725198 0 156.37198144 0 -458.11379642 0 26061
0.15550000 0.15549900 9697.25756682 0 131.11295679 0 2978.81836175 0 131.63582244 0 -939.86419612 0 26128
0.15650000 0.15649500 9143.72298530 0 112.93129225 0 2672.89801536 0 109.93470085 0 -526.77396580 0 26331
0.15750000 0.15749700 9264.44343797 0 -9.47679720 0 2591.96368458 0 393.28394750 0 -161.56438890 0 27345
0.15850000 0.15849900 9105.30993498 0 64.41485177 0 2393.35162774 0 -12.63808029 0 -767.65575639 0 26980
0.15950000 0.15949700 9141.35031762 0 231.56687304 0 2792.27835018 0 -154.82535362 0 -603.08049615 0 27777
0.16050000 0.16050000 9001.85723041 0 192.93413128 0 2697.04210590 0 -492.38676133 0 -1081.91009800 0 28224
0.16150000 0.16150500 8644.52908434 0 22.65128712 0 2983.76141942 0 -203.72317847 0 -531.89607199 0 28075
0.16250000 0.16249700 8566.12120525 0 84.89503811 0 2932.79300264 0 390.42686017 0 -625.52637176 0 28590
0.16350000 0.16349900 8667.81637821 0 21.15057481 0 2872.92708207 0 412.54319861 0 -572.99924413 0 29163
0.16450000 0.16449100 8736.99721633 0 125.90956476 0 2799.72589039 0 175.24347713 0 -378.91722502 0 28996
0.16550000 0.16550500 8512.76913623 0 -2.95691512 0 2520.92645370 0 315.83831697 0 5.06133954 0 30777
0.16650000 0.16650700 8519.82123182 0 -5.56817870 0 2285.49410956 0 355.19713899 0 637.11509583 0 29211
0.16750000 0.16749900 8496.94036714 0 -83.64400514 0 1935.58054999 0 389.64146323 0 436.02821479 0 30922
0.16850000 0.16850800 8390.76348857 0 73.05026365 0 1911.13987599 0 41.24113837 0 511.10776838 0 30867
0.16950000 0.16949900 8342.81582925 0 204.17134903 0 1698.66528855 0 -263.21122974 0 393.00054553 0 30852
0.17050000 0.17049200 8043.82674816 0 203.74844298 0 1899.11176902 0 -63.06056381 0 379.77841551 0 31257
0.17150000 0.17149500 7992.04547301 0 117.25811539 0 1913.79814256 0 -5.40509075 0 210.52921964 0 32608
0.17250000 0.17250900 8004.11751827 0 49.30304573 0 1871.40867697 0 -33.01676919 0 -338.97292529 0 32361
0.17350000 0.17350400 7780.30685193 0 66.75665279 0 1907.43807503 0 -17.69856303 0 -172.38968518 0 32508
0.17450000 0.17449800 7573.76393368 0 46.95882809 0 1734.54090260 0 79.50952187 0 -84.68951676 0 32791
0.17550000 0.17549800 7656.84025612 0 -38.97194537 0 1841.70639271 0 212.39220315 0 -26.12043483 0 33633
0.17650000 0.17650100 7736.97271310 0 14.34618133 0 1599.45262900 0 346.30073366 0 258.97667701 0 33984
0.17750000 0.17750300 7884.06712453 0 -49.29480730 0 1481.10484401 0 164.40499937 0 188.04270111 0 34069
0.17850000 0.17849800 7888.37307699 0 120.83139685 0 1604.71423926 0 -234.01753119 0 52.20879471 0 34536
