### header ###
fiducial parameters:
Omega_m = 0.31
Omega_nu = 0
Omega_de = 0.69
Omega_k = 0
H_0 = 100
w_de = -1
zeff = 0
beta = 0
fgrowth = 0
b_1 = 2
gamma = 0.55
Lx = 3500 Ly = 3500 Lz = 3500
nx = 700 ny = 700 nz = 700
xoffset = -983.599254 yoffset = -42.9823471 zoffset = 800.977702
bins = 400 dk = 0.001
kx_ny = 0.628318531 ky_ny = 0.628318531 kz_ny = 0.628318531
############################
A(data) = 8.98720985 (not used)
A(ran) = 8.96926431 (used)
Ngal = 498419
weighted Ngal = 0
Nran = 25229228
weighted Nran = 0
SN(data) = 6767.03247
SN(ran) = 133.142549
SN(data+ran) = 6900.17502
############################
13 columns: k_central k_mean P_0(k) sigma^{lin}_{P_0(k)} P^img_1(k) sigma^{lin}_{P_1(k)} P_2(k) sigma^{lin}_{P_2(k)} P^img_3(k) sigma^{lin}_{P_3(k)} P_4(k) sigma^{lin}_{P_4(k)} N_modes
### header ###
0.00050000 0 0 0 0 0 0 0 0 0 0 0 0
0.00150000 0.00179520 42096.72673211 0 -4553.17124240 0 -23035.85700606 0 58912.13013108 0 161555.60124011 0 3
0.00250000 0.00253879 76817.97205020 0 -34632.92935454 0 -7214.52447198 0 -53467.29719396 0 -100469.18481227 0 6
0.00350000 0.00331552 123897.19105949 0 -57105.38763290 0 -100971.94869932 0 52466.60263180 0 -54543.34592403 0 7
0.00450000 0.00420575 144810.71879711 0 -13922.83590113 0 -16276.93965103 0 -92161.33287755 0 -16876.80715970 0 24
0.00550000 0.00557378 92009.74577593 0 59816.59983743 0 40535.05004822 0 -50647.66725806 0 62574.82601261 0 45
0.00650000 0.00659388 72303.31271927 0 986.73756424 0 69828.92789960 0 31643.69761798 0 5874.83501539 0 40
0.00750000 0.00754703 68555.81593742 0 -18009.75597574 0 46203.63872882 0 61396.40106608 0 -46367.96793464 0 57
0.00850000 0.00846663 93472.78099804 0 4304.75513348 0 62593.71947745 0 27471.20772296 0 -2834.56895462 0 75
0.00950000 0.00948925 71421.25154099 0 -1803.42515726 0 36105.30146334 0 -6700.18284543 0 25229.91553346 0 112
0.01050000 0.01054430 77894.89954608 0 14488.87092624 0 43087.75487040 0 -4809.57313560 0 1438.02335034 0 105
0.01150000 0.01145670 59302.08245772 0 6167.92538100 0 51193.27097817 0 -1605.18657588 0 16482.02162113 0 144
0.01250000 0.01249090 64017.97915834 0 -1071.95917370 0 45041.36110399 0 21755.27553453 0 -6809.88577180 0 169
0.01350000 0.01339930 82133.95595095 0 -1398.68759593 0 49580.18649460 0 23971.63274427 0 25507.16614541 0 180
0.01450000 0.01448870 71586.78904979 0 -2764.91577988 0 27442.75767997 0 705.90927700 0 5782.49869827 0 267
0.01550000 0.01550050 72508.83407227 0 -47.44917941 0 27197.36232850 0 4024.56065607 0 19376.23680486 0 238
0.01650000 0.01653350 73002.92014698 0 1731.89362061 0 29065.17905023 0 6217.05937416 0 -4320.52897970 0 315
0.01750000 0.01747870 79109.24404495 0 -935.89656850 0 35066.81997150 0 6455.87496665 0 24721.98889730 0 297
0.01850000 0.01844180 73634.20353323 0 891.89237074 0 31694.44634330 0 132.72768896 0 1150.88662307 0 388
0.01950000 0.01947590 76303.56451622 0 2497.57325239 0 29429.53732276 0 -5637.79892366 0 -9032.67994107 0 399
0.02050000 0.02045430 74431.13427400 0 2186.79772492 0 33969.57101635 0 -2078.11636380 0 7795.74017641 0 462
0.02150000 0.02154770 69709.74528709 0 823.90006338 0 39622.56160389 0 1250.75835697 0 -4016.65176381 0 571
0.02250000 0.02255340 69468.96345611 0 2517.32351389 0 35115.48162804 0 14250.39585550 0 10738.85867727 0 510
0.02350000 0.02348930 73567.74686911 0 -2755.30427887 0 29663.28902729 0 13164.46101011 0 -5297.52981880 0 555
0.02450000 0.02439640 69496.31504184 0 -2902.24490629 0 23931.20951717 0 5041.77601539 0 8612.55299356 0 592
0.02550000 0.02547300 70996.69781072 0 5457.36633444 0 17568.39584942 0 -2275.09171933 0 -1494.73669858 0 837
0.02650000 0.02652900 67823.14494625 0 1209.52227150 0 21849.96255018 0 -5532.76444063 0 11461.63256855 0 723
0.02750000 0.02749970 62697.30399689 0 980.66529252 0 29869.57930037 0 1604.94491529 0 -16487.62375314 0 826
0.02850000 0.02848090 61688.37100529 0 2358.71727039 0 24347.52481800 0 -627.62003129 0 -5098.37951790 0 831
0.02950000 0.02946900 60485.01107901 0 1622.70696915 0 21839.96658913 0 -3592.76809247 0 -14652.10167480 0 996
0.03050000 0.03053250 59687.20157242 0 523.10621701 0 26696.24612734 0 -431.70029319 0 -17141.53535891 0 1041
0.03150000 0.03150510 54990.19833664 0 3089.61974538 0 21007.77537037 0 2806.84389342 0 -11486.23801113 0 1036
0.03250000 0.03246190 55065.00327592 0 274.05300287 0 26129.99141077 0 -2233.85563386 0 -19440.38670874 0 1059
0.03350000 0.03345080 54637.48371105 0 1609.11905287 0 24360.48661364 0 3712.70864049 0 -12074.46187286 0 1302
0.03450000 0.03451200 53384.69320815 0 1822.45043697 0 22203.00671294 0 2029.61947585 0 -10115.71485930 0 1339
0.03550000 0.03553350 50636.13345685 0 169.88080880 0 22984.11966920 0 1962.42684537 0 -2995.39408178 0 1365
0.03650000 0.03647120 49359.17689427 0 2586.51533658 0 26005.75589488 0 284.04237318 0 -1425.56684503 0 1308
0.03750000 0.03744890 46881.27701137 0 536.44368504 0 22416.87634110 0 3735.16110684 0 864.21454321 0 1579
0.03850000 0.03847530 48429.66236243 0 -1872.56205709 0 21764.06319259 0 5327.36391794 0 2841.47825077 0 1662
0.03950000 0.03950240 47832.54099691 0 822.19415926 0 21025.89991513 0 1122.19491948 0 485.82787304 0 1683
0.04050000 0.04050350 45863.44651598 0 2667.79018911 0 19018.79881306 0 2197.82623579 0 8682.51373633 0 1822
0.04150000 0.04152450 45929.24410574 0 -210.06127684 0 21971.56176865 0 466.70483064 0 2623.84091422 0 1887
0.04250000 0.04250150 45925.06996816 0 1882.37128040 0 18924.66102604 0 -711.48504604 0 -2928.11357472 0 1920
0.04350000 0.04349210 41025.51121398 0 2189.32417661 0 17920.12186348 0 -1627.43033536 0 3275.65446662 0 2005
0.04450000 0.04448520 39689.01826801 0 28.72355884 0 21726.71564582 0 3370.13277539 0 9347.68452899 0 2151
0.04550000 0.04548030 41358.67330037 0 -950.48408089 0 17091.33586222 0 5899.60522656 0 833.71148361 0 2274
0.04650000 0.04648670 41631.63992902 0 -142.64126571 0 16261.89078660 0 2018.65687242 0 4135.90028375 0 2311
0.04750000 0.04749250 41214.66555383 0 689.38957829 0 11918.15140503 0 -113.12901456 0 2110.07048544 0 2568
0.04850000 0.04851840 41545.96026288 0 -285.31768206 0 13049.12299801 0 1548.74784196 0 5943.96093064 0 2493
0.04950000 0.04949480 41477.63622143 0 -162.24653086 0 14334.53768148 0 -340.39982127 0 2019.60154566 0 2644
0.05050000 0.05050630 39915.30046318 0 1780.76398402 0 14285.43664204 0 -805.53935031 0 520.95214233 0 2829
0.05150000 0.05149060 38463.68919656 0 2226.97929142 0 15764.61918584 0 -3092.26702737 0 2420.35170715 0 2784
0.05250000 0.05249300 37181.24034769 0 -57.34298394 0 16675.35009856 0 1205.12844247 0 3493.46755633 0 3055
0.05350000 0.05348950 36469.22035296 0 58.08861672 0 17524.56740482 0 2963.11042296 0 955.33926197 0 3009
0.05450000 0.05448610 36268.09282900 0 833.87405528 0 13670.19073176 0 1719.94240564 0 1855.08560211 0 3336
0.05550000 0.05550870 36267.87313755 0 1187.71789493 0 16197.41134555 0 -163.57127031 0 4062.13887887 0 3349
0.05650000 0.05647670 33405.40336857 0 426.52546105 0 13919.32083790 0 658.61190437 0 2718.56088358 0 3324
0.05750000 0.05747970 33118.15679557 0 532.60018309 0 15685.31057180 0 1575.48429162 0 4149.48820004 0 3639
0.05850000 0.05849280 31681.70423911 0 1099.81934513 0 14775.78796207 0 -914.25256669 0 2839.28133625 0 3846
0.05950000 0.05951020 30264.25499321 0 936.16678899 0 14840.81663175 0 775.87551205 0 1918.06015672 0 3787
0.06050000 0.06049470 31449.60022047 0 345.53510895 0 15420.36268114 0 1731.37734570 0 3188.08545400 0 3930
0.06150000 0.06148310 29658.45581535 0 -815.33429368 0 11618.93164792 0 1129.62049055 0 216.07972416 0 4083
0.06250000 0.06249100 30406.94459105 0 -303.91895727 0 10494.71556708 0 2694.18611703 0 3464.14973212 0 4303
0.06350000 0.06350600 30763.61366276 0 18.37345517 0 10184.70895969 0 414.15353695 0 1608.61376253 0 4470
0.06450000 0.06451750 30062.02901199 0 520.68302030 0 7926.78612730 0 1290.79712403 0 2262.63521402 0 4479
0.06550000 0.06550280 30614.11362993 0 441.54466714 0 9732.89152027 0 -396.69575575 0 92.32082887 0 4636
0.06650000 0.06648880 30277.76601749 0 57.05727520 0 9549.67983419 0 -256.32170581 0 449.21848954 0 4653
0.06750000 0.06749660 29783.24055988 0 -267.82365176 0 9286.14895339 0 116.15636276 0 990.26800587 0 5220
0.06850000 0.06852730 28863.06291474 0 547.08993279 0 9190.33052676 0 66.17787567 0 689.59608826 0 5029
0.06950000 0.06949320 29866.72331149 0 217.67797947 0 8069.57458629 0 1132.90487775 0 1451.65520491 0 5040
0.07050000 0.07048030 29211.60340274 0 -81.57407229 0 9025.08960142 0 845.68247081 0 1270.61846420 0 5475
0.07150000 0.07148790 29411.85216090 0 404.73316750 0 8037.66440294 0 -146.36064199 0 1143.71369717 0 5509
0.07250000 0.07249820 27885.87533790 0 25.04625348 0 7880.35433900 0 2229.51672769 0 4105.40711027 0 5916
0.07350000 0.07351270 28333.27697914 0 249.06749408 0 8030.84298337 0 258.17040938 0 4742.66610400 0 5721
0.07450000 0.07449140 27277.65955407 0 1455.78540421 0 9279.95365445 0 -1576.98917807 0 2672.10712614 0 6028
0.07550000 0.07549160 26018.93738198 0 1006.55922546 0 9741.44850231 0 480.05877552 0 5070.85217902 0 6183
0.07650000 0.07648840 24773.06715980 0 681.89150905 0 10647.32423395 0 -1215.62969386 0 3780.38459216 0 6330
0.07750000 0.07749960 24368.17581445 0 375.43621397 0 10570.14662699 0 329.82057941 0 3285.67239681 0 6583
0.07850000 0.07848650 24280.07954235 0 -166.48328050 0 9994.25844027 0 928.86204822 0 3216.24989810 0 6549
0.07950000 0.07947320 23792.25467401 0 191.46439546 0 10282.69134711 0 786.47232922 0 3175.47516468 0 6828
0.08050000 0.08048110 23523.13264577 0 846.71611909 0 9644.53161843 0 537.92660234 0 3066.62903497 0 7147
0.08150000 0.08149960 23389.67008891 0 50.19982623 0 9380.42953985 0 -463.03598339 0 1444.28455671 0 7386
0.08250000 0.08250610 22843.95652306 0 343.64686092 0 9179.54367649 0 819.19207557 0 1075.11723831 0 7227
0.08350000 0.08350160 22005.61394366 0 47.45379293 0 8656.27159243 0 11.55027807 0 2268.21537689 0 7798
0.08450000 0.08449610 21896.53713792 0 160.05730554 0 8061.40206429 0 412.38282385 0 818.90757514 0 7371
0.08550000 0.08548940 20954.61003907 0 1089.75418128 0 8035.82997932 0 -451.16934963 0 22.44950052 0 8256
0.08650000 0.08650700 20778.08795769 0 734.41753822 0 8271.84450580 0 720.33751308 0 992.62968897 0 8037
0.08750000 0.08749060 20022.56905555 0 -10.21804714 0 9047.21253060 0 395.06784209 0 1631.30788948 0 8155
0.08850000 0.08849210 19296.15927074 0 353.00901213 0 8855.49878534 0 -61.45077470 0 441.44141216 0 8718
0.08950000 0.08949900 18896.32082878 0 235.89589310 0 7500.29911226 0 409.52463806 0 1051.24336827 0 8571
0.09050000 0.09049190 18265.36697971 0 474.35009315 0 8765.77679649 0 -187.15844301 0 1136.56274042 0 8932
0.09150000 0.09150830 18817.67128910 0 -175.86410548 0 8047.86907087 0 1281.05380815 0 2372.09647980 0 9285
0.09250000 0.09250820 18872.81384346 0 -332.42062774 0 7982.30215713 0 1334.74639893 0 1707.04651743 0 9204
0.09350000 0.09350330 18829.42478176 0 212.52291956 0 7280.21221602 0 83.88423775 0 1993.04084916 0 9349
0.09450000 0.09448040 17989.54436219 0 454.67562520 0 7175.06788727 0 -420.53777053 0 1873.00143999 0 9564
0.09550000 0.09549270 17483.37525764 0 578.60247461 0 7236.90004633 0 -156.57409757 0 3151.01252154 0 10155
0.09650000 0.09649430 17755.57296621 0 68.18288970 0 7213.52487588 0 1602.50634017 0 2094.52731524 0 9913
0.09750000 0.09749140 17539.61626926 0 -386.20878430 0 6184.51208560 0 428.70370179 0 2457.85303794 0 10476
0.09850000 0.09850240 17439.21727587 0 85.42768004 0 5597.56243429 0 873.30208011 0 1643.53371877 0 10575
0.09950000 0.09950330 17195.46961029 0 6.65788126 0 5103.26765270 0 -269.05612081 0 2848.57428466 0 10882
0.10050000 0.10051200 17369.46523997 0 166.92925415 0 5195.18655606 0 -87.59405744 0 1530.77708122 0 10875
0.10150000 0.10150300 16313.51827773 0 594.32469334 0 5446.27191613 0 -1081.87604582 0 1084.18280606 0 11118
0.10250000 0.10250800 16183.90032127 0 692.14231218 0 6049.48971943 0 -451.83391627 0 539.85659174 0 11575
0.10350000 0.10349800 16006.27978263 0 -300.34787272 0 6303.71666726 0 474.88284492 0 424.87997207 0 11364
0.10450000 0.10450100 16403.26223572 0 67.42407542 0 5520.20907417 0 1207.17157297 0 198.33524561 0 12093
0.10550000 0.10551000 16384.91799951 0 -161.65446239 0 5919.58616409 0 -175.81577337 0 812.43876035 0 12067
0.10650000 0.10649700 15921.36903658 0 245.77431922 0 5937.43609453 0 -174.95677979 0 377.53426733 0 12054
0.10750000 0.10749900 16038.90396320 0 -12.33479624 0 5410.35236379 0 148.96288723 0 816.99076722 0 12807
0.10850000 0.10850100 15571.62024559 0 105.25659108 0 5606.43796894 0 422.78741100 0 262.05784962 0 12736
0.10950000 0.10950300 15631.70585761 0 557.76144505 0 5796.80061177 0 227.60913154 0 1674.80679690 0 12933
0.11050000 0.11050200 15573.70731438 0 -202.23916271 0 4828.55447702 0 919.60205354 0 1834.54445138 0 13428
0.11150000 0.11150900 15563.82119905 0 -272.85568446 0 5121.55696605 0 559.56181649 0 904.14236608 0 13453
0.11250000 0.11250000 15352.36817686 0 445.53096853 0 3973.29565583 0 -353.01999670 0 1717.00952476 0 13668
0.11350000 0.11349100 14998.55509402 0 367.90409255 0 4642.98110783 0 -464.69355540 0 1634.48243096 0 13791
0.11450000 0.11448600 14502.82133342 0 327.90486995 0 5175.72189345 0 18.97046669 0 1223.50563240 0 14205
0.11550000 0.11549300 14561.14941383 0 83.84326529 0 5417.28362909 0 -139.84129816 0 460.72263241 0 14776
0.11650000 0.11649800 14247.86940381 0 242.86340749 0 5487.26634100 0 41.79465099 0 590.32521047 0 14553
0.11750000 0.11747300 14104.96011453 0 -74.77835661 0 4819.39334348 0 576.96028101 0 1090.01012182 0 14568
0.11850000 0.11849100 14221.39658389 0 -69.21335245 0 4735.00985691 0 612.20098676 0 578.43880448 0 16015
0.11950000 0.11950300 14019.28044839 0 243.23248913 0 4645.28786807 0 -291.39434761 0 1315.07302944 0 15270
0.12050000 0.12050700 13544.85675860 0 453.28717523 0 5056.53928094 0 -279.82978960 0 951.78465428 0 15999
0.12150000 0.12150000 13118.32580527 0 240.19635326 0 4875.49155566 0 353.44729658 0 1554.20717453 0 15670
0.12250000 0.12250700 13242.34162971 0 121.46300978 0 5200.92050295 0 531.60168545 0 1503.34860348 0 16887
0.12350000 0.12352200 12918.62627574 0 -0.01952848 0 4757.44035412 0 136.87546356 0 1419.95372845 0 16407
0.12450000 0.12449800 12952.78829647 0 -156.01388437 0 4290.70586514 0 160.47032547 0 1590.56610978 0 16306
0.12550000 0.12549900 13001.44995300 0 213.54778018 0 4627.44892220 0 282.98126347 0 1411.48462298 0 17523
0.12650000 0.12650100 12757.04321307 0 44.31319379 0 4396.99258944 0 -307.39996832 0 1595.03683082 0 17154
0.12750000 0.12750600 13107.67076987 0 -5.64040227 0 3956.06086145 0 479.02402879 0 912.90805500 0 18007
0.12850000 0.12850300 12886.66116953 0 -113.82763337 0 3831.27611693 0 121.81561456 0 963.66446953 0 17496
0.12950000 0.12949900 12978.71188776 0 40.23780751 0 3559.63862156 0 410.14636487 0 1360.20863818 0 18405
0.13050000 0.13049000 12626.65633653 0 157.49350630 0 3456.29576272 0 -211.81661154 0 401.17746136 0 18100
0.13150000 0.13148800 12435.19523644 0 395.18867239 0 3571.44703709 0 -97.91834737 0 709.17718734 0 19059
0.13250000 0.13249300 12300.08499368 0 53.35569394 0 3496.32354521 0 -110.44548348 0 775.93812412 0 18957
0.13350000 0.13349100 12202.65183489 0 -88.37253410 0 3404.05313552 0 654.42897914 0 808.35799163 0 19468
0.13450000 0.13450700 12310.41049191 0 -104.29917573 0 3455.95524097 0 459.35615158 0 421.22540478 0 19953
0.13550000 0.13551000 12287.23304376 0 60.51785495 0 2617.94219874 0 -50.47586854 0 492.33842921 0 19956
0.13650000 0.13649900 12230.55264924 0 342.75711054 0 2998.09628663 0 -229.46003202 0 339.22337354 0 19723
0.13750000 0.13749600 11822.14624067 0 322.73992393 0 3523.91679153 0 -853.32114258 0 469.40813395 0 20946
0.13850000 0.13851100 11464.70824887 0 356.67236709 0 3840.23952816 0 -181.67164901 0 9.67261917 0 20955
0.13950000 0.13949800 11006.87126368 0 85.29784239 0 3879.35559112 0 112.57649056 0 394.17919017 0 20506
0.14050000 0.14048300 11112.87238909 0 81.76157894 0 4080.19751619 0 462.05506106 0 141.09353944 0 21447
0.14150000 0.14148400 10943.19369643 0 -12.93850835 0 3171.53170312 0 900.04951434 0 1230.82135774 0 21771
0.14250000 0.14249400 11202.83603853 0 -182.49549195 0 3349.55867095 0 448.28919470 0 790.41359386 0 22470
0.14350000 0.14350900 11071.35070474 0 164.23034466 0 3000.08449427 0 -270.91141512 0 1094.40834468 0 22519
0.14450000 0.14449900 11137.25814022 0 227.01706308 0 2801.00010081 0 190.55487285 0 1309.24022140 0 22218
0.14550000 0.14550500 10710.95786291 0 -44.43512254 0 2930.45328868 0 -122.72294025 0 1271.27753856 0 23559
0.14650000 0.14650700 10730.34563352 0 183.90041879 0 3336.77262846 0 -113.37946281 0 970.73853427 0 23044
0.14750000 0.14750500 10293.90659572 0 341.53562607 0 3570.50236385 0 -199.61384986 0 1003.06722984 0 23649
0.14850000 0.14849900 10184.73092883 0 139.20419295 0 3601.94021058 0 -71.40543376 0 1175.15154390 0 23640
0.14950000 0.14949500 10141.39679000 0 9.53730022 0 3573.79773562 0 352.12365558 0 357.23367875 0 24457
0.15050000 0.15050000 10186.66421361 0 69.55870741 0 3518.07299892 0 3.08904855 0 545.48069290 0 24591
0.15150000 0.15149900 9654.76924007 0 373.42603719 0 3494.24746099 0 -474.85208812 0 820.95509947 0 25020
0.15250000 0.15250500 9535.23512124 0 211.64854758 0 3555.87091317 0 58.95002691 0 941.43718691 0 25297
0.15350000 0.15350100 9357.10929226 0 -89.35027091 0 3598.29333248 0 546.20677315 0 717.72208635 0 25452
0.15450000 0.15450400 9530.02843384 0 -45.43219220 0 3109.06243885 0 431.86835715 0 455.22705075 0 26061
0.15550000 0.15549900 9495.82247482 0 98.02544695 0 3161.75543352 0 -79.64693887 0 327.49404694 0 26128
0.15650000 0.15649500 9304.36137473 0 56.52133791 0 2848.35459321 0 92.13409114 0 843.41635348 0 26331
0.15750000 0.15749700 9229.06212968 0 -86.24647008 0 2818.67427809 0 52.66729077 0 767.59534124 0 27345
0.15850000 0.15849900 9423.32429578 0 174.49432928 0 2967.24062225 0 12.90105096 0 169.01961831 0 26980
0.15950000 0.15949700 9065.34805993 0 180.70500662 0 2529.62623518 0 -37.60634331 0 443.95248545 0 27777
0.16050000 0.16050000 9027.72589884 0 -60.31310252 0 2639.29620784 0 211.27726903 0 258.42415301 0 28224
0.16150000 0.16150500 9075.95915704 0 50.30802427 0 2494.34378805 0 -41.95118115 0 -25.50332155 0 28075
0.16250000 0.16249700 8986.52276709 0 158.05591642 0 2584.05479233 0 169.01522448 0 144.37463127 0 28590
0.16350000 0.16349900 8936.11456351 0 145.37422737 0 2335.23225421 0 -161.51276141 0 -226.03504229 0 29163
0.16450000 0.16449100 8694.10246040 0 76.16296199 0 2309.38555493 0 85.73656622 0 -5.36362399 0 28996
0.16550000 0.16550500 8597.59200570 0 -49.09038440 0 2261.71250993 0 195.41115239 0 -29.47951713 0 30777
0.16650000 0.16650700 8510.52828342 0 88.52489012 0 2367.77954277 0 187.39900515 0 339.97361985 0 29211
0.16750000 0.16749900 8394.78384213 0 240.89167671 0 2166.92663312 0 60.22247979 0 -249.65736563 0 30922
0.16850000 0.16850800 8210.85815883 0 135.12012887 0 2204.35107191 0 90.96225693 0 364.31323578 0 30867
0.16950000 0.16949900 8024.26322439 0 61.87005584 0 2186.07274313 0 107.37353791 0 390.19947952 0 30852
0.17050000 0.17049200 7801.61692274 0 113.30916155 0 2234.56963108 0 -157.09916014 0 617.96239508 0 31257
0.17150000 0.17149500 7675.44812207 0 249.90342005 0 2254.02330912 0 74.28503946 0 581.07839727 0 32608
0.17250000 0.17250900 7814.66659496 0 1.82136296 0 2261.17426587 0 109.21861656 0 475.82532125 0 32361
0.17350000 0.17350400 7710.69761548 0 -57.31222713 0 2242.96184453 0 311.22479649 0 480.13786445 0 32508
0.17450000 0.17449800 7842.17196471 0 -188.98957126 0 1799.64646429 0 252.62210177 0 660.41557119 0 32791
0.17550000 0.17549800 7873.99427148 0 94.17645272 0 1942.19326268 0 -297.41279493 0 123.27216888 0 33633
0.17650000 0.17650100 7705.56782009 0 134.56650641 0 1820.56109049 0 -285.56593340 0 346.66322455 0 33984
0.17750000 0.17750300 7661.46476117 0 45.24347724 0 2169.62883798 0 -98.00743225 0 288.24507065 0 34069
0.17850000 0.17849800 7797.75035319 0 -4.82884008 0 2073.82139592 0 74.39126028 0 -61.84336332 0 34536
