### header ###
fiducial parameters:
Omega_m = 0.31
Omega_nu = 0
Omega_de = 0.69
Omega_k = 0
H_0 = 100
w_de = -1
zeff = 0
beta = 0
fgrowth = 0
b_1 = 2
gamma = 0.55
Lx = 3500 Ly = 3500 Lz = 3500
nx = 700 ny = 700 nz = 700
xoffset = -983.599254 yoffset = -42.9823471 zoffset = 800.977702
bins = 400 dk = 0.001
kx_ny = 0.628318531 ky_ny = 0.628318531 kz_ny = 0.628318531
############################
A(data) = 8.97406682 (not used)
A(ran) = 8.96566754 (used)
Ngal = 498124
weighted Ngal = 0
Nran = 25229228
weighted Nran = 0
SN(data) = 6772.64896
SN(ran) = 133.089158
SN(data+ran) = 6905.73811
############################
13 columns: k_central k_mean P_0(k) sigma^{lin}_{P_0(k)} P^img_1(k) sigma^{lin}_{P_1(k)} P_2(k) sigma^{lin}_{P_2(k)} P^img_3(k) sigma^{lin}_{P_3(k)} P_4(k) sigma^{lin}_{P_4(k)} N_modes
### header ###
0.00050000 0 0 0 0 0 0 0 0 0 0 0 0
0.00150000 0.00179520 53848.57170826 0 -19815.61970811 0 -17639.57587975 0 34200.24704056 0 -6600.81640186 0 3
0.00250000 0.00253879 58207.03041709 0 -7421.75941830 0 27686.50534555 0 -73609.04886202 0 14471.07591866 0 6
0.00350000 0.00331552 49498.90065750 0 7166.11546062 0 -34544.83308244 0 58784.15986051 0 39113.42666474 0 7
0.00450000 0.00420575 61518.11013028 0 -3879.37756026 0 10062.89004976 0 -16495.31295395 0 -9468.82239542 0 24
0.00550000 0.00557378 63295.85335684 0 150.51610580 0 4789.16379974 0 -19076.90720202 0 -11051.68831982 0 45
0.00650000 0.00659388 61283.25996849 0 6668.14084721 0 39419.12731968 0 -1781.18139778 0 2087.95854083 0 40
0.00750000 0.00754703 67845.33378286 0 788.33091890 0 13351.08889827 0 -8651.00998216 0 8329.86501817 0 57
0.00850000 0.00846663 69858.91578275 0 -4169.66685987 0 41279.91391496 0 -4571.64729348 0 -24003.48800475 0 75
0.00950000 0.00948925 68395.11164056 0 -2113.61850238 0 11410.88384323 0 11030.81763191 0 897.52965339 0 112
0.01050000 0.01054430 72636.36495994 0 -422.11625361 0 36116.72541883 0 7103.69013464 0 -18706.83695175 0 105
0.01150000 0.01145670 70792.60445216 0 12387.30249998 0 39701.32098930 0 -12219.12869376 0 -2911.57080841 0 144
0.01250000 0.01249090 62673.57732011 0 9252.20662411 0 40554.49274169 0 11988.89205246 0 -3473.71729483 0 169
0.01350000 0.01339930 61492.95545907 0 -9301.27470983 0 41686.45294620 0 5612.23782326 0 1331.93434835 0 180
0.01450000 0.01448870 71921.48897634 0 233.41997044 0 44577.48260388 0 13455.55218352 0 -6853.46157123 0 267
0.01550000 0.01550050 64305.22573134 0 -1238.99387974 0 22467.18568352 0 -1143.40612914 0 11533.91105614 0 238
0.01650000 0.01653350 71006.36423459 0 -5604.85619049 0 24475.38524285 0 15520.87152026 0 2868.09387013 0 315
0.01750000 0.01747870 74750.78533612 0 3056.99556482 0 22557.36902442 0 2491.76241350 0 7269.08484399 0 297
0.01850000 0.01844180 76496.01422785 0 3403.42701489 0 27017.32518389 0 -6474.94418465 0 -5157.31174980 0 388
0.01950000 0.01947590 72334.83844258 0 2230.73601525 0 33211.96504542 0 5294.71776822 0 8058.00783136 0 399
0.02050000 0.02045430 74678.17731136 0 774.67050444 0 17113.85423601 0 1730.02624327 0 -5530.84214043 0 462
0.02150000 0.02154770 67824.57294068 0 -14.43328899 0 34266.48401323 0 -2971.11817637 0 2830.41678618 0 571
0.02250000 0.02255340 67191.31233137 0 2708.14750878 0 23626.27778231 0 2315.30623955 0 -3798.11369231 0 510
0.02350000 0.02348930 70349.15725705 0 2371.42642087 0 33393.75972164 0 10802.08587705 0 9043.41186849 0 555
0.02450000 0.02439640 65933.35907935 0 -1280.73525555 0 26132.29817102 0 1148.04161877 0 1273.91383598 0 592
0.02550000 0.02547300 65407.30789843 0 3593.54799712 0 28572.52096996 0 386.44714953 0 11170.43154942 0 837
0.02650000 0.02652900 63795.65140930 0 -444.34902852 0 25562.30869977 0 2517.70797393 0 4368.77322248 0 723
0.02750000 0.02749970 66346.04947123 0 -250.88653930 0 30621.58313928 0 3694.37538885 0 -3429.35060618 0 826
0.02850000 0.02848090 58392.77953944 0 2346.95279316 0 33755.15215956 0 -6079.01625053 0 9905.74475441 0 831
0.02950000 0.02946900 57202.49125452 0 2902.50853603 0 26391.53408394 0 4740.01882201 0 7173.98041458 0 996
0.03050000 0.03053250 57884.30367465 0 1477.49091963 0 31922.26637864 0 1115.07691645 0 -371.98156589 0 1041
0.03150000 0.03150510 56668.64102707 0 1963.02001229 0 30425.17898153 0 6127.41427732 0 1824.54849033 0 1036
0.03250000 0.03246190 53431.26779590 0 -524.74072141 0 29874.74204948 0 2187.69845987 0 3829.60646190 0 1059
0.03350000 0.03345080 53710.82516809 0 -1262.47889592 0 17177.34506553 0 7758.22786104 0 8431.64806771 0 1302
0.03450000 0.03451200 51884.31043926 0 2400.01926330 0 20934.50827125 0 4093.23620385 0 -1596.49777897 0 1339
0.03550000 0.03553350 51350.57005754 0 2311.86806833 0 19450.05313261 0 -5826.16237428 0 7496.16891297 0 1365
0.03650000 0.03647120 48075.19020523 0 3018.37380762 0 20376.05260121 0 -131.57211192 0 -1429.89476663 0 1308
0.03750000 0.03744890 47792.11776981 0 -389.58214654 0 22423.79662183 0 3531.19956315 0 4708.36128383 0 1579
0.03850000 0.03847530 45946.48988469 0 -2103.95207851 0 15187.48974242 0 5657.76887661 0 2513.18233003 0 1662
0.03950000 0.03950240 49549.10015420 0 -937.61455565 0 16746.53012889 0 5553.98663486 0 1324.69551502 0 1683
0.04050000 0.04050350 47046.70467444 0 3637.26659600 0 11840.92985978 0 -3343.70389376 0 6031.23335980 0 1822
0.04150000 0.04152450 45247.10214844 0 1206.89695866 0 16528.15682597 0 -1655.07850455 0 5071.67602196 0 1887
0.04250000 0.04250150 42975.27284717 0 981.57481513 0 19353.05935671 0 1033.07158984 0 10962.82312763 0 1920
0.04350000 0.04349210 42388.36713415 0 1541.30030175 0 18140.69208091 0 300.71475744 0 4082.73495246 0 2005
0.04450000 0.04448520 41202.58252399 0 209.90859129 0 19480.37055293 0 1916.22573310 0 5129.03745998 0 2151
0.04550000 0.04548030 39850.82102213 0 346.53140968 0 17538.29812055 0 896.18184634 0 4006.39217302 0 2274
0.04650000 0.04648670 41438.75083449 0 594.84426363 0 17329.81093296 0 -569.28536014 0 4020.69408652 0 2311
0.04750000 0.04749250 39750.64172019 0 360.83332318 0 18865.89356273 0 84.59186391 0 5440.58190753 0 2568
0.04850000 0.04851840 37573.06005166 0 947.51934475 0 16251.12590547 0 2557.09865121 0 4689.21517382 0 2493
0.04950000 0.04949480 38080.65715065 0 155.91722013 0 18359.61461246 0 1913.62238940 0 6017.50264408 0 2644
0.05050000 0.05050630 37073.37184494 0 1461.15686020 0 17109.24071552 0 1631.16509004 0 4425.38770956 0 2829
0.05150000 0.05149060 36750.09587387 0 423.98363095 0 15496.81530631 0 -398.52908091 0 4601.32760860 0 2784
0.05250000 0.05249300 35078.90300134 0 511.16049433 0 15727.38148479 0 1979.10142655 0 4737.81092292 0 3055
0.05350000 0.05348950 35686.78924799 0 586.14118677 0 17245.77895271 0 2650.87394734 0 7107.58965790 0 3009
0.05450000 0.05448610 33991.97954442 0 -46.26240619 0 14076.94945444 0 -1360.06583873 0 5329.37409472 0 3336
0.05550000 0.05550870 35108.34165586 0 667.37539638 0 16739.71969389 0 3178.30918440 0 4854.97237407 0 3349
0.05650000 0.05647670 33241.40369994 0 428.64108973 0 13666.89535998 0 -768.22585571 0 7159.11828788 0 3324
0.05750000 0.05747970 33810.29471392 0 -622.91973269 0 14678.57449472 0 1180.33626216 0 6072.93079732 0 3639
0.05850000 0.05849280 33265.89929679 0 -393.03459770 0 11876.95925785 0 1925.21111347 0 7382.72024735 0 3846
0.05950000 0.05951020 34219.79957976 0 548.12138415 0 12450.13425515 0 1272.98014731 0 4797.78668922 0 3787
0.06050000 0.06049470 33359.26816373 0 199.68305267 0 11479.64726758 0 -647.45048018 0 3362.97083407 0 3930
0.06150000 0.06148310 33084.65384920 0 1405.95938298 0 12298.54715352 0 -118.94095191 0 2443.56210901 0 4083
0.06250000 0.06249100 32382.30027835 0 -283.09769994 0 12092.58641762 0 -220.69544156 0 3464.29253156 0 4303
0.06350000 0.06350600 32656.69490143 0 214.56385315 0 12041.83769230 0 -871.40394596 0 1170.35128568 0 4470
0.06450000 0.06451750 31290.65345521 0 968.78108344 0 13266.28799794 0 -1353.25540373 0 -2791.41056894 0 4479
0.06550000 0.06550280 30912.23492979 0 496.42469021 0 11547.31223469 0 1501.16267354 0 422.64351310 0 4636
0.06650000 0.06648880 30779.43144728 0 -854.47781807 0 12527.35580039 0 1397.58913867 0 713.49082899 0 4653
0.06750000 0.06749660 30530.63087831 0 195.58800401 0 10854.53721113 0 1644.44543829 0 -2303.20124057 0 5220
0.06850000 0.06852730 30448.24658395 0 1697.07252553 0 11126.60310482 0 591.49287053 0 -288.52078342 0 5029
0.06950000 0.06949320 29803.67186488 0 497.09584760 0 11744.48531252 0 -1145.11972246 0 2012.99981754 0 5040
0.07050000 0.07048030 27738.79191104 0 528.47877146 0 11338.38566419 0 -248.19312210 0 134.85100684 0 5475
0.07150000 0.07148790 28140.71742179 0 -140.99907211 0 12704.75664758 0 426.14649329 0 1445.82239687 0 5509
0.07250000 0.07249820 26897.92287994 0 17.66099580 0 10810.96141170 0 2043.46003731 0 593.94682405 0 5916
0.07350000 0.07351270 27515.69524191 0 97.49972531 0 10838.22512084 0 497.99877946 0 1701.48832370 0 5721
0.07450000 0.07449140 27761.63982201 0 241.49472974 0 10336.64756763 0 41.94876454 0 -291.30866794 0 6028
0.07550000 0.07549160 27132.00412164 0 583.04134039 0 10572.25566493 0 -1057.17943129 0 -735.44020192 0 6183
0.07650000 0.07648840 26449.53262716 0 297.57536660 0 9944.08091272 0 824.60087911 0 184.42438290 0 6330
0.07750000 0.07749960 26399.22328474 0 -636.83608769 0 9443.47000190 0 1460.69550815 0 -678.55219898 0 6583
0.07850000 0.07848650 26683.28433170 0 414.94991846 0 8142.72085511 0 963.43049814 0 -1804.30392307 0 6549
0.07950000 0.07947320 26946.58453647 0 135.04433532 0 7574.01657885 0 -463.99273966 0 -2834.03071056 0 6828
0.08050000 0.08048110 24959.80489368 0 545.01055320 0 7039.86976794 0 6.54216977 0 -924.65715384 0 7147
0.08150000 0.08149960 24181.65777202 0 1134.42074877 0 7768.91585016 0 -255.38142640 0 -745.61521151 0 7386
0.08250000 0.08250610 23731.29029619 0 824.34274165 0 7727.85551785 0 3.99534169 0 -737.12743227 0 7227
0.08350000 0.08350160 23530.93169230 0 23.55542729 0 7563.25169772 0 2353.34581440 0 -915.10496952 0 7798
0.08450000 0.08449610 22839.78238548 0 -491.52117701 0 6356.59639966 0 1074.17476199 0 836.95962172 0 7371
0.08550000 0.08548940 23109.01425945 0 376.80489172 0 6016.75569314 0 206.90650760 0 1482.37905442 0 8256
0.08650000 0.08650700 22350.96890561 0 278.95431916 0 6176.15282587 0 -568.87893096 0 357.98722043 0 8037
0.08750000 0.08749060 21726.38610864 0 588.89282220 0 5989.15146224 0 -792.31941721 0 1150.05179555 0 8155
0.08850000 0.08849210 21148.15820796 0 904.89810468 0 7507.72468332 0 -581.84841580 0 322.86734497 0 8718
0.08950000 0.08949900 20305.20210806 0 603.92081595 0 7465.52195547 0 -21.24800797 0 391.68679065 0 8571
0.09050000 0.09049190 20418.01366847 0 -79.04410553 0 7971.68007544 0 735.18316292 0 -1220.84736584 0 8932
0.09150000 0.09150830 19892.95109909 0 97.19358527 0 7900.63185999 0 114.48121544 0 630.85388946 0 9285
0.09250000 0.09250820 19599.88270262 0 406.76201806 0 7235.28531416 0 -1.75381883 0 -549.34177016 0 9204
0.09350000 0.09350330 19608.67036068 0 221.13482446 0 7637.51839295 0 -166.87103591 0 -884.28884960 0 9349
0.09450000 0.09448040 19215.20297082 0 199.30628183 0 7552.56370860 0 477.10612241 0 -749.13247165 0 9564
0.09550000 0.09549270 19299.67433397 0 -301.82529773 0 7197.87185995 0 940.52107356 0 -184.40461067 0 10155
0.09650000 0.09649430 18464.18774343 0 -2.90974737 0 6502.58136927 0 829.82074800 0 -88.29575194 0 9913
0.09750000 0.09749140 18782.85019402 0 622.66598906 0 5642.37949042 0 -55.15222078 0 -1361.72450919 0 10476
0.09850000 0.09850240 18114.98818107 0 504.80262372 0 6157.43511419 0 95.46131817 0 824.41084600 0 10575
0.09950000 0.09950330 17382.31718989 0 279.56945523 0 6336.48364727 0 -229.43366905 0 168.19577537 0 10882
0.10050000 0.10051200 16955.45669938 0 337.63610280 0 5640.12765304 0 15.28272599 0 -724.09753228 0 10875
0.10150000 0.10150300 16622.95368735 0 400.82485658 0 6109.20185599 0 355.97484673 0 -195.39577399 0 11118
0.10250000 0.10250800 16843.74359623 0 -262.01610824 0 5144.75638334 0 754.02170490 0 -263.35073381 0 11575
0.10350000 0.10349800 16612.51834339 0 69.06319334 0 5537.25713082 0 261.32298171 0 -97.41909854 0 11364
0.10450000 0.10450100 16078.22873304 0 385.84629341 0 5107.85920404 0 -26.16536173 0 -154.08279651 0 12093
0.10550000 0.10551000 16017.70373811 0 422.22719780 0 5385.60412176 0 133.90743205 0 369.68798714 0 12067
0.10650000 0.10649700 15914.77829303 0 78.72082956 0 5943.42268659 0 -790.59264240 0 -1408.88127928 0 12054
0.10750000 0.10749900 15221.65176314 0 241.44090534 0 5869.37568282 0 -356.64380720 0 -478.36934826 0 12807
0.10850000 0.10850100 15026.45590837 0 90.10578981 0 5995.39069947 0 -482.60280253 0 -1339.04136681 0 12736
0.10950000 0.10950300 14586.85331367 0 244.24416826 0 6145.85737469 0 663.90317299 0 -206.47701081 0 12933
0.11050000 0.11050200 15251.63964629 0 -215.65352275 0 5510.79529547 0 544.52064126 0 -1611.59058170 0 13428
0.11150000 0.11150900 15167.49782032 0 6.51117131 0 5490.29808303 0 724.73573594 0 -1472.14143278 0 13453
0.11250000 0.11250000 15359.72784049 0 312.36060129 0 5009.70106346 0 -360.69381911 0 -842.59800283 0 13668
0.11350000 0.11349100 14751.51205666 0 215.47008038 0 5371.09350138 0 -159.37076975 0 -1198.88920525 0 13791
0.11450000 0.11448600 14345.52225406 0 94.35802770 0 5641.61057034 0 330.11276904 0 -645.89396624 0 14205
0.11550000 0.11549300 14420.21734761 0 119.88782207 0 5437.28653576 0 491.80128361 0 -741.53334433 0 14776
0.11650000 0.11649800 14069.91932799 0 90.59405406 0 4857.23519603 0 619.82537859 0 99.25538954 0 14553
0.11750000 0.11747300 14251.49431276 0 -22.67171842 0 5284.97445234 0 298.44204938 0 514.50309977 0 14568
0.11850000 0.11849100 13769.05188499 0 231.86455496 0 4504.12512583 0 155.52397244 0 1200.15243109 0 16015
0.11950000 0.11950300 13885.04897145 0 273.91240035 0 4790.81148563 0 383.45165658 0 1205.01859675 0 15270
0.12050000 0.12050700 13767.62389055 0 32.65988043 0 4579.92966121 0 324.86653718 0 1487.05848234 0 15999
0.12150000 0.12150000 13178.74095447 0 54.89880669 0 4871.51514038 0 -147.11528212 0 1609.02019172 0 15670
0.12250000 0.12250700 12840.41611896 0 418.04207564 0 4562.43123709 0 -9.51567160 0 1141.93419641 0 16887
0.12350000 0.12352200 13086.80008196 0 165.42656462 0 4621.50626843 0 -210.32600504 0 955.24149928 0 16407
0.12450000 0.12449800 12858.76035517 0 51.85421271 0 4521.60158080 0 336.52995635 0 618.89168992 0 16306
0.12550000 0.12549900 12886.00209517 0 -30.15880310 0 4372.88145262 0 484.66131143 0 457.68539809 0 17523
0.12650000 0.12650100 12832.50722670 0 -201.15608385 0 3758.38249328 0 209.67132452 0 689.59279288 0 17154
0.12750000 0.12750600 12644.34149838 0 23.07089779 0 3427.83473516 0 119.95263105 0 378.19663706 0 18007
0.12850000 0.12850300 12972.12114421 0 83.28535885 0 3443.91614942 0 -45.32739937 0 -245.98961684 0 17496
0.12950000 0.12949900 12595.78968757 0 215.65132583 0 3116.33422590 0 69.50993591 0 -437.11898284 0 18405
0.13050000 0.13049000 12394.22278071 0 152.77782929 0 3487.10748881 0 -147.28664146 0 367.60421372 0 18100
0.13150000 0.13148800 12548.77571693 0 130.41873180 0 3668.96807247 0 -409.52134269 0 -994.19718748 0 19059
0.13250000 0.13249300 12272.40387078 0 135.03994149 0 3827.10197935 0 -161.56658581 0 -502.27946740 0 18957
0.13350000 0.13349100 12016.13379246 0 -40.45046884 0 3819.05028765 0 247.52855546 0 -693.57579890 0 19468
0.13450000 0.13450700 12137.40347376 0 201.75364460 0 3872.20463437 0 176.62973019 0 -583.80037435 0 19953
0.13550000 0.13551000 11800.17709551 0 192.68587994 0 3900.74255393 0 400.09657942 0 -2.54656445 0 19956
0.13650000 0.13649900 11666.27515574 0 157.41881121 0 3877.13670746 0 146.26837158 0 149.57582638 0 19723
0.13750000 0.13749600 11535.55874202 0 261.15491775 0 3936.42044568 0 -38.80706694 0 693.29349539 0 20946
0.13850000 0.13851100 11130.11816805 0 -1.24262977 0 3545.07307832 0 295.64537720 0 731.80101303 0 20955
0.13950000 0.13949800 11054.98369159 0 -41.18401860 0 3520.11612942 0 499.21696856 0 1100.61023436 0 20506
0.14050000 0.14048300 11316.08698185 0 86.88038976 0 3040.81528940 0 288.72839184 0 471.90602575 0 21447
0.14150000 0.14148400 11088.81617514 0 115.45335012 0 3177.67207919 0 -61.83556428 0 867.89986731 0 21771
0.14250000 0.14249400 10962.06519212 0 185.09224491 0 3016.16590853 0 -493.18424130 0 305.79402381 0 22470
0.14350000 0.14350900 10631.08903568 0 55.12662673 0 3034.37832987 0 327.30730921 0 364.51315500 0 22519
0.14450000 0.14449900 10859.50223793 0 -147.00104257 0 2883.40636431 0 455.11830348 0 415.77705678 0 22218
0.14550000 0.14550500 10645.61064063 0 177.71061214 0 2713.56290306 0 -37.18903939 0 627.67056033 0 23559
0.14650000 0.14650700 10631.74811003 0 344.06427468 0 2986.19999453 0 -146.51332755 0 -212.16372404 0 23044
0.14750000 0.14750500 10306.74756107 0 222.62652942 0 3175.40925724 0 -253.56347964 0 742.42309471 0 23649
0.14850000 0.14849900 10051.26837197 0 41.85429722 0 3272.86438518 0 288.24946448 0 646.35092446 0 23640
0.14950000 0.14949500 9853.00782145 0 88.05892456 0 3309.20135128 0 63.84189646 0 606.66476218 0 24457
0.15050000 0.15050000 9756.24472158 0 68.46475383 0 3123.47419808 0 292.95305846 0 1149.26090632 0 24591
0.15150000 0.15149900 9831.89547295 0 173.07182713 0 3173.51991076 0 250.55810058 0 1094.17437328 0 25020
0.15250000 0.15250500 9595.70519330 0 44.74796317 0 3095.01317052 0 -110.24446580 0 1393.38204737 0 25297
0.15350000 0.15350100 9520.04345736 0 183.27210123 0 3214.16282931 0 98.60488315 0 1074.74925513 0 25452
0.15450000 0.15450400 9392.89702973 0 49.51966150 0 3307.97107915 0 -337.16486464 0 1068.80110908 0 26061
0.15550000 0.15549900 9398.89460636 0 37.46332417 0 3124.11130329 0 -42.45064966 0 1201.37171865 0 26128
0.15650000 0.15649500 9271.82507074 0 -95.05851390 0 3137.21589838 0 450.87496309 0 870.07591114 0 26331
0.15750000 0.15749700 9248.47186943 0 186.35107693 0 3240.47088064 0 159.17853973 0 930.50204491 0 27345
0.15850000 0.15849900 9200.65602499 0 190.40108884 0 2871.65287165 0 -140.74423003 0 1184.77402948 0 26980
0.15950000 0.15949700 9044.21374228 0 99.95532651 0 3151.48485816 0 359.39214726 0 1259.30435444 0 27777
0.16050000 0.16050000 8995.60700861 0 -29.29475662 0 2988.55069306 0 63.39251760 0 974.32829259 0 28224
0.16150000 0.16150500 8739.21609999 0 158.11962694 0 2970.33827172 0 -277.32970088 0 859.30883309 0 28075
0.16250000 0.16249700 8592.01184283 0 164.54120807 0 2787.74172170 0 179.20561246 0 927.07925209 0 28590
0.16350000 0.16349900 8727.16602387 0 9.32991149 0 2800.01148927 0 67.66167173 0 609.28897657 0 29163
0.16450000 0.16449100 8445.78521263 0 -48.15548743 0 2438.09179186 0 252.81872562 0 620.10438673 0 28996
0.16550000 0.16550500 8556.90514886 0 96.16707696 0 2515.48909027 0 25.02351541 0 211.30143509 0 30777
0.16650000 0.16650700 8347.26458114 0 118.66963297 0 2095.50494220 0 263.09259635 0 744.36077332 0 29211
0.16750000 0.16749900 8423.03616281 0 73.14088638 0 2235.21772086 0 -84.51771805 0 214.20026379 0 30922
0.16850000 0.16850800 8267.06621673 0 104.77151236 0 2052.96169259 0 -163.37354800 0 266.98662733 0 30867
0.16950000 0.16949900 8092.56529670 0 56.54429567 0 2420.01118540 0 88.83245816 0 91.51093634 0 30852
0.17050000 0.17049200 8103.62676129 0 -8.71444589 0 2207.95401171 0 51.11791681 0 333.71131502 0 31257
0.17150000 0.17149500 8107.63613028 0 23.41394599 0 2373.16198334 0 -55.75582305 0 -7.85479324 0 32608
0.17250000 0.17250900 7874.15904006 0 209.84158539 0 2350.61065583 0 -342.14307293 0 -175.12264684 0 32361
0.17350000 0.17350400 7910.34222215 0 87.56736493 0 2505.88857384 0 -97.26597360 0 -5.58703921 0 32508
0.17450000 0.17449800 7702.49213976 0 69.98084454 0 2591.20574908 0 243.15779403 0 -176.83953553 0 32791
0.17550000 0.17549800 7721.56135776 0 103.22158916 0 2432.76427416 0 28.21024977 0 -71.91061425 0 33633
0.17650000 0.17650100 7729.97554036 0 -13.07295952 0 2353.85110474 0 388.37164664 0 -180.36778024 0 33984
0.17750000 0.17750300 7777.04443387 0 -178.32355129 0 2034.37579578 0 346.25459845 0 171.92284084 0 34069
0.17850000 0.17849800 7867.78798797 0 -54.36891091 0 1653.50771067 0 626.69842565 0 319.37754626 0 34536
