### header ###
fiducial parameters:
Omega_m = 0.31
Omega_nu = 0
Omega_de = 0.69
Omega_k = 0
H_0 = 100
w_de = -1
zeff = 0
beta = 0
fgrowth = 0
b_1 = 2
gamma = 0.55
Lx = 3500 Ly = 3500 Lz = 3500
nx = 700 ny = 700 nz = 700
xoffset = -983.599254 yoffset = -42.9823471 zoffset = 800.977702
bins = 400 dk = 0.001
kx_ny = 0.628318531 ky_ny = 0.628318531 kz_ny = 0.628318531
############################
A(data) = 8.99074938 (not used)
A(ran) = 8.98788292 (used)
Ngal = 498942
weighted Ngal = 0
Nran = 25229228
weighted Nran = 0
SN(data) = 6758.58399
SN(ran) = 133.41893
SN(data+ran) = 6892.00292
############################
13 columns: k_central k_mean P_0(k) sigma^{lin}_{P_0(k)} P^img_1(k) sigma^{lin}_{P_1(k)} P_2(k) sigma^{lin}_{P_2(k)} P^img_3(k) sigma^{lin}_{P_3(k)} P_4(k) sigma^{lin}_{P_4(k)} N_modes
### header ###
0.00050000 0 0 0 0 0 0 0 0 0 0 0 0
0.00150000 0.00179520 103416.78501875 0 -66584.08515907 0 -91497.20561928 0 101436.37642806 0 155511.88940585 0 3
0.00250000 0.00253879 123932.34169175 0 -14260.94104518 0 27264.80760415 0 -150147.02415712 0 -2801.45046828 0 6
0.00350000 0.00331552 118262.10532526 0 26151.41132731 0 -11828.84682995 0 -121685.99659886 0 8249.85339149 0 7
0.00450000 0.00420575 86782.73691310 0 27216.14594762 0 12562.28674120 0 -13906.46888798 0 19014.51482976 0 24
0.00550000 0.00557378 69675.58326636 0 -739.38476194 0 25097.77112530 0 11809.95336511 0 -926.75191183 0 45
0.00650000 0.00659388 85551.36632673 0 -5065.87616764 0 -7355.70918337 0 24887.30671465 0 -17251.16139327 0 40
0.00750000 0.00754703 68083.03993352 0 -2976.61046266 0 16574.18218509 0 -2649.79745922 0 -5855.50216765 0 57
0.00850000 0.00846663 67404.08350227 0 5624.28789938 0 3083.89678307 0 -23149.98671518 0 -19422.04247252 0 75
0.00950000 0.00948925 70909.26061297 0 3205.12252607 0 16381.73247346 0 -17783.80331774 0 -27901.58327669 0 112
0.01050000 0.01054430 66404.15786019 0 2581.25372632 0 21213.07703191 0 -17567.07770071 0 -5644.66428152 0 105
0.01150000 0.01145670 59586.36319613 0 -2382.46591631 0 17977.90071526 0 7265.83341051 0 -21311.82833942 0 144
0.01250000 0.01249090 77242.30608902 0 -6546.09126126 0 21960.90673325 0 12710.90800823 0 -30570.28518533 0 169
0.01350000 0.01339930 85268.95296566 0 -1402.04887514 0 -1069.11416940 0 10994.34885094 0 -19679.74054528 0 180
0.01450000 0.01448870 82591.02401606 0 1033.75263334 0 16164.45762780 0 -25501.23447622 0 -16328.56714217 0 267
0.01550000 0.01550050 79332.34071407 0 8905.12708426 0 26817.95519154 0 2465.24565529 0 17735.36135266 0 238
0.01650000 0.01653350 79179.10592656 0 506.17569529 0 25669.73781962 0 19654.36618262 0 -1135.69495919 0 315
0.01750000 0.01747870 72552.55267114 0 -4452.82717187 0 24700.67882649 0 21732.75716074 0 10739.99008825 0 297
0.01850000 0.01844180 82155.81525038 0 2821.95866529 0 19065.04386363 0 2236.16239410 0 7390.43141730 0 388
0.01950000 0.01947590 71442.89114898 0 1618.19230982 0 22713.56964652 0 -1510.00525447 0 27212.63088439 0 399
0.02050000 0.02045430 72013.64954030 0 3402.64711023 0 18065.33791300 0 -4951.82335052 0 7255.98024890 0 462
0.02150000 0.02154770 64768.66484855 0 3238.13116668 0 27415.29624852 0 -7694.78096981 0 1436.74913992 0 571
0.02250000 0.02255340 67816.55420270 0 4504.38875557 0 33604.55366947 0 -3887.82469658 0 6635.90112669 0 510
0.02350000 0.02348930 62060.41847862 0 -6606.55034875 0 23020.14906727 0 11677.91880268 0 -2422.20809991 0 555
0.02450000 0.02439640 73458.23068047 0 -2249.91507897 0 28140.93711324 0 4666.41120114 0 -13677.66024111 0 592
0.02550000 0.02547300 62561.31498833 0 9890.70687455 0 26626.05470855 0 -6367.71278711 0 -5370.57722647 0 837
0.02650000 0.02652900 60538.72563893 0 847.46636539 0 29095.16693338 0 4818.18504050 0 8413.06217091 0 723
0.02750000 0.02749970 59954.45622333 0 1377.04798794 0 36779.42468266 0 10568.01561991 0 6465.13496134 0 826
0.02850000 0.02848090 57906.82204844 0 -1337.62435695 0 24171.11258234 0 3886.80313133 0 7545.66539702 0 831
0.02950000 0.02946900 57500.17317148 0 -1357.12197328 0 26759.84680259 0 5450.06159367 0 13075.26628075 0 996
0.03050000 0.03053250 55340.60620198 0 3196.53259032 0 23781.81933006 0 3236.81301797 0 14209.31355405 0 1041
0.03150000 0.03150510 54948.56680656 0 1584.19505768 0 26395.59837579 0 -3393.55188414 0 10558.14048916 0 1036
0.03250000 0.03246190 53213.77325878 0 4535.84857144 0 29015.85831934 0 -2062.70500847 0 8089.42370894 0 1059
0.03350000 0.03345080 48565.10214236 0 826.40674284 0 28854.71463958 0 262.38079605 0 14555.65712754 0 1302
0.03450000 0.03451200 50550.78332789 0 -2085.47602743 0 28119.40735098 0 8178.05822510 0 7422.22077035 0 1339
0.03550000 0.03553350 52293.26607647 0 171.69436173 0 26423.38934442 0 3156.82336043 0 4134.47228932 0 1365
0.03650000 0.03647120 48101.11379652 0 1617.40142059 0 22096.67605036 0 303.35325178 0 5652.03492972 0 1308
0.03750000 0.03744890 49779.00725832 0 -4.51811947 0 23713.71498006 0 2811.40249104 0 6480.11791834 0 1579
0.03850000 0.03847530 48585.31375591 0 1167.06689848 0 24394.86832582 0 -2253.92444797 0 6864.03971463 0 1662
0.03950000 0.03950240 47801.01527360 0 791.65594902 0 23156.90699591 0 6963.59289593 0 7131.85457874 0 1683
0.04050000 0.04050350 47868.89993215 0 -559.24655926 0 15504.72419857 0 5033.55955510 0 11043.99911901 0 1822
0.04150000 0.04152450 48011.80922144 0 -692.06102634 0 19202.35102090 0 4707.32873401 0 7468.80634267 0 1887
0.04250000 0.04250150 47747.52040513 0 2103.41383446 0 15644.33811607 0 -626.47543883 0 10411.10100059 0 1920
0.04350000 0.04349210 44041.98469054 0 2679.01642229 0 17391.76392231 0 -3294.32824001 0 9552.79945280 0 2005
0.04450000 0.04448520 42459.43731875 0 751.97198366 0 19398.20595002 0 -1988.29551380 0 5450.34719256 0 2151
0.04550000 0.04548030 40030.52862956 0 1117.86699789 0 18589.41187086 0 2923.54399252 0 4764.43752686 0 2274
0.04650000 0.04648670 39023.90239821 0 -251.61481646 0 17642.87125152 0 3027.79857089 0 2590.43682900 0 2311
0.04750000 0.04749250 39572.14241574 0 672.98521760 0 15501.42882679 0 2632.95810946 0 6761.49872958 0 2568
0.04850000 0.04851840 39880.91875100 0 128.01970115 0 12129.16504432 0 572.09741072 0 -189.32789610 0 2493
0.04950000 0.04949480 37523.08024642 0 743.48090905 0 13316.70718609 0 -1226.87789618 0 5692.88655515 0 2644
0.05050000 0.05050630 37155.86598502 0 842.42224966 0 11539.73287960 0 1615.19352151 0 -1759.23422177 0 2829
0.05150000 0.05149060 36810.07164016 0 -522.92167619 0 12320.40645296 0 924.70768287 0 3889.97767280 0 2784
0.05250000 0.05249300 37110.93908316 0 111.63621114 0 8877.29217734 0 2694.36187019 0 -1578.26338849 0 3055
0.05350000 0.05348950 36918.48937154 0 300.85535997 0 9185.43140739 0 -701.69339804 0 -1711.67102249 0 3009
0.05450000 0.05448610 36412.32026699 0 1694.89758016 0 11014.01123586 0 -3423.95718104 0 518.63220060 0 3336
0.05550000 0.05550870 33461.42468874 0 763.23446593 0 13797.61177370 0 -249.31354851 0 1947.22419692 0 3349
0.05650000 0.05647670 33469.00404382 0 103.70743681 0 12774.94806638 0 2691.56080418 0 -463.96088440 0 3324
0.05750000 0.05747970 33837.64629965 0 416.09780630 0 12671.91277556 0 1859.42450828 0 -36.69890777 0 3639
0.05850000 0.05849280 32654.60783264 0 687.93082705 0 12395.32123797 0 -1099.68753026 0 3539.08648627 0 3846
0.05950000 0.05951020 31380.28756748 0 446.53276155 0 12558.99136943 0 824.44709509 0 2888.68994372 0 3787
0.06050000 0.06049470 30589.28849590 0 1143.55991315 0 14431.09207447 0 406.32263516 0 3729.51503654 0 3930
0.06150000 0.06148310 30091.24797506 0 606.74714647 0 12180.02361537 0 917.38426833 0 3426.93400021 0 4083
0.06250000 0.06249100 29886.93492504 0 26.32617588 0 13004.63547905 0 311.18964586 0 2179.89941334 0 4303
0.06350000 0.06350600 29278.06006686 0 241.26295526 0 11737.89456897 0 916.51978247 0 218.07891637 0 4470
0.06450000 0.06451750 29394.71622767 0 -18.04249000 0 11423.29641024 0 -260.87590961 0 1060.88123225 0 4479
0.06550000 0.06550280 29292.99908557 0 430.47002106 0 11608.60614969 0 -298.85287239 0 837.72195106 0 4636
0.06650000 0.06648880 28482.88685770 0 243.79270233 0 11282.03480685 0 1565.03796310 0 1633.99910977 0 4653
0.06750000 0.06749660 29360.88374412 0 -583.65427954 0 10094.29494277 0 883.13766639 0 -390.44882932 0 5220
0.06850000 0.06852730 29667.57301060 0 -403.31615764 0 8437.84336665 0 1646.46659964 0 -326.85144944 0 5029
0.06950000 0.06949320 29086.04973814 0 574.46788149 0 8777.36552057 0 -229.74013862 0 1619.12599849 0 5040
0.07050000 0.07048030 28783.64445497 0 -26.82850038 0 8832.56299779 0 -76.44856087 0 2080.65380007 0 5475
0.07150000 0.07148790 28797.81455360 0 160.56039896 0 8870.00940572 0 597.92653469 0 1169.96682564 0 5509
0.07250000 0.07249820 28698.29432602 0 363.49927895 0 8390.45592053 0 405.02535713 0 -344.44653780 0 5916
0.07350000 0.07351270 28286.48269994 0 725.76389194 0 9588.16977651 0 -1977.54161725 0 98.19219276 0 5721
0.07450000 0.07449140 27703.09205015 0 578.70243422 0 9563.16888932 0 -169.83796897 0 -2033.20044652 0 6028
0.07550000 0.07549160 27145.51514592 0 239.04956389 0 9734.92366620 0 950.47199786 0 -749.63446661 0 6183
0.07650000 0.07648840 27197.47217423 0 -87.37447584 0 10115.26449183 0 276.89361334 0 -2680.55426245 0 6330
0.07750000 0.07749960 26130.98002231 0 642.38659222 0 9317.91633729 0 -830.28429696 0 -3205.56190898 0 6583
0.07850000 0.07848650 25092.05914756 0 597.25318039 0 9341.62104492 0 238.25977312 0 -1051.80687684 0 6549
0.07950000 0.07947320 25633.15919292 0 -137.06659513 0 9237.44335856 0 1377.78395431 0 -2224.84828434 0 6828
0.08050000 0.08048110 24998.25089772 0 292.01168059 0 9062.41517905 0 445.30358788 0 -2489.46663783 0 7147
0.08150000 0.08149960 24818.54329029 0 685.99314845 0 8650.85619815 0 -254.08964067 0 -2661.83655077 0 7386
0.08250000 0.08250610 24218.45609017 0 601.94688826 0 8933.22562092 0 97.24949674 0 -993.90719476 0 7227
0.08350000 0.08350160 23270.70716785 0 -9.81440803 0 9241.59552700 0 -37.32744501 0 117.10433138 0 7798
0.08450000 0.08449610 23191.17886236 0 -64.65739113 0 8009.64275828 0 1926.17775586 0 -2652.08225032 0 7371
0.08550000 0.08548940 23278.17667721 0 638.49036432 0 8159.19771398 0 1290.48955600 0 1338.33835417 0 8256
0.08650000 0.08650700 22633.27242095 0 456.40349847 0 7690.29926420 0 -134.50828817 0 1064.41496925 0 8037
0.08750000 0.08749060 21496.80854169 0 292.59496139 0 7492.14855940 0 -34.60371039 0 1905.40592910 0 8155
0.08850000 0.08849210 21071.92527424 0 586.76181512 0 7937.64986959 0 103.13689811 0 723.09244388 0 8718
0.08950000 0.08949900 20537.41597243 0 493.23037650 0 8014.06954103 0 -144.31092074 0 1988.08680692 0 8571
0.09050000 0.09049190 20091.33247991 0 101.40726731 0 7413.32326656 0 637.35675643 0 1644.45642286 0 8932
0.09150000 0.09150830 19939.63553256 0 26.57244999 0 7330.93897220 0 999.37421654 0 54.45568903 0 9285
0.09250000 0.09250820 20101.76782386 0 287.11585659 0 6055.14677431 0 -168.23422137 0 119.04530535 0 9204
0.09350000 0.09350330 18774.50191885 0 506.11967397 0 6204.75665287 0 -454.71077583 0 3.64216572 0 9349
0.09450000 0.09448040 18837.66321120 0 389.26359394 0 6582.73579539 0 -183.40171919 0 -319.87954123 0 9564
0.09550000 0.09549270 17981.74531566 0 378.30867970 0 6539.66528630 0 130.97125580 0 -2032.49743387 0 10155
0.09650000 0.09649430 18034.36141832 0 242.95018561 0 6680.58636795 0 75.97886055 0 -340.69310935 0 9913
0.09750000 0.09749140 17274.22899569 0 -54.96877842 0 5635.63496286 0 594.46749279 0 -427.31964564 0 10476
0.09850000 0.09850240 17386.27163602 0 -205.16435439 0 5674.92677898 0 1166.86917617 0 -1000.54846735 0 10575
0.09950000 0.09950330 17534.67321160 0 393.87711442 0 4993.82835608 0 -197.10387503 0 -976.02870443 0 10882
0.10050000 0.10051200 16934.58601148 0 619.73860047 0 5230.22734260 0 -339.62870427 0 -469.62233311 0 10875
0.10150000 0.10150300 16427.53814112 0 113.94956213 0 5708.04526531 0 -119.52093734 0 -718.36578230 0 11118
0.10250000 0.10250800 16429.84490137 0 4.86216727 0 5862.64213982 0 90.81682119 0 -814.02603108 0 11575
0.10350000 0.10349800 15975.63282513 0 254.19948639 0 5246.46254087 0 727.04798847 0 -1112.70424877 0 11364
0.10450000 0.10450100 16069.99030360 0 -150.86980903 0 5204.39162789 0 696.97881949 0 -483.48596217 0 12093
0.10550000 0.10551000 16240.69056152 0 138.63299518 0 4694.79533669 0 333.78271474 0 -390.69378529 0 12067
0.10650000 0.10649700 15738.25621165 0 304.61537917 0 4686.50198439 0 -487.01969917 0 -976.80751062 0 12054
0.10750000 0.10749900 15790.54277713 0 179.93608654 0 4919.21015453 0 87.26419073 0 -209.82620699 0 12807
0.10850000 0.10850100 15286.46074137 0 188.70507083 0 4828.02721753 0 15.61676684 0 -807.98231925 0 12736
0.10950000 0.10950300 15048.09551636 0 184.50457028 0 5073.66422960 0 -340.72386616 0 -1110.18878165 0 12933
0.11050000 0.11050200 14954.50695797 0 451.93936817 0 5375.92671332 0 -303.11708347 0 -1224.50522851 0 13428
0.11150000 0.11150900 14712.62666973 0 139.91489480 0 5550.64732480 0 -379.55433023 0 -1114.93411701 0 13453
0.11250000 0.11250000 14314.65560510 0 28.36392394 0 5982.29708895 0 283.81499253 0 -477.34229072 0 13668
0.11350000 0.11349100 14381.11226922 0 -58.22295805 0 5433.55178108 0 1099.63260740 0 -502.66392744 0 13791
0.11450000 0.11448600 14447.78862479 0 -219.84194027 0 4769.28172337 0 1014.19130649 0 573.29582759 0 14205
0.11550000 0.11549300 14491.39737794 0 73.81863451 0 4197.67751995 0 555.35472520 0 301.49576055 0 14776
0.11650000 0.11649800 14068.82087073 0 425.50389580 0 4409.76764735 0 150.33046652 0 1253.06511722 0 14553
0.11750000 0.11747300 13815.07724410 0 333.07091444 0 4468.85366327 0 -561.74994335 0 1283.64616728 0 14568
0.11850000 0.11849100 13654.81233014 0 231.49876869 0 4521.85422597 0 0.72093617 0 1171.65844982 0 16015
0.11950000 0.11950300 13280.12855939 0 1.58249245 0 4482.72717844 0 70.70461803 0 1249.42922369 0 15270
0.12050000 0.12050700 13424.02646021 0 -49.50658986 0 4222.20607053 0 342.67143088 0 661.23392185 0 15999
0.12150000 0.12150000 13276.83318762 0 -128.11856230 0 3755.41665868 0 597.64752655 0 1010.97612210 0 15670
0.12250000 0.12250700 13689.30388805 0 -61.52162519 0 3540.13002066 0 396.04986288 0 809.43338129 0 16887
0.12350000 0.12352200 13531.89496296 0 -2.03429890 0 2926.10339794 0 -153.61705064 0 362.23275773 0 16407
0.12450000 0.12449800 13382.94415875 0 175.52797756 0 3145.15774435 0 -35.03826008 0 -309.89895858 0 16306
0.12550000 0.12549900 13334.28250222 0 224.75424113 0 3299.55689656 0 -273.72017033 0 92.77108650 0 17523
0.12650000 0.12650100 13319.56317496 0 49.29348915 0 2773.02239444 0 387.32921071 0 -111.02656737 0 17154
0.12750000 0.12750600 13019.35480631 0 42.99416631 0 3199.71811636 0 363.34110110 0 509.64022948 0 18007
0.12850000 0.12850300 12895.77836477 0 200.57170459 0 2895.01705753 0 166.40748695 0 -229.92907327 0 17496
0.12950000 0.12949900 12736.17252516 0 185.96112460 0 3019.36241915 0 -203.78359361 0 668.02238771 0 18405
0.13050000 0.13049000 12402.02182724 0 208.74093122 0 3254.72885585 0 -527.51322753 0 601.29440465 0 18100
0.13150000 0.13148800 12215.94316771 0 219.73209455 0 3610.51916176 0 -28.65369696 0 144.93045064 0 19059
0.13250000 0.13249300 12110.27157948 0 68.80340820 0 3582.53047082 0 -109.25596411 0 186.69928788 0 18957
0.13350000 0.13349100 11799.18848398 0 277.67461645 0 3825.79481521 0 -97.37241411 0 -122.80202917 0 19468
0.13450000 0.13450700 11768.98090938 0 87.83242267 0 3806.06652285 0 431.03572655 0 358.55841820 0 19953
0.13550000 0.13551000 11794.79465494 0 -9.27436251 0 3665.60679326 0 435.64155783 0 557.47145233 0 19956
0.13650000 0.13649900 11878.38725229 0 -139.11521791 0 3442.94950703 0 468.42501470 0 64.14023745 0 19723
0.13750000 0.13749600 11561.48233332 0 193.27684994 0 3280.02632651 0 -489.97564765 0 926.14776034 0 20946
0.13850000 0.13851100 11387.70639508 0 232.54669692 0 3151.83636448 0 101.24194949 0 497.29027453 0 20955
0.13950000 0.13949800 11366.50617000 0 -1.48322487 0 3382.87487959 0 236.30122383 0 617.87561696 0 20506
0.14050000 0.14048300 11296.64428838 0 142.26669179 0 3258.70527113 0 -5.22123098 0 14.71394482 0 21447
0.14150000 0.14148400 11062.56304667 0 186.03911507 0 3101.14256202 0 201.23407432 0 604.92151051 0 21771
0.14250000 0.14249400 11140.22397482 0 -96.22990872 0 3173.22332730 0 271.53533884 0 509.93132066 0 22470
0.14350000 0.14350900 10871.64019063 0 55.80876869 0 2667.05422275 0 12.57898329 0 445.70562323 0 22519
0.14450000 0.14449900 10735.34361405 0 308.49513020 0 2975.43511340 0 -79.64133674 0 612.50965325 0 22218
0.14550000 0.14550500 10461.33345100 0 171.20115442 0 3006.40062351 0 -193.76676188 0 536.62383203 0 23559
0.14650000 0.14650700 10536.01755998 0 166.26139213 0 3410.13858873 0 167.89150271 0 496.76411350 0 23044
0.14750000 0.14750500 10022.45583809 0 220.95797285 0 3110.78701675 0 -60.27092176 0 554.93950835 0 23649
0.14850000 0.14849900 10138.67261600 0 6.65885888 0 3188.60172891 0 387.49727467 0 790.48169821 0 23640
0.14950000 0.14949500 10046.69878978 0 -140.60692287 0 3097.25402333 0 227.62890377 0 98.50382509 0 24457
0.15050000 0.15050000 9882.53435255 0 245.00100531 0 2797.57291416 0 -284.96288036 0 640.70814952 0 24591
0.15150000 0.15149900 9876.07542387 0 22.19399936 0 2784.20468933 0 -35.60572310 0 772.81521013 0 25020
0.15250000 0.15250500 9960.83238591 0 -125.11208479 0 2582.60482874 0 512.51928596 0 377.96486258 0 25297
0.15350000 0.15350100 10089.71437600 0 97.25828440 0 2274.15803066 0 257.31690809 0 435.30103608 0 25452
0.15450000 0.15450400 9816.20950330 0 25.25188468 0 2365.61558197 0 2.95793669 0 295.11262543 0 26061
0.15550000 0.15549900 9759.41926306 0 355.56731909 0 2557.81264843 0 -574.63704391 0 -188.51064390 0 26128
0.15650000 0.15649500 9289.26857200 0 333.55203872 0 2625.47761553 0 -357.42590877 0 151.29601045 0 26331
0.15750000 0.15749700 9098.16996280 0 -16.84879650 0 3004.04992497 0 252.13548520 0 196.39646855 0 27345
0.15850000 0.15849900 9130.75020508 0 17.31937559 0 2904.71643512 0 272.40202162 0 -76.90475017 0 26980
0.15950000 0.15949700 9123.13789628 0 18.37312564 0 2686.49691622 0 262.37750068 0 170.38829605 0 27777
0.16050000 0.16050000 9111.62606422 0 11.76359847 0 2577.44207963 0 322.25001199 0 233.46610564 0 28224
0.16150000 0.16150500 9158.29951311 0 154.45407507 0 2489.01627035 0 -229.03383061 0 430.59085136 0 28075
0.16250000 0.16249700 8962.24686168 0 27.40617905 0 2582.28627614 0 130.47804849 0 487.97206161 0 28590
0.16350000 0.16349900 8926.12958703 0 -90.97873379 0 2582.70368990 0 -130.94599128 0 179.73726578 0 29163
0.16450000 0.16449100 8785.26342825 0 246.79698293 0 2455.13984851 0 72.69667026 0 451.85808233 0 28996
0.16550000 0.16550500 8790.96442142 0 168.87352349 0 2607.52882393 0 6.81538904 0 72.70633669 0 30777
0.16650000 0.16650700 8625.48183548 0 103.31495803 0 2600.03734543 0 -132.63102472 0 494.42330109 0 29211
0.16750000 0.16749900 8389.96161477 0 132.29160143 0 2752.27253684 0 272.76780788 0 83.43266197 0 30922
0.16850000 0.16850800 8443.55534439 0 28.21200730 0 2563.41478045 0 54.54070963 0 633.01455489 0 30867
0.16950000 0.16949900 8295.79087403 0 -68.48156023 0 2408.57624534 0 357.52367146 0 585.99179658 0 30852
0.17050000 0.17049200 8199.33534219 0 -24.70935664 0 2190.29081900 0 302.12847194 0 915.52787557 0 31257
0.17150000 0.17149500 8162.58096233 0 210.17002411 0 2079.13792905 0 82.84147227 0 871.92351625 0 32608
0.17250000 0.17250900 8155.36409815 0 160.17154509 0 2282.35252181 0 -259.88839653 0 597.39927521 0 32361
0.17350000 0.17350400 8092.22477495 0 65.23825533 0 2347.83155896 0 13.23487212 0 793.38272383 0 32508
0.17450000 0.17449800 7936.07907571 0 94.00564261 0 2460.15979818 0 -33.71406986 0 455.54120952 0 32791
0.17550000 0.17549800 7734.42429226 0 92.20900592 0 2310.90142595 0 -178.80687248 0 1044.01002722 0 33633
0.17650000 0.17650100 7721.19886687 0 -80.16321378 0 2399.89843300 0 187.63297655 0 542.81144177 0 33984
0.17750000 0.17750300 7844.22607978 0 -98.83380165 0 2177.09834733 0 456.78905697 0 640.58402385 0 34069
0.17850000 0.17849800 7895.89750920 0 173.10258394 0 2184.87542472 0 28.48003087 0 629.63130653 0 34536
