### header ###
fiducial parameters:
Omega_m = 0.31
Omega_nu = 0
Omega_de = 0.69
Omega_k = 0
H_0 = 100
w_de = -1
zeff = 0
beta = 0
fgrowth = 0
b_1 = 2
gamma = 0.55
Lx = 3500 Ly = 3500 Lz = 3500
nx = 700 ny = 700 nz = 700
xoffset = -983.599254 yoffset = -42.9823471 zoffset = 800.977702
bins = 400 dk = 0.001
kx_ny = 0.628318531 ky_ny = 0.628318531 kz_ny = 0.628318531
############################
A(data) = 9.09257777 (not used)
A(ran) = 9.08505359 (used)
Ngal = 504561
weighted Ngal = 0
Nran = 25229228
weighted Nran = 0
SN(data) = 6775.35955
SN(ran) = 134.861361
SN(data+ran) = 6910.22091
############################
13 columns: k_central k_mean P_0(k) sigma^{lin}_{P_0(k)} P^img_1(k) sigma^{lin}_{P_1(k)} P_2(k) sigma^{lin}_{P_2(k)} P^img_3(k) sigma^{lin}_{P_3(k)} P_4(k) sigma^{lin}_{P_4(k)} N_modes
### header ###
0.00050000 0 0 0 0 0 0 0 0 0 0 0 0
0.00150000 0.00179520 673.80686363 0 7901.73031724 0 -18784.16834273 0 31636.55764580 0 19993.78947538 0 3
0.00250000 0.00253879 18798.77782426 0 -14674.72989432 0 5898.04541725 0 11164.71957168 0 -10172.16457780 0 6
0.00350000 0.00331552 25814.84402341 0 -21713.97354162 0 16757.73439292 0 -30885.10303551 0 -22436.53872602 0 7
0.00450000 0.00420575 34822.74276875 0 -7204.83607897 0 -13807.82742620 0 12944.76955848 0 -20538.40458397 0 24
0.00550000 0.00557378 61368.39040600 0 1687.54890110 0 5207.64306137 0 -16512.33904145 0 3815.50227070 0 45
0.00650000 0.00659388 65104.57307809 0 2460.30259762 0 6160.82934712 0 -10941.97440887 0 -12331.83040844 0 40
0.00750000 0.00754703 61786.46323844 0 -7632.67419644 0 14530.50245633 0 4140.54675796 0 6618.82011632 0 57
0.00850000 0.00846663 58080.48814095 0 -5302.82438279 0 24201.86938557 0 -14454.92859697 0 -9752.89442694 0 75
0.00950000 0.00948925 58220.76113281 0 9650.90267052 0 5543.13387715 0 -638.59361930 0 1672.66480525 0 112
0.01050000 0.01054430 63053.53368570 0 79.08419922 0 23333.09954011 0 1956.64896020 0 -33110.90697767 0 105
0.01150000 0.01145670 67197.46369201 0 -2756.95196476 0 21872.04154107 0 -717.52546250 0 -32139.43137857 0 144
0.01250000 0.01249090 61564.68471803 0 161.33151596 0 11162.63250289 0 4166.41542639 0 -12452.99024402 0 169
0.01350000 0.01339930 70064.54698147 0 -11702.85378244 0 1601.74840467 0 2209.38200615 0 -7611.40806392 0 180
0.01450000 0.01448870 82128.79320183 0 -8858.66234224 0 -3837.78996847 0 -5784.66265907 0 -47769.81908747 0 267
0.01550000 0.01550050 84072.62316583 0 6233.38244902 0 -5109.71559681 0 -19837.58885328 0 -33112.77435501 0 238
0.01650000 0.01653350 77080.06395200 0 2707.38957327 0 4937.92786621 0 -7768.74009700 0 -21599.29460387 0 315
0.01750000 0.01747870 75489.71753367 0 1872.21055076 0 2210.67818571 0 10581.39482932 0 -9077.66176579 0 297
0.01850000 0.01844180 81146.77241306 0 3171.15822765 0 23650.55368771 0 -6634.26442537 0 -28070.41615727 0 388
0.01950000 0.01947590 69525.75369635 0 6898.35551937 0 6272.71820343 0 -558.76213961 0 -5957.46097035 0 399
0.02050000 0.02045430 68973.66907842 0 -1017.20547321 0 23924.17939071 0 2119.16571154 0 -10495.53941002 0 462
0.02150000 0.02154770 63371.09767903 0 -242.19005319 0 16434.45842185 0 5226.75621766 0 4386.83185980 0 571
0.02250000 0.02255340 70400.67490246 0 -1744.73458596 0 14579.60349577 0 11626.18146582 0 1003.27373980 0 510
0.02350000 0.02348930 71547.90366285 0 -462.26047257 0 12550.75293999 0 -5754.05963986 0 8064.18116115 0 555
0.02450000 0.02439640 72380.31457307 0 4010.26972714 0 25039.22335345 0 -3937.37610349 0 2297.29154052 0 592
0.02550000 0.02547300 67365.85718968 0 2216.40114803 0 23303.88057705 0 -6272.53146570 0 2327.88357516 0 837
0.02650000 0.02652900 64019.29730705 0 3460.73353004 0 31310.31584013 0 2633.81490612 0 4942.42055639 0 723
0.02750000 0.02749970 61655.52713327 0 1562.03917478 0 30064.55546368 0 5872.98960720 0 5816.77056472 0 826
0.02850000 0.02848090 65915.23453459 0 391.91417130 0 36287.42567674 0 6048.84162965 0 11570.37983711 0 831
0.02950000 0.02946900 58541.18111501 0 -1113.64892201 0 25909.20150189 0 7404.07425645 0 10782.86287503 0 996
0.03050000 0.03053250 60646.81383313 0 -1109.50773815 0 28464.65246721 0 4549.27171914 0 23155.47900147 0 1041
0.03150000 0.03150510 60062.32472607 0 3110.90784704 0 22336.02988690 0 3704.97550139 0 15848.65116609 0 1036
0.03250000 0.03246190 59056.24772335 0 4886.91551114 0 24922.45734691 0 -3846.11627449 0 14106.71764614 0 1059
0.03350000 0.03345080 54397.58064588 0 1687.59283939 0 28649.63266948 0 -1594.99289253 0 10585.41518288 0 1302
0.03450000 0.03451200 49901.37539688 0 3358.09368384 0 30069.27882989 0 -2148.84602665 0 3257.73862874 0 1339
0.03550000 0.03553350 44678.32098018 0 2814.33537192 0 30646.95750195 0 -212.00005391 0 9173.41428499 0 1365
0.03650000 0.03647120 48096.17073886 0 -1225.34005602 0 28870.09304119 0 9454.55343563 0 3304.12647875 0 1308
0.03750000 0.03744890 46631.59767659 0 -2574.10276957 0 20609.25507712 0 5788.85876580 0 1199.51532588 0 1579
0.03850000 0.03847530 47964.35586789 0 -166.13067572 0 16702.59183856 0 5975.77225284 0 2003.19059422 0 1662
0.03950000 0.03950240 47026.60290662 0 2045.94255071 0 13456.21125787 0 -1245.74939188 0 6326.86116168 0 1683
0.04050000 0.04050350 46083.68719624 0 37.21748944 0 15047.54628773 0 -3184.92189710 0 551.15422464 0 1822
0.04150000 0.04152450 43867.32998650 0 2850.54052315 0 16900.53383648 0 -77.05392067 0 -7114.91636782 0 1887
0.04250000 0.04250150 41664.04441813 0 1612.46934751 0 16682.49007074 0 -1314.74349226 0 835.51844580 0 1920
0.04350000 0.04349210 41361.30959779 0 -705.38091905 0 17326.29586973 0 63.17502306 0 -3161.93118668 0 2005
0.04450000 0.04448520 39669.24603736 0 1553.08674813 0 19619.10570463 0 -536.24047045 0 -7438.89535153 0 2151
0.04550000 0.04548030 38156.89008436 0 1306.43915539 0 14828.84344764 0 2807.74462837 0 -3577.79612004 0 2274
0.04650000 0.04648670 39312.35727419 0 -920.03923952 0 18939.38035330 0 62.96840325 0 -943.14748486 0 2311
0.04750000 0.04749250 36830.06356226 0 582.61294206 0 16426.54952959 0 1606.07632626 0 -4865.03424256 0 2568
0.04850000 0.04851840 37091.05700679 0 683.36014640 0 16546.06167928 0 733.32237633 0 -2866.57799912 0 2493
0.04950000 0.04949480 37628.09276029 0 -108.49550215 0 10760.79486872 0 2978.36799428 0 -2291.42577876 0 2644
0.05050000 0.05050630 37871.73058015 0 -66.75050143 0 13420.84093416 0 2833.92086483 0 -4108.66952833 0 2829
0.05150000 0.05149060 37608.54022110 0 -734.19125602 0 8801.10318191 0 1699.46716235 0 -1128.89550876 0 2784
0.05250000 0.05249300 37193.65291470 0 600.65949635 0 10294.09333345 0 -552.20105441 0 -2598.68624300 0 3055
0.05350000 0.05348950 35872.09898744 0 698.58366554 0 7072.79053197 0 -1891.32370706 0 -2663.73688183 0 3009
0.05450000 0.05448610 36404.96060336 0 416.69097322 0 9979.06677639 0 651.30826207 0 -6026.03765697 0 3336
0.05550000 0.05550870 35268.05734119 0 522.80963355 0 8222.04045372 0 -2117.10061189 0 -6693.06484240 0 3349
0.05650000 0.05647670 32815.75151241 0 1546.95735663 0 10106.91621667 0 -59.03482781 0 -6296.48881850 0 3324
0.05750000 0.05747970 33989.67278418 0 -148.49933827 0 10605.98928733 0 -284.31808595 0 -5815.61718460 0 3639
0.05850000 0.05849280 33164.95107477 0 -580.94768085 0 8323.25230548 0 619.23440859 0 -7385.65312823 0 3846
0.05950000 0.05951020 33261.50546776 0 986.18394178 0 8306.69855460 0 2639.13143925 0 -7593.62404091 0 3787
0.06050000 0.06049470 33749.55002755 0 -317.20699472 0 8121.55358374 0 -4.52237050 0 -4288.33319747 0 3930
0.06150000 0.06148310 32931.52890742 0 170.31689633 0 9033.76741376 0 907.09392074 0 -5795.91086139 0 4083
0.06250000 0.06249100 33193.73065493 0 203.81435042 0 7587.94501689 0 843.14832991 0 -788.83950461 0 4303
0.06350000 0.06350600 31716.41548847 0 214.28814037 0 7468.31203690 0 -502.42006993 0 -1606.81229263 0 4470
0.06450000 0.06451750 31806.26929218 0 1333.81271026 0 9949.94667448 0 -664.68088073 0 -2572.34523795 0 4479
0.06550000 0.06550280 31456.74019264 0 634.55129659 0 8515.31755707 0 815.09263308 0 1312.55756232 0 4636
0.06650000 0.06648880 29888.03338230 0 -503.59651765 0 10241.13670904 0 906.28106237 0 543.50017447 0 4653
0.06750000 0.06749660 30567.64888791 0 186.82121663 0 8380.97623440 0 702.06138122 0 515.52246810 0 5220
0.06850000 0.06852730 30632.56771187 0 536.17566147 0 8491.98632490 0 942.53015188 0 -73.30565497 0 5029
0.06950000 0.06949320 29690.97015019 0 327.89278692 0 8374.02299995 0 -861.65843317 0 848.49671830 0 5040
0.07050000 0.07048030 29337.37675880 0 942.50818274 0 9609.63363134 0 -2047.99666578 0 -1248.34175101 0 5475
0.07150000 0.07148790 27568.31134457 0 818.66042226 0 10302.17797887 0 522.50975472 0 485.57632633 0 5509
0.07250000 0.07249820 27209.55520407 0 196.31737963 0 9005.87758398 0 21.86281450 0 -958.09858660 0 5916
0.07350000 0.07351270 27171.54858294 0 315.10454753 0 9547.76851856 0 2298.13735261 0 -1442.79065484 0 5721
0.07450000 0.07449140 27308.74589448 0 130.50331301 0 8459.23032946 0 779.19175451 0 1115.40645363 0 6028
0.07550000 0.07549160 26552.34822653 0 127.47486635 0 8542.88883424 0 91.71931368 0 -29.33770630 0 6183
0.07650000 0.07648840 25923.70113770 0 395.56764014 0 8272.65736417 0 -29.24686388 0 -324.04818652 0 6330
0.07750000 0.07749960 25318.56103419 0 755.32117984 0 8299.99796533 0 -759.71830424 0 -208.08954607 0 6583
0.07850000 0.07848650 24509.32757212 0 666.53727349 0 9568.84791334 0 -624.56632012 0 -963.00429672 0 6549
0.07950000 0.07947320 23664.17455771 0 708.56754356 0 9320.67346501 0 387.85537173 0 -595.70435566 0 6828
0.08050000 0.08048110 23147.78980066 0 212.02531842 0 8128.37500331 0 1079.70988811 0 -230.27289039 0 7147
0.08150000 0.08149960 23487.54263061 0 -708.33576908 0 7535.39482166 0 1412.13271277 0 -1641.41369626 0 7386
0.08250000 0.08250610 23272.46469946 0 295.28288630 0 7089.99237263 0 1206.34773003 0 94.86430665 0 7227
0.08350000 0.08350160 22010.00777269 0 863.88610449 0 6920.75306287 0 -1848.57175057 0 -731.09140964 0 7798
0.08450000 0.08449610 22274.73597190 0 530.67678443 0 7486.61233482 0 594.60919377 0 441.29421888 0 7371
0.08550000 0.08548940 21862.04558002 0 -331.13213738 0 7406.42495498 0 1036.90191030 0 -299.03192092 0 8256
0.08650000 0.08650700 22045.92732503 0 139.13938397 0 6487.00524535 0 1212.75173584 0 -63.43261129 0 8037
0.08750000 0.08749060 21672.12232009 0 58.04852303 0 6096.86618098 0 -267.41722258 0 124.93193780 0 8155
0.08850000 0.08849210 21044.35399706 0 748.98088454 0 6771.48370606 0 -869.29600649 0 -653.99728543 0 8718
0.08950000 0.08949900 20139.44490781 0 973.22544151 0 7860.52718549 0 -484.32738043 0 -89.95255502 0 8571
0.09050000 0.09049190 19583.62553520 0 458.20386991 0 7846.63170118 0 -674.07378874 0 -1066.27246047 0 8932
0.09150000 0.09150830 19052.96083379 0 -9.99024907 0 8409.90959857 0 547.06356981 0 -413.45491813 0 9285
0.09250000 0.09250820 19407.87237389 0 -264.39426820 0 7384.79633157 0 1018.58293861 0 -821.00562850 0 9204
0.09350000 0.09350330 19227.83522929 0 161.16894429 0 6919.22620728 0 -145.05677322 0 -1483.08206707 0 9349
0.09450000 0.09448040 18662.78881570 0 426.17834855 0 7221.31293784 0 -480.28066389 0 -772.69547829 0 9564
0.09550000 0.09549270 18473.96401303 0 202.50608782 0 7224.48747931 0 690.43970343 0 -1148.62380111 0 10155
0.09650000 0.09649430 18451.55548496 0 -136.94576483 0 6900.56341846 0 881.62179538 0 -213.19078157 0 9913
0.09750000 0.09749140 18320.17999689 0 423.51788507 0 6488.02681060 0 279.12458004 0 -817.37962109 0 10476
0.09850000 0.09850240 18385.97758665 0 123.56765388 0 6439.54090722 0 464.92093605 0 42.34355008 0 10575
0.09950000 0.09950330 17590.25514886 0 268.25205009 0 6375.18229647 0 -12.03920139 0 -103.90834464 0 10882
0.10050000 0.10051200 17256.10445094 0 154.71770481 0 5965.38084718 0 452.37325879 0 547.58204164 0 10875
0.10150000 0.10150300 17492.93183579 0 243.54994327 0 5517.21028586 0 547.45681751 0 229.19969765 0 11118
0.10250000 0.10250800 16602.08299944 0 1.93376810 0 5273.61640429 0 304.69666500 0 705.96310140 0 11575
0.10350000 0.10349800 16475.76041476 0 435.87772614 0 5474.07386933 0 -304.30012193 0 -210.61160393 0 11364
0.10450000 0.10450100 15739.90389753 0 398.59938217 0 5239.46536814 0 -49.17167024 0 830.11842992 0 12093
0.10550000 0.10551000 15626.10372559 0 352.58940146 0 5823.17457054 0 290.61444296 0 481.48347459 0 12067
0.10650000 0.10649700 15355.00447428 0 272.51076888 0 5446.60145331 0 -112.21619658 0 790.62998994 0 12054
0.10750000 0.10749900 15212.53456790 0 180.92799344 0 5812.65135001 0 579.44608978 0 292.64219505 0 12807
0.10850000 0.10850100 14673.30189988 0 242.29880046 0 5769.82250151 0 -195.62315464 0 887.96099222 0 12736
0.10950000 0.10950300 14647.48815432 0 195.98784245 0 6043.14063648 0 -96.34458765 0 1278.72507877 0 12933
0.11050000 0.11050200 14479.86357673 0 -165.75500334 0 5843.41913781 0 785.46504392 0 1856.48064283 0 13428
0.11150000 0.11150900 14514.90436326 0 -128.25586946 0 5762.07837784 0 392.02511548 0 1216.47550595 0 13453
0.11250000 0.11250000 14543.90363488 0 74.73134264 0 4922.25288114 0 690.78681592 0 2041.55970625 0 13668
0.11350000 0.11349100 14558.29342496 0 227.64538063 0 5333.07589568 0 -66.21555275 0 1896.28873386 0 13791
0.11450000 0.11448600 14215.57476042 0 168.53410020 0 5090.18502676 0 96.82351502 0 2084.04803300 0 14205
0.11550000 0.11549300 14362.76803301 0 237.40737029 0 5012.42523746 0 105.19584639 0 1451.24877573 0 14776
0.11650000 0.11649800 14126.38003106 0 -170.18947529 0 4818.73426913 0 318.40870696 0 1619.48848939 0 14553
0.11750000 0.11747300 13844.62574435 0 68.83075979 0 4872.77836623 0 -162.36516424 0 1287.95211974 0 14568
0.11850000 0.11849100 13520.69069892 0 403.35899747 0 4208.29960164 0 384.82472816 0 1401.82918369 0 16015
0.11950000 0.11950300 13697.10293458 0 -287.61345773 0 4609.74179120 0 594.23022602 0 1413.29707746 0 15270
0.12050000 0.12050700 13362.29316230 0 209.21546476 0 3879.23476082 0 201.79758289 0 580.77741998 0 15999
0.12150000 0.12150000 13464.77922448 0 243.72569643 0 3571.71066683 0 -322.69818255 0 1175.36025078 0 15670
0.12250000 0.12250700 13131.39744664 0 118.07426913 0 4053.54894311 0 34.73750249 0 872.63861192 0 16887
0.12350000 0.12352200 13018.25634905 0 203.23546344 0 3716.53127174 0 -185.38004071 0 453.55190343 0 16407
0.12450000 0.12449800 12606.55456870 0 110.43559736 0 3733.29372950 0 269.58008492 0 372.13864528 0 16306
0.12550000 0.12549900 12657.08360258 0 130.50111610 0 4360.17230215 0 -359.93478514 0 51.42559469 0 17523
0.12650000 0.12650100 12519.88629104 0 264.87099865 0 3638.07945437 0 108.96597140 0 275.41399142 0 17154
0.12750000 0.12750600 12361.59860014 0 -82.48963641 0 4143.93000631 0 -18.48011537 0 147.64254161 0 18007
0.12850000 0.12850300 12367.64011506 0 -22.26254310 0 4034.28200280 0 -155.23068435 0 -381.76662315 0 17496
0.12950000 0.12949900 12202.43214344 0 288.33953797 0 4254.88517396 0 72.95821294 0 -152.48234429 0 18405
0.13050000 0.13049000 12091.81749754 0 17.13066063 0 4194.83251565 0 187.86694794 0 560.68004598 0 18100
0.13150000 0.13148800 12302.61144538 0 -67.07201987 0 4006.00771298 0 431.93316613 0 105.27284825 0 19059
0.13250000 0.13249300 12209.68196134 0 180.59845627 0 3731.74490477 0 197.71351881 0 348.17030791 0 18957
0.13350000 0.13349100 12021.40638730 0 64.33828929 0 3726.84578540 0 225.60005322 0 660.29803627 0 19468
0.13450000 0.13450700 11898.37917439 0 103.29771225 0 3882.91459263 0 34.37698881 0 1065.23002453 0 19953
0.13550000 0.13551000 11615.63627614 0 84.66897561 0 3485.72343267 0 225.75164032 0 961.59497606 0 19956
0.13650000 0.13649900 11734.15981429 0 28.87613456 0 3512.30609831 0 461.97157831 0 719.19072370 0 19723
0.13750000 0.13749600 11591.47021646 0 138.67034272 0 3101.52702206 0 17.53687013 0 847.02808095 0 20946
0.13850000 0.13851100 11448.34123573 0 94.29255965 0 2854.05558637 0 -126.84874571 0 817.17311113 0 20955
0.13950000 0.13949800 11218.21444015 0 126.87950252 0 3262.13245777 0 54.61891978 0 504.87072807 0 20506
0.14050000 0.14048300 11233.70268749 0 26.52521633 0 2450.84488063 0 333.64321067 0 254.04570238 0 21447
0.14150000 0.14148400 10919.52194252 0 217.53188466 0 2850.69430717 0 -240.93781191 0 -23.02047860 0 21771
0.14250000 0.14249400 10664.65788948 0 431.18841211 0 2928.86052565 0 -341.37415285 0 141.89101940 0 22470
0.14350000 0.14350900 10605.49498156 0 -19.61427249 0 3080.91996390 0 211.04769146 0 1.85851279 0 22519
0.14450000 0.14449900 10427.97330407 0 -110.17196762 0 3007.52104991 0 57.77028381 0 -193.56684266 0 22218
0.14550000 0.14550500 10362.64805093 0 76.05663132 0 2669.42689043 0 159.02146035 0 -250.86566861 0 23559
0.14650000 0.14650700 10361.28596393 0 23.82894315 0 2369.60298182 0 210.51933352 0 10.43152132 0 23044
0.14750000 0.14750500 10383.48578512 0 72.30199457 0 2676.06157227 0 308.77523680 0 -18.43057495 0 23649
0.14850000 0.14849900 10189.19066530 0 276.72335247 0 2786.45652671 0 -193.56464574 0 299.50974983 0 23640
0.14950000 0.14949500 9976.77100072 0 156.59167289 0 2753.67856213 0 7.21808347 0 332.07021988 0 24457
0.15050000 0.15050000 9851.85444133 0 -32.10406105 0 2975.02868421 0 243.26434439 0 648.26663392 0 24591
0.15150000 0.15149900 9752.82851951 0 21.61654038 0 2556.24185455 0 103.22202855 0 378.10985894 0 25020
0.15250000 0.15250500 9867.54041097 0 215.51951096 0 2606.00196834 0 102.56646926 0 334.15728867 0 25297
0.15350000 0.15350100 9589.49890979 0 46.04348366 0 2630.55248806 0 -409.10502739 0 271.09485748 0 25452
0.15450000 0.15450400 9577.61360226 0 217.55275535 0 3161.22817404 0 20.80412139 0 187.29135634 0 26061
0.15550000 0.15549900 9338.43551888 0 -73.57576561 0 2628.35557355 0 -103.60231445 0 430.98739443 0 26128
0.15650000 0.15649500 9571.69291764 0 -74.47331503 0 2534.21778652 0 790.32022500 0 223.73597125 0 26331
0.15750000 0.15749700 9611.02867205 0 -32.83310714 0 2420.91192035 0 79.28159199 0 210.53141655 0 27345
0.15850000 0.15849900 9519.34044472 0 222.69133840 0 2502.83486266 0 -106.09493366 0 68.32338238 0 26980
0.15950000 0.15949700 9291.49844024 0 160.40661495 0 2260.49322237 0 -212.80961690 0 339.29037944 0 27777
0.16050000 0.16050000 9140.73518156 0 -38.80487002 0 2550.14541677 0 169.38430612 0 599.63463573 0 28224
0.16150000 0.16150500 9196.91028574 0 201.63610967 0 2556.59336087 0 11.28335296 0 -76.24347890 0 28075
0.16250000 0.16249700 9064.08483408 0 132.21361096 0 2777.97643668 0 -204.06479867 0 496.23905093 0 28590
0.16350000 0.16349900 8849.29250183 0 24.47472617 0 2469.93606778 0 -87.20245743 0 -70.01116196 0 29163
0.16450000 0.16449100 8754.04527298 0 101.34190910 0 2845.56451177 0 136.48331432 0 298.07626311 0 28996
0.16550000 0.16550500 8689.74158508 0 193.87880452 0 2579.11173466 0 51.06617947 0 -97.76060891 0 30777
0.16650000 0.16650700 8632.90740655 0 103.02749177 0 2805.81134360 0 -35.41514077 0 -187.62858272 0 29211
0.16750000 0.16749900 8307.72011985 0 234.55247987 0 2748.37301357 0 -142.64126571 0 -87.28912571 0 30922
0.16850000 0.16850800 8113.52386118 0 13.55737917 0 2667.82314283 0 208.83869392 0 -204.53274146 0 30867
0.16950000 0.16949900 8173.78522637 0 -63.85167273 0 2393.13193629 0 373.95549359 0 166.89959580 0 30852
0.17050000 0.17049200 8196.24867730 0 -98.20844993 0 2071.80023457 0 383.27700188 0 219.45967715 0 31257
0.17150000 0.17149500 8146.67530124 0 32.35275178 0 1761.65082773 0 209.74931498 0 94.16777491 0 32608
0.17250000 0.17250900 8198.68725241 0 209.67681680 0 1782.27985504 0 -29.36967140 0 31.60008886 0 32361
0.17350000 0.17350400 8081.06444921 0 65.39632333 0 1761.54098201 0 66.06824963 0 382.68822879 0 32508
0.17450000 0.17449800 7926.91794217 0 -103.00387494 0 1682.33122912 0 -46.68201686 0 175.47085779 0 32791
0.17550000 0.17549800 7911.18803424 0 110.36639455 0 1732.71746355 0 -234.43824032 0 -219.72330689 0 33633
0.17650000 0.17650100 7869.01826010 0 200.84412199 0 1881.22888485 0 -41.32857557 0 89.80261561 0 33984
0.17750000 0.17750300 7824.08037367 0 -31.74036186 0 1869.50834591 0 236.48686310 0 111.72079235 0 34069
0.17850000 0.17849800 7880.77175276 0 -19.45895064 0 1891.67521338 0 290.96594928 0 -110.31806243 0 34536
