### header ###
fiducial parameters:
Omega_m = 0.31
Omega_nu = 0
Omega_de = 0.69
Omega_k = 0
H_0 = 100
w_de = -1
zeff = 0
beta = 0
fgrowth = 0
b_1 = 2
gamma = 0.55
Lx = 3500 Ly = 3500 Lz = 3500
nx = 700 ny = 700 nz = 700
xoffset = -983.599254 yoffset = -42.9823471 zoffset = 800.977702
bins = 400 dk = 0.001
kx_ny = 0.628318531 ky_ny = 0.628318531 kz_ny = 0.628318531
############################
A(data) = 9.020968 (not used)
A(ran) = 9.02688967 (used)
Ngal = 502059
weighted Ngal = 0
Nran = 25229228
weighted Nran = 0
SN(data) = 6743.33318
SN(ran) = 133.997958
SN(data+ran) = 6877.33114
############################
13 columns: k_central k_mean P_0(k) sigma^{lin}_{P_0(k)} P^img_1(k) sigma^{lin}_{P_1(k)} P_2(k) sigma^{lin}_{P_2(k)} P^img_3(k) sigma^{lin}_{P_3(k)} P_4(k) sigma^{lin}_{P_4(k)} N_modes
### header ###
0.00050000 0 0 0 0 0 0 0 0 0 0 0 0
0.00150000 0.00179520 23805.65585256 0 -16442.80669701 0 18745.94203014 0 -73541.71343209 0 -29865.07562561 0 3
0.00250000 0.00253879 30930.13978309 0 -5253.41577532 0 -6031.36517467 0 -7181.39500108 0 8462.03139547 0 6
0.00350000 0.00331552 41607.80340652 0 -11954.40049455 0 15553.38585510 0 -38170.95033726 0 15979.69711698 0 7
0.00450000 0.00420575 36038.84479923 0 -3038.15702284 0 -309.65510107 0 7032.51010431 0 7917.24053373 0 24
0.00550000 0.00557378 50779.48212903 0 1100.99469440 0 29566.07555994 0 8192.00863228 0 9335.22802368 0 45
0.00650000 0.00659388 48534.34533913 0 -1516.28842998 0 -997.75838591 0 1408.06842091 0 4563.96907725 0 40
0.00750000 0.00754703 56060.97447187 0 4152.46501921 0 54570.69750976 0 27421.66730061 0 18135.63917752 0 57
0.00850000 0.00846663 71197.05641461 0 -12104.88913891 0 -4247.07514285 0 1067.74329474 0 -14229.19563042 0 75
0.00950000 0.00948925 78972.26642486 0 -8098.37613560 0 31922.15653292 0 -1558.10669780 0 10956.07860007 0 112
0.01050000 0.01054430 77167.28145829 0 12507.91310692 0 20720.74848882 0 -26486.77032822 0 -22672.37749934 0 105
0.01150000 0.01145670 71836.13884739 0 9241.94703332 0 45237.98495320 0 -6074.38076090 0 19683.14576278 0 144
0.01250000 0.01249090 60884.51998379 0 4121.33474051 0 57111.09961065 0 5659.07604075 0 3466.81898325 0 169
0.01350000 0.01339930 75322.53233898 0 -8657.32611140 0 51594.31772312 0 44678.43082590 0 15676.52291374 0 180
0.01450000 0.01448870 82960.32534624 0 -13793.65732757 0 17400.33188893 0 29088.35649838 0 11146.70487264 0 267
0.01550000 0.01550050 99637.21328496 0 -3692.51899608 0 7548.03806470 0 7692.25451812 0 9785.97995956 0 238
0.01650000 0.01653350 94866.06418425 0 6772.40641016 0 14497.76843003 0 -22193.88951770 0 10736.79357763 0 315
0.01750000 0.01747870 90387.32440566 0 7547.79640410 0 33945.18526522 0 -18715.62460982 0 9612.52257393 0 297
0.01850000 0.01844180 77754.62655422 0 6754.17201967 0 35869.79222720 0 1369.92998491 0 9312.10549840 0 388
0.01950000 0.01947590 82877.94105188 0 -179.12872046 0 44207.19266216 0 -1654.07890844 0 -6074.39174547 0 399
0.02050000 0.02045430 80641.81161150 0 4419.59883981 0 50936.01228832 0 1077.60414555 0 -24103.11807806 0 462
0.02150000 0.02154770 74245.38515165 0 3576.81849308 0 53394.46947775 0 -7533.02215398 0 -2204.06547302 0 571
0.02250000 0.02255340 71030.42044855 0 108.89039754 0 51478.97971101 0 7437.89575542 0 -4274.66838917 0 510
0.02350000 0.02348930 72111.85161918 0 2554.76992182 0 59540.99691136 0 14180.09459098 0 -11612.89013300 0 555
0.02450000 0.02439640 67634.10045212 0 2320.90837157 0 44020.01554538 0 2626.66394937 0 6872.73949611 0 592
0.02550000 0.02547300 72518.50049614 0 1142.91182337 0 45249.62860013 0 10200.55969792 0 3246.40254984 0 837
0.02650000 0.02652900 64028.41450229 0 2134.51115943 0 46982.11538766 0 6659.08955941 0 9018.81741048 0 723
0.02750000 0.02749970 66530.04106197 0 -920.99599580 0 33070.59359630 0 6950.25762482 0 5782.46574455 0 826
0.02850000 0.02848090 65156.85964358 0 -3835.04382532 0 31235.40105513 0 16761.46914760 0 18346.65281681 0 831
0.02950000 0.02946900 66932.51580135 0 -1477.20532074 0 25171.14807015 0 3917.13153622 0 6637.14238339 0 996
0.03050000 0.03053250 64512.06523305 0 5337.76630817 0 16154.46166675 0 -1344.17116221 0 11466.35593476 0 1041
0.03150000 0.03150510 60851.67611177 0 5429.78407268 0 25638.21209631 0 -5043.25893269 0 4729.70430836 0 1036
0.03250000 0.03246190 55489.55700619 0 5402.33362580 0 24529.97856857 0 -3650.74466655 0 4310.26938891 0 1059
0.03350000 0.03345080 53582.96474324 0 -120.80173851 0 29317.38483670 0 6572.68491148 0 264.18116750 0 1302
0.03450000 0.03451200 54487.32460387 0 -2358.98090013 0 22000.89057745 0 -1679.40933282 0 -2734.55442126 0 1339
0.03550000 0.03553350 49381.36573088 0 1728.85089401 0 22363.60116408 0 2089.93576390 0 -2036.63861773 0 1365
0.03650000 0.03647120 52726.05823617 0 2424.08646182 0 24358.17985340 0 -3803.70483975 0 -5391.72252869 0 1308
0.03750000 0.03744890 48289.82875347 0 460.20525904 0 21628.73325839 0 2259.84513259 0 -5336.25043715 0 1579
0.03850000 0.03847530 49866.00507317 0 -280.47348555 0 24401.56891510 0 3647.20763418 0 -6435.00427875 0 1662
0.03950000 0.03950240 47797.28051892 0 3530.87002597 0 25019.01173990 0 -2336.59434121 0 -5350.42053578 0 1683
0.04050000 0.04050350 45707.46558532 0 2581.01206572 0 26726.34385621 0 -2290.77768898 0 -3252.11452758 0 1822
0.04150000 0.04152450 43315.90444291 0 346.85435611 0 24954.97168175 0 2719.34078824 0 -5482.31229877 0 1887
0.04250000 0.04250150 42051.58013880 0 -1382.00203018 0 24233.83449178 0 5271.92478012 0 -743.38424481 0 1920
0.04350000 0.04349210 42317.73633245 0 549.33078559 0 22827.69935564 0 4815.47185107 0 -795.61588744 0 2005
0.04450000 0.04448520 40425.20432241 0 1042.81380727 0 17936.70856808 0 3320.08706271 0 3756.52610051 0 2151
0.04550000 0.04548030 41557.49406409 0 1526.52605163 0 16742.79537421 0 4234.82734442 0 2430.13896132 0 2274
0.04650000 0.04648670 40859.09493937 0 -284.80140715 0 15223.29944903 0 2379.13759082 0 5473.62350186 0 2311
0.04750000 0.04749250 38270.25087340 0 185.15595543 0 14271.81577204 0 -1165.58398118 0 2871.07068930 0 2568
0.04850000 0.04851840 37167.72932341 0 2088.41989288 0 14628.04546085 0 -1401.31290877 0 5710.07741124 0 2493
0.04950000 0.04949480 35610.66616000 0 23.02608074 0 15369.94349299 0 193.15272427 0 6757.28065371 0 2644
0.05050000 0.05050630 37187.50155406 0 -300.93444890 0 15297.88469686 0 2885.26275708 0 1548.87965683 0 2829
0.05150000 0.05149060 37260.10957882 0 114.42519412 0 13610.10511974 0 1786.11347087 0 2651.80763601 0 2784
0.05250000 0.05249300 36448.89889369 0 737.32295766 0 14812.80597167 0 -1001.76665644 0 3099.36306126 0 3055
0.05350000 0.05348950 35021.56353247 0 403.55012904 0 15253.17748645 0 1528.56918213 0 6453.20571551 0 3009
0.05450000 0.05448610 35474.45746000 0 1345.67604865 0 16137.21588780 0 -988.88065435 0 2856.45022320 0 3336
0.05550000 0.05550870 33815.12792586 0 713.46556447 0 16402.16377846 0 -1191.37575760 0 2504.36171825 0 3349
0.05650000 0.05647670 34132.58207346 0 -597.13564547 0 16886.80312075 0 854.62830672 0 1338.15161643 0 3324
0.05750000 0.05747970 33705.17235432 0 -582.80627053 0 17004.77743027 0 742.95914186 0 914.21851451 0 3639
0.05850000 0.05849280 33580.49745552 0 908.63176090 0 15315.46001299 0 1973.92769287 0 908.55486889 0 3846
0.05950000 0.05951020 33877.30060667 0 12.16178922 0 15475.50523550 0 645.62154884 0 3447.98044128 0 3787
0.06050000 0.06049470 34273.84367686 0 -181.35089949 0 13095.91727720 0 1540.60827368 0 -45.21403858 0 3930
0.06150000 0.06148310 33782.94312820 0 1359.52759468 0 17324.64818384 0 -832.44825776 0 -909.46219459 0 4083
0.06250000 0.06249100 32931.85844459 0 1319.46685847 0 15181.22853605 0 -1951.58507224 0 2760.92838003 0 4303
0.06350000 0.06350600 31067.00755746 0 -413.04629203 0 17664.84039669 0 -438.16581261 0 1301.69382003 0 4470
0.06450000 0.06451750 31404.23393571 0 -116.74952968 0 16687.21343695 0 3041.93571581 0 2518.12538769 0 4479
0.06550000 0.06550280 32018.82077163 0 192.25089086 0 16110.96275933 0 1619.33470537 0 1844.16693696 0 4636
0.06650000 0.06648880 31569.55175305 0 6.62264275 0 15725.29441600 0 437.43533854 0 3998.26358931 0 4653
0.06750000 0.06749660 31507.48891797 0 302.45471374 0 13584.73075707 0 2016.70161850 0 3534.16539775 0 5220
0.06850000 0.06852730 31122.47964899 0 -112.03824650 0 12731.77869613 0 908.05946467 0 3145.42137410 0 5029
0.06950000 0.06949320 31545.82507628 0 720.78128981 0 13329.88867319 0 985.22608705 0 2236.99722162 0 5040
0.07050000 0.07048030 29734.02967471 0 1453.72030456 0 12833.71552969 0 -436.08753148 0 3472.17945467 0 5475
0.07150000 0.07148790 28183.66710058 0 212.24171450 0 12733.09684484 0 -248.74454765 0 3344.51675213 0 5509
0.07250000 0.07249820 28997.18454596 0 -349.14463950 0 10917.78638005 0 1944.85152924 0 380.28700122 0 5916
0.07350000 0.07351270 28463.44416423 0 68.54900550 0 11116.60714377 0 553.09739553 0 264.18006904 0 5721
0.07450000 0.07449140 27638.06338047 0 812.46841869 0 10223.67123863 0 -699.91170037 0 1047.52838582 0 6028
0.07550000 0.07549160 27345.32452117 0 711.93870889 0 10383.57366170 0 632.55869513 0 960.31307644 0 6183
0.07650000 0.07648840 26556.63220983 0 -422.53366737 0 10129.81905050 0 701.52753099 0 1691.78894612 0 6330
0.07750000 0.07749960 26219.73536876 0 1005.32565796 0 9540.99103728 0 1754.56577842 0 613.68500252 0 6583
0.07850000 0.07848650 25681.05192937 0 728.95161490 0 11232.60423023 0 -767.86336481 0 2819.03676899 0 6549
0.07950000 0.07947320 24821.83866206 0 1001.20754170 0 11562.14140767 0 -188.46450869 0 2962.45134861 0 6828
0.08050000 0.08048110 23470.95592601 0 -151.64202449 0 10951.31129557 0 340.36796601 0 4634.18246519 0 7147
0.08150000 0.08149960 23864.64300732 0 -300.30283597 0 10197.14349585 0 1885.76551333 0 3292.93319929 0 7386
0.08250000 0.08250610 24020.18455507 0 522.34828150 0 10793.39708014 0 1296.46516349 0 3731.08583041 0 7227
0.08350000 0.08350160 23775.33843224 0 274.43416754 0 9745.43590216 0 -614.53410998 0 3706.33758839 0 7798
0.08450000 0.08449610 22842.19899145 0 316.13819581 0 9548.05411745 0 -504.45001894 0 2913.13061772 0 7371
0.08550000 0.08548940 22602.18608055 0 610.67852500 0 9102.56379184 0 540.78588658 0 1733.23373846 0 8256
0.08650000 0.08650700 22031.53753495 0 -77.93905753 0 9138.13183785 0 -476.09224636 0 1080.61831226 0 8037
0.08750000 0.08749060 21943.99049148 0 259.24909441 0 9037.71087532 0 1072.92801300 0 1049.13323187 0 8155
0.08850000 0.08849210 20824.55269971 0 461.32019316 0 7771.58510130 0 96.57097969 0 -37.99838270 0 8718
0.08950000 0.08949900 21100.26547150 0 42.34772422 0 7092.99116094 0 1286.75480132 0 446.92600925 0 8571
0.09050000 0.09049190 20800.38664003 0 284.26645846 0 7758.24983019 0 -298.64855934 0 -150.89177818 0 8932
0.09150000 0.09150830 19851.31956900 0 790.45313833 0 7382.67630906 0 -659.40279360 0 431.75301914 0 9285
0.09250000 0.09250820 19236.51304163 0 517.62930912 0 8817.53610250 0 -607.92469266 0 1020.67000740 0 9204
0.09350000 0.09350330 18779.33513079 0 30.79470000 0 7803.17673204 0 1066.31639876 0 845.07172857 0 9349
0.09450000 0.09448040 18865.89356273 0 -132.12902975 0 8493.72188737 0 1007.53685242 0 553.70703931 0 9564
0.09550000 0.09549270 18962.77749290 0 597.50143173 0 7629.81820757 0 42.92573242 0 491.31796242 0 10155
0.09650000 0.09649430 18287.77550778 0 609.60313535 0 8234.06856069 0 -540.74963749 0 2134.84069661 0 9913
0.09750000 0.09749140 17634.19343919 0 75.26244673 0 8596.87800848 0 54.90814358 0 1393.07447934 0 10476
0.09850000 0.09850240 17300.15258699 0 -28.00352011 0 8442.90725461 0 682.03321003 0 2139.86064628 0 10575
0.09950000 0.09950330 17700.10087467 0 3.89391015 0 8265.68216058 0 813.40210736 0 1548.61602709 0 10882
0.10050000 0.10051200 17403.62726070 0 148.14673349 0 7270.40299270 0 -29.88210171 0 1788.99142889 0 10875
0.10150000 0.10150300 17000.49344697 0 426.13111489 0 7742.98127430 0 -149.59010633 0 1322.44367764 0 11118
0.10250000 0.10250800 16959.08160834 0 291.24385896 0 7532.45095620 0 17.85531289 0 1391.02036427 0 11575
0.10350000 0.10349800 16485.20714718 0 -78.47422590 0 7704.26065595 0 872.55073534 0 2115.79344776 0 11364
0.10450000 0.10450100 16292.09836120 0 -33.76141337 0 6731.33509327 0 1139.16608412 0 1425.68767533 0 12093
0.10550000 0.10551000 16324.17331313 0 205.94645596 0 6786.00531101 0 551.64523504 0 2374.57899320 0 12067
0.10650000 0.10649700 15901.04757730 0 557.03646326 0 6273.89355270 0 -426.81325685 0 1051.02916910 0 12054
0.10750000 0.10749900 15695.63607003 0 230.70128873 0 6423.23980151 0 -303.35654715 0 2313.52673879 0 12807
0.10850000 0.10850100 14772.16305312 0 45.53116320 0 6512.95080578 0 303.38620550 0 1621.57555818 0 12736
0.10950000 0.10950300 15060.50808338 0 64.87400690 0 6323.67563564 0 506.36902377 0 1000.15521965 0 12933
0.11050000 0.11050200 14842.46431764 0 271.78798401 0 5673.08137079 0 -99.20749681 0 823.21792142 0 13428
0.11150000 0.11150900 14827.41545320 0 111.25834185 0 5776.42422963 0 431.51135854 0 529.08511987 0 13453
0.11250000 0.11250000 14249.29739824 0 52.70727462 0 5350.04706032 0 -141.97120678 0 317.22127466 0 13668
0.11350000 0.11349100 14809.84013707 0 33.16945475 0 5388.42715692 0 363.73434880 0 -193.16151193 0 13791
0.11450000 0.11448600 14153.73161679 0 -93.68027957 0 4838.91292896 0 -136.45914826 0 236.62966255 0 14205
0.11550000 0.11549300 14541.26733746 0 101.70824460 0 4889.83740745 0 257.38720935 0 -406.28418915 0 14776
0.11650000 0.11649800 14410.22138656 0 179.16387109 0 4711.34908757 0 107.70735907 0 -227.37296323 0 14553
0.11750000 0.11747300 14140.44028396 0 -107.96912143 0 4735.78976157 0 -91.87298785 0 -745.43396606 0 14568
0.11850000 0.11849100 14406.70632333 0 136.93258334 0 4398.99178165 0 570.21245807 0 -1029.63451708 0 16015
0.11950000 0.11950300 14234.13868808 0 279.32779463 0 4551.23795763 0 17.20063236 0 -758.52098583 0 15270
0.12050000 0.12050700 13684.14113893 0 290.88136807 0 4401.83678595 0 -149.27704601 0 80.62566429 0 15999
0.12150000 0.12150000 13375.03526650 0 -49.32589364 0 4267.37463298 0 -117.80734402 0 353.23749124 0 15670
0.12250000 0.12250700 13456.10141215 0 122.94153324 0 4298.15340535 0 787.53563585 0 -696.00558636 0 16887
0.12350000 0.12352200 13122.82948003 0 510.68925617 0 4505.69591971 0 0.88710090 0 106.63262849 0 16407
0.12450000 0.12449800 12758.36136178 0 337.71189636 0 4499.30289846 0 -155.80847287 0 607.06350217 0 16306
0.12550000 0.12549900 12530.32163499 0 -110.63222121 0 4683.89864069 0 236.98116887 0 212.16921632 0 17523
0.12650000 0.12650100 12528.89364055 0 -59.20377053 0 4913.56408422 0 13.12041287 0 428.08966418 0 17154
0.12750000 0.12750600 12286.68381514 0 87.66578670 0 4022.93493933 0 707.26477325 0 1044.47906847 0 18007
0.12850000 0.12850300 12757.37275025 0 -340.53383305 0 3899.56720467 0 768.02373957 0 917.17006917 0 17496
0.12950000 0.12949900 12732.10823331 0 72.36010296 0 3528.48637372 0 254.50815288 0 952.07025317 0 18405
0.13050000 0.13049000 13062.41433083 0 247.33303007 0 3456.19690157 0 -203.45954872 0 1382.99064171 0 18100
0.13150000 0.13148800 12397.40830676 0 75.52365986 0 3662.82769639 0 -247.67135491 0 1214.79486634 0 19059
0.13250000 0.13249300 12346.98911861 0 222.69023994 0 3801.05755776 0 179.98661557 0 1241.79494575 0 18957
0.13350000 0.13349100 12525.70811451 0 -43.04107044 0 3665.03559548 0 84.72587570 0 926.94963414 0 19468
0.13450000 0.13450700 12132.46041609 0 -37.40455671 0 3152.13294794 0 378.37568559 0 858.15655143 0 19953
0.13550000 0.13551000 12458.81206749 0 234.92925071 0 3402.06492789 0 56.61459693 0 743.74124342 0 19956
0.13650000 0.13649900 11992.84649858 0 243.25226136 0 3451.47353536 0 -659.30832628 0 272.42948305 0 19723
0.13750000 0.13749600 11747.56099284 0 265.64541102 0 3561.50599890 0 -409.05779373 0 411.85336745 0 20946
0.13850000 0.13851100 11430.21669097 0 -17.09891522 0 3469.24657379 0 436.85755002 0 -26.47468730 0 20955
0.13950000 0.13949800 11436.91728024 0 -29.42854871 0 3680.90830286 0 312.77911351 0 261.21972673 0 20506
0.14050000 0.14048300 11643.97647340 0 233.70996316 0 3623.74458715 0 -236.38141121 0 -601.73488601 0 21447
0.14150000 0.14148400 11001.59866884 0 405.11762754 0 3888.82429268 0 -466.25995545 0 -182.51965801 0 21771
0.14250000 0.14249400 10786.66353715 0 268.01807870 0 4113.25009509 0 -114.50867687 0 45.68582598 0 22470
0.14350000 0.14350900 10569.72921324 0 -71.86623658 0 4204.19137149 0 49.62906784 0 592.45402063 0 22519
0.14450000 0.14449900 10853.68041446 0 -146.14863974 0 3981.14962523 0 877.16425583 0 -156.41042744 0 22218
0.14550000 0.14550500 10933.39545769 0 -68.26483461 0 3464.20465498 0 520.55230389 0 209.95692341 0 23559
0.14650000 0.14650700 10649.89462393 0 258.01442845 0 3347.84507762 0 -29.65461121 0 525.18010431 0 23044
0.14750000 0.14750500 10626.00317857 0 230.69579644 0 3329.08342766 0 -187.20457822 0 548.11479341 0 23649
0.14850000 0.14849900 10504.51380582 0 11.33849551 0 3724.00078110 0 -44.06626060 0 273.26321211 0 23640
0.14950000 0.14949500 10299.66251175 0 37.84415930 0 3345.65914768 0 -141.29236020 0 -149.65821068 0 24457
0.15050000 0.15050000 10068.64596579 0 95.69990309 0 3461.85395645 0 289.54125021 0 -159.77939585 0 24591
0.15150000 0.15149900 9984.76776956 0 269.75144425 0 3311.70583383 0 -82.17097396 0 -271.01137473 0 25020
0.15250000 0.15250500 9728.87116671 0 177.40743793 0 2996.28383216 0 360.74874197 0 139.02734133 0 25297
0.15350000 0.15350100 9897.44041754 0 -186.76958914 0 3020.32906154 0 317.93087805 0 78.61438905 0 25452
0.15450000 0.15450400 9549.14159013 0 35.77851043 0 2615.88808367 0 107.84159055 0 -351.56014701 0 26061
0.15550000 0.15549900 9305.32801712 0 334.99211618 0 2727.83186284 0 125.13515239 0 551.36732535 0 26128
0.15650000 0.15649500 9363.13982261 0 277.56696764 0 2873.53123356 0 -337.43838050 0 333.07970210 0 26331
0.15750000 0.15749700 9071.92781891 0 31.52407562 0 2845.82814151 0 365.83899291 0 565.78677378 0 27345
0.15850000 0.15849900 9192.25282696 0 -124.61228673 0 2845.27891288 0 369.06516187 0 79.83367661 0 26980
0.15950000 0.15949700 9075.99211076 0 33.18142793 0 2516.95003843 0 -95.94079477 0 509.23929258 0 27777
0.16050000 0.16050000 8726.82550212 0 341.83880027 0 2665.15389169 0 -205.64218330 0 332.84682916 0 28224
0.16150000 0.16150500 8620.17628693 0 239.69545675 0 2944.62338731 0 -258.46918975 0 511.74597205 0 28075
0.16250000 0.16249700 8564.06709018 0 -48.60541552 0 2807.49198320 0 293.45395497 0 540.26521784 0 28590
0.16350000 0.16349900 8504.62956794 0 4.82026112 0 2765.89340684 0 361.02335629 0 -193.23730548 0 29163
0.16450000 0.16449100 8499.47780340 0 48.06475486 0 2612.66960390 0 -108.40180375 0 599.22051734 0 28996
0.16550000 0.16550500 8289.85920483 0 -20.03058779 0 2378.24784044 0 1.39672136 0 120.65124986 0 30777
0.16650000 0.16650700 8422.91533251 0 173.16190063 0 2712.45346123 0 88.07265527 0 71.99827114 0 29211
0.16750000 0.16749900 8317.30965171 0 127.20574432 0 2386.71694590 0 -133.69213443 0 193.78214028 0 30922
0.16850000 0.16850800 8162.67982349 0 1.10185149 0 2807.26130718 0 215.84794968 0 80.90236567 0 30867
0.16950000 0.16949900 8068.12462271 0 29.18073675 0 2539.75401110 0 -32.96360386 0 325.37951672 0 30852
0.17050000 0.17049200 8094.26790545 0 98.12892162 0 2560.19630068 0 184.80554757 0 222.61224948 0 31257
0.17150000 0.17149500 7980.84120897 0 160.13200063 0 2639.58180672 0 -132.59257871 0 301.11130051 0 32608
0.17250000 0.17250900 7902.18068472 0 108.56822002 0 2800.71450192 0 -128.66010173 0 249.07188791 0 32361
0.17350000 0.17350400 7797.05832512 0 -1.60256126 0 2847.48681197 0 103.37383534 0 790.33230803 0 32508
0.17450000 0.17449800 7839.33794498 0 22.46026540 0 2717.76999436 0 244.85930433 0 434.32340912 0 32791
0.17550000 0.17549800 7921.29384101 0 18.08576922 0 2563.08524327 0 238.16969962 0 670.59607306 0 33633
0.17650000 0.17650100 7886.43979221 0 40.91105197 0 2474.89011001 0 17.51995388 0 689.63123889 0 33984
0.17750000 0.17750300 7663.50789167 0 74.22330616 0 2722.20776168 0 -202.61263818 0 683.02841231 0 34069
0.17850000 0.17849800 7594.90923590 0 160.59005731 0 2533.03145269 0 180.26232835 0 688.61626438 0 34536
