### header ###
fiducial parameters:
Omega_m = 0.31
Omega_nu = 0
Omega_de = 0.69
Omega_k = 0
H_0 = 100
w_de = -1
zeff = 0
beta = 0
fgrowth = 0
b_1 = 2
gamma = 0.55
Lx = 3500 Ly = 3500 Lz = 3500
nx = 700 ny = 700 nz = 700
xoffset = -983.599254 yoffset = -42.9823471 zoffset = 800.977702
bins = 400 dk = 0.001
kx_ny = 0.628318531 ky_ny = 0.628318531 kz_ny = 0.628318531
############################
A(data) = 9.09370824 (not used)
A(ran) = 9.09228561 (used)
Ngal = 504757
weighted Ngal = 0
Nran = 25229228
weighted Nran = 0
SN(data) = 6704.09539
SN(ran) = 134.968716
SN(data+ran) = 6839.0641
############################
13 columns: k_central k_mean P_0(k) sigma^{lin}_{P_0(k)} P^img_1(k) sigma^{lin}_{P_1(k)} P_2(k) sigma^{lin}_{P_2(k)} P^img_3(k) sigma^{lin}_{P_3(k)} P_4(k) sigma^{lin}_{P_4(k)} N_modes
### header ###
0.00050000 0 0 0 0 0 0 0 0 0 0 0 0
0.00150000 0.00179520 8360.39114538 0 -14466.46239818 0 -22403.47516255 0 8897.88825093 0 -7125.19792775 0 3
0.00250000 0.00253879 48838.72784536 0 -38083.18360234 0 -15683.11365729 0 -59191.79734900 0 -12050.29581319 0 6
0.00350000 0.00331552 51007.52185582 0 -13206.42207737 0 -41199.83638084 0 -28193.77290736 0 -23836.08311861 0 7
0.00450000 0.00420575 48734.92363447 0 4034.71040114 0 -32184.35828043 0 -27481.64306691 0 5060.40585049 0 24
0.00550000 0.00557378 51923.63520911 0 -2935.49520749 0 -17981.63546993 0 -19106.12616509 0 -9054.73696282 0 45
0.00650000 0.00659388 50374.15140078 0 -2648.41340308 0 1733.01404701 0 -14063.98765880 0 -18904.22972104 0 40
0.00750000 0.00754703 42807.75811530 0 10262.51268728 0 726.62068860 0 -10110.27749588 0 -1367.99670014 0 57
0.00850000 0.00846663 53981.04565359 0 -11466.35593476 0 8842.38320567 0 -4578.61151250 0 -18411.13225786 0 75
0.00950000 0.00948925 62976.64167763 0 2370.51470134 0 7162.22692192 0 -7262.18653241 0 -13976.00123242 0 112
0.01050000 0.01054430 61145.29373687 0 77.33303866 0 18158.92647140 0 -7808.96560179 0 -13661.73261087 0 105
0.01150000 0.01145670 58188.79602660 0 -2497.25469979 0 12742.98296016 0 6262.97488755 0 -9872.40657663 0 144
0.01250000 0.01249090 67237.00815331 0 -1613.02956071 0 32460.29074368 0 2019.09625532 0 -2206.35026412 0 169
0.01350000 0.01339930 56451.03664423 0 10134.87195389 0 21911.91553954 0 -14220.29812663 0 1246.86981828 0 180
0.01450000 0.01448870 68427.40628395 0 -9116.44829158 0 25305.15985564 0 9357.84525863 0 3401.50471468 0 267
0.01550000 0.01550050 79722.51273216 0 -7254.35453216 0 33092.78243291 0 6644.19447899 0 -7323.42552455 0 238
0.01650000 0.01653350 84661.72579336 0 -1442.93345429 0 23710.30976256 0 11284.23172136 0 2218.25754079 0 315
0.01750000 0.01747870 79973.07083274 0 6924.37797182 0 15557.45014696 0 -5888.78542257 0 14030.37486670 0 297
0.01850000 0.01844180 78626.14254282 0 2586.46041372 0 34709.71151688 0 -1686.48339756 0 6251.34222519 0 388
0.01950000 0.01947590 76824.78248520 0 8201.59816414 0 36600.37614958 0 1842.82681911 0 19039.01042661 0 399
0.02050000 0.02045430 72128.43832378 0 3952.11739990 0 44556.50207025 0 8825.55484048 0 22679.51747152 0 462
0.02150000 0.02154770 65087.87652777 0 2840.34683979 0 45955.38738848 0 11541.71010267 0 25843.73344930 0 571
0.02250000 0.02255340 62329.97988977 0 -6248.66198948 0 32190.50964108 0 8935.35662800 0 27514.15740175 0 510
0.02350000 0.02348930 63946.14005366 0 963.32724315 0 33299.51208889 0 18446.61242730 0 29163.38112911 0 555
0.02450000 0.02439640 69014.64153414 0 -2762.29046703 0 19076.46781912 0 6383.10217330 0 34718.71886640 0 592
0.02550000 0.02547300 67646.40317341 0 -145.38301503 0 18254.93163576 0 -747.79455071 0 20792.91713068 0 837
0.02650000 0.02652900 67077.29246797 0 5947.08054926 0 19351.85105373 0 -4673.43034302 0 15540.20436800 0 723
0.02750000 0.02749970 63778.84501325 0 1881.69023690 0 29304.97226968 0 -4236.50798403 0 21499.88422201 0 826
0.02850000 0.02848090 56451.25633568 0 1891.24681505 0 26177.44476432 0 2014.44978112 0 14808.41214263 0 831
0.02950000 0.02946900 60382.08563392 0 208.86176152 0 27671.12694394 0 8189.00984396 0 5707.11157664 0 996
0.03050000 0.03053250 59307.13536111 0 1843.06847971 0 25499.47694460 0 450.23456251 0 2891.79857776 0 1041
0.03150000 0.03150510 56418.19277221 0 3505.73732391 0 32814.87274660 0 955.80500785 0 19175.87820098 0 1036
0.03250000 0.03246190 53157.86178435 0 500.34069034 0 30590.05741598 0 4220.54740007 0 16754.54886687 0 1059
0.03350000 0.03345080 53897.56290197 0 -1447.09660729 0 25085.13886684 0 10151.94197968 0 18475.06247029 0 1302
0.03450000 0.03451200 51844.76597797 0 1578.90049370 0 24329.40027324 0 -1499.76763282 0 10505.90884654 0 1339
0.03550000 0.03553350 53315.81993807 0 2980.23537162 0 20925.83045891 0 1604.83506956 0 18815.03499168 0 1365
0.03650000 0.03647120 50168.63004778 0 785.42110563 0 28405.88500390 0 2204.14236503 0 14479.53403955 0 1308
0.03750000 0.03744890 43247.90993864 0 1924.72779228 0 22665.67691007 0 -2018.96444045 0 11515.23728275 0 1579
0.03850000 0.03847530 46871.17120459 0 1621.76229591 0 25462.56878073 0 3392.11290513 0 10636.81199799 0 1662
0.03950000 0.03950240 42585.97959488 0 -823.04656209 0 20472.38730275 0 4850.31491530 0 8318.56189299 0 1683
0.04050000 0.04050350 45591.02911596 0 -1518.47435993 0 22227.50230980 0 1910.00846502 0 3344.65955158 0 1822
0.04150000 0.04152450 44239.04792265 0 2195.15698466 0 18236.91693672 0 -3281.61908953 0 2732.54424448 0 1887
0.04250000 0.04250150 42158.24033857 0 2068.20827933 0 18360.49337826 0 -1935.06427507 0 4714.28196845 0 1920
0.04350000 0.04349210 42946.16372983 0 -687.58151764 0 18640.49013336 0 2886.89945839 0 -267.27552159 0 2005
0.04450000 0.04448520 42040.37587477 0 -2111.38863415 0 16739.82953961 0 4845.25102734 0 697.08317293 0 2151
0.04550000 0.04548030 42232.16651204 0 1448.57952459 0 15801.85688689 0 2831.11979883 0 877.06429621 0 2274
0.04650000 0.04648670 43031.51385878 0 2108.26901554 0 14482.71956560 0 -1525.07608805 0 4210.77113047 0 2311
0.04750000 0.04749250 40550.97767846 0 -7.05320504 0 15308.10034936 0 2187.37990727 0 5966.94065648 0 2568
0.04850000 0.04851840 39540.61669243 0 665.25317696 0 16401.50470411 0 1483.49948083 0 4075.73777973 0 2493
0.04950000 0.04949480 37522.97040069 0 2134.07177653 0 15724.74518737 0 -2842.18126341 0 8261.88149847 0 2644
0.05050000 0.05050630 35980.84625600 0 1903.43969061 0 16857.47431196 0 2868.63211419 0 5713.38376759 0 2829
0.05150000 0.05149060 34220.56849984 0 891.45957858 0 17668.68499709 0 -751.12507311 0 9574.63678309 0 2784
0.05250000 0.05249300 33094.86950170 0 -33.76119367 0 16803.64990631 0 4026.20834196 0 6934.58263975 0 3055
0.05350000 0.05348950 33110.79713194 0 440.56594172 0 15731.66546810 0 2886.13053831 0 9412.68024495 0 3009
0.05450000 0.05448610 32544.98179828 0 -118.02154319 0 13756.52947225 0 764.35599079 0 7732.23836231 0 3336
0.05550000 0.05550870 31906.22890267 0 104.10584726 0 13470.49120223 0 406.11502673 0 6617.22735330 0 3349
0.05650000 0.05647670 32151.18487124 0 300.00844943 0 12145.86159464 0 130.24956938 0 6535.88659333 0 3324
0.05750000 0.05747970 30901.14051148 0 841.81260589 0 12710.35877960 0 -427.09006808 0 4280.55612008 0 3639
0.05850000 0.05849280 31666.10614604 0 -12.20407983 0 12710.02924242 0 307.38349146 0 2749.62525484 0 3846
0.05950000 0.05951020 31992.01841453 0 -660.95930754 0 9738.12017682 0 217.38578984 0 -2451.11949495 0 3787
0.06050000 0.06049470 31748.71013186 0 -137.42579065 0 11613.98859025 0 666.14292734 0 1421.07415485 0 3930
0.06150000 0.06148310 31754.42210960 0 45.11287067 0 9250.37220049 0 -127.18487363 0 -1284.00865818 0 4083
0.06250000 0.06249100 32265.20473463 0 169.48536419 0 10608.79035334 0 -12.35171248 0 -3051.72296998 0 4303
0.06350000 0.06350600 32374.72092327 0 69.68448077 0 8800.93841333 0 661.50194542 0 -4296.87919493 0 4470
0.06450000 0.06451750 31623.92538733 0 -477.01714737 0 8219.66778604 0 811.42488430 0 -3446.57441599 0 4479
0.06550000 0.06550280 31622.93677580 0 1036.30325110 0 8856.26770542 0 -751.28764479 0 -4711.96422364 0 4636
0.06650000 0.06648880 30923.21950237 0 1524.48292113 0 10022.59863753 0 -2685.32156695 0 -5662.29452051 0 4653
0.06750000 0.06749660 27908.50355742 0 1257.27220852 0 11732.95151131 0 -2238.56801550 0 -5229.93075914 0 5220
0.06850000 0.06852730 27487.35504465 0 877.41470408 0 12838.21920444 0 -72.60330140 0 -4048.69376203 0 5029
0.06950000 0.06949320 27347.52143569 0 -542.12490598 0 12420.14637200 0 3360.16976806 0 -4468.08474319 0 5040
0.07050000 0.07048030 28084.69610162 0 -513.89675136 0 12060.29177423 0 2028.96040150 0 -4491.11939189 0 5475
0.07150000 0.07148790 27987.92201718 0 744.97261401 0 10250.82510205 0 -105.83635682 0 -1299.68364325 0 5509
0.07250000 0.07249820 27787.23387612 0 361.52535125 0 10760.72896128 0 547.25470137 0 -835.03073077 0 5916
0.07350000 0.07351270 27049.83951874 0 69.61791426 0 11967.58198165 0 232.39401136 0 1441.03312323 0 5721
0.07450000 0.07449140 27033.80204277 0 -163.55589191 0 10138.29914053 0 1509.21436524 0 856.44735194 0 6028
0.07550000 0.07549160 26938.56579849 0 -138.25402742 0 11168.45432635 0 1953.48540329 0 2326.34573499 0 6183
0.07650000 0.07648840 26318.81621345 0 725.23553400 0 9512.10161139 0 996.11070002 0 3140.64308502 0 6330
0.07750000 0.07749960 26925.82369429 0 379.65319139 0 10468.18782429 0 212.27796359 0 4851.87472461 0 6583
0.07850000 0.07848650 25193.22706104 0 247.84161578 0 8242.80129589 0 442.00601919 0 2567.53399516 0 6549
0.07950000 0.07947320 25402.70286016 0 376.57860952 0 9715.61278760 0 179.45056843 0 2247.91588676 0 6828
0.08050000 0.08048110 24779.76774907 0 271.90661739 0 8246.22848254 0 -124.68588337 0 3921.45945782 0 7147
0.08150000 0.08149960 24020.07470935 0 386.24283648 0 8309.74128121 0 1179.39158891 0 3006.86197555 0 7386
0.08250000 0.08250610 23930.33075136 0 147.08562378 0 6918.34744147 0 1576.30813457 0 3552.52061853 0 7227
0.08350000 0.08350160 24042.37339169 0 -193.49544293 0 5908.98605154 0 948.84957649 0 2157.55679271 0 7798
0.08450000 0.08449610 23549.71531142 0 625.43519981 0 6000.91593948 0 -231.67122648 0 1882.63491014 0 7371
0.08550000 0.08548940 22556.49025861 0 945.69261033 0 7170.92670341 0 -1697.27024783 0 2779.85479859 0 8256
0.08650000 0.08650700 21323.03260345 0 816.62827633 0 6955.92566427 0 -1157.75198093 0 3256.50835661 0 8037
0.08750000 0.08749060 20640.89064615 0 -51.74348822 0 8342.45333835 0 1571.58476836 0 2259.15310451 0 8155
0.08850000 0.08849210 20888.48291213 0 210.21396240 0 7248.26907895 0 632.79925727 0 1942.01750952 0 8718
0.08950000 0.08949900 20492.37922485 0 509.84014870 0 7754.58098294 0 -70.89245422 0 1579.39479946 0 8571
0.09050000 0.09049190 20182.50443233 0 262.39397754 0 7748.41863773 0 -273.79816079 0 2346.77704000 0 8932
0.09150000 0.09150830 19493.77173148 0 227.86617054 0 7684.69713218 0 -404.27071700 0 680.09882680 0 9285
0.09250000 0.09250820 19186.53323638 0 316.12062049 0 8208.34269171 0 300.42915856 0 1354.66142902 0 9204
0.09350000 0.09350330 19072.29368153 0 307.63064434 0 7425.35137354 0 188.11080546 0 518.52674870 0 9349
0.09450000 0.09448040 18954.09968056 0 130.21002492 0 7591.19645037 0 279.48157864 0 192.19706646 0 9564
0.09550000 0.09549270 18468.25203529 0 213.37971622 0 7623.62290863 0 203.17065446 0 450.21479028 0 10155
0.09650000 0.09649430 18268.99188866 0 55.40947947 0 7316.39539810 0 513.99890788 0 1406.00332127 0 9913
0.09750000 0.09749140 17427.13424603 0 332.19544400 0 6361.92391736 0 263.49353325 0 237.81160256 0 10476
0.09850000 0.09850240 17610.68645386 0 236.51322608 0 6864.92946501 0 114.18353353 0 508.97895821 0 10575
0.09950000 0.09950330 17248.74478731 0 390.11929214 0 6743.22040081 0 984.68894145 0 1249.24248596 0 10882
0.10050000 0.10051200 16971.38432963 0 113.75733211 0 6312.05395784 0 174.30539464 0 1664.77788214 0 10875
0.10150000 0.10150300 16825.83874292 0 -159.14778293 0 6216.64196040 0 -11.84543353 0 1155.79672701 0 11118
0.10250000 0.10250800 16553.09180573 0 114.22637336 0 6326.31193306 0 420.05554780 0 1702.75154955 0 11575
0.10350000 0.10349800 16748.50735195 0 -3.39718778 0 5585.89681821 0 115.07328390 0 1269.99234356 0 11364
0.10450000 0.10450100 16247.50099652 0 279.07734637 0 5750.20405488 0 415.32449239 0 989.98789927 0 12093
0.10550000 0.10551000 16575.28064234 0 206.74723130 0 5502.39209745 0 -97.31309742 0 683.85445217 0 12067
0.10650000 0.10649700 16509.59289831 0 15.40344644 0 5343.69797736 0 478.48908010 0 972.82670152 0 12054
0.10750000 0.10749900 15759.12689955 0 112.88845242 0 5466.81306686 0 -226.14928185 0 343.44254787 0 12807
0.10850000 0.10850100 15692.12100680 0 657.95283002 0 5682.34136547 0 -782.62992573 0 199.26783583 0 12736
0.10950000 0.10950300 15120.48384967 0 319.02603994 0 5360.64717286 0 793.56396928 0 -45.76183922 0 12933
0.11050000 0.11050200 14761.28832626 0 -13.75301441 0 5668.03945197 0 176.59677648 0 155.60635673 0 13428
0.11150000 0.11150900 14639.13987916 0 258.49774964 0 5213.25617796 0 517.17015399 0 601.54045907 0 13453
0.11250000 0.11250000 14375.94952011 0 166.37123786 0 5221.23097765 0 472.23336602 0 1704.33332800 0 13668
0.11350000 0.11349100 14006.20880702 0 -297.44574864 0 4047.60628935 0 405.62072097 0 1474.54705417 0 13791
0.11450000 0.11448600 14429.66408003 0 81.15248439 0 4583.62047760 0 1018.65214142 0 1882.75574044 0 14205
0.11550000 0.11549300 14823.13146989 0 57.01432553 0 3920.73447603 0 20.27202870 0 2510.22748001 0 14776
0.11650000 0.11649800 14278.84589849 0 130.59118959 0 4750.91551801 0 90.96489323 0 2851.90261015 0 14553
0.11750000 0.11747300 14278.18682413 0 240.40396169 0 4809.05686068 0 -1290.22592626 0 1659.03295068 0 14568
0.11850000 0.11849100 13934.04016516 0 284.83655778 0 5343.06087215 0 -251.19300888 0 2351.74206680 0 16015
0.11950000 0.11950300 14068.60117928 0 -310.41852886 0 5038.99691853 0 1194.67112937 0 2297.32449423 0 15270
0.12050000 0.12050700 14085.18788388 0 12.45189179 0 5163.69378647 0 242.10657044 0 2138.35575984 0 15999
0.12150000 0.12150000 13935.90754250 0 444.35012698 0 4937.58734446 0 -91.23247742 0 2200.74813210 0 15670
0.12250000 0.12250700 13873.07578733 0 327.42813950 0 5184.32281378 0 -241.46067757 0 2618.62324224 0 16887
0.12350000 0.12352200 13561.00408030 0 -89.65707002 0 4702.61635237 0 550.78294609 0 2050.19358030 0 16407
0.12450000 0.12449800 13379.64878698 0 -167.28295738 0 4655.34973655 0 825.32915627 0 2048.46900240 0 16306
0.12550000 0.12549900 13185.77108092 0 265.16099137 0 4427.20016404 0 -36.39935847 0 2190.73020191 0 17523
0.12650000 0.12650100 12970.58330405 0 314.56300810 0 4120.28022154 0 -258.66581360 0 1964.42603758 0 17154
0.12750000 0.12750600 12753.41830412 0 203.58806822 0 4300.94348679 0 -268.39814491 0 1447.87651195 0 18007
0.12850000 0.12850300 12585.24449790 0 182.94366251 0 4436.40523586 0 -226.17894019 0 895.54583958 0 17496
0.12950000 0.12949900 12178.37592948 0 249.90232160 0 4476.81747839 0 258.98436621 0 1139.34183728 0 18405
0.13050000 0.13049000 12136.96409085 0 68.86821718 0 4314.75109452 0 -208.07856149 0 1218.34288329 0 18100
0.13150000 0.13148800 11806.10876470 0 38.10833827 0 4637.45586782 0 280.48556858 0 744.81882999 0 19059
0.13250000 0.13249300 12095.33256077 0 68.72904265 0 4466.11850470 0 141.77458294 0 1007.59177528 0 18957
0.13350000 0.13349100 11903.54192350 0 61.14210821 0 4102.97951973 0 405.25163933 0 1191.05720500 0 19468
0.13450000 0.13450700 11986.91482939 0 -89.51470996 0 3920.84432176 0 184.07067966 0 846.71831600 0 19953
0.13550000 0.13551000 11880.14478390 0 64.87587428 0 3862.76888652 0 627.03455358 0 1451.90785008 0 19956
0.13650000 0.13649900 11971.53642778 0 -99.45486938 0 3529.61778470 0 153.05354206 0 1517.74937814 0 19723
0.13750000 0.13749600 11877.28879503 0 220.89645924 0 3617.10990531 0 -257.89030278 0 1335.37251957 0 20946
0.13850000 0.13851100 11538.08519372 0 345.70646828 0 3347.18600327 0 -166.52062805 0 1098.05302586 0 20955
0.13950000 0.13949800 11303.12518620 0 226.10973739 0 4016.24533463 0 -181.98031550 0 1188.92619791 0 20506
0.14050000 0.14048300 11194.48776337 0 130.61096182 0 4201.64295065 0 -162.50686523 0 546.11450274 0 21447
0.14150000 0.14148400 10939.94226295 0 -148.52679970 0 3905.48788929 0 223.59866409 0 879.05799614 0 21771
0.14250000 0.14249400 10920.55449234 0 81.41765197 0 3567.76720528 0 208.77718031 0 -177.59527412 0 22470
0.14350000 0.14350900 11010.60601836 0 252.18491578 0 3760.53546951 0 -2.48433684 0 284.84644389 0 22519
0.14450000 0.14449900 10636.77904427 0 76.31608693 0 3412.87374731 0 -160.56479279 0 168.33088561 0 22218
0.14550000 0.14550500 10682.23320561 0 88.23237096 0 3761.62294219 0 125.76237148 0 -474.88614029 0 23559
0.14650000 0.14650700 10385.14445558 0 80.36840560 0 3477.75961754 0 41.17819677 0 -183.03483447 0 23044
0.14750000 0.14750500 10384.82590297 0 152.95687782 0 2959.35369914 0 190.09681618 0 -245.85670352 0 23649
0.14850000 0.14849900 10263.45736052 0 -3.05960989 0 3114.49980228 0 526.25988780 0 46.28195873 0 23640
0.14950000 0.14949500 10278.11078035 0 42.79051234 0 2675.05099159 0 416.61957349 0 -351.35144013 0 24457
0.15050000 0.15050000 10093.29534667 0 200.23228130 0 2546.58641525 0 -57.80510491 0 290.48592346 0 24591
0.15150000 0.15149900 9689.50245858 0 130.20892646 0 2639.10947010 0 -63.91637186 0 453.42997467 0 25020
0.15250000 0.15250500 9607.57951626 0 56.68368989 0 2622.34701234 0 143.32780150 0 297.45673322 0 25297
0.15350000 0.15350100 9605.61327777 0 23.38000367 0 2464.75134952 0 254.10831444 0 164.83998844 0 25452
0.15450000 0.15450400 9377.55158184 0 266.56811512 0 2401.60104175 0 -279.67600558 0 -234.31741002 0 26061
0.15550000 0.15549900 9240.12359427 0 277.31432247 0 2634.06755129 0 -70.60004489 0 332.20533012 0 26128
0.15650000 0.15649500 9163.62703082 0 -2.56381023 0 2643.42640713 0 -33.06290440 0 -87.83890357 0 26331
0.15750000 0.15749700 8920.37367100 0 6.31917196 0 2952.54326414 0 48.07343267 0 -15.67740168 0 27345
0.15850000 0.15849900 9006.60256577 0 41.80871124 0 2563.16213528 0 106.21038152 0 -262.99703057 0 26980
0.15950000 0.15949700 9009.33772434 0 -42.59300972 0 2210.03009593 0 105.68213342 0 -122.53620252 0 27777
0.16050000 0.16050000 9071.18086797 0 77.93037972 0 2531.39475137 0 193.28673606 0 58.41683575 0 28224
0.16150000 0.16150500 8907.52172108 0 84.19740791 0 2328.59757237 0 -17.25588476 0 234.05927256 0 28075
0.16250000 0.16249700 8999.86902277 0 82.69252147 0 2346.15091936 0 82.21743870 0 -180.29528206 0 28590
0.16350000 0.16349900 8816.89899729 0 57.58585284 0 2332.17854304 0 104.72405900 0 259.87301813 0 29163
0.16450000 0.16449100 8795.21545101 0 124.90996865 0 2284.39565231 0 151.27184439 0 14.04575327 0 28996
0.16550000 0.16550500 8512.71421336 0 76.17724193 0 2304.04705265 0 -114.67893775 0 309.65290415 0 30777
0.16650000 0.16650700 8217.40496409 0 161.78078498 0 2387.67260372 0 160.50986993 0 479.59522656 0 29211
0.16750000 0.16749900 8145.29124509 0 184.10143646 0 2196.37627221 0 38.83397914 0 323.71205860 0 30922
0.16850000 0.16850800 8201.13681209 0 117.56238805 0 2224.66154661 0 87.96028309 0 187.59123517 0 30867
0.16950000 0.16949900 7892.52524542 0 -9.31589518 0 2181.87663640 0 137.25662823 0 -397.52948480 0 30852
0.17050000 0.17049200 7901.12616575 0 120.68200666 0 2087.10174417 0 -229.75551703 0 164.88063136 0 31257
0.17150000 0.17149500 7758.70019766 0 107.10924909 0 1986.28533702 0 64.86115495 0 71.91215209 0 32608
0.17250000 0.17250900 7795.60836154 0 -117.81503322 0 2066.17613341 0 148.50592901 0 -431.27519023 0 32361
0.17350000 0.17350400 7929.67506989 0 27.68002445 0 1632.20862443 0 304.29902348 0 38.63274177 0 32508
0.17450000 0.17449800 7834.64753249 0 -109.12667569 0 1532.19409108 0 9.84755947 0 -474.33910858 0 32791
0.17550000 0.17549800 7818.25855020 0 143.79025200 0 1644.54429944 0 -93.03713285 0 -199.49961031 0 33633
0.17650000 0.17650100 7708.75334614 0 195.05635070 0 1908.54751686 0 -175.79819805 0 -184.61221909 0 33984
0.17750000 0.17750300 7521.78493623 0 92.35575981 0 2070.63586987 0 -216.60368827 0 -162.77049497 0 34069
0.17850000 0.17849800 7555.26591346 0 93.92512570 0 2125.86630081 0 172.50502319 0 -34.56943853 0 34536
