### header ###
fiducial parameters:
Omega_m = 0.31
Omega_nu = 0
Omega_de = 0.69
Omega_k = 0
H_0 = 100
w_de = -1
zeff = 0
beta = 0
fgrowth = 0
b_1 = 2
gamma = 0.55
Lx = 3500 Ly = 3500 Lz = 3500
nx = 700 ny = 700 nz = 700
xoffset = -983.599254 yoffset = -42.9823471 zoffset = 800.977702
bins = 400 dk = 0.001
kx_ny = 0.628318531 ky_ny = 0.628318531 kz_ny = 0.628318531
############################
A(data) = 9.02772286 (not used)
A(ran) = 9.03062109 (used)
Ngal = 502220
weighted Ngal = 0
Nran = 25229228
weighted Nran = 0
SN(data) = 6731.45418
SN(ran) = 134.053348
SN(data+ran) = 6865.50753
############################
13 columns: k_central k_mean P_0(k) sigma^{lin}_{P_0(k)} P^img_1(k) sigma^{lin}_{P_1(k)} P_2(k) sigma^{lin}_{P_2(k)} P^img_3(k) sigma^{lin}_{P_3(k)} P_4(k) sigma^{lin}_{P_4(k)} N_modes
### header ###
0.00050000 0 0 0 0 0 0 0 0 0 0 0 0
0.00150000 0.00179520 19364.70300365 0 -26070.12549021 0 -20845.86277052 0 12105.43836754 0 36166.81506980 0 3
0.00250000 0.00253879 28913.59194861 0 -19065.70293799 0 -8341.97001716 0 -52455.17867632 0 -5245.59475964 0 6
0.00350000 0.00331552 41455.22769336 0 -10086.42998880 0 -18859.63235636 0 -44623.61780872 0 -46936.09002855 0 7
0.00450000 0.00420575 37202.00118986 0 2987.68291183 0 -20096.93461192 0 -9701.92601016 0 -6264.98506433 0 24
0.00550000 0.00557378 41148.20888971 0 -976.41316447 0 -2233.43822010 0 -15980.57588279 0 -4511.01245284 0 45
0.00650000 0.00659388 44369.98402782 0 -2614.53698124 0 14604.31878407 0 -121.45202520 0 944.00098615 0 40
0.00750000 0.00754703 42431.20696721 0 215.52829862 0 -6413.40860905 0 6071.71150976 0 -8154.36450204 0 57
0.00850000 0.00846663 62590.31425995 0 -10300.47537012 0 2113.78327097 0 -4461.20840075 0 -8138.89822385 0 75
0.00950000 0.00948925 63883.19845277 0 -7440.18054652 0 -4715.70996289 0 -12827.56416904 0 -31388.30630546 0 112
0.01050000 0.01054430 69962.82983937 0 1653.09029691 0 270.89713517 0 -21882.14734784 0 -26807.41000186 0 105
0.01150000 0.01145670 66912.52387925 0 975.81230835 0 13237.94780068 0 -6603.94700505 0 -9777.13737863 0 144
0.01250000 0.01249090 68983.66503946 0 236.35504823 0 9038.76539428 0 -6116.71530363 0 -18702.55296845 0 169
0.01350000 0.01339930 76978.67634707 0 2353.13710752 0 19488.16959946 0 -1183.48883449 0 -40711.35243815 0 180
0.01450000 0.01448870 64134.96485633 0 6883.81194528 0 27245.47475641 0 -5561.57697451 0 -24174.84733702 0 267
0.01550000 0.01550050 65952.69192709 0 2829.30734435 0 29377.79998590 0 -8000.40473274 0 -10787.63017953 0 238
0.01650000 0.01653350 61411.88931342 0 -3864.33968040 0 31821.42800234 0 6352.74081469 0 -23515.33359924 0 315
0.01750000 0.01747870 70220.19837495 0 -2496.88122432 0 24092.02365976 0 -962.07719879 0 -28436.86149858 0 297
0.01850000 0.01844180 61469.44847375 0 3283.33268285 0 12928.07300816 0 298.34538514 0 -20643.19740639 0 388
0.01950000 0.01947590 67746.91201253 0 -98.40353594 0 21241.63692062 0 11150.65931877 0 -10860.18328143 0 399
0.02050000 0.02045430 64775.14574637 0 2525.32028273 0 20188.10656435 0 -3107.67838271 0 -11796.99156946 0 462
0.02150000 0.02154770 61985.06431071 0 -282.97357427 0 23682.07941102 0 431.05440032 0 -4625.03231623 0 571
0.02250000 0.02255340 60479.40894699 0 -1743.14182293 0 12236.70400989 0 5274.79175356 0 -11101.44843361 0 510
0.02350000 0.02348930 62310.31750485 0 5191.67149284 0 21119.59831925 0 -2369.64692011 0 -18690.68963006 0 555
0.02450000 0.02439640 60064.41179487 0 -657.15754697 0 21405.63658926 0 540.73425909 0 14696.14981085 0 592
0.02550000 0.02547300 64091.02656601 0 -2229.71445000 0 25773.32233906 0 6237.11720369 0 -8726.32021178 0 837
0.02650000 0.02652900 64756.03259008 0 -1577.97778960 0 14940.99593369 0 -2589.27246430 0 9829.99514189 0 723
0.02750000 0.02749970 66008.27386436 0 -832.45265159 0 14851.14212998 0 7606.97029660 0 -11470.63991807 0 826
0.02850000 0.02848090 66284.86540195 0 35.57112170 0 14752.83020537 0 -1162.92571461 0 3917.59288827 0 831
0.02950000 0.02946900 68020.53771553 0 2750.09759147 0 20120.33175152 0 -8016.98045277 0 -4951.62562822 0 996
0.03050000 0.03053250 60009.15939478 0 5639.97386903 0 21705.40557501 0 -4433.49432413 0 321.16363776 0 1041
0.03150000 0.03150510 60718.32340063 0 1085.99416208 0 29410.75370364 0 2417.74836344 0 -4244.53770658 0 1036
0.03250000 0.03246190 58483.51210896 0 -2700.38141596 0 20427.13086372 0 8621.72511166 0 -9873.58192589 0 1059
0.03350000 0.03345080 58234.16231136 0 1989.25117162 0 24460.88560704 0 324.66002721 0 -6749.54751461 0 1302
0.03450000 0.03451200 56365.02744092 0 1762.41974781 0 19572.53111689 0 -229.09314730 0 -3765.36868144 0 1339
0.03550000 0.03553350 54387.91422200 0 1701.27961683 0 25990.37749326 0 -2998.85422214 0 -3457.74572630 0 1365
0.03650000 0.03647120 49539.54357605 0 2903.88160760 0 19981.37690837 0 -531.36551714 0 -5364.66752642 0 1308
0.03750000 0.03744890 50523.21205071 0 747.09812880 0 28055.03775565 0 3569.50276774 0 -888.82218271 0 1579
0.03850000 0.03847530 49854.91065486 0 -739.54733361 0 20006.09219667 0 5231.05118554 0 -3059.92844569 0 1662
0.03950000 0.03950240 49076.65368747 0 467.94608734 0 17171.52324206 0 6705.37854826 0 2722.09791596 0 1683
0.04050000 0.04050350 49326.77240515 0 717.41451832 0 18437.05584916 0 3231.77109916 0 3290.00031841 0 1822
0.04150000 0.04152450 47929.53477280 0 962.01568519 0 16060.98295409 0 -5050.44284316 0 -2095.96629425 0 1887
0.04250000 0.04250150 44286.94065910 0 2158.49048138 0 17993.49880832 0 -2278.85942773 0 986.70680744 0 1920
0.04350000 0.04349210 42201.29986309 0 2282.00101548 0 23702.95009893 0 -3648.69055148 0 -1048.56642793 0 2005
0.04450000 0.04448520 41209.39295899 0 1481.37945832 0 20033.99301103 0 2973.00752286 0 -1899.83675081 0 2151
0.04550000 0.04548030 41535.08553603 0 -568.16163837 0 22293.40974529 0 1916.98366861 0 -4882.37888267 0 2274
0.04650000 0.04648670 39794.36031906 0 -336.79688146 0 19392.82350946 0 3371.27517094 0 1765.07801438 0 2311
0.04750000 0.04749250 40529.99714483 0 31.54516600 0 17547.41531579 0 2016.16337444 0 -382.31804869 0 2568
0.04850000 0.04851840 40835.14857114 0 452.93786582 0 16382.94077644 0 2560.38303841 0 1847.85775335 0 2493
0.04950000 0.04949480 40579.09818427 0 -446.69753014 0 13844.95528152 0 2032.18986584 0 193.39218795 0 2644
0.05050000 0.05050630 40204.85379643 0 549.69876877 0 14820.38532675 0 1100.40152748 0 842.01472202 0 2829
0.05150000 0.05149060 38204.01390073 0 2268.77559010 0 16587.03413501 0 -3524.66374247 0 2156.87574921 0 2784
0.05250000 0.05249300 36062.24193882 0 1619.07107563 0 14522.04433544 0 -555.55134904 0 1230.52477428 0 3055
0.05350000 0.05348950 36113.86942996 0 -328.13005369 0 14611.56860198 0 3491.57820985 0 86.66333461 0 3009
0.05450000 0.05448610 36483.28060587 0 -837.38692159 0 13654.37294724 0 3076.11970568 0 -990.67113968 0 3336
0.05550000 0.05550870 35175.56724006 0 1057.00367813 0 11691.31998123 0 738.52357145 0 626.87637573 0 3349
0.05650000 0.05647670 34137.19559394 0 693.00130576 0 11245.12664297 0 -470.79438701 0 865.10758896 0 3324
0.05750000 0.05747970 33470.21234680 0 1286.77677047 0 11595.53450832 0 -318.69869967 0 -576.08261366 0 3639
0.05850000 0.05849280 32347.80872044 0 554.63962952 0 11710.10360034 0 1257.87636001 0 226.15587259 0 3846
0.05950000 0.05951020 31025.70556455 0 405.67234846 0 11905.73883801 0 68.12302378 0 -492.98651899 0 3787
0.06050000 0.06049470 30906.41310632 0 311.01059732 0 9818.26361837 0 2149.75774618 0 975.41906065 0 3930
0.06150000 0.06148310 30932.77608051 0 67.58862432 0 11011.59462989 0 1318.90664527 0 1032.95954720 0 4083
0.06250000 0.06249100 30870.49355398 0 -237.40956720 0 8503.44323410 0 509.82257339 0 776.66310591 0 4303
0.06350000 0.06350600 30420.45561532 0 645.94119990 0 11053.66554288 0 -1950.42070754 0 1587.68815176 0 4470
0.06450000 0.06451750 29669.22069648 0 1338.86561365 0 11366.39632427 0 -1476.17277092 0 1045.82248170 0 4479
0.06550000 0.06550280 30040.93863263 0 469.46964755 0 13839.68268669 0 -634.26459925 0 113.13011302 0 4636
0.06650000 0.06648880 28711.80535029 0 -137.90252110 0 13307.26045367 0 535.93180396 0 392.78524791 0 4653
0.06750000 0.06749660 29363.62988727 0 -1082.24842283 0 11853.56211825 0 2463.91652200 0 -1021.34665707 0 5220
0.06850000 0.06852730 30021.93532207 0 234.61399348 0 12217.81054505 0 1630.23140137 0 585.05591100 0 5029
0.06950000 0.06949320 28811.65511506 0 1207.45717186 0 10313.90950239 0 -1380.66191232 0 1107.64036081 0 5040
0.07050000 0.07048030 28604.37623045 0 372.58571739 0 11112.32316046 0 2116.79304386 0 2530.05463352 0 5475
0.07150000 0.07148790 28132.25930090 0 -186.53891312 0 10032.41884542 0 1014.16604197 0 1325.96972544 0 5509
0.07250000 0.07249820 27741.86759136 0 408.91609274 0 9836.35520942 0 1375.42227120 0 2749.64722399 0 5916
0.07350000 0.07351270 26716.45774089 0 556.66298779 0 9381.00073763 0 -670.23248371 0 1684.14368360 0 5721
0.07450000 0.07449140 25455.97803718 0 813.99307737 0 8126.36482653 0 -601.25705710 0 2030.49824166 0 6028
0.07550000 0.07549160 24985.17925635 0 1045.40946177 0 9923.97914490 0 754.11727068 0 2263.71170214 0 6183
0.07650000 0.07648840 24100.70147210 0 403.35789902 0 9446.15023761 0 -634.61830249 0 2118.88011265 0 6330
0.07750000 0.07749960 23961.19740031 0 -269.64379544 0 9061.95382700 0 2716.77039825 0 1954.05660107 0 6583
0.07850000 0.07848650 23917.69849289 0 -345.03860627 0 7285.91320919 0 1011.48360935 0 1503.52435664 0 6549
0.07950000 0.07947320 23873.65035684 0 689.81907508 0 6653.80598000 0 -184.81433522 0 1599.80413532 0 6828
0.08050000 0.08048110 23427.67671004 0 67.97637973 0 6988.58279856 0 -373.06903858 0 2821.81586585 0 7147
0.08150000 0.08149960 22812.32095403 0 243.96955395 0 6596.74112544 0 895.35031419 0 1592.91680831 0 7386
0.08250000 0.08250610 22951.93487154 0 573.95709886 0 6563.16128705 0 -912.63234223 0 -252.13768212 0 7227
0.08350000 0.08350160 22395.56627029 0 574.59640099 0 7376.30525696 0 -666.76685106 0 75.45500628 0 7798
0.08450000 0.08449610 21060.83085594 0 416.15053224 0 7650.65594175 0 104.97274972 0 -454.51964427 0 7371
0.08550000 0.08548940 21194.95248715 0 -59.13061328 0 7833.83467412 0 313.87317694 0 250.26481249 0 8256
0.08650000 0.08650700 20875.96049939 0 393.39379323 0 7524.54206395 0 770.43155788 0 -505.10469947 0 8037
0.08750000 0.08749060 20919.45940681 0 13.12744300 0 6618.16104197 0 94.36857289 0 -311.22369803 0 8155
0.08850000 0.08849210 20375.39352686 0 17.63858727 0 6484.32500964 0 1111.43003835 0 -78.77696072 0 8718
0.08950000 0.08949900 20315.63745202 0 -122.89759495 0 6515.09279744 0 327.24689406 0 670.89045961 0 8571
0.09050000 0.09049190 20231.82516322 0 -108.83064146 0 5278.43863166 0 724.67422234 0 663.13644982 0 8932
0.09150000 0.09150830 20375.61321831 0 742.11772360 0 5430.97040652 0 -223.81615863 0 521.99897210 0 9285
0.09250000 0.09250820 19624.70783665 0 941.44158074 0 6360.37509263 0 -950.87842705 0 1151.12828366 0 9204
0.09350000 0.09350330 18938.94097040 0 222.89125762 0 7453.25218789 0 -155.67446108 0 95.87126242 0 9349
0.09450000 0.09448040 18237.57601108 0 527.92405055 0 7487.16156345 0 224.94537269 0 1106.50894984 0 9564
0.09550000 0.09549270 18083.13292058 0 172.99383667 0 7548.96076879 0 -528.61388170 0 169.13605478 0 10155
0.09650000 0.09649430 17464.81132998 0 159.81784186 0 7643.85649132 0 613.88931557 0 657.75291080 0 9913
0.09750000 0.09749140 17092.87370238 0 410.50556039 0 7978.32574185 0 212.95351481 0 968.85907391 0 10476
0.09850000 0.09850240 17207.33294867 0 223.58548261 0 7989.93643507 0 382.68383496 0 1908.17404140 0 10575
0.09950000 0.09950330 16459.83278451 0 181.09825432 0 7815.08400872 0 -46.70914876 0 311.24566718 0 10882
0.10050000 0.10051200 16361.41101418 0 283.57333193 0 7571.99541750 0 -42.13572196 0 1273.37559192 0 10875
0.10150000 0.10150300 16404.25084725 0 -18.90906293 0 7529.21050729 0 594.96619238 0 620.48994523 0 11118
0.10250000 0.10250800 16334.93819426 0 -128.71722151 0 7280.53076862 0 574.58651487 0 633.01785026 0 11575
0.10350000 0.10349800 16445.99222306 0 -142.18760286 0 5970.45571971 0 818.32868816 0 851.93379106 0 11364
0.10450000 0.10450100 16604.60945114 0 -153.34243632 0 5907.47018053 0 327.75547977 0 693.63841097 0 12093
0.10550000 0.10551000 16426.43968387 0 399.95597689 0 5393.54596774 0 462.97666670 0 1093.37359794 0 12067
0.10650000 0.10649700 16465.76445371 0 418.20354886 0 6069.10816606 0 -984.53515744 0 229.66214816 0 12054
0.10750000 0.10749900 15522.95858905 0 384.84120502 0 5799.73349265 0 -136.84141139 0 566.59523832 0 12807
0.10850000 0.10850100 15070.61389015 0 -107.95484149 0 5927.42914891 0 199.88187343 0 930.45920508 0 12736
0.10950000 0.10950300 15025.46729684 0 162.25751543 0 6113.63962331 0 272.44266453 0 1.93962287 0 12933
0.11050000 0.11050200 15098.95408741 0 568.90529393 0 5851.33901464 0 -152.35052942 0 100.76807503 0 13428
0.11150000 0.11150900 14598.71665206 0 243.47414972 0 6301.79436705 0 45.40044678 0 -192.68148611 0 13453
0.11250000 0.11250000 14230.84331631 0 187.35726378 0 6573.31103212 0 -296.00237581 0 -206.48579847 0 13668
0.11350000 0.11349100 13866.26535233 0 360.31375290 0 6589.21669322 0 105.09412925 0 -104.32455010 0 13791
0.11450000 0.11448600 13847.48173322 0 -248.64019421 0 6175.71344297 0 663.71973063 0 -8.88112579 0 14205
0.11550000 0.11549300 13871.09856427 0 -86.86424244 0 5869.12303765 0 479.77427509 0 -656.61490908 0 14776
0.11650000 0.11649800 14047.40095420 0 15.82316696 0 5346.33427478 0 509.42163649 0 61.58599479 0 14553
0.11750000 0.11747300 13724.89390321 0 34.10907509 0 4803.21306807 0 269.57898646 0 669.23069069 0 14568
0.11850000 0.11849100 14096.06261073 0 60.07869174 0 4953.25134496 0 782.72109769 0 413.03311055 0 16015
0.11950000 0.11950300 13860.44352886 0 -21.20209246 0 4478.68485573 0 -248.33042926 0 820.80680774 0 15270
0.12050000 0.12050700 13912.62024863 0 255.71865278 0 5118.40439372 0 -74.86348705 0 514.46025993 0 15999
0.12150000 0.12150000 13357.78948754 0 263.84064575 0 4718.31330659 0 -403.32384684 0 681.04350004 0 15670
0.12250000 0.12250700 13504.10399433 0 55.34390157 0 5472.99738122 0 551.30361483 0 897.78339702 0 16887
0.12350000 0.12352200 13184.23324076 0 -59.68939849 0 5067.15037806 0 364.00347083 0 1012.41290419 0 16407
0.12450000 0.12449800 13308.68844810 0 70.64299457 0 5004.88982066 0 397.15271396 0 1040.91457467 0 16306
0.12550000 0.12549900 13334.06281077 0 93.53407491 0 4366.22480164 0 274.66923740 0 1449.94161159 0 17523
0.12650000 0.12650100 13280.12855939 0 -30.28051216 0 4086.98598205 0 713.17117793 0 1183.52178820 0 17154
0.12750000 0.12750600 13194.77843044 0 204.59205816 0 4531.07028237 0 -409.10722431 0 1499.04265103 0 18007
0.12850000 0.12850300 12397.73784393 0 572.81470331 0 4263.42018685 0 -697.63459847 0 1425.25927700 0 17496
0.12950000 0.12949900 12184.19775295 0 34.51242859 0 4449.19127835 0 461.64204113 0 1673.10418815 0 18405
0.13050000 0.13049000 12268.66911610 0 40.47880904 0 4399.70577887 0 646.23229108 0 652.88784360 0 18100
0.13150000 0.13148800 12054.79948794 0 185.45803118 0 4062.99567553 0 -155.25045658 0 675.80715429 0 19059
0.13250000 0.13249300 11671.98713348 0 223.51737826 0 4467.94194374 0 -325.12577309 0 856.52644086 0 18957
0.13350000 0.13349100 11609.48491550 0 164.98937863 0 4478.65190201 0 -19.10184218 0 956.86501910 0 19468
0.13450000 0.13450700 11492.16968033 0 -323.19907906 0 3616.83529100 0 732.82038136 0 223.16257656 0 19953
0.13550000 0.13551000 11982.41115463 0 -61.62048635 0 3380.35941246 0 737.52397534 0 592.10361277 0 19956
0.13650000 0.13649900 11773.92396704 0 23.08133314 0 2828.34070196 0 83.06610678 0 150.57981632 0 19723
0.13750000 0.13749600 11394.62667580 0 217.29901172 0 2726.38189926 0 112.64569336 0 1109.74939875 0 20946
0.13850000 0.13851100 11668.25237881 0 185.81832516 0 2490.48820308 0 180.46005065 0 -68.29943601 0 20955
0.13950000 0.13949800 11421.86841581 0 22.74234923 0 2115.41997229 0 103.57957638 0 504.24350897 0 20506
0.14050000 0.14048300 11176.14352716 0 273.63229374 0 2617.15130951 0 -329.25597238 0 -192.19596800 0 21447
0.14150000 0.14148400 10727.53358294 0 268.04114630 0 2632.20017395 0 -517.64798290 0 15.33775870 0 21771
0.14250000 0.14249400 10444.95545328 0 188.89400548 0 3006.23585492 0 -46.18057113 0 -309.64191958 0 22470
0.14350000 0.14350900 10457.64263462 0 -55.20198090 0 2771.31978569 0 234.34816682 0 -172.18537213 0 22519
0.14450000 0.14449900 10492.46372970 0 -178.65308846 0 2657.32189144 0 632.80914338 0 -187.64945341 0 22218
0.14550000 0.14550500 10536.63269605 0 256.19758014 0 2495.21156929 0 181.67164901 0 43.61852942 0 23559
0.14650000 0.14650700 10584.08604960 0 284.48505146 0 2701.84236412 0 -802.29121220 0 255.59233019 0 23044
0.14750000 0.14750500 9983.04319167 0 205.77399817 0 3044.92351955 0 117.45913307 0 480.11809221 0 23649
0.14850000 0.14849900 9912.30254424 0 14.95165097 0 3386.80735657 0 -61.10772650 0 395.53908025 0 23640
0.14950000 0.14949500 9851.67868817 0 42.05168998 0 3289.62684294 0 206.70988375 0 489.68455648 0 24457
0.15050000 0.15050000 9740.32807591 0 71.52154069 0 3304.45601593 0 193.78653411 0 701.35397475 0 24591
0.15150000 0.15149900 9818.87875444 0 66.59122513 0 2933.95736733 0 205.06769015 0 880.07846293 0 25020
0.15250000 0.15250500 9642.96082455 0 101.79403411 0 3068.55133517 0 154.75065853 0 300.20397482 0 25297
0.15350000 0.15350100 9603.95460731 0 170.87491262 0 3052.77748894 0 -79.49447301 0 781.73578152 0 25452
0.15450000 0.15450400 9486.33180411 0 -7.70922568 0 2934.36379652 0 84.84769461 0 690.46057412 0 26061
0.15550000 0.15549900 9307.56886992 0 74.46507660 0 3024.10775451 0 -240.92243351 0 600.91323998 0 26128
0.15650000 0.15649500 9251.03127485 0 100.70128883 0 2834.26138658 0 199.06571969 0 249.19821049 0 26331
0.15750000 0.15749700 9266.64035248 0 65.38127446 0 2828.99977632 0 -7.93192691 0 384.49958481 0 27345
0.15850000 0.15849900 9046.54247167 0 211.21136159 0 2780.34910435 0 -14.58608439 0 327.84006098 0 26980
0.15950000 0.15949700 8920.86797677 0 18.50296328 0 3036.66312097 0 143.38382282 0 447.30827237 0 27777
0.16050000 0.16050000 8836.50645934 0 -12.05095489 0 2539.95173341 0 448.72638069 0 478.29135779 0 28224
0.16150000 0.16150500 8990.15866061 0 35.71600821 0 2721.75739421 0 304.68458198 0 422.59078715 0 28075
0.16250000 0.16249700 8776.48675476 0 128.22950649 0 2202.86815461 0 -108.96355479 0 1054.54642924 0 28590
0.16350000 0.16349900 8829.02596542 0 -10.29145704 0 2376.85279972 0 111.15508687 0 686.87740654 0 29163
0.16450000 0.16449100 8670.56252136 0 30.42177376 0 1856.67836513 0 25.26407755 0 357.65768325 0 28996
0.16550000 0.16550500 8541.77939241 0 170.26307193 0 2255.80280988 0 104.37398067 0 308.75546457 0 30777
0.16650000 0.16650700 8392.94941851 0 169.82039365 0 2001.97130667 0 -349.93662718 0 325.49375627 0 29211
0.16750000 0.16749900 8253.76389933 0 112.79068972 0 2248.84957543 0 150.84674143 0 151.74088564 0 30922
0.16850000 0.16850800 8214.65882094 0 -92.49932818 0 2059.87098874 0 102.22462936 0 133.77342027 0 30867
0.16950000 0.16949900 8202.32314593 0 43.58963999 0 2032.21183498 0 193.97437030 0 -322.39061452 0 30852
0.17050000 0.17049200 8216.37241426 0 30.12035709 0 1471.11986753 0 229.23814366 0 -39.87718400 0 31257
0.17150000 0.17149500 8266.79160241 0 -37.35183076 0 1607.28462925 0 213.34676250 0 228.35718094 0 32608
0.17250000 0.17250900 8228.35658295 0 155.88866025 0 1720.78821773 0 -125.57673221 0 -73.78029835 0 32361
0.17350000 0.17350400 7995.07721504 0 195.85383067 0 1883.11823134 0 -415.77266295 0 265.47844552 0 32508
0.17450000 0.17449800 7826.83750138 0 150.53477957 0 2004.56366580 0 -118.29066521 0 144.15493981 0 32791
0.17550000 0.17549800 7796.25645132 0 -31.58910429 0 2099.26166602 0 303.60589695 0 140.16314614 0 33633
0.17650000 0.17650100 7764.95041946 0 41.23531655 0 2208.23961060 0 -37.34062650 0 89.27008353 0 33984
0.17750000 0.17750300 7718.60650774 0 163.07696454 0 2219.46584378 0 -154.47274884 0 240.17987641 0 34069
0.17850000 0.17849800 7626.87434211 0 71.99936960 0 2300.20245225 0 28.69576787 0 361.30126597 0 34536
