### header ###
fiducial parameters:
Omega_m = 0.31
Omega_nu = 0
Omega_de = 0.69
Omega_k = 0
H_0 = 100
w_de = -1
zeff = 0
beta = 0
fgrowth = 0
b_1 = 2
gamma = 0.55
Lx = 3500 Ly = 3500 Lz = 3500
nx = 700 ny = 700 nz = 700
xoffset = -983.599254 yoffset = -42.9823471 zoffset = 800.977702
bins = 400 dk = 0.001
kx_ny = 0.628318531 ky_ny = 0.628318531 kz_ny = 0.628318531
############################
A(data) = 8.98833733 (not used)
A(ran) = 8.9857864 (used)
Ngal = 499680
weighted Ngal = 0
Nran = 25229228
weighted Nran = 0
SN(data) = 6756.552
SN(ran) = 133.387808
SN(data+ran) = 6889.93981
############################
13 columns: k_central k_mean P_0(k) sigma^{lin}_{P_0(k)} P^img_1(k) sigma^{lin}_{P_1(k)} P_2(k) sigma^{lin}_{P_2(k)} P^img_3(k) sigma^{lin}_{P_3(k)} P_4(k) sigma^{lin}_{P_4(k)} N_modes
### header ###
0.00050000 0 0 0 0 0 0 0 0 0 0 0 0
0.00150000 0.00179520 31796.38317686 0 -27298.74993343 0 -7109.63278840 0 -24035.78264814 0 112620.42884748 0 3
0.00250000 0.00253879 46695.74758047 0 -20377.59044138 0 -30681.88844276 0 15879.51781504 0 -8311.37798252 0 6
0.00350000 0.00331552 67735.59790277 0 -17451.62984288 0 1357.94581622 0 -89770.87019240 0 -28839.00670078 0 7
0.00450000 0.00420575 72278.37773951 0 -1357.19886529 0 -16213.44882151 0 -7069.59402134 0 11206.90033039 0 24
0.00550000 0.00557378 66748.19467344 0 2881.59390984 0 1510.24691506 0 7075.08630764 0 17267.85794360 0 45
0.00650000 0.00659388 67043.89936733 0 -8814.74602106 0 -14565.98262576 0 -23607.71385465 0 -23894.30135329 0 40
0.00750000 0.00754703 63170.51938369 0 1610.79969247 0 9492.72482535 0 -7201.98009009 0 -30594.01186211 0 57
0.00850000 0.00846663 74858.76368460 0 2521.78325036 0 23992.28374072 0 -16804.41882639 0 -23894.63089047 0 75
0.00950000 0.00948925 75981.16731096 0 -6157.01770043 0 5413.45001326 0 -4270.93363450 0 -34862.06753859 0 112
0.01050000 0.01054430 85749.19847892 0 722.23345031 0 13869.56072411 0 -10608.57066188 0 -33079.38125436 0 105
0.01150000 0.01145670 81122.60635338 0 7523.85003587 0 18602.81304941 0 -9889.19100353 0 -27441.43953126 0 144
0.01250000 0.01249090 79114.07725688 0 3682.49008131 0 33090.14613549 0 -18102.68545978 0 -14218.32090356 0 169
0.01350000 0.01339930 84492.23383843 0 -5979.64980696 0 21914.11245405 0 15003.27846023 0 -26644.94817339 0 180
0.01450000 0.01448870 79484.47704433 0 -5866.82726198 0 13403.48530948 0 14088.92263856 0 -18145.41544712 0 267
0.01550000 0.01550050 86651.69096220 0 -2456.05156804 0 17794.67804460 0 17721.85032838 0 23849.26460571 0 238
0.01650000 0.01653350 91250.38227338 0 1161.67347334 0 -9959.33848404 0 16154.79120393 0 9781.21265506 0 315
0.01750000 0.01747870 89689.25481812 0 -4786.79113206 0 1205.55684080 0 6602.43113403 0 31051.29961867 0 297
0.01850000 0.01844180 90445.32294889 0 8199.56601821 0 728.33428192 0 -5799.43690919 0 21344.78205716 0 388
0.01950000 0.01947590 78486.30893386 0 7662.40943441 0 11814.89642277 0 -13126.34454325 0 22819.90030911 0 399
0.02050000 0.02045430 76822.69541641 0 3392.21176628 0 13361.19470504 0 6248.89266550 0 19626.46536826 0 462
0.02150000 0.02154770 71255.82387792 0 -2238.28241661 0 23582.77887489 0 -628.30766554 0 30546.22897138 0 571
0.02250000 0.02255340 70681.87996054 0 -471.54353486 0 13414.14034488 0 11504.91178452 0 19355.25627123 0 510
0.02350000 0.02348930 76020.05269790 0 -1513.04798107 0 12852.16961162 0 2596.32455990 0 -3491.03996579 0 555
0.02450000 0.02439640 70111.78064357 0 6845.72843214 0 21641.03597968 0 -10865.53276828 0 15512.74293655 0 592
0.02550000 0.02547300 68111.81951368 0 4846.79985207 0 28901.50891877 0 -12117.19186021 0 1756.11460315 0 837
0.02650000 0.02652900 63423.93347314 0 408.94904646 0 33629.37880351 0 -4007.22700054 0 -4970.35432447 0 723
0.02750000 0.02749970 62730.03802318 0 -264.22620424 0 29811.91029431 0 3912.11158656 0 -16886.14404640 0 826
0.02850000 0.02848090 62183.77522871 0 3732.15133395 0 38016.83678395 0 -1854.34963575 0 -3284.45310926 0 831
0.02950000 0.02946900 61994.84058031 0 2240.13880938 0 36564.45659724 0 -490.55123925 0 -12662.57588887 0 996
0.03050000 0.03053250 61394.97307164 0 -2597.47794002 0 30200.98385515 0 10529.88816848 0 -10823.65957760 0 1041
0.03150000 0.03150510 63634.28803808 0 -3138.79767683 0 29470.72946994 0 8189.80073319 0 -4889.96922232 0 1036
0.03250000 0.03246190 62228.37259339 0 2717.83590179 0 22826.16151548 0 -6.76728760 0 -7828.05678894 0 1059
0.03350000 0.03345080 59240.78854272 0 6108.19127531 0 29905.71854416 0 -7452.93363529 0 2449.73543880 0 1302
0.03450000 0.03451200 52365.32487260 0 4192.05341879 0 33100.69132517 0 1086.32809309 0 314.78929029 0 1339
0.03550000 0.03553350 51395.05757649 0 54.68911120 0 31536.92757249 0 10344.29283015 0 2249.26698919 0 1365
0.03650000 0.03647120 51073.86867421 0 -1000.81868783 0 28311.96690833 0 7188.44709667 0 3230.15636699 0 1308
0.03750000 0.03744890 50586.37334305 0 -996.74670677 0 24190.00604718 0 4778.30005746 0 6055.25662004 0 1579
0.03850000 0.03847530 47199.06069614 0 3634.02614709 0 23490.50846520 0 -3002.64389968 0 5253.11919186 0 1662
0.03950000 0.03950240 44749.83054768 0 3116.40013334 0 24405.52336123 0 -2701.04049032 0 3949.99737739 0 1683
0.04050000 0.04050350 41538.05137062 0 1991.67876216 0 23779.95195272 0 4903.49123117 0 6343.40392799 0 1822
0.04150000 0.04152450 42884.97966055 0 -2637.40686135 0 20457.77782122 0 6679.18034266 0 3594.33888635 0 1887
0.04250000 0.04250150 41192.14718004 0 -999.47197923 0 16893.50371003 0 4476.71861724 0 5036.32766739 0 1920
0.04350000 0.04349210 42933.53147136 0 359.86887771 0 12721.12366073 0 3683.48967742 0 4409.46007932 0 2005
0.04450000 0.04448520 39778.87207172 0 2175.91201349 0 10037.91113171 0 -1261.80883699 0 5494.66994292 0 2151
0.04550000 0.04548030 39751.19094882 0 1246.86981828 0 12090.49934883 0 -633.22655714 0 2104.10586253 0 2274
0.04650000 0.04648670 38264.09951275 0 671.58907842 0 12819.87496823 0 1575.19869274 0 3745.87106511 0 2311
0.04750000 0.04749250 37502.75878714 0 142.26449487 0 11987.35421229 0 80.53624987 0 5286.51229251 0 2568
0.04850000 0.04851840 37516.05011996 0 -117.10542983 0 11107.05056563 0 -956.13124966 0 1274.25435773 0 2493
0.04950000 0.04949480 35480.16943774 0 483.53429429 0 11089.91463240 0 1955.26490405 0 3379.00831004 0 2644
0.05050000 0.05050630 37166.08163752 0 905.47589320 0 11941.98792753 0 -805.45037527 0 -575.97057102 0 2829
0.05150000 0.05149060 35560.68635476 0 104.61069821 0 12638.73936637 0 -711.87060454 0 5318.54330615 0 2784
0.05250000 0.05249300 35882.09494849 0 -406.52694821 0 13395.24688004 0 860.44903173 0 -536.72379164 0 3055
0.05350000 0.05348950 35357.58160773 0 566.36785767 0 12312.49756070 0 339.48370791 0 885.69597335 0 3009
0.05450000 0.05448610 37468.26722924 0 1174.88791416 0 15898.52112561 0 -1635.50399621 0 -2433.55516339 0 3336
0.05550000 0.05550870 34945.87982738 0 807.60774533 0 15048.97428217 0 -1965.28283425 0 976.88440263 0 3349
0.05650000 0.05647670 33676.17308270 0 286.13163889 0 18496.59223255 0 -653.10753505 0 -1555.82190670 0 3324
0.05750000 0.05747970 33354.10541462 0 222.88137150 0 17606.40247055 0 858.16314217 0 -25.95830254 0 3639
0.05850000 0.05849280 32629.23346998 0 476.54371230 0 19005.94686314 0 2530.93339932 0 1964.06354669 0 3846
0.05950000 0.05951020 33657.16977214 0 451.61312637 0 15764.50934011 0 3653.39194855 0 1595.19061484 0 3787
0.06050000 0.06049470 33058.29087500 0 198.08260044 0 15905.00202343 0 1032.03684311 0 3202.10176861 0 3930
0.06150000 0.06148310 31909.96365735 0 715.56471629 0 15925.32348271 0 757.16878495 0 4381.64714154 0 4083
0.06250000 0.06249100 31122.25995754 0 171.35603690 0 13619.44200643 0 2129.27151831 0 6480.41450180 0 4303
0.06350000 0.06350600 31514.40919870 0 -715.99421308 0 13365.47868835 0 1995.80896145 0 5150.24866963 0 4470
0.06450000 0.06451750 31193.98921650 0 961.47853959 0 11529.95661001 0 -175.31707377 0 4971.50770459 0 4479
0.06550000 0.06550280 28905.35351918 0 1438.29796466 0 11699.33871921 0 -1740.05515804 0 6414.36426687 0 4636
0.06650000 0.06648880 28772.11065376 0 277.01334519 0 12148.60773779 0 1357.25378815 0 4671.67281141 0 4653
0.06750000 0.06749660 28578.34279343 0 -537.00170133 0 10150.11854063 0 2639.12045468 0 4712.74412829 0 5220
0.06850000 0.06852730 28828.02212820 0 -215.61947057 0 10106.02646629 0 2945.16163136 0 3512.15231430 0 5029
0.06950000 0.06949320 29345.61518824 0 87.69467613 0 7171.49790118 0 654.32572415 0 5684.03298965 0 5040
0.07050000 0.07048030 28626.56506706 0 226.25912757 0 7870.95154487 0 -192.08722073 0 5330.29679881 0 5475
0.07150000 0.07148790 28264.29386333 0 163.64157157 0 7221.15915382 0 71.59425856 0 5446.98591335 0 5509
0.07250000 0.07249820 28830.43873417 0 124.16741154 0 7715.93725660 0 -234.97099209 0 1798.55899161 0 5916
0.07350000 0.07351270 27242.17938463 0 918.42560581 0 7758.55739822 0 -1365.26154156 0 2543.66451894 0 5721
0.07450000 0.07449140 26551.46946072 0 979.56793371 0 9299.87966912 0 -664.16899964 0 2248.56397655 0 6028
0.07550000 0.07549160 25332.84097855 0 515.29948128 0 8968.06868515 0 -656.52703250 0 2323.24808553 0 6183
0.07650000 0.07648840 26263.78350481 0 729.82708533 0 10912.67855380 0 234.58872896 0 -437.94612116 0 6330
0.07750000 0.07749960 24962.11165393 0 -365.57096934 0 8942.83712193 0 827.64140880 0 -877.24664012 0 6583
0.07850000 0.07848650 24844.79641876 0 -208.61570709 0 9402.06914784 0 1712.52781915 0 1928.44057781 0 6549
0.07950000 0.07947320 24780.64651488 0 152.58450081 0 7264.36147778 0 1468.49455468 0 1909.01985348 0 6828
0.08050000 0.08048110 24739.23467625 0 371.46748790 0 6737.56334593 0 -961.18305459 0 487.27893508 0 7147
0.08150000 0.08149960 24296.33670977 0 520.86206883 0 7941.51643913 0 187.80433588 0 375.68995760 0 7386
0.08250000 0.08250610 22959.73391807 0 1044.02760254 0 8719.55371507 0 -1098.14200090 0 -727.39180559 0 7227
0.08350000 0.08350160 22065.37001850 0 998.20985184 0 8601.05214606 0 -1415.25233138 0 1189.99170145 0 7798
0.08450000 0.08449610 20910.01267439 0 36.10683930 0 9268.51871440 0 789.75561797 0 -1328.51814628 0 7371
0.08550000 0.08548940 21555.13662210 0 -482.86753073 0 8342.02494002 0 1178.85334486 0 -786.97102882 0 8256
0.08650000 0.08650700 21392.12556499 0 165.03771075 0 7746.83685927 0 835.35807104 0 -2099.63514149 0 8037
0.08750000 0.08749060 21872.15138679 0 194.59719556 0 8261.46408471 0 494.87037319 0 -106.63109065 0 8155
0.08850000 0.08849210 20937.58395157 0 666.30220364 0 6873.73909222 0 -772.34726734 0 -2042.52634864 0 8718
0.08950000 0.08949900 20165.25865338 0 117.44265621 0 7705.04056060 0 3.09738584 0 308.57202221 0 8571
0.09050000 0.09049190 20194.03823354 0 179.82294544 0 7658.93830948 0 506.01971436 0 -969.36436424 0 8932
0.09150000 0.09150830 19969.07418708 0 552.60748359 0 7533.91190436 0 517.57109089 0 -670.85970280 0 9285
0.09250000 0.09250820 18901.59342362 0 491.81776047 0 7750.47275280 0 -515.84651299 0 417.56424674 0 9204
0.09350000 0.09350330 18966.51224758 0 325.61458657 0 7721.58332691 0 1000.28923143 0 31.31657705 0 9349
0.09450000 0.09448040 18622.14589715 0 -168.08153581 0 7695.46201331 0 228.74603481 0 67.56764379 0 9564
0.09550000 0.09549270 18412.12086940 0 -39.74064576 0 6650.21402476 0 1019.03220763 0 -444.49072950 0 10155
0.09650000 0.09649430 18199.13000704 0 326.72292994 0 6270.60916550 0 -259.26996509 0 -155.53276009 0 9913
0.09750000 0.09749140 17602.77756160 0 556.24886940 0 6536.33696081 0 285.70214210 0 739.82853867 0 10476
0.09850000 0.09850240 17020.26567761 0 47.35053795 0 5904.93274426 0 512.03706322 0 378.36579948 0 10575
0.09950000 0.09950330 17097.48722286 0 259.08762119 0 6069.94299358 0 801.07851538 0 655.85477666 0 10882
0.10050000 0.10051200 16861.75829527 0 124.56065924 0 4873.84386977 0 625.54284862 0 303.15333256 0 10875
0.10150000 0.10150300 16596.92025033 0 52.29656145 0 5127.14811350 0 490.84782271 0 1427.02779319 0 11118
0.10250000 0.10250800 16550.12597113 0 347.03670002 0 5306.32846144 0 -223.00220180 0 985.31286517 0 11575
0.10350000 0.10349800 15548.99202607 0 472.02685605 0 5350.40955121 0 -1150.79874648 0 1096.94687940 0 11364
0.10450000 0.10450100 15927.52039722 0 106.53233934 0 5823.61395344 0 418.47047397 0 266.20891959 0 12093
0.10550000 0.10551000 15615.77822736 0 17.72448663 0 5762.18822357 0 -81.99324358 0 -9.38473549 0 12067
0.10650000 0.10649700 15352.47802259 0 245.03505749 0 5768.64715225 0 -73.34640773 0 92.26107280 0 12054
0.10750000 0.10749900 15150.47173282 0 140.10163253 0 6316.85421606 0 55.12410028 0 875.97682353 0 12807
0.10850000 0.10850100 15095.43902419 0 -186.15005925 0 5327.66050140 0 439.71244043 0 -233.54958840 0 12736
0.10950000 0.10950300 15367.96626993 0 -19.89624647 0 5073.78505990 0 1059.19510036 0 511.08799615 0 12933
0.11050000 0.11050200 15249.77226895 0 92.92113576 0 4568.54964402 0 346.72473816 0 662.97168123 0 13428
0.11150000 0.11150900 15365.00043533 0 22.16873485 0 4153.93695193 0 658.01324517 0 1150.52413217 0 13453
0.11250000 0.11250000 15381.36744848 0 -36.43022512 0 4208.16778677 0 45.45778625 0 1053.09317029 0 13668
0.11350000 0.11349100 15165.95998016 0 -4.22363406 0 3569.56867518 0 445.56611916 0 294.63040269 0 13791
0.11450000 0.11448600 15169.03566048 0 215.64583355 0 3747.82631903 0 -97.01783211 0 1068.47596573 0 14205
0.11550000 0.11549300 14359.36281551 0 330.06883075 0 3742.14729500 0 -261.44710738 0 931.15672543 0 14776
0.11650000 0.11649800 14292.68645994 0 439.73111420 0 4703.83563993 0 -289.21830378 0 1180.87450621 0 14553
0.11750000 0.11747300 14064.09750452 0 209.28576602 0 4369.98152546 0 -364.47690591 0 376.23808777 0 14568
0.11850000 0.11849100 13877.24992491 0 24.59863215 0 4475.14782336 0 398.78941528 0 875.19362350 0 16015
0.11950000 0.11950300 13475.21456844 0 48.09540182 0 4668.41039335 0 76.51216155 0 1337.80011011 0 15270
0.12050000 0.12050700 13668.32335442 0 38.66866132 0 4079.83502530 0 396.12565643 0 139.13828552 0 15999
0.12150000 0.12150000 13444.45776521 0 218.64022803 0 4517.57024267 0 19.26144802 0 806.71469957 0 15670
0.12250000 0.12250700 13674.47471506 0 49.26635726 0 3885.55089005 0 366.24322518 0 628.50648630 0 16887
0.12350000 0.12352200 13665.57721127 0 -170.49814178 0 3538.86679481 0 -170.88150336 0 371.77395747 0 16407
0.12450000 0.12449800 13826.50119959 0 -13.09558774 0 3545.35867721 0 -52.53448729 0 -492.99860202 0 16306
0.12550000 0.12549900 13269.25383254 0 319.57636702 0 3779.20924289 0 -527.92624746 0 -86.51009982 0 17523
0.12650000 0.12650100 13286.06022859 0 247.33742390 0 4420.75221993 0 -203.12122389 0 -253.20428412 0 17154
0.12750000 0.12750600 13064.83093680 0 62.29746555 0 4219.89931028 0 99.35370147 0 -775.66021443 0 18007
0.12850000 0.12850300 13185.00216084 0 -31.46355063 0 3699.43927681 0 617.76027894 0 -1004.81926916 0 17496
0.12950000 0.12949900 12792.52338251 0 148.77505104 0 4160.69246407 0 -117.51735130 0 -60.93263241 0 18405
0.13050000 0.13049000 12526.47703459 0 468.28111680 0 4345.10146857 0 -105.47430531 0 -140.56298458 0 18100
0.13150000 0.13148800 12159.15292747 0 221.93999363 0 4594.33043586 0 -32.09747031 0 220.99422194 0 19059
0.13250000 0.13249300 11826.97945261 0 241.71332274 0 4463.25153125 0 491.85620647 0 168.25619051 0 18957
0.13350000 0.13349100 11918.04155931 0 -67.63497922 0 4273.19645645 0 446.68434865 0 779.99802214 0 19468
0.13450000 0.13450700 11873.66388608 0 -146.33977130 0 3935.99204735 0 923.15775968 0 1214.90471207 0 19953
0.13550000 0.13551000 11697.14180469 0 29.31507808 0 3605.25755150 0 -133.48891984 0 1344.27002336 0 19956
0.13650000 0.13649900 11751.18590180 0 438.94022498 0 3479.03382796 0 -194.52030356 0 1258.17294347 0 19723
0.13750000 0.13749600 11568.29276832 0 -12.99123430 0 3861.23104636 0 -358.18274582 0 1500.16307743 0 20946
0.13850000 0.13851100 11300.15935161 0 70.42528035 0 3771.16853576 0 378.51518967 0 748.53161553 0 20955
0.13950000 0.13949800 11328.71924032 0 182.87775508 0 3973.24073297 0 -496.00947337 0 449.10974227 0 20506
0.14050000 0.14048300 11098.92198192 0 254.79045640 0 3838.26230509 0 69.90472145 0 452.83241392 0 21447
0.14150000 0.14148400 11023.12843110 0 206.33860520 0 4303.32713904 0 76.44295874 0 507.07203641 0 21771
0.14250000 0.14249400 10825.36218635 0 -67.32191890 0 3971.72486195 0 20.62661070 0 369.85605110 0 22470
0.14350000 0.14350900 10682.23320561 0 -34.33085361 0 3877.53215207 0 527.88230917 0 85.48040599 0 22519
0.14450000 0.14449900 10770.58212289 0 42.09760550 0 3490.63353661 0 201.02426898 0 471.26123134 0 22218
0.14550000 0.14550500 10393.70143762 0 321.73373708 0 3597.29373637 0 -212.17580707 0 502.50135576 0 23559
0.14650000 0.14650700 10366.89908052 0 286.77313792 0 3608.80556844 0 104.88696021 0 236.83068023 0 23044
0.14750000 0.14750500 9954.60413325 0 163.46142458 0 3585.22169111 0 -93.33118986 0 639.70306113 0 23649
0.14850000 0.14849900 9955.44994534 0 -219.34214222 0 3316.33033889 0 654.90900496 0 436.28305687 0 23640
0.14950000 0.14949500 10039.65767875 0 -225.04752922 0 2915.29457852 0 607.18762784 0 110.20052751 0 24457
0.15050000 0.15050000 10106.85030923 0 239.87230837 0 2582.56089045 0 -141.93056387 0 339.72536851 0 24591
0.15150000 0.15149900 9917.69596938 0 135.38925089 0 2509.85400454 0 -6.52356190 0 600.08939703 0 25020
0.15250000 0.15250500 9848.43823925 0 73.34212375 0 2900.87183472 0 -31.36040549 0 508.08042018 0 25297
0.15350000 0.15350100 9829.00653036 0 166.47449284 0 2782.13958968 0 -206.98449806 0 -220.69544156 0 25452
0.15450000 0.15450400 9552.15136302 0 94.48347152 0 2882.57153680 0 -110.67066721 0 369.49905249 0 26061
0.15550000 0.15549900 9427.35563392 0 60.89737193 0 2959.63929803 0 0.14933417 0 609.61411992 0 26128
0.15650000 0.15649500 9236.27899387 0 144.68659313 0 2959.65028260 0 15.44980134 0 122.63176830 0 26331
0.15750000 0.15749700 9352.77038609 0 236.09141849 0 3070.94597199 0 58.24009398 0 323.09252871 0 27345
0.15850000 0.15849900 9159.18926349 0 54.59365527 0 3103.84476687 0 559.69912365 0 496.73775053 0 26980
0.15950000 0.15949700 8988.32423699 0 -122.52411949 0 2808.05219640 0 324.39420056 0 902.32551778 0 27777
0.16050000 0.16050000 8950.83389077 0 127.05196030 0 2641.06472402 0 51.23995541 0 613.68610097 0 28224
0.16150000 0.16150500 8741.89633570 0 247.58018295 0 2521.22303716 0 97.73940868 0 1032.46084761 0 28075
0.16250000 0.16249700 8671.72688605 0 63.63758341 0 2607.18830218 0 88.14449438 0 1295.54245939 0 28590
0.16350000 0.16349900 8650.08727807 0 -103.12657261 0 2468.66185736 0 103.90977264 0 657.02023981 0 29163
0.16450000 0.16449100 8585.45405300 0 -16.32428316 0 1991.86549989 0 162.06528541 0 626.76543155 0 28996
0.16550000 0.16550500 8609.01596118 0 168.56815238 0 2164.79562604 0 -120.61829614 0 225.85159993 0 30777
0.16650000 0.16650700 8428.52844910 0 181.26082599 0 2096.51552288 0 -489.17816768 0 481.33408440 0 29211
0.16750000 0.16749900 8444.35721819 0 27.39387633 0 2320.27126636 0 173.74408298 0 152.16159477 0 30922
0.16850000 0.16850800 8304.41376350 0 -117.11092212 0 2094.91177528 0 217.61866278 0 -172.12935081 0 30867
0.16950000 0.16949900 8306.73150832 0 139.03722745 0 2267.01805848 0 -104.62640615 0 -114.70530072 0 30852
0.17050000 0.17049200 8444.88447767 0 39.84423028 0 2062.86977706 0 -49.47407552 0 -149.06943759 0 31257
0.17150000 0.17149500 8328.64573062 0 99.27318455 0 2236.74457645 0 -363.72665960 0 -562.93078491 0 32608
0.17250000 0.17250900 8166.71116162 0 186.73114314 0 2335.29816165 0 50.93700090 0 -195.64732070 0 32361
0.17350000 0.17350400 7978.86398591 0 26.57750290 0 2578.48561403 0 68.84119513 0 -224.67075838 0 32508
0.17450000 0.17449800 7925.52290146 0 118.68061754 0 2481.61266843 0 245.42171444 0 -474.16006005 0 32791
0.17550000 0.17549800 7856.07843360 0 104.12638841 0 2434.13734574 0 -193.28453914 0 -135.99340239 0 33633
0.17650000 0.17650100 7598.91860489 0 86.03842227 0 2430.61129794 0 134.15238802 0 27.94705941 0 33984
0.17750000 0.17750300 7792.90615668 0 59.97730413 0 2430.71015909 0 133.23188084 0 -274.52094567 0 34069
0.17850000 0.17849800 7674.95381630 0 59.61448370 0 2415.05714316 0 0.19001333 0 -216.23350818 0 34536
