### header ###
fiducial parameters:
Omega_m = 0.31
Omega_nu = 0
Omega_de = 0.69
Omega_k = 0
H_0 = 100
w_de = -1
zeff = 0
beta = 0
fgrowth = 0
b_1 = 2
gamma = 0.55
Lx = 3500 Ly = 3500 Lz = 3500
nx = 700 ny = 700 nz = 700
xoffset = -983.599254 yoffset = -42.9823471 zoffset = 800.977702
bins = 400 dk = 0.001
kx_ny = 0.628318531 ky_ny = 0.628318531 kz_ny = 0.628318531
############################
A(data) = 9.06330447 (not used)
A(ran) = 9.07228215 (used)
Ngal = 504219
weighted Ngal = 0
Nran = 25229228
weighted Nran = 0
SN(data) = 6698.78607
SN(ran) = 134.671778
SN(data+ran) = 6833.45784
############################
13 columns: k_central k_mean P_0(k) sigma^{lin}_{P_0(k)} P^img_1(k) sigma^{lin}_{P_1(k)} P_2(k) sigma^{lin}_{P_2(k)} P^img_3(k) sigma^{lin}_{P_3(k)} P_4(k) sigma^{lin}_{P_4(k)} N_modes
### header ###
0.00050000 0 0 0 0 0 0 0 0 0 0 0 0
0.00150000 0.00179520 55764.28116645 0 -5478.94003499 0 6958.00174849 0 36243.04800351 0 -81152.48439080 0 3
0.00250000 0.00253879 56385.56859165 0 18584.35896747 0 14709.00176077 0 -7405.79883434 0 8508.70484437 0 6
0.00350000 0.00331552 38126.79235549 0 6992.75693614 0 9285.74252420 0 -5365.97469056 0 81620.86656567 0 7
0.00450000 0.00420575 50054.28064721 0 -21358.07338999 0 -4570.70262024 0 8135.98731211 0 -21138.16224691 0 24
0.00550000 0.00557378 60748.75066668 0 4708.65786729 0 9816.33033360 0 -37143.01403510 0 -27937.17329186 0 45
0.00650000 0.00659388 69468.41422748 0 21155.40802586 0 49986.94521729 0 -26449.42278144 0 4540.89049026 0 40
0.00750000 0.00754703 56178.83893567 0 7134.23823099 0 45449.10843821 0 10277.75927402 0 -3419.45350628 0 57
0.00850000 0.00846663 63595.51249686 0 -1904.69193189 0 62968.18355674 0 21163.42676384 0 737.03406340 0 75
0.00950000 0.00948925 60259.16826673 0 -8804.78301373 0 39104.63900668 0 28955.33332442 0 6047.23788205 0 112
0.01050000 0.01054430 74861.94921064 0 -10469.57188044 0 46738.03818491 0 13844.07651572 0 22685.22944926 0 105
0.01150000 0.01145670 78184.67257078 0 -503.71734795 0 22014.73113890 0 20366.49602307 0 7582.93605179 0 144
0.01250000 0.01249090 86925.42651093 0 5514.63989587 0 36762.83797806 0 3488.18397692 0 12881.05903751 0 169
0.01350000 0.01339930 73779.85896566 0 -210.24362075 0 35521.58127637 0 -5815.82589148 0 19528.92236374 0 180
0.01450000 0.01448870 84724.99693143 0 200.96275538 0 35016.51062908 0 21399.26553717 0 27421.55745489 0 267
0.01550000 0.01550050 87285.72049160 0 -5529.82057518 0 26673.72775355 0 4874.23931438 0 20446.79324864 0 238
0.01650000 0.01653350 89214.61143688 0 2593.21592586 0 14695.16119932 0 8323.24132091 0 -4288.23433631 0 315
0.01750000 0.01747870 83686.18590241 0 2929.67338402 0 42545.88590496 0 -23707.01439078 0 12832.61707243 0 297
0.01850000 0.01844180 71227.70337211 0 8411.71106848 0 25934.02663592 0 -10422.31624919 0 -7415.45427364 0 388
0.01950000 0.01947590 78391.51207248 0 1627.81479540 0 45990.53802075 0 11515.12743702 0 -5989.60182972 0 399
0.02050000 0.02045430 75616.04011835 0 780.38907293 0 34947.08813037 0 3978.50234324 0 -9342.25815013 0 462
0.02150000 0.02154770 78436.32912861 0 -889.33076842 0 41957.33250605 0 178.20601636 0 -16050.54761013 0 571
0.02250000 0.02255340 71618.75415600 0 3260.00145069 0 34817.47017391 0 364.12539958 0 -10330.37537669 0 510
0.02350000 0.02348930 71349.30259058 0 -189.60690424 0 42187.56914736 0 -3218.16121373 0 -8237.78134623 0 555
0.02450000 0.02439640 68604.36774823 0 637.87742517 0 36754.81924008 0 18915.98321370 0 5589.97209464 0 592
0.02550000 0.02547300 70259.85268196 0 1044.08252540 0 33767.78441803 0 3555.10199309 0 -5065.42580016 0 837
0.02650000 0.02652900 72393.82559734 0 4737.30563258 0 41219.82830294 0 -2798.36380339 0 4988.46788466 0 723
0.02750000 0.02749970 63030.90546618 0 2164.63085745 0 32566.73125199 0 955.52380279 0 176.28920844 0 826
0.02850000 0.02848090 62519.57361252 0 616.54428676 0 37189.91816002 0 6064.84615190 0 7753.31775710 0 831
0.02950000 0.02946900 63327.70861733 0 1538.16969857 0 40650.93728895 0 4073.03557487 0 4387.58979531 0 996
0.03050000 0.03053250 60433.16389642 0 2636.40726525 0 33436.59955471 0 5697.00576987 0 8258.65203413 0 1041
0.03150000 0.03150510 54789.07081268 0 42.75700939 0 33238.43786534 0 2602.04752221 0 15192.21310863 0 1036
0.03250000 0.03246190 60773.24626354 0 402.49780698 0 28594.70980658 0 10727.81918183 0 7337.91417579 0 1059
0.03350000 0.03345080 58912.02028536 0 -251.97291353 0 28917.10701184 0 4572.00978438 0 10521.78155392 0 1302
0.03450000 0.03451200 51471.40035593 0 4090.03969323 0 24553.48555390 0 -5842.30969598 0 12554.70738612 0 1339
0.03550000 0.03553350 50124.03268310 0 3489.40326448 0 29214.67908307 0 2826.08886458 0 9439.25192603 0 1365
0.03650000 0.03647120 48151.86252185 0 -415.61558356 0 27394.75509779 0 3210.53792036 0 9381.35224395 0 1308
0.03750000 0.03744890 46190.34739600 0 973.93504489 0 24011.72643419 0 7857.24279829 0 9721.02818188 0 1579
0.03850000 0.03847530 46577.22404231 0 -640.19846536 0 21726.71564582 0 570.15863366 0 7367.38578402 0 1662
0.03950000 0.03950240 47511.35209463 0 720.27160565 0 21747.91587090 0 -1031.94237578 0 1080.78857314 0 1683
0.04050000 0.04050350 43716.62165068 0 1395.34828586 0 22028.68154608 0 -1217.50805577 0 4932.71019423 0 1822
0.04150000 0.04152450 43398.06904582 0 2952.09289666 0 21365.87243652 0 -2611.97757583 0 2510.02975770 0 1887
0.04250000 0.04250150 42900.46790789 0 439.84974759 0 25388.64260726 0 379.28850358 0 784.95865512 0 1920
0.04350000 0.04349210 39280.94139661 0 340.26361257 0 21912.68445962 0 2787.95042858 0 -2123.30689540 0 2005
0.04450000 0.04448520 41089.77096358 0 1279.68073658 0 26004.10820899 0 4219.05349820 0 5059.27443952 0 2151
0.04550000 0.04548030 39874.10831600 0 -532.68037047 0 22573.62619184 0 1794.04433228 0 4149.60903034 0 2274
0.04650000 0.04648670 38929.98430264 0 -75.70259855 0 22614.70849329 0 733.22241672 0 5121.42515118 0 2311
0.04750000 0.04749250 37908.19936112 0 1382.43042851 0 21933.11576462 0 -1292.47776364 0 6341.86608783 0 2568
0.04850000 0.04851840 37799.34224684 0 1774.88723769 0 25296.92142620 0 2205.14196113 0 7784.38212836 0 2493
0.04950000 0.04949480 38097.57339242 0 -1180.44610788 0 21380.70160950 0 3346.62579007 0 3751.36335140 0 2644
0.05050000 0.05050630 39491.40580727 0 -1211.36767970 0 22329.43914335 0 3273.61133612 0 3417.01493117 0 2829
0.05150000 0.05149060 38577.70905995 0 2191.40026083 0 21578.09437879 0 -2056.77333928 0 5259.25956793 0 2784
0.05250000 0.05249300 35822.00933647 0 1416.16405090 0 20079.57898724 0 -678.03262870 0 5094.55688665 0 3055
0.05350000 0.05348950 36150.00867375 0 -35.22873257 0 23160.09252196 0 1100.70909551 0 4116.83106575 0 3009
0.05450000 0.05448610 33963.96888434 0 362.68642058 0 19237.61149888 0 3038.54148288 0 2994.51531597 0 3336
0.05550000 0.05550870 36028.40945527 0 -567.06867340 0 19789.91580827 0 3541.04174018 0 4105.23135711 0 3349
0.05650000 0.05647670 34422.68463533 0 254.37414110 0 16984.23627955 0 -1266.21365060 0 258.96129861 0 3324
0.05750000 0.05747970 33827.65033860 0 1772.81115348 0 16331.64282249 0 136.46134518 0 2735.21349562 0 3639
0.05850000 0.05849280 33405.18367712 0 -274.14087946 0 16226.41061716 0 999.56424964 0 4697.34375753 0 3846
0.05950000 0.05951020 33997.91121361 0 -246.35650157 0 17456.24336337 0 2084.00409471 0 1230.67855830 0 3787
0.06050000 0.06049470 33808.86671949 0 535.46605808 0 13927.99865024 0 1472.80050713 0 1098.55611929 0 3930
0.06150000 0.06148310 32229.72456519 0 325.36303986 0 14642.21555948 0 863.74110813 0 4401.21066531 0 4083
0.06250000 0.06249100 32241.80759503 0 547.65563827 0 14508.09392826 0 1951.01387446 0 3594.74531553 0 4303
0.06350000 0.06350600 31947.53089558 0 175.98164041 0 13455.99156642 0 1341.91932483 0 6001.27843037 0 4470
0.06450000 0.06451750 31125.55532932 0 458.55757315 0 12344.46266691 0 669.85790978 0 5223.95515165 0 4479
0.06550000 0.06550280 31637.54625733 0 -512.42262172 0 12451.12286668 0 1057.61332191 0 6393.12010349 0 4636
0.06650000 0.06648880 30787.66987671 0 823.78802074 0 12034.14849149 0 1083.29964643 0 4564.99064250 0 4653
0.06750000 0.06749660 29734.79859479 0 1096.97214392 0 12722.33196371 0 -1982.49565948 0 5800.09598355 0 5220
0.06850000 0.06852730 28802.31822836 0 532.26515363 0 13732.25356684 0 1848.73651916 0 4689.96212476 0 5029
0.06950000 0.06949320 29059.90645540 0 -556.65529859 0 12894.13067888 0 -499.90350435 0 4780.74961714 0 5040
0.07050000 0.07048030 28061.51865348 0 272.59205472 0 11573.01613453 0 2029.79522902 0 4448.13675938 0 5475
0.07150000 0.07148790 28989.05596225 0 88.75073294 0 11144.61780385 0 1191.20000444 0 5577.68035792 0 5509
0.07250000 0.07249820 28898.43323845 0 813.39991045 0 10701.31340819 0 -407.19041639 0 4175.38982218 0 5916
0.07350000 0.07351270 27582.59128893 0 429.65606423 0 11831.48312736 0 140.02693744 0 4199.05059152 0 5721
0.07450000 0.07449140 27312.92003206 0 258.18908315 0 10421.60225198 0 706.06306101 0 3839.60242295 0 6028
0.07550000 0.07549160 25998.17653980 0 11.25742936 0 9899.67028577 0 895.76553103 0 3682.73174191 0 6183
0.07650000 0.07648840 26664.61055831 0 861.21905027 0 9654.82416294 0 788.98120560 0 3739.80758104 0 6330
0.07750000 0.07749960 25375.13158298 0 167.32909259 0 9460.74873457 0 331.46167456 0 3281.48727466 0 6583
0.07850000 0.07848650 24893.45807529 0 449.49200540 0 9890.70687455 0 496.98270650 0 3632.68602923 0 6549
0.07950000 0.07947320 23916.16065273 0 1411.39674640 0 9855.77593374 0 -2261.84432480 0 1948.15788559 0 6828
0.08050000 0.08048110 22946.11304807 0 135.11573504 0 9842.66035408 0 243.15230175 0 961.58618840 0 7147
0.08150000 0.08149960 22895.14463129 0 -185.02743593 0 9849.75638796 0 1572.25482729 0 525.92485834 0 7386
0.08250000 0.08250610 23172.28539752 0 -114.68003621 0 9513.70535898 0 744.43327150 0 1140.14371108 0 7227
0.08350000 0.08350160 22806.60897629 0 278.79614132 0 8290.74895521 0 501.46331365 0 -45.04322848 0 7798
0.08450000 0.08449610 22372.27897642 0 626.21949829 0 8153.99102657 0 -198.91303413 0 -254.06547461 0 7371
0.08550000 0.08548940 21608.74133629 0 679.72205596 0 8356.32685352 0 -100.46094638 0 1706.57418081 0 8256
0.08650000 0.08650700 20995.91203198 0 -38.77169661 0 9057.25242994 0 529.40257402 0 754.78403424 0 8037
0.08750000 0.08749060 20146.14549709 0 218.80170125 0 7895.94144749 0 1058.36906050 0 1865.57586893 0 8155
0.08850000 0.08849210 20662.42040841 0 420.80799102 0 8160.14238722 0 685.23850831 0 1925.37588206 0 8718
0.08950000 0.08949900 20515.33698155 0 92.85500864 0 7576.00478649 0 618.30511374 0 1954.47401483 0 8571
0.09050000 0.09049190 20387.03717380 0 139.98409760 0 7461.94098480 0 48.38111055 0 1226.48245157 0 8932
0.09150000 0.09150830 19714.34194891 0 241.89566664 0 7350.63431084 0 -301.94502957 0 1654.88078224 0 9285
0.09250000 0.09250820 18973.87191121 0 93.40544557 0 6836.74305177 0 84.36668017 0 2223.39832076 0 9204
0.09350000 0.09350330 19184.99539622 0 464.95608668 0 7374.81135509 0 222.88246996 0 1262.14935874 0 9349
0.09450000 0.09448040 19169.94653178 0 390.37962651 0 7127.19711996 0 -79.08749459 0 1108.91457123 0 9564
0.09550000 0.09549270 18746.93064168 0 19.95885853 0 7487.99639097 0 414.48966487 0 1027.69574002 0 10155
0.09650000 0.09649430 18639.06213893 0 125.16371228 0 7423.90140996 0 -4.31788170 0 1088.70954843 0 9913
0.09750000 0.09749140 18153.87356801 0 46.39059615 0 7118.36552361 0 325.35644912 0 1710.84717954 0 10476
0.09850000 0.09850240 18226.92097567 0 193.62506089 0 6549.36466389 0 204.24274875 0 1536.09361435 0 10575
0.09950000 0.09950330 18078.95878300 0 421.75156580 0 7067.17741538 0 725.30363835 0 1343.08368952 0 10882
0.10050000 0.10051200 17712.40359596 0 -171.95799147 0 7158.45921353 0 439.33786651 0 3339.74944763 0 10875
0.10150000 0.10150300 17176.46629972 0 329.17798192 0 6744.47264208 0 399.64401503 0 1766.82456142 0 11118
0.10250000 0.10250800 17274.88807005 0 577.60068159 0 6709.97009960 0 79.61574269 0 2853.30863544 0 11575
0.10350000 0.10349800 16559.24316637 0 187.93505229 0 7145.01409669 0 -210.70607126 0 3398.71463325 0 11364
0.10450000 0.10450100 16261.45140369 0 253.00326644 0 7027.10569460 0 813.05279795 0 2732.56621363 0 12093
0.10550000 0.10551000 16074.27428691 0 226.93687570 0 7193.65378408 0 -465.74148362 0 3065.20104053 0 12067
0.10650000 0.10649700 15449.91118139 0 152.01989378 0 6785.79660413 0 759.90064815 0 2910.92271863 0 12054
0.10750000 0.10749900 15923.89548827 0 -45.59454418 0 6836.12791570 0 374.10378532 0 2726.38189926 0 12807
0.10850000 0.10850100 15454.74439332 0 127.14423071 0 6292.39157292 0 -219.05874025 0 1894.59710968 0 12736
0.10950000 0.10950300 15532.51516720 0 347.43763692 0 7124.15439336 0 -305.95879239 0 1915.99505707 0 12933
0.11050000 0.11050200 14979.11240055 0 143.78366126 0 6241.33527957 0 81.73290921 0 1913.28186765 0 13428
0.11150000 0.11150900 15323.91813388 0 -122.73392482 0 6691.40617194 0 238.32568055 0 856.38254296 0 13453
0.11250000 0.11250000 14885.30415070 0 100.32770352 0 5740.53763101 0 258.84266522 0 754.47207238 0 13668
0.11350000 0.11349100 14903.97792409 0 83.35071706 0 5737.73656500 0 464.20034809 0 640.24569902 0 13791
0.11450000 0.11448600 14887.39121949 0 28.56241516 0 4926.44898786 0 654.81453763 0 841.45560728 0 14205
0.11550000 0.11549300 14560.60018520 0 204.16146291 0 4734.40570542 0 695.51347750 0 1093.21651856 0 14776
0.11650000 0.11649800 14408.46385495 0 58.31918290 0 4614.41023454 0 484.81289854 0 1691.17381005 0 14553
0.11750000 0.11747300 14106.71764614 0 208.80683866 0 4102.21059965 0 -81.29341646 0 1468.69227699 0 14568
0.11850000 0.11849100 14099.13829106 0 173.30030624 0 3988.64110373 0 -119.49018054 0 1185.41113469 0 16015
0.11950000 0.11950300 13827.81934830 0 48.37056536 0 4103.04542716 0 -27.80744549 0 1557.48057716 0 15270
0.12050000 0.12050700 13893.72678379 0 173.38378900 0 4598.04322140 0 -51.64089231 0 669.73048874 0 15999
0.12150000 0.12150000 13476.31302570 0 423.29599671 0 4431.82466910 0 -298.70897449 0 605.56520647 0 15670
0.12250000 0.12250700 13276.83318762 0 -25.59965625 0 4933.22646914 0 17.65704135 0 849.75664878 0 16887
0.12350000 0.12352200 12985.30263131 0 17.07068487 0 4442.33690506 0 368.49725947 0 914.13173639 0 16407
0.12450000 0.12449800 12975.52636171 0 182.53613487 0 4736.47080507 0 205.01496420 0 367.12528636 0 16306
0.12550000 0.12549900 13095.80743148 0 233.44523496 0 4450.08102873 0 -271.46833295 0 992.30454562 0 17523
0.12650000 0.12650100 12706.07479629 0 11.31158331 0 4275.95358417 0 236.62307180 0 632.59055039 0 17154
0.12750000 0.12750600 12779.45174113 0 -112.73466840 0 4451.64083803 0 455.41928077 0 937.66838006 0 18007
0.12850000 0.12850300 12673.01123282 0 187.90978778 0 4005.04107059 0 490.90823786 0 842.40577281 0 17496
0.12950000 0.12949900 12743.31249734 0 36.52974535 0 3933.01522818 0 -104.16362611 0 946.55050545 0 18405
0.13050000 0.13049000 12494.29223692 0 166.07685131 0 3516.34842102 0 -26.65109953 0 714.31686885 0 18100
0.13150000 0.13148800 12437.61184240 0 86.00371103 0 3910.83737614 0 -133.84372153 0 152.92612102 0 19059
0.13250000 0.13249300 12437.72168813 0 108.02217692 0 3709.11668525 0 -107.75953579 0 185.19440144 0 18957
0.13350000 0.13349100 12253.07102304 0 86.91202533 0 3893.30599830 0 20.32343650 0 -395.55665557 0 19468
0.13450000 0.13450700 12154.31971553 0 52.25075578 0 3959.69675498 0 -226.10754047 0 70.42132590 0 19953
0.13550000 0.13551000 11859.05440454 0 170.23451204 0 3736.38039440 0 47.96073096 0 -511.66248930 0 19956
0.13650000 0.13649900 11871.24728011 0 151.92322954 0 3864.89989360 0 137.79267537 0 -546.65823908 0 19723
0.13750000 0.13749600 11687.03599792 0 169.11957792 0 4067.87282576 0 137.62351296 0 -394.92064882 0 20946
0.13850000 0.13851100 11276.10313765 0 337.63939818 0 4250.08491574 0 -113.21689114 0 318.49438662 0 20955
0.13950000 0.13949800 11127.92125353 0 190.89429615 0 4411.07481149 0 82.64704534 0 -126.67738638 0 20506
0.14050000 0.14048300 11138.02706030 0 1.93210943 0 4256.10446151 0 183.24244289 0 27.34367684 0 21447
0.14150000 0.14148400 11011.37493844 0 65.74991672 0 4387.05155125 0 -199.17117159 0 -114.00778036 0 21771
0.14250000 0.14249400 10704.54287253 0 212.14944409 0 4168.46954146 0 226.62161847 0 361.10134675 0 22470
0.14350000 0.14350900 10575.18854581 0 -23.01169095 0 4069.37771220 0 203.39364129 0 41.03957147 0 22519
0.14450000 0.14449900 10641.38158018 0 20.87508173 0 3963.15689534 0 338.17324840 0 45.65704640 0 22218
0.14550000 0.14550500 10466.43029268 0 26.49423984 0 3525.91598374 0 496.67294155 0 93.97774180 0 23559
0.14650000 0.14650700 10584.19589533 0 80.59809301 0 3384.16007458 0 -281.70485613 0 -204.24274875 0 23044
0.14750000 0.14750500 10235.61146903 0 228.95584014 0 3263.61537507 0 67.22909926 0 -286.12065431 0 23649
0.14850000 0.14849900 10069.60162361 0 74.67378348 0 2760.67573486 0 369.10031251 0 -138.09584958 0 23640
0.14950000 0.14949500 9994.07170254 0 25.00000843 0 2515.18152224 0 432.31323234 0 -100.70370544 0 24457
0.15050000 0.15050000 9921.06823316 0 105.71893174 0 2451.46001670 0 214.52870251 0 -267.63032329 0 24591
0.15150000 0.15149900 9501.50149885 0 174.83045720 0 2522.77186189 0 -5.83388453 0 -99.41389692 0 25020
0.15250000 0.15250500 9368.06091113 0 266.91412915 0 2428.38142970 0 -341.79925581 0 -272.33721264 0 25297
0.15350000 0.15350100 9308.34877458 0 184.54301628 0 2714.69431404 0 -298.76499581 0 -262.25117809 0 25452
0.15450000 0.15450400 9087.50394283 0 173.59469279 0 2861.29441971 0 -114.09346003 0 -375.60757330 0 26061
0.15550000 0.15549900 8905.48957515 0 12.99420014 0 3021.07601247 0 -63.16392864 0 -295.42239037 0 26128
0.15650000 0.15649500 8953.04178986 0 8.26363903 0 3303.24771294 0 374.12795138 0 -9.64446571 0 26331
0.15750000 0.15749700 9032.70191022 0 -38.54124028 0 3195.79662395 0 139.27888805 0 -93.34733718 0 27345
0.15850000 0.15849900 8875.49070743 0 147.55576349 0 2905.66110836 0 185.39871449 0 539.07009634 0 26980
0.15950000 0.15949700 9046.93791628 0 -69.05846998 0 3330.48945295 0 -42.05652320 0 274.06728282 0 27777
0.16050000 0.16050000 8947.97790190 0 95.84962281 0 3259.72683638 0 11.62420424 0 504.53460015 0 28224
0.16150000 0.16150500 8906.10471122 0 63.86353607 0 3097.00137816 0 177.47005000 0 721.15476528 0 28075
0.16250000 0.16249700 8869.04276333 0 38.50279427 0 3227.48711585 0 35.27596623 0 532.05864367 0 28590
0.16350000 0.16349900 8700.17692904 0 155.01538673 0 2928.75067993 0 163.62179934 0 766.74293841 0 29163
0.16450000 0.16449100 8799.03808227 0 -74.37698033 0 2956.83823202 0 444.41932978 0 520.63908201 0 28996
0.16550000 0.16550500 8719.58666879 0 0.37783085 0 2596.02797644 0 83.64301653 0 584.61433118 0 30777
0.16650000 0.16650700 8728.17660455 0 111.08698252 0 2597.10446455 0 54.04047219 0 723.49228233 0 29211
0.16750000 0.16749900 8653.70120245 0 -124.09820874 0 2474.24202023 0 69.11756698 0 910.63864231 0 30922
0.16850000 0.16850800 8652.75652920 0 -8.61568360 0 2074.65622344 0 251.06888321 0 277.54609696 0 30867
0.16950000 0.16949900 8582.60904870 0 223.57230112 0 2019.40382335 0 -17.00983033 0 611.64846276 0 30852
0.17050000 0.17049200 8459.08753002 0 183.08536350 0 2125.45987163 0 11.45811751 0 753.40107655 0 31257
0.17150000 0.17149500 8350.54896835 0 104.74427062 0 2378.81903822 0 -19.40128163 0 944.89952419 0 32608
0.17250000 0.17250900 8216.75687430 0 40.00032105 0 2118.90208180 0 270.01946782 0 918.18943750 0 32361
0.17350000 0.17350400 8096.76140343 0 44.86659655 0 2161.90668345 0 -16.70852351 0 682.68349673 0 32508
0.17450000 0.17449800 8139.67812850 0 101.62498154 0 1999.02744122 0 -23.67548867 0 662.76077744 0 32791
0.17550000 0.17549800 7988.48647149 0 54.82674790 0 2144.23250617 0 93.01856892 0 971.19659095 0 33633
0.17650000 0.17650100 7810.28375050 0 107.14187327 0 2114.04690071 0 -29.70503040 0 664.40187258 0 33984
0.17750000 0.17750300 7673.77846704 0 187.94713532 0 2151.46035493 0 23.13318032 0 669.54265255 0 34069
0.17850000 0.17849800 7647.99767519 0 72.84682937 0 2051.59960559 0 86.12113611 0 746.14906173 0 34536
