### header ###
fiducial parameters:
Omega_m = 0.31
Omega_nu = 0
Omega_de = 0.69
Omega_k = 0
H_0 = 100
w_de = -1
zeff = 0
beta = 0
fgrowth = 0
b_1 = 2
gamma = 0.55
Lx = 3500 Ly = 3500 Lz = 3500
nx = 700 ny = 700 nz = 700
xoffset = -983.599254 yoffset = -42.9823471 zoffset = 800.977702
bins = 400 dk = 0.001
kx_ny = 0.628318531 ky_ny = 0.628318531 kz_ny = 0.628318531
############################
A(data) = 9.08441872 (not used)
A(ran) = 9.11278916 (used)
Ngal = 506523
weighted Ngal = 0
Nran = 25229228
weighted Nran = 0
SN(data) = 6673.13622
SN(ran) = 135.273077
SN(data+ran) = 6808.40929
############################
13 columns: k_central k_mean P_0(k) sigma^{lin}_{P_0(k)} P^img_1(k) sigma^{lin}_{P_1(k)} P_2(k) sigma^{lin}_{P_2(k)} P^img_3(k) sigma^{lin}_{P_3(k)} P_4(k) sigma^{lin}_{P_4(k)} N_modes
### header ###
0.00050000 0 0 0 0 0 0 0 0 0 0 0 0
0.00150000 0.00179520 79062.55961148 0 -86875.00732278 0 -60797.63201467 0 7303.67526305 0 -75036.82360614 0 3
0.00250000 0.00253879 69639.55386830 0 -60397.79357271 0 20322.66757847 0 -48699.99269366 0 -19237.50165316 0 6
0.00350000 0.00331552 64658.26989411 0 25304.28108983 0 15367.52688702 0 -88181.84192278 0 -608.42009688 0 7
0.00450000 0.00420575 48004.88894071 0 49355.66183104 0 25481.02286267 0 -15692.56038971 0 47180.05738558 0 24
0.00550000 0.00557378 39099.80579474 0 -13322.63885528 0 37567.89730255 0 74132.35389979 0 -23802.69001796 0 45
0.00650000 0.00659388 56043.50900146 0 -16696.00109501 0 14590.36837689 0 48828.62203859 0 13261.89416891 0 40
0.00750000 0.00754703 54523.79338484 0 -8172.55495424 0 1637.90961760 0 5585.74303419 0 44640.31435905 0 57
0.00850000 0.00846663 75762.90385377 0 5191.58361626 0 -4104.29766844 0 -24772.84746835 0 26261.36689885 0 75
0.00950000 0.00948925 58224.60573322 0 -2870.48850696 0 -335.10965111 0 6073.48002595 0 17588.38777152 0 112
0.01050000 0.01054430 72455.77858670 0 1515.92593909 0 20030.36810208 0 4749.07010982 0 16798.04777429 0 105
0.01150000 0.01145670 57562.34585229 0 9329.65884538 0 21410.68949265 0 -14179.87489953 0 20801.70478874 0 144
0.01250000 0.01249090 62093.26235064 0 6268.71981901 0 33082.89631759 0 12266.47220159 0 16708.74319921 0 169
0.01350000 0.01339930 58668.27261978 0 -1196.75819816 0 42841.15121595 0 -5556.52407113 0 14991.19543039 0 180
0.01450000 0.01448870 57397.24772639 0 830.92689446 0 28298.45588406 0 12619.95574725 0 11733.72043139 0 267
0.01550000 0.01550050 61712.86660215 0 948.00376440 0 43976.51663796 0 14105.06996025 0 34669.72767269 0 238
0.01650000 0.01653350 59592.51455677 0 -468.54364809 0 39250.73382201 0 6790.24535603 0 30490.86672557 0 315
0.01750000 0.01747870 56687.97387481 0 -1325.44246596 0 31942.36814647 0 3035.94912375 0 16782.99890986 0 297
0.01850000 0.01844180 64365.42118909 0 -2123.17508053 0 28167.40993316 0 10772.22980877 0 9958.06427362 0 388
0.01950000 0.01947590 71528.46096938 0 -2549.33255840 0 25532.32081662 0 791.52852798 0 16473.23396306 0 399
0.02050000 0.02045430 67102.00775628 0 323.96140840 0 22923.15529138 0 1634.14190921 0 13485.64991239 0 462
0.02150000 0.02154770 69775.32318540 0 -61.63388753 0 29736.33643495 0 3507.90128471 0 15045.56906467 0 571
0.02250000 0.02255340 66596.16818891 0 5185.26748702 0 26901.10840598 0 555.31627919 0 7762.48987520 0 510
0.02350000 0.02348930 67969.78899021 0 3110.27074183 0 32215.55446656 0 9816.03375014 0 12329.52364820 0 555
0.02450000 0.02439640 63289.04292184 0 -885.81240982 0 24557.54984575 0 5141.72464131 0 25672.70365421 0 592
0.02550000 0.02547300 64513.93261039 0 1381.71643129 0 26581.78688104 0 833.87405528 0 10547.48545376 0 837
0.02650000 0.02652900 58316.54660572 0 2911.40603982 0 28354.58704995 0 -2768.31001280 0 23263.89673285 0 723
0.02750000 0.02749970 55686.18085539 0 235.17750205 0 26608.14985524 0 13168.08591906 0 11627.71930598 0 826
0.02850000 0.02848090 60017.06828704 0 1233.69931576 0 26930.32736905 0 -1466.75899221 0 20705.04055003 0 831
0.02950000 0.02946900 56132.81357655 0 922.46133778 0 19675.34671625 0 4134.82379564 0 10681.20065579 0 996
0.03050000 0.03053250 55383.22634360 0 1400.93943331 0 27407.71689344 0 78.84056140 0 12923.12995050 0 1041
0.03150000 0.03150510 53550.34056268 0 -141.53182388 0 18517.68261190 0 302.38551093 0 10875.81432822 0 1036
0.03250000 0.03246190 51144.71916736 0 2733.99420806 0 23105.16965905 0 1161.11326014 0 4208.50830852 0 1059
0.03350000 0.03345080 51796.43385861 0 -311.65649019 0 18297.66162310 0 4682.89904459 0 9076.75004627 0 1302
0.03450000 0.03451200 53098.21555523 0 -2212.45768647 0 22531.44543313 0 2762.54311220 0 2923.08264048 0 1339
0.03550000 0.03553350 49912.14027801 0 1164.19992503 0 12426.40757837 0 -3502.25521440 0 101.87367226 0 1365
0.03650000 0.03647120 49621.04910460 0 3237.35126203 0 17690.98367943 0 2667.26292963 0 4286.39991269 0 1308
0.03750000 0.03744890 51407.90952641 0 -1633.32905084 0 14205.57879937 0 5007.54808723 0 -2086.20100922 0 1579
0.03850000 0.03847530 53488.27772759 0 1164.54044678 0 15432.66540243 0 -627.87047955 0 -2723.51492582 0 1662
0.03950000 0.03950240 50725.65772338 0 1797.14198174 0 12482.97812716 0 -4014.97112421 0 662.83876790 0 1683
0.04050000 0.04050350 45899.69560550 0 -1077.01427400 0 14581.03149020 0 648.23258174 0 5308.71211369 0 1822
0.04150000 0.04152450 47332.52325301 0 2787.30233880 0 20057.60984208 0 -710.34704432 0 -4742.54527370 0 1887
0.04250000 0.04250150 44018.80724239 0 2429.67760927 0 18641.25905344 0 -740.86328541 0 4017.40969932 0 1920
0.04350000 0.04349210 42914.52816079 0 1338.47016904 0 20517.97327897 0 733.61895979 0 -594.50264342 0 2005
0.04450000 0.04448520 42582.79406884 0 -346.54788654 0 21930.14993002 0 3224.63112698 0 4671.83758000 0 2151
0.04550000 0.04548030 41340.32906416 0 1633.01049823 0 21836.12198873 0 1228.95398040 0 2948.79752489 0 2274
0.04650000 0.04648670 39317.95940621 0 573.85933617 0 20525.77232550 0 3270.96405413 0 10166.00223258 0 2311
0.04750000 0.04749250 41485.21557651 0 -186.17752068 0 21423.65128830 0 2959.00219282 0 7406.87532245 0 2568
0.04850000 0.04851840 40061.39527851 0 -882.75210790 0 18250.64765245 0 303.00394237 0 8749.13516903 0 2493
0.04950000 0.04949480 40767.59344977 0 864.67589526 0 19611.52634955 0 -374.04446863 0 5316.40131450 0 2644
0.05050000 0.05050630 39246.33999298 0 1274.84752465 0 19281.65963494 0 -811.89282709 0 7679.84195110 0 2829
0.05150000 0.05149060 38231.36548646 0 1722.95217853 0 20386.81748234 0 1086.32260080 0 6241.88450820 0 2784
0.05250000 0.05249300 38331.65463413 0 -852.93448563 0 19142.81463751 0 1750.34770255 0 4106.41769095 0 3055
0.05350000 0.05348950 37856.24233281 0 192.11797753 0 17651.98844677 0 2570.47786061 0 3293.46045877 0 3009
0.05450000 0.05448610 35682.28557324 0 1865.46602320 0 17342.77272860 0 74.90709580 0 3960.27893732 0 3336
0.05550000 0.05550870 33639.70430173 0 1529.63468567 0 17168.55740746 0 622.19804627 0 5927.11059630 0 3349
0.05650000 0.05647670 33234.59326493 0 -86.65355834 0 17917.92494896 0 1669.78684724 0 4380.13127053 0 3324
0.05750000 0.05747970 31967.85235485 0 589.29925139 0 14178.99613372 0 1783.96049465 0 3203.48582476 0 3639
0.05850000 0.05849280 32822.01271878 0 -1.99229390 0 16450.82543500 0 -577.62924148 0 3823.99334531 0 3846
0.05950000 0.05951020 30934.31392068 0 757.09628677 0 13206.20238592 0 913.37929317 0 1781.34616637 0 3787
0.06050000 0.06049470 32574.31060707 0 -587.42418485 0 14366.61263341 0 901.17982686 0 2098.58062252 0 3930
0.06150000 0.06148310 32026.83950962 0 -220.65919247 0 11064.21073256 0 2597.55483203 0 2599.36728650 0 4083
0.06250000 0.06249100 32247.95895568 0 -3.32173475 0 11933.20026947 0 669.82715298 0 1775.35957431 0 4303
0.06350000 0.06350600 30711.87632590 0 1290.93992348 0 11571.69798582 0 -1325.82692600 0 2110.24623860 0 4470
0.06450000 0.06451750 29178.64968500 0 1543.76084601 0 12532.18901233 0 -758.89336284 0 4401.97958539 0 4479
0.06550000 0.06550280 29286.51818775 0 298.13008752 0 13651.62680409 0 2105.96225530 0 926.05988376 0 4636
0.06650000 0.06648880 28560.10840294 0 -213.00514230 0 11839.83140253 0 746.85866512 0 3053.27179471 0 4653
0.06750000 0.06749660 28630.95889609 0 356.99201815 0 11902.44346624 0 1110.57324169 0 718.52945243 0 5220
0.06850000 0.06852730 27920.47674153 0 356.65918560 0 10748.78873088 0 -345.92286436 0 1903.37378318 0 5029
0.06950000 0.06949320 26915.60804179 0 -133.98542252 0 10217.89335346 0 1787.08011326 0 2872.22406942 0 5040
0.07050000 0.07048030 27463.73821360 0 -443.28352498 0 8970.33150710 0 1065.12567109 0 2203.87873529 0 5475
0.07150000 0.07148790 27398.38000674 0 -196.80289774 0 7589.59270277 0 2304.12394466 0 -4.30091053 0 5509
0.07250000 0.07249820 27158.47694156 0 663.67139851 0 5155.89473994 0 1490.18908553 0 3072.39593557 0 5916
0.07350000 0.07351270 27838.97121298 0 5.06849050 0 5058.72521089 0 383.88664566 0 3724.89053148 0 5721
0.07450000 0.07449140 26711.29499178 0 500.87234365 0 5419.65629676 0 -49.26481942 0 2701.07344403 0 6028
0.07550000 0.07549160 26282.89666111 0 258.66691206 0 4672.33188576 0 4.79186600 0 1961.93253961 0 6183
0.07650000 0.07648840 25766.07252115 0 -323.76148918 0 6111.67338482 0 -179.91192048 0 2532.93259153 0 6330
0.07750000 0.07749960 25380.18448637 0 1028.06592012 0 5720.83130780 0 -1884.93068581 0 117.95563575 0 6583
0.07850000 0.07848650 25121.27811063 0 1109.69447589 0 7700.10848751 0 -580.99161914 0 1434.05791964 0 6549
0.07950000 0.07947320 24418.15561970 0 123.38860535 0 8471.79668050 0 -389.24162479 0 930.73601630 0 6828
0.08050000 0.08048110 23990.08682620 0 -91.01410412 0 7544.35823288 0 649.99121181 0 -685.46479051 0 7147
0.08150000 0.08149960 24385.09205623 0 -239.15611424 0 7910.81455877 0 61.40661672 0 502.15534173 0 7386
0.08250000 0.08250610 23979.43179080 0 315.81195400 0 7496.50943472 0 413.20996216 0 258.30112579 0 7227
0.08350000 0.08350160 23674.82959312 0 396.24099444 0 7578.23465472 0 482.48307069 0 211.08943284 0 7798
0.08450000 0.08449610 23513.90560480 0 751.70286163 0 8152.94749218 0 458.37632770 0 398.27753420 0 7371
0.08550000 0.08548940 22503.98400167 0 404.82543791 0 6938.54807045 0 545.91238660 0 1637.23955868 0 8256
0.08650000 0.08650700 22025.49602003 0 -187.82520657 0 6672.15021621 0 834.05200536 0 1121.31615368 0 8037
0.08750000 0.08749060 22050.21130834 0 293.94935919 0 6723.38226273 0 686.26227048 0 1446.40457922 0 8155
0.08850000 0.08849210 21582.92759073 0 404.67055544 0 6264.12826767 0 10.09332830 0 2311.58246945 0 8718
0.08950000 0.08949900 20727.55892382 0 712.55054958 0 6262.45861264 0 58.06642789 0 1255.05332485 0 8571
0.09050000 0.09049190 20570.36969018 0 370.32069852 0 6776.67940889 0 -629.90152702 0 996.16562289 0 8932
0.09150000 0.09150830 19410.39882559 0 519.06279584 0 6927.43168300 0 -173.56832982 0 1351.86036301 0 9285
0.09250000 0.09250820 19105.35724500 0 442.96716929 0 7768.05905350 0 -675.85219104 0 1386.84622668 0 9204
0.09350000 0.09350330 18477.47907625 0 294.85448797 0 7653.20436259 0 86.50383862 0 -471.61163921 0 9349
0.09450000 0.09448040 18179.46762212 0 226.91930039 0 7572.85221416 0 296.96462436 0 296.32861761 0 9564
0.09550000 0.09549270 18111.14358067 0 45.69977638 0 7170.95965713 0 191.47647849 0 -584.99659431 0 10155
0.09650000 0.09649430 18244.82582898 0 -69.07670437 0 7276.79601395 0 562.16406174 0 -1316.07262554 0 9913
0.09750000 0.09749140 17109.02102407 0 759.52277885 0 6650.01630245 0 -640.88280423 0 -804.25525377 0 10476
0.09850000 0.09850240 17222.93104174 0 144.75359902 0 7430.40427692 0 -457.67111814 0 -1583.30530730 0 10575
0.09950000 0.09950330 16821.66460534 0 0.91910555 0 7267.30534324 0 540.95065517 0 -1867.84967545 0 10882
0.10050000 0.10051200 16776.73770349 0 -14.10693734 0 6583.86720637 0 1341.43600363 0 -2104.06192424 0 10875
0.10150000 0.10150300 16864.94382131 0 207.64796625 0 6404.17058351 0 -233.57375446 0 -1210.74155906 0 11118
0.10250000 0.10250800 16408.31513911 0 440.27045672 0 6277.94685998 0 -355.14331458 0 -1557.76617605 0 11575
0.10350000 0.10349800 16741.03784260 0 -161.90271373 0 6216.41128438 0 815.21675875 0 -1832.38049058 0 11364
0.10450000 0.10450100 16109.64461062 0 132.52996665 0 6027.08119137 0 -48.25841288 0 -1007.31386560 0 12093
0.10550000 0.10551000 15656.75068309 0 412.54429707 0 6125.07456337 0 -494.70340769 0 -973.28695511 0 12067
0.10650000 0.10649700 15735.29037705 0 551.44092199 0 6573.75041502 0 -351.81498909 0 -1542.13512927 0 12054
0.10750000 0.10749900 15271.08233976 0 -177.40743793 0 6948.42320120 0 809.81893979 0 -592.72424112 0 12807
0.10850000 0.10850100 15401.35937058 0 -404.51457451 0 6067.88887851 0 751.88081171 0 -856.49019177 0 12736
0.10950000 0.10950300 15844.69671996 0 -105.21320202 0 5358.72487266 0 737.80298349 0 -250.17583745 0 12933
0.11050000 0.11050200 16057.90727376 0 171.14733002 0 5431.54160430 0 27.86291758 0 -690.93950148 0 13428
0.11150000 0.11150900 15773.07730673 0 554.09040089 0 5451.05020520 0 -282.43093638 0 289.58848388 0 13453
0.11250000 0.11250000 15238.23846774 0 29.31529777 0 5853.04162339 0 398.28192803 0 182.39113851 0 13668
0.11350000 0.11349100 15190.78511419 0 -62.53033849 0 5138.42926954 0 840.63945353 0 528.56115576 0 13791
0.11450000 0.11448600 15003.49815168 0 111.83832728 0 5354.03446016 0 566.43815893 0 573.00253950 0 14205
0.11550000 0.11549300 14692.96428480 0 340.23944651 0 4746.56562727 0 -35.34022598 0 1405.92642926 0 14776
0.11650000 0.11649800 14484.14756003 0 226.88414975 0 5076.68498706 0 85.74293727 0 1354.61749073 0 14553
0.11750000 0.11747300 13979.84583282 0 128.64911716 0 4629.88749731 0 236.09581232 0 1513.56425598 0 14568
0.11850000 0.11849100 14211.51046856 0 2.85632939 0 4534.33270043 0 101.83302934 0 957.07372598 0 16015
0.11950000 0.11950300 14206.45756518 0 17.24501003 0 4429.26526368 0 44.11503210 0 681.24671464 0 15270
0.12050000 0.12050700 13892.62832653 0 40.28778732 0 4474.63154845 0 -202.27431334 0 585.62051803 0 15999
0.12150000 0.12150000 13864.06843782 0 274.82741524 0 4317.11277763 0 194.38189794 0 383.34400777 0 15670
0.12250000 0.12250700 13761.03314700 0 146.38370959 0 4585.41096293 0 -534.74217475 0 -533.55364399 0 16887
0.12350000 0.12352200 13690.73188248 0 224.64329695 0 5113.26361375 0 -218.20084513 0 -502.79134848 0 16407
0.12450000 0.12449800 13149.96137430 0 139.61391751 0 4755.56199221 0 176.86150467 0 267.12722986 0 16306
0.12550000 0.12549900 13116.89781083 0 169.65782198 0 5000.10054702 0 138.73844707 0 -305.35134553 0 17523
0.12650000 0.12650100 13227.73214818 0 32.36022129 0 4864.62781337 0 562.59795236 0 99.61414568 0 17154
0.12750000 0.12750600 13229.92906270 0 -270.68513292 0 4350.51686285 0 693.34731979 0 52.10817603 0 18007
0.12850000 0.12850300 13134.14358979 0 282.74179979 0 4167.40403792 0 441.45019981 0 656.43586055 0 17496
0.12950000 0.12949900 13013.53298284 0 178.07310303 0 4061.80934169 0 137.32253567 0 1074.89644840 0 18405
0.13050000 0.13049000 12697.28713823 0 53.23222734 0 3773.87074062 0 -172.42813118 0 720.11672317 0 18100
0.13150000 0.13148800 12619.40651862 0 38.36307051 0 3672.81267287 0 379.10725813 0 1010.84320877 0 19059
0.13250000 0.13249300 12316.78154401 0 178.11045058 0 3500.62949766 0 100.33594195 0 998.46689084 0 18957
0.13350000 0.13349100 12302.17206248 0 166.90948192 0 3623.07452822 0 -103.34725267 0 754.92463677 0 19468
0.13450000 0.13450700 11953.63157447 0 373.12066607 0 3474.05781658 0 -100.62033253 0 560.84042074 0 19953
0.13550000 0.13551000 11412.86106629 0 283.89188454 0 3813.39323277 0 -109.15380759 0 495.65906550 0 19956
0.13650000 0.13649900 11382.21410879 0 233.18160521 0 4205.78413452 0 -284.78163491 0 657.49257643 0 19723
0.13750000 0.13749600 10928.13384742 0 -12.65664422 0 3999.37303114 0 245.71390407 0 338.94985769 0 20946
0.13850000 0.13851100 11114.95945788 0 8.02706429 0 3747.16724467 0 625.09467806 0 812.19380438 0 20955
0.13950000 0.13949800 11247.54324894 0 53.52957972 0 3560.64920224 0 233.63307115 0 521.25531653 0 20506
0.14050000 0.14048300 11224.47564652 0 -113.42889339 0 3123.88062726 0 485.51151735 0 546.25400681 0 21447
0.14150000 0.14148400 11182.73427071 0 33.03280667 0 3228.23406679 0 -338.93777466 0 487.24488291 0 21771
0.14250000 0.14249400 10857.68978346 0 185.85347579 0 3060.82918065 0 -249.71338695 0 450.49599533 0 22470
0.14350000 0.14350900 11006.10234360 0 130.99981569 0 3058.51143583 0 152.74158020 0 341.71357615 0 22519
0.14450000 0.14449900 10695.81013732 0 -10.18788350 0 3071.50618520 0 34.94675859 0 261.13953935 0 22218
0.14550000 0.14550500 10751.79850377 0 45.27533250 0 3059.48906279 0 296.41649419 0 -170.52011092 0 23559
0.14650000 0.14650700 10563.24831541 0 307.40106677 0 2872.61951404 0 164.05459150 0 456.26509285 0 23044
0.14750000 0.14750500 10292.30284812 0 90.54660071 0 2694.88912967 0 60.68185462 0 447.98382358 0 23649
0.14850000 0.14849900 10120.83367013 0 193.91285669 0 2837.47986635 0 323.30453096 0 575.96178336 0 23640
0.14950000 0.14949500 9874.73530601 0 228.51645724 0 2920.28157447 0 -352.84644046 0 492.48452403 0 24457
0.15050000 0.15050000 9574.98828941 0 205.30056309 0 2998.40385467 0 220.69763848 0 674.97012986 0 24591
0.15150000 0.15149900 9428.44310661 0 0.02948193 0 2761.03822576 0 174.68106702 0 933.31629240 0 25020
0.15250000 0.15250500 9495.40506106 0 2.12782155 0 2583.95593117 0 273.46422978 0 967.76720739 0 25297
0.15350000 0.15350100 9518.15411088 0 -118.01714936 0 2476.48287304 0 478.87354014 0 970.16953341 0 25452
0.15450000 0.15450400 9604.15232962 0 41.38514612 0 2127.37118726 0 92.07038062 0 877.99359105 0 26061
0.15550000 0.15549900 9466.44972774 0 203.10694394 0 2501.62655968 0 -292.51367555 0 799.32647606 0 26128
0.15650000 0.15649500 9397.67531881 0 185.91938323 0 2544.69706877 0 -345.86464613 0 778.13394018 0 26331
0.15750000 0.15749700 9229.61135831 0 28.37381005 0 2855.57145739 0 -64.22328082 0 831.54312898 0 27345
0.15850000 0.15849900 9084.47220080 0 85.73700560 0 2740.58495161 0 -270.91361203 0 9.94977092 0 26980
0.15950000 0.15949700 9084.28546306 0 155.48662489 0 3427.34042940 0 -148.71353744 0 737.29220086 0 27777
0.16050000 0.16050000 8792.68899932 0 216.78603218 0 3214.56925849 0 -79.39110818 0 266.34952212 0 28224
0.16150000 0.16150500 8792.18370898 0 -68.13159174 0 3458.03132519 0 282.98126347 0 556.08519927 0 28075
0.16250000 0.16249700 8777.53028915 0 32.36274774 0 3274.83062368 0 286.75556261 0 719.85529034 0 28590
0.16350000 0.16349900 8827.05972692 0 43.90050340 0 2933.56192272 0 394.76137251 0 706.13555919 0 29163
0.16450000 0.16449100 8660.37982257 0 129.34444060 0 3133.49212827 0 -43.70234171 0 775.67998666 0 28996
0.16550000 0.16550500 8575.05166276 0 159.31364998 0 2771.13304796 0 132.65189541 0 1151.47978998 0 30777
0.16650000 0.16650700 8508.01281630 0 47.36690497 0 2815.15921486 0 349.56754554 0 883.24092138 0 29211
0.16750000 0.16749900 8346.62747593 0 32.07868669 0 2542.42326224 0 37.63457366 0 789.12839887 0 30922
0.16850000 0.16850800 8117.66504505 0 193.08352146 0 2288.11942241 0 1.08978823 0 891.43541252 0 30867
0.16950000 0.16949900 8020.46256228 0 -58.07774200 0 2160.13816727 0 300.22374705 0 834.19260789 0 30852
0.17050000 0.17049200 8074.56158224 0 -7.32221722 0 2055.74078945 0 225.37486948 0 715.63282064 0 31257
0.17150000 0.17149500 7930.35611339 0 119.99107705 0 1805.64404092 0 -131.35351893 0 470.84271913 0 32608
0.17250000 0.17250900 7935.74953853 0 190.14954213 0 1922.14641772 0 -203.54632685 0 13.39832256 0 32361
0.17350000 0.17350400 7888.72458331 0 -10.35226763 0 1959.14245817 0 -241.44090534 0 74.40378269 0 32508
0.17450000 0.17449800 7670.21946552 0 23.69306398 0 2040.38435698 0 65.99619083 0 -60.55014959 0 32791
0.17550000 0.17549800 7639.73727661 0 53.76157389 0 2244.56559213 0 -45.03059622 0 -27.74461373 0 33633
0.17650000 0.17650100 7715.38802797 0 229.72915405 0 2056.05934206 0 -9.45755222 0 -64.98044741 0 33984
0.17750000 0.17750300 7653.63276092 0 9.90715078 0 2262.78899804 0 299.64595853 0 31.06557956 0 34069
0.17850000 0.17849800 7600.42349134 0 -66.56145694 0 2163.31270874 0 146.05417241 0 324.36344375 0 34536
