### header ###
fiducial parameters:
Omega_m = 0.31
Omega_nu = 0
Omega_de = 0.69
Omega_k = 0
H_0 = 100
w_de = -1
zeff = 0
beta = 0
fgrowth = 0
b_1 = 2
gamma = 0.55
Lx = 3500 Ly = 3500 Lz = 3500
nx = 700 ny = 700 nz = 700
xoffset = -983.599254 yoffset = -42.9823471 zoffset = 800.977702
bins = 400 dk = 0.001
kx_ny = 0.628318531 ky_ny = 0.628318531 kz_ny = 0.628318531
############################
A(data) = 9.09544727 (not used)
A(ran) = 9.10226811 (used)
Ngal = 505370
weighted Ngal = 0
Nran = 25229228
weighted Nran = 0
SN(data) = 6722.9114
SN(ran) = 135.116899
SN(data+ran) = 6858.0283
############################
13 columns: k_central k_mean P_0(k) sigma^{lin}_{P_0(k)} P^img_1(k) sigma^{lin}_{P_1(k)} P_2(k) sigma^{lin}_{P_2(k)} P^img_3(k) sigma^{lin}_{P_3(k)} P_4(k) sigma^{lin}_{P_4(k)} N_modes
### header ###
0.00050000 0 0 0 0 0 0 0 0 0 0 0 0
0.00150000 0.00179520 15204.18629274 0 -5316.64297510 0 -554.75277062 0 -2341.70216746 0 -50935.02367679 0 3
0.00250000 0.00253879 37001.75243171 0 -14666.49146488 0 330.61915784 0 -53607.46034010 0 -32630.55161869 0 6
0.00350000 0.00331552 64525.57625733 0 -31100.07112093 0 -75497.07719730 0 24731.65532117 0 15222.64037468 0 7
0.00450000 0.00420575 69530.80659974 0 -8454.45204039 0 -38316.27623252 0 -29785.54732012 0 14767.32984118 0 24
0.00550000 0.00557378 54786.21482380 0 9545.27502058 0 -15091.37473233 0 -13712.70102765 0 13079.76995551 0 45
0.00650000 0.00659388 59841.64466292 0 -9013.97321397 0 -15762.86165423 0 -12430.47187023 0 -28531.87805141 0 40
0.00750000 0.00754703 73676.93352057 0 -11540.28210823 0 -13140.73433334 0 3026.39254560 0 -24763.73027311 0 57
0.00850000 0.00846663 110660.78109897 0 -23958.45125717 0 -34365.23532073 0 -17662.31394499 0 -61122.33598017 0 75
0.00950000 0.00948925 95652.66942680 0 -544.17902105 0 -40384.89094103 0 -43150.14724266 0 -1432.12463487 0 112
0.01050000 0.01054430 108929.28292297 0 8159.34051342 0 3278.12599545 0 -33613.01179036 0 -43219.24020420 0 105
0.01150000 0.01145670 98182.74602947 0 8471.45615875 0 1985.69217010 0 -21925.75610099 0 -44215.21140015 0 144
0.01250000 0.01249090 97296.62055933 0 4818.08617935 0 41336.15492658 0 -17421.97149691 0 -45155.49081311 0 169
0.01350000 0.01339930 85451.29687051 0 8040.08100891 0 35914.49943760 0 2793.70634461 0 -10397.87557520 0 180
0.01450000 0.01448870 82465.79988863 0 3581.71761245 0 45833.67832428 0 2799.53915265 0 -26623.63810258 0 267
0.01550000 0.01550050 85207.87874211 0 124.25638658 0 56341.84999277 0 15888.52516456 0 -12938.72804356 0 238
0.01650000 0.01653350 77122.68409361 0 9066.02910343 0 41685.35448894 0 18387.51542681 0 -3603.70872676 0 315
0.01750000 0.01747870 75909.32820628 0 -2665.95576549 0 45575.54086862 0 9379.59471234 0 15611.49424406 0 297
0.01850000 0.01844180 80672.34872327 0 -2746.38480593 0 30943.98034455 0 18497.03161545 0 13899.98799016 0 388
0.01950000 0.01947590 81899.87470924 0 181.10045123 0 23145.59288615 0 1006.50649951 0 20130.98678692 0 399
0.02050000 0.02045430 70788.54016031 0 2608.97878751 0 19599.44331971 0 6257.79016929 0 21027.98698392 0 462
0.02150000 0.02154770 70639.36966465 0 1604.19796435 0 27730.11409870 0 -2041.35099937 0 21258.33347095 0 571
0.02250000 0.02255340 67297.31345678 0 5715.45985181 0 23741.83548586 0 3968.28669074 0 9340.28092707 0 510
0.02350000 0.02348930 66596.16818891 0 2183.74401374 0 28734.54341554 0 5324.18937646 0 12538.12068152 0 555
0.02450000 0.02439640 64246.67795949 0 79.81247638 0 25298.01988346 0 4849.02972031 0 17942.75008300 0 592
0.02550000 0.02547300 65499.02907948 0 -861.18389963 0 22402.92593392 0 7189.95198312 0 13231.35705713 0 837
0.02650000 0.02652900 61539.31035536 0 -1256.85479476 0 14653.41982351 0 4812.74767707 0 3557.80419794 0 723
0.02750000 0.02749970 71046.56777024 0 -697.08976367 0 14400.00573406 0 -8849.87468418 0 -410.83180220 0 826
0.02850000 0.02848090 62360.84653872 0 482.93673354 0 13802.66467709 0 -3683.59952315 0 -6235.44754866 0 831
0.02950000 0.02946900 62471.13164744 0 3296.52515452 0 21035.34664755 0 -6198.46249278 0 -5179.50058642 0 996
0.03050000 0.03053250 61632.02014795 0 2806.73404769 0 21167.27136425 0 -106.12667907 0 -11924.19291995 0 1041
0.03150000 0.03150510 60727.77013305 0 -767.84359258 0 21454.07855435 0 1264.67581044 0 -23152.07378397 0 1036
0.03250000 0.03246190 57567.50860140 0 4988.45690008 0 25575.27049542 0 -2542.86264515 0 -21018.10086859 0 1059
0.03350000 0.03345080 53825.83364302 0 2705.19265875 0 22565.16807095 0 -907.64424782 0 -7669.88992834 0 1302
0.03450000 0.03451200 53600.43021365 0 -4884.57579718 0 23524.23110303 0 2891.32624114 0 -13027.37354430 0 1339
0.03550000 0.03553350 53089.42789716 0 2381.27958247 0 18743.08604127 0 6566.23696738 0 -13858.24661435 0 1365
0.03650000 0.03647120 51456.02195432 0 4012.55451824 0 17088.91925625 0 -1588.54494842 0 -11322.23834249 0 1308
0.03750000 0.03744890 47725.99064287 0 602.02048489 0 15167.82735750 0 152.28901581 0 -11249.19093483 0 1579
0.03850000 0.03847530 48631.44896075 0 2507.48133686 0 22396.66472755 0 236.19247656 0 -14001.59528653 0 1662
0.03950000 0.03950240 42893.43778144 0 599.92572690 0 18750.88508780 0 -2964.27478766 0 -7826.81553224 0 1683
0.04050000 0.04050350 43190.79016121 0 1312.29393258 0 19457.96202487 0 2945.43624568 0 -9757.12348739 0 1822
0.04150000 0.04152450 43284.70825678 0 181.42120075 0 17415.60044482 0 -516.95046254 0 -13769.27157644 0 1887
0.04250000 0.04250150 42077.28403864 0 1007.38965915 0 15702.55635076 0 4494.87611571 0 -5840.90367069 0 1920
0.04350000 0.04349210 43536.69435180 0 -2108.93907446 0 14593.33421149 0 3877.02686173 0 -5256.71114709 0 2005
0.04450000 0.04448520 43151.68508282 0 -680.39541026 0 13511.35381223 0 2868.90672850 0 -6182.11744878 0 2151
0.04550000 0.04548030 42101.99932695 0 2400.44766163 0 10008.46149262 0 -846.38987728 0 -2343.36083792 0 2274
0.04650000 0.04648670 39774.69793414 0 1496.65899878 0 12572.28270225 0 1667.64485558 0 4378.60441494 0 2311
0.04750000 0.04749250 39117.60080232 0 -496.32912443 0 13246.29607584 0 4304.65627232 0 2813.84106615 0 2568
0.04850000 0.04851840 39561.81691751 0 1363.65779397 0 10995.77684538 0 1526.15257616 0 4078.83542919 0 2493
0.04950000 0.04949480 37173.66099260 0 1401.64244595 0 11967.91151883 0 -1390.71279623 0 8342.61810694 0 2644
0.05050000 0.05050630 37205.62609882 0 442.67388120 0 12655.87529959 0 1772.19601741 0 9015.86256045 0 2829
0.05150000 0.05149060 35893.51890397 0 -149.59889399 0 12864.25264146 0 -103.51652494 0 8526.08243820 0 2784
0.05250000 0.05249300 35235.21346917 0 247.65377959 0 12954.21629090 0 -680.66782766 0 6713.36433253 0 3055
0.05350000 0.05348950 34628.42567978 0 2244.57657670 0 15209.67857903 0 -3095.32073855 0 6078.30225331 0 3009
0.05450000 0.05448610 33415.50917535 0 1630.97835231 0 17896.39518670 0 -869.51350102 0 6085.45321006 0 3336
0.05550000 0.05550870 33369.04443333 0 -1369.32583342 0 17097.81676004 0 3584.39784816 0 6686.91348176 0 3349
0.05650000 0.05647670 34192.55783975 0 -840.31321173 0 16134.57959038 0 1791.55083430 0 3491.42442583 0 3324
0.05750000 0.05747970 33798.87075844 0 771.26638540 0 13914.48762596 0 1585.37040695 0 5787.18911076 0 3639
0.05850000 0.05849280 34066.56479225 0 441.60947612 0 14487.00354890 0 227.94525946 0 8580.08259700 0 3846
0.05950000 0.05951020 33207.35152493 0 -423.96825255 0 12534.38592684 0 1522.80228152 0 5660.42714317 0 3787
0.06050000 0.06049470 33021.27286540 0 727.29294444 0 14690.21814166 0 455.81252846 0 4498.52299381 0 3930
0.06150000 0.06148310 33097.72549057 0 913.80549458 0 12236.04493554 0 -561.43029229 0 3767.62051882 0 4083
0.06250000 0.06249100 30663.54420655 0 1047.37350334 0 13985.99719347 0 -1834.53346681 0 1452.42412500 0 4303
0.06350000 0.06350600 29620.33934850 0 208.43226473 0 14772.38274457 0 667.96416947 0 1609.49252834 0 4470
0.06450000 0.06451750 30762.95458841 0 -176.22879329 0 13081.08810422 0 597.39597984 0 -314.58058341 0 4479
0.06550000 0.06550280 29889.68106819 0 461.10599399 0 13771.90787386 0 902.80883897 0 -1097.81246372 0 4636
0.06650000 0.06648880 29228.40979879 0 141.05619189 0 12330.40241401 0 759.81936231 0 -57.56432308 0 4653
0.06750000 0.06749660 29251.58724694 0 508.95918598 0 12385.87450555 0 753.05616097 0 -247.79877595 0 5220
0.06850000 0.06852730 29128.99941693 0 1116.55983375 0 13425.45445464 0 266.41762647 0 188.72044923 0 5029
0.06950000 0.06949320 28393.14289971 0 -411.95442552 0 12211.10995578 0 -159.19391814 0 1786.71762236 0 5040
0.07050000 0.07048030 28092.82468533 0 -492.41641968 0 12560.19967241 0 1954.82552115 0 882.30613425 0 5475
0.07150000 0.07148790 28179.16342582 0 638.82319687 0 11664.18808695 0 561.61812848 0 2151.62512352 0 5509
0.07250000 0.07249820 27819.30882806 0 -48.67692509 0 11027.96164304 0 -350.39797923 0 3080.11809010 0 5916
0.07350000 0.07351270 28074.37060340 0 942.32034655 0 13189.83537277 0 -320.19479846 0 1567.10306274 0 5721
0.07450000 0.07449140 27539.53176441 0 608.82762452 0 12890.17623275 0 -815.27387853 0 -919.32524231 0 6028
0.07550000 0.07549160 27315.44648375 0 -176.52427830 0 12124.55152384 0 6.55420886 0 125.58551987 0 6183
0.07650000 0.07648840 26996.01511309 0 -681.66412839 0 12443.54351160 0 1065.24210756 0 247.15947382 0 6330
0.07750000 0.07749960 26461.06642838 0 449.05042558 0 10827.73485403 0 603.53525745 0 -204.10104776 0 6583
0.07850000 0.07848650 26627.81224016 0 802.69434601 0 11847.30091188 0 337.75913002 0 -327.80381189 0 6549
0.07950000 0.07947320 26074.95870214 0 334.60875460 0 11561.59217904 0 218.75666450 0 -1900.49582516 0 6828
0.08050000 0.08048110 24817.66452448 0 869.24547745 0 12035.02725730 0 168.91416641 0 773.25019921 0 7147
0.08150000 0.08149960 24691.45178552 0 133.60425785 0 10722.39280297 0 334.25175599 0 -821.02100690 0 7386
0.08250000 0.08250610 24332.80549074 0 145.24021559 0 11847.95998624 0 470.68344282 0 -444.69284564 0 7227
0.08350000 0.08350160 23852.01074885 0 890.97076510 0 10674.76369626 0 1281.88863567 0 159.05661098 0 7798
0.08450000 0.08449610 23239.40113599 0 -25.37128698 0 10695.30484699 0 702.68530494 0 1359.90107014 0 7371
0.08550000 0.08548940 23035.96685179 0 -226.23825689 0 9654.04425828 0 1327.88104107 0 1105.26769313 0 8256
0.08650000 0.08650700 22716.64532685 0 267.96754966 0 9622.17801322 0 -531.04696453 0 1044.37581349 0 8037
0.08750000 0.08749060 21679.92136662 0 1082.53841555 0 8653.93187847 0 110.80358054 0 1850.51601992 0 8155
0.08850000 0.08849210 21333.79748458 0 507.08192253 0 9582.12826159 0 840.78774526 0 1192.44126114 0 8718
0.08950000 0.08949900 21330.50211281 0 -111.74166304 0 9113.09799694 0 816.41078179 0 96.99300697 0 8571
0.09050000 0.09049190 20389.89316267 0 317.83421381 0 8790.54700766 0 -256.75889180 0 944.81713990 0 8932
0.09150000 0.09150830 19935.02201207 0 504.79932835 0 8623.53756614 0 -147.18448493 0 1091.07452690 0 9285
0.09250000 0.09250820 19824.40736618 0 -15.91389953 0 7911.36378740 0 911.26366449 0 -236.39129732 0 9204
0.09350000 0.09350330 19331.63944018 0 685.73171562 0 8402.91242584 0 284.01601021 0 231.31312942 0 9349
0.09450000 0.09448040 18140.14285228 0 680.39211489 0 8233.11290288 0 -199.11515027 0 1680.20022204 0 9564
0.09550000 0.09549270 17711.08544725 0 311.54884138 0 8473.26861322 0 632.42358488 0 1133.73970527 0 10155
0.09650000 0.09649430 17326.73525263 0 -243.91902491 0 7202.54030330 0 1728.33461909 0 1645.91737102 0 9913
0.09750000 0.09749140 17976.69241227 0 -220.91513301 0 6662.40690033 0 783.88106855 0 2485.72089858 0 10476
0.09850000 0.09850240 17455.80398046 0 21.11234850 0 5827.21689325 0 431.97161213 0 1641.77618715 0 10575
0.09950000 0.09950330 17630.89806741 0 748.81282058 0 6545.93747725 0 -921.21458879 0 832.48230994 0 10882
0.10050000 0.10051200 16526.61898581 0 618.49624531 0 6872.56374295 0 -1172.47130819 0 1486.68500688 0 10875
0.10150000 0.10150300 16500.80524024 0 74.39532457 0 7034.46535823 0 242.05604140 0 442.41794066 0 11118
0.10250000 0.10250800 16201.91502030 0 -177.76663346 0 7395.29758295 0 606.98111787 0 473.96673157 0 11575
0.10350000 0.10349800 16010.78345739 0 303.77066554 0 6556.80121953 0 653.76331404 0 584.25074183 0 11364
0.10450000 0.10450100 16201.03625450 0 190.32859066 0 6671.23849668 0 -304.96798395 0 1173.89930262 0 12093
0.10550000 0.10551000 15634.45200075 0 66.07736683 0 6465.03610019 0 470.30667198 0 1019.00254928 0 12067
0.10650000 0.10649700 15752.42631028 0 223.87877069 0 6644.20546356 0 335.04703905 0 1023.17998223 0 12054
0.10750000 0.10749900 15484.95196792 0 234.42066500 0 6714.47377436 0 -85.94571248 0 937.12024989 0 12807
0.10850000 0.10850100 15124.98752443 0 90.83274882 0 6896.52109575 0 -43.64148717 0 1769.47184341 0 12736
0.10950000 0.10950300 15182.21714758 0 -56.53891322 0 6410.91511108 0 600.44419873 0 1133.92644300 0 12933
0.11050000 0.11050200 15403.33659364 0 -20.26829394 0 6194.51903122 0 326.99974117 0 1468.68129242 0 13428
0.11150000 0.11150900 15052.92872830 0 191.98506420 0 5879.02013754 0 -122.61968527 0 689.41813818 0 13453
0.11250000 0.11250000 14833.78650530 0 282.18488196 0 6350.55488474 0 266.25285788 0 1144.43867896 0 13668
0.11350000 0.11349100 14325.75002341 0 216.39278448 0 5628.92338901 0 144.64595021 0 647.47354778 0 13791
0.11450000 0.11448600 14516.00282052 0 211.29594280 0 5956.76894227 0 509.34913831 0 1566.00460549 0 14205
0.11550000 0.11549300 14339.26104769 0 -75.49323260 0 5484.70693559 0 281.40278039 0 651.43678156 0 14776
0.11650000 0.11649800 14168.56078977 0 152.88108427 0 5677.12369350 0 225.08377831 0 927.66802518 0 14553
0.11750000 0.11747300 13933.16139935 0 -6.84084030 0 4788.62555568 0 412.77607155 0 1558.78774130 0 14568
0.11850000 0.11849100 14054.54092638 0 -381.52496255 0 4387.24927356 0 660.45841103 0 1368.06260757 0 16015
0.11950000 0.11950300 14216.12398905 0 257.35645255 0 4175.44474505 0 470.89764199 0 1418.71247174 0 15270
0.12050000 0.12050700 13755.10147781 0 367.67781036 0 3945.20810374 0 -340.96442830 0 1881.37168430 0 15999
0.12150000 0.12150000 13914.48762596 0 142.52373079 0 4089.40258802 0 208.37624341 0 1528.85478102 0 15670
0.12250000 0.12250700 13776.19185717 0 -62.51968346 0 4077.06691301 0 318.79536391 0 1396.98498718 0 16887
0.12350000 0.12352200 13619.88138933 0 -3.17511267 0 3907.08065231 0 314.78269955 0 961.46535810 0 16407
0.12450000 0.12449800 13248.60283608 0 380.00250079 0 3939.90255519 0 -1008.67046031 0 919.10994468 0 16306
0.12550000 0.12549900 12956.96243405 0 139.76111078 0 4007.85312117 0 -55.53294607 0 812.93416457 0 17523
0.12650000 0.12650100 12931.47822566 0 105.29075310 0 3971.60403166 0 782.30917621 0 555.57112128 0 17154
0.12750000 0.12750600 13125.13624027 0 -35.00256022 0 3682.59992704 0 354.11515859 0 528.63585085 0 18007
0.12850000 0.12850300 12870.40400211 0 53.40073068 0 3409.25982293 0 103.73775423 0 356.31097465 0 17496
0.12950000 0.12949900 12595.46015040 0 331.21342322 0 3010.84937540 0 48.83103864 0 329.54596510 0 18405
0.13050000 0.13049000 12496.70884289 0 208.94194890 0 3654.05102290 0 -364.69879427 0 1066.17579623 0 18100
0.13150000 0.13148800 12175.84947779 0 164.64006922 0 3823.55396240 0 -87.18235566 0 517.77869931 0 19059
0.13250000 0.13249300 11832.36189317 0 173.34314608 0 3679.72196902 0 191.84446168 0 690.55833681 0 18957
0.13350000 0.13349100 12021.62607875 0 -4.04354200 0 3839.66833038 0 120.80503388 0 791.50106655 0 19468
0.13450000 0.13450700 11831.04374446 0 74.99651022 0 3796.22434582 0 118.35657265 0 963.34262155 0 19953
0.13550000 0.13551000 11784.68884817 0 114.76681433 0 3980.90796463 0 380.31556111 0 1105.49836916 0 19956
0.13650000 0.13649900 11814.89642277 0 -6.20361426 0 3515.90903812 0 54.54103916 0 1485.38882731 0 19723
0.13750000 0.13749600 11915.84464479 0 52.53833189 0 3654.79797384 0 177.49311760 0 1331.31921229 0 20946
0.13850000 0.13851100 11327.95032024 0 124.35195236 0 3350.51432876 0 149.68017982 0 1621.55358903 0 20955
0.13950000 0.13949800 11418.46319831 0 187.82630503 0 3778.03389363 0 49.81316928 0 1434.65108656 0 20506
0.14050000 0.14048300 11065.63872699 0 343.29425614 0 3606.89425281 0 -424.93379648 0 1461.12390648 0 21447
0.14150000 0.14148400 10849.00098654 0 221.78291425 0 4154.98048633 0 262.31269170 0 1849.58233125 0 21771
0.14250000 0.14249400 10714.15437354 0 -141.23414196 0 3554.02550498 0 200.68045186 0 880.42008314 0 22470
0.14350000 0.14350900 10779.90802501 0 -54.64363507 0 3470.02647845 0 277.68340411 0 1203.03038911 0 22519
0.14450000 0.14449900 10717.28497672 0 46.84008486 0 3237.32929288 0 11.70944453 0 790.67173132 0 22218
0.14550000 0.14550500 10802.53624453 0 29.53235292 0 2596.34652904 0 338.82023973 0 700.70808188 0 23559
0.14650000 0.14650700 10818.18926045 0 -72.85836317 0 2855.89001000 0 39.79985261 0 827.77871596 0 23044
0.14750000 0.14750500 10615.93032551 0 114.27141011 0 2802.50498725 0 -97.36999750 0 223.74036508 0 23649
0.14850000 0.14849900 10644.16067705 0 324.01303589 0 2673.35936741 0 -254.85306846 0 41.00804574 0 23640
0.14950000 0.14949500 10267.33491464 0 271.17834023 0 3280.11420309 0 -723.95912666 0 -764.48890411 0 24457
0.15050000 0.15050000 9850.30561659 0 198.89765573 0 3264.63694032 0 -31.52089010 0 -33.87038033 0 24591
0.15150000 0.15149900 10006.31950097 0 -12.46364528 0 3535.62634590 0 451.95254966 0 -679.29914992 0 25020
0.15250000 0.15250500 9816.44017933 0 6.52556110 0 3172.50933008 0 120.72594496 0 -650.05492233 0 25297
0.15350000 0.15350100 9985.71244280 0 -124.44092740 0 2600.30097517 0 403.36339130 0 -489.75925157 0 25452
0.15450000 0.15450400 9827.01832272 0 95.63520396 0 2654.31211856 0 97.92098366 0 -150.74568336 0 26061
0.15550000 0.15549900 9764.20853670 0 137.68173119 0 2615.55854649 0 -99.73816151 0 -442.44210672 0 26128
0.15650000 0.15649500 9584.62175957 0 289.99491306 0 2900.67411241 0 -297.26230628 0 -377.51229819 0 26331
0.15750000 0.15749700 9260.04960894 0 208.04560778 0 2859.82248698 0 -1.08952131 0 21.61346470 0 27345
0.15850000 0.15849900 9244.51742331 0 -60.66427930 0 2925.01592525 0 352.64981661 0 -394.90307350 0 26980
0.15950000 0.15949700 9146.02974554 0 13.04198303 0 2688.30937070 0 274.51105955 0 -147.99075256 0 27777
0.16050000 0.16050000 9321.37647766 0 106.87154294 0 2768.27705909 0 38.33407124 0 -64.93705835 0 28224
0.16150000 0.16150500 9045.67469044 0 -17.21765845 0 2358.60742467 0 270.72248047 0 140.20928134 0 28075
0.16250000 0.16249700 9048.35492615 0 48.13747273 0 2506.19614187 0 58.98440862 0 111.10126246 0 28590
0.16350000 0.16349900 8971.99017756 0 161.26670698 0 2475.88970612 0 -206.57916734 0 -97.37076642 0 29163
0.16450000 0.16449100 8582.98252417 0 254.49606985 0 2661.05664612 0 -78.45181738 0 -38.47324577 0 28996
0.16550000 0.16550500 8619.82478060 0 200.90343868 0 2943.25031574 0 -216.75307846 0 -90.24946802 0 30777
0.16650000 0.16650700 8225.59945523 0 -42.11276421 0 2541.53351186 0 -11.67099852 0 69.55409389 0 29211
0.16750000 0.16749900 8396.08002169 0 57.70064162 0 2715.19960437 0 499.20049170 0 -260.99014916 0 30922
0.16850000 0.16850800 8323.85645697 0 -28.75881932 0 2251.16732025 0 245.94348164 0 99.08490898 0 30867
0.16950000 0.16949900 8400.26514385 0 131.94119356 0 2489.92798988 0 72.57638919 0 5.81050936 0 30852
0.17050000 0.17049200 8269.77940615 0 142.31941774 0 2388.33167807 0 -5.70446429 0 235.28185549 0 31257
0.17150000 0.17149500 8187.48298838 0 39.77788346 0 2408.55427619 0 -160.91739757 0 15.31798646 0 32608
0.17250000 0.17250900 8124.31071146 0 90.93073121 0 2365.31899851 0 -115.10294225 0 184.69680030 0 32361
0.17350000 0.17350400 7963.25490827 0 8.48997615 0 2608.71515777 0 124.99015603 0 341.60592734 0 32508
0.17450000 0.17449800 7930.48792826 0 99.66148919 0 2671.20639119 0 42.46196377 0 341.15555986 0 32791
0.17550000 0.17549800 7661.32196173 0 208.92766895 0 2660.09000373 0 -177.67326459 0 136.71399035 0 33633
0.17650000 0.17650100 7709.62112737 0 152.54166098 0 2883.93362380 0 -62.44301114 0 106.95799153 0 33984
0.17750000 0.17750300 7591.32826524 0 -28.13346760 0 2817.40006767 0 317.18282866 0 545.62678772 0 34069
0.17850000 0.17849800 7689.58526698 0 -166.63816297 0 2629.58584568 0 417.06335023 0 276.93205935 0 34536
