### header ###
fiducial parameters:
Omega_m = 0.31
Omega_nu = 0
Omega_de = 0.69
Omega_k = 0
H_0 = 100
w_de = -1
zeff = 0
beta = 0
fgrowth = 0
b_1 = 2
gamma = 0.55
Lx = 3500 Ly = 3500 Lz = 3500
nx = 700 ny = 700 nz = 700
xoffset = -983.599254 yoffset = -42.9823471 zoffset = 800.977702
bins = 400 dk = 0.001
kx_ny = 0.628318531 ky_ny = 0.628318531 kz_ny = 0.628318531
############################
A(data) = 9.06006154 (not used)
A(ran) = 9.06976248 (used)
Ngal = 504197
weighted Ngal = 0
Nran = 25229228
weighted Nran = 0
SN(data) = 6702.89121
SN(ran) = 134.634375
SN(data+ran) = 6837.52559
############################
13 columns: k_central k_mean P_0(k) sigma^{lin}_{P_0(k)} P^img_1(k) sigma^{lin}_{P_1(k)} P_2(k) sigma^{lin}_{P_2(k)} P^img_3(k) sigma^{lin}_{P_3(k)} P_4(k) sigma^{lin}_{P_4(k)} N_modes
### header ###
0.00050000 0 0 0 0 0 0 0 0 0 0 0 0
0.00150000 0.00179520 8520.77688964 0 -10715.63729083 0 10369.46947051 0 -50763.22496161 0 -80844.58682135 0 3
0.00250000 0.00253879 15189.57681121 0 -13355.59257303 0 -38503.45334930 0 60884.95936669 0 44383.60489782 0 6
0.00350000 0.00331552 45646.28151605 0 -40076.55398868 0 -27904.65895702 0 -18466.38465795 0 -29851.78429278 0 7
0.00450000 0.00420575 63147.01239837 0 -23455.46767867 0 -47491.03063536 0 -13027.70308147 0 -17780.50794597 0 24
0.00550000 0.00557378 75127.99555856 0 -2703.35823513 0 -37960.48592661 0 -39973.73838931 0 -8259.08043246 0 45
0.00650000 0.00659388 99868.54838352 0 9595.95783847 0 -52960.46901506 0 -38520.80897398 0 46330.51054214 0 40
0.00750000 0.00754703 63353.08297999 0 3216.65632729 0 -9933.05240185 0 -8152.95847675 0 -13361.96362512 0 57
0.00850000 0.00846663 90225.41180581 0 -1456.47743228 0 -15019.75531910 0 -13764.54821023 0 -4935.67602883 0 75
0.00950000 0.00948925 70184.16897688 0 -2167.06943257 0 6188.53243917 0 6727.33670885 0 -9051.03516186 0 112
0.01050000 0.01054430 71601.72806850 0 -56.10732937 0 -4948.30828730 0 -4657.62354308 0 9271.60537929 0 105
0.01150000 0.01145670 79970.32468960 0 10487.37787259 0 20107.36995587 0 -15769.23270632 0 -6007.73735905 0 144
0.01250000 0.01249090 60201.93864358 0 3589.50567441 0 22939.19276734 0 -836.02703151 0 23369.45847536 0 169
0.01350000 0.01339930 71129.39144750 0 181.66286135 0 23193.59546833 0 20220.62089919 0 4461.35120019 0 180
0.01450000 0.01448870 85356.39016341 0 -14066.29441904 0 17929.89813307 0 15349.84172517 0 8009.73063486 0 267
0.01550000 0.01550050 81595.38235728 0 2140.16821431 0 -7490.95124099 0 -8873.93089813 0 -14967.90813652 0 238
0.01650000 0.01653350 79435.70554206 0 7557.23215195 0 16301.32540216 0 -16671.61534388 0 11050.91939973 0 315
0.01750000 0.01747870 70857.85281329 0 3111.83055114 0 26900.77886881 0 -2171.59507647 0 -6161.42251404 0 297
0.01850000 0.01844180 72989.07958553 0 7309.50807109 0 31558.23764330 0 -2299.40057845 0 -14915.62157103 0 388
0.01950000 0.01947590 62846.47449254 0 7373.20760749 0 32525.75879626 0 -4876.18358373 0 -18083.68214921 0 399
0.02050000 0.02045430 60806.09013556 0 857.17013681 0 38702.60365020 0 -78.16325265 0 -6081.41088735 0 462
0.02150000 0.02154770 60753.69372434 0 -6911.84457450 0 24285.02260001 0 20376.71167557 0 -6341.15209061 0 571
0.02250000 0.02255340 65763.31789579 0 -3626.69943717 0 15555.47292389 0 9941.03818612 0 -14768.09876126 0 510
0.02350000 0.02348930 72364.71648000 0 67.17725208 0 1033.41980079 0 972.33678958 0 -3031.65415587 0 555
0.02450000 0.02439640 71675.54439625 0 -3825.41035517 0 9550.41580055 0 1849.03310262 0 -10875.81432822 0 592
0.02550000 0.02547300 68926.65510777 0 2135.66453956 0 9834.70752353 0 -15406.74181114 0 -14274.01268655 0 837
0.02650000 0.02652900 63517.30234008 0 9008.51388140 0 16284.62885184 0 -7366.51800279 0 -12688.16994298 0 723
0.02750000 0.02749970 63498.29902952 0 3024.44827626 0 23775.66796941 0 -1164.01318730 0 -12137.07393658 0 826
0.02850000 0.02848090 60046.61678728 0 -735.44239884 0 33904.43250094 0 -1098.17934845 0 -12016.90271254 0 831
0.02950000 0.02946900 59486.18389418 0 3866.97597782 0 31134.23314166 0 4535.87054059 0 -19841.21376223 0 996
0.03050000 0.03053250 57708.66035907 0 248.83462114 0 34383.25001977 0 4671.66182684 0 -1320.11494825 0 1041
0.03150000 0.03150510 56788.92209683 0 -3592.53741645 0 24074.22865218 0 6072.63421386 0 -2337.45113787 0 1036
0.03250000 0.03246190 59637.66115008 0 -208.50146754 0 26038.59976690 0 6263.79873049 0 -971.41188857 0 1059
0.03350000 0.03345080 57393.18343453 0 2444.10035307 0 19794.96871166 0 1394.95284125 0 928.44243755 0 1302
0.03450000 0.03451200 57550.26282245 0 1734.06856598 0 26825.09516372 0 -5212.44331959 0 -5529.61186830 0 1339
0.03550000 0.03553350 52894.23204239 0 3515.05224146 0 25113.69875555 0 -572.25778548 0 -442.42453140 0 1365
0.03650000 0.03647120 50806.61402331 0 1578.37323421 0 25282.42179040 0 3406.54663350 0 1069.53707544 0 1308
0.03750000 0.03744890 48490.51689453 0 339.54192615 0 25277.25904128 0 5870.85860012 0 -1447.20645302 0 1579
0.03850000 0.03847530 46897.53417879 0 1982.64944350 0 21067.64129094 0 7643.86747590 0 4767.46926889 0 1662
0.03950000 0.03950240 43659.61171898 0 1410.79259491 0 19397.65672139 0 256.31181970 0 9804.08253517 0 1683
0.04050000 0.04050350 40924.45314623 0 3378.95338717 0 19566.16006479 0 489.07601115 0 3905.33410527 0 1822
0.04150000 0.04152450 38115.36840000 0 1299.51887466 0 21641.36551686 0 87.71049391 0 9858.91752150 0 1887
0.04250000 0.04250150 37500.89140980 0 -649.45846004 0 20435.25944743 0 -231.20877598 0 5815.52930802 0 1920
0.04350000 0.04349210 38476.65099220 0 157.77910519 0 19268.47814784 0 4205.11407559 0 5147.24988132 0 2005
0.04450000 0.04448520 38268.38349606 0 1027.81437341 0 19167.52992581 0 -859.87124321 0 2626.53213450 0 2151
0.04550000 0.04548030 37708.93921449 0 -227.78268779 0 17972.29858324 0 1738.11088869 0 4053.91143401 0 2274
0.04650000 0.04648670 38450.39786373 0 -791.32311647 0 17219.41597851 0 2701.42495036 0 2262.36059971 0 2311
0.04750000 0.04749250 37588.98768190 0 -224.65428152 0 16461.37062468 0 -144.74371290 0 4534.21187013 0 2568
0.04850000 0.04851840 39065.31423684 0 536.34262697 0 15434.64262550 0 1414.82393305 0 -2260.07580861 0 2493
0.04950000 0.04949480 38905.48870578 0 -689.87619486 0 13149.85152858 0 1469.79073425 0 3763.34752009 0 2644
0.05050000 0.05050630 37831.08766160 0 363.99138780 0 12766.05056259 0 3039.70584757 0 1981.90249256 0 2829
0.05150000 0.05149060 38050.99880468 0 362.58316559 0 12135.20655924 0 -1227.51500139 0 1541.16848688 0 2784
0.05250000 0.05249300 37492.32344319 0 1019.01023848 0 11628.26853461 0 -2155.12920217 0 -4025.58222132 0 3055
0.05350000 0.05348950 35377.68337555 0 1386.34093635 0 12467.27018837 0 1307.35087491 0 -1235.88524570 0 3009
0.05450000 0.05448610 33754.16354803 0 -38.45951506 0 11172.73830966 0 172.74997916 0 1021.00064303 0 3336
0.05550000 0.05550870 35209.18003216 0 -590.36365647 0 9543.35272038 0 3777.34186555 0 -2630.81611780 0 3349
0.05650000 0.05647670 35275.08746764 0 525.12518145 0 9994.30237856 0 1123.35928418 0 -1826.38291395 0 3324
0.05750000 0.05747970 33466.03820922 0 1299.63970496 0 8275.71107535 0 -98.47669319 0 2682.77314611 0 3639
0.05850000 0.05849280 33015.12150476 0 -217.54726306 0 8692.05932990 0 1973.10384992 0 1751.39123694 0 3846
0.05950000 0.05951020 32709.31100409 0 15.91335030 0 8935.91684120 0 1051.27302661 0 2364.76976988 0 3787
0.06050000 0.06049470 32975.79673492 0 873.97653286 0 6664.58184570 0 626.89395105 0 2643.18474653 0 3930
0.06150000 0.06148310 31161.03549875 0 504.25449355 0 10001.88173364 0 -1732.64057155 0 3717.24526896 0 4083
0.06250000 0.06249100 31241.11303287 0 121.89030965 0 8966.04752380 0 713.66328678 0 3308.64113808 0 4303
0.06350000 0.06350600 31265.49878400 0 667.57531560 0 8983.98533082 0 461.75298532 0 2866.12763164 0 4470
0.06450000 0.06451750 29979.86440908 0 539.42050421 0 8809.31964220 0 -1486.28956226 0 681.03581084 0 4479
0.06550000 0.06550280 29870.23837472 0 480.27187623 0 10571.75037459 0 -81.84791768 0 1535.80801546 0 4636
0.06650000 0.06648880 29897.80965190 0 -343.97859501 0 8647.90134812 0 1408.59568040 0 667.74777339 0 4653
0.06750000 0.06749660 29757.86619721 0 -525.72054529 0 9294.07981479 0 580.69064185 0 1638.38195423 0 5220
0.06850000 0.06852730 30185.27591635 0 554.21892039 0 8008.61020846 0 -34.76529345 0 -1923.17896754 0 5029
0.06950000 0.06949320 28945.66690055 0 1388.86738804 0 9839.24415200 0 -949.37354060 0 -180.47762597 0 5040
0.07050000 0.07048030 28758.81932094 0 112.81815115 0 9353.95671993 0 78.71610619 0 757.25666153 0 5475
0.07150000 0.07148790 28398.85487745 0 -377.34752960 0 9690.96340673 0 35.00991989 0 -396.07622585 0 5509
0.07250000 0.07249820 28359.09072471 0 372.82298415 0 9931.63539199 0 1.17673332 0 -3510.70235072 0 5916
0.07350000 0.07351270 27616.75330966 0 1100.88484867 0 9855.45738113 0 -2058.70662405 0 -1686.56028957 0 5721
0.07450000 0.07449140 26773.24798114 0 629.18862826 0 11008.84848675 0 320.41448991 0 -1740.00023518 0 6028
0.07550000 0.07549160 26964.48938978 0 -407.02235243 0 10299.35494372 0 777.47596428 0 -3729.46011367 0 6183
0.07650000 0.07648840 26526.86401814 0 278.27547257 0 9544.05573303 0 1158.13644097 0 -4185.95698101 0 6330
0.07750000 0.07749960 26274.65823167 0 526.92445444 0 9119.49101818 0 342.18261740 0 -2791.55336839 0 6583
0.07850000 0.07848650 25029.44708385 0 364.28797126 0 8623.68036558 0 699.02854073 0 -2749.59230113 0 6549
0.07950000 0.07947320 24165.51045033 0 611.39032530 0 8108.55883438 0 670.81686297 0 -1699.28042462 0 6828
0.08050000 0.08048110 23318.27036713 0 370.89519167 0 8114.72117960 0 276.15435161 0 -2057.58619765 0 7147
0.08150000 0.08149960 23732.71829062 0 477.23464191 0 7150.39653725 0 830.04922711 0 -1711.31951617 0 7386
0.08250000 0.08250610 22896.57262573 0 -122.37363084 0 6974.17103933 0 1164.79309195 0 -651.09076753 0 7227
0.08350000 0.08350160 22843.51714016 0 -17.23369592 0 6167.45304438 0 334.79329542 0 -766.47491484 0 7798
0.08450000 0.08449610 22574.06557474 0 232.56646915 0 5818.49514262 0 -581.24096894 0 -968.37685117 0 7371
0.08550000 0.08548940 22373.59712513 0 597.46628110 0 6826.68118328 0 -339.64298422 0 378.79859164 0 8256
0.08650000 0.08650700 22101.94864519 0 60.48171571 0 7605.48737930 0 701.66373969 0 -886.42205360 0 8037
0.08750000 0.08749060 21542.28467218 0 371.60589351 0 7774.19942957 0 -683.40957698 0 -457.62058911 0 8155
0.08850000 0.08849210 21119.92785642 0 1155.54408184 0 8295.85678146 0 -435.35705740 0 -911.52839269 0 8718
0.08950000 0.08949900 19907.34088917 0 153.19414459 0 8881.25760804 0 381.87207505 0 1695.93012998 0 8571
0.09050000 0.09049190 20484.47033259 0 -137.99479151 0 8324.40568560 0 1135.76086662 0 232.91907393 0 8932
0.09150000 0.09150830 20029.37949055 0 -263.19694979 0 7876.07035569 0 1570.57418768 0 1304.95623809 0 9285
0.09250000 0.09250820 19954.57455127 0 164.44674074 0 5439.01111365 0 443.78112612 0 1384.04516068 0 9204
0.09350000 0.09350330 19642.17330705 0 742.02765010 0 6386.19982277 0 194.91245280 0 1074.98102961 0 9349
0.09450000 0.09448040 19356.46457421 0 475.18931450 0 6483.01784550 0 -968.80964333 0 1284.53591766 0 9564
0.09550000 0.09549270 18040.18324179 0 524.94393600 0 6176.01002642 0 634.00536334 0 694.97523345 0 10155
0.09650000 0.09649430 17657.37088733 0 -32.02958565 0 5654.92387231 0 619.60349022 0 1167.14379049 0 9913
0.09750000 0.09749140 17633.97374773 0 -85.43613816 0 4715.13876511 0 989.17723781 0 221.04475097 0 10476
0.09850000 0.09850240 17376.38552070 0 617.10669688 0 5089.06460036 0 50.72049497 0 -56.97181523 0 10575
0.09950000 0.09950330 16810.68003276 0 433.11400768 0 4448.42235827 0 -643.58610754 0 1054.09496331 0 10882
0.10050000 0.10051200 16030.00645941 0 309.87698943 0 4911.86147547 0 -298.28606845 0 -303.46968825 0 10875
0.10150000 0.10150300 15473.85754961 0 379.22149768 0 5061.29560087 0 106.65679455 0 15.41278333 0 11118
0.10250000 0.10250800 15567.44610801 0 55.98770737 0 4731.20919480 0 152.39995999 0 -474.42808362 0 11575
0.10350000 0.10349800 15059.73916330 0 197.97055780 0 4939.85016641 0 815.51224376 0 307.88878180 0 11364
0.10450000 0.10450100 15290.52503323 0 -145.94322823 0 4309.32471567 0 529.76616337 0 -56.19180073 0 12093
0.10550000 0.10551000 15159.25939088 0 82.41076718 0 4356.84397666 0 77.95432608 0 784.91911066 0 12067
0.10650000 0.10649700 15104.11683652 0 377.23988079 0 4524.22689365 0 44.67535515 0 285.46267841 0 12054
0.10750000 0.10749900 15087.96951483 0 20.58761547 0 4838.74816037 0 -951.80332806 0 730.26536978 0 12807
0.10850000 0.10850100 14857.40333635 0 88.09088966 0 5304.71372927 0 459.07824189 0 -499.26200531 0 12736
0.10950000 0.10950300 14827.96468183 0 -60.86046377 0 5190.72681960 0 -439.09071362 0 525.78645272 0 12933
0.11050000 0.11050200 14909.14067321 0 -155.01099290 0 5142.76817571 0 351.37121236 0 969.38413647 0 13428
0.11150000 0.11150900 15013.60395845 0 -171.31868935 0 4560.10250770 0 830.56440356 0 -160.19241578 0 13453
0.11250000 0.11250000 15451.22933009 0 260.97257384 0 5113.48330520 0 -484.26147299 0 -133.09457368 0 13668
0.11350000 0.11349100 15011.95627257 0 452.71158362 0 4476.68566352 0 157.98122132 0 11.58927330 0 13791
0.11450000 0.11448600 14662.42717303 0 101.45889480 0 5150.29260792 0 -562.20140929 0 55.76131533 0 14205
0.11550000 0.11549300 14159.22390308 0 401.73108382 0 5363.85466805 0 56.74685118 0 -651.78718943 0 14776
0.11650000 0.11649800 14042.01851363 0 342.07826396 0 5553.63512854 0 -383.52635168 0 -302.13945651 0 14553
0.11750000 0.11747300 13540.57277530 0 108.39828868 0 5853.90940462 0 -116.04761549 0 61.14386574 0 14568
0.11850000 0.11849100 13619.11246925 0 -240.86311682 0 5044.88464943 0 998.32738677 0 -751.50953315 0 16015
0.11950000 0.11950300 13720.06069128 0 5.65216674 0 4862.51877544 0 782.30697930 0 8.86326488 0 15270
0.12050000 0.12050700 13646.57390071 0 172.25567339 0 4440.54641973 0 -344.07306234 0 -276.76399539 0 15999
0.12150000 0.12150000 13500.91846828 0 98.61356097 0 4655.98684176 0 222.31456756 0 290.12782639 0 15670
0.12250000 0.12250700 13537.49709497 0 163.31093594 0 4326.59246377 0 376.76315034 0 -138.25512588 0 16887
0.12350000 0.12352200 13690.51219103 0 -45.41692364 0 4255.48932545 0 198.42312219 0 -61.53996943 0 16407
0.12450000 0.12449800 13307.69983657 0 -97.73369670 0 3730.20706461 0 331.87469449 0 306.01701063 0 16306
0.12550000 0.12549900 13326.15391851 0 156.78939520 0 4298.43900424 0 66.31210714 0 -165.24312226 0 17523
0.12650000 0.12650100 13100.75048914 0 209.95912032 0 3686.96080236 0 -187.88672017 0 483.24540003 0 17154
0.12750000 0.12750600 12662.13650597 0 321.56787003 0 4207.90415703 0 183.57527544 0 56.57109802 0 18007
0.12850000 0.12850300 12488.90979636 0 204.18453051 0 4045.83777316 0 -94.12416615 0 706.19926971 0 17496
0.12950000 0.12949900 12271.63495070 0 209.06277920 0 3797.86104714 0 325.31031391 0 225.17385180 0 18405
0.13050000 0.13049000 12210.56072715 0 87.47355668 0 4019.66153670 0 268.52886132 0 471.72807568 0 18100
0.13150000 0.13148800 12052.82226488 0 10.50352519 0 3776.56196090 0 372.36602593 0 720.50008476 0 19059
0.13250000 0.13249300 11883.44015567 0 -118.29505904 0 3285.11218361 0 299.34937507 0 609.10333729 0 18957
0.13350000 0.13349100 12133.22933617 0 61.07136756 0 3154.85712194 0 289.82794756 0 796.16072224 0 19468
0.13450000 0.13450700 11959.78293511 0 16.34702122 0 3054.17252966 0 209.90859129 0 1243.81610710 0 19953
0.13550000 0.13551000 11705.38023413 0 156.12482856 0 3347.74621647 0 -259.64124365 0 1094.54345492 0 19956
0.13650000 0.13649900 11806.21861043 0 359.76672118 0 3091.80567533 0 -392.71934047 0 718.67994108 0 19723
0.13750000 0.13749600 11407.03924282 0 134.37207947 0 3926.14987031 0 -414.52481550 0 700.80254920 0 20946
0.13850000 0.13851100 11334.10168088 0 -13.69259926 0 3570.88682389 0 555.25915941 0 1028.39106347 0 20955
0.13950000 0.13949800 11449.43969299 0 -80.78746704 0 3540.75614130 0 420.90575371 0 726.00006025 0 20506
0.14050000 0.14048300 11526.99077541 0 157.96474446 0 3146.51983135 0 131.90055064 0 480.85296012 0 21447
0.14150000 0.14148400 11232.71407596 0 282.12336835 0 3486.36053787 0 -840.72293629 0 139.83141205 0 21771
0.14250000 0.14249400 10550.89067126 0 384.75442689 0 3879.94875804 0 -228.26491053 0 660.57484750 0 22470
0.14350000 0.14350900 10524.60458907 0 46.42135296 0 4213.35250503 0 228.96133243 0 746.66643510 0 22519
0.14450000 0.14449900 10325.19065843 0 -1.99319463 0 3795.94973151 0 327.27984777 0 -218.70943084 0 22218
0.14550000 0.14550500 10164.88180618 0 230.62219980 0 3890.91136147 0 260.50353260 0 879.31064131 0 23559
0.14650000 0.14650700 10161.30083552 0 42.30389577 0 3408.52385656 0 -8.87477671 0 504.96849077 0 23044
0.14750000 0.14750500 9990.31497872 0 285.30120520 0 4063.76459561 0 -29.19754315 0 723.97560352 0 23649
0.14850000 0.14849900 9923.19924024 0 -93.33701168 0 3635.68481755 0 310.22739730 0 661.15043910 0 23640
0.14950000 0.14949500 9840.48540871 0 -55.77449682 0 3440.07154902 0 52.57304314 0 150.86431675 0 24457
0.15050000 0.15050000 9879.72230197 0 236.02221568 0 3422.85872378 0 -9.60656894 0 417.28853396 0 24591
0.15150000 0.15149900 9840.39753213 0 -159.87056781 0 3066.10177549 0 352.26755348 0 546.65494371 0 25020
0.15250000 0.15250500 9880.84272837 0 -159.03903566 0 2784.27059677 0 727.38082102 0 445.79459827 0 25297
0.15350000 0.15350100 10038.35051461 0 33.19307158 0 2388.65023068 0 316.49739133 0 543.09923757 0 25452
0.15450000 0.15450400 9825.61229743 0 218.42273349 0 2261.11934301 0 -221.88507077 0 792.10302113 0 26061
0.15550000 0.15549900 9320.38786612 0 228.89432654 0 2203.52722896 0 9.66263419 0 761.49890346 0 26128
0.15650000 0.15649500 9539.31039767 0 83.13256344 0 2372.95327646 0 197.17966858 0 616.29274005 0 26331
0.15750000 0.15749700 9211.84930445 0 134.72578271 0 2209.61268217 0 60.82465406 0 758.62424081 0 27345
0.15850000 0.15849900 9349.06858513 0 113.40033350 0 2446.39612874 0 -177.36020427 0 490.36779689 0 26980
0.15950000 0.15949700 9118.03007003 0 6.92312573 0 2294.10601447 0 -90.51463560 0 440.89877427 0 27777
0.16050000 0.16050000 8979.36082576 0 38.95964265 0 2273.86144720 0 -157.00798819 0 353.64721580 0 28224
0.16150000 0.16150500 8859.43126232 0 24.91652568 0 2331.83802129 0 122.83498289 0 212.78545084 0 28075
0.16250000 0.16249700 8894.50500257 0 122.76028780 0 2242.86298338 0 388.66273782 0 414.29853331 0 28590
0.16350000 0.16349900 9049.78292058 0 91.76402089 0 2173.36359265 0 -251.63788407 0 -173.95938060 0 29163
0.16450000 0.16449100 8876.36947324 0 114.98650578 0 2168.87090247 0 205.57188203 0 223.50859060 0 28996
0.16550000 0.16550500 8749.72833595 0 31.37962849 0 2213.19365283 0 -16.75224211 0 -122.92285947 0 30777
0.16650000 0.16650700 8600.78851632 0 108.64774833 0 2111.41060330 0 6.03899945 0 -75.17028616 0 29211
0.16750000 0.16749900 8465.06313751 0 100.46984389 0 2160.79724162 0 -122.52741486 0 65.99816806 0 30922
0.16850000 0.16850800 8301.07445344 0 142.72255155 0 2125.15230359 0 -32.77730551 0 48.37199336 0 30867
0.16950000 0.16949900 8118.82940974 0 156.35111075 0 2250.88172136 0 8.89000133 0 -103.39382726 0 30852
0.17050000 0.17049200 7889.28479651 0 201.32524627 0 2137.78456206 0 77.90116075 0 -121.60141539 0 31257
0.17150000 0.17149500 7830.47339491 0 60.30980715 0 2279.06813460 0 115.05131476 0 121.98367852 0 32608
0.17250000 0.17250900 7833.62596724 0 50.87021470 0 2287.32853319 0 126.67079564 0 -25.06327957 0 32361
0.17350000 0.17350400 7731.24975078 0 44.00804236 0 2108.97202818 0 94.44063169 0 332.45797529 0 32508
0.17450000 0.17449800 7710.20330972 0 -44.46192490 0 2017.14100140 0 169.87311960 0 403.29089312 0 32791
0.17550000 0.17549800 7680.51201003 0 26.65055031 0 1980.71615872 0 101.32631101 0 432.69549547 0 33633
0.17650000 0.17650100 7762.32510661 0 -8.27506299 0 1689.32840186 0 249.47282481 0 587.58126423 0 33984
0.17750000 0.17750300 7651.00744807 0 45.93253948 0 1761.46409000 0 211.58044323 0 788.13868888 0 34069
0.17850000 0.17849800 7796.61894221 0 99.54659056 0 1781.89539500 0 -35.69854274 0 769.13757523 0 34536
