### header ###
fiducial parameters:
Omega_m = 0.31
Omega_nu = 0
Omega_de = 0.69
Omega_k = 0
H_0 = 100
w_de = -1
zeff = 0
beta = 0
fgrowth = 0
b_1 = 2
gamma = 0.55
Lx = 3500 Ly = 3500 Lz = 3500
nx = 700 ny = 700 nz = 700
xoffset = -983.599254 yoffset = -42.9823471 zoffset = 800.977702
bins = 400 dk = 0.001
kx_ny = 0.628318531 ky_ny = 0.628318531 kz_ny = 0.628318531
############################
A(data) = 9.13332125 (not used)
A(ran) = 9.14110175 (used)
Ngal = 507694
weighted Ngal = 0
Nran = 25229228
weighted Nran = 0
SN(data) = 6688.0343
SN(ran) = 135.693358
SN(data+ran) = 6823.72766
############################
13 columns: k_central k_mean P_0(k) sigma^{lin}_{P_0(k)} P^img_1(k) sigma^{lin}_{P_1(k)} P_2(k) sigma^{lin}_{P_2(k)} P^img_3(k) sigma^{lin}_{P_3(k)} P_4(k) sigma^{lin}_{P_4(k)} N_modes
### header ###
0.00050000 0 0 0 0 0 0 0 0 0 0 0 0
0.00150000 0.00179520 23573.33214247 0 -39625.52743849 0 -32165.79435277 0 -4682.48163083 0 31738.60432508 0 3
0.00250000 0.00253879 41659.54074337 0 -22331.96559505 0 -2649.62170606 0 -32207.86526576 0 1253.05413264 0 6
0.00350000 0.00331552 75626.03607940 0 -2363.36374459 0 -18655.75868925 0 -56217.83416833 0 -43264.05726033 0 7
0.00450000 0.00420575 78019.24490770 0 11010.16663546 0 -2707.67517216 0 -83018.87311810 0 8468.23767898 0 24
0.00550000 0.00557378 48742.28329810 0 1736.90258571 0 3325.23882725 0 2613.54836971 0 702.97310074 0 45
0.00650000 0.00659388 60913.95863831 0 -17737.77795863 0 23561.79834126 0 2809.15065366 0 -48507.10359913 0 40
0.00750000 0.00754703 63129.43708224 0 -3780.07702413 0 1962.24010764 0 -15213.63302516 0 -40303.71494966 0 57
0.00850000 0.00846663 67575.99206317 0 11877.17894930 0 9849.56965023 0 3265.33995297 0 21984.19402712 0 75
0.00950000 0.00948925 64242.83335908 0 -2158.02912933 0 24723.30704601 0 -283.95998889 0 2488.81854805 0 112
0.01050000 0.01054430 83982.76936211 0 -11686.04738639 0 1438.23205722 0 7389.38788291 0 -52317.32229042 0 105
0.01150000 0.01145670 83380.37540175 0 103.20643045 0 22600.97777757 0 -8048.23156176 0 -14945.82914563 0 144
0.01250000 0.01249090 75803.76646377 0 9632.40465030 0 14784.46577441 0 -6790.79458466 0 -439.61467774 0 169
0.01350000 0.01339930 74606.22836095 0 -2756.86408818 0 26942.73993607 0 -3132.86600763 0 8662.49984508 0 180
0.01450000 0.01448870 77872.16148084 0 -1165.86958007 0 17177.23521980 0 17742.17178766 0 -13181.92648052 0 267
0.01550000 0.01550050 85149.00143307 0 -1609.53646663 0 6050.32454695 0 4783.46280657 0 7262.52705416 0 238
0.01650000 0.01653350 78829.90636420 0 -1350.66304460 0 14992.18404192 0 -5617.01611233 0 7601.65376347 0 315
0.01750000 0.01747870 78517.39527426 0 5450.84149832 0 21622.58189775 0 2309.84690698 0 3251.89483613 0 297
0.01850000 0.01844180 78599.55987717 0 2783.76530643 0 22958.85515227 0 -2894.84130437 0 2435.91684649 0 388
0.01950000 0.01947590 76906.39785948 0 -2400.23895475 0 10884.25047996 0 3967.80336954 0 11983.28992044 0 399
0.02050000 0.02045430 75334.94490600 0 -1459.13569884 0 16661.72922856 0 845.55834514 0 -1786.38808519 0 462
0.02150000 0.02154770 77000.75533796 0 1985.21983348 0 22922.05683412 0 2977.50021304 0 -6867.73053102 0 571
0.02250000 0.02255340 80500.00077947 0 2389.05665986 0 16436.76518209 0 3744.60783926 0 11742.39824373 0 510
0.02350000 0.02348930 76895.52313263 0 2978.28011770 0 22859.99399903 0 -6700.80896607 0 -464.71222917 0 555
0.02450000 0.02439640 73251.83056167 0 999.03259633 0 23052.00432776 0 -2289.37166369 0 11455.48120791 0 592
0.02550000 0.02547300 69077.69298076 0 4765.98635159 0 29374.61445985 0 1399.63226917 0 -182.94366251 0 837
0.02650000 0.02652900 61599.39596738 0 3694.99052491 0 30223.94161184 0 -1772.83312262 0 3931.27966571 0 723
0.02750000 0.02749970 60730.84581338 0 753.93053295 0 36126.39184270 0 2898.51015161 0 1548.26452077 0 826
0.02850000 0.02848090 56673.14470183 0 2220.01507241 0 31871.73734477 0 -2550.83744484 0 4939.71835154 0 831
0.02950000 0.02946900 58171.66009337 0 2836.48027024 0 34554.06012341 0 9810.57441757 0 4467.06317794 0 996
0.03050000 0.03053250 58992.75689383 0 -2460.93970283 0 27139.47363100 0 3080.55747300 0 1932.77948398 0 1041
0.03150000 0.03150510 58332.47423597 0 741.11812749 0 28963.79144531 0 3180.59397550 0 -1331.00065968 0 1036
0.03250000 0.03246190 54588.49251734 0 1364.72329751 0 25590.64889703 0 -5172.48144454 0 -1102.84010259 0 1059
0.03350000 0.03345080 53429.51026428 0 3738.93979981 0 24086.09199056 0 -866.15661564 0 -4671.06865992 0 1302
0.03450000 0.03451200 49988.15352027 0 1316.41314729 0 35426.67456927 0 -5497.41608607 0 -6973.07258207 0 1339
0.03550000 0.03553350 46746.38646007 0 1687.14247191 0 29443.48772994 0 4958.58984723 0 -8421.25666205 0 1365
0.03650000 0.03647120 49165.84841683 0 500.42087772 0 28199.15534792 0 4814.95557616 0 -11704.28177687 0 1308
0.03750000 0.03744890 47226.96151050 0 -253.98418877 0 27046.10476406 0 4582.48906662 0 -7855.39739010 0 1579
0.03850000 0.03847530 48480.30124203 0 1144.83412357 0 21372.79271725 0 1520.56142872 0 -9669.42265990 0 1662
0.03950000 0.03950240 45006.32031746 0 -228.84160059 0 18997.04935935 0 3191.63347094 0 172.60827817 0 1683
0.04050000 0.04050350 44837.26774543 0 269.42300553 0 17843.55939259 0 5497.50396265 0 528.38100877 0 1822
0.04150000 0.04152450 45570.26827378 0 -993.49527329 0 16314.94627217 0 3909.78285717 0 810.30445789 0 1887
0.04250000 0.04250150 44792.78022648 0 623.49752120 0 12350.28449038 0 2257.64821807 0 1904.16467240 0 1920
0.04350000 0.04349210 43842.17531529 0 1689.26249442 0 11913.09850164 0 -1151.04040708 0 2562.74472152 0 2005
0.04450000 0.04448520 43283.39010807 0 968.77888653 0 13334.28250222 0 596.20964600 0 4517.25169006 0 2151
0.04550000 0.04548030 42174.60735171 0 1101.26930872 0 14898.26594635 0 3.75126449 0 4997.87067879 0 2274
0.04650000 0.04648670 40816.03541485 0 -167.89809345 0 12951.25045631 0 4013.65297550 0 5790.71515856 0 2311
0.04750000 0.04749250 40332.05514692 0 -90.17136771 0 13481.36592908 0 4165.25106169 0 7992.14433416 0 2568
0.04850000 0.04851840 39954.07600439 0 1057.59904196 0 13221.25125036 0 -3012.49706129 0 7058.04923556 0 2493
0.04950000 0.04949480 37113.68522631 0 2442.46365175 0 13880.76498814 0 -2488.80756347 0 5083.28671518 0 2644
0.05050000 0.05050630 35577.49275081 0 1178.60069969 0 14657.59396109 0 205.72346913 0 9000.68188114 0 2829
0.05150000 0.05149060 35981.06594745 0 106.59077727 0 15324.79689968 0 4556.06018499 0 6069.64641012 0 2784
0.05250000 0.05249300 36126.72137988 0 -957.12095964 0 11759.31448551 0 1405.59689208 0 4763.93223652 0 3055
0.05350000 0.05348950 35814.97921002 0 388.88133081 0 12612.70592935 0 812.53981841 0 6039.29603608 0 3009
0.05450000 0.05448610 33660.24545246 0 1425.16041585 0 12497.47776297 0 -1944.30230062 0 4651.66990474 0 3336
0.05550000 0.05550870 34006.80871740 0 -416.89968009 0 11232.16484733 0 1832.54525917 0 5494.27449831 0 3349
0.05650000 0.05647670 34752.55134995 0 -516.16836097 0 11514.79789984 0 2280.64991306 0 1864.91679457 0 3324
0.05750000 0.05747970 35294.96954402 0 -144.64814712 0 10009.47207330 0 200.74086701 0 4477.76215163 0 3639
0.05850000 0.05849280 35080.22115005 0 594.71354721 0 10064.77939624 0 -1427.21453092 0 4131.35267071 0 3846
0.05950000 0.05951020 33352.45772873 0 1271.02489339 0 11837.52464228 0 -367.20657219 0 2639.34014613 0 3787
0.06050000 0.06049470 34412.35913711 0 657.20478063 0 14058.60521823 0 -1245.93612961 0 924.55939114 0 3930
0.06150000 0.06148310 31531.65497765 0 1054.84850499 0 15045.67891039 0 -1928.12202520 0 2138.66332787 0 4083
0.06250000 0.06249100 31430.70675563 0 899.14768093 0 15536.46961333 0 333.79150240 0 1657.11065048 0 4303
0.06350000 0.06350600 31757.05840702 0 -781.04814728 0 15816.13683125 0 890.26555554 0 -739.54623515 0 4470
0.06450000 0.06451750 31272.30921900 0 382.87936035 0 16646.24098122 0 1529.14037990 0 -48.24622000 0 4479
0.06550000 0.06550280 30414.30425467 0 896.46195294 0 15185.40267363 0 -280.73601683 0 -567.51025321 0 4636
0.06650000 0.06648880 31126.21440367 0 -330.69604985 0 14030.15517525 0 1545.71609993 0 869.94189935 0 4653
0.06750000 0.06749660 30359.93062040 0 207.31842907 0 13990.17133105 0 907.66072468 0 -1168.78049180 0 5220
0.06850000 0.06852730 30420.78515250 0 184.32881712 0 11798.30971817 0 1003.01779926 0 566.50736174 0 5029
0.06950000 0.06949320 29364.94803598 0 89.41826541 0 12371.92409837 0 1391.50368546 0 -726.51963053 0 5040
0.07050000 0.07048030 28396.32842576 0 1538.02689912 0 12934.00467735 0 -1383.01261085 0 16.08899361 0 5475
0.07150000 0.07148790 27112.34173672 0 858.84748105 0 12246.48027949 0 328.23880096 0 2479.18507789 0 5509
0.07250000 0.07249820 27231.74404068 0 -529.28503909 0 11475.03374710 0 2727.05195819 0 1219.28755653 0 5916
0.07350000 0.07351270 27401.89506997 0 -165.58693938 0 10016.06281685 0 1727.13730068 0 239.01551171 0 5721
0.07450000 0.07449140 27376.08132440 0 613.24891499 0 9735.93424688 0 926.67721674 0 1948.53136106 0 6028
0.07550000 0.07549160 26203.58804707 0 913.92302951 0 8912.80530049 0 -1375.22454889 0 2552.35331586 0 6183
0.07650000 0.07648840 24991.11092554 0 298.51674447 0 10146.54855454 0 315.57358877 0 3682.00676012 0 6330
0.07750000 0.07749960 24790.75232166 0 14.23304023 0 9814.57280199 0 1810.63103687 0 2021.97421334 0 6583
0.07850000 0.07848650 25342.61724814 0 224.39504561 0 9456.16816780 0 -580.20182837 0 2003.90459144 0 6549
0.07950000 0.07947320 24017.54825766 0 306.99903142 0 8330.32637022 0 99.81812920 0 1360.60408279 0 6828
0.08050000 0.08048110 23753.80866998 0 109.61186426 0 8786.63649982 0 1186.94897485 0 2409.34516542 0 7147
0.08150000 0.08149960 23815.65181361 0 433.52592915 0 8802.89366724 0 -34.83471595 0 436.65543388 0 7386
0.08250000 0.08250610 22941.93891049 0 475.96702224 0 8394.70695012 0 105.65533107 0 2040.65897130 0 7227
0.08350000 0.08350160 23090.67002324 0 117.89302369 0 7998.19683365 0 725.46950539 0 393.11808046 0 7798
0.08450000 0.08449610 22679.73716297 0 217.01231437 0 7730.03046323 0 251.70488996 0 -35.28596219 0 7371
0.08550000 0.08548940 22235.52104778 0 627.09606718 0 7723.00033677 0 114.10224769 0 1242.83848014 0 8256
0.08650000 0.08650700 21403.98890338 0 199.12064255 0 7556.12271012 0 -278.63796347 0 386.00996354 0 8037
0.08750000 0.08749060 20907.92560560 0 331.00361788 0 7670.74672500 0 814.78506505 0 1855.90944505 0 8155
0.08850000 0.08849210 20359.13635944 0 330.77733568 0 7191.86329875 0 400.70073091 0 1554.94314090 0 8718
0.08950000 0.08949900 20287.07756331 0 216.54766695 0 6878.61624245 0 432.35826909 0 1384.68226589 0 8571
0.09050000 0.09049190 19946.99519619 0 150.01960312 0 6849.63893998 0 679.30354375 0 1564.10427443 0 8932
0.09150000 0.09150830 19777.17370408 0 367.16483082 0 7209.47156860 0 -823.08281118 0 1106.98128646 0 9285
0.09250000 0.09250820 18941.57726782 0 810.75592383 0 7658.01560538 0 -926.49926666 0 361.06729458 0 9204
0.09350000 0.09350330 19007.81424048 0 -50.20356099 0 8091.89523777 0 503.28126042 0 132.10706061 0 9349
0.09450000 0.09448040 19085.36532291 0 62.80242636 0 7756.60214430 0 -1027.13223145 0 -796.79892591 0 9564
0.09550000 0.09549270 18417.83284714 0 260.08721729 0 8365.93835453 0 351.58541153 0 -82.83224523 0 10155
0.09650000 0.09649430 18543.93574037 0 -113.34760755 0 7935.22227904 0 1102.74124144 0 764.71848168 0 9913
0.09750000 0.09749140 18251.63626398 0 121.01154384 0 7650.74381833 0 722.08186321 0 254.26978766 0 10476
0.09850000 0.09850240 17935.71995654 0 -11.72910691 0 6653.13592107 0 1490.43074613 0 2731.98403128 0 10575
0.09950000 0.09950330 18276.90078092 0 34.62897491 0 6847.92534665 0 1458.39973248 0 2925.15872469 0 10882
0.10050000 0.10051200 18175.84271317 0 239.80090865 0 5894.40952373 0 -224.17645261 0 3039.31040296 0 10875
0.10150000 0.10150300 17953.62480985 0 544.92707044 0 6352.36733922 0 93.02856488 0 3079.81052207 0 11118
0.10250000 0.10250800 17179.98136295 0 558.61934017 0 6685.26579587 0 -1337.34974263 0 3240.35005034 0 11575
0.10350000 0.10349800 16412.15973951 0 306.86392118 0 7416.44288517 0 99.37808722 0 2639.83445189 0 11364
0.10450000 0.10450100 16370.85774660 0 108.60963186 0 7246.77517708 0 176.10247071 0 2240.95166775 0 12093
0.10550000 0.10551000 15852.71545794 0 99.74046827 0 6199.15452085 0 871.70162788 0 2089.22176668 0 12067
0.10650000 0.10649700 16328.01791354 0 -207.22835558 0 6262.82110354 0 537.51028704 0 1075.01288487 0 12054
0.10750000 0.10749900 15819.87158592 0 345.58783490 0 5885.39118964 0 -2.51756517 0 1271.09080082 0 12807
0.10850000 0.10850100 15501.97805542 0 366.64196516 0 5820.12085936 0 -766.93077460 0 1059.22805407 0 12736
0.10950000 0.10950300 15043.04261297 0 244.88896267 0 5524.32828889 0 404.77930271 0 954.96798342 0 12933
0.11050000 0.11050200 15348.30388501 0 -192.35524430 0 5271.68311952 0 1212.09266149 0 438.54478037 0 13428
0.11150000 0.11150900 15101.70023056 0 -191.03050485 0 4285.24653257 0 926.14226805 0 849.11514974 0 13453
0.11250000 0.11250000 15190.89495992 0 213.55656784 0 4307.62210692 0 224.19183101 0 784.29408848 0 13668
0.11350000 0.11349100 14922.98123466 0 145.27866159 0 3527.53071591 0 -119.90649584 0 1221.03410357 0 13791
0.11450000 0.11448600 14463.05718068 0 280.06925328 0 3827.54136225 0 89.06236526 0 1344.58857596 0 14205
0.11550000 0.11549300 14359.14312406 0 120.48428436 0 3793.51115639 0 -167.71465109 0 816.49536300 0 14776
0.11650000 0.11649800 14268.41055454 0 95.33664327 0 4232.13612414 0 107.37979911 0 -35.83519082 0 14553
0.11750000 0.11747300 14312.56853631 0 304.92075029 0 3485.24011147 0 -370.91716081 0 447.47084405 0 14568
0.11850000 0.11849100 13584.62091135 0 286.34034576 0 4399.72774801 0 -549.81190987 0 313.39754495 0 16015
0.11950000 0.11950300 13449.95005150 0 226.55021875 0 4919.12227795 0 -205.70149999 0 -403.53255372 0 15270
0.12050000 0.12050700 13371.52020327 0 89.37718311 0 4635.89605851 0 250.63828796 0 -406.23036475 0 15999
0.12150000 0.12150000 13363.94084819 0 -130.46157163 0 4874.85445045 0 521.20149213 0 -300.45991536 0 15670
0.12250000 0.12250700 13282.10578246 0 -8.99546421 0 4145.03944814 0 -158.36677982 0 -370.96988676 0 16887
0.12350000 0.12352200 13132.93528680 0 362.28108985 0 4437.04234107 0 316.81594393 0 -368.32260477 0 16407
0.12450000 0.12449800 13213.23251237 0 21.36323614 0 4107.49417906 0 44.03198873 0 503.26258664 0 16306
0.12550000 0.12549900 12921.26257316 0 -176.40454646 0 3851.45477676 0 669.15929097 0 -457.05817899 0 17523
0.12650000 0.12650100 13215.20973544 0 -55.38663156 0 3612.06798650 0 28.10710463 0 -191.74669898 0 17154
0.12750000 0.12750600 13009.35884526 0 -37.94851274 0 3351.68967803 0 376.85322383 0 24.49427871 0 18007
0.12850000 0.12850300 13059.44849623 0 254.08634529 0 3291.66997344 0 76.86619432 0 211.74631028 0 17496
0.12950000 0.12949900 12995.95766671 0 207.11631294 0 3270.68943981 0 -335.22938295 0 -310.76014907 0 18405
0.13050000 0.13049000 12749.90324089 0 257.48167668 0 3508.98875739 0 -174.31528075 0 -363.93207111 0 18100
0.13150000 0.13148800 12416.96084595 0 262.80260364 0 3934.11368544 0 39.45581579 0 -466.62684017 0 19059
0.13250000 0.13249300 12119.05923754 0 276.21037293 0 4003.26156984 0 -179.03864696 0 91.11087820 0 18957
0.13350000 0.13349100 11843.12677430 0 -138.80215760 0 3686.34566629 0 513.55513115 0 227.05990291 0 19468
0.13450000 0.13450700 12012.72857496 0 8.92154902 0 3956.69796666 0 224.22148936 0 -276.25870505 0 19953
0.13550000 0.13551000 11590.48160493 0 289.92461180 0 3574.85225459 0 38.36438866 0 297.85876857 0 19956
0.13650000 0.13649900 11946.49160229 0 43.34347572 0 3725.81323558 0 734.87779181 0 1090.91415214 0 19723
0.13750000 0.13749600 11605.20093219 0 -264.12734309 0 2840.16010206 0 255.16612878 0 1300.60634735 0 20946
0.13850000 0.13851100 11910.24251277 0 -87.07229025 0 2580.68252854 0 673.08188184 0 1039.17571683 0 20955
0.13950000 0.13949800 11856.85749003 0 248.78189519 0 2529.95577236 0 -3.56195637 0 1007.74446084 0 20506
0.14050000 0.14048300 11605.09108646 0 382.95405545 0 2615.63543850 0 -286.06243608 0 1115.21971589 0 21447
0.14150000 0.14148400 11113.86100063 0 288.60756154 0 2962.72596292 0 -651.89154287 0 1124.82023233 0 21771
0.14250000 0.14249400 10783.84050199 0 189.82220186 0 3294.86648406 0 -31.86119216 0 691.51948691 0 22470
0.14350000 0.14350900 10638.13014670 0 74.93675415 0 3424.97874629 0 34.64918652 0 468.92151738 0 22519
0.14450000 0.14449900 10410.15632735 0 52.29238731 0 3364.55261252 0 39.81248486 0 326.62516725 0 22218
0.14550000 0.14550500 10444.91151499 0 168.59451535 0 3125.05597653 0 56.91711206 0 520.82142591 0 23559
0.14650000 0.14650700 10387.52810783 0 96.84493493 0 3374.85614160 0 154.77372613 0 138.70878873 0 23044
0.14750000 0.14750500 10399.28160049 0 3.19441257 0 2866.12763164 0 373.89727535 0 400.87209024 0 23649
0.14850000 0.14849900 10184.85175913 0 88.98053020 0 2963.39602185 0 -16.20773684 0 258.47468204 0 23640
0.14950000 0.14949500 10151.26093618 0 108.36863034 0 3049.07568798 0 -276.09283800 0 575.88818672 0 24457
0.15050000 0.15050000 9793.52636092 0 267.35900434 0 2799.76982868 0 -16.47674903 0 431.58605364 0 24591
0.15150000 0.15149900 10044.65565928 0 -50.55781345 0 3049.36128687 0 160.54172519 0 221.84442785 0 25020
0.15250000 0.15250500 9747.96235385 0 41.57682691 0 3235.59373042 0 91.17491826 0 -130.92292368 0 25297
0.15350000 0.15350100 9677.12284528 0 348.62836459 0 3079.04160199 0 -389.30423686 0 45.32728953 0 25452
0.15450000 0.15450400 9429.29990327 0 -46.95915763 0 3319.71358724 0 5.50968585 0 389.99077264 0 26061
0.15550000 0.15549900 9570.07818547 0 -45.40495046 0 3256.91478580 0 233.72973539 0 -329.76236118 0 26128
0.15650000 0.15649500 9453.69663897 0 71.86722519 0 3099.04450866 0 164.30943359 0 161.26341161 0 26331
0.15750000 0.15749700 9424.99395082 0 61.62125527 0 3080.35975070 0 108.62544965 0 338.57528376 0 27345
0.15850000 0.15849900 9270.30919973 0 132.82655011 0 3123.92456555 0 -238.20375180 0 -70.05828578 0 26980
0.15950000 0.15949700 9110.57154525 0 334.00680002 0 3420.20045722 0 -85.34441698 0 -24.66278205 0 27777
0.16050000 0.16050000 9023.09040921 0 85.30102792 0 3274.91850026 0 302.10430588 0 247.88006179 0 28224
0.16150000 0.16150500 8887.80441330 0 -134.34022421 0 3000.46895431 0 405.68003766 0 638.47718283 0 28075
0.16250000 0.16249700 9037.34838442 0 -32.29804861 0 3071.60504635 0 352.75966233 0 430.08995485 0 28590
0.16350000 0.16349900 8882.09243556 0 127.19036592 0 2616.18466713 0 186.71356782 0 444.82356205 0 29163
0.16450000 0.16449100 8703.41737795 0 216.54107621 0 2787.07166277 0 -265.84313333 0 927.21985462 0 28996
0.16550000 0.16550500 8634.11570953 0 74.36830252 0 2686.88137626 0 -4.03497403 0 636.00235863 0 30777
0.16650000 0.16650700 8604.61114758 0 -12.77802375 0 2881.29732638 0 197.91014266 0 453.56288800 0 29211
0.16750000 0.16749900 8481.73771868 0 40.81394835 0 2549.70603386 0 33.37838132 0 445.08938871 0 30922
0.16850000 0.16850800 8481.70476497 0 22.97280556 0 2691.97821794 0 104.77458804 0 363.72665960 0 30867
0.16950000 0.16949900 8323.68070381 0 132.43440087 0 2489.96094359 0 -137.15996399 0 141.77897676 0 30852
0.17050000 0.17049200 8195.86421725 0 273.57956780 0 2614.29532064 0 -87.39831236 0 338.66755417 0 31257
0.17150000 0.17149500 7881.34295053 0 112.57099827 0 2691.38505102 0 149.23530463 0 507.99693743 0 32608
0.17250000 0.17250900 7915.47201754 0 8.61373933 0 2484.45767273 0 301.81211624 0 332.25256378 0 32361
0.17350000 0.17350400 7935.71658481 0 -51.53961455 0 2056.01540377 0 493.84331565 0 789.02514389 0 32508
0.17450000 0.17449800 7945.48186984 0 18.92630871 0 1915.42385930 0 99.89172583 0 384.58746139 0 32791
0.17550000 0.17549800 7800.83701808 0 33.22954036 0 1898.70533983 0 -144.73492525 0 737.90074618 0 33633
0.17650000 0.17650100 7802.77030286 0 76.40945580 0 1732.83829385 0 247.64279502 0 454.03742153 0 33984
0.17750000 0.17750300 7733.39174243 0 30.80260890 0 1723.04005511 0 -84.12139467 0 415.97917291 0 34069
0.17850000 0.17849800 7691.17803000 0 170.68487951 0 1728.52135683 0 -194.15561575 0 99.65544768 0 34536
