### header ###
fiducial parameters:
Omega_m = 0.31
Omega_nu = 0
Omega_de = 0.69
Omega_k = 0
H_0 = 100
w_de = -1
zeff = 0
beta = 0
fgrowth = 0
b_1 = 2
gamma = 0.55
Lx = 3500 Ly = 3500 Lz = 3500
nx = 700 ny = 700 nz = 700
xoffset = -983.599254 yoffset = -42.9823471 zoffset = 800.977702
bins = 400 dk = 0.001
kx_ny = 0.628318531 ky_ny = 0.628318531 kz_ny = 0.628318531
############################
A(data) = 9.09847207 (not used)
A(ran) = 9.09734418 (used)
Ngal = 505137
weighted Ngal = 0
Nran = 25229228
weighted Nran = 0
SN(data) = 6712.44581
SN(ran) = 135.043807
SN(data+ran) = 6847.48962
############################
13 columns: k_central k_mean P_0(k) sigma^{lin}_{P_0(k)} P^img_1(k) sigma^{lin}_{P_1(k)} P_2(k) sigma^{lin}_{P_2(k)} P^img_3(k) sigma^{lin}_{P_3(k)} P_4(k) sigma^{lin}_{P_4(k)} N_modes
### header ###
0.00050000 0 0 0 0 0 0 0 0 0 0 0 0
0.00150000 0.00179520 69387.12839038 0 -31050.75039004 0 -33357.07124922 0 22681.49469459 0 -139996.18063470 0 3
0.00250000 0.00253879 99750.02484537 0 -4586.83895736 0 -1842.46432821 0 -35322.10143829 0 57532.13827769 0 6
0.00350000 0.00331552 78744.33654379 0 19983.57382288 0 10966.84348120 0 -97288.05259271 0 51611.67334780 0 7
0.00450000 0.00420575 49951.13551067 0 16495.31295395 0 3347.81212391 0 4815.09837560 0 18095.76517905 0 24
0.00550000 0.00557378 41315.39408440 0 -8208.57336773 0 1653.56263353 0 31377.21188716 0 -17023.89058657 0 45
0.00650000 0.00659388 45268.08268207 0 1516.92553519 0 14405.27832890 0 -23717.77927191 0 2339.48328380 0 40
0.00750000 0.00754703 51096.05751083 0 -2232.55945430 0 -12756.82352162 0 -4457.38576949 0 -7920.82150439 0 57
0.00850000 0.00846663 45341.67931837 0 163.12090283 0 -7286.07797778 0 -1915.03939926 0 -9322.95825611 0 75
0.00950000 0.00948925 48729.87073108 0 5014.10587706 0 3147.50844289 0 -27305.88990561 0 -10462.80538373 0 112
0.01050000 0.01054430 50660.95859088 0 -4077.96764796 0 7634.68437322 0 15424.53681872 0 11939.35163011 0 105
0.01150000 0.01145670 50080.53377568 0 -6153.98595840 0 5094.06258088 0 -1297.15719156 0 -22724.44437338 0 144
0.01250000 0.01249090 60140.75457431 0 -1304.14337972 0 6652.87229133 0 3767.33491993 0 -20181.51582080 0 169
0.01350000 0.01339930 75043.63404114 0 -8366.78416662 0 -3804.72640500 0 -5155.75194050 0 -34236.93551298 0 180
0.01450000 0.01448870 82398.13492153 0 -1903.15409173 0 16661.94892001 0 -22076.68412826 0 -4322.00091243 0 267
0.01550000 0.01550050 61944.97062079 0 2261.40494189 0 23716.68081465 0 -5902.30743142 0 -10467.92419455 0 238
0.01650000 0.01653350 74295.58464835 0 157.43309115 0 24767.24533633 0 12009.21351173 0 -1236.01706057 0 315
0.01750000 0.01747870 77170.57683007 0 -510.67607468 0 21187.81251498 0 10755.14879841 0 -14752.28097674 0 297
0.01850000 0.01844180 74578.21770087 0 3395.41926147 0 22254.30466690 0 10656.81490466 0 4381.54828039 0 388
0.01950000 0.01947590 84025.38950373 0 -5889.69714209 0 14095.29369065 0 13986.21688492 0 22668.53289894 0 399
0.02050000 0.02045430 72969.52704633 0 1778.85266840 0 9236.30096301 0 -6863.12799511 0 1198.64754465 0 462
0.02150000 0.02154770 75076.58775888 0 8762.86588476 0 18911.36969322 0 -10879.30742230 0 -5075.53160694 0 571
0.02250000 0.02255340 65525.94128231 0 3431.09715322 0 24371.36134050 0 -12809.76916146 0 10064.58167394 0 510
0.02350000 0.02348930 65213.10065519 0 -2527.55015097 0 26910.44529268 0 6846.25569162 0 -8480.90289117 0 555
0.02450000 0.02439640 66989.52573305 0 -909.28973680 0 24232.73603452 0 794.52072555 0 -13886.47696588 0 592
0.02550000 0.02547300 63972.83256503 0 5233.45680694 0 20850.47629100 0 -3284.76067729 0 -14262.14934816 0 837
0.02650000 0.02652900 59722.46205041 0 1518.86980454 0 24695.62592310 0 134.49400823 0 -957.67018827 0 723
0.02750000 0.02749970 59460.26030289 0 -754.09749845 0 23604.08894569 0 6587.20651643 0 -18562.82920521 0 826
0.02850000 0.02848090 61411.88931342 0 1217.06867287 0 20014.44047184 0 7088.56437819 0 -5169.94400827 0 831
0.02950000 0.02946900 56983.78841443 0 920.05461793 0 18039.30447599 0 19.74356091 0 -2730.32536082 0 996
0.03050000 0.03053250 55639.93580483 0 1967.21611902 0 20028.61057047 0 1749.39204473 0 -2477.96579033 0 1041
0.03150000 0.03150510 54513.24819516 0 2122.25237643 0 22308.01922682 0 -4053.87848029 0 -8577.88568249 0 1036
0.03250000 0.03246190 49269.98216491 0 2764.65215014 0 19415.78126615 0 -2513.64368208 0 -3780.21982357 0 1059
0.03350000 0.03345080 49569.64130492 0 931.98166684 0 23584.75609795 0 1186.71829883 0 -8163.10822182 0 1302
0.03450000 0.03451200 47852.53291901 0 -343.87643849 0 21255.58732780 0 2491.49878376 0 -6506.36006224 0 1339
0.03550000 0.03553350 48220.62594621 0 747.85167048 0 20076.39346120 0 4856.00492390 0 -7333.15785586 0 1365
0.03650000 0.03647120 48405.27661130 0 -1561.54486902 0 15709.58647721 0 -1286.91956991 0 -9358.76796272 0 1308
0.03750000 0.03744890 50438.19145893 0 -36.30192531 0 15906.32017214 0 5102.21313374 0 -8178.70631488 0 1579
0.03850000 0.03847530 50255.40817118 0 864.31010899 0 13544.41737570 0 -1202.82168223 0 -13087.89853922 0 1662
0.03950000 0.03950240 49311.94323217 0 327.13924525 0 13070.21337736 0 215.75128544 0 -11358.04804911 0 1683
0.04050000 0.04050350 47436.76684680 0 -115.28967998 0 16811.55879857 0 -4759.79105266 0 -11640.35156445 0 1822
0.04150000 0.04152450 46165.19272479 0 1598.22235687 0 14059.81352122 0 -1879.09787777 0 -16331.53297676 0 1887
0.04250000 0.04250150 44599.01236614 0 2382.71856148 0 18219.78100350 0 -985.62263012 0 -11695.38427308 0 1920
0.04350000 0.04349210 45351.67527941 0 -193.70414981 0 14855.31626756 0 1559.65552253 0 -13167.97607334 0 2005
0.04450000 0.04448520 42247.65475938 0 731.57143546 0 18879.07504983 0 2540.17142486 0 -8989.97192288 0 2151
0.04550000 0.04548030 42962.31105152 0 2145.67148518 0 19972.36955885 0 -1145.37236763 0 -7750.19813848 0 2274
0.04650000 0.04648670 41460.28059675 0 1365.64600160 0 20255.55184000 0 -525.34816828 0 -5655.54999295 0 2311
0.04750000 0.04749250 39392.65449976 0 795.71914242 0 23553.55991182 0 33.16923506 0 -2554.94567498 0 2568
0.04850000 0.04851840 39645.95874349 0 -369.16292457 0 22939.96168743 0 2816.15881097 0 -2131.43547911 0 2493
0.04950000 0.04949480 38729.40600730 0 -564.69051343 0 22492.34035474 0 4583.79623076 0 3148.01373322 0 2644
0.05050000 0.05050630 38540.25166745 0 1254.72378768 0 18683.11027498 0 2273.88341635 0 1461.53033567 0 2829
0.05150000 0.05149060 37722.99946740 0 1208.47873711 0 19403.58839059 0 910.98026252 0 6962.62625355 0 2784
0.05250000 0.05249300 37850.85989224 0 1108.14565115 0 20893.09643262 0 -367.50205720 0 3580.91573865 0 3055
0.05350000 0.05348950 35689.86492832 0 -298.83969090 0 18672.34539385 0 2635.26486970 0 7491.25880902 0 3009
0.05450000 0.05448610 35892.53029244 0 -262.72351471 0 16418.86032879 0 2566.22683103 0 4675.28673579 0 3336
0.05550000 0.05550870 33827.76018433 0 1304.12141057 0 15938.39512408 0 -73.53852791 0 5849.41671444 0 3349
0.05650000 0.05647670 33672.43832803 0 2001.15844830 0 15837.55674778 0 1343.63291815 0 6413.01316444 0 3324
0.05750000 0.05747970 32246.31126979 0 -633.71756753 0 14264.01672550 0 2170.15609746 0 4465.88782867 0 3639
0.05850000 0.05849280 33776.68192182 0 -781.18325752 0 15437.60846009 0 1192.06778567 0 2345.54676787 0 3846
0.05950000 0.05951020 31902.93353090 0 1110.81490229 0 11819.07056035 0 -637.68519515 0 2985.27729043 0 3787
0.06050000 0.06049470 32059.35384446 0 272.28009286 0 13995.11438871 0 -365.47760047 0 2738.17933021 0 3930
0.06150000 0.06148310 31379.62849312 0 318.85248369 0 12457.05453587 0 -506.90616937 0 767.36466522 0 4083
0.06250000 0.06249100 32043.53605994 0 249.67384249 0 13978.19814694 0 2103.79829450 0 1339.26105826 0 4303
0.06350000 0.06350600 31431.14613853 0 -474.72686399 0 11512.38129388 0 1011.56379673 0 1026.12055231 0 4470
0.06450000 0.06451750 31496.94372829 0 -413.33408783 0 11535.44889630 0 1307.68041209 0 2447.23095625 0 4479
0.06550000 0.06550280 32111.20102704 0 670.45437207 0 9705.96833287 0 -115.15017591 0 991.49168725 0 4636
0.06650000 0.06648880 31009.66808858 0 892.95787428 0 11786.33653406 0 -228.58675850 0 2475.99955184 0 4653
0.06750000 0.06749660 30566.44058493 0 464.37719971 0 11303.78426056 0 139.89292565 0 412.75629932 0 5220
0.06850000 0.06852730 29971.73582537 0 126.04687191 0 10988.19749030 0 -3.87157851 0 56.24650390 0 5029
0.06950000 0.06949320 29554.98114164 0 956.23780001 0 11351.34745983 0 -123.60609989 0 -531.65331294 0 5040
0.07050000 0.07048030 28271.10429833 0 791.20558155 0 12902.80849122 0 -1040.32690003 0 -1939.75468757 0 5475
0.07150000 0.07148790 27116.07649140 0 184.88353803 0 11881.68262406 0 1185.47704212 0 447.55542525 0 5509
0.07250000 0.07249820 27636.19600313 0 10.30920811 0 11963.40784407 0 937.02468411 0 -1453.01729191 0 5916
0.07350000 0.07351270 27181.87408116 0 69.85342350 0 10780.87466739 0 279.88690937 0 -1002.11706431 0 5721
0.07450000 0.07449140 27580.72391159 0 735.10627092 0 11557.85742436 0 -152.62734065 0 -1031.80946245 0 6028
0.07550000 0.07549160 26684.93201758 0 214.63415441 0 10579.52745198 0 221.35122054 0 -420.11925832 0 6183
0.07650000 0.07648840 26965.03861841 0 -666.03198315 0 11251.38784934 0 2083.76243411 0 1076.70780442 0 6330
0.07750000 0.07749960 26785.77039388 0 128.31408769 0 10255.47157626 0 -455.35117642 0 -140.39931445 0 6583
0.07850000 0.07848650 26157.34299650 0 1101.11552470 0 11459.65534549 0 -844.53568143 0 -527.86583231 0 6549
0.07950000 0.07947320 25192.12860378 0 465.62944098 0 10482.41284579 0 1541.32227090 0 1882.51407985 0 6828
0.08050000 0.08048110 25599.32670937 0 229.55889318 0 11299.28058580 0 1050.84133291 0 967.19051733 0 7147
0.08150000 0.08149960 24764.60903891 0 27.39178926 0 10448.37165536 0 422.55234114 0 2245.89472541 0 7386
0.08250000 0.08250610 24737.69683609 0 924.04970697 0 10757.96084899 0 -75.43874912 0 840.05946810 0 7227
0.08350000 0.08350160 22976.86985130 0 158.04712876 0 10325.65201048 0 214.10030418 0 3354.08431485 0 7798
0.08450000 0.08449610 23721.84356377 0 317.23775152 0 9651.75946719 0 717.78469841 0 122.65483590 0 7371
0.08550000 0.08548940 21976.83436349 0 791.47690049 0 9872.19786975 0 660.93514148 0 2681.68567343 0 8256
0.08650000 0.08650700 21813.38392348 0 346.18429719 0 9356.16461902 0 -45.08475017 0 1308.65803905 0 8037
0.08750000 0.08749060 21517.56938387 0 118.97500409 0 9182.50951108 0 1014.67572614 0 1338.84364450 0 8155
0.08850000 0.08849210 21088.07259594 0 28.72828221 0 8542.89981882 0 460.45680575 0 250.58006973 0 8718
0.08950000 0.08949900 20622.10702704 0 280.92714840 0 7318.89988065 0 -133.94807497 0 626.16128006 0 8571
0.09050000 0.09049190 20288.28586629 0 600.89566466 0 7462.42430600 0 151.84963291 0 -427.25154129 0 8932
0.09150000 0.09150830 19219.26726267 0 540.95504900 0 7494.85076426 0 163.50096904 0 294.46233873 0 9285
0.09250000 0.09250820 19469.27613462 0 184.66384658 0 7473.76038490 0 381.58208233 0 395.16670324 0 9204
0.09350000 0.09350330 18848.09855515 0 -15.66938294 0 6586.84402554 0 1191.69431020 0 228.06718822 0 9349
0.09450000 0.09448040 18689.92070998 0 -142.22714733 0 6355.83846415 0 991.13359019 0 1209.88476240 0 9564
0.09550000 0.09549270 18022.71777139 0 446.90184319 0 5835.74092157 0 -314.13021594 0 1302.62750870 0 10155
0.09650000 0.09649430 18167.49443801 0 455.21606617 0 6351.01623679 0 355.34982455 0 1726.20361201 0 9913
0.09750000 0.09749140 17663.85178515 0 231.61520516 0 6464.14634981 0 368.72464012 0 1715.98795951 0 10476
0.09850000 0.09850240 17657.92011596 0 181.78259319 0 6183.28181347 0 161.74453589 0 1359.04427348 0 10575
0.09950000 0.09950330 17060.90859616 0 135.04763069 0 6257.14207951 0 -330.92013513 0 1507.91818568 0 10882
0.10050000 0.10051200 16804.52867212 0 355.50141165 0 6467.73830504 0 132.46405922 0 1473.10807517 0 10875
0.10150000 0.10150300 17181.18966593 0 -90.77738658 0 6142.84760180 0 566.36566075 0 1823.17541876 0 11118
0.10250000 0.10250800 16898.33692196 0 -155.53495701 0 5842.17788111 0 367.02203137 0 1515.58541734 0 11575
0.10350000 0.10349800 16571.65573339 0 442.33995019 0 6114.80398800 0 -364.34399258 0 1462.23334831 0 11364
0.10450000 0.10450100 16136.00758482 0 529.11697513 0 5900.27528549 0 -171.51970703 0 1682.13350682 0 12093
0.10550000 0.10551000 16080.97487618 0 128.99732811 0 6583.08730172 0 709.89667684 0 1745.03116942 0 12067
0.10650000 0.10649700 15577.11253188 0 156.88935481 0 6473.35142163 0 -108.06303953 0 1128.57695615 0 12054
0.10750000 0.10749900 15464.96004582 0 50.14688059 0 5687.49313001 0 282.37271815 0 1444.51523274 0 12807
0.10850000 0.10850100 15191.22449709 0 107.67264782 0 6160.52177909 0 116.53972434 0 1204.88678187 0 12736
0.10950000 0.10950300 15023.27038233 0 320.81872218 0 5511.76193786 0 330.08201224 0 1527.19611056 0 12933
0.11050000 0.11050200 15138.82808588 0 51.87684093 0 5704.71693982 0 373.47436931 0 1659.26362670 0 13428
0.11150000 0.11150900 15018.65686184 0 -238.24219780 0 5102.56464006 0 928.99496155 0 1700.54365046 0 13453
0.11250000 0.11250000 14675.38896867 0 -156.57299912 0 4342.10268025 0 420.61136717 0 1136.33206439 0 13668
0.11350000 0.11349100 14995.91879660 0 849.74017192 0 4882.56562040 0 -701.95153549 0 1577.99975875 0 13791
0.11450000 0.11448600 14158.89436590 0 255.86255068 0 4959.24892159 0 -804.36619796 0 2345.20624612 0 14205
0.11550000 0.11549300 13993.57654855 0 60.58562976 0 5437.05585973 0 816.25370240 0 1254.55901909 0 14776
0.11650000 0.11649800 13596.48424974 0 -147.60958789 0 4801.99378051 0 699.73594720 0 1691.85485355 0 14553
0.11750000 0.11747300 14139.78120961 0 118.90470282 0 4485.42938329 0 469.92550732 0 1816.62861350 0 14568
0.11850000 0.11849100 13922.28667250 0 56.27846901 0 4333.56766736 0 -250.45155023 0 1769.76842687 0 16015
0.11950000 0.11950300 13831.66394870 0 -98.56127440 0 4396.65206769 0 240.69615132 0 1485.04830556 0 15270
0.12050000 0.12050700 13729.83696087 0 350.51221878 0 4344.76094682 0 -347.14654575 0 400.51838700 0 15999
0.12150000 0.12150000 13446.32514255 0 405.08467383 0 4604.99645584 0 -852.49949655 0 1410.18844342 0 15670
0.12250000 0.12250700 12789.22801073 0 340.93916378 0 5025.12340336 0 -207.87095307 0 486.86701361 0 16887
0.12350000 0.12352200 12839.20781598 0 78.76828291 0 5376.26723507 0 415.75398917 0 420.47515847 0 16407
0.12450000 0.12449800 12451.12286668 0 -22.79716224 0 5203.15037119 0 657.48049340 0 373.17449048 0 16306
0.12550000 0.12549900 12800.43227477 0 -146.02671098 0 4465.32761547 0 507.19835900 0 1311.45910506 0 17523
0.12650000 0.12650100 12721.45319791 0 -110.00500212 0 4079.29678124 0 580.55223624 0 1123.27140760 0 17154
0.12750000 0.12750600 12625.33818782 0 252.12450063 0 3851.03736300 0 -56.58175306 0 1175.96440227 0 18007
0.12850000 0.12850300 12896.32759340 0 209.28686448 0 4340.22431834 0 35.76686678 0 967.64637709 0 17496
0.12950000 0.12949900 12480.01229257 0 -143.35306602 0 3471.80597920 0 321.95672390 0 1504.46902989 0 18405
0.13050000 0.13049000 12517.90906797 0 -139.80724599 0 4196.07377236 0 272.50417814 0 1449.53518241 0 18100
0.13150000 0.13148800 12759.45981904 0 195.15081802 0 3393.34317726 0 298.32451445 0 1412.26452764 0 19059
0.13250000 0.13249300 12639.94766935 0 88.17206565 0 3984.36810500 0 -337.94586775 0 1425.97327422 0 18957
0.13350000 0.13349100 12378.84437909 0 164.22595083 0 3828.93640297 0 -257.45531370 0 1233.77620776 0 19468
0.13450000 0.13450700 12392.13571192 0 163.79535559 0 4549.85390148 0 -238.23890243 0 1208.65449027 0 19953
0.13550000 0.13551000 12259.33222941 0 89.21560005 0 4185.55055182 0 -237.66001546 0 618.22382791 0 19956
0.13650000 0.13649900 12339.51960925 0 115.13260060 0 4640.45465613 0 -97.43184065 0 116.94285816 0 19723
0.13750000 0.13749600 11744.70500397 0 215.50742793 0 4550.66675985 0 -128.22621111 0 397.19665226 0 20946
0.13850000 0.13851100 11620.24979663 0 114.56689511 0 4892.78127290 0 54.91242756 0 54.09396706 0 20955
0.13950000 0.13949800 11716.58449816 0 307.89866791 0 4526.85220650 0 -107.68868530 0 -164.30613821 0 20506
0.14050000 0.14048300 11637.49557558 0 -94.18864559 0 4689.56668014 0 293.03104892 0 -269.91840976 0 21447
0.14150000 0.14148400 11342.77949322 0 -65.06096432 0 4173.97281232 0 602.84432784 0 -172.28313482 0 21771
0.14250000 0.14249400 11466.90516339 0 35.36592988 0 3860.62689487 0 139.15695929 0 -203.66935406 0 22470
0.14350000 0.14350900 11387.15716645 0 298.58924265 0 3663.78335421 0 57.70404684 0 -137.51915952 0 22519
0.14450000 0.14449900 10784.03822430 0 388.00146655 0 4101.81515503 0 -108.69970536 0 279.06746026 0 22218
0.14550000 0.14550500 10567.12586953 0 174.30209926 0 4179.13556143 0 -236.32099606 0 282.32877986 0 23559
0.14650000 0.14650700 10353.21230309 0 -97.13251104 0 3966.77081972 0 393.75298875 0 308.30399864 0 23044
0.14750000 0.14750500 10272.45372547 0 133.05942305 0 3943.45057213 0 445.46506109 0 95.49998387 0 23649
0.14850000 0.14849900 10336.97710481 0 149.73180731 0 3895.48094367 0 23.10967333 0 878.82402474 0 23640
0.14950000 0.14949500 10372.05084506 0 -78.97281565 0 3497.10344986 0 504.29403801 0 642.52499783 0 24457
0.15050000 0.15050000 10360.50605928 0 -55.15057310 0 3737.63263567 0 -62.25374696 0 414.62257820 0 24591
0.15150000 0.15149900 10177.97541670 0 300.86963992 0 3374.13115981 0 55.75417536 0 785.69791685 0 25020
0.15250000 0.15250500 10005.71534947 0 54.73370857 0 3451.71519595 0 25.08074504 0 896.12472656 0 25297
0.15350000 0.15350100 9934.87584090 0 39.45757332 0 3531.46319289 0 139.47331498 0 543.43756240 0 25452
0.15450000 0.15450400 9765.21911738 0 278.60391130 0 3163.58985714 0 122.22863448 0 299.19668951 0 26061
0.15550000 0.15549900 9685.27339813 0 -71.47595471 0 3170.58702988 0 282.03878714 0 1108.35435803 0 26128
0.15650000 0.15649500 9670.99345378 0 32.55486791 0 3063.01511059 0 465.50531531 0 1058.92597833 0 26331
0.15750000 0.15749700 9441.62459370 0 33.88477012 0 2726.41485298 0 -221.12164298 0 717.07948885 0 27345
0.15850000 0.15849900 9264.88282087 0 290.66167662 0 2794.14572752 0 -80.27624504 0 764.34610467 0 26980
0.15950000 0.15949700 9136.00083077 0 174.24607794 0 3003.88515638 0 -60.93559825 0 1027.82755489 0 27777
0.16050000 0.16050000 9033.49279945 0 -10.37531326 0 2942.62419510 0 337.32743631 0 754.01840953 0 28224
0.16150000 0.16150500 9152.65344281 0 -6.75994990 0 2607.12239475 0 294.60733509 0 832.85578540 0 28075
0.16250000 0.16249700 8979.00931944 0 119.63957073 0 2844.46605451 0 -339.11133090 0 586.65196939 0 28590
0.16350000 0.16349900 8938.94858324 0 174.70523308 0 2726.61257529 0 -273.79596388 0 548.50035191 0 29163
0.16450000 0.16449100 8578.44589569 0 171.09680098 0 3083.92973678 0 65.40104669 0 670.54115020 0 28996
0.16550000 0.16550500 8561.26602417 0 29.04375913 0 3078.54729622 0 -95.54128586 0 617.65372859 0 30777
0.16650000 0.16650700 8461.38330569 0 17.62727316 0 3114.81835488 0 583.30057630 0 433.80054347 0 29211
0.16750000 0.16749900 8521.67762459 0 -22.53375219 0 2618.86490284 0 360.56749653 0 713.82805537 0 30922
0.16850000 0.16850800 8486.39517746 0 8.26995516 0 2364.05577267 0 391.86693764 0 1038.04210894 0 30867
0.16950000 0.16949900 8587.67293666 0 161.37655271 0 2179.48199958 0 -29.26180290 0 852.96963626 0 30852
0.17050000 0.17049200 8160.15337179 0 242.95348098 0 2285.01078837 0 -124.58262839 0 1124.21608084 0 31257
0.17150000 0.17149500 7950.22720519 0 100.45995777 0 2419.48392591 0 -23.21776153 0 1043.83756943 0 32608
0.17250000 0.17250900 7912.92359670 0 73.82357756 0 2408.16981615 0 -24.72649257 0 691.86659941 0 32361
0.17350000 0.17350400 7643.02166381 0 103.14348885 0 2297.10480278 0 -15.06435268 0 543.00916407 0 32508
0.17450000 0.17449800 7639.27592456 0 34.24583302 0 2353.68633615 0 15.69739360 0 567.34438617 0 32791
0.17550000 0.17549800 7688.69551660 0 27.21823302 0 2227.31981317 0 15.58535096 0 228.80644995 0 33633
0.17650000 0.17650100 7681.28093011 0 -32.63527498 0 2095.93334053 0 -3.59318551 0 196.09658972 0 33984
0.17750000 0.17750300 7644.27390508 0 23.83575358 0 1982.68239721 0 -119.23533846 0 32.79795650 0 34069
0.17850000 0.17849800 7656.26905834 0 144.38122201 0 2169.05764020 0 -46.80724099 0 -148.27635145 0 34536
