### header ###
fiducial parameters:
Omega_m = 0.31
Omega_nu = 0
Omega_de = 0.69
Omega_k = 0
H_0 = 100
w_de = -1
zeff = 0
beta = 0
fgrowth = 0
b_1 = 2
gamma = 0.55
Lx = 3500 Ly = 3500 Lz = 3500
nx = 700 ny = 700 nz = 700
xoffset = -983.599254 yoffset = -42.9823471 zoffset = 800.977702
bins = 400 dk = 0.001
kx_ny = 0.628318531 ky_ny = 0.628318531 kz_ny = 0.628318531
############################
A(data) = 9.13448565 (not used)
A(ran) = 9.13433135 (used)
Ngal = 507308
weighted Ngal = 0
Nran = 25229228
weighted Nran = 0
SN(data) = 6702.18966
SN(ran) = 135.592856
SN(data+ran) = 6837.78251
############################
13 columns: k_central k_mean P_0(k) sigma^{lin}_{P_0(k)} P^img_1(k) sigma^{lin}_{P_1(k)} P_2(k) sigma^{lin}_{P_2(k)} P^img_3(k) sigma^{lin}_{P_3(k)} P_4(k) sigma^{lin}_{P_4(k)} N_modes
### header ###
0.00050000 0 0 0 0 0 0 0 0 0 0 0 0
0.00150000 0.00179520 35284.42435434 0 -37905.01383507 0 -20475.35313735 0 -7238.93219226 0 17283.23634521 0 3
0.00250000 0.00253879 48376.05764824 0 -24425.18574615 0 -10993.79962231 0 -40542.08017467 0 86282.16994056 0 6
0.00350000 0.00331552 57155.25759242 0 -3795.23573429 0 -20599.69849897 0 -24769.44225085 0 -24106.30360411 0 7
0.00450000 0.00420575 61292.37716373 0 531.62585151 0 -6675.78610973 0 -21591.38571161 0 21339.17992515 0 24
0.00550000 0.00557378 68629.19288226 0 -6799.35156670 0 -5288.47853100 0 -5572.13314877 0 -1022.86362654 0 45
0.00650000 0.00659388 83643.67560653 0 3170.59801445 0 -10595.09259133 0 -20413.61983944 0 7812.63444904 0 40
0.00750000 0.00754703 67360.03536622 0 14612.66705924 0 8716.53295761 0 2166.89367940 0 -11041.03328441 0 57
0.00850000 0.00846663 65775.84030853 0 4860.62942895 0 21653.99777533 0 -10312.17393992 0 15524.49642921 0 75
0.00950000 0.00948925 60273.99743972 0 -6898.26764279 0 7882.08990147 0 24436.49985591 0 4578.76529652 0 112
0.01050000 0.01054430 54520.38816734 0 -3340.08996938 0 13100.42095196 0 14784.57562013 0 20746.34254293 0 105
0.01150000 0.01145670 71813.84016505 0 -3712.89537822 0 6967.22878946 0 -1725.22598505 0 -1488.77207567 0 144
0.01250000 0.01249090 73776.56359388 0 -95.13211053 0 -2780.16236662 0 -6147.45013771 0 3226.14699800 0 169
0.01350000 0.01339930 72433.91928726 0 -3483.76817875 0 485.35993025 0 4570.05453046 0 1882.47014156 0 180
0.01450000 0.01448870 87987.19529664 0 -2286.31795251 0 10695.32681613 0 -607.47542364 0 -896.55971563 0 267
0.01550000 0.01550050 88667.57972233 0 2854.57186129 0 15190.67526847 0 -9283.16114965 0 12156.95601295 0 238
0.01650000 0.01653350 82498.20437774 0 2934.33084280 0 32985.24346734 0 -11611.79167574 0 5334.36109067 0 315
0.01750000 0.01747870 74722.66483031 0 3055.22704863 0 33654.86301190 0 -424.34941722 0 15686.73856624 0 297
0.01850000 0.01844180 76926.06024440 0 -860.03820871 0 40843.38700058 0 11782.38208793 0 -317.18392712 0 388
0.01950000 0.01947590 73623.76818928 0 11594.21635961 0 52560.08134447 0 -186.69159868 0 17295.97844941 0 399
0.02050000 0.02045430 71957.29868296 0 8318.72666158 0 53716.64699156 0 1687.82351541 0 22068.11616164 0 462
0.02150000 0.02154770 67337.29730097 0 -319.13368875 0 55032.26924963 0 9549.83361820 0 13788.93396136 0 571
0.02250000 0.02255340 69850.67735331 0 -5899.66014942 0 54875.84893607 0 7154.73544342 0 23453.49045560 0 510
0.02350000 0.02348930 67418.80282953 0 -2793.22302342 0 40007.90041004 0 16245.30408200 0 10370.18346772 0 555
0.02450000 0.02439640 70677.26644006 0 268.18724112 0 32126.90896583 0 12907.20232026 0 28887.44866587 0 592
0.02550000 0.02547300 71612.05356673 0 3086.32437361 0 27903.67034548 0 6185.74235773 0 14501.50318471 0 837
0.02650000 0.02652900 67153.74509314 0 3137.65528128 0 24305.45390501 0 468.75565034 0 21469.12741878 0 723
0.02750000 0.02749970 63132.18322538 0 -1415.43906911 0 20300.47874185 0 5582.39273956 0 12058.75393407 0 826
0.02850000 0.02848090 61027.09973589 0 3418.27815702 0 21436.17370104 0 2259.32885768 0 18207.58812793 0 831
0.02950000 0.02946900 56656.11861433 0 4859.70672486 0 20734.36935882 0 -554.90765309 0 5422.79788452 0 996
0.03050000 0.03053250 54253.35320788 0 738.26104016 0 21747.91587090 0 -1730.52054904 0 9579.44802588 0 1041
0.03150000 0.03150510 52700.57402778 0 -26.76764585 0 22393.14966433 0 -1265.49965338 0 310.22849576 0 1036
0.03250000 0.03246190 50349.21642102 0 482.69507294 0 15114.33248903 0 2775.53786156 0 -1370.20459922 0 1059
0.03350000 0.03345080 51554.55357037 0 1861.28090105 0 24015.57103459 0 -21.16902890 0 -1387.60416219 0 1302
0.03450000 0.03451200 51106.38300905 0 501.02063538 0 20687.90461680 0 -611.33869781 0 -2317.83269124 0 1339
0.03550000 0.03553350 51002.79848961 0 -1660.63669827 0 18271.07895745 0 5396.08340400 0 -4542.65900644 0 1365
0.03650000 0.03647120 53661.17490002 0 -269.99310485 0 22621.29923684 0 -3341.64977869 0 -7361.60789885 0 1308
0.03750000 0.03744890 50028.13736447 0 2276.45380633 0 17778.42087718 0 -6301.28907671 0 -7296.52430630 0 1579
0.03850000 0.03847530 49975.52126180 0 1556.25030503 0 23868.26791627 0 -660.86813558 0 -10445.36188247 0 1662
0.03950000 0.03950240 49145.74664901 0 72.30946408 0 23211.82985881 0 128.00981503 0 -15161.23661395 0 1683
0.04050000 0.04050350 47991.48776216 0 2101.97485545 0 26363.85296103 0 1389.85599957 0 -13360.86516787 0 1822
0.04150000 0.04152450 45467.23298297 0 2246.02654028 0 21523.50105306 0 -842.00483591 0 -11393.19868137 0 1887
0.04250000 0.04250150 44237.51008249 0 -117.72386127 0 28120.72549969 0 4748.97124866 0 -6934.48377859 0 1920
0.04350000 0.04349210 42186.47069010 0 72.88044216 0 20037.94745716 0 4217.38384316 0 -6174.09871080 0 2005
0.04450000 0.04448520 42762.06229336 0 1415.17543937 0 18993.53429613 0 4177.71855157 0 -3610.56310005 0 2151
0.04550000 0.04548030 40234.40229667 0 1097.81575910 0 17804.56415992 0 588.05030548 0 -3663.00344956 0 2274
0.04650000 0.04648670 38688.43355157 0 475.53423008 0 19231.02075534 0 -1848.40698198 0 -1735.69428272 0 2311
0.04750000 0.04749250 38126.79235549 0 1131.54279075 0 18544.48496900 0 2338.08824308 0 -927.28686051 0 2568
0.04850000 0.04851840 37234.40567898 0 -247.32314396 0 16397.00102935 0 1158.40007071 0 357.45666557 0 2493
0.04950000 0.04949480 38021.23061298 0 512.73238667 0 17488.53800676 0 2217.87308075 0 -438.53159888 0 2644
0.05050000 0.05050630 36304.01238134 0 1322.53155422 0 16512.44888718 0 836.20058775 0 2253.63884908 0 2829
0.05150000 0.05149060 36095.96457665 0 -382.75962851 0 16601.75346226 0 2405.87404048 0 5920.41000703 0 2784
0.05250000 0.05249300 35373.50923797 0 -336.38166462 0 15337.53900388 0 3048.86698111 0 5357.76921484 0 3055
0.05350000 0.05348950 36715.93385314 0 737.40753887 0 13381.95554722 0 1233.45765516 0 5043.36877842 0 3009
0.05450000 0.05448610 34384.56816848 0 1977.79426242 0 17206.56402859 0 -2052.29163366 0 5816.70465729 0 3336
0.05550000 0.05550870 33432.09587995 0 292.70261020 0 16174.01420595 0 -81.72708738 0 7384.91716186 0 3349
0.05650000 0.05647670 33400.02092801 0 -596.38430070 0 15193.75094879 0 1238.82911115 0 4334.21575714 0 3324
0.05750000 0.05747970 34043.49718982 0 -76.37441501 0 15856.99944125 0 2925.47727730 0 4035.56719780 0 3639
0.05850000 0.05849280 33357.29094067 0 608.88584276 0 15472.31970945 0 -409.48399514 0 4679.57071910 0 3846
0.05950000 0.05951020 32771.81322208 0 1220.40798293 0 15333.14517485 0 -462.24619262 0 3373.25239400 0 3787
0.06050000 0.06049470 31887.99451219 0 -74.15772826 0 14383.74856664 0 819.74459957 0 3544.63369542 0 3930
0.06150000 0.06148310 31488.48560740 0 -385.11911470 0 15849.31024044 0 -50.20037546 0 2628.46541927 0 4083
0.06250000 0.06249100 31515.61750168 0 923.25662083 0 14654.95766367 0 1137.36461422 0 2646.26042685 0 4303
0.06350000 0.06350600 30685.95273461 0 717.80337219 0 15564.37042768 0 -63.66087070 0 3286.24359459 0 4470
0.06450000 0.06451750 30411.77780298 0 732.63034826 0 14681.86986650 0 -1065.61887840 0 1733.50835278 0 4479
0.06550000 0.06550280 29302.00643509 0 137.35988322 0 16043.29779223 0 1668.91906600 0 2540.00665627 0 4636
0.06650000 0.06648880 30532.82779283 0 -993.62269433 0 14856.52457054 0 2062.52925531 0 2326.43361158 0 4653
0.06750000 0.06749660 30187.69252232 0 552.58002216 0 14162.51927485 0 -41.60494742 0 1081.29276502 0 5220
0.06850000 0.06852730 29952.95220626 0 1210.59875962 0 14706.14577190 0 -944.33711407 0 3762.99601376 0 5029
0.06950000 0.06949320 28510.56798060 0 328.02570025 0 13879.88622233 0 2929.60747659 0 3548.53321869 0 5040
0.07050000 0.07048030 29721.06787907 0 -800.18986346 0 14035.97699871 0 1418.65754888 0 3416.28994938 0 5475
0.07150000 0.07148790 28773.31895675 0 -112.86428636 0 12467.48987982 0 1253.12004008 0 2755.50200118 0 5509
0.07250000 0.07249820 28158.40258364 0 988.48191436 0 10682.95818740 0 496.09515303 0 2506.32795674 0 5916
0.07350000 0.07351270 27629.38556813 0 433.98837966 0 11330.14723475 0 218.72261233 0 5466.05513135 0 5721
0.07450000 0.07449140 26842.56063413 0 -138.24523977 0 9744.20563003 0 1241.39950114 0 2460.99462570 0 6028
0.07550000 0.07549160 26821.68994622 0 967.84300094 0 9684.51546262 0 -746.42257759 0 -25.84812728 0 6183
0.07650000 0.07648840 25935.45463036 0 605.04234081 0 10028.44243015 0 -171.45929188 0 1431.19094620 0 6330
0.07750000 0.07749960 25346.24215709 0 296.55929364 0 10059.49581683 0 682.37592870 0 1197.16462735 0 6583
0.07850000 0.07848650 24657.94883915 0 250.88544084 0 9141.94348454 0 380.51438188 0 389.68320461 0 6549
0.07950000 0.07947320 24552.05755946 0 11.95418080 0 9329.01075560 0 145.53130676 0 -305.30630878 0 6828
0.08050000 0.08048110 24144.63976242 0 -21.68673180 0 8168.82019956 0 272.66235599 0 239.63723852 0 7147
0.08150000 0.08149960 24042.26354596 0 521.92208009 0 9614.73047301 0 153.24357517 0 372.36712439 0 7386
0.08250000 0.08250610 23436.46436810 0 1062.47069990 0 8942.43069275 0 -575.22032471 0 932.55066769 0 7227
0.08350000 0.08350160 22960.39299243 0 -25.38600631 0 10124.94190027 0 850.69802665 0 807.33203255 0 7798
0.08450000 0.08449610 22690.61188983 0 -57.91956415 0 10054.43192887 0 184.06518737 0 160.60543571 0 7371
0.08550000 0.08548940 22813.19971984 0 608.12131650 0 9776.82981060 0 614.97678825 0 1519.73758577 0 8256
0.08650000 0.08650700 22297.80357432 0 -280.87552090 0 8742.87396266 0 750.98337213 0 2202.38483341 0 8037
0.08750000 0.08749060 22542.97923434 0 10.22356139 0 8845.40396313 0 759.26683831 0 1846.68240409 0 8155
0.08850000 0.08849210 21948.93354914 0 462.77015674 0 8754.39677930 0 463.91914303 0 1629.69315731 0 8718
0.08950000 0.08949900 21372.79271725 0 764.07698264 0 9050.80448583 0 -34.27823751 0 2616.82177234 0 8571
0.09050000 0.09049190 20757.76649842 0 669.32735493 0 8839.99955342 0 -628.36258840 0 1623.06946005 0 8932
0.09150000 0.09150830 19495.52926309 0 244.03436292 0 9023.56274583 0 849.36999182 0 2844.41113165 0 9285
0.09250000 0.09250820 19823.19906320 0 568.22205352 0 9306.92078014 0 29.92439232 0 2381.02693730 0 9204
0.09350000 0.09350330 18366.75458463 0 456.86594897 0 8705.14195584 0 104.00248243 0 2107.92849379 0 9349
0.09450000 0.09448040 18083.13292058 0 -38.94547255 0 8750.53020975 0 726.55917499 0 2601.39943243 0 9564
0.09550000 0.09549270 18261.74207076 0 82.55257801 0 7322.62365076 0 917.59407367 0 1911.67812005 0 10155
0.09650000 0.09649430 18187.48636011 0 -234.86993402 0 7343.09889405 0 1641.29286596 0 3294.44907031 0 9913
0.09750000 0.09749140 18227.36035858 0 276.15764698 0 5890.96036794 0 547.97638779 0 1866.32281986 0 10476
0.09850000 0.09850240 17854.98334807 0 144.72613759 0 6058.49706895 0 -357.41272728 0 2846.47623129 0 10575
0.09950000 0.09950330 17161.74697246 0 530.64712609 0 6375.38001878 0 -953.43124171 0 1427.20354635 0 10882
0.10050000 0.10051200 16703.69029582 0 780.85372035 0 6906.95643971 0 9.87275808 0 2048.63377099 0 10875
0.10150000 0.10150300 16099.86834102 0 50.97555675 0 7268.42576964 0 -362.38214792 0 1596.50876355 0 11118
0.10250000 0.10250800 16049.11961570 0 -30.50624513 0 6714.79232697 0 998.01212954 0 1186.20202391 0 11575
0.10350000 0.10349800 15932.35360916 0 358.85939549 0 7287.75861738 0 -244.16837471 0 529.30371286 0 11364
0.10450000 0.10450100 15668.72386721 0 88.14064978 0 6347.68791130 0 -518.65636666 0 622.85052988 0 12093
0.10550000 0.10551000 15902.58541746 0 -162.51125905 0 6371.64526410 0 1015.42926782 0 -552.91834700 0 12067
0.10650000 0.10649700 15410.25687437 0 14.59256529 0 5646.15818339 0 57.00916278 0 -454.55809027 0 12054
0.10750000 0.10749900 15511.75432502 0 378.12413888 0 5920.86037451 0 -252.62979097 0 -182.77999238 0 12807
0.10850000 0.10850100 15104.00699080 0 159.27081014 0 5656.74731136 0 276.79035836 0 -1019.71874341 0 12736
0.10950000 0.10950300 14898.92502070 0 159.89473387 0 5216.79321033 0 870.84483122 0 -263.99223285 0 12933
0.11050000 0.11050200 14871.90297215 0 54.45634811 0 5131.08059048 0 -89.66673644 0 -888.56404525 0 13428
0.11150000 0.11150900 14706.25561763 0 147.84685466 0 5056.40746607 0 84.53913796 0 -665.43771778 0 13453
0.11250000 0.11250000 14279.94435575 0 391.95920805 0 5349.56373912 0 -696.94366885 0 -571.87003007 0 13668
0.11350000 0.11349100 13903.17351621 0 316.91480509 0 5838.65183331 0 -32.69777720 0 -345.82070783 0 13791
0.11450000 0.11448600 13861.10260322 0 -65.25703895 0 5831.70958344 0 547.94563099 0 -424.03525844 0 14205
0.11550000 0.11549300 13929.09710750 0 -110.92660776 0 5344.73052719 0 288.71081653 0 -799.55934900 0 14776
0.11650000 0.11649800 14129.56555711 0 183.79167152 0 5373.10367816 0 14.23457807 0 -932.96258917 0 14553
0.11750000 0.11747300 13920.96852379 0 33.63311356 0 5383.96742045 0 -223.26583154 0 -247.34181773 0 14568
0.11850000 0.11849100 13686.22820772 0 88.04222801 0 5192.71502723 0 603.30128606 0 -301.07724834 0 16015
0.11950000 0.11950300 13781.46445200 0 -94.18161547 0 4287.89381456 0 1189.98071688 0 380.61214457 0 15270
0.12050000 0.12050700 14021.25767146 0 43.51274798 0 4190.53754777 0 495.19551654 0 -251.22596259 0 15999
0.12150000 0.12150000 13549.90966199 0 182.22307455 0 4177.78445901 0 -234.29873625 0 741.10165063 0 15670
0.12250000 0.12250700 13403.37546375 0 253.14057359 0 3969.58287030 0 -197.52897799 0 458.17860540 0 16887
0.12350000 0.12352200 13037.69904252 0 24.97836882 0 4415.69931655 0 146.22113792 0 1205.54585623 0 16407
0.12450000 0.12449800 13036.71043099 0 114.06490014 0 3941.62713308 0 570.89240311 0 721.23495266 0 16306
0.12550000 0.12549900 13179.18033737 0 -49.11213386 0 3939.24348083 0 140.72226088 0 880.27508678 0 17523
0.12650000 0.12650100 12826.90509469 0 293.78349215 0 4386.40346147 0 -311.39505736 0 976.74599702 0 17154
0.12750000 0.12750600 12722.66150089 0 300.73562813 0 3880.41011009 0 -120.20417776 0 1076.43099319 0 18007
0.12850000 0.12850300 12676.19675887 0 -30.15440927 0 4633.92982002 0 54.17437413 0 1103.20259349 0 17496
0.12950000 0.12949900 12543.39327636 0 -31.94258784 0 4236.01367826 0 475.57377454 0 903.89411474 0 18405
0.13050000 0.13049000 12675.75737597 0 -13.53244419 0 4644.99128461 0 272.35259104 0 934.22911039 0 18100
0.13150000 0.13148800 12568.98733048 0 187.74941302 0 3895.83244999 0 -236.98775961 0 1095.60566309 0 19059
0.13250000 0.13249300 12276.24847118 0 237.05806088 0 4671.26638222 0 -255.73732655 0 1017.56137336 0 18957
0.13350000 0.13349100 12204.51921223 0 26.76336187 0 4285.33440915 0 512.26554233 0 1715.17510114 0 19468
0.13450000 0.13450700 12286.90350659 0 -112.70281314 0 4303.15138588 0 479.47879009 0 1293.99363465 0 19953
0.13550000 0.13551000 12123.67275803 0 158.50189006 0 3967.66057010 0 59.66490289 0 1383.81448465 0 19956
0.13650000 0.13649900 11927.81782890 0 337.35050392 0 4054.38377063 0 -313.49750456 0 1291.09370749 0 19723
0.13750000 0.13749600 11744.15577534 0 178.94747501 0 4323.57170631 0 135.45735524 0 1897.98035804 0 20946
0.13850000 0.13851100 11494.14690339 0 118.52573507 0 4401.13377330 0 123.49735262 0 1739.00063907 0 20955
0.13950000 0.13949800 11123.19788732 0 2.22682551 0 4100.25534573 0 111.66477103 0 1843.01355684 0 20506
0.14050000 0.14048300 11252.26661515 0 13.62888874 0 3839.64636124 0 620.17139263 0 1521.33034880 0 21447
0.14150000 0.14148400 11161.42419990 0 219.77932821 0 3897.51308959 0 148.78274024 0 1939.64484184 0 21771
0.14250000 0.14249400 10989.18610183 0 156.36539070 0 3453.17614411 0 68.83702100 0 1766.42911681 0 22470
0.14350000 0.14350900 10786.19120052 0 123.94222781 0 3836.02145228 0 -206.33311291 0 1555.53630782 0 22519
0.14450000 0.14449900 10642.55692945 0 85.97745790 0 3532.67149588 0 162.24433394 0 1093.57351716 0 22218
0.14550000 0.14550500 10371.40275528 0 197.36640631 0 3559.42991469 0 -302.94901951 0 1155.12666808 0 23559
0.14650000 0.14650700 10268.53223306 0 207.40960102 0 3623.96427860 0 -184.07287657 0 860.37323818 0 23044
0.14750000 0.14750500 10116.11030392 0 32.13218156 0 3521.34640155 0 400.56452221 0 854.79966605 0 23649
0.14850000 0.14849900 10046.44614461 0 -29.10087891 0 3416.13616536 0 133.69323289 0 213.55327247 0 23640
0.14950000 0.14949500 10122.25067999 0 164.37424256 0 3463.29293545 0 89.22416802 0 389.99736339 0 24457
0.15050000 0.15050000 9867.91388644 0 212.01872768 0 3527.98108339 0 -325.08842554 0 534.13912171 0 24591
0.15150000 0.15149900 9783.45350786 0 -42.73163503 0 3499.68482442 0 124.08722417 0 754.18317812 0 25020
0.15250000 0.15250500 9842.01226429 0 -145.72683215 0 3267.78951265 0 548.18729159 0 553.95858602 0 25297
0.15350000 0.15350100 9897.55026327 0 -61.31357739 0 2944.04120496 0 419.66010318 0 679.68690533 0 25452
0.15450000 0.15450400 10039.26223414 0 184.69240647 0 2880.85794347 0 15.20528475 0 685.79872151 0 26061
0.15550000 0.15549900 9656.88926258 0 270.09526137 0 3143.33430530 0 -353.31548171 0 937.49702073 0 26128
0.15650000 0.15649500 9498.64550997 0 161.63249325 0 3187.78887054 0 -199.44139207 0 523.32481001 0 26331
0.15750000 0.15749700 9282.01875410 0 -26.64275126 0 3066.11276006 0 193.73161125 0 777.22881139 0 27345
0.15850000 0.15849900 9187.07909328 0 64.22976172 0 2916.14039060 0 529.69476365 0 68.88227743 0 26980
0.15950000 0.15949700 9102.55280726 0 57.50039286 0 2607.85836111 0 65.56197068 0 634.09653529 0 27777
0.16050000 0.16050000 9067.68777389 0 242.46466750 0 2460.30259762 0 -114.77340507 0 226.67324596 0 28224
0.16150000 0.16150500 8862.96829469 0 215.71943018 0 2721.64754848 0 -122.39340307 0 427.71179489 0 28075
0.16250000 0.16249700 8635.74142627 0 168.79772994 0 2881.97836988 0 -8.71120544 0 -21.46297606 0 28590
0.16350000 0.16349900 8363.52174856 0 55.18407604 0 2876.80463619 0 -112.67864708 0 17.12439943 0 29163
0.16450000 0.16449100 8355.18445797 0 -74.65170449 0 2396.69093781 0 235.71025382 0 -180.25354069 0 28996
0.16550000 0.16550500 8470.75314610 0 -15.21011796 0 2623.57728447 0 335.28979810 0 19.32845391 0 30777
0.16650000 0.16650700 8404.96654091 0 73.30609435 0 2173.67116069 0 172.08431406 0 216.04237662 0 29211
0.16750000 0.16749900 8309.26894458 0 194.70045055 0 2270.63198286 0 -26.44810463 0 165.67481596 0 30922
0.16850000 0.16850800 8097.29964748 0 111.91851466 0 2272.37852990 0 87.47487483 0 465.59648726 0 30867
0.16950000 0.16949900 8104.25288193 0 67.60246488 0 2395.15309764 0 19.89284125 0 179.59995862 0 30852
0.17050000 0.17049200 7892.11881624 0 65.36249084 0 2325.47795376 0 96.20859865 0 551.94840924 0 31257
0.17150000 0.17149500 7796.04774444 0 102.60755156 0 2373.65628910 0 8.86295731 0 736.96486060 0 32608
0.17250000 0.17250900 7907.35441841 0 32.55420884 0 2402.68851443 0 -6.30311252 0 726.64705157 0 32361
0.17350000 0.17350400 7866.65657699 0 -45.42065840 0 2215.98373427 0 474.52145248 0 1069.53817390 0 32508
0.17450000 0.17449800 8078.84556555 0 -172.83346191 0 1938.17290912 0 376.46986225 0 768.52902991 0 32791
0.17550000 0.17549800 8184.48420006 0 -53.42149153 0 1751.25942207 0 154.42112135 0 1041.44842489 0 33633
0.17650000 0.17650100 8051.38413409 0 219.17847209 0 1937.57974220 0 -359.36248891 0 835.01974620 0 33984
0.17750000 0.17750300 7890.06470116 0 176.33534365 0 2199.21029194 0 -588.93785895 0 869.41683678 0 34069
0.17850000 0.17849800 7758.85398168 0 86.51537242 0 2292.21666798 0 -69.48533047 0 443.05394741 0 34536
