### header ###
fiducial parameters:
Omega_m = 0.31
Omega_nu = 0
Omega_de = 0.69
Omega_k = 0
H_0 = 100
w_de = -1
zeff = 0
beta = 0
fgrowth = 0
b_1 = 2
gamma = 0.55
Lx = 3500 Ly = 3500 Lz = 3500
nx = 700 ny = 700 nz = 700
xoffset = -983.599254 yoffset = -42.9823471 zoffset = 800.977702
bins = 400 dk = 0.001
kx_ny = 0.628318531 ky_ny = 0.628318531 kz_ny = 0.628318531
############################
A(data) = 9.05279359 (not used)
A(ran) = 9.04260393 (used)
Ngal = 501651
weighted Ngal = 0
Nran = 25229228
weighted Nran = 0
SN(data) = 6739.41561
SN(ran) = 134.231226
SN(data+ran) = 6873.64684
############################
13 columns: k_central k_mean P_0(k) sigma^{lin}_{P_0(k)} P^img_1(k) sigma^{lin}_{P_1(k)} P_2(k) sigma^{lin}_{P_2(k)} P^img_3(k) sigma^{lin}_{P_3(k)} P_4(k) sigma^{lin}_{P_4(k)} N_modes
### header ###
0.00050000 0 0 0 0 0 0 0 0 0 0 0 0
0.00150000 0.00179520 17052.34062955 0 -13374.48603787 0 7118.14583215 0 -34155.21029298 0 63638.24248421 0 3
0.00250000 0.00253879 12859.19973808 0 680.20318024 0 -4499.37979047 0 -3449.69403460 0 -8095.93756048 0 6
0.00350000 0.00331552 15480.66798461 0 -718.57558764 0 -6529.86704756 0 22141.38326076 0 20749.08868608 0 7
0.00450000 0.00420575 27788.77171628 0 -14944.29130547 0 -23303.55103987 0 11027.30256868 0 -6245.26775655 0 24
0.00550000 0.00557378 64539.63651023 0 -12859.41942953 0 -5576.03267203 0 -41702.60026789 0 -33359.81739236 0 45
0.00650000 0.00659388 60147.45516358 0 7648.96431757 0 -23256.86660640 0 -2134.73085089 0 29177.88076492 0 40
0.00750000 0.00754703 57570.58428172 0 -6519.43170361 0 25505.07907662 0 -42772.38779159 0 -6253.75883116 0 57
0.00850000 0.00846663 55164.52350351 0 -1156.36792478 0 3754.19737113 0 6590.27121218 0 -21165.51383264 0 75
0.00950000 0.00948925 75873.07911676 0 7812.96398621 0 40100.93973981 0 -7823.38834559 0 -34788.69059374 0 112
0.01050000 0.01054430 75334.72521455 0 -1409.05703244 0 41688.10063208 0 -352.55205391 0 4624.62588704 0 105
0.01150000 0.01145670 71695.09693544 0 -6508.87552936 0 40733.76096622 0 8244.00959888 0 -17370.01446860 0 144
0.01250000 0.01249090 73197.56677312 0 4919.02341680 0 39990.65463109 0 -2799.24256919 0 2882.20904590 0 169
0.01350000 0.01339930 72672.61404946 0 10740.34159457 0 42562.03322666 0 10058.91363449 0 -8429.58296807 0 180
0.01450000 0.01448870 73315.54108264 0 -3304.30223191 0 40411.25391523 0 10987.20887876 0 1482.90631391 0 267
0.01550000 0.01550050 78079.33051972 0 -3160.76682199 0 35790.04423026 0 8593.64854414 0 -3037.57484049 0 238
0.01650000 0.01653350 74879.85406395 0 4742.47936627 0 35021.78322392 0 5319.43305653 0 16736.75385929 0 315
0.01750000 0.01747870 68394.12302902 0 -4955.47022862 0 23601.78218545 0 8465.63433528 0 3882.01385768 0 297
0.01850000 0.01844180 67926.94915714 0 1017.82280619 0 23975.91672757 0 4300.67985705 0 -6713.67190056 0 388
0.01950000 0.01947590 75478.51326964 0 6160.68654767 0 34721.46500955 0 -11738.55364333 0 -504.69497491 0 399
0.02050000 0.02045430 76028.18128161 0 2227.59442749 0 32053.20248381 0 -1001.65571226 0 7747.97925482 0 462
0.02150000 0.02154770 74828.99549290 0 -10711.82564415 0 37434.87412859 0 12669.71586105 0 -1874.17678926 0 571
0.02250000 0.02255340 77053.92066925 0 1325.99169458 0 24174.18826267 0 2230.37352435 0 -4250.30460719 0 510
0.02350000 0.02348930 78971.60735050 0 1144.14209550 0 26559.04881580 0 -1006.89974721 0 -1070.53008080 0 555
0.02450000 0.02439640 84987.85775330 0 5719.05180704 0 36168.35290996 0 14368.37016503 0 20934.72796270 0 592
0.02550000 0.02547300 79879.37242862 0 -585.60623808 0 29682.62187503 0 1606.39487887 0 13408.97759577 0 837
0.02650000 0.02652900 74028.32999745 0 2813.61039013 0 32071.10733712 0 2558.97701312 0 20960.43186254 0 723
0.02750000 0.02749970 71951.47685949 0 7614.09928420 0 32744.35179063 0 -478.94933369 0 10140.90248423 0 826
0.02850000 0.02848090 67335.32007791 0 1844.51844329 0 35091.97464271 0 -1517.26605694 0 17887.93706581 0 831
0.02950000 0.02946900 59673.36101097 0 1450.90825398 0 34704.76845922 0 2938.86747128 0 8207.81543222 0 996
0.03050000 0.03053250 58660.91295615 0 1899.21063017 0 33701.21790819 0 5693.01837002 0 11016.86722473 0 1041
0.03150000 0.03150510 51847.95150402 0 130.58130348 0 29882.10171311 0 1170.80165316 0 10670.39183637 0 1036
0.03250000 0.03246190 55914.00089073 0 869.02468754 0 19508.93044164 0 9664.92996971 0 744.87375286 0 1059
0.03350000 0.03345080 58677.17012357 0 46.58205725 0 21849.41332155 0 6428.07301345 0 2619.28231659 0 1302
0.03450000 0.03451200 56087.44729179 0 891.94399823 0 13341.09293722 0 -2460.50031993 0 2113.32191892 0 1339
0.03550000 0.03553350 52333.79914929 0 -376.35013041 0 11870.91774293 0 5611.58973348 0 4386.26066203 0 1365
0.03650000 0.03647120 50928.76247041 0 2240.85280659 0 15027.22482845 0 -1822.58225184 0 2220.52036275 0 1308
0.03750000 0.03744890 49584.36063218 0 3004.42340044 0 14231.94177357 0 -1236.09395258 0 3915.56074235 0 1579
0.03850000 0.03847530 50804.08757162 0 -67.86400756 0 17061.01844189 0 604.38106954 0 1006.92061790 0 1662
0.03950000 0.03950240 46704.75492998 0 -707.08462626 0 13404.69361246 0 -428.15557162 0 -509.61386651 0 1683
0.04050000 0.04050350 47958.53404442 0 1305.86795762 0 16444.89376580 0 2553.73737200 0 722.40480964 0 1822
0.04150000 0.04152450 46449.47346319 0 1833.09448780 0 18697.39021933 0 1927.80347260 0 5753.01610546 0 1887
0.04250000 0.04250150 45619.36931322 0 520.73684471 0 14183.06042558 0 1154.31380971 0 6574.78296485 0 1920
0.04350000 0.04349210 43774.94973109 0 808.82483597 0 16779.59369236 0 -1756.02672657 0 1943.29171994 0 2005
0.04450000 0.04448520 42812.70117296 0 1924.61794655 0 17511.82530063 0 1388.70261945 0 7312.77048915 0 2151
0.04550000 0.04548030 41903.17856323 0 -184.12670098 0 16858.79246067 0 795.23911660 0 8012.69646946 0 2274
0.04650000 0.04648670 39359.81062774 0 894.26284151 0 17355.73452425 0 3225.63072308 0 5330.78012001 0 2311
0.04750000 0.04749250 39913.32324012 0 1177.68898016 0 16624.93091041 0 -1656.03416236 0 4074.28781615 0 2568
0.04850000 0.04851840 38274.53485671 0 1224.34045992 0 18845.35241200 0 -2407.01643603 0 3311.54106524 0 2493
0.04950000 0.04949480 37017.02098759 0 1187.60804920 0 18650.70578586 0 1498.11994693 0 2433.28054907 0 2644
0.05050000 0.05050630 37070.84539324 0 -1053.83792431 0 17492.82199006 0 2750.33925206 0 4456.00171335 0 2829
0.05150000 0.05149060 37757.71071675 0 -807.78459694 0 14934.73472732 0 2332.63989508 0 -695.95835269 0 2784
0.05250000 0.05249300 39066.41269410 0 -535.60336524 0 11898.37917439 0 3158.97633666 0 557.72958979 0 3055
0.05350000 0.05348950 39675.61708946 0 -200.81006982 0 12222.53391126 0 180.05032610 0 3953.38062574 0 3009
0.05450000 0.05448610 38030.45765395 0 300.32041129 0 10101.88528242 0 -2293.56777041 0 -1202.20654617 0 3336
0.05550000 0.05550870 38054.95325081 0 1387.26364044 0 12204.07982932 0 -2178.29566574 0 -3661.37773281 0 3349
0.05650000 0.05647670 35416.56876249 0 2228.18759441 0 13077.68288672 0 416.30541472 0 -1812.31167648 0 3324
0.05750000 0.05747970 34173.99391209 0 1263.85196749 0 15809.21655052 0 -665.16749729 0 -929.07295202 0 3639
0.05850000 0.05849280 33341.80269333 0 348.07364367 0 15119.05585523 0 1517.98005416 0 -2907.66030057 0 3846
0.05950000 0.05951020 34271.53691661 0 600.73748682 0 14977.24502321 0 2015.69103782 0 -2356.20180327 0 3787
0.06050000 0.06049470 31279.99841981 0 -662.16870898 0 14013.45862492 0 -1136.80440102 0 -633.07057621 0 3930
0.06150000 0.06148310 32151.07502551 0 443.67567422 0 13486.30898674 0 3039.07972694 0 424.74046800 0 4083
0.06250000 0.06249100 32924.60862669 0 -688.42293590 0 11934.84795536 0 2030.13575077 0 1289.64374391 0 4303
0.06350000 0.06350600 33076.19572831 0 69.76543707 0 10757.01617575 0 2178.13089715 0 953.69157608 0 4470
0.06450000 0.06451750 31762.55069331 0 1240.76239593 0 10324.27893891 0 -168.10570187 0 1961.51512585 0 4479
0.06550000 0.06550280 30904.21619180 0 869.48054730 0 11372.98706782 0 -976.24290359 0 2169.46406939 0 4636
0.06650000 0.06648880 30032.70020320 0 21.81129685 0 10347.68706308 0 1086.82130040 0 1387.97763766 0 4653
0.06750000 0.06749660 29799.82726447 0 352.08740649 0 9517.53897481 0 708.50273458 0 1540.28972107 0 5220
0.06850000 0.06852730 28842.19222683 0 263.03327966 0 8918.47333995 0 -258.12317572 0 175.96736047 0 5029
0.06950000 0.06949320 29313.54023630 0 609.85687897 0 9393.47921208 0 861.89020765 0 -1628.34205489 0 5040
0.07050000 0.07048030 28349.31445511 0 541.11102993 0 9687.64606581 0 -337.50758331 0 -76.57609176 0 5475
0.07150000 0.07148790 27137.38656221 0 81.55781512 0 8511.06652748 0 -593.95011942 0 -1161.68445791 0 5509
0.07250000 0.07249820 27248.98981963 0 560.98102327 0 10067.09714106 0 -163.65585152 0 -898.51496955 0 5916
0.07350000 0.07351270 26774.23659267 0 226.93687570 0 9271.93491647 0 486.45728905 0 -1584.49164114 0 5721
0.07450000 0.07449140 26559.37835298 0 304.65382517 0 9579.93134708 0 957.41864156 0 -2183.04100110 0 6028
0.07550000 0.07549160 26166.78972892 0 422.59957481 0 9552.85437566 0 -766.60563125 0 -2480.32747344 0 6183
0.07650000 0.07648840 25395.89242516 0 848.45387847 0 9576.66892902 0 998.89968300 0 1308.26259444 0 6330
0.07750000 0.07749960 25127.86885418 0 -238.12026905 0 9258.87425967 0 1682.49599771 0 215.18118612 0 6583
0.07850000 0.07848650 25089.53269587 0 136.40532386 0 9401.94831754 0 1260.39182713 0 1337.54746494 0 6549
0.07950000 0.07947320 24857.42867722 0 181.31794577 0 6704.17024528 0 495.96333816 0 1025.40106281 0 6828
0.08050000 0.08048110 24400.14092066 0 -98.19482906 0 8028.26160881 0 451.05291316 0 3663.13526443 0 7147
0.08150000 0.08149960 23710.30976256 0 336.85070586 0 7677.96358919 0 -179.09466828 0 1859.92979862 0 7386
0.08250000 0.08250610 23233.24977535 0 1518.69405138 0 8522.42457553 0 -602.10067227 0 2457.84205337 0 7227
0.08350000 0.08350160 22649.20005120 0 112.95545831 0 7570.52348477 0 215.79851910 0 3180.16557717 0 7798
0.08450000 0.08449610 22837.25593379 0 -620.12415896 0 7051.71113718 0 2041.83432057 0 2415.63932551 0 7371
0.08550000 0.08548940 22256.39173569 0 -119.97679711 0 6633.53944358 0 1125.55619869 0 2698.83259123 0 8256
0.08650000 0.08650700 22415.44834667 0 992.91858323 0 6225.97884710 0 -1117.58139900 0 1290.11608053 0 8037
0.08750000 0.08749060 21260.64023119 0 444.83784200 0 6067.94380137 0 -712.24078463 0 1753.12679941 0 8155
0.08850000 0.08849210 21195.61156151 0 -4.38258083 0 6167.57387468 0 565.93945934 0 117.06588537 0 8718
0.08950000 0.08949900 20383.19257339 0 50.94469010 0 6187.46693563 0 -22.41138405 0 760.13461954 0 8571
0.09050000 0.09049190 20525.88217122 0 714.62114151 0 5784.82742766 0 -339.89782630 0 -1323.54213490 0 8932
0.09150000 0.09150830 20115.82807676 0 582.86558723 0 6451.98642796 0 -152.36810473 0 -121.73652563 0 9285
0.09250000 0.09250820 19607.46205770 0 -80.86886273 0 6133.66449912 0 -115.12381294 0 -628.58227985 0 9204
0.09350000 0.09350330 19073.61183024 0 -261.87989954 0 6205.64640325 0 1364.86609695 0 518.61682220 0 9349
0.09450000 0.09448040 19215.53250800 0 328.62326100 0 5685.93332071 0 125.24719503 0 -307.50871559 0 9564
0.09550000 0.09549270 19306.15523179 0 467.08379839 0 5553.32756051 0 158.22398038 0 -479.08444393 0 10155
0.09650000 0.09649430 18840.07981717 0 436.06446388 0 5831.05050908 0 -392.88081369 0 -451.50328064 0 9913
0.09750000 0.09749140 18091.37135002 0 84.11095932 0 6049.22608969 0 -315.08916912 0 -1.47662314 0 10476
0.09850000 0.09850240 18200.33831003 0 -48.20041433 0 5962.88734920 0 439.17639329 0 -667.07551755 0 10575
0.09950000 0.09950330 17787.53807242 0 209.99646787 0 5927.93443925 0 207.84019627 0 -733.54975698 0 10882
0.10050000 0.10051200 17200.19297650 0 454.75032030 0 5533.20382354 0 -110.62343355 0 -306.92543478 0 10875
0.10150000 0.10150300 17005.54635035 0 645.09978164 0 6347.67692673 0 272.62610690 0 -230.04550974 0 11118
0.10250000 0.10250800 16608.56389727 0 291.40643064 0 6871.50922399 0 -42.73108580 0 475.38593835 0 11575
0.10350000 0.10349800 16230.03552611 0 349.50493348 0 6825.75847918 0 186.26979109 0 956.74089343 0 11364
0.10450000 0.10450100 15864.57879633 0 47.74784994 0 6788.38896326 0 -22.65425295 0 388.88682310 0 12093
0.10550000 0.10551000 15594.24846510 0 159.11043538 0 6873.29970932 0 300.66093304 0 849.97524177 0 12067
0.10650000 0.10649700 15318.75538476 0 159.43557873 0 6450.02018947 0 480.86833852 0 1666.38162973 0 12054
0.10750000 0.10749900 15417.17715509 0 -46.14695833 0 6757.40148401 0 746.84548363 0 1636.38276202 0 12807
0.10850000 0.10850100 15362.80352082 0 7.14336641 0 5780.03815401 0 327.60938495 0 614.40888585 0 12736
0.10950000 0.10950300 15390.48464372 0 419.94240670 0 5824.84422557 0 -61.42583972 0 1883.42579937 0 12933
0.11050000 0.11050200 14867.94852603 0 184.52324405 0 5792.97798051 0 298.18501038 0 1364.44868319 0 13428
0.11150000 0.11150900 14634.52635867 0 144.19777965 0 5840.95859355 0 135.21899002 0 857.72156236 0 13453
0.11250000 0.11250000 14477.55681648 0 -70.62926386 0 4753.17833996 0 612.10871635 0 1426.31379597 0 13668
0.11350000 0.11349100 14363.42710736 0 -33.63333325 0 5174.11814585 0 -96.13555124 0 965.76032598 0 13791
0.11450000 0.11448600 13970.39910040 0 308.37320145 0 4840.75833715 0 -230.81552828 0 517.06689901 0 14205
0.11550000 0.11549300 13853.19371096 0 508.50991697 0 5042.78659607 0 -263.59459132 0 252.92307906 0 14776
0.11650000 0.11649800 13742.13968216 0 181.72437496 0 4800.97221526 0 208.15435504 0 488.39277074 0 14553
0.11750000 0.11747300 13814.41816975 0 -318.31533809 0 5345.33467868 0 562.97692011 0 -88.20490953 0 14568
0.11850000 0.11849100 13589.78366046 0 -55.59731566 0 4365.86231075 0 350.18817389 0 149.69885360 0 16015
0.11950000 0.11950300 13856.04969983 0 -39.76448228 0 4547.81077098 0 -116.09594761 0 429.09804795 0 15270
0.12050000 0.12050700 13666.56582280 0 71.53812739 0 4428.21074472 0 -549.70645797 0 -793.35196703 0 15999
0.12150000 0.12150000 13731.37480103 0 364.78667085 0 5406.72745484 0 -445.81876433 0 -174.34823447 0 15670
0.12250000 0.12250700 13570.01142981 0 76.93726451 0 4856.37839937 0 10.27635325 0 -593.71614802 0 16887
0.12350000 0.12352200 13949.63825823 0 -171.53838080 0 5255.61268983 0 701.99547378 0 -587.00347572 0 16407
0.12450000 0.12449800 13317.91548907 0 96.45102816 0 4662.84121505 0 77.24538177 0 -601.17577126 0 16306
0.12550000 0.12549900 13579.12862506 0 235.53450066 0 4931.13940035 0 446.64700110 0 49.29491714 0 17523
0.12650000 0.12650100 12870.40400211 0 178.84312157 0 4345.91432694 0 238.35643736 0 372.41325960 0 17154
0.12750000 0.12750600 13114.70089632 0 149.02000701 0 4840.86818288 0 971.78646250 0 865.30750818 0 18007
0.12850000 0.12850300 12823.39003146 0 148.41256015 0 3735.24898342 0 -104.25853282 0 889.22421806 0 17496
0.12950000 0.12949900 12599.63428798 0 119.15075725 0 4174.58794839 0 200.34871777 0 1100.62121893 0 18405
0.13050000 0.13049000 12076.54894165 0 161.23595018 0 3848.91734049 0 -60.58123593 0 1516.88159690 0 18100
0.13150000 0.13148800 12083.68891383 0 231.29116027 0 3798.25649175 0 115.55990047 0 1350.80584405 0 19059
0.13250000 0.13249300 11722.51616736 0 88.34342499 0 3485.19617318 0 604.91272285 0 1207.57800216 0 18957
0.13350000 0.13349100 12017.67163262 0 -10.63268180 0 3590.10982591 0 273.63778603 0 1680.32105234 0 19468
0.13450000 0.13450700 11918.59078793 0 -123.16891390 0 2797.37519186 0 641.48256189 0 1133.26736864 0 19953
0.13550000 0.13551000 12021.62607875 0 -40.48880500 0 2983.64058912 0 -117.81173785 0 1395.18351727 0 19956
0.13650000 0.13649900 11797.43095236 0 284.08960684 0 2711.21220453 0 -56.63590700 0 1629.04506753 0 19723
0.13750000 0.13749600 11512.38129388 0 159.50478154 0 2914.28399784 0 -164.13807425 0 1562.07212850 0 20946
0.13850000 0.13851100 11653.09366864 0 -56.22837936 0 2700.11778622 0 -23.09824938 0 664.11847061 0 20955
0.13950000 0.13949800 11349.48008250 0 292.59166602 0 3222.14861358 0 -10.47573423 0 689.27314182 0 20506
0.14050000 0.14048300 11019.61336788 0 331.40455478 0 3372.56036593 0 -890.49293620 0 867.20564232 0 21447
0.14150000 0.14148400 10947.67540204 0 151.00931310 0 3269.45916768 0 -4.96698206 0 -31.92402391 0 21771
0.14250000 0.14249400 10761.76151110 0 162.07517152 0 3866.07524287 0 30.95847998 0 -134.84551455 0 22470
0.14350000 0.14350900 10380.12450591 0 149.81419161 0 3528.92575663 0 -236.66371472 0 372.00353504 0 22519
0.14450000 0.14449900 10533.61193859 0 -231.67122648 0 3691.88189087 0 727.17650797 0 477.81243043 0 22218
0.14550000 0.14550500 10669.10664138 0 -193.55695654 0 3397.17679309 0 498.99508020 0 -94.58980218 0 23559
0.14650000 0.14650700 11028.95025457 0 267.85440857 0 3310.64033029 0 -19.22421032 0 287.45088605 0 23044
0.14750000 0.14750500 10650.19120739 0 2.02953160 0 2830.60352391 0 66.22928346 0 952.79084113 0 23649
0.14850000 0.14849900 10767.52841171 0 -119.26170143 0 3071.29747832 0 395.58192009 0 383.61093289 0 23640
0.14950000 0.14949500 10623.18014342 0 38.14381844 0 2568.33586896 0 292.48621412 0 679.61001332 0 24457
0.15050000 0.15050000 10449.20648287 0 317.45195069 0 3229.43138520 0 -189.57724590 0 1138.41913319 0 24591
0.15150000 0.15149900 10235.06224040 0 383.67134804 0 2880.67120574 0 -154.29699568 0 943.60334463 0 25020
0.15250000 0.15250500 10035.24188057 0 53.10074201 0 2941.07537036 0 185.84249122 0 788.88124599 0 25297
0.15350000 0.15350100 9783.90387534 0 162.68701222 0 3178.35312269 0 -313.43818787 0 824.61735597 0 25452
0.15450000 0.15450400 9334.79962535 0 290.19483228 0 2758.50078949 0 51.11528051 0 616.46959167 0 26061
0.15550000 0.15549900 9147.23804852 0 73.99471721 0 3320.86696736 0 -38.07011196 0 791.27698127 0 26128
0.15650000 0.15649500 9043.06036216 0 76.85400145 0 2971.44771355 0 258.54608176 0 398.23798974 0 26331
0.15750000 0.15749700 9207.27972225 0 16.22641062 0 2816.10388811 0 244.60665916 0 330.63563470 0 27345
0.15850000 0.15849900 9160.36461276 0 26.88232479 0 2665.83493519 0 -251.96851970 0 -41.86341441 0 26980
0.15950000 0.15949700 9042.09371978 0 46.73496250 0 2522.92564591 0 30.21493426 0 7.25147657 0 27777
0.16050000 0.16050000 8962.71919830 0 -69.70623022 0 2597.99421493 0 130.49452535 0 -40.25065946 0 28224
0.16150000 0.16150500 8923.31753645 0 90.53319953 0 2377.22627519 0 155.47893569 0 -127.25078107 0 28075
0.16250000 0.16249700 9055.64868234 0 147.54697583 0 2596.76394280 0 -33.30753083 0 -223.17465959 0 28590
0.16350000 0.16349900 8837.60491660 0 16.15116629 0 2056.44380210 0 194.91904354 0 7.15557027 0 29163
0.16450000 0.16449100 8825.78551650 0 -4.77918981 0 2187.89618218 0 395.21503536 0 245.57549846 0 28996
0.16550000 0.16550500 8951.91037888 0 -52.52712763 0 2027.81800595 0 -22.12402764 0 181.28609051 0 30777
0.16650000 0.16650700 8805.26633492 0 209.19569253 0 2102.09568575 0 100.63582078 0 143.27507555 0 29211
0.16750000 0.16749900 8724.23314299 0 88.37088642 0 2080.85152237 0 -49.71255059 0 200.42890515 0 30922
0.16850000 0.16850800 8672.96814275 0 18.41168149 0 2092.37433901 0 -158.35799216 0 185.11311560 0 30867
0.16950000 0.16949900 8399.37539347 0 122.43953828 0 2035.82575936 0 309.38378213 0 294.78967899 0 30852
0.17050000 0.17049200 8581.80717490 0 31.48343270 0 1793.17655104 0 -17.20282927 0 322.42906052 0 31257
0.17150000 0.17149500 8383.90911527 0 151.29710891 0 1951.68393339 0 255.79005250 0 239.07592686 0 32608
0.17250000 0.17250900 8201.94967046 0 124.04108896 0 2014.12024394 0 -59.11248873 0 516.47592900 0 32361
0.17350000 0.17350400 8048.38534578 0 76.52270674 0 1938.03010967 0 98.08718025 0 634.13717821 0 32508
0.17450000 0.17449800 8124.56335663 0 9.29628771 0 1783.88360264 0 81.63525636 0 469.69812666 0 32791
0.17550000 0.17549800 7923.68847783 0 55.68662024 0 1656.82505159 0 166.72603955 0 404.92759444 0 33633
0.17650000 0.17650100 7751.75794779 0 130.48244232 0 1551.85647600 0 -126.36432606 0 249.76830981 0 33984
0.17750000 0.17750300 7778.42849002 0 181.99898927 0 1689.30643271 0 -51.86047392 0 42.46756590 0 34069
0.17850000 0.17849800 7486.75513427 0 88.14229746 0 1740.19795748 0 -72.53376905 0 111.25504648 0 34536
