### header ###
fiducial parameters:
Omega_m = 0.31
Omega_nu = 0
Omega_de = 0.69
Omega_k = 0
H_0 = 100
w_de = -1
zeff = 0
beta = 0
fgrowth = 0
b_1 = 2
gamma = 0.55
Lx = 3500 Ly = 3500 Lz = 3500
nx = 700 ny = 700 nz = 700
xoffset = -983.599254 yoffset = -42.9823471 zoffset = 800.977702
bins = 400 dk = 0.001
kx_ny = 0.628318531 ky_ny = 0.628318531 kz_ny = 0.628318531
############################
A(data) = 9.0133858 (not used)
A(ran) = 9.01442598 (used)
Ngal = 501102
weighted Ngal = 0
Nran = 25229228
weighted Nran = 0
SN(data) = 6740.10266
SN(ran) = 133.812943
SN(data+ran) = 6873.9156
############################
13 columns: k_central k_mean P_0(k) sigma^{lin}_{P_0(k)} P^img_1(k) sigma^{lin}_{P_1(k)} P_2(k) sigma^{lin}_{P_2(k)} P^img_3(k) sigma^{lin}_{P_3(k)} P_4(k) sigma^{lin}_{P_4(k)} N_modes
### header ###
0.00050000 0 0 0 0 0 0 0 0 0 0 0 0
0.00150000 0.00179520 32427.99610029 0 -10359.18791057 0 -30573.14117420 0 54266.86423216 0 16035.49874570 0 3
0.00250000 0.00253879 38841.44864763 0 -7573.14879762 0 -13969.63018032 0 -17604.09571031 0 -15793.17907455 0 6
0.00350000 0.00331552 26458.32028523 0 -3709.90757448 0 -14679.45326053 0 -18012.06273598 0 5805.51137783 0 7
0.00450000 0.00420575 42164.39169921 0 -25408.30499218 0 -35433.92438717 0 2815.71942807 0 -25253.20282733 0 24
0.00550000 0.00557378 66007.39509855 0 -14106.93733759 0 -44537.05937678 0 -20309.26639992 0 -11977.79763415 0 45
0.00650000 0.00659388 61176.70961445 0 15241.31414807 0 -26377.80336821 0 -15161.89568830 0 11065.41903554 0 40
0.00750000 0.00754703 72336.81566565 0 4849.35925749 0 -27043.02908373 0 -13334.39234794 0 -112.86977865 0 57
0.00850000 0.00846663 75667.00853513 0 -14714.93342997 0 -21863.36372873 0 -15232.52649000 0 -24306.22282509 0 75
0.00950000 0.00948925 76006.87121080 0 -331.55174805 0 -26415.15091499 0 -16634.70718001 0 -26885.73000437 0 112
0.01050000 0.01054430 63758.63339970 0 7928.60956635 0 -32.62483964 0 -30599.06476549 0 -2538.18321723 0 105
0.01150000 0.01145670 58349.61016919 0 6323.09345329 0 -795.81031437 0 -9646.68459465 0 -11975.93025681 0 144
0.01250000 0.01249090 72855.06780003 0 2527.45128981 0 30950.79077955 0 -7580.96981330 0 -36173.73535052 0 169
0.01350000 0.01339930 54623.97268678 0 10099.17209300 0 28886.56990006 0 -8344.37563855 0 -11616.73473340 0 180
0.01450000 0.01448870 58560.84349993 0 -480.83318789 0 47658.10598432 0 3114.15928053 0 3998.26358931 0 267
0.01550000 0.01550050 60583.65254079 0 -9077.46404349 0 44300.01230048 0 13868.90164975 0 13344.38830899 0 238
0.01650000 0.01653350 69185.34179206 0 -854.24714205 0 40797.03210429 0 16340.21078910 0 1898.90306214 0 315
0.01750000 0.01747870 70136.60577760 0 381.34591402 0 43826.68706795 0 3216.28285182 0 22163.02286875 0 297
0.01850000 0.01844180 72661.40978542 0 2245.32352763 0 37361.49718375 0 6074.40273005 0 19553.19826915 0 388
0.01950000 0.01947590 77081.38210070 0 -3810.39444445 0 49923.23469632 0 -2127.85450845 0 34548.12845421 0 399
0.02050000 0.02045430 73845.21717252 0 82.02795483 0 45123.63555263 0 11489.64322863 0 13407.76929279 0 462
0.02150000 0.02154770 75923.71799636 0 5699.34548383 0 44741.81180970 0 5331.30737949 0 16407.54621903 0 571
0.02250000 0.02255340 72102.40488676 0 192.87151921 0 43062.60019919 0 7338.41946613 0 24677.83091552 0 510
0.02350000 0.02348930 72000.35820748 0 3452.78069949 0 40292.84022280 0 -480.63217021 0 14502.82133342 0 555
0.02450000 0.02439640 68449.04589193 0 2457.97386824 0 47435.66838955 0 3081.00784048 0 18702.88250562 0 592
0.02550000 0.02547300 64415.29114861 0 1617.17074457 0 43268.12155219 0 2530.04364894 0 17982.29454429 0 837
0.02650000 0.02652900 63184.25009942 0 2156.23864400 0 37344.03171334 0 11504.58224734 0 14632.32944416 0 723
0.02750000 0.02749970 59495.96016378 0 4355.84438055 0 34143.01741741 0 6154.69995562 0 8420.53168026 0 826
0.02850000 0.02848090 56266.38597914 0 1460.89323046 0 37603.70700916 0 1223.75827757 0 22545.72537748 0 831
0.02950000 0.02946900 53942.48980383 0 429.92518626 0 37531.53836730 0 8673.71509369 0 22127.98208221 0 996
0.03050000 0.03053250 52629.50384318 0 -484.33067580 0 29580.68504148 0 4741.24909414 0 18790.64924055 0 1041
0.03150000 0.03150510 55737.36896362 0 959.64850980 0 30831.71801277 0 7221.70838245 0 11609.92429840 0 1036
0.03250000 0.03246190 51467.11637263 0 1227.92143058 0 27356.52878521 0 -4169.35929184 0 17574.43736434 0 1059
0.03350000 0.03345080 51711.85264974 0 1783.74080319 0 30175.38980103 0 1272.76045586 0 15353.68632557 0 1302
0.03450000 0.03451200 48535.33395067 0 511.19125113 0 28668.30644287 0 1326.83750667 0 14962.41585023 0 1339
0.03550000 0.03553350 48875.96554641 0 156.91571778 0 28312.84567414 0 4245.02102778 0 6442.37492695 0 1365
0.03650000 0.03647120 49009.20841182 0 2274.08113865 0 27408.81535069 0 3159.99790191 0 7881.34295053 0 1308
0.03750000 0.03744890 47847.04063272 0 1280.36178008 0 25130.94453450 0 -1264.41218069 0 5224.72407174 0 1579
0.03850000 0.03847530 44585.94072477 0 187.39900515 0 26842.67047985 0 635.17961414 0 6143.16615441 0 1662
0.03950000 0.03950240 42380.89762479 0 674.58786674 0 24969.14178038 0 3474.48621491 0 1250.15420548 0 1683
0.04050000 0.04050350 43143.33680766 0 1033.14298957 0 23352.43238785 0 556.99252497 0 -1396.16114423 0 1822
0.04150000 0.04152450 40658.29695258 0 1489.17850485 0 20992.39696875 0 1836.70841218 0 -1611.46975140 0 1887
0.04250000 0.04250150 43483.19948333 0 -1402.87271808 0 19051.75253081 0 3262.26427264 0 -2097.51511898 0 1920
0.04350000 0.04349210 39566.75997518 0 464.98354811 0 17554.55528797 0 1883.76632112 0 -1832.69904319 0 2005
0.04450000 0.04448520 41193.35548302 0 1080.98300007 0 17437.89912716 0 131.36999579 0 -3131.96527268 0 2151
0.04550000 0.04548030 38490.60139938 0 822.04037524 0 16573.41326500 0 -382.85519429 0 701.69229958 0 2274
0.04650000 0.04648670 38949.20730465 0 -401.67286558 0 15377.85238525 0 2802.92240101 0 -1614.71020031 0 2311
0.04750000 0.04749250 38263.11090122 0 401.03795729 0 13318.13518052 0 4502.18085648 0 2937.17584710 0 2568
0.04850000 0.04851840 40309.42692740 0 -962.77471915 0 14228.09717316 0 506.64693346 0 1479.19352838 0 2493
0.04950000 0.04949480 39312.79665710 0 1282.97610836 0 13045.05870615 0 -23.15701684 0 4370.76143012 0 2644
0.05050000 0.05050630 38143.26921436 0 1720.06323594 0 15600.61951720 0 -3215.72263862 0 -110.60915361 0 2829
0.05150000 0.05149060 37178.27451309 0 989.05201368 0 17791.38267282 0 -1338.19555472 0 1490.52960728 0 2784
0.05250000 0.05249300 34798.24717189 0 -151.72880261 0 16363.49808298 0 1787.94789449 0 2247.63028788 0 3055
0.05350000 0.05348950 35500.38105129 0 -500.55049567 0 18182.65314817 0 4095.36721093 0 4778.62959463 0 3009
0.05450000 0.05448610 36171.20889883 0 596.01082523 0 14645.40108553 0 1293.64212833 0 2650.33570328 0 3336
0.05550000 0.05550870 34072.49646144 0 1178.63365341 0 14762.60647497 0 -175.89376383 0 2162.53280409 0 3349
0.05650000 0.05647670 33676.50261988 0 1129.14815393 0 14801.16232473 0 350.23211218 0 5671.12611687 0 3324
0.05750000 0.05747970 34277.35874008 0 -834.98239866 0 12732.10823331 0 2302.55315078 0 4268.38521366 0 3639
0.05850000 0.05849280 33743.61835835 0 -738.47084550 0 12050.40565891 0 1588.47904099 0 -590.09892827 0 3846
0.05950000 0.05951020 34618.75925591 0 652.32653194 0 10936.89953634 0 -2377.14938318 0 -1739.46199112 0 3787
0.06050000 0.06049470 32422.17427682 0 1714.76867196 0 11038.50683272 0 -1846.03431430 0 602.14131519 0 3930
0.06150000 0.06148310 32216.87261527 0 351.69196188 0 12583.70665774 0 -959.96157011 0 -5830.00697469 0 4083
0.06250000 0.06249100 30877.85321761 0 379.34013107 0 14275.44068099 0 -1408.88127928 0 -6437.28906984 0 4303
0.06350000 0.06350600 30403.64921927 0 938.08139999 0 14172.51523590 0 1024.09829250 0 -6993.13041161 0 4470
0.06450000 0.06451750 30401.34245903 0 -835.97210865 0 11914.85603326 0 3004.85179877 0 -4234.06940891 0 4479
0.06550000 0.06550280 31704.22261290 0 -801.15870276 0 9488.36395004 0 1965.05215822 0 -7248.62058528 0 4636
0.06650000 0.06648880 30260.84977571 0 1394.15096745 0 10010.32886996 0 -2067.92268045 0 -7578.24563930 0 4653
0.06750000 0.06749660 29721.72695342 0 1475.21711310 0 9504.69800947 0 -751.96868829 0 -5597.36471198 0 5220
0.06850000 0.06852730 28167.95916179 0 -358.05093095 0 10337.93276262 0 1524.58178228 0 -6397.26128736 0 5029
0.06950000 0.06949320 27467.14343110 0 12.05238288 0 8696.77171154 0 1412.35240422 0 -5038.75525793 0 5040
0.07050000 0.07048030 27957.71444258 0 841.84665806 0 8487.19705126 0 303.72562879 0 -6125.66773028 0 5475
0.07150000 0.07148790 26832.89421025 0 170.78264221 0 8485.36262764 0 109.76400059 0 -3976.65693504 0 5509
0.07250000 0.07249820 26233.46608449 0 755.94180819 0 8382.20650652 0 417.50053621 0 -4140.95318714 0 5916
0.07350000 0.07351270 25902.83044979 0 3.98577413 0 8367.62997871 0 -547.49965734 0 -966.55451058 0 5721
0.07450000 0.07449140 25933.47740729 0 -615.76657902 0 8307.02809178 0 2593.15001842 0 -2534.77799973 0 6028
0.07550000 0.07549160 26324.30849974 0 30.08377847 0 8002.05241863 0 1013.49598305 0 -2180.32781167 0 6183
0.07650000 0.07648840 26617.92612484 0 622.80109930 0 7721.51741947 0 -369.29364098 0 372.49893926 0 6330
0.07750000 0.07749960 25307.35677016 0 225.76152644 0 9148.81982698 0 -672.73806471 0 969.86526075 0 6583
0.07850000 0.07848650 24887.63625182 0 936.68196544 0 9802.59961787 0 -768.54440831 0 572.21165028 0 6549
0.07950000 0.07947320 24460.77576131 0 619.32777745 0 9263.97110135 0 995.50545007 0 867.64392677 0 6828
0.08050000 0.08048110 23950.87190209 0 238.54097818 0 11241.17219684 0 372.40117657 0 2572.66379056 0 7147
0.08150000 0.08149960 23736.67273675 0 601.58110199 0 10113.88043568 0 -86.65278942 0 1501.71190217 0 7386
0.08250000 0.08250610 22550.66843514 0 534.89925413 0 10101.52279153 0 -31.64973913 0 1243.10210989 0 7227
0.08350000 0.08350160 22172.46960117 0 399.31337939 0 10252.67051025 0 280.43064572 0 1256.89873305 0 7798
0.08450000 0.08449610 21777.68406259 0 -110.49711097 0 9876.74548280 0 677.73055295 0 990.37235931 0 7371
0.08550000 0.08548940 21968.81562551 0 -459.15842927 0 8363.40091827 0 1372.22576058 0 440.72961185 0 8256
0.08650000 0.08650700 21998.80350866 0 411.01414611 0 7870.21557851 0 -314.42350403 0 -528.45790077 0 8037
0.08750000 0.08749060 20988.33267690 0 923.37964805 0 7092.25519458 0 -277.78336372 0 1046.44091313 0 8155
0.08850000 0.08849210 21065.55422215 0 -29.63461929 0 8120.87254024 0 417.77405207 0 -2070.60291616 0 8718
0.08950000 0.08949900 20640.67095470 0 284.83106549 0 7675.99735070 0 99.47475146 0 -1251.13183244 0 8571
0.09050000 0.09049190 20118.02499128 0 89.52503546 0 8020.18794796 0 194.25887073 0 -596.77205611 0 8932
0.09150000 0.09150830 19476.30626108 0 395.80380845 0 7473.45281687 0 123.45890661 0 -64.42737418 0 9285
0.09250000 0.09250820 19757.84085634 0 523.51484311 0 8420.88318658 0 -158.58427436 0 -741.02585708 0 9204
0.09350000 0.09350330 18437.71492351 0 640.85094897 0 8059.07333490 0 -19.26089879 0 -779.56413153 0 9349
0.09450000 0.09448040 18777.90713635 0 115.52145447 0 8768.63278536 0 655.48130119 0 794.46250732 0 9564
0.09550000 0.09549270 18389.16311270 0 -92.46176094 0 8420.91614030 0 491.99680900 0 746.13917562 0 10155
0.09650000 0.09649430 17957.24971880 0 280.13296380 0 7441.63051010 0 1271.25556941 0 1607.73499672 0 9913
0.09750000 0.09749140 17529.73015394 0 197.20493310 0 7499.27754701 0 414.60500288 0 2000.00506818 0 10476
0.09850000 0.09850240 17591.02406894 0 239.95029884 0 7234.91183869 0 717.38815534 0 3216.08512951 0 10575
0.09950000 0.09950330 17256.21429666 0 -120.19209473 0 6656.78279916 0 907.27956001 0 2833.88791112 0 10882
0.10050000 0.10051200 16762.23806768 0 291.80736754 0 6522.29867705 0 -168.88340961 0 3035.07035794 0 10875
0.10150000 0.10150300 16871.31487341 0 269.27471380 0 6116.19902872 0 -394.16930405 0 2043.31723786 0 11118
0.10250000 0.10250800 16637.34347743 0 128.60078504 0 6604.97955487 0 157.37926674 0 1369.46863286 0 11575
0.10350000 0.10349800 16369.31990644 0 204.49759083 0 5884.78703815 0 -404.72328139 0 1005.71451183 0 11364
0.10450000 0.10450100 16056.03989642 0 112.61054273 0 6031.55191241 0 411.08444737 0 58.43704737 0 12093
0.10550000 0.10551000 16300.66632781 0 -56.00352516 0 5459.28863464 0 396.91764411 0 -386.96671981 0 12067
0.10650000 0.10649700 15851.39730923 0 184.65835429 0 5390.47028742 0 139.97311303 0 -624.99032462 0 12054
0.10750000 0.10749900 15941.36095867 0 294.13390001 0 5145.56924171 0 290.03994981 0 -325.30701854 0 12807
0.10850000 0.10850100 15143.66129782 0 259.00743381 0 4988.63265324 0 -576.26935139 0 -45.88882088 0 12736
0.10950000 0.10950300 15371.70102461 0 109.27507727 0 5522.88930988 0 762.65118512 0 70.86477309 0 12933
0.11050000 0.11050200 15099.72300749 0 -78.54738316 0 4575.60173961 0 638.84516601 0 511.78771342 0 13428
0.11150000 0.11150900 15318.09631041 0 -19.80540406 0 4572.07569181 0 288.35601483 0 401.34003303 0 13453
0.11250000 0.11250000 14768.09876126 0 273.07757283 0 4810.91325345 0 -91.51126587 0 1057.58915585 0 13668
0.11350000 0.11349100 14886.73214514 0 454.57017330 0 5227.47021488 0 -498.71497359 0 239.19675716 0 13791
0.11450000 0.11448600 14292.24707704 0 290.26952738 0 5827.62332243 0 -552.45919186 0 1180.59989190 0 14205
0.11550000 0.11549300 14235.78637397 0 -11.10759979 0 6212.14927022 0 -231.92387165 0 200.48932030 0 14776
0.11650000 0.11649800 13852.20509943 0 228.26930436 0 6049.63251888 0 299.81072712 0 455.22265692 0 14553
0.11750000 0.11747300 14111.11147517 0 99.59755898 0 6051.31315848 0 432.30334623 0 77.11169952 0 14568
0.11850000 0.11849100 13882.08313685 0 99.21903061 0 5734.90254528 0 100.51993354 0 646.01040271 0 16015
0.11950000 0.11950300 13843.19774991 0 -109.14183440 0 5915.84042484 0 410.72744876 0 796.56385605 0 15270
0.12050000 0.12050700 13990.17133105 0 0.63992934 0 5407.37554462 0 239.45159924 0 275.48648960 0 15999
0.12150000 0.12150000 13485.97944957 0 367.21755677 0 5786.69480500 0 -411.89730574 0 762.38865384 0 15670
0.12250000 0.12250700 13412.49265900 0 141.64716189 0 5346.05966047 0 -122.03091218 0 -573.25518467 0 16887
0.12350000 0.12352200 13410.40559021 0 -32.28354897 0 5728.03718741 0 72.52102695 0 -837.43635217 0 16407
0.12450000 0.12449800 12789.55754791 0 326.66471171 0 5075.74031381 0 894.87578066 0 8.42094909 0 16306
0.12550000 0.12549900 12985.41247703 0 -117.25921385 0 4604.93054841 0 301.58144022 0 723.31872608 0 17523
0.12650000 0.12650100 12868.75631622 0 -116.83081552 0 3980.83107262 0 1240.69648849 0 -19.89185264 0 17154
0.12750000 0.12750600 13014.30190292 0 232.18750140 0 3694.13372825 0 198.07271433 0 509.15800675 0 18007
0.12850000 0.12850300 12405.97627337 0 318.28897512 0 3506.25359882 0 336.83862284 0 1027.36510439 0 17496
0.12950000 0.12949900 12276.57800836 0 207.66334465 0 3492.98423514 0 -637.97408941 0 1113.81369060 0 18405
0.13050000 0.13049000 12014.48610657 0 122.97229005 0 3678.01936027 0 446.97873519 0 518.85408897 0 18100
0.13150000 0.13148800 12113.67679698 0 -70.39221678 0 3535.25287043 0 -182.54931636 0 667.25236917 0 19059
0.13250000 0.13249300 11845.10399737 0 -34.48430809 0 3358.04974555 0 36.05422320 0 704.06606572 0 18957
0.13350000 0.13349100 12156.51663005 0 47.45840645 0 3503.45253281 0 173.22561115 0 127.83625879 0 19468
0.13450000 0.13450700 12251.42333715 0 68.52703636 0 3386.89523315 0 89.17374883 0 388.91757990 0 19953
0.13550000 0.13551000 11868.72082842 0 77.18837184 0 3308.47636949 0 59.89667737 0 817.49166373 0 19956
0.13650000 0.13649900 12045.68229270 0 101.22843847 0 3050.21808353 0 300.32480512 0 147.14384201 0 19723
0.13750000 0.13749600 11644.96508493 0 181.55850791 0 3282.36604047 0 466.00621182 0 719.84760114 0 20946
0.13850000 0.13851100 11478.65865605 0 173.92972225 0 3170.20256984 0 -207.26680158 0 1081.87275045 0 20955
0.13950000 0.13949800 11187.34779119 0 249.67713786 0 3185.39423372 0 -357.29409390 0 678.72026294 0 20506
0.14050000 0.14048300 10807.05090386 0 190.28025854 0 3134.54664724 0 218.94779606 0 659.13696694 0 21447
0.14150000 0.14148400 10911.94258744 0 105.23681885 0 3206.85808854 0 258.72622875 0 662.71354378 0 21771
0.14250000 0.14249400 10716.80165553 0 -73.42956095 0 2778.09726697 0 489.37259461 0 716.97403696 0 22470
0.14350000 0.14350900 10722.19508067 0 56.10227646 0 2665.17586084 0 329.53278361 0 939.55333272 0 22519
0.14450000 0.14449900 10601.16705996 0 119.59563244 0 2426.76669753 0 -53.80122820 0 911.30870124 0 22218
0.14550000 0.14550500 10461.89366421 0 179.54064193 0 2659.92523514 0 -319.91249494 0 960.02308372 0 23559
0.14650000 0.14650700 10179.46931857 0 142.85985871 0 2725.73380948 0 2.69520768 0 715.93489639 0 23044
0.14750000 0.14750500 10166.95789040 0 126.31489548 0 2748.57073588 0 -279.56396294 0 773.08872599 0 23649
0.14850000 0.14849900 9917.35544763 0 215.17020155 0 3403.30618459 0 -65.36754375 0 735.85322185 0 23640
0.14950000 0.14949500 10122.94270806 0 -3.98895966 0 3267.52588291 0 130.74057978 0 312.81646106 0 24457
0.15050000 0.15050000 9880.74386722 0 -115.91909599 0 3260.14425013 0 60.81707471 0 505.59900523 0 24591
0.15150000 0.15149900 10099.86412107 0 230.58375380 0 3346.14246887 0 -444.85651577 0 40.84789068 0 25020
0.15250000 0.15250500 9555.13916676 0 243.23798141 0 3209.73604656 0 -55.06434420 0 588.08655457 0 25297
0.15350000 0.15350100 9763.19795602 0 80.51065581 0 4022.41866442 0 127.61656734 0 77.93048956 0 25452
0.15450000 0.15450400 9501.00719308 0 47.38799534 0 3510.70235072 0 249.77160518 0 450.03684020 0 26061
0.15550000 0.15549900 9339.33625383 0 136.02855302 0 3697.19842400 0 30.45066319 0 592.40349160 0 26128
0.15650000 0.15649500 9263.59762588 0 31.30504325 0 3276.64307815 0 318.54271874 0 727.15453883 0 26331
0.15750000 0.15749700 9271.04516609 0 -12.38027237 0 3102.96600107 0 464.27064935 0 340.24933262 0 27345
0.15850000 0.15849900 9208.68574754 0 164.62798619 0 2798.07820450 0 339.12780776 0 1026.63023648 0 26980
0.15950000 0.15949700 8998.58382778 0 46.24307334 0 2651.69779028 0 -80.23779903 0 823.99233379 0 27777
0.16050000 0.16050000 8778.61776184 0 17.79028422 0 2561.49248024 0 -97.43952985 0 745.55369790 0 28224
0.16150000 0.16150500 8690.13702970 0 205.68282621 0 2669.20719898 0 -42.68429152 0 -19.49706710 0 28075
0.16250000 0.16249700 8588.57367161 0 145.43903635 0 2181.47020722 0 392.30741900 0 809.54871930 0 28590
0.16350000 0.16349900 8701.03372570 0 -161.83900321 0 2369.19655263 0 -27.52777827 0 -253.49757220 0 29163
0.16450000 0.16449100 8604.92970018 0 164.87843445 0 2190.35672644 0 -201.49331023 0 -29.24345866 0 28996
0.16550000 0.16550500 8315.85968813 0 250.75582289 0 2458.55605058 0 -216.87720413 0 -60.17337875 0 30777
0.16650000 0.16650700 8140.86446234 0 12.63654245 0 2313.25212448 0 115.83561324 0 432.51205310 0 29211
0.16750000 0.16749900 8207.46392590 0 19.63503333 0 2540.14945572 0 103.94019990 0 -249.24214879 0 30922
0.16850000 0.16850800 8183.78118742 0 87.09887291 0 2373.08509133 0 70.49558161 0 -52.03578770 0 30867
0.16950000 0.16949900 8186.26370082 0 60.14932254 0 2582.80255105 0 141.31872317 0 200.10705717 0 30852
0.17050000 0.17049200 8072.11202255 0 10.18763086 0 2234.29501676 0 87.39117239 0 660.60999813 0 31257
0.17150000 0.17149500 8056.38211462 0 -2.18907153 0 2410.59740669 0 283.94241357 0 292.83442507 0 32608
0.17250000 0.17250900 7944.35045886 0 256.81491312 0 2136.55428993 0 -107.80204608 0 543.69679832 0 32361
0.17350000 0.17350400 7962.83749451 0 110.55752612 0 2396.51518464 0 107.28390380 0 485.76086715 0 32508
0.17450000 0.17449800 7616.40604444 0 -12.40180214 0 2194.78350919 0 -23.07529162 0 585.83801257 0 32791
0.17550000 0.17549800 7658.18037397 0 53.50332659 0 2325.93930581 0 15.41223410 0 767.57666747 0 33633
0.17650000 0.17650100 7543.77605054 0 53.21080742 0 2155.45873935 0 198.47804506 0 377.71661124 0 33984
0.17750000 0.17750300 7614.29700651 0 -78.52563370 0 2016.88835623 0 63.70349085 0 466.20393413 0 34069
0.17850000 0.17849800 7632.57533528 0 131.44139551 0 1930.15417113 0 -87.60317464 0 226.37776096 0 34536
