### header ###
fiducial parameters:
Omega_m = 0.31
Omega_nu = 0
Omega_de = 0.69
Omega_k = 0
H_0 = 100
w_de = -1
zeff = 0
beta = 0
fgrowth = 0
b_1 = 2
gamma = 0.55
Lx = 3500 Ly = 3500 Lz = 3500
nx = 700 ny = 700 nz = 700
xoffset = -983.599254 yoffset = -42.9823471 zoffset = 800.977702
bins = 400 dk = 0.001
kx_ny = 0.628318531 ky_ny = 0.628318531 kz_ny = 0.628318531
############################
A(data) = 8.97933007 (not used)
A(ran) = 8.98338214 (used)
Ngal = 499618
weighted Ngal = 0
Nran = 25229228
weighted Nran = 0
SN(data) = 6752.5591
SN(ran) = 133.352119
SN(data+ran) = 6885.91122
############################
13 columns: k_central k_mean P_0(k) sigma^{lin}_{P_0(k)} P^img_1(k) sigma^{lin}_{P_1(k)} P_2(k) sigma^{lin}_{P_2(k)} P^img_3(k) sigma^{lin}_{P_3(k)} P_4(k) sigma^{lin}_{P_4(k)} N_modes
### header ###
0.00050000 0 0 0 0 0 0 0 0 0 0 0 0
0.00150000 0.00179520 50614.60369459 0 -50969.84477187 0 -8551.98406034 0 -35646.91524952 0 96575.92275227 0 3
0.00250000 0.00253879 63359.89341499 0 -28195.42059324 0 -4766.38179621 0 -89980.01645435 0 12862.49510985 0 6
0.00350000 0.00331552 47285.72897381 0 17381.98765272 0 -7478.95608773 0 -51592.45034578 0 -18934.10775846 0 7
0.00450000 0.00420575 46107.19418156 0 10007.12137476 0 3805.49532508 0 -21926.30532962 0 19986.64950321 0 24
0.00550000 0.00557378 48015.76366757 0 -5375.88277503 0 13900.86675596 0 6001.33335324 0 7016.73625808 0 45
0.00650000 0.00659388 53784.42180439 0 4238.91360542 0 25160.93241765 0 8034.38001574 0 -12831.62846090 0 40
0.00750000 0.00754703 57794.01048803 0 2294.77607340 0 33361.13554107 0 -3160.63500712 0 5242.77172449 0 57
0.00850000 0.00846663 48321.68401396 0 15983.54171739 0 40419.93172757 0 -1582.22881919 0 8563.04552493 0 75
0.00950000 0.00948925 51282.02632463 0 -6633.77011961 0 33277.76263518 0 31017.35728939 0 25658.97293849 0 112
0.01050000 0.01054430 59370.95572781 0 -8669.73867841 0 30054.88903981 0 13344.49815472 0 13927.88880451 0 105
0.01150000 0.01145670 59887.34048485 0 3709.94052820 0 21630.27109855 0 6665.66931838 0 10048.06087678 0 144
0.01250000 0.01249090 58212.19316620 0 980.33575534 0 32602.76065006 0 3806.68165892 0 23476.55805802 0 169
0.01350000 0.01339930 69076.59452350 0 -5304.57092983 0 28096.77913146 0 11142.86027224 0 13237.72810923 0 180
0.01450000 0.01448870 76559.61490309 0 -5847.38456851 0 24399.48184631 0 -1914.83069238 0 -9758.57345097 0 267
0.01550000 0.01550050 76463.71958446 0 7227.83777395 0 21467.91911580 0 -16022.31725860 0 14380.01381196 0 238
0.01650000 0.01653350 78520.14141741 0 -3566.99828519 0 28763.10330425 0 2701.71054924 0 -15130.58965645 0 315
0.01750000 0.01747870 80937.29661393 0 -1947.42191923 0 29415.69676130 0 1006.25055897 0 -7339.13346335 0 297
0.01850000 0.01844180 76068.05528008 0 2609.22044811 0 34019.33113015 0 -2750.73469667 0 -9269.15581961 0 388
0.01950000 0.01947590 73831.26676534 0 2308.35300511 0 26122.96128432 0 6129.57823812 0 -10902.47388587 0 399
0.02050000 0.02045430 80837.00746627 0 5154.30197692 0 42843.34813046 0 -4326.63640206 0 -29688.66338995 0 462
0.02150000 0.02154770 66196.87897558 0 6692.05426172 0 41450.72401860 0 -3962.87129645 0 -3563.60405227 0 571
0.02250000 0.02255340 59473.55163571 0 1256.14079754 0 33817.43468610 0 14147.79994759 0 -4321.57251410 0 510
0.02350000 0.02348930 66092.30584460 0 -4045.77186572 0 32371.53539722 0 17665.71916249 0 1804.10620076 0 555
0.02450000 0.02439640 62578.78045873 0 752.63984567 0 21584.46543089 0 14792.26482094 0 13058.35003898 0 592
0.02550000 0.02547300 60828.93804653 0 2784.74293339 0 16700.83430695 0 90.98499500 0 14628.37499803 0 837
0.02650000 0.02652900 61889.71822071 0 474.52364940 0 15836.34844480 0 5023.70639350 0 14282.91019034 0 723
0.02750000 0.02749970 55017.54992237 0 118.40051094 0 17332.11769320 0 -1213.48770221 0 6678.66406775 0 826
0.02850000 0.02848090 56194.10749155 0 4410.56952115 0 19737.84893424 0 -2844.42211622 0 15026.12637120 0 831
0.02950000 0.02946900 48827.52358133 0 3058.08303750 0 19562.86469302 0 -5562.34589460 0 3514.56892026 0 996
0.03050000 0.03053250 51908.03711604 0 -909.29303217 0 27111.13343374 0 5381.97921281 0 4036.36907160 0 1041
0.03150000 0.03150510 50636.90237693 0 392.23601928 0 24668.38418310 0 1352.84897455 0 6285.17470874 0 1036
0.03250000 0.03246190 47126.23297993 0 1655.83644006 0 21651.58116936 0 1397.55618495 0 9011.93008347 0 1059
0.03350000 0.03345080 49355.33229386 0 1641.71027972 0 24511.63433236 0 2064.26481778 0 11489.97276581 0 1302
0.03450000 0.03451200 48355.84603469 0 330.57741646 0 26880.45740953 0 5389.82219763 0 14478.87496519 0 1339
0.03550000 0.03553350 47165.88728695 0 -1103.79576041 0 25066.90447635 0 2117.91347026 0 12664.66295766 0 1365
0.03650000 0.03647120 48870.58310585 0 210.92356579 0 23088.36326300 0 2675.40249791 0 12632.14862282 0 1308
0.03750000 0.03744890 45903.65005163 0 1597.47540593 0 22167.08716060 0 2502.06594258 0 13299.13186996 0 1579
0.03850000 0.03847530 46899.18186467 0 530.42963155 0 20715.80543116 0 843.41855040 0 10114.47360260 0 1662
0.03950000 0.03950240 50165.88390464 0 -1971.15958058 0 18706.17787740 0 3435.49098225 0 4632.86431648 0 1683
0.04050000 0.04050350 46410.36838480 0 -96.62623209 0 16173.90436022 0 1404.55335769 0 5208.80742606 0 1822
0.04150000 0.04152450 46024.48035002 0 722.66294710 0 12674.76876443 0 -386.84149568 0 2789.05987041 0 1887
0.04250000 0.04250150 43411.58007010 0 2867.36888834 0 16153.36320949 0 -1559.15023220 0 3693.20003958 0 1920
0.04350000 0.04349210 44185.33336273 0 602.71580834 0 13576.60217336 0 3673.12024090 0 -2456.97427213 0 2005
0.04450000 0.04448520 42133.19551308 0 -703.60251675 0 11972.08565641 0 2673.19459882 0 -2136.32361391 0 2151
0.04550000 0.04548030 44564.52080824 0 -1191.67234106 0 8522.36965266 0 2231.52690447 0 741.73436201 0 2274
0.04650000 0.04648670 41912.18591274 0 1107.84906769 0 10095.60210691 0 -2611.86773010 0 -2005.98067566 0 2311
0.04750000 0.04749250 41385.69534892 0 2651.89551259 0 13237.72810923 0 -2540.58883862 0 525.09112928 0 2568
0.04850000 0.04851840 39330.26212750 0 2107.04972798 0 14344.97302543 0 -1721.84273670 0 -1781.22533607 0 2493
0.04950000 0.04949480 37954.88379459 0 837.80872918 0 17445.36863651 0 274.80654455 0 1261.35846952 0 2644
0.05050000 0.05050630 36106.50976633 0 392.88081369 0 18255.15132721 0 1650.17938518 0 4344.74996224 0 2829
0.05150000 0.05149060 37129.06362792 0 96.88546801 0 18338.96361600 0 2995.87740297 0 4240.75901362 0 2784
0.05250000 0.05249300 36346.52267723 0 1019.07944129 0 18654.66023199 0 235.29613544 0 3792.67632888 0 3055
0.05350000 0.05348950 35040.78653448 0 1733.01404701 0 18042.92938494 0 -760.99471158 0 7630.52122021 0 3009
0.05450000 0.05448610 33595.43647423 0 -220.07481321 0 19821.66122303 0 1169.94485649 0 5513.05811742 0 3336
0.05550000 0.05550870 33623.66682577 0 -740.91601136 0 18713.31784958 0 1439.06688474 0 7064.56308710 0 3349
0.05650000 0.05647670 32664.93333087 0 527.22433327 0 17364.41233659 0 2210.48046341 0 5593.04777496 0 3324
0.05750000 0.05747970 34102.37449886 0 802.05504389 0 16018.36281247 0 696.81514936 0 4284.89502625 0 3639
0.05850000 0.05849280 33780.08713932 0 -5.04340173 0 13259.80710012 0 3621.18518174 0 5415.69086606 0 3846
0.05950000 0.05951020 32863.20486596 0 -270.83891694 0 14671.76405972 0 -130.22540332 0 3573.73182819 0 3787
0.06050000 0.06049470 31981.69291631 0 663.21553874 0 11554.01282396 0 1158.98225306 0 4226.27036238 0 3930
0.06150000 0.06148310 32731.71953216 0 153.53576480 0 12045.24290980 0 543.61551248 0 3537.65849183 0 4083
0.06250000 0.06249100 32041.55883687 0 -535.34193241 0 10340.56906004 0 -517.37227012 0 2250.72793734 0 4303
0.06350000 0.06350600 31237.81766110 0 1213.32293362 0 11826.54006970 0 -486.50012888 0 -1301.72677375 0 4470
0.06450000 0.06451750 30131.89089361 0 799.16719975 0 10735.42050605 0 -518.17634084 0 264.51070467 0 4479
0.06550000 0.06550280 30860.71728438 0 310.01649351 0 12821.08327122 0 -531.55445178 0 1132.53140228 0 4636
0.06650000 0.06648880 30578.96299767 0 -736.88027939 0 10161.00425206 0 3155.13173626 0 -1146.00947284 0 4653
0.06750000 0.06749660 31728.93790121 0 -132.13781741 0 10814.72912009 0 298.46182161 0 -1787.62934189 0 5220
0.06850000 0.06852730 29500.71735308 0 1141.04444603 0 9869.14415857 0 -1645.12648179 0 -272.97212093 0 5029
0.06950000 0.06949320 29778.51719367 0 772.35385808 0 12389.71910595 0 863.90367980 0 1064.05797064 0 5040
0.07050000 0.07048030 28413.68405043 0 150.19206090 0 10882.44901005 0 216.32687705 0 -255.78565867 0 5475
0.07150000 0.07148790 27786.79449322 0 589.78257258 0 10925.36573513 0 1669.67700151 0 824.42292903 0 5509
0.07250000 0.07249820 27950.35477895 0 -32.83772066 0 10781.47881889 0 747.37164466 0 2245.25762020 0 5916
0.07350000 0.07351270 27793.71477394 0 -167.62787296 0 9243.33108947 0 1640.68871447 0 1765.55035100 0 5721
0.07450000 0.07449140 27292.81826423 0 509.99283426 0 9224.53648578 0 403.53475063 0 1241.56426972 0 6028
0.07550000 0.07549160 26771.05106662 0 1378.06955319 0 9724.60915255 0 -1518.89177369 0 3235.98917503 0 6183
0.07650000 0.07648840 25964.34405625 0 179.51977124 0 10500.02111564 0 -129.59818423 0 2342.18548866 0 6330
0.07750000 0.07749960 25685.00637550 0 232.80263746 0 9185.69503713 0 1289.28125302 0 1229.90963822 0 6583
0.07850000 0.07848650 24830.29678295 0 238.90456753 0 10878.74720909 0 801.11586293 0 3103.93264346 0 6549
0.07950000 0.07947320 24342.14237743 0 -341.98379663 0 8168.29294008 0 750.72743158 0 2693.30735122 0 6828
0.08050000 0.08048110 24893.01869239 0 334.91083035 0 8832.99139612 0 1646.36773849 0 2608.12199085 0 7147
0.08150000 0.08149960 23622.10364473 0 878.41759556 0 8437.49186033 0 -594.21155225 0 2711.58567999 0 7386
0.08250000 0.08250610 23699.10549852 0 179.17265875 0 7821.66376770 0 810.02764667 0 3642.26457652 0 7227
0.08350000 0.08350160 22994.44516743 0 450.59485649 0 8083.76665406 0 766.42218889 0 1981.62787825 0 7798
0.08450000 0.08449610 22530.78635877 0 402.17046672 0 7616.06552269 0 -1387.79089993 0 1788.11266308 0 7371
0.08550000 0.08548940 22396.55488183 0 271.05091919 0 7778.02206083 0 -90.43258084 0 1618.97221447 0 8256
0.08650000 0.08650700 20985.91607093 0 117.35038580 0 8387.36925564 0 -134.29848284 0 1166.27600925 0 8037
0.08750000 0.08749060 21154.19972288 0 351.41624911 0 8041.72869479 0 829.69113004 0 1061.02513015 0 8155
0.08850000 0.08849210 20546.86270485 0 448.77471281 0 8150.61876279 0 -109.18544316 0 1450.16130304 0 8718
0.08950000 0.08949900 20854.21104568 0 160.02435182 0 7135.72114828 0 1155.34635953 0 1086.99046282 0 8571
0.09050000 0.09049190 20209.85601806 0 143.86384864 0 7770.89307323 0 608.19601160 0 950.81801190 0 8932
0.09150000 0.09150830 19995.65685272 0 364.09354432 0 6876.96855656 0 -387.97730049 0 1849.40657809 0 9285
0.09250000 0.09250820 19561.98592721 0 181.64967986 0 7186.70054963 0 227.72117418 0 1865.43306948 0 9204
0.09350000 0.09350330 19345.26031018 0 104.84324161 0 6809.18275916 0 767.12520153 0 594.54877862 0 9349
0.09450000 0.09448040 19335.48404058 0 245.59197532 0 6699.24915676 0 -345.43844471 0 996.06017099 0 9564
0.09550000 0.09549270 18606.76749554 0 446.18235368 0 6948.81864581 0 -673.10275252 0 -64.25480654 0 10155
0.09650000 0.09649430 18184.85006269 0 373.76985431 0 7502.59488793 0 -0.11087718 0 1073.34872213 0 9913
0.09750000 0.09749140 18067.53482752 0 195.49902897 0 6884.02065216 0 782.38496976 0 -542.04801397 0 10476
0.09850000 0.09850240 17867.28606936 0 -84.65425628 0 6687.04529663 0 779.81128441 0 535.49461797 0 10575
0.09950000 0.09950330 17671.32129451 0 45.70438991 0 6280.36346595 0 1105.83889091 0 481.57354808 0 10882
0.10050000 0.10051200 17394.29037401 0 359.49430378 0 5780.56541350 0 -397.53717401 0 1254.06471332 0 10875
0.10150000 0.10150300 16780.80199534 0 561.92130268 0 5852.06399643 0 -195.31448815 0 733.16310003 0 11118
0.10250000 0.10250800 16352.62335612 0 299.90739136 0 6599.13576226 0 543.90220982 0 1328.08974795 0 11575
0.10350000 0.10349800 15937.62620400 0 236.56265665 0 5094.93036211 0 381.81715218 0 1533.61110094 0 11364
0.10450000 0.10450100 15807.12948173 0 -146.82968324 0 5844.26494990 0 816.25589932 0 2411.77275596 0 12093
0.10550000 0.10551000 15481.43690469 0 83.40948452 0 4811.37460550 0 331.78901482 0 1697.68766159 0 12067
0.10650000 0.10649700 15683.11365729 0 436.71365212 0 4693.91657089 0 804.75395337 0 2452.09712191 0 12054
0.10750000 0.10749900 15879.18827786 0 -223.40313870 0 4654.28423301 0 -436.52252055 0 1978.53022878 0 12807
0.10850000 0.10850100 15461.22529114 0 102.94565670 0 5250.64766303 0 -181.96383864 0 2341.10900054 0 12736
0.10950000 0.10950300 15277.12385468 0 7.41760725 0 4696.31120771 0 205.88274543 0 2189.13743888 0 12933
0.11050000 0.11050200 15586.33957285 0 -87.90986391 0 4411.34942580 0 102.35644423 0 1673.59849392 0 13428
0.11150000 0.11150900 15333.47471202 0 539.00199199 0 5290.74135295 0 -472.91990180 0 677.28897313 0 13453
0.11250000 0.11250000 15104.88575661 0 152.92172719 0 4975.56101187 0 -342.34958290 0 1682.73765831 0 13668
0.11350000 0.11349100 14820.49517247 0 -58.98902214 0 5298.40858461 0 299.99636640 0 742.25283384 0 13791
0.11450000 0.11448600 14787.32176328 0 228.89103116 0 4935.52224481 0 627.99460522 0 1178.13934764 0 14205
0.11550000 0.11549300 14497.76843003 0 177.51069291 0 5360.19680538 0 -98.46526924 0 153.30618723 0 14776
0.11650000 0.11649800 14582.34963891 0 310.13292998 0 5144.51472275 0 -458.52242252 0 632.34669288 0 14553
0.11750000 0.11747300 14034.98838718 0 198.60546610 0 5322.45381399 0 -157.24305804 0 356.32964842 0 14568
0.11850000 0.11849100 13685.56913337 0 -27.58522759 0 4771.33583844 0 699.56129250 0 794.20217295 0 16015
0.11950000 0.11950300 14010.60263605 0 19.42380000 0 4879.20434119 0 916.92181783 0 711.24668081 0 15270
0.12050000 0.12050700 13898.34030427 0 35.09537986 0 3891.15302207 0 131.29749761 0 422.02618012 0 15999
0.12150000 0.12150000 13848.69003620 0 323.90099325 0 4678.75786072 0 -107.47228922 0 674.45934724 0 15670
0.12250000 0.12250700 13322.52900956 0 139.02514442 0 3698.54952643 0 -3.65778578 0 730.35983710 0 16887
0.12350000 0.12352200 13059.99772486 0 -87.15687146 0 4140.16229792 0 111.87018254 0 755.72760902 0 16407
0.12450000 0.12449800 13006.17331921 0 52.52416179 0 3659.58724748 0 488.61246219 0 59.59833638 0 16306
0.12550000 0.12549900 13142.16232777 0 161.84779087 0 3295.75623444 0 -314.71020137 0 -426.91980720 0 17523
0.12650000 0.12650100 12615.23238104 0 462.98325744 0 3835.74683797 0 -559.33992813 0 -484.59430554 0 17154
0.12750000 0.12750600 12382.24959659 0 143.92426379 0 3635.38823409 0 -55.30622449 0 -286.80169781 0 18007
0.12850000 0.12850300 12299.42591933 0 -100.58089792 0 3424.07801134 0 733.27953650 0 -775.62945763 0 17496
0.12950000 0.12949900 12566.46087878 0 -110.45646805 0 3427.37338311 0 516.54403335 0 -947.94884154 0 18405
0.13050000 0.13049000 12397.07876958 0 213.36323936 0 3329.36902654 0 -567.61460665 0 -982.04275792 0 18100
0.13150000 0.13148800 12263.61621271 0 298.42557252 0 3648.62464405 0 -596.69626256 0 -1215.65166300 0 19059
0.13250000 0.13249300 11881.24324116 0 80.76066469 0 4146.61024202 0 -547.18879394 0 -778.12075869 0 18957
0.13350000 0.13349100 11858.39533019 0 31.89414587 0 4116.67728174 0 401.27632251 0 -1516.67289002 0 19468
0.13450000 0.13450700 11909.91297560 0 12.51252663 0 3863.93325121 0 549.53949247 0 -1156.06035675 0 19953
0.13550000 0.13551000 11980.10439439 0 256.93464496 0 4131.62728502 0 -78.66645592 0 -980.23909110 0 19956
0.13650000 0.13649900 11486.56754831 0 141.53182388 0 4026.20834196 0 -120.30194045 0 -1188.90422877 0 19723
0.13750000 0.13749600 11305.54179217 0 378.77991787 0 4200.35775566 0 187.03980963 0 -50.95732236 0 20946
0.13850000 0.13851100 11041.91205022 0 86.61269573 0 4052.19784068 0 324.61169509 0 71.55636178 0 20955
0.13950000 0.13949800 10854.87773288 0 -99.60403988 0 3508.40657505 0 754.77964041 0 63.12218726 0 20506
0.14050000 0.14048300 11227.00209821 0 -34.73201020 0 3415.26838413 0 494.20360964 0 -130.77682887 0 21447
0.14150000 0.14148400 10674.76369626 0 52.18188251 0 3156.14231693 0 61.84863592 0 80.71233257 0 21771
0.14250000 0.14249400 10701.06076302 0 117.26909996 0 2697.06407504 0 -155.62942433 0 619.05536005 0 22470
0.14350000 0.14350900 10658.81409687 0 57.35561620 0 2822.09048016 0 147.25258928 0 187.85486491 0 22519
0.14450000 0.14449900 10756.62073114 0 -165.73303419 0 2598.85101159 0 148.73990041 0 -89.14167387 0 22218
0.14550000 0.14550500 10657.62776303 0 159.49709234 0 2465.33353187 0 140.23344740 0 -577.01410541 0 23559
0.14650000 0.14650700 10637.65781008 0 185.47011421 0 2197.41980661 0 18.59644200 0 345.82620012 0 23044
0.14750000 0.14750500 10633.71434852 0 -35.44677634 0 2373.10706047 0 415.93084079 0 231.31972016 0 23649
0.14850000 0.14849900 10510.87387335 0 29.15316548 0 2401.04082855 0 122.94482862 0 145.00294882 0 23640
0.14950000 0.14949500 10162.05877102 0 309.75835605 0 2254.14413942 0 52.56524409 0 826.13762081 0 24457
0.15050000 0.15050000 10256.75677125 0 88.04903844 0 2224.16724084 0 57.95537386 0 447.13251921 0 24591
0.15150000 0.15149900 10073.66591546 0 -29.31628638 0 2318.06336727 0 13.75147657 0 278.32380469 0 25020
0.15250000 0.15250500 9966.52239450 0 283.42943403 0 2356.09195754 0 -311.72898837 0 417.84655025 0 25297
0.15350000 0.15350100 9544.06671760 0 187.29025788 0 2423.15277315 0 -129.99912113 0 732.44031515 0 25452
0.15450000 0.15450400 9553.93086378 0 -9.75091720 0 2524.24379462 0 -7.50802127 0 -259.89828265 0 26061
0.15550000 0.15549900 9521.20782206 0 79.22579036 0 2629.55289196 0 -408.37125794 0 -487.19655079 0 26128
0.15650000 0.15649500 9147.77629258 0 345.25719926 0 2875.50845663 0 54.77501056 0 -528.17340034 0 26331
0.15750000 0.15749700 9098.38965426 0 123.25459356 0 2752.27253684 0 3.32109764 0 131.48643226 0 27345
0.15850000 0.15849900 9054.76991654 0 -50.39326456 0 2359.23354530 0 570.12567995 0 -508.46378176 0 26980
0.15950000 0.15949700 8993.62978555 0 18.08763660 0 2532.50419320 0 368.23033436 0 -163.80634016 0 27777
0.16050000 0.16050000 9058.08725745 0 20.30684979 0 2114.24462302 0 193.51851054 0 412.22903983 0 28224
0.16150000 0.16150500 8719.67454537 0 -18.87808644 0 1937.84337194 0 -136.18233703 0 -17.59959204 0 28075
0.16250000 0.16249700 8815.17441939 0 292.10944328 0 2043.48200645 0 -137.08417044 0 95.91717793 0 28590
0.16350000 0.16349900 8304.51262466 0 220.67017704 0 2159.36924719 0 -198.52967255 0 429.10024486 0 29163
0.16450000 0.16449100 8444.68675537 0 86.36367547 0 2307.40833186 0 86.14090834 0 -173.90885157 0 28996
0.16550000 0.16550500 8357.61204851 0 -13.29924172 0 2304.78301902 0 98.97846847 0 -100.72809119 0 30777
0.16650000 0.16650700 8276.47999543 0 105.97036861 0 2184.86444015 0 129.31807763 0 -241.92971882 0 29211
0.16750000 0.16749900 8247.06331006 0 44.09229403 0 2368.41664798 0 -301.87912214 0 2.11567262 0 30922
0.16850000 0.16850800 7995.56053623 0 135.25963294 0 2413.32158069 0 -224.07649300 0 -256.05697761 0 30867
0.16950000 0.16949900 7928.96107267 0 51.16416186 0 2696.80044530 0 39.23952956 0 -131.70392679 0 30852
0.17050000 0.17049200 7978.02915839 0 109.71698662 0 2423.18572687 0 298.27618233 0 -130.07491468 0 31257
0.17150000 0.17149500 8216.36142969 0 -149.47476832 0 2340.75749422 0 335.39744691 0 -66.05880290 0 32608
0.17250000 0.17250900 8037.00532858 0 -81.03494946 0 1971.92850066 0 290.36179779 0 -36.87455108 0 32361
0.17350000 0.17350400 8126.17808880 0 114.07478626 0 2049.54549052 0 117.57337262 0 63.49566273 0 32508
0.17450000 0.17449800 8003.89782682 0 233.48368096 0 2135.12629550 0 -580.42701211 0 26.57530598 0 32791
0.17550000 0.17549800 7805.60432258 0 170.73321163 0 2247.27878155 0 -119.30014743 0 97.66734988 0 33633
0.17650000 0.17650100 7580.36566180 0 -48.89958238 0 2342.91047045 0 152.88877347 0 -241.97585402 0 33984
0.17750000 0.17750300 7576.70779913 0 175.89486229 0 2336.68221779 0 98.74120170 0 -103.37658148 0 34069
0.17850000 0.17849800 7589.23021188 0 101.32191718 0 2360.92516948 0 -116.76271117 0 -439.05226762 0 34536
