### header ###
fiducial parameters:
Omega_m = 0.31
Omega_nu = 0
Omega_de = 0.69
Omega_k = 0
H_0 = 100
w_de = -1
zeff = 0
beta = 0
fgrowth = 0
b_1 = 2
gamma = 0.55
Lx = 3500 Ly = 3500 Lz = 3500
nx = 700 ny = 700 nz = 700
xoffset = -983.599254 yoffset = -42.9823471 zoffset = 800.977702
bins = 400 dk = 0.001
kx_ny = 0.628318531 ky_ny = 0.628318531 kz_ny = 0.628318531
############################
A(data) = 9.10970783 (not used)
A(ran) = 9.10322981 (used)
Ngal = 505537
weighted Ngal = 0
Nran = 25229228
weighted Nran = 0
SN(data) = 6734.19506
SN(ran) = 135.131175
SN(data+ran) = 6869.32624
############################
13 columns: k_central k_mean P_0(k) sigma^{lin}_{P_0(k)} P^img_1(k) sigma^{lin}_{P_1(k)} P_2(k) sigma^{lin}_{P_2(k)} P^img_3(k) sigma^{lin}_{P_3(k)} P_4(k) sigma^{lin}_{P_4(k)} N_modes
### header ###
0.00050000 0 0 0 0 0 0 0 0 0 0 0 0
0.00150000 0.00179520 84273.75068979 0 -20521.59818792 0 -68852.39939712 0 71223.96861743 0 -138522.05099429 0 3
0.00250000 0.00253879 114169.25358145 0 13983.80027895 0 1594.98190796 0 -17400.11219748 0 60639.78370668 0 6
0.00350000 0.00331552 94212.48211566 0 19384.36538857 0 31543.95769894 0 -113281.70011688 0 106157.98510642 0 7
0.00450000 0.00420575 58878.62718471 0 15317.43723605 0 21351.59249216 0 9518.20903374 0 16162.26071329 0 24
0.00550000 0.00557378 49617.09465848 0 -3454.07687906 0 5511.84981444 0 35588.47732339 0 -6692.72432065 0 45
0.00650000 0.00659388 63502.69285855 0 -16298.35956757 0 -11793.80604341 0 31446.19500297 0 20998.32863795 0 40
0.00750000 0.00754703 74341.50016174 0 -6649.58790412 0 -13723.24621732 0 -4314.75109452 0 -19697.53555286 0 57
0.00850000 0.00846663 83950.03533582 0 2311.13210197 0 -34774.63034084 0 -18230.43603890 0 23444.04372318 0 75
0.00950000 0.00948925 66440.51679543 0 -34.32547117 0 -2536.34879360 0 -15621.49020511 0 8849.94059161 0 112
0.01050000 0.01054430 65244.95591568 0 6418.36265129 0 -1073.33224527 0 -11276.32282910 0 11905.62899229 0 105
0.01150000 0.01145670 75761.47585933 0 -2358.75022411 0 15496.92515203 0 -12391.69632901 0 -19692.26295803 0 144
0.01250000 0.01249090 68883.37589180 0 8795.17151272 0 20162.29281878 0 1062.66952066 0 12828.99216348 0 169
0.01350000 0.01339930 66227.30624163 0 -5272.51794704 0 27127.61029261 0 15649.28117374 0 21062.80807900 0 180
0.01450000 0.01448870 78499.71011241 0 -9545.90114122 0 15950.91753682 0 18712.10954659 0 5161.51884110 0 267
0.01550000 0.01550050 87536.93766653 0 3275.32492944 0 17149.33440544 0 -6374.58912955 0 16485.75637581 0 238
0.01650000 0.01653350 78996.98171317 0 7145.22280357 0 13619.88138933 0 -3288.63823141 0 23765.12277974 0 315
0.01750000 0.01747870 78300.99919441 0 -1479.75374158 0 16625.37029331 0 558.02617325 0 7020.71267336 0 297
0.01850000 0.01844180 81367.34263049 0 3710.06135849 0 29448.87017050 0 -3775.12298189 0 -14549.28607544 0 388
0.01950000 0.01947590 70152.53340785 0 4647.64955117 0 18190.01281180 0 -6976.56567615 0 2357.28927596 0 399
0.02050000 0.02045430 70479.43428787 0 -4921.15442388 0 23222.81443140 0 8591.40769134 0 -10113.40809906 0 462
0.02150000 0.02154770 71729.03926472 0 2473.16553212 0 19007.37485758 0 -4111.40468690 0 -23574.86998263 0 571
0.02250000 0.02255340 67531.94392711 0 3623.77754087 0 22416.10742102 0 -3883.33200639 0 -28192.56460437 0 510
0.02350000 0.02348930 64912.78244082 0 5277.48297384 0 17895.18688372 0 -14117.15299009 0 -28933.47402498 0 555
0.02450000 0.02439640 62434.88255792 0 353.89766405 0 19841.43345368 0 4997.99150908 0 -28676.76456376 0 592
0.02550000 0.02547300 56833.08007861 0 -2225.51834327 0 23038.49330348 0 10016.46924603 0 -20370.12093202 0 837
0.02650000 0.02652900 61383.87865334 0 2229.08832936 0 16098.44034659 0 5170.30649917 0 -15900.82788585 0 723
0.02750000 0.02749970 64962.43270889 0 2066.96702263 0 14953.29865498 0 -2222.42069380 0 -21337.97162216 0 826
0.02850000 0.02848090 58749.33876543 0 -46.27591722 0 8351.94400906 0 8447.45486766 0 -1520.47355214 0 831
0.02950000 0.02946900 59295.60155990 0 -2554.25364691 0 11192.62038603 0 4563.27704918 0 -5010.16241550 0 996
0.03050000 0.03053250 56279.56746624 0 2685.60716584 0 12961.35626308 0 -3419.84895089 0 3362.02616083 0 1041
0.03150000 0.03150510 56192.34995994 0 3654.56729781 0 10153.07339065 0 1865.29027004 0 5597.32077369 0 1036
0.03250000 0.03246190 52227.02910380 0 -1066.05496593 0 16742.13629985 0 -1968.17177683 0 7571.44618887 0 1059
0.03350000 0.03345080 54488.86244403 0 1904.36239471 0 11943.41592197 0 4023.72582855 0 5345.29074039 0 1302
0.03450000 0.03451200 53431.59733307 0 1309.75649631 0 15945.09571335 0 2116.36464553 0 7006.86112733 0 1339
0.03550000 0.03553350 50116.23363657 0 -679.19150111 0 14206.56741090 0 151.48274818 0 8107.36151597 0 1365
0.03650000 0.03647120 48662.86483833 0 3589.54961270 0 17776.11411694 0 -320.64736285 0 2051.80831247 0 1308
0.03750000 0.03744890 45096.83319553 0 3899.45735894 0 20309.15655419 0 -6019.33706770 0 11424.94409613 0 1579
0.03850000 0.03847530 44472.14055283 0 -1188.10235497 0 20132.63447281 0 1706.10184419 0 5368.73181828 0 1662
0.03950000 0.03950240 41835.95297903 0 -356.79319739 0 21205.93705973 0 5054.22153613 0 -1495.26395806 0 1683
0.04050000 0.04050350 43882.81823384 0 2354.99350029 0 15329.63011162 0 321.66343581 0 4999.33162694 0 1822
0.04150000 0.04152450 42202.17862889 0 -701.86146200 0 14302.57257526 0 6304.16703473 0 6727.30375514 0 1887
0.04250000 0.04250150 43503.19140543 0 -111.92510540 0 13116.23873648 0 864.49245290 0 3933.09212019 0 1920
0.04350000 0.04349210 42637.82677747 0 518.13350100 0 12942.35295252 0 539.93238529 0 3504.93545011 0 2005
0.04450000 0.04448520 41604.06865184 0 -129.31697917 0 11423.62594742 0 2071.29494423 0 5581.41511260 0 2151
0.04550000 0.04548030 42273.79804212 0 -1306.43915539 0 11708.01653155 0 27.65508947 0 891.30799148 0 2274
0.04650000 0.04648670 42497.44393988 0 1537.06025673 0 12483.30766434 0 -3609.19002848 0 1620.11461002 0 2311
0.04750000 0.04749250 40032.28616117 0 1692.12946787 0 11026.31395715 0 684.10599888 0 1202.53608334 0 2568
0.04850000 0.04851840 40632.04382411 0 298.04001402 0 13213.67189528 0 -400.06801953 0 -1252.27422799 0 2493
0.04950000 0.04949480 39846.97642173 0 1081.94854400 0 14427.13762834 0 -413.80642446 0 -1603.96728833 0 2644
0.05050000 0.05050630 37854.04541829 0 104.05993174 0 14210.96123994 0 574.71283746 0 -44.02495860 0 2829
0.05150000 0.05149060 37685.21253772 0 -186.96511454 0 13852.09525370 0 349.00293851 0 -3038.04717711 0 2784
0.05250000 0.05249300 37324.91855705 0 1595.34439885 0 13397.33394884 0 1508.64316747 0 -1928.91291443 0 3055
0.05350000 0.05348950 36792.82586121 0 1145.61402823 0 14749.75452505 0 -804.06851604 0 1237.30225556 0 3009
0.05450000 0.05448610 34853.60941770 0 -227.15656715 0 13427.54152343 0 1896.10199613 0 567.08515026 0 3336
0.05550000 0.05550870 35501.04012564 0 -30.97254023 0 14406.92601479 0 1803.79863273 0 1203.32697257 0 3349
0.05650000 0.05647670 34420.15818364 0 952.38880578 0 10467.64958024 0 1128.31332641 0 705.86533871 0 3324
0.05750000 0.05747970 33467.02682076 0 1048.74767337 0 13196.42611632 0 -2648.38044936 0 916.41872440 0 3639
0.05850000 0.05849280 33322.68953704 0 183.21717837 0 12732.87715339 0 1258.22786633 0 3200.57491303 0 3846
0.05950000 0.05951020 32370.21724851 0 -477.64766184 0 12905.55463437 0 1094.18755477 0 -228.45823900 0 3787
0.06050000 0.06049470 33186.92021993 0 102.05327002 0 10746.88839983 0 -11.97054782 0 -2280.18856101 0 3930
0.06150000 0.06148310 33285.56168171 0 1072.30518773 0 14070.24886517 0 -802.38458106 0 -822.45009980 0 4083
0.06250000 0.06249100 31254.29451997 0 -112.07010176 0 10996.21622828 0 138.69670570 0 585.18223358 0 4303
0.06350000 0.06350600 33108.05098880 0 65.64622235 0 12913.13398945 0 1821.54970202 0 -927.05398758 0 4470
0.06450000 0.06451750 32282.78005076 0 226.07238984 0 10416.14291940 0 92.51953979 0 -1644.39051543 0 4479
0.06550000 0.06550280 31792.75826791 0 337.31315637 0 13139.41618463 0 -270.03374777 0 -819.62596619 0 4636
0.06650000 0.06648880 31329.20930497 0 946.49887796 0 11792.92727760 0 59.64062698 0 -1956.78077507 0 4653
0.06750000 0.06749660 29816.08443189 0 105.37917891 0 12753.08876694 0 893.28631300 0 1603.28624483 0 5220
0.06850000 0.06852730 29821.46687246 0 163.50316596 0 11463.93932879 0 1786.95928296 0 641.18487997 0 5029
0.06950000 0.06949320 29791.03960641 0 211.13227267 0 10738.05680347 0 1467.15443683 0 229.31393721 0 5040
0.07050000 0.07048030 29418.33305872 0 1158.80649990 0 10458.36761641 0 1131.08143870 0 558.04704394 0 5475
0.07150000 0.07148790 28433.12674390 0 339.59904592 0 10084.99100979 0 53.45224833 0 2603.21188691 0 5509
0.07250000 0.07249820 27477.35908360 0 27.84731949 0 9523.28390627 0 339.32113624 0 3720.24405728 0 5916
0.07350000 0.07351270 27162.65107915 0 -238.67498996 0 8016.87060704 0 2218.19163336 0 2114.85975909 0 5721
0.07450000 0.07449140 27599.72722216 0 -134.55002955 0 8436.23961905 0 107.06003821 0 1581.35005338 0 6028
0.07550000 0.07549160 27248.33074528 0 1184.08200141 0 7213.56881417 0 -535.46605808 0 712.44839305 0 6183
0.07650000 0.07648840 26421.41212136 0 679.29805146 0 8840.09841458 0 -1749.15038414 0 2069.11999886 0 6330
0.07750000 0.07749960 25871.85395511 0 0.50976326 0 8520.64507477 0 -475.44964887 0 -1955.01225888 0 6583
0.07850000 0.07848650 24828.20971416 0 670.11055495 0 10182.80862863 0 -630.21788271 0 -746.57086932 0 6549
0.07950000 0.07947320 24388.16773655 0 617.08582619 0 9039.66612924 0 609.49328962 0 -1249.44020826 0 6828
0.08050000 0.08048110 24761.64320432 0 -191.48416770 0 10079.44380064 0 636.05837995 0 -2366.25268718 0 7147
0.08150000 0.08149960 24128.82197790 0 830.46554241 0 9756.02503013 0 -0.36926728 0 -2378.59934676 0 7386
0.08250000 0.08250610 23293.55507882 0 439.65422220 0 9349.92538180 0 -1256.32753527 0 -1475.27203596 0 7227
0.08350000 0.08350160 22500.02955554 0 703.85296501 0 10551.59368390 0 365.28866582 0 -2402.08436294 0 7798
0.08450000 0.08449610 21758.46106058 0 416.29333169 0 9861.25723546 0 -162.62440015 0 -2001.78456893 0 7371
0.08550000 0.08548940 21864.02280308 0 -494.65068174 0 8474.44396249 0 3043.37469481 0 184.68032344 0 8256
0.08650000 0.08650700 21435.95400959 0 -545.39940707 0 7912.57209038 0 2342.53699498 0 -566.70508404 0 8037
0.08750000 0.08749060 21742.97281324 0 967.26740934 0 6648.12695597 0 232.86634798 0 878.17263959 0 8155
0.08850000 0.08849210 20877.60818528 0 621.26216068 0 5438.89028335 0 230.60132911 0 1263.41258459 0 8718
0.08950000 0.08949900 20611.67168308 0 -134.63241384 0 6577.99046004 0 989.06080134 0 2819.02578441 0 8571
0.09050000 0.09049190 19949.85118506 0 -149.43961768 0 5573.36342089 0 761.21989531 0 1759.20126805 0 8932
0.09150000 0.09150830 20031.90594224 0 506.96987989 0 5078.61827183 0 176.40454646 0 2349.58909058 0 9285
0.09250000 0.09250820 19461.69677954 0 474.45115122 0 5299.04568982 0 -1283.28367639 0 1503.76601724 0 9204
0.09350000 0.09350330 18703.98096288 0 701.18041850 0 6462.57555593 0 -553.01830661 0 459.58682760 0 9349
0.09450000 0.09448040 18724.74180506 0 307.74927773 0 6805.87640281 0 -431.17962445 0 1843.81543064 0 9564
0.09550000 0.09549270 17958.67771324 0 228.00018233 0 6596.48848027 0 -328.65511626 0 -174.65909787 0 10155
0.09650000 0.09649430 17803.46570266 0 282.45180707 0 7165.55524742 0 593.66671744 0 719.33242469 0 9913
0.09750000 0.09749140 17653.52628693 0 43.61589312 0 7369.46186824 0 343.64576246 0 -34.98157969 0 10476
0.09850000 0.09850240 17469.42485047 0 142.75660372 0 7147.72728612 0 41.28353882 0 927.08803975 0 10575
0.09950000 0.09950330 17621.89071789 0 208.85956460 0 6788.22419467 0 296.77239434 0 562.15527408 0 10882
0.10050000 0.10051200 16894.16278438 0 21.31600248 0 6494.55164671 0 -45.17130860 0 268.26523158 0 10875
0.10150000 0.10150300 17419.33519949 0 11.22985809 0 7304.65289001 0 -27.53305087 0 150.36671561 0 11118
0.10250000 0.10250800 16894.27263011 0 343.81492488 0 6922.44468704 0 45.87014711 0 303.67509975 0 11575
0.10350000 0.10349800 16500.25601161 0 477.71796311 0 7367.38578402 0 -488.77723078 0 699.16035560 0 11364
0.10450000 0.10450100 16434.56826758 0 41.29276586 0 7013.86928464 0 372.36712439 0 36.98670357 0 12093
0.10550000 0.10551000 16148.20046038 0 176.54075516 0 7031.97186025 0 1315.17189059 0 928.48088355 0 12067
0.10650000 0.10649700 16051.75591312 0 -101.90662598 0 6647.08342158 0 705.08433559 0 1563.45618465 0 12054
0.10750000 0.10749900 15951.35691972 0 141.36046455 0 6386.11194619 0 753.38679661 0 2683.04776043 0 12807
0.10850000 0.10850100 15799.98950955 0 172.73569921 0 5988.89881707 0 120.29425125 0 1584.21702683 0 12736
0.10950000 0.10950300 15575.57469172 0 176.02777562 0 6233.86577021 0 -574.76666186 0 2636.02280521 0 12933
0.11050000 0.11050200 15305.90343484 0 502.65074595 0 6712.45261301 0 -459.16941384 0 1626.66141528 0 13428
0.11150000 0.11150900 14846.41876377 0 43.42498125 0 6667.25109683 0 135.56500406 0 969.40720408 0 13453
0.11250000 0.11250000 14737.67149521 0 108.42036768 0 6674.28122329 0 205.32143378 0 1327.93596393 0 13668
0.11350000 0.11349100 14986.47206418 0 -47.49157986 0 6248.83774264 0 591.28636057 0 122.37802467 0 13791
0.11450000 0.11448600 14695.16119932 0 -53.85428369 0 5689.26164620 0 49.85732726 0 1117.93290532 0 14205
0.11550000 0.11549300 14691.97567327 0 320.01574993 0 5597.73818745 0 626.25025509 0 352.68936107 0 14776
0.11650000 0.11649800 14275.98990962 0 179.38795637 0 5850.95455460 0 -376.18206645 0 514.26473454 0 14553
0.11750000 0.11747300 14159.77313171 0 288.55263868 0 5445.71170293 0 -106.80541581 0 338.55880690 0 14568
0.11850000 0.11849100 13961.39175089 0 44.42139183 0 5813.74980726 0 9.22522851 0 93.85998718 0 16015
0.11950000 0.11950300 13480.81670045 0 167.42685528 0 5354.67156537 0 7.60962856 0 -50.15918332 0 15270
0.12050000 0.12050700 13617.90416627 0 122.85475512 0 5498.58045076 0 584.50558391 0 -74.78560643 0 15999
0.12150000 0.12150000 13387.99706214 0 -87.11029687 0 4812.94539938 0 584.85269641 0 320.73743635 0 15670
0.12250000 0.12250700 13680.62607571 0 -235.78275200 0 4408.24079176 0 837.53081949 0 15.68805671 0 16887
0.12350000 0.12352200 13644.59667764 0 69.49807257 0 3834.34081268 0 -35.92910892 0 -298.46841235 0 16407
0.12450000 0.12449800 13560.78438885 0 497.06618925 0 3933.41067279 0 -340.38773824 0 -326.55376753 0 16306
0.12550000 0.12549900 13088.77730503 0 226.75233488 0 3850.16958177 0 103.35571080 0 403.97962582 0 17523
0.12650000 0.12650100 12883.14610630 0 -189.19827814 0 3912.53998489 0 103.00980660 0 -29.50796717 0 17154
0.12750000 0.12750600 12741.55496573 0 214.09920573 0 3671.92292249 0 320.84618361 0 -747.71326487 0 18007
0.12850000 0.12850300 12840.41611896 0 198.26494435 0 3797.03720419 0 3.22028124 0 -318.29446740 0 17496
0.12950000 0.12949900 12538.34037297 0 -19.81012742 0 3651.22798775 0 -74.87985406 0 271.03883616 0 18405
0.13050000 0.13049000 12343.36420966 0 135.77371093 0 3718.08009648 0 403.92470296 0 441.29202197 0 18100
0.13150000 0.13148800 12607.21364306 0 58.84358640 0 3326.77666741 0 70.66836894 0 -314.57728804 0 19059
0.13250000 0.13249300 12276.35831691 0 181.47832053 0 3447.11266004 0 380.19143544 0 745.79206312 0 18957
0.13350000 0.13349100 12196.93985715 0 -70.66243727 0 3383.09457104 0 216.89587790 0 856.44405656 0 19468
0.13450000 0.13450700 11961.43062100 0 414.34576697 0 3568.74483223 0 -209.36705186 0 596.41945133 0 19953
0.13550000 0.13551000 11782.38208793 0 306.65191892 0 3763.10585949 0 -553.11057702 0 560.96454641 0 19956
0.13650000 0.13649900 11351.12776838 0 -0.82710426 0 3928.43466141 0 289.73348023 0 826.65389572 0 19723
0.13750000 0.13749600 11412.97091202 0 -300.02712320 0 3447.28841320 0 594.35984397 0 761.47144203 0 20946
0.13850000 0.13851100 11647.82107380 0 60.93933300 0 3340.06800024 0 177.29649375 0 -95.90300784 0 20955
0.13950000 0.13949800 11574.77366614 0 369.85714956 0 2869.09346624 0 -137.26541589 0 266.72409605 0 20506
0.14050000 0.14048300 11115.39884079 0 247.56041072 0 3414.96081610 0 -265.02038884 0 360.45655234 0 21447
0.14150000 0.14148400 10964.56967467 0 167.14894560 0 3415.99336592 0 -103.15040913 0 -93.63062931 0 21771
0.14250000 0.14249400 10926.36533123 0 110.70801476 0 3305.78514921 0 399.45178501 0 -617.42195411 0 22470
0.14350000 0.14350900 10626.90391352 0 24.81392977 0 3150.58412321 0 55.21450331 0 185.44045586 0 22519
0.14450000 0.14449900 10302.35373203 0 196.08560515 0 2987.36435922 0 -211.78695320 0 -349.29293123 0 22218
0.14550000 0.14550500 10263.32554565 0 43.11192093 0 2978.48882458 0 403.78410043 0 407.03882929 0 23559
0.14650000 0.14650700 10236.56712684 0 -54.60343154 0 2897.73024696 0 369.89010328 0 -244.74286786 0 23044
0.14750000 0.14750500 10351.78430865 0 145.90148685 0 2730.41323740 0 -332.85451836 0 -390.49057069 0 23649
0.14850000 0.14849900 9971.89385050 0 276.66623269 0 2864.71062178 0 -211.41787156 0 -177.12074059 0 23640
0.14950000 0.14949500 9954.06588920 0 54.30421178 0 3108.44730279 0 -136.14059566 0 -328.71003912 0 24457
0.15050000 0.15050000 10084.23307429 0 -106.88670165 0 3057.63267002 0 140.99577674 0 -324.70176859 0 24591
0.15150000 0.15149900 9916.36683610 0 183.85977587 0 3079.53590775 0 -8.76326133 0 -904.35217142 0 25020
0.15250000 0.15250500 9704.65018417 0 88.12801752 0 2856.36234662 0 106.53903993 0 -333.97604322 0 25297
0.15350000 0.15350100 9605.43752461 0 143.50794849 0 3249.31346157 0 149.97236945 0 -61.29896791 0 25452
0.15450000 0.15450400 9408.02278618 0 86.60072255 0 2719.43964939 0 253.05599239 0 390.52022904 0 26061
0.15550000 0.15549900 9542.46297000 0 -20.17492508 0 2602.43198225 0 444.39736064 0 -104.16000120 0 26128
0.15650000 0.15649500 9439.30684889 0 165.23103923 0 2554.34152349 0 108.45310170 0 -106.01057214 0 26331
0.15750000 0.15749700 9078.17804071 0 182.15057637 0 2507.98662720 0 -315.64169312 0 412.06866507 0 27345
0.15850000 0.15849900 8988.32423699 0 37.40115149 0 2359.04680757 0 119.01674546 0 149.93172653 0 26980
0.15950000 0.15949700 8919.68164293 0 40.64709269 0 2492.61921016 0 11.38353226 0 -274.60662533 0 27777
0.16050000 0.16050000 8913.69505087 0 89.73857555 0 2257.12095859 0 46.57931111 0 -484.04837228 0 28224
0.16150000 0.16150500 8963.72977898 0 -73.13297749 0 2324.66509539 0 99.11852177 0 -258.47358358 0 28075
0.16250000 0.16249700 8896.71290166 0 -22.96907080 0 2258.64781418 0 -12.67894290 0 -470.76253175 0 28590
0.16350000 0.16349900 8739.08428512 0 269.57129726 0 2391.69295728 0 -31.13599067 0 -312.01568572 0 29163
0.16450000 0.16449100 8776.01441814 0 166.14385721 0 2300.52100486 0 4.94499095 0 -213.74769940 0 28996
0.16550000 0.16550500 8622.41713973 0 8.91417837 0 2581.11092687 0 211.19708165 0 45.37023921 0 30777
0.16650000 0.16650700 8453.58425916 0 -35.84650493 0 2520.43214793 0 74.83822253 0 167.63336525 0 29211
0.16750000 0.16749900 8452.56269391 0 134.56430949 0 2337.86855163 0 28.50254924 0 220.66688167 0 30922
0.16850000 0.16850800 8252.37984319 0 242.42402458 0 2533.60265046 0 49.55525151 0 611.79236066 0 30867
0.16950000 0.16949900 8174.57611559 0 -21.11179927 0 2522.96958420 0 243.05673596 0 811.07996872 0 30852
0.17050000 0.17049200 8070.09086120 0 114.86128165 0 2270.13767710 0 412.96720311 0 907.70795834 0 31257
0.17150000 0.17149500 8038.15870870 0 151.50471733 0 2294.92985741 0 -126.40167361 0 887.98955210 0 32608
0.17250000 0.17250900 7759.65585548 0 86.31512366 0 2104.72099859 0 107.38880646 0 1009.51627240 0 32361
0.17350000 0.17350400 7966.46240347 0 -86.00645717 0 2163.26877045 0 172.63464115 0 697.87186524 0 32508
0.17450000 0.17449800 7745.90317061 0 35.98710746 0 2119.14374239 0 -109.08427524 0 1021.74759397 0 32791
0.17550000 0.17549800 7725.06543642 0 0.32065725 0 1778.84168382 0 242.86340749 0 929.65952819 0 33633
0.17650000 0.17650100 7745.88120146 0 -7.61040847 0 1991.60187015 0 -24.04303247 0 563.08786429 0 33984
0.17750000 0.17750300 7749.50611041 0 238.60688561 0 1851.19706342 0 9.19457057 0 768.22036342 0 34069
0.17850000 0.17849800 7733.87506363 0 85.54389682 0 1916.57723942 0 -72.11437807 0 601.51848993 0 34536
