### header ###
fiducial parameters:
Omega_m = 0.31
Omega_nu = 0
Omega_de = 0.69
Omega_k = 0
H_0 = 100
w_de = -1
zeff = 0
beta = 0
fgrowth = 0
b_1 = 2
gamma = 0.55
Lx = 3500 Ly = 3500 Lz = 3500
nx = 700 ny = 700 nz = 700
xoffset = -983.599254 yoffset = -42.9823471 zoffset = 800.977702
bins = 400 dk = 0.001
kx_ny = 0.628318531 ky_ny = 0.628318531 kz_ny = 0.628318531
############################
A(data) = 9.06798817 (not used)
A(ran) = 9.0559524 (used)
Ngal = 502461
weighted Ngal = 0
Nran = 25229228
weighted Nran = 0
SN(data) = 6751.58298
SN(ran) = 134.429374
SN(data+ran) = 6886.01236
############################
13 columns: k_central k_mean P_0(k) sigma^{lin}_{P_0(k)} P^img_1(k) sigma^{lin}_{P_1(k)} P_2(k) sigma^{lin}_{P_2(k)} P^img_3(k) sigma^{lin}_{P_3(k)} P_4(k) sigma^{lin}_{P_4(k)} N_modes
### header ###
0.00050000 0 0 0 0 0 0 0 0 0 0 0 0
0.00150000 0.00179520 2922.55538099 0 -6414.88054178 0 -6817.11362056 0 -447.06331640 0 -42895.74454168 0 3
0.00250000 0.00253879 8412.54589599 0 -7357.99397447 0 -15294.36963363 0 15251.31010911 0 -7673.37203785 0 6
0.00350000 0.00331552 35237.30053797 0 -19151.71214130 0 -20780.50456366 0 15148.27481830 0 2741.09024195 0 7
0.00450000 0.00420575 56147.64274954 0 -22356.46119190 0 -28751.67934876 0 -16739.17046526 0 16794.31301962 0 24
0.00550000 0.00557378 61507.89447778 0 -1808.09360061 0 -11968.90013036 0 -33170.00397816 0 3159.58048815 0 45
0.00650000 0.00659388 74130.92590536 0 13093.50067124 0 -25669.40828244 0 -31048.11409262 0 11514.35851694 0 40
0.00750000 0.00754703 55574.46775224 0 1642.39132322 0 15383.67420872 0 -9970.90523896 0 -25654.90864663 0 57
0.00850000 0.00846663 59395.89070756 0 -1888.81922451 0 21571.06425234 0 -3044.42921378 0 -1972.17016125 0 75
0.00950000 0.00948925 68281.42131434 0 -1144.50458640 0 21681.45920678 0 7637.81497640 0 -11810.83213091 0 112
0.01050000 0.01054430 66005.30802976 0 -1138.77063951 0 28263.74463470 0 -12563.93442709 0 -19372.06266728 0 105
0.01150000 0.01145670 63960.52984374 0 9706.96792898 0 40123.12857642 0 9780.75130301 0 5546.00085059 0 144
0.01250000 0.01249090 61276.55937922 0 3249.25853871 0 46498.79419408 0 -8632.38014706 0 11536.32766210 0 169
0.01350000 0.01339930 59793.75192646 0 4494.12916478 0 40713.10996976 0 32739.73827015 0 17942.20085437 0 180
0.01450000 0.01448870 63731.17196824 0 502.95392015 0 38476.10176357 0 18148.49112744 0 20991.40835722 0 267
0.01550000 0.01550050 63285.63770434 0 -8193.82108675 0 25511.99935735 0 7831.31920700 0 35682.28557324 0 238
0.01650000 0.01653350 64871.37060219 0 -2798.72629428 0 20440.64188799 0 13942.82782322 0 19466.85952866 0 315
0.01750000 0.01747870 65432.79210682 0 -4451.86052948 0 16533.09988363 0 -7729.58009575 0 9440.39432158 0 297
0.01850000 0.01844180 73499.53267338 0 4394.30136916 0 16066.69493183 0 -7857.26476743 0 -158.84241181 0 388
0.01950000 0.01947590 68764.96219937 0 6322.43437893 0 34041.08058386 0 -14244.57403203 0 167.10061348 0 399
0.02050000 0.02045430 61930.47098498 0 -918.35530455 0 30361.46846056 0 -5639.22691809 0 -18428.48788254 0 462
0.02150000 0.02154770 65122.25823994 0 920.10954079 0 36441.53923006 0 3324.81042892 0 -20596.29328147 0 571
0.02250000 0.02255340 69036.83037076 0 -659.74001998 0 33585.77005036 0 15091.37473233 0 -11762.28032010 0 510
0.02350000 0.02348930 68569.76634460 0 -2329.15778558 0 27085.20984245 0 7802.50667312 0 -1836.57659731 0 555
0.02450000 0.02439640 71685.10097439 0 -3282.36604047 0 18322.81629431 0 12175.62978634 0 8459.92235754 0 592
0.02550000 0.02547300 75261.45811543 0 -1487.25620465 0 12808.56085848 0 3667.88059978 0 -3573.64395161 0 837
0.02650000 0.02652900 75761.91524223 0 6056.87135221 0 23585.96440093 0 -10282.43870194 0 2558.79027539 0 723
0.02750000 0.02749970 68429.49335274 0 3421.83715853 0 19731.47788214 0 784.14250138 0 7029.22571711 0 826
0.02850000 0.02848090 61836.44304369 0 -340.28558171 0 23456.89567310 0 -3980.80910348 0 10569.05915431 0 831
0.02950000 0.02946900 61522.94334222 0 2947.76497507 0 26642.20203024 0 1590.51118692 0 -3562.97793163 0 996
0.03050000 0.03053250 59442.46529531 0 3437.32540587 0 23693.39352078 0 5748.17190895 0 1001.83146542 0 1041
0.03150000 0.03150510 59976.53521421 0 -1432.35531089 0 26559.37835298 0 5512.50888879 0 7778.19781399 0 1036
0.03250000 0.03246190 56329.87680866 0 2712.02506290 0 20801.70478874 0 1742.15321140 0 3311.07971319 0 1059
0.03350000 0.03345080 58624.11463800 0 -953.80471718 0 21695.08007678 0 538.09686321 0 11326.85186298 0 1302
0.03450000 0.03451200 54550.26620476 0 1034.23156071 0 16768.27958260 0 6980.86064403 0 5338.54621282 0 1339
0.03550000 0.03553350 57125.26970928 0 -563.95015324 0 15086.10213749 0 992.12769400 0 1332.05517865 0 1365
0.03650000 0.03647120 54572.56488710 0 2696.53681556 0 17577.07366176 0 -5644.38966721 0 -743.52374889 0 1308
0.03750000 0.03744890 52256.46775832 0 5221.47263825 0 21979.80019809 0 -3640.57295234 0 2356.95973878 0 1579
0.03850000 0.03847530 44660.41612687 0 1281.40531448 0 22707.30844015 0 -2224.65056204 0 3827.84893028 0 1662
0.03950000 0.03950240 44869.12300592 0 -57.84838412 0 23817.40934522 0 6419.80163030 0 -3877.38935263 0 1683
0.04050000 0.04050350 43006.79857047 0 -87.97719934 0 17044.32189157 0 5572.42973223 0 1943.84094857 0 1822
0.04150000 0.04152450 44578.91059832 0 -177.67326459 0 13749.38950007 0 7782.80034991 0 5226.39372677 0 1887
0.04250000 0.04250150 46442.00395384 0 -2397.20721272 0 8632.86346826 0 2695.58115774 0 2377.10544489 0 1920
0.04350000 0.04349210 45560.60184991 0 1467.87941862 0 8671.81476263 0 -2228.02282582 0 -1324.49779271 0 2005
0.04450000 0.04448520 43803.39977407 0 3053.89791535 0 13448.74174852 0 -8417.69766053 0 -2778.05332868 0 2151
0.04550000 0.04548030 41559.03190425 0 2166.05885189 0 13038.57780833 0 -5023.00338085 0 -4981.84418739 0 2274
0.04650000 0.04648670 38671.18777262 0 -747.90439643 0 14643.31401674 0 4138.37181259 0 -4523.20532840 0 2311
0.04750000 0.04749250 39414.18426202 0 -190.07814240 0 15741.44173769 0 4680.74606836 0 -6013.99856542 0 2568
0.04850000 0.04851840 39131.11182660 0 1947.71850269 0 13576.16279046 0 2811.42446019 0 -2089.19979754 0 2493
0.04950000 0.04949480 37511.87598238 0 19.05757435 0 12783.73572444 0 914.00321689 0 1742.51570230 0 2644
0.05050000 0.05050630 37999.04177637 0 542.50387373 0 14226.99871590 0 -1184.92781349 0 503.51193644 0 2829
0.05150000 0.05149060 36937.60252783 0 1020.13615717 0 13501.90707981 0 1560.98465582 0 4516.95510660 0 2784
0.05250000 0.05249300 36932.98900735 0 -210.22494698 0 13753.23410047 0 -1245.85923760 0 2673.84268861 0 3055
0.05350000 0.05348950 35910.98437438 0 254.73223816 0 15868.97262536 0 -659.33908308 0 4622.42897253 0 3009
0.05450000 0.05448610 36663.09805902 0 1049.73738336 0 17336.29183078 0 1528.51425927 0 2447.72526202 0 3336
0.05550000 0.05550870 35698.43289493 0 1.32506899 0 16075.48258989 0 -288.49661736 0 3694.38637342 0 3349
0.05650000 0.05647670 34727.61637019 0 -166.42396381 0 17090.67678786 0 1262.19329703 0 3874.44548717 0 3324
0.05750000 0.05747970 35353.29762442 0 627.84411657 0 16639.43054622 0 1262.96221711 0 4862.65059031 0 3639
0.05850000 0.05849280 35088.13004231 0 375.82836321 0 15456.94130784 0 3277.18132221 0 7060.36698038 0 3846
0.05950000 0.05951020 35451.49970330 0 -362.54471959 0 15498.68268365 0 647.03526333 0 3230.18932071 0 3787
0.06050000 0.06049470 33549.85049802 0 1093.11106666 0 14157.24668001 0 -628.31645320 0 6695.95378499 0 3930
0.06150000 0.06148310 33988.24478974 0 679.01355103 0 15048.42505354 0 -170.76836226 0 4098.48682954 0 4083
0.06250000 0.06249100 33889.60332796 0 147.65023081 0 15428.27157340 0 1538.44431288 0 3662.21256033 0 4303
0.06350000 0.06350600 31415.65789119 0 228.47910969 0 12981.67772236 0 -713.95657487 0 1209.20371890 0 4470
0.06450000 0.06451750 32518.39913263 0 955.86652146 0 13893.17755516 0 1681.27671016 0 3337.81616286 0 4479
0.06550000 0.06550280 31647.76190983 0 -242.02089077 0 11568.62230549 0 775.80301387 0 1876.98883984 0 4636
0.06650000 0.06648880 31485.73946426 0 87.99422542 0 11112.54285192 0 2271.07136577 0 352.48724493 0 4653
0.06750000 0.06749660 30815.57069107 0 1025.83934726 0 10458.99373704 0 204.61622422 0 2032.22281956 0 5220
0.06850000 0.06852730 29736.88566358 0 -146.29253764 0 10020.10513956 0 282.21563876 0 2288.32812929 0 5029
0.06950000 0.06949320 29378.67875171 0 -226.24704454 0 9699.47645048 0 65.47618117 0 -380.39355158 0 5040
0.07050000 0.07048030 29492.58876937 0 922.90840988 0 9212.44247137 0 -206.35727897 0 -519.09135573 0 5475
0.07150000 0.07148790 28928.86050450 0 499.87823983 0 9336.11777406 0 -83.27294628 0 1785.76196455 0 5509
0.07250000 0.07249820 27876.09906830 0 79.14098946 0 10526.93331846 0 -158.08447630 0 -361.87575912 0 5916
0.07350000 0.07351270 28325.25824115 0 867.05735059 0 10218.44258208 0 -93.34503042 0 -1675.42193297 0 5721
0.07450000 0.07449140 26797.63373227 0 1367.44747151 0 12174.09194618 0 -1813.57490232 0 -911.38229787 0 6028
0.07550000 0.07549160 26204.02742997 0 -34.91655102 0 11416.26628379 0 1342.98482837 0 1237.60982359 0 6183
0.07650000 0.07648840 26454.91506773 0 -1427.08271605 0 10287.81015794 0 2579.36437983 0 617.53729212 0 6330
0.07750000 0.07749960 26843.65909138 0 480.07635084 0 8179.73886471 0 2398.34960827 0 1183.88427910 0 6583
0.07850000 0.07848650 26289.48740465 0 760.45536906 0 8934.11537130 0 797.81170350 0 4168.74415577 0 6549
0.07950000 0.07947320 25731.58096325 0 266.17816279 0 7510.89922480 0 -275.18880768 0 4050.01191074 0 6828
0.08050000 0.08048110 24913.77953457 0 421.04525779 0 8323.37313578 0 685.90856724 0 3568.73384766 0 7147
0.08150000 0.08149960 24202.63830565 0 923.69600374 0 8803.04745126 0 -1012.56009746 0 2007.65033069 0 7386
0.08250000 0.08250610 22915.90547347 0 824.99852064 0 9157.79422278 0 -151.62005534 0 3626.56762230 0 7227
0.08350000 0.08350160 22479.04902191 0 295.72226921 0 8883.09203166 0 114.27909931 0 1669.02891173 0 7798
0.08450000 0.08449610 21548.21634137 0 301.22554007 0 9079.49618942 0 246.51138404 0 1272.41993411 0 7371
0.08550000 0.08548940 21816.67929526 0 59.15368088 0 8702.05529095 0 1266.82878666 0 1811.82835528 0 8256
0.08650000 0.08650700 22023.73848842 0 -383.88005491 0 7569.91933328 0 655.51864874 0 1456.89484604 0 8037
0.08750000 0.08749060 21788.77848090 0 -33.06828684 0 6478.51417074 0 537.27192181 0 1224.19766047 0 8155
0.08850000 0.08849210 21753.73769437 0 603.36060275 0 7267.22845123 0 -487.71612107 0 448.61104268 0 8718
0.08950000 0.08949900 20732.83151866 0 197.14891178 0 6543.89434675 0 -1032.43009081 0 973.22544151 0 8571
0.09050000 0.09049190 21050.94474061 0 426.40133538 0 7695.70367391 0 44.57188047 0 -1102.01625965 0 8932
0.09150000 0.09150830 20248.08233064 0 349.67848973 0 7606.41008339 0 -34.50045541 0 -578.14331947 0 9285
0.09250000 0.09250820 20535.54859510 0 253.60522101 0 7469.48738617 0 534.71251640 0 -1631.13213632 0 9204
0.09350000 0.09350330 19588.56859286 0 200.36849000 0 7170.73996567 0 135.37936478 0 -948.54420537 0 9349
0.09450000 0.09448040 19413.14496873 0 206.92078754 0 7117.35494293 0 360.35659273 0 -1318.08280233 0 9564
0.09550000 0.09549270 18615.22561642 0 388.24861943 0 7196.81734098 0 402.33743222 0 -956.10818205 0 10155
0.09650000 0.09649430 18419.37068730 0 616.69367695 0 6897.89416733 0 -187.15075381 0 -390.18190420 0 9913
0.09750000 0.09749140 17890.68320896 0 157.94497223 0 7074.02080409 0 28.63853825 0 -847.33894435 0 10476
0.09850000 0.09850240 17290.37631739 0 210.51933352 0 6517.84992516 0 343.66992852 0 -401.79259742 0 10575
0.09950000 0.09950330 17453.82675740 0 190.23082796 0 6919.11636155 0 266.98113505 0 -2167.70653777 0 10882
0.10050000 0.10051200 16943.59336100 0 175.47854699 0 6282.52742675 0 340.51406082 0 -1026.11506003 0 10875
0.10150000 0.10150300 17001.70174995 0 304.17489781 0 6246.17947607 0 427.46134663 0 -791.58345084 0 11118
0.10250000 0.10250800 16446.76114314 0 55.84161256 0 5637.89778481 0 351.45030128 0 37.39071615 0 11575
0.10350000 0.10349800 16042.96825505 0 259.98725768 0 5615.20365786 0 479.74791212 0 -402.63511414 0 11364
0.10450000 0.10450100 15848.65116609 0 53.60449451 0 5101.38929079 0 815.24531864 0 -157.52536156 0 12093
0.10550000 0.10551000 15883.58210690 0 2.95002780 0 4721.59769379 0 705.31720853 0 226.50957583 0 12067
0.10650000 0.10649700 15848.87085754 0 14.23754391 0 3976.04179898 0 -382.85299738 0 390.85416005 0 12054
0.10750000 0.10749900 15413.00301751 0 225.44187537 0 4086.72235231 0 38.99523266 0 411.83469368 0 12807
0.10850000 0.10850100 15404.21535945 0 146.46060160 0 4096.80618994 0 624.19943539 0 792.00855380 0 12736
0.10950000 0.10950300 15160.13815669 0 125.62506433 0 3973.64716216 0 144.88102006 0 270.55990879 0 12933
0.11050000 0.11050200 15196.93647484 0 229.72366177 0 3892.31738676 0 -211.43764379 0 439.20824855 0 13428
0.11150000 0.11150900 14806.76445675 0 222.25744778 0 4580.94024189 0 -327.23371257 0 83.90620689 0 13453
0.11250000 0.11250000 14623.43194036 0 55.46835678 0 4622.85737086 0 -524.28266473 0 -357.59507118 0 13668
0.11350000 0.11349100 14589.05022819 0 283.45360009 0 5074.80662515 0 181.10814043 0 -422.84782615 0 13791
0.11450000 0.11448600 14841.47570610 0 -116.29916220 0 4625.47169913 0 -293.03654121 0 -615.06576329 0 14205
0.11550000 0.11549300 14599.70526359 0 -27.79316555 0 5211.85015267 0 -99.76100942 0 -819.79293169 0 14776
0.11650000 0.11649800 14670.55575674 0 140.72995008 0 4919.45181513 0 202.73786230 0 -1185.23538153 0 14553
0.11750000 0.11747300 14234.02884236 0 214.23651288 0 4810.32008653 0 58.71484721 0 -474.95863847 0 14568
0.11850000 0.11849100 14484.91648011 0 67.41946190 0 4632.83136276 0 317.26411450 0 -937.47615004 0 16015
0.11950000 0.11950300 14182.84073413 0 245.88416495 0 4658.88676893 0 731.48026351 0 -656.13598172 0 15270
0.12050000 0.12050700 13820.34983894 0 66.64669722 0 4164.25146559 0 215.94131855 0 162.96162653 0 15999
0.12150000 0.12150000 13518.16424723 0 212.64814369 0 4458.52816504 0 -340.80625045 0 -324.18219831 0 15670
0.12250000 0.12250700 13399.09148045 0 344.48388535 0 3890.42804028 0 18.85304161 0 -897.32534034 0 16887
0.12350000 0.12352200 12746.93740629 0 240.66100068 0 4273.61387021 0 -570.20586733 0 -564.86516814 0 16407
0.12450000 0.12449800 12606.44472298 0 127.66709637 0 4055.49321246 0 646.05653791 0 -1047.59099788 0 16306
0.12550000 0.12549900 12866.99878461 0 -190.02321954 0 3660.94933448 0 1016.60132172 0 -284.61686633 0 17523
0.12650000 0.12650100 12867.54801324 0 -111.57909137 0 3157.44948107 0 339.50348014 0 -882.17212246 0 17154
0.12750000 0.12750600 12606.44472298 0 201.22638512 0 3046.19772997 0 0.48041577 0 -362.26900682 0 18007
0.12850000 0.12850300 12567.66918177 0 154.05203971 0 2979.02706863 0 -564.43237598 0 -517.24484908 0 17496
0.12950000 0.12949900 12493.19377966 0 181.63210455 0 3095.55141458 0 -143.25420486 0 -705.02611736 0 18405
0.13050000 0.13049000 12412.78670837 0 -8.34418890 0 3259.17760775 0 528.70065983 0 -592.69238586 0 18100
0.13150000 0.13148800 12528.56410338 0 -271.85718682 0 2917.75512277 0 542.66095312 0 -508.71642693 0 19059
0.13250000 0.13249300 12508.46233555 0 167.25329904 0 2904.48575910 0 -466.78062419 0 -624.75305785 0 18957
0.13350000 0.13349100 12329.85318538 0 401.75964371 0 3004.22567813 0 -475.27938799 0 -464.35962439 0 19468
0.13450000 0.13450700 11792.70758615 0 244.03655984 0 3758.43741614 0 -117.43716392 0 -540.93198140 0 19953
0.13550000 0.13551000 11801.60508994 0 111.69552784 0 3920.72349146 0 -7.18411918 0 -306.68597110 0 19956
0.13650000 0.13649900 11818.96071462 0 9.10356339 0 3898.46874741 0 291.62392518 0 -66.06187858 0 19723
0.13750000 0.13749600 11819.29025180 0 18.23054588 0 3714.10368120 0 433.63907025 0 253.33060670 0 20946
0.13850000 0.13851100 11876.19033777 0 51.56784490 0 3856.82623275 0 232.16003996 0 34.51209906 0 20955
0.13950000 0.13949800 11602.23509759 0 143.82759955 0 3981.53408527 0 -140.05549733 0 1214.20169942 0 20506
0.14050000 0.14048300 11511.61237380 0 117.89192523 0 3926.11691660 0 -48.34387285 0 732.48754881 0 21447
0.14150000 0.14148400 11412.64137484 0 157.23097501 0 4065.65394210 0 196.01969771 0 1301.21049884 0 21771
0.14250000 0.14249400 11228.64978410 0 63.24191911 0 4120.09348381 0 -78.13502230 0 946.02434442 0 22470
0.14350000 0.14350900 11051.57847409 0 206.80215416 0 4133.05527946 0 4.71609442 0 1130.99356212 0 22519
0.14450000 0.14449900 10928.40846173 0 106.42469053 0 3918.25196263 0 130.47695004 0 340.20319742 0 22218
0.14550000 0.14550500 10902.47388587 0 -136.58986468 0 3921.55831898 0 245.22948442 0 722.88154009 0 23559
0.14650000 0.14650700 11074.53623078 0 177.66777230 0 3697.47303832 0 212.67121129 0 165.92526421 0 23044
0.14750000 0.14750500 10833.94113754 0 105.95103576 0 3289.51699722 0 -99.84767770 0 282.91755295 0 23649
0.14850000 0.14849900 10700.28085837 0 -12.80449657 0 2793.69536004 0 512.26005004 0 147.55796040 0 23640
0.14950000 0.14949500 10623.14718970 0 -143.99456505 0 2659.35403737 0 586.73545215 0 325.31690465 0 24457
0.15050000 0.15050000 10296.72963087 0 322.13467398 0 2447.02224937 0 -95.06477510 0 261.52729476 0 24591
0.15150000 0.15149900 10199.86766985 0 371.79922199 0 2232.65831545 0 256.01853161 0 683.39200166 0 25020
0.15250000 0.15250500 10018.43548452 0 -72.53816288 0 2162.56575781 0 187.13537541 0 370.30422166 0 25297
0.15350000 0.15350100 9784.32128910 0 190.48017776 0 2239.43579673 0 407.55180883 0 673.94856461 0 25452
0.15450000 0.15450400 9509.99257345 0 216.62016513 0 2087.89263340 0 -243.80039153 0 892.69753991 0 26061
0.15550000 0.15549900 9351.95752772 0 105.70904563 0 2092.14366299 0 -174.20433657 0 988.78948240 0 26128
0.15650000 0.15649500 9125.36776452 0 17.02762534 0 1922.04755657 0 293.33642004 0 888.23011424 0 26331
0.15750000 0.15749700 9210.44327916 0 -25.54879768 0 2107.13760456 0 417.60269274 0 1075.85759851 0 27345
0.15850000 0.15849900 9291.92683857 0 213.62027836 0 1919.37830543 0 -272.46133831 0 581.97144302 0 26980
0.15950000 0.15949700 8996.52971271 0 85.09836255 0 2109.24664250 0 -215.28993339 0 863.42255553 0 27777
0.16050000 0.16050000 8915.15599903 0 8.26499013 0 2242.01717129 0 -244.12992871 0 544.16254419 0 28224
0.16150000 0.16150500 8964.26802304 0 112.30077779 0 2359.04680757 0 -22.67885840 0 31.41774496 0 28075
0.16250000 0.16249700 8793.98517888 0 180.14259650 0 2254.38580001 0 225.33202965 0 573.76377038 0 28590
0.16350000 0.16349900 8779.40865107 0 79.92287134 0 2479.64642994 0 -176.82415713 0 397.92712633 0 29163
0.16450000 0.16449100 8675.61542474 0 143.48048706 0 2462.42262013 0 55.76142518 0 483.40357787 0 28996
0.16550000 0.16550500 8543.20738685 0 16.79464256 0 2500.49514870 0 14.95165097 0 250.59654658 0 30777
0.16650000 0.16650700 8425.09027788 0 0.03259705 0 2324.81887941 0 85.45536116 0 507.16540528 0 29211
0.16750000 0.16749900 8441.94061222 0 107.44307025 0 2304.43151269 0 -91.68778795 0 -18.99155707 0 30922
0.16850000 0.16850800 8264.00152098 0 181.96274018 0 2581.44046405 0 -103.49345734 0 617.10340150 0 30867
0.16950000 0.16949900 8376.68126652 0 -41.74401211 0 2371.76694262 0 178.27082534 0 73.48250659 0 30852
0.17050000 0.17049200 8404.95555634 0 -125.71843319 0 2322.28144314 0 292.88165874 0 162.16524502 0 31257
0.17150000 0.17149500 8327.58022708 0 96.54901055 0 2132.35818321 0 222.94068820 0 120.28875897 0 32608
0.17250000 0.17250900 8316.51876249 0 65.08029717 0 2157.84239160 0 -121.98697389 0 378.08239751 0 32361
0.17350000 0.17350400 8298.20748000 0 127.21343352 0 2135.58764755 0 -96.29317985 0 288.00890234 0 32508
0.17450000 0.17449800 7944.50424288 0 197.62783914 0 2441.02467274 0 -272.93806876 0 176.50011224 0 32791
0.17550000 0.17549800 7750.75835169 0 146.12557214 0 2400.42569248 0 126.97836367 0 574.47007840 0 33633
0.17650000 0.17650100 7743.33278062 0 93.61514106 0 2816.08191896 0 13.90767719 0 241.23988766 0 33984
0.17750000 0.17750300 7685.65279000 0 91.44942273 0 2696.45992355 0 25.93325772 0 828.34332299 0 34069
0.17850000 0.17849800 7799.52985395 0 -67.10145853 0 2619.54594634 0 169.80501525 0 197.39936003 0 34536
