### header ###
fiducial parameters:
Omega_m = 0.31
Omega_nu = 0
Omega_de = 0.69
Omega_k = 0
H_0 = 100
w_de = -1
zeff = 0
beta = 0
fgrowth = 0
b_1 = 2
gamma = 0.55
Lx = 3500 Ly = 3500 Lz = 3500
nx = 700 ny = 700 nz = 700
xoffset = -983.599254 yoffset = -42.9823471 zoffset = 800.977702
bins = 400 dk = 0.001
kx_ny = 0.628318531 ky_ny = 0.628318531 kz_ny = 0.628318531
############################
A(data) = 9.05171582 (not used)
A(ran) = 9.05031681 (used)
Ngal = 502692
weighted Ngal = 0
Nran = 25229228
weighted Nran = 0
SN(data) = 6726.15904
SN(ran) = 134.345718
SN(data+ran) = 6860.50476
############################
13 columns: k_central k_mean P_0(k) sigma^{lin}_{P_0(k)} P^img_1(k) sigma^{lin}_{P_1(k)} P_2(k) sigma^{lin}_{P_2(k)} P^img_3(k) sigma^{lin}_{P_3(k)} P_4(k) sigma^{lin}_{P_4(k)} N_modes
### header ###
0.00050000 0 0 0 0 0 0 0 0 0 0 0 0
0.00150000 0.00179520 65678.84653264 0 -69283.32417948 0 -27917.18136976 0 -37506.82307900 0 63087.25632353 0 3
0.00250000 0.00253879 105455.85122702 0 -45725.80982153 0 3916.26375499 0 -144528.41528177 0 66082.09019210 0 6
0.00350000 0.00331552 86906.31335464 0 10449.62389663 0 -50464.55443313 0 -24521.63029341 0 -21586.99188258 0 7
0.00450000 0.00420575 87887.45537760 0 20915.94434359 0 19150.39399259 0 -55710.23706935 0 37017.89975340 0 24
0.00550000 0.00557378 86381.14093952 0 16192.68797934 0 48907.16173254 0 -6756.66551765 0 -4936.80743981 0 45
0.00650000 0.00659388 90159.28467887 0 3897.29339814 0 57154.59851807 0 17257.20290819 0 26257.52229844 0 40
0.00750000 0.00754703 61800.41364562 0 -4120.40105184 0 57315.52250638 0 7646.92118707 0 6203.66918018 0 57
0.00850000 0.00846663 86658.06201430 0 2373.04115304 0 36700.33576007 0 50568.46848975 0 17684.50278161 0 75
0.00950000 0.00948925 87486.18894120 0 -10601.30985941 0 28707.85090416 0 45330.03567143 0 36027.31099802 0 112
0.01050000 0.01054430 91480.06968606 0 -3300.85307612 0 16943.15397809 0 2529.60426604 0 32275.53023286 0 105
0.01150000 0.01145670 83109.05645899 0 3985.79609943 0 -386.05500029 0 9942.37830397 0 34928.08481980 0 144
0.01250000 0.01249090 93700.49118765 0 -1648.77335989 0 3602.65420779 0 11739.10287196 0 34793.19426850 0 169
0.01350000 0.01339930 85300.14915179 0 7385.63115908 0 -4031.84342769 0 -1347.56539513 0 23924.83846507 0 180
0.01450000 0.01448870 86400.36394154 0 762.73137250 0 18554.37108432 0 -5813.00285633 0 20286.52833468 0 267
0.01550000 0.01550050 72226.64040265 0 7623.29337145 0 15092.14365241 0 -16566.71267573 0 32077.14885204 0 238
0.01650000 0.01653350 75411.17783971 0 4224.19427816 0 28335.80343083 0 8059.71044011 0 9514.06784988 0 315
0.01750000 0.01747870 64912.67259509 0 3889.72502763 0 39314.22465153 0 3678.06329856 0 23440.19912278 0 297
0.01850000 0.01844180 70419.67821302 0 3289.42912064 0 36120.35032778 0 7234.46147122 0 11477.23066162 0 388
0.01950000 0.01947590 70257.65576745 0 -1903.34082946 0 40552.95490153 0 6684.59573694 0 27782.51050991 0 399
0.02050000 0.02045430 68423.45183782 0 -3882.73883947 0 38170.73064581 0 4064.46760826 0 23619.68703876 0 462
0.02150000 0.02154770 69395.47666554 0 2225.84788045 0 35091.31556836 0 5169.87810084 0 23348.47794173 0 571
0.02250000 0.02255340 72148.54009160 0 4420.22496045 0 42002.03971646 0 -1428.79630937 0 6413.58436221 0 510
0.02350000 0.02348930 69375.15520626 0 -309.39696361 0 38354.94192800 0 525.57664739 0 9773.01816391 0 555
0.02450000 0.02439640 69971.50765170 0 -2054.67528591 0 35041.77514602 0 12937.95912348 0 25929.41311544 0 592
0.02550000 0.02547300 73966.04747091 0 -912.94869792 0 32025.52136091 0 2031.66260635 0 -2503.47196787 0 837
0.02650000 0.02652900 68986.74071979 0 3806.60476691 0 28285.16455123 0 -3142.29077091 0 625.14850246 0 723
0.02750000 0.02749970 65511.99087513 0 3909.74990345 0 33418.58485567 0 2404.91838267 0 -1032.03464619 0 826
0.02850000 0.02848090 63961.95783818 0 536.23168279 0 25867.13058890 0 2476.49385761 0 -408.31303971 0 831
0.02950000 0.02946900 64929.25929969 0 -844.37091284 0 24116.84879379 0 10341.64554816 0 -4953.51497470 0 996
0.03050000 0.03053250 62658.63830140 0 198.22210452 0 20420.54012017 0 3552.08123563 0 -2040.41731070 0 1041
0.03150000 0.03150510 63681.30200872 0 2357.32222967 0 15992.43922118 0 -2854.15444753 0 7040.18832054 0 1036
0.03250000 0.03246190 61355.31876462 0 -29.70162519 0 16543.09584468 0 7790.68727302 0 2700.12877079 0 1059
0.03350000 0.03345080 58819.96956713 0 1357.95680080 0 13927.01003871 0 3273.57838240 0 8415.27006999 0 1302
0.03450000 0.03451200 58737.47542704 0 -890.91144841 0 19064.38478928 0 2477.36163884 0 8738.46914906 0 1339
0.03550000 0.03553350 57379.34287308 0 888.85513642 0 15320.51291638 0 2800.48382590 0 5558.91870795 0 1365
0.03650000 0.03647120 55157.60322278 0 437.78684486 0 14922.65169748 0 -3728.19688783 0 10312.38264680 0 1308
0.03750000 0.03744890 56509.03518746 0 2435.01611154 0 16095.69420344 0 -216.50702404 0 8444.45607934 0 1579
0.03850000 0.03847530 54287.18569143 0 1483.82901801 0 19841.54329941 0 -1444.96560021 0 4948.73668563 0 1662
0.03950000 0.03950240 52925.42822852 0 3340.44147570 0 20983.06008206 0 -1208.53365997 0 -1815.16766535 0 1683
0.04050000 0.04050350 49779.44664123 0 1316.28133242 0 20735.24812462 0 381.66446663 0 4014.55371045 0 1822
0.04150000 0.04152450 48008.18431249 0 622.00911162 0 21306.44589885 0 2026.46690352 0 -1454.11574917 0 1887
0.04250000 0.04250150 44930.08738374 0 1533.53420894 0 20099.79060079 0 -846.03837096 0 544.10103059 0 1920
0.04350000 0.04349210 42998.77983249 0 2597.55483203 0 20785.33777560 0 860.35017057 0 -2417.73737887 0 2005
0.04450000 0.04448520 42368.92444068 0 -214.87801192 0 18683.54965788 0 1974.27919919 0 -1428.28003446 0 2151
0.04550000 0.04548030 40927.41898083 0 -987.89753510 0 17591.90283475 0 1988.27354466 0 -6299.24594621 0 2274
0.04650000 0.04648670 40494.73666685 0 2239.08429041 0 15796.47444633 0 -87.88899322 0 -2433.95060800 0 2311
0.04750000 0.04749250 39417.04025089 0 -557.27922231 0 15067.64805555 0 1372.26969887 0 -1888.81922451 0 2568
0.04850000 0.04851840 41074.50240769 0 721.63588956 0 11720.64879002 0 1681.84790793 0 -4278.62283530 0 2493
0.04950000 0.04949480 40337.54743321 0 1126.46791822 0 13320.11240359 0 382.35759315 0 -5787.99098456 0 2644
0.05050000 0.05050630 37938.18724427 0 -413.56586232 0 13744.11690523 0 -536.48872179 0 1487.72854127 0 2829
0.05150000 0.05149060 38330.77586832 0 514.92051352 0 12885.45286654 0 3134.34892493 0 -5630.35138345 0 2784
0.05250000 0.05249300 37075.89829663 0 1083.49297491 0 13255.19357963 0 -1134.79422423 0 -334.44837984 0 3055
0.05350000 0.05348950 35201.60067708 0 1370.53413640 0 13673.26641208 0 1294.63073986 0 365.40400383 0 3009
0.05450000 0.05448610 34582.94954929 0 283.06584468 0 13884.82928000 0 -733.18397072 0 -148.84754922 0 3336
0.05550000 0.05550870 33598.51215455 0 562.26292289 0 13666.56582280 0 1564.15919729 0 573.88899451 0 3349
0.05650000 0.05647670 34636.33457204 0 292.11383711 0 13183.68401213 0 3543.06290154 0 1093.94699263 0 3324
0.05750000 0.05747970 34428.72615025 0 -891.97805041 0 10308.32933952 0 364.31433423 0 1142.97773081 0 3639
0.05850000 0.05849280 34949.17519916 0 243.40714383 0 12252.30210296 0 1246.68308055 0 -274.63188985 0 3846
0.05950000 0.05951020 32996.66742282 0 837.81751684 0 9804.26927291 0 -3395.68289122 0 -601.08240239 0 3787
0.06050000 0.06049470 32120.53791373 0 1665.54680222 0 12659.06082564 0 -2106.48951478 0 713.20742702 0 3930
0.06150000 0.06148310 31661.38277983 0 278.54898843 0 13888.89357185 0 262.80919438 0 -2258.18646213 0 4083
0.06250000 0.06249100 32556.07621659 0 -873.24386187 0 12814.27283622 0 2007.21094779 0 -3570.96371590 0 4303
0.06350000 0.06350600 33128.70198525 0 -802.54275891 0 12651.37162484 0 -133.46365532 0 -5093.39252195 0 4470
0.06450000 0.06451750 32447.43879376 0 1046.19376025 0 11700.87655937 0 357.92790373 0 -2722.68009830 0 4479
0.06550000 0.06550280 32066.05443373 0 -209.53621428 0 10908.24078648 0 169.50623487 0 -2045.14067691 0 4636
0.06650000 0.06648880 32303.43104721 0 1049.58359935 0 13699.84907773 0 -267.16897124 0 -5568.26657922 0 4653
0.06750000 0.06749660 30725.49719590 0 1777.07316764 0 13295.94634391 0 -644.43960883 0 -3448.03536414 0 5220
0.06850000 0.06852730 30079.71417385 0 211.17730942 0 14117.81206445 0 -421.32756130 0 -4333.57865193 0 5029
0.06950000 0.06949320 28960.38622781 0 246.81785362 0 14605.74677851 0 223.43169859 0 -2609.50604700 0 5040
0.07050000 0.07048030 28056.13621291 0 242.75685713 0 13759.05592394 0 1447.48106733 0 -3329.97317803 0 5475
0.07150000 0.07148790 27765.48442241 0 419.45908551 0 13409.08744150 0 1261.58914554 0 -1577.23083866 0 5509
0.07250000 0.07249820 27669.80879523 0 978.52879315 0 13304.29461907 0 262.87620027 0 -593.26138672 0 5916
0.07350000 0.07351270 26222.81104909 0 400.63592193 0 13131.06790946 0 438.27016605 0 -1046.81768397 0 5721
0.07450000 0.07449140 26409.21924579 0 158.66006791 0 11770.84828672 0 1432.37728003 0 -689.43131967 0 6028
0.07550000 0.07549160 26098.13615029 0 131.55893043 0 12271.52510497 0 708.05676094 0 -364.14517182 0 6183
0.07650000 0.07648840 25565.71391727 0 -274.54401327 0 10592.00592643 0 974.81600762 0 1299.39804436 0 6330
0.07750000 0.07749960 25442.02763000 0 42.51468972 0 10064.62561223 0 1177.10679782 0 -1562.21492795 0 6583
0.07850000 0.07848650 25352.72305492 0 706.26078332 0 8991.97111509 0 -1036.76240623 0 -292.08857260 0 6549
0.07950000 0.07947320 24573.25778455 0 509.54905753 0 8736.76654031 0 772.60979862 0 -1818.74863601 0 6828
0.08050000 0.08048110 24171.66181097 0 33.47921970 0 8759.62543585 0 356.32305768 0 -491.45526958 0 7147
0.08150000 0.08149960 24051.49058693 0 -92.78635506 0 7663.56281454 0 778.57551999 0 -1643.68750278 0 7386
0.08250000 0.08250610 24257.12178565 0 122.33188947 0 7028.68747305 0 1629.70414189 0 -1634.72409156 0 7227
0.08350000 0.08350160 23455.90706157 0 500.00126704 0 6145.60472952 0 58.67870796 0 -1282.92118549 0 7798
0.08450000 0.08449610 22476.19303304 0 385.28058792 0 6689.48387174 0 303.03799455 0 -350.76925778 0 7371
0.08550000 0.08548940 22566.37637393 0 160.13309909 0 5689.97564342 0 660.38810976 0 550.44242434 0 8256
0.08650000 0.08650700 21873.13999833 0 227.69261430 0 5229.09593162 0 1186.20202391 0 -761.04524061 0 8037
0.08750000 0.08749060 21349.50542337 0 487.67767506 0 5332.83423508 0 -168.68349039 0 952.76008433 0 8155
0.08850000 0.08849210 20680.65479889 0 716.03595446 0 5727.85044968 0 -347.80781701 0 640.70705107 0 8718
0.08950000 0.08949900 19980.49814256 0 690.27273793 0 6541.38986420 0 -426.80556765 0 1106.83848701 0 8571
0.09050000 0.09049190 19734.00433383 0 -172.61816429 0 6010.50547134 0 -252.28267848 0 -192.48705917 0 8932
0.09150000 0.09150830 19404.90653930 0 13.87714008 0 6896.36731174 0 372.44401640 0 934.35543297 0 9285
0.09250000 0.09250820 19542.76292519 0 256.06796219 0 5884.64423870 0 364.07596901 0 -681.34337887 0 9204
0.09350000 0.09350330 19345.15046446 0 255.56816413 0 6638.53742411 0 -488.54655476 0 447.29618934 0 9349
0.09450000 0.09448040 19384.58508002 0 16.55254258 0 6580.13245169 0 136.56240325 0 -963.18444371 0 9564
0.09550000 0.09549270 18864.57541402 0 339.10583862 0 6293.66578334 0 181.67604284 0 -99.33590646 0 10155
0.09650000 0.09649430 18772.63454152 0 139.97750686 0 6652.21321697 0 137.07867816 0 298.48269230 0 9913
0.09750000 0.09749140 18358.18661802 0 458.23682363 0 6343.18423654 0 373.37001587 0 -993.12948702 0 10476
0.09850000 0.09850240 17974.60534348 0 498.09104987 0 7045.09842449 0 -1006.33733710 0 -366.20368072 0 10575
0.09950000 0.09950330 17016.97030584 0 236.45720476 0 7050.28314275 0 271.35079802 0 205.08965929 0 10882
0.10050000 0.10051200 17296.63752376 0 171.64822653 0 6937.26287546 0 703.58054761 0 -308.72800314 0 10875
0.10150000 0.10150300 16591.31811831 0 305.11517722 0 6804.53628496 0 136.14828486 0 218.24148805 0 11118
0.10250000 0.10250800 16594.83318154 0 317.05101379 0 6687.61649440 0 339.87695561 0 -147.80401483 0 11575
0.10350000 0.10349800 15831.51523286 0 202.60494898 0 6140.44198041 0 1174.17391694 0 1510.57645224 0 11364
0.10450000 0.10450100 15538.55668212 0 -171.78882906 0 5993.85285931 0 946.02104905 0 2291.50267077 0 12093
0.10550000 0.10551000 15991.78014682 0 5.69824703 0 5309.83254010 0 1017.91287968 0 2254.35284630 0 12067
0.10650000 0.10649700 15848.76101181 0 212.95351481 0 4882.66448155 0 -279.41347429 0 1755.92786542 0 12054
0.10750000 0.10749900 15676.96229664 0 225.56050876 0 5104.16838766 0 -436.89050374 0 2874.48689138 0 12807
0.10850000 0.10850100 15223.18960331 0 146.23322095 0 5133.35439700 0 -248.94336841 0 971.81831776 0 12736
0.10950000 0.10950300 15055.78471717 0 179.76472721 0 5628.56089812 0 33.39354003 0 2596.43440562 0 12933
0.11050000 0.11050200 15197.04632056 0 -85.61573592 0 5485.30010251 0 166.37563169 0 1507.48978735 0 13428
0.11150000 0.11150900 15068.74651281 0 132.86719303 0 5355.13291742 0 414.25898885 0 1408.09039006 0 13453
0.11250000 0.11250000 15049.52351080 0 -109.98193451 0 4537.14475101 0 689.00731516 0 2045.39332208 0 13668
0.11350000 0.11349100 15343.80021025 0 -7.44935266 0 4714.32590674 0 654.22466609 0 1510.20297677 0 13791
0.11450000 0.11448600 15436.29031138 0 371.80141890 0 4692.40069987 0 -489.29240723 0 1877.88957479 0 14205
0.11550000 0.11549300 14636.61342746 0 382.60474604 0 4965.80671142 0 -1018.55437872 0 674.34840305 0 14776
0.11650000 0.11649800 14331.90138406 0 268.46624926 0 5423.27022114 0 -469.33124194 0 985.98182564 0 14553
0.11750000 0.11747300 13842.31898411 0 181.77051016 0 6132.12665896 0 -260.15861702 0 385.18612059 0 14568
0.11850000 0.11849100 13899.10922435 0 -73.56423181 0 5375.79489845 0 998.35155283 0 714.46845595 0 16015
0.11950000 0.11950300 14303.34149534 0 -385.66175259 0 4792.25046464 0 1074.04404557 0 -6.71647297 0 15270
0.12050000 0.12050700 14202.39327332 0 175.44559327 0 4071.45379642 0 616.97598046 0 972.32690347 0 15999
0.12150000 0.12150000 14075.74115146 0 333.77502554 0 4403.79203987 0 -52.55096415 0 1166.90212989 0 15670
0.12250000 0.12250700 13622.18814958 0 320.98678614 0 4230.92782116 0 -432.27039251 0 996.49955389 0 16887
0.12350000 0.12352200 13388.54629077 0 55.94102294 0 4439.51386990 0 118.34778499 0 662.92225066 0 16407
0.12450000 0.12449800 12802.51934356 0 183.26331358 0 4428.02400698 0 -595.85264739 0 519.45714200 0 16306
0.12550000 0.12549900 12552.94985451 0 335.94777400 0 4799.92868087 0 -267.51059145 0 108.97366060 0 17523
0.12650000 0.12650100 12595.89953330 0 84.67479743 0 4618.14498922 0 -21.47264248 0 -344.10931143 0 17154
0.12750000 0.12750600 12588.97925257 0 89.00074181 0 4763.32808503 0 177.60735715 0 -1481.35748917 0 18007
0.12850000 0.12850300 12714.31322573 0 109.56133523 0 4740.53509692 0 -73.16527213 0 -680.65794155 0 17496
0.12950000 0.12949900 12527.46564612 0 -42.62783082 0 4444.52283500 0 426.48591659 0 -1048.16439257 0 18405
0.13050000 0.13049000 12431.13094458 0 -67.30522235 0 4172.61072532 0 386.05390183 0 -310.85351794 0 18100
0.13150000 0.13148800 12325.45935635 0 -8.32294474 0 3764.56680764 0 461.87491407 0 -159.38175433 0 19059
0.13250000 0.13249300 12152.56218392 0 245.04384514 0 3679.94166048 0 671.56930619 0 1329.13328234 0 18957
0.13350000 0.13349100 12084.23814246 0 238.51571366 0 3543.94166735 0 333.97494476 0 584.68463245 0 19468
0.13450000 0.13450700 11925.62091439 0 116.19700568 0 3727.14236886 0 -297.79395959 0 1026.69504546 0 19953
0.13550000 0.13551000 11924.30276568 0 72.26234026 0 3767.20310506 0 -223.86119538 0 734.31098786 0 19956
0.13650000 0.13649900 11632.99190082 0 -12.81548114 0 3756.61397709 0 -195.65171453 0 615.75339753 0 19723
0.13750000 0.13749600 11591.36037074 0 119.94164647 0 3582.87099257 0 104.92947051 0 568.21875815 0 20946
0.13850000 0.13851100 11592.89821090 0 121.31142267 0 3841.61259973 0 125.76017457 0 336.53764555 0 20955
0.13950000 0.13949800 11772.05658970 0 -76.32882903 0 3613.22136662 0 626.57539844 0 404.09606229 0 20506
0.14050000 0.14048300 11444.93601823 0 -12.90500541 0 3848.44500387 0 -96.61590660 0 669.10766348 0 21447
0.14150000 0.14148400 11459.98488266 0 260.60568912 0 2977.87368851 0 81.76059033 0 99.37797737 0 21771
0.14250000 0.14249400 11351.12776838 0 216.69815560 0 3765.30277401 0 -387.10402697 0 364.77568628 0 22470
0.14350000 0.14350900 10906.45030114 0 323.19029140 0 3836.91120266 0 -220.16159133 0 338.37756145 0 22519
0.14450000 0.14449900 10876.51734086 0 81.09580400 0 4002.13015886 0 186.57626067 0 253.71177137 0 22218
0.14550000 0.14550500 10514.04841482 0 52.38916140 0 3946.80086677 0 -16.67491072 0 -298.50795681 0 23559
0.14650000 0.14650700 10314.64546875 0 207.79296261 0 4149.67493777 0 -260.78803303 0 91.78016821 0 23044
0.14750000 0.14750500 10317.84197937 0 50.02506168 0 3850.65290296 0 145.68179540 0 -23.61254707 0 23649
0.14850000 0.14849900 10190.00352367 0 -34.94994412 0 3857.70499856 0 365.13488180 0 -164.49397441 0 23640
0.14950000 0.14949500 10246.36536559 0 117.92268203 0 3295.28389782 0 311.24786409 0 8.10420894 0 24457
0.15050000 0.15050000 10084.99100979 0 170.23561049 0 3258.16702707 0 514.71839739 0 146.58472727 0 24591
0.15150000 0.15149900 10057.51859377 0 -136.09336200 0 2895.05001125 0 589.38053722 0 775.59979928 0 25020
0.15250000 0.15250500 10182.09463141 0 -103.69414548 0 2526.47366285 0 340.85128720 0 213.82568987 0 25297
0.15350000 0.15350100 9825.27177568 0 233.88132249 0 2161.36843940 0 -249.83202033 0 487.94679709 0 25452
0.15450000 0.15450400 9731.36466468 0 235.81350880 0 2583.85707002 0 -347.90887508 0 164.06118225 0 26061
0.15550000 0.15549900 9371.44415948 0 267.67975386 0 2842.76344576 0 -463.17548746 0 556.60037573 0 26128
0.15650000 0.15649500 9396.34618552 0 76.39045249 0 2775.69164558 0 248.39413978 0 -264.31517928 0 26331
0.15750000 0.15749700 9255.90842507 0 -40.81900125 0 2776.13102848 0 343.37224661 0 28.79133366 0 27345
0.15850000 0.15849900 9330.97699409 0 86.42738599 0 2941.67952186 0 -10.13795862 0 -457.74032095 0 26980
0.15950000 0.15949700 9141.65788565 0 122.75918934 0 2564.11779309 0 -80.19638719 0 516.91311499 0 27777
0.16050000 0.16050000 9070.82936165 0 74.38664676 0 2974.30370242 0 142.52263233 0 67.45494207 0 28224
0.16150000 0.16150500 9040.43504932 0 42.76788412 0 2701.74350296 0 16.85110326 0 244.13432253 0 28075
0.16250000 0.16249700 9144.32713679 0 73.84214149 0 3062.31209794 0 -107.24941224 0 106.32890506 0 28590
0.16350000 0.16349900 8761.29509088 0 30.53985792 0 2911.70262328 0 104.96714759 0 85.56366905 0 29163
0.16450000 0.16449100 8815.67970973 0 217.32427624 0 2811.27067617 0 -74.40905528 0 429.07827572 0 28996
0.16550000 0.16550500 8575.53498396 0 -30.67793400 0 2704.73130670 0 576.62744846 0 687.03119056 0 30777
0.16650000 0.16650700 8794.68819153 0 -118.09623828 0 2364.34137155 0 790.11371503 0 1015.13817665 0 29211
0.16750000 0.16749900 8599.41544475 0 53.97104969 0 2015.33953150 0 239.80530248 0 811.94225767 0 30922
0.16850000 0.16850800 8553.91734512 0 285.25946382 0 1990.48144375 0 -243.62903220 0 979.86341872 0 30867
0.16950000 0.16949900 8261.21143954 0 258.11219114 0 1957.31901912 0 -504.99705065 0 949.28236865 0 30852
0.17050000 0.17049200 7887.57120319 0 76.40220598 0 2304.59628128 0 149.83506230 0 1024.80350206 0 31257
0.17150000 0.17149500 8097.35457035 0 0.28064814 0 2120.68158255 0 161.57976730 0 733.81887901 0 32608
0.17250000 0.17250900 7958.03723630 0 -51.99942876 0 1713.16492436 0 239.93382198 0 357.17546051 0 32361
0.17350000 0.17350400 7962.22235845 0 -41.69139600 0 1558.89758703 0 119.81422543 0 592.86594210 0 32508
0.17450000 0.17449800 8038.90565964 0 86.85864031 0 1473.23989004 0 151.22461073 0 329.67118923 0 32791
0.17550000 0.17549800 7842.78710077 0 109.73939515 0 1806.80840561 0 -262.43022663 0 668.55843485 0 33633
0.17650000 0.17650100 7857.90187264 0 157.01348048 0 1450.61167052 0 -103.27739079 0 227.62341149 0 33984
0.17750000 0.17750300 7839.22809926 0 19.02912431 0 1728.13689679 0 227.91120729 0 437.00913712 0 34069
0.17850000 0.17849800 7952.96236376 0 -92.88664421 0 1622.90469146 0 55.04402274 0 260.73860245 0 34536
