### header ###
fiducial parameters:
Omega_m = 0.31
Omega_nu = 0
Omega_de = 0.69
Omega_k = 0
H_0 = 100
w_de = -1
zeff = 0
beta = 0
fgrowth = 0
b_1 = 2
gamma = 0.55
Lx = 3500 Ly = 3500 Lz = 3500
nx = 700 ny = 700 nz = 700
xoffset = -983.599254 yoffset = -42.9823471 zoffset = 800.977702
bins = 400 dk = 0.001
kx_ny = 0.628318531 ky_ny = 0.628318531 kz_ny = 0.628318531
############################
A(data) = 9.05095311 (not used)
A(ran) = 9.04379645 (used)
Ngal = 502759
weighted Ngal = 0
Nran = 25229228
weighted Nran = 0
SN(data) = 6743.8696
SN(ran) = 134.248928
SN(data+ran) = 6878.11852
############################
13 columns: k_central k_mean P_0(k) sigma^{lin}_{P_0(k)} P^img_1(k) sigma^{lin}_{P_1(k)} P_2(k) sigma^{lin}_{P_2(k)} P^img_3(k) sigma^{lin}_{P_3(k)} P_4(k) sigma^{lin}_{P_4(k)} N_modes
### header ###
0.00050000 0 0 0 0 0 0 0 0 0 0 0 0
0.00150000 0.00179520 44797.94297559 0 -66231.59022493 0 -93797.70465499 0 22513.43073409 0 -75941.84254112 0 3
0.00250000 0.00253879 77776.37600793 0 -44207.63204507 0 -15091.81411523 0 -48627.38466890 0 44915.80743939 0 6
0.00350000 0.00331552 99398.51852277 0 13754.66209491 0 8490.23977786 0 -106068.24114843 0 27403.32306440 0 7
0.00450000 0.00420575 83694.20464040 0 42483.49353270 0 15553.05631792 0 -52042.04890153 0 61717.80965981 0 24
0.00550000 0.00557378 63621.87547106 0 -4876.06275343 0 21316.22216845 0 49149.81094087 0 -3892.62495480 0 45
0.00650000 0.00659388 64194.06185682 0 -14462.50795205 0 23805.32631538 0 51137.46934946 0 23257.19614357 0 40
0.00750000 0.00754703 84449.17431392 0 -514.74695728 0 -4544.62524493 0 2845.35580489 0 -6629.95847292 0 57
0.00850000 0.00846663 76630.02601334 0 -7048.15213567 0 -1438.07827320 0 -23363.08742326 0 8921.01077621 0 75
0.00950000 0.00948925 65496.39278207 0 23363.96618907 0 7472.69488136 0 -22223.54786367 0 17930.66705316 0 112
0.01050000 0.01054430 58363.01134774 0 -7704.33754796 0 21915.97983139 0 7505.83533684 0 -4895.07704857 0 105
0.01150000 0.01145670 59409.73126902 0 -3863.87832835 0 17487.76908668 0 8826.23588398 0 -9070.23619473 0 144
0.01250000 0.01249090 72100.09812652 0 -3107.28293809 0 14365.18463898 0 2439.04744968 0 -8645.49572673 0 169
0.01350000 0.01339930 76506.22988035 0 -6910.48248750 0 665.02250093 0 -7017.80176162 0 -16190.71075627 0 180
0.01450000 0.01448870 78979.84577994 0 -326.63285645 0 12701.68096726 0 -8084.43671299 0 -24194.72941339 0 267
0.01550000 0.01550050 79015.54564083 0 10906.59310059 0 25369.41960524 0 -18624.45265739 0 1148.62380111 0 238
0.01650000 0.01653350 70905.41601257 0 1880.71260994 0 35507.85056064 0 -2575.24516512 0 -14009.39433307 0 315
0.01750000 0.01747870 72703.92008131 0 274.88343656 0 40985.63721551 0 3874.84093179 0 -13172.69943955 0 297
0.01850000 0.01844180 74747.16042717 0 1513.58622513 0 33906.62941546 0 11697.14180469 0 -6027.85011145 0 388
0.01950000 0.01947590 76645.07487777 0 -7520.55466410 0 45347.39129611 0 1780.12687881 0 1766.96736086 0 399
0.02050000 0.02045430 79739.53881966 0 3074.97731013 0 35596.71575283 0 10278.83576214 0 -1607.26266010 0 462
0.02150000 0.02154770 77368.07944508 0 5793.58213201 0 38843.53571642 0 -3943.16497324 0 8706.78964173 0 571
0.02250000 0.02255340 69286.61955126 0 4116.52349772 0 42494.47810528 0 4535.96940174 0 6598.98197824 0 510
0.02350000 0.02348930 72628.89545058 0 -1309.18529853 0 42207.34137800 0 12402.24151869 0 5123.95160287 0 555
0.02450000 0.02439640 69607.69860781 0 1124.82023233 0 36246.78275819 0 6218.27866172 0 9032.76781765 0 592
0.02550000 0.02547300 70398.14845076 0 1170.01076393 0 30458.02285355 0 1015.77747877 0 619.59799794 0 837
0.02650000 0.02652900 67539.08389929 0 -931.54448085 0 32057.70615857 0 -846.46786775 0 723.74932133 0 723
0.02750000 0.02749970 59425.87859071 0 3234.37444286 0 28284.72516833 0 2919.09524063 0 -1703.38865476 0 826
0.02850000 0.02848090 61502.18250004 0 5048.91598757 0 31417.52526853 0 2469.63948432 0 -1476.13981720 0 831
0.02950000 0.02946900 56822.75458039 0 4056.81136117 0 24713.97015931 0 885.36423926 0 -1689.40529387 0 996
0.03050000 0.03053250 54874.20125018 0 -4071.92613304 0 25120.17965337 0 7940.73653448 0 -537.20271901 0 1041
0.03150000 0.03150510 55433.53568602 0 -2098.22911620 0 16660.19138840 0 9983.84506547 0 4373.56249612 0 1036
0.03250000 0.03246190 56853.51138361 0 578.17297782 0 11445.37540113 0 2487.33563075 0 -1110.57324169 0 1059
0.03350000 0.03345080 54834.76663461 0 2913.27341716 0 12336.33408320 0 -23.02245583 0 8557.64111522 0 1302
0.03450000 0.03451200 53561.76451816 0 584.98451128 0 12023.16391891 0 -1648.36693070 0 642.56234538 0 1339
0.03550000 0.03553350 50175.44048279 0 45.84916657 0 10426.66613994 0 3734.99633825 0 6671.91954018 0 1365
0.03650000 0.03647120 54748.53773985 0 3279.16952985 0 15652.35685406 0 -1093.92282657 0 1013.68931152 0 1308
0.03750000 0.03744890 48711.41664914 0 1898.84813927 0 15242.08306815 0 -5964.46912765 0 4530.11462455 0 1579
0.03850000 0.03847530 46953.11611605 0 616.04888254 0 20727.44907809 0 -437.22113937 0 2414.17837736 0 1662
0.03950000 0.03950240 44176.87524184 0 1358.51701400 0 20625.51224454 0 773.11289205 0 2139.33338680 0 1683
0.04050000 0.04050350 46365.99071158 0 1027.50460846 0 19801.22991803 0 3021.44948794 0 1141.16527633 0 1822
0.04150000 0.04152450 45621.45638201 0 -599.90156084 0 18574.91223505 0 -372.96578360 0 -536.23497816 0 1887
0.04250000 0.04250150 44334.06447548 0 -74.79670085 0 19734.55356246 0 2464.02636773 0 2151.99859898 0 1920
0.04350000 0.04349210 44998.19173375 0 550.27106501 0 19615.26110423 0 644.60547588 0 1037.70707947 0 2005
0.04450000 0.04448520 44123.92960200 0 1606.77933891 0 16777.61646929 0 -1567.28980048 0 -4587.00372595 0 2151
0.04550000 0.04548030 43244.83425831 0 689.62245123 0 19312.30659244 0 -534.40275145 0 -2864.31517717 0 2274
0.04650000 0.04648670 40922.91530607 0 937.66288777 0 18136.29825188 0 2005.69507677 0 -2960.79267815 0 2311
0.04750000 0.04749250 40033.49446416 0 873.03735191 0 18935.42590717 0 2292.75491204 0 -1695.15022533 0 2568
0.04850000 0.04851840 39236.12434048 0 -227.28179128 0 15681.13643422 0 4275.45927840 0 1634.78999899 0 2493
0.04950000 0.04949480 39334.32641935 0 -168.91965870 0 11936.16610406 0 3685.08244044 0 2645.43658391 0 2644
0.05050000 0.05050630 39428.35436065 0 82.21095780 0 10770.03289426 0 2730.99541975 0 1185.26833524 0 2829
0.05150000 0.05149060 38077.80116177 0 1497.32905771 0 10547.97975953 0 -516.02885690 0 5180.62101282 0 2784
0.05250000 0.05249300 37219.24696882 0 226.30196741 0 10514.25712170 0 132.15539273 0 4561.57444043 0 3055
0.05350000 0.05348950 36833.46877976 0 862.36364273 0 11244.24787717 0 572.85314932 0 1764.11137199 0 3009
0.05450000 0.05448610 34741.01754874 0 708.04467791 0 10410.98017029 0 -1989.17427961 0 1424.44641863 0 3336
0.05550000 0.05550870 34311.96014371 0 1527.21807970 0 13081.08810422 0 -777.11896567 0 3749.44105120 0 3349
0.05650000 0.05647670 33207.68106211 0 286.31947508 0 12669.93555250 0 -203.41451198 0 1260.96302490 0 3324
0.05750000 0.05747970 33539.41515407 0 343.20198573 0 13321.97978093 0 2310.15447501 0 2241.56680381 0 3639
0.05850000 0.05849280 32994.90989121 0 902.34638847 0 14487.99216044 0 -953.77505884 0 2782.89752519 0 3846
0.05950000 0.05951020 31844.71529622 0 450.15876896 0 14847.07783812 0 -52.53558575 0 2940.65795661 0 3787
0.06050000 0.06049470 31138.18758779 0 -401.57290597 0 15201.54999532 0 -744.69250741 0 1021.91455947 0 3930
0.06150000 0.06148310 30926.18533697 0 1013.21697490 0 15677.29183382 0 628.72398084 0 2070.98737620 0 4083
0.06250000 0.06249100 30711.54678873 0 92.89982569 0 15095.54886991 0 -112.97083671 0 982.86440395 0 4303
0.06350000 0.06350600 31385.01093369 0 179.48352215 0 16125.46239514 0 1430.33414953 0 500.00675933 0 4470
0.06450000 0.06451750 31444.21777990 0 -9.80854227 0 13879.00745653 0 848.86909531 0 -336.17735157 0 4479
0.06550000 0.06550280 31306.80077691 0 23.63089130 0 13571.10988707 0 1564.19215101 0 709.28593461 0 4636
0.06650000 0.06648880 30864.45203906 0 -224.23247393 0 14106.16841751 0 -1830.54606696 0 -1369.79817004 0 4653
0.06750000 0.06749660 29852.66305859 0 1869.91477509 0 15248.56396597 0 -1554.99806376 0 -1702.85041070 0 5220
0.06850000 0.06852730 28401.60102060 0 750.75818839 0 13490.70281578 0 1540.90485714 0 -229.95543625 0 5029
0.06950000 0.06949320 28980.59784136 0 -972.75200643 0 15431.01771655 0 1282.55869460 0 -2372.68964672 0 5040
0.07050000 0.07048030 29392.95869606 0 436.45990849 0 13348.78213803 0 1262.79744852 0 -3113.75285134 0 5475
0.07150000 0.07148790 28011.86838541 0 359.10105609 0 12450.79332950 0 43.21210023 0 -871.19304217 0 5509
0.07250000 0.07249820 27359.16508263 0 81.98873990 0 11734.48935147 0 1586.46886421 0 -1579.35086117 0 5916
0.07350000 0.07351270 27995.94075517 0 376.48414220 0 10523.02281062 0 121.45861595 0 -983.04784631 0 5721
0.07450000 0.07449140 27552.71325151 0 -304.14633792 0 9698.12534805 0 3075.03223299 0 169.82259056 0 6028
0.07550000 0.07549160 27784.37788725 0 -296.84818790 0 8950.94373650 0 299.10991139 0 -2812.99525407 0 6183
0.07650000 0.07648840 26331.11893474 0 1370.57807469 0 8090.51118163 0 -367.90628947 0 -157.12112929 0 6330
0.07750000 0.07749960 25830.77165366 0 796.35185380 0 8863.29783187 0 -932.21124440 0 -726.91068131 0 6583
0.07850000 0.07848650 25029.77662103 0 283.41405563 0 7924.69905851 0 714.33114879 0 -297.03931946 0 6549
0.07950000 0.07947320 24378.17177550 0 -241.24647840 0 8658.24881549 0 1653.90315528 0 -1165.08967541 0 6828
0.08050000 0.08048110 23867.16945902 0 469.87497828 0 6754.97389347 0 646.33225069 0 -92.36938068 0 7147
0.08150000 0.08149960 24483.62367228 0 517.72817028 0 7171.46494746 0 154.80118756 0 -396.23440370 0 7386
0.08250000 0.08250610 23595.74067053 0 -107.58158571 0 7111.80773377 0 158.87097170 0 -632.82232487 0 7227
0.08350000 0.08350160 22452.57620199 0 123.71924098 0 6663.54929588 0 -251.96083050 0 -627.71230170 0 7798
0.08450000 0.08449610 23156.02823010 0 746.27758123 0 6152.21744221 0 294.74134687 0 -748.52172941 0 7371
0.08550000 0.08548940 21807.23256284 0 411.82810293 0 6976.17023154 0 340.54042380 0 -749.06326884 0 8256
0.08650000 0.08650700 22129.84945955 0 523.23144114 0 7323.57930857 0 288.95467404 0 -1015.62259630 0 8037
0.08750000 0.08749060 20510.61361534 0 600.58370280 0 6256.75761947 0 15.71255231 0 255.81971085 0 8155
0.08850000 0.08849210 20844.65446753 0 92.93805200 0 6098.57977430 0 415.07074876 0 -295.83431185 0 8718
0.08950000 0.08949900 19955.34347135 0 160.83940711 0 6627.26725264 0 -37.40224995 0 -222.08608845 0 8571
0.09050000 0.09049190 19313.18535824 0 326.94591677 0 6307.62717509 0 270.89823363 0 -1138.78162408 0 8932
0.09150000 0.09150830 19310.43921510 0 413.97009459 0 5941.98370758 0 -652.63190306 0 -811.22935891 0 9285
0.09250000 0.09250820 18959.37227540 0 233.51333931 0 6707.37774047 0 451.88554377 0 -1607.03198408 0 9204
0.09350000 0.09350330 18769.11947829 0 404.03454869 0 6585.63572256 0 -211.58923089 0 -1088.18778123 0 9349
0.09450000 0.09448040 18243.61752600 0 -32.62868424 0 6861.18372576 0 -292.55431847 0 -1328.66094572 0 9564
0.09550000 0.09549270 18090.60242994 0 132.54973888 0 6595.93925164 0 745.13518568 0 -1013.35867589 0 10155
0.09650000 0.09649430 17924.51569251 0 305.80171301 0 6651.92761808 0 296.13638759 0 -1329.94614071 0 9913
0.09750000 0.09749140 17862.78239460 0 386.66134869 0 6383.77223223 0 -57.92846166 0 -543.48369761 0 10476
0.09850000 0.09850240 17387.04055610 0 35.42480719 0 6599.16871598 0 506.90507091 0 323.19907906 0 10575
0.09950000 0.09950330 17304.87595320 0 -184.32222637 0 6360.85841382 0 588.43256861 0 -475.23325279 0 10882
0.10050000 0.10051200 17449.87231127 0 179.08588062 0 5692.44717225 0 99.47541053 0 608.19601160 0 10875
0.10150000 0.10150300 17239.95712924 0 157.25843645 0 5922.04670834 0 570.59252428 0 413.25829428 0 11118
0.10250000 0.10250800 16674.58117848 0 407.57707334 0 6244.20225301 0 56.08250423 0 832.05830543 0 11575
0.10350000 0.10349800 16670.18734945 0 304.41765686 0 6268.34634354 0 -349.17210093 0 903.97649904 0 11364
0.10450000 0.10450100 16206.41869506 0 313.11084760 0 6623.51052882 0 -167.76957395 0 1051.57510236 0 12093
0.10550000 0.10551000 15704.75326527 0 283.29981607 0 6809.97364838 0 687.72980937 0 1855.43710843 0 12067
0.10650000 0.10649700 15733.31315398 0 92.82249430 0 6701.41311756 0 -65.87623930 0 1534.28115987 0 12054
0.10750000 0.10749900 15585.57065276 0 -229.95433779 0 5877.46032824 0 811.41060435 0 1802.89789778 0 12807
0.10850000 0.10850100 15842.82934262 0 122.25719437 0 6380.08141584 0 832.67234304 0 847.31367984 0 12736
0.10950000 0.10950300 15379.50007114 0 348.53609418 0 5487.37618673 0 -937.64201709 0 1541.66279265 0 12933
0.11050000 0.11050200 15217.25793411 0 139.72925552 0 6482.24892542 0 -230.43656053 0 880.97700097 0 13428
0.11150000 0.11150900 15203.19768121 0 56.84746987 0 5584.68851523 0 -103.94294605 0 168.79333611 0 13453
0.11250000 0.11250000 14908.15206167 0 -85.27938831 0 5814.79334166 0 679.10582144 0 97.72084475 0 13668
0.11350000 0.11349100 15038.75862967 0 224.68174295 0 5625.63900181 0 -149.20015400 0 -394.00673238 0 13791
0.11450000 0.11448600 14709.00176077 0 592.99775697 0 5893.97014083 0 45.73196118 0 476.63268733 0 14205
0.11550000 0.11549300 14257.42598195 0 -12.23988954 0 5617.06005062 0 206.73514827 0 -236.82848331 0 14776
0.11650000 0.11649800 14026.42042057 0 -87.87075883 0 5373.55404564 0 1109.33198499 0 956.72221966 0 14553
0.11750000 0.11747300 14172.07585300 0 89.41409127 0 5252.09762661 0 17.54818424 0 257.50035045 0 14568
0.11850000 0.11849100 14168.89032695 0 203.39034592 0 4760.47209616 0 170.44651429 0 979.02859120 0 16015
0.11950000 0.11950300 13852.31494515 0 30.60005338 0 5312.72148268 0 141.89431478 0 990.72057026 0 15270
0.12050000 0.12050700 13909.76425975 0 -14.85806241 0 4722.19086071 0 -463.02170345 0 821.44940524 0 15999
0.12150000 0.12150000 13604.72267917 0 252.43206866 0 5184.19099891 0 460.52600856 0 662.45870169 0 15670
0.12250000 0.12250700 13636.13855675 0 277.03641279 0 4886.11363734 0 129.83435254 0 1016.17512030 0 16887
0.12350000 0.12352200 13602.96514756 0 -192.32338904 0 4936.80743981 0 245.60515680 0 832.63719241 0 16407
0.12450000 0.12449800 13429.40890077 0 148.19726252 0 4766.55754937 0 207.72375980 0 650.65358154 0 16306
0.12550000 0.12549900 13116.89781083 0 112.89943699 0 4415.43568680 0 184.64736972 0 1560.67708778 0 17523
0.12650000 0.12650100 13116.78796511 0 270.35998957 0 4524.40264681 0 714.27293056 0 1414.93377878 0 17154
0.12750000 0.12750600 12791.09538807 0 -28.08656348 0 3861.48369153 0 423.65958606 0 1391.42679345 0 18007
0.12850000 0.12850300 12847.99547404 0 103.38229346 0 3661.43265568 0 213.87182507 0 1477.01858301 0 17496
0.12950000 0.12949900 12426.73711555 0 176.45837086 0 3503.46351738 0 245.31626254 0 1805.17170430 0 18405
0.13050000 0.13049000 12500.66328902 0 147.27895226 0 3173.93732452 0 120.79624622 0 1838.32314435 0 18100
0.13150000 0.13148800 12371.48471546 0 -20.01993276 0 3359.10426452 0 135.39364472 0 1247.49593892 0 19059
0.13250000 0.13249300 11986.03606358 0 383.53184396 0 3259.55108322 0 -387.73783681 0 1265.49965338 0 18957
0.13350000 0.13349100 11783.59039091 0 208.66513767 0 3550.15893543 0 -330.06992921 0 717.13441172 0 19468
0.13450000 0.13450700 11444.93601823 0 91.96514841 0 3519.88545339 0 -141.58894366 0 781.23378656 0 19953
0.13550000 0.13551000 11212.83199958 0 97.41547363 0 3851.64151449 0 199.05363666 0 501.61380230 0 19956
0.13650000 0.13649900 11232.27469305 0 -59.63063102 0 3226.86099521 0 263.91863621 0 553.62355656 0 19723
0.13750000 0.13749600 11476.57158726 0 -48.38748160 0 3230.17833613 0 308.98284523 0 208.51025520 0 20946
0.13850000 0.13851100 11291.48153927 0 273.17094170 0 3250.28010396 0 -143.93744528 0 -14.09924814 0 20955
0.13950000 0.13949800 11203.49511289 0 223.69972216 0 3157.44948107 0 -309.91763235 0 72.06549672 0 20506
0.14050000 0.14048300 11261.71334757 0 -86.44584007 0 3578.80670072 0 140.28946872 0 60.07462745 0 21447
0.14150000 0.14148400 10751.42502830 0 39.66155684 0 3246.80897902 0 241.66718753 0 294.35798529 0 21771
0.14250000 0.14249400 10799.83403967 0 148.51361821 0 3451.01218331 0 78.47631297 0 309.60127666 0 22470
0.14350000 0.14350900 10777.27172759 0 179.54064193 0 3258.06816592 0 -5.53877300 0 388.64516250 0 22519
0.14450000 0.14449900 10545.70595300 0 172.30400551 0 3548.44534210 0 -3.93255388 0 388.14536445 0 22218
0.14550000 0.14550500 10557.43747652 0 124.27615881 0 3807.53845558 0 -155.10546022 0 397.28123346 0 23559
0.14650000 0.14650700 10292.40170928 0 70.50920248 0 3662.03680717 0 177.93689433 0 593.72383722 0 23044
0.14750000 0.14750500 10413.33086882 0 -65.77660923 0 3505.53960160 0 128.51949920 0 394.57902861 0 23649
0.14850000 0.14849900 10262.43579527 0 12.74243373 0 3479.78077890 0 212.39769543 0 340.45474413 0 23640
0.14950000 0.14949500 10286.18444119 0 124.28824184 0 3264.68087861 0 238.39268645 0 492.91951310 0 24457
0.15050000 0.15050000 10254.88939391 0 135.08058440 0 3071.81375323 0 -6.26209612 0 286.05804225 0 24591
0.15150000 0.15149900 10150.75564584 0 7.10875402 0 3162.85389078 0 -144.46140939 0 205.79706577 0 25020
0.15250000 0.15250500 9858.60995347 0 257.71784499 0 3212.49317428 0 -195.88348901 0 11.09112294 0 25297
0.15350000 0.15350100 9689.71116545 0 166.72713801 0 3302.56666944 0 249.19052129 0 589.49807215 0 25452
0.15450000 0.15450400 9440.13069183 0 20.23347285 0 2880.82498976 0 581.05642812 0 493.19852124 0 26061
0.15550000 0.15549900 9495.25127705 0 -17.04574989 0 2736.87216608 0 453.67383218 0 677.03962334 0 26128
0.15650000 0.15649500 9502.56700239 0 169.14923627 0 2721.19718100 0 -151.92872183 0 320.65615051 0 26331
0.15750000 0.15749700 9149.76450022 0 173.63972954 0 2531.79019598 0 -251.54451520 0 735.69284709 0 27345
0.15850000 0.15849900 9056.48350986 0 45.46305885 0 2627.59763804 0 -94.09901148 0 228.95913551 0 26980
0.15950000 0.15949700 8833.46373274 0 150.16899330 0 2614.36122808 0 122.84486901 0 233.50345319 0 27777
0.16050000 0.16050000 8942.82613736 0 143.73203377 0 2603.46453208 0 262.12595397 0 184.59244686 0 28224
0.16150000 0.16150500 8852.08258326 0 -60.09560798 0 2410.30082323 0 231.38452914 0 506.53049699 0 28075
0.16250000 0.16249700 8801.56453396 0 -159.16206287 0 2255.29751954 0 257.56186406 0 227.18293013 0 28590
0.16350000 0.16349900 8863.83607593 0 195.11127356 0 2033.22241566 0 -298.33769594 0 110.89145712 0 29163
0.16450000 0.16449100 8450.61842456 0 153.48303885 0 2108.84021331 0 -110.89585095 0 396.44091366 0 28996
0.16550000 0.16550500 8608.95005375 0 127.81428964 0 2448.84568842 0 147.92814050 0 229.59404381 0 30777
0.16650000 0.16650700 8418.49953433 0 90.43433838 0 2328.99301699 0 -8.82068867 0 -166.94792792 0 29211
0.16750000 0.16749900 8532.00312282 0 112.81815115 0 2401.66694918 0 -48.58179869 0 -409.59933316 0 30922
0.16850000 0.16850800 8239.97826074 0 19.30681431 0 2316.02023677 0 -41.03440872 0 78.62207825 0 30867
0.16950000 0.16949900 8109.26184702 0 84.46180657 0 2249.98098641 0 102.04404298 0 48.13637427 0 30852
0.17050000 0.17049200 8060.75397450 0 -92.70671691 0 2104.71001402 0 357.31716150 0 258.53180182 0 31257
0.17150000 0.17149500 7985.96001980 0 163.65145769 0 1942.13833982 0 264.21302276 0 80.43914625 0 32608
0.17250000 0.17250900 8010.21395606 0 239.13744047 0 2083.39994321 0 -229.61052067 0 234.50744312 0 32361
0.17350000 0.17350400 7662.42041899 0 89.22998984 0 2232.98785263 0 -119.60661701 0 464.74847826 0 32508
0.17450000 0.17449800 7763.68719361 0 72.18610733 0 2291.57956277 0 -160.72626601 0 283.86991539 0 32791
0.17550000 0.17549800 7610.79292785 0 -55.12948272 0 2071.36085166 0 343.88522615 0 402.40224120 0 33633
0.17650000 0.17650100 7677.82078975 0 0.67620150 0 2025.06087823 0 192.20255874 0 301.22114624 0 33984
0.17750000 0.17750300 7774.33124445 0 -3.47882512 0 1999.32402468 0 -22.07327891 0 243.85641285 0 34069
0.17850000 0.17849800 7658.04855910 0 157.27930713 0 2168.24478183 0 -49.08675949 0 263.92852233 0 34536
