### header ###
fiducial parameters:
Omega_m = 0.31
Omega_nu = 0
Omega_de = 0.69
Omega_k = 0
H_0 = 100
w_de = -1
zeff = 0
beta = 0
fgrowth = 0
b_1 = 2
gamma = 0.55
Lx = 3500 Ly = 3500 Lz = 3500
nx = 700 ny = 700 nz = 700
xoffset = -983.599254 yoffset = -42.9823471 zoffset = 800.977702
bins = 400 dk = 0.001
kx_ny = 0.628318531 ky_ny = 0.628318531 kz_ny = 0.628318531
############################
A(data) = 9.19294399 (not used)
A(ran) = 9.20865191 (used)
Ngal = 511257
weighted Ngal = 0
Nran = 25229228
weighted Nran = 0
SN(data) = 6668.66186
SN(ran) = 136.696093
SN(data+ran) = 6805.35795
############################
13 columns: k_central k_mean P_0(k) sigma^{lin}_{P_0(k)} P^img_1(k) sigma^{lin}_{P_1(k)} P_2(k) sigma^{lin}_{P_2(k)} P^img_3(k) sigma^{lin}_{P_3(k)} P_4(k) sigma^{lin}_{P_4(k)} N_modes
### header ###
0.00050000 0 0 0 0 0 0 0 0 0 0 0 0
0.00150000 0.00179520 112451.26642973 0 -75930.96781426 0 -83027.11154753 0 37350.73230262 0 -244455.07205424 0 3
0.00250000 0.00253879 140168.63842423 0 -53401.27991275 0 -11133.63323127 0 14690.76737029 0 80743.52875360 0 6
0.00350000 0.00331552 111441.78420950 0 16252.33420845 0 67762.18056842 0 -187094.73249173 0 88795.00076427 0 7
0.00450000 0.00420575 77122.24471071 0 41562.43712175 0 23296.19137624 0 198.16828011 0 45407.14737095 0 24
0.00550000 0.00557378 52011.95117266 0 13155.01427769 0 47791.78823263 0 42877.07076829 0 -20571.24845598 0 45
0.00650000 0.00659388 51561.80338828 0 4477.22390757 0 60091.54368914 0 39200.97370822 0 24640.04398584 0 40
0.00750000 0.00754703 40765.94576388 0 -1231.73307726 0 38899.11765368 0 33498.88208124 0 22841.86945427 0 57
0.00850000 0.00846663 48199.42572113 0 -3456.62529990 0 39753.93709196 0 22474.10596425 0 32184.46812616 0 75
0.00950000 0.00948925 54391.53913096 0 -7378.83170865 0 17383.63533860 0 7579.75052574 0 -2688.17755582 0 112
0.01050000 0.01054430 59438.07146628 0 3118.81673930 0 19971.71048449 0 1978.05789216 0 14961.64693014 0 105
0.01150000 0.01145670 60592.33035312 0 -976.06275660 0 28260.88864583 0 -12173.65256327 0 31681.04516476 0 144
0.01250000 0.01249090 64896.30558195 0 448.87686934 0 25716.75179026 0 15508.12941607 0 6513.15951266 0 169
0.01350000 0.01339930 64578.30220572 0 -1282.27309571 0 26377.91321393 0 3669.86880742 0 5147.50252649 0 180
0.01450000 0.01448870 66242.46495179 0 3163.01865937 0 31511.55320983 0 4538.99015920 0 21911.80569381 0 267
0.01550000 0.01550050 73408.03118378 0 -960.40314993 0 49107.52033643 0 12030.08419964 0 30877.52368043 0 238
0.01650000 0.01653350 74978.38568001 0 -8167.79863431 0 35495.76753080 0 6522.93578226 0 3665.59580868 0 315
0.01750000 0.01747870 77947.73534020 0 7269.75490292 0 52199.34798090 0 -10391.13104764 0 9563.35562705 0 297
0.01850000 0.01844180 68879.42144567 0 6096.64648952 0 29412.84077243 0 -6800.17540964 0 15604.79365478 0 388
0.01950000 0.01947590 70272.04555753 0 -2143.37570951 0 61874.22997337 0 8286.81647823 0 17916.38710880 0 399
0.02050000 0.02045430 69891.53996331 0 -1526.94346539 0 38003.76514258 0 10631.96780148 0 -8166.71116162 0 462
0.02150000 0.02154770 70603.01072941 0 8175.26814366 0 56043.28931001 0 2570.34604574 0 4445.84098371 0 571
0.02250000 0.02255340 61923.55070426 0 -460.79842596 0 36445.93305909 0 6576.01323697 0 22507.38921917 0 510
0.02350000 0.02348930 67846.32239439 0 -2027.68619108 0 47087.56728444 0 13472.68811674 0 -272.60084238 0 555
0.02450000 0.02439640 67149.13157265 0 802.81737322 0 30870.49355398 0 5409.05618422 0 2501.87920484 0 592
0.02550000 0.02547300 69954.37171848 0 -1914.00684944 0 24438.03769607 0 6523.84750179 0 -4276.64561224 0 837
0.02650000 0.02652900 65920.39728371 0 159.98590582 0 18469.02095537 0 -3669.75896169 0 1366.93119659 0 723
0.02750000 0.02749970 63302.00471749 0 430.37006145 0 24599.40106729 0 2891.65577832 0 -6087.61717086 0 826
0.02850000 0.02848090 62606.46158164 0 7593.22859630 0 20210.40524669 0 -7051.28273885 0 -5471.52544849 0 831
0.02950000 0.02946900 58072.35955724 0 728.38700787 0 27125.96260672 0 2071.56955854 0 -3871.07322339 0 996
0.03050000 0.03053250 53220.91323096 0 1722.32605789 0 21692.77331654 0 2657.15712285 0 -6936.19737192 0 1041
0.03150000 0.03150510 57373.41120389 0 1570.02495905 0 25534.84726832 0 8673.98970800 0 683.17890095 0 1036
0.03250000 0.03246190 57527.30506575 0 -2595.30299465 0 17461.84549538 0 4085.18451215 0 1505.23794997 0 1059
0.03350000 0.03345080 51281.14755882 0 -1136.79341644 0 18570.18886884 0 4423.42147107 0 8664.26836127 0 1302
0.03450000 0.03451200 56445.76404939 0 3698.75823331 0 15738.03652019 0 1923.81607275 0 6427.55673854 0 1339
0.03550000 0.03553350 53111.94627096 0 -928.81920839 0 14060.58244130 0 -3008.89412148 0 8460.08712613 0 1365
0.03650000 0.03647120 51396.37572520 0 2766.46460461 0 18594.68446570 0 6149.92166654 0 4093.51081816 0 1308
0.03750000 0.03744890 51536.75856279 0 2649.27019974 0 20288.83509492 0 -4530.36726972 0 4664.78548440 0 1579
0.03850000 0.03847530 49304.80325999 0 601.10217463 0 21961.23627043 0 -3821.18129473 0 3188.30514545 0 1662
0.03950000 0.03950240 46465.73063061 0 558.72698898 0 24211.64565517 0 2300.63085058 0 2257.64821807 0 1683
0.04050000 0.04050350 46828.00183435 0 -849.20302632 0 23004.55097420 0 2940.03183597 0 4998.60664515 0 1822
0.04150000 0.04152450 47680.62435811 0 -104.84697637 0 16199.16887716 0 6182.11744878 0 1101.51096931 0 1887
0.04250000 0.04250150 47515.52623221 0 2395.07620564 0 21953.21753244 0 -1045.49184606 0 6148.06527378 0 1920
0.04350000 0.04349210 42561.15446085 0 3892.72381595 0 18880.06366136 0 -1656.58339099 0 7355.05010902 0 2005
0.04450000 0.04448520 41666.02164120 0 237.87531308 0 23870.13529361 0 749.84537041 0 10544.95900207 0 2151
0.04550000 0.04548030 40799.44871025 0 408.82162542 0 20824.55269971 0 4281.24814815 0 5701.91587381 0 2274
0.04650000 0.04648670 40059.41805545 0 20.07232917 0 22621.62877402 0 -1038.15634849 0 8363.51076399 0 2311
0.04750000 0.04749250 38638.23405487 0 1334.46080004 0 19608.56051496 0 2615.32787046 0 6547.80485459 0 2568
0.04850000 0.04851840 39697.03700599 0 406.99708791 0 22889.65234500 0 -1419.40449982 0 6075.30346500 0 2493
0.04950000 0.04949480 38941.62794957 0 -847.59049106 0 18311.50218455 0 3707.38112278 0 3630.90652847 0 2644
0.05050000 0.05050630 39243.59384983 0 183.14028636 0 19832.86548707 0 -289.69723115 0 2087.00288302 0 2829
0.05150000 0.05149060 37544.61000868 0 1437.78168974 0 18642.90673933 0 -906.82479871 0 2857.97707879 0 2784
0.05250000 0.05249300 36813.14732048 0 229.46222894 0 16629.76412235 0 1466.16582529 0 1139.46266758 0 3055
0.05350000 0.05348950 36909.04263912 0 -754.51271530 0 17656.49212153 0 3963.67317025 0 2384.67381540 0 3009
0.05450000 0.05448610 38280.02714300 0 -203.71548926 0 13253.54589375 0 4771.83014421 0 1188.23416984 0 3336
0.05550000 0.05550870 38295.40554461 0 25.80100346 0 11253.14538096 0 1263.05009369 0 4334.97369265 0 3349
0.05650000 0.05647670 36408.36582086 0 622.23978764 0 12027.77743939 0 -1788.76075286 0 3894.54725500 0 3324
0.05750000 0.05747970 35129.10249804 0 1948.05902444 0 12397.29846103 0 -3306.25748583 0 1372.62120519 0 3639
0.05850000 0.05849280 34414.77574307 0 1516.63993631 0 14147.25071896 0 -3.18101139 0 656.61600754 0 3846
0.05950000 0.05951020 33036.76111274 0 -449.61063878 0 13935.79769677 0 2002.13607526 0 1564.77433336 0 3787
0.06050000 0.06049470 32918.12772887 0 -294.73695305 0 13856.48908274 0 2484.73228704 0 2553.92410973 0 3930
0.06150000 0.06148310 33008.86029839 0 640.05346900 0 10799.64730194 0 1010.53673919 0 -10.11657166 0 4083
0.06250000 0.06249100 32689.75846490 0 397.50202337 0 11375.29382806 0 1433.76133618 0 3132.54745503 0 4303
0.06350000 0.06350600 32459.30213214 0 -438.08562523 0 9665.46821377 0 1245.23311697 0 4212.04534089 0 4470
0.06450000 0.06451750 32469.62763037 0 -328.50682453 0 8870.56961892 0 1759.16831433 0 4232.31187730 0 4479
0.06550000 0.06550280 31667.97352338 0 -82.18843943 0 7097.36302083 0 480.35316207 0 2369.44919780 0 4636
0.06650000 0.06648880 32081.65252680 0 1434.44237968 0 8039.12535109 0 503.34936477 0 3272.05152681 0 4653
0.06750000 0.06749660 30897.73529398 0 1057.88464085 0 7574.52186919 0 -2761.49957780 0 480.28505772 0 5220
0.06850000 0.06852730 29747.98008189 0 870.49112798 0 10777.96375566 0 -1468.00024892 0 -492.65917873 0 5029
0.06950000 0.06949320 28765.08052731 0 584.44297185 0 11821.15762914 0 -1704.86058749 0 -1013.99907647 0 5040
0.07050000 0.07048030 27226.36160012 0 818.09691368 0 12352.81094208 0 944.80285995 0 -912.26545751 0 5475
0.07150000 0.07148790 27442.20845134 0 -238.35643736 0 11227.33163539 0 697.29517518 0 -1724.45706497 0 5509
0.07250000 0.07249820 27667.83157216 0 -406.25672772 0 9508.03731953 0 2552.35331586 0 -2083.93818727 0 5916
0.07350000 0.07351270 27677.38815031 0 844.03808029 0 10216.21271385 0 -774.01911929 0 -1906.01008060 0 5721
0.07450000 0.07449140 27032.15435688 0 627.88695641 0 9398.74082235 0 -1007.12712786 0 538.03095578 0 6028
0.07550000 0.07549160 25750.80396527 0 350.06185131 0 11752.28435905 0 179.96025260 0 -915.84642817 0 6183
0.07650000 0.07648840 25464.21646662 0 334.33084491 0 10143.72551939 0 1219.34247939 0 -452.70609134 0 6330
0.07750000 0.07749960 26020.36537641 0 -316.92578966 0 9634.23907392 0 1916.44542455 0 156.19732673 0 6583
0.07850000 0.07848650 25575.70987832 0 -267.66876929 0 8600.79950089 0 1737.72642865 0 1838.86138841 0 6549
0.07950000 0.07947320 26112.30624892 0 625.36709546 0 9228.94129938 0 -60.15075054 0 1463.67232732 0 6828
0.08050000 0.08048110 24871.59877585 0 292.94317234 0 7734.23755452 0 1408.09039006 0 4057.33862065 0 7147
0.08150000 0.08149960 25367.66207363 0 -224.35659960 0 8667.54176390 0 -265.72449994 0 3704.90959395 0 7386
0.08250000 0.08250610 23947.35683886 0 846.74358052 0 8320.47320862 0 -538.76362677 0 2817.25726823 0 7227
0.08350000 0.08350160 24009.52951967 0 729.42065615 0 9762.79152684 0 -144.99306270 0 2664.07740358 0 7798
0.08450000 0.08449610 22769.59096669 0 344.72225058 0 9967.46706775 0 -454.10332897 0 3535.91194479 0 7371
0.08550000 0.08548940 22731.14496265 0 1073.28940544 0 10928.81489092 0 -366.05319207 0 2691.59375790 0 8256
0.08650000 0.08650700 22023.51879696 0 265.26314790 0 10394.01999023 0 -301.27606910 0 1915.92914964 0 8037
0.08750000 0.08749060 21026.88852666 0 -126.76636142 0 10449.04171428 0 1974.45495235 0 1950.54153784 0 8155
0.08850000 0.08849210 21541.40590637 0 -178.59816560 0 9740.15232275 0 588.37435038 0 1247.33117033 0 8718
0.08950000 0.08949900 20697.24150349 0 393.30152282 0 7766.13675330 0 977.43472972 0 1777.98488716 0 8571
0.09050000 0.09049190 21030.95281851 0 448.66157171 0 7845.51127477 0 406.10953445 0 1963.07493516 0 8932
0.09150000 0.09150830 20390.11285412 0 77.16047102 0 7102.05343332 0 149.30890127 0 1635.37218134 0 9285
0.09250000 0.09250820 19873.06902271 0 453.56398646 0 6917.27095336 0 941.78320095 0 1663.59154830 0 9204
0.09350000 0.09350330 19714.01241174 0 294.12071852 0 7338.12288267 0 -413.59442220 0 1288.18279576 0 9349
0.09450000 0.09448040 18850.95454402 0 221.93230443 0 7107.08436756 0 -250.71517997 0 1185.70771815 0 9564
0.09550000 0.09549270 18364.33797867 0 110.61244898 0 6424.59090394 0 285.63843158 0 1233.61143918 0 10155
0.09650000 0.09649430 18372.90594528 0 322.24232279 0 7337.60660776 0 604.00869253 0 1480.13820162 0 9913
0.09750000 0.09749140 18834.69737660 0 327.10519307 0 6880.90103354 0 262.96737223 0 364.47141362 0 10476
0.09850000 0.09850240 17805.66261718 0 198.18146160 0 7057.85151325 0 -152.39446771 0 1390.71279623 0 10575
0.09950000 0.09950330 17454.48583175 0 390.82999399 0 7719.96859474 0 -392.53589811 0 1669.22663403 0 10882
0.10050000 0.10051200 16774.54078897 0 126.56534374 0 7349.92031362 0 75.63702065 0 875.73186756 0 10875
0.10150000 0.10150300 17055.63600133 0 367.57785075 0 7852.99176870 0 67.22986818 0 108.37840661 0 11118
0.10250000 0.10250800 16928.87403374 0 103.06253255 0 7531.89074300 0 164.35996262 0 420.57072425 0 11575
0.10350000 0.10349800 16543.42538186 0 -83.10092788 0 6488.89459183 0 153.37319312 0 -77.13092252 0 11364
0.10450000 0.10450100 16527.60759734 0 106.67052526 0 6520.07979339 0 537.64979111 0 -1221.12198015 0 12093
0.10550000 0.10551000 16024.18463594 0 433.42487109 0 6411.92569175 0 -17.05860184 0 -208.87054918 0 12067
0.10650000 0.10649700 15681.68566285 0 305.40736685 0 6087.39747941 0 -124.12017788 0 -667.63463229 0 12054
0.10750000 0.10749900 15573.15808575 0 -190.61858338 0 6178.56943184 0 785.61882793 0 -759.04385149 0 12807
0.10850000 0.10850100 15426.18450461 0 234.32619768 0 5561.81863511 0 282.91974986 0 -1097.20062303 0 12736
0.10950000 0.10950300 15421.68082985 0 181.23995531 0 5521.76888348 0 189.86943553 0 -622.05634528 0 12933
0.11050000 0.11050200 15098.40485878 0 -64.94573616 0 5055.13325565 0 651.48071986 0 176.65938854 0 13428
0.11150000 0.11150900 15633.90277212 0 5.96136049 0 5085.94498174 0 444.11505712 0 -81.40161450 0 13453
0.11250000 0.11250000 15110.37804290 0 31.13401345 0 4745.30240142 0 -34.38083341 0 1395.00776411 0 13668
0.11350000 0.11349100 15079.95077685 0 163.80853708 0 4677.01131368 0 522.28676790 0 912.86521517 0 13791
0.11450000 0.11448600 14920.78432014 0 344.61130639 0 5159.23405001 0 -372.86033170 0 1158.36711699 0 14205
0.11550000 0.11549300 14651.55244617 0 411.90938877 0 5651.55160853 0 34.58218063 0 1130.32350319 0 14776
0.11650000 0.11649800 14430.54284584 0 112.02945884 0 5648.16836017 0 -145.13036986 0 1677.70672407 0 14553
0.11750000 0.11747300 14050.47663452 0 -210.95981488 0 5919.92668584 0 -70.38068298 0 1735.39769926 0 14568
0.11850000 0.11849100 14138.90244380 0 117.28557682 0 5717.43707487 0 522.61410816 0 1458.65237765 0 16015
0.11950000 0.11950300 14284.55787623 0 248.56769603 0 5450.97331319 0 264.95228449 0 1377.75100059 0 15270
0.12050000 0.12050700 13942.71797750 0 -25.51793103 0 5744.68979945 0 154.63971434 0 1486.56417658 0 15999
0.12150000 0.12150000 14096.83153082 0 189.37403130 0 5370.24768929 0 -159.41470804 0 1210.63171333 0 15670
0.12250000 0.12250700 13780.58568620 0 130.74167823 0 5354.55073507 0 -156.87727178 0 803.90594437 0 16887
0.12350000 0.12352200 13601.09777022 0 302.97098865 0 5580.97572969 0 43.50626709 0 779.89916099 0 16407
0.12450000 0.12449800 13328.46067875 0 166.93254952 0 5178.56689775 0 123.94772009 0 511.17916810 0 16306
0.12550000 0.12549900 13363.72115674 0 -29.14448766 0 5258.12815696 0 525.89190462 0 487.58101083 0 17523
0.12650000 0.12650100 13149.63183713 0 165.16623025 0 5006.76818258 0 -33.33521195 0 225.94057497 0 17154
0.12750000 0.12750600 12850.41208001 0 4.18637439 0 4691.04959744 0 306.82767209 0 606.31984660 0 18007
0.12850000 0.12850300 12868.75631622 0 -28.12544887 0 4862.43089886 0 406.04252855 0 926.86065910 0 17496
0.12950000 0.12949900 12792.96276541 0 205.39063658 0 4032.22788773 0 204.60633810 0 523.74881451 0 18405
0.13050000 0.13049000 12664.44326621 0 294.03174349 0 4751.90412954 0 -113.85289789 0 505.94282235 0 18100
0.13150000 0.13148800 12413.00639982 0 158.04603030 0 4877.05136496 0 -719.92449315 0 66.45545581 0 19059
0.13250000 0.13249300 12125.43028964 0 233.26398951 0 5188.96928798 0 90.59570175 0 113.14439296 0 18957
0.13350000 0.13349100 11923.86338277 0 67.04104338 0 4871.95452329 0 -103.39953924 0 -100.41645886 0 19468
0.13450000 0.13450700 11988.67236100 0 26.43975636 0 5225.31723865 0 481.36923503 0 -317.84629684 0 19953
0.13550000 0.13551000 11842.35785422 0 -68.29800802 0 4609.39028487 0 348.75688409 0 153.45008513 0 19956
0.13650000 0.13649900 11896.95117995 0 22.58944398 0 4399.49707199 0 222.66607388 0 264.78531899 0 19723
0.13750000 0.13749600 11800.94601559 0 136.05711291 0 4134.03290642 0 479.41617803 0 480.89140612 0 20946
0.13850000 0.13851100 11718.67156695 0 26.19491023 0 3873.80838196 0 25.37633989 0 -281.69826539 0 20955
0.13950000 0.13949800 11749.53821591 0 300.22814088 0 4008.33644237 0 -95.24272518 0 637.68409669 0 20506
0.14050000 0.14048300 11532.37321597 0 45.33926271 0 3890.20834883 0 1.56144601 0 108.69772813 0 21447
0.14150000 0.14148400 11195.03699200 0 -129.77064202 0 3555.89288231 0 436.31601059 0 795.97727988 0 21771
0.14250000 0.14249400 11472.06791250 0 203.85279642 0 3881.57447478 0 426.05422288 0 305.84565130 0 22470
0.14350000 0.14350900 11180.09797329 0 122.83717981 0 3395.93553639 0 67.50898617 0 1050.53486333 0 22519
0.14450000 0.14449900 11094.85769006 0 44.38371474 0 3681.28177833 0 67.39254970 0 1146.07538027 0 22218
0.14550000 0.14550500 10971.66570856 0 133.00669710 0 3284.71673900 0 205.94755441 0 899.18942231 0 23559
0.14650000 0.14650700 10759.24604398 0 281.65872093 0 3617.54928821 0 -135.18383939 0 1266.14774316 0 23044
0.14750000 0.14750500 10664.04275342 0 111.48462404 0 3476.04602422 0 122.51313491 0 692.16977361 0 23649
0.14850000 0.14849900 10372.02887592 0 171.69875556 0 3803.95748492 0 -88.69251470 0 1168.34110890 0 23640
0.14950000 0.14949500 10274.80442400 0 -15.10895005 0 3337.38776453 0 209.59223560 0 1010.20500510 0 24457
0.15050000 0.15050000 10124.56842480 0 105.79538437 0 3440.71963880 0 24.32918058 0 562.42439611 0 24591
0.15150000 0.15149900 9906.05232244 0 215.09440800 0 3273.27081437 0 -273.86406823 0 305.26346895 0 25020
0.15250000 0.15250500 9869.74831006 0 28.95500379 0 3282.65163935 0 508.94161067 0 816.02412484 0 25297
0.15350000 0.15350100 10048.39041395 0 -127.03877882 0 2860.89897509 0 333.50810043 0 210.30293744 0 25452
0.15450000 0.15450400 9797.38194590 0 200.80567599 0 2816.37850242 0 131.86320310 0 503.14065789 0 26061
0.15550000 0.15549900 9663.50197528 0 183.18202774 0 2831.37244399 0 -324.10860167 0 434.54749440 0 26128
0.15650000 0.15649500 9345.59746020 0 126.69166632 0 2779.62412256 0 -89.61434003 0 295.34989220 0 26331
0.15750000 0.15749700 9284.35846806 0 263.67368024 0 3122.76020086 0 -215.45250507 0 -8.48012299 0 27345
0.15850000 0.15849900 9123.98370837 0 -4.25013984 0 3021.47145709 0 248.04922420 0 23.80236048 0 26980
0.15950000 0.15949700 9087.27326680 0 13.62295707 0 2938.69171811 0 81.91360542 0 -382.32573789 0 27777
0.16050000 0.16050000 8834.68302030 0 155.04504507 0 2783.39183096 0 -288.34503026 0 -24.89906021 0 28224
0.16150000 0.16150500 8952.07514747 0 157.34960840 0 3144.32291684 0 166.08014669 0 -204.15047834 0 28075
0.16250000 0.16249700 8674.25333774 0 -101.15297446 0 2744.79204291 0 288.52737417 0 126.38849212 0 28590
0.16350000 0.16349900 8764.56849351 0 89.97221741 0 2901.25629476 0 231.98868063 0 127.40017126 0 29163
0.16450000 0.16449100 8697.07927957 0 129.20273962 0 2882.67039795 0 -128.52499149 0 135.14209801 0 28996
0.16550000 0.16550500 8577.64402189 0 174.93810602 0 2935.14370117 0 182.91180725 0 655.60103303 0 30777
0.16650000 0.16650700 8548.55687370 0 36.78920095 0 2919.52363896 0 47.58714565 0 512.48962761 0 29211
0.16750000 0.16749900 8548.82050344 0 -22.55594103 0 2809.35936054 0 265.10167468 0 789.40411164 0 30922
0.16850000 0.16850800 8413.79813727 0 -46.39971335 0 2817.53188254 0 49.61050391 0 752.38939742 0 30867
0.16950000 0.16949900 8285.82786670 0 252.59244342 0 2876.63986760 0 -310.52727613 0 774.49035745 0 30852
0.17050000 0.17049200 8031.38122742 0 286.55784030 0 3051.56918596 0 -88.96932593 0 818.82189547 0 31257
0.17150000 0.17149500 8030.59033820 0 10.68723119 0 3130.15281821 0 101.81951832 0 539.38755049 0 32608
0.17250000 0.17250900 7907.55214071 0 45.75766508 0 3032.00566219 0 266.89875075 0 505.65722347 0 32361
0.17350000 0.17350400 7849.70738150 0 -31.78166385 0 2867.13821232 0 222.75724583 0 465.71292373 0 32508
0.17450000 0.17449800 7936.70519634 0 -26.68723878 0 2443.93558448 0 63.54102902 0 268.24765627 0 32791
0.17550000 0.17549800 7836.97626188 0 179.15837880 0 2379.71977317 0 -34.42554062 0 120.39750624 0 33633
0.17650000 0.17650100 7603.78477055 0 103.81936960 0 2358.09114975 0 -248.32493697 0 103.17281766 0 33984
0.17750000 0.17750300 7468.11431460 0 18.42552205 0 2439.82735433 0 227.65746366 0 -28.64677668 0 34069
0.17850000 0.17849800 7642.30766659 0 9.40392554 0 2168.76105674 0 304.66810512 0 -3.60842111 0 34536
