### header ###
fiducial parameters:
Omega_m = 0.31
Omega_nu = 0
Omega_de = 0.69
Omega_k = 0
H_0 = 100
w_de = -1
zeff = 0
beta = 0
fgrowth = 0
b_1 = 2
gamma = 0.55
Lx = 3500 Ly = 3500 Lz = 3500
nx = 700 ny = 700 nz = 700
xoffset = -983.599254 yoffset = -42.9823471 zoffset = 800.977702
bins = 400 dk = 0.001
kx_ny = 0.628318531 ky_ny = 0.628318531 kz_ny = 0.628318531
############################
A(data) = 9.05389234 (not used)
A(ran) = 9.04987442 (used)
Ngal = 503155
weighted Ngal = 0
Nran = 25229228
weighted Nran = 0
SN(data) = 6726.73872
SN(ran) = 134.339151
SN(data+ran) = 6861.07787
############################
13 columns: k_central k_mean P_0(k) sigma^{lin}_{P_0(k)} P^img_1(k) sigma^{lin}_{P_1(k)} P_2(k) sigma^{lin}_{P_2(k)} P^img_3(k) sigma^{lin}_{P_3(k)} P_4(k) sigma^{lin}_{P_4(k)} N_modes
### header ###
0.00050000 0 0 0 0 0 0 0 0 0 0 0 0
0.00150000 0.00179520 12834.37460404 0 -17638.58726822 0 10309.36188934 0 -52028.64772298 0 -8663.63125606 0 3
0.00250000 0.00253879 19438.40948567 0 -10613.62356527 0 -19486.08253067 0 -3980.85304177 0 3449.71600374 0 6
0.00350000 0.00331552 24571.71994438 0 -2120.37401452 0 -1387.48333189 0 -13013.53298284 0 -6154.74389391 0 7
0.00450000 0.00420575 33598.40230883 0 -5541.24453067 0 -11078.49067691 0 -17702.40763492 0 10813.29014108 0 24
0.00550000 0.00557378 41426.99734183 0 -1366.23916852 0 13598.46147280 0 -9738.71334374 0 -13210.92575213 0 45
0.00650000 0.00659388 39644.09136615 0 674.96573603 0 12425.85834974 0 -21155.95725449 0 9856.91832929 0 40
0.00750000 0.00754703 35398.66390919 0 4177.12538465 0 10215.47674749 0 8245.86599164 0 -11292.57999652 0 57
0.00850000 0.00846663 49677.72949912 0 -3207.78079264 0 26610.23692403 0 7460.44708293 0 14129.12617420 0 75
0.00950000 0.00948925 43478.14657994 0 -6161.54334434 0 13717.64408531 0 7916.48259822 0 -11477.99958170 0 112
0.01050000 0.01054430 63148.11085563 0 -4585.20225605 0 -6210.73226035 0 27479.88553529 0 5100.12606495 0 105
0.01150000 0.01145670 68123.57300635 0 -8521.38104113 0 379.71800036 0 16456.53741274 0 17056.29507568 0 144
0.01250000 0.01249090 72260.58273193 0 -4289.25590156 0 -1568.76173320 0 -23990.96559201 0 -4838.53945349 0 169
0.01350000 0.01339930 68002.30332505 0 3785.95377046 0 4552.33641489 0 -14667.91945932 0 3718.66227883 0 180
0.01450000 0.01448870 71358.96901445 0 -3391.94813654 0 -3529.44203154 0 4545.37219587 0 -7940.76948820 0 267
0.01550000 0.01550050 69248.28339295 0 -530.85143914 0 10478.68907568 0 -4975.62691931 0 18067.31513607 0 238
0.01650000 0.01653350 71727.83096174 0 13065.59985688 0 25528.58606194 0 -8973.79164747 0 -9144.66765854 0 315
0.01750000 0.01747870 65793.52547039 0 5658.62567327 0 14946.48821998 0 2356.48740216 0 19189.16953380 0 297
0.01850000 0.01844180 68471.01503709 0 -8901.68891304 0 36096.84334246 0 11154.39407345 0 -405.81844327 0 388
0.01950000 0.01947590 71519.89300277 0 634.21077484 0 25090.85084458 0 761.36049784 0 15530.75763558 0 399
0.02050000 0.02045430 65275.93241036 0 4244.14226197 0 27060.38470841 0 -7972.18536578 0 17514.02221515 0 462
0.02150000 0.02154770 75276.61682559 0 -4220.04210973 0 31135.99067327 0 9298.88007301 0 10417.59288298 0 571
0.02250000 0.02255340 70947.37707983 0 595.22542829 0 23255.21892051 0 9118.32665349 0 -3583.40923663 0 510
0.02350000 0.02348930 70806.88439652 0 3506.42935198 0 37564.16254787 0 -8912.93711536 0 19236.29335017 0 555
0.02450000 0.02439640 69982.49222429 0 2710.80577534 0 35611.43508009 0 -2480.29451972 0 8832.10164574 0 592
0.02550000 0.02547300 68315.36364362 0 3267.04256172 0 39302.25146742 0 4395.91610133 0 4933.11662342 0 837
0.02650000 0.02652900 66384.60532099 0 -650.14170046 0 35102.95921530 0 7282.00270135 0 -1543.94758374 0 723
0.02750000 0.02749970 71181.23863009 0 -2096.74619890 0 32898.46534395 0 1841.60753155 0 -5418.66768523 0 826
0.02850000 0.02848090 70252.49301834 0 746.71476722 0 32244.33404673 0 560.93928190 0 -314.59156799 0 831
0.02950000 0.02946900 61886.42284893 0 4998.22218511 0 31626.23214757 0 -3231.22187053 0 754.23151024 0 996
0.03050000 0.03053250 64606.86209443 0 2489.38974582 0 31535.60942378 0 9878.73369043 0 6480.88683842 0 1041
0.03150000 0.03150510 61348.28863817 0 -3676.17395208 0 28572.41112424 0 11711.75128623 0 4903.82076834 0 1036
0.03250000 0.03246190 62376.33478606 0 1613.21629844 0 23730.52137610 0 7067.34218397 0 4186.26454904 0 1059
0.03350000 0.03345080 58168.47456733 0 4234.64060669 0 29402.84481138 0 -3766.30237011 0 17111.54747576 0 1302
0.03450000 0.03451200 50890.75584928 0 2462.78511103 0 26663.29240960 0 -2609.48407785 0 22082.72564318 0 1339
0.03550000 0.03553350 55105.20681157 0 811.14587615 0 34161.91088225 0 7034.68504968 0 14440.09942398 0 1365
0.03650000 0.03647120 52537.34327923 0 -1030.31995441 0 27210.32412415 0 3243.62345297 0 15402.67751929 0 1308
0.03750000 0.03744890 55360.04889545 0 -1022.18587842 0 27453.85209828 0 2635.46259201 0 11863.77777075 0 1579
0.03850000 0.03847530 54699.43670041 0 2014.07630565 0 27953.10092210 0 475.18162530 0 13595.71532965 0 1662
0.03950000 0.03950240 52077.41922524 0 3774.98018245 0 32057.26677567 0 -3420.62885555 0 13930.52510193 0 1683
0.04050000 0.04050350 46608.42022845 0 1479.32534325 0 31148.29339456 0 -66.53421520 0 14434.93667487 0 1822
0.04150000 0.04152450 47596.81206932 0 320.49907112 0 32222.36490156 0 6974.40171535 0 6803.63555000 0 1887
0.04250000 0.04250150 47689.96124480 0 1633.29609712 0 30280.29246918 0 4982.85476807 0 12048.31859012 0 1920
0.04350000 0.04349210 44331.53802378 0 -1546.35320514 0 23685.59447425 0 4825.24812067 0 13605.16206207 0 2005
0.04450000 0.04448520 45237.43572457 0 -320.05858976 0 20879.03617971 0 2605.05729510 0 13044.72916897 0 2151
0.04550000 0.04548030 44709.95654921 0 220.58998966 0 15331.60733468 0 4169.06270838 0 7408.66580779 0 2274
0.04650000 0.04648670 43055.67991846 0 701.99767070 0 14774.25012191 0 -1027.83524409 0 8181.17784371 0 2311
0.04750000 0.04749250 42645.95536118 0 2050.29244145 0 16986.54303979 0 -466.05783931 0 6094.69123561 0 2568
0.04850000 0.04851840 42969.56086942 0 1545.37557818 0 17780.94732887 0 -3169.04918972 0 -688.82167589 0 2493
0.04950000 0.04949480 38578.36813431 0 1718.34964262 0 18710.57170643 0 -2973.85333495 0 -142.81152659 0 2644
0.05050000 0.05050630 38366.14619203 0 -114.46913241 0 19429.62182761 0 271.62870771 0 -5308.16288506 0 2829
0.05150000 0.05149060 38280.02714300 0 -231.82830587 0 16998.29653245 0 2322.89657920 0 -3933.75119454 0 2784
0.05250000 0.05249300 37692.02297272 0 631.85019019 0 17784.35254637 0 1923.58539673 0 -6162.87247762 0 3055
0.05350000 0.05348950 37336.23266681 0 1459.95954179 0 17350.24223796 0 -960.88317575 0 -1137.63922853 0 3009
0.05450000 0.05448610 35861.88333494 0 -214.49245342 0 16989.17933721 0 2082.26853224 0 -3328.86373620 0 3336
0.05550000 0.05550870 35621.87042404 0 777.67808041 0 17261.59673723 0 1480.78629140 0 -1922.55284690 0 3349
0.05650000 0.05647670 34820.54585423 0 493.66207021 0 15271.63156839 0 -2.08876041 0 -1864.57627282 0 3324
0.05750000 0.05747970 34717.07118051 0 106.40656598 0 15954.98182868 0 786.27790229 0 -2359.05779214 0 3639
0.05850000 0.05849280 34450.36575824 0 -47.87691867 0 14911.44743345 0 2871.32333447 0 363.88154207 0 3846
0.05950000 0.05951020 34183.00126161 0 203.05531645 0 14199.64713018 0 861.82430022 0 483.57164183 0 3787
0.06050000 0.06049470 33214.71118856 0 606.61972543 0 11665.39638993 0 612.74801848 0 463.49513853 0 3930
0.06150000 0.06148310 32430.74224343 0 1673.14812645 0 13653.38433571 0 -39.46702006 0 912.12375652 0 4083
0.06250000 0.06249100 31267.58585279 0 -68.00263286 0 12318.42922990 0 1157.71902721 0 3693.66139163 0 4303
0.06350000 0.06350600 32681.08065256 0 -597.25867268 0 12821.96203702 0 1751.69880497 0 -235.81131189 0 4470
0.06450000 0.06451750 30972.75992471 0 628.09126946 0 10783.67573340 0 367.81292060 0 889.21872578 0 4479
0.06550000 0.06550280 30448.02689250 0 1283.14087694 0 12000.97508229 0 -1185.96036332 0 2327.60896084 0 4636
0.06650000 0.06648880 29072.97809677 0 85.44953934 0 12147.06989763 0 376.24358006 0 3170.93853620 0 4653
0.06750000 0.06749660 29356.48991509 0 495.81284952 0 11176.47306434 0 2802.93338558 0 2290.33830607 0 5220
0.06850000 0.06852730 28677.20394666 0 -249.30476085 0 9595.94685390 0 1806.76446732 0 3033.87303953 0 5029
0.06950000 0.06949320 28812.20434369 0 443.79320915 0 9966.68716309 0 -572.17100736 0 2435.67518590 0 5040
0.07050000 0.07048030 27598.84845635 0 1044.17040198 0 10447.49288955 0 -973.86913746 0 1857.16168633 0 5475
0.07150000 0.07148790 26400.87097063 0 1027.34972599 0 9549.88854107 0 -829.84161869 0 2076.57852364 0 5509
0.07250000 0.07249820 25723.56222526 0 -510.52229066 0 10324.70733724 0 1965.50252570 0 2290.61292039 0 5916
0.07350000 0.07351270 26983.49270034 0 -589.63977314 0 9401.41007348 0 2389.84754909 0 -1385.26444823 0 5721
0.07450000 0.07449140 25861.08907398 0 989.97581624 0 6661.98948657 0 -571.90737762 0 914.02408758 0 6028
0.07550000 0.07549160 25787.82197486 0 160.04192714 0 7579.00357480 0 101.56577469 0 756.41744018 0 6183
0.07650000 0.07648840 25224.97247580 0 34.91171781 0 7443.02555082 0 -135.08497823 0 -1029.55652662 0 6330
0.07750000 0.07749960 25032.52276417 0 540.53983216 0 7513.51355307 0 44.32297006 0 -491.66946874 0 6583
0.07850000 0.07848650 24468.35511639 0 65.18838537 0 7053.33685392 0 -726.06486923 0 -1516.16759969 0 6549
0.07950000 0.07947320 23341.44781527 0 839.60470680 0 7352.38085788 0 -234.97318900 0 -950.43684723 0 6828
0.08050000 0.08048110 23178.43675817 0 882.21715921 0 8915.51848992 0 -435.24501476 0 -1868.05838233 0 7147
0.08150000 0.08149960 22800.12807847 0 649.22448865 0 8379.74596227 0 1103.35637751 0 -853.80116840 0 7386
0.08250000 0.08250610 22134.79251721 0 -632.63009485 0 8234.54089731 0 963.97972676 0 22.60020886 0 7227
0.08350000 0.08350160 22347.67353384 0 -412.93864322 0 6688.67101337 0 1576.01155111 0 -654.70579036 0 7798
0.08450000 0.08449610 22131.60699116 0 580.07111196 0 6594.86276352 0 167.68938657 0 233.01354125 0 7371
0.08550000 0.08548940 21845.23918397 0 736.40354894 0 6866.17072171 0 -1501.56910272 0 263.42213353 0 8256
0.08650000 0.08650700 20760.95202446 0 515.63890457 0 6984.18896952 0 -773.43364157 0 -820.91994884 0 8037
0.08750000 0.08749060 21238.67108603 0 -534.15779549 0 7022.21755980 0 1383.05654914 0 -2117.19947305 0 8155
0.08850000 0.08849210 20610.90276300 0 224.47413453 0 6559.88788442 0 -404.32563986 0 -2957.53026009 0 8718
0.08950000 0.08949900 20584.53978881 0 497.43746780 0 7178.24242875 0 -1081.30814342 0 -3641.86913191 0 8571
0.09050000 0.09049190 19721.70161254 0 855.85638193 0 7438.12643145 0 -334.30118657 0 -1581.66860599 0 8932
0.09150000 0.09150830 19733.78464238 0 -336.96165005 0 7211.40485337 0 1631.25296662 0 -1934.84458362 0 9285
0.09250000 0.09250820 20208.42802362 0 -201.84042272 0 6975.71986406 0 928.04150065 0 -2948.14943511 0 9204
0.09350000 0.09350330 19883.06498376 0 364.26929749 0 5540.28887285 0 1079.43087997 0 -1271.27753856 0 9349
0.09450000 0.09448040 19780.13953868 0 -143.80892578 0 6172.41807119 0 108.94323333 0 960.24167672 0 9564
0.09550000 0.09549270 18788.34248031 0 549.04518671 0 5776.00681588 0 -347.77815867 0 -169.12726712 0 10155
0.09650000 0.09649430 18395.75385625 0 1101.96133679 0 6082.48737547 0 -123.22054139 0 1067.63235056 0 9913
0.09750000 0.09749140 17650.23091515 0 46.21967620 0 6811.15998222 0 577.37989168 0 962.23537664 0 10476
0.09850000 0.09850240 17720.64202540 0 -105.19958115 0 6315.93151197 0 985.88186603 0 1083.66872807 0 10575
0.09950000 0.09950330 17309.37962795 0 467.63192856 0 6046.10647108 0 336.06750584 0 1619.91688772 0 10882
0.10050000 0.10051200 17159.33036649 0 28.81407172 0 5007.83368612 0 -302.86224138 0 1286.68889389 0 10875
0.10150000 0.10150300 17022.35274640 0 61.18945172 0 5632.92177343 0 520.15685927 0 1846.92406468 0 11118
0.10250000 0.10250800 16740.59845969 0 109.86879342 0 5783.54223267 0 -487.37559932 0 -202.30177477 0 11575
0.10350000 0.10349800 16757.18516429 0 508.76036522 0 5417.14082964 0 -187.96361218 0 1167.48431224 0 11364
0.10450000 0.10450100 16618.77954977 0 34.33832312 0 6732.38961224 0 -465.83924632 0 122.62517755 0 12093
0.10550000 0.10551000 16324.61269604 0 -3.18291172 0 6176.11987215 0 393.39159631 0 423.00161016 0 12067
0.10650000 0.10649700 16102.83417562 0 165.72644345 0 6296.44488021 0 251.05350480 0 -237.73910438 0 12054
0.10750000 0.10749900 16030.55568803 0 -126.90586549 0 5966.50127358 0 801.90565370 0 512.66647923 0 12807
0.10850000 0.10850100 16499.26740008 0 50.18917120 0 5882.13975616 0 550.46878731 0 1188.34401557 0 12736
0.10950000 0.10950300 16272.76551345 0 137.10943496 0 5405.33241412 0 507.09730093 0 1915.41287473 0 12933
0.11050000 0.11050200 16111.07260506 0 -48.40176155 0 5152.54444530 0 103.06670669 0 1620.13657917 0 13428
0.11150000 0.11150900 15844.47702851 0 353.67467723 0 4685.70011060 0 135.64299452 0 1164.14500217 0 13453
0.11250000 0.11250000 15571.94978276 0 308.51160706 0 5506.47835845 0 -999.70704909 0 792.07116587 0 13668
0.11350000 0.11349100 14859.71009659 0 630.33541764 0 5889.03806774 0 -279.47608636 0 628.69212558 0 13791
0.11450000 0.11448600 14729.98229440 0 240.45778609 0 5798.27254450 0 420.76075736 0 943.04642680 0 14205
0.11550000 0.11549300 14236.99467695 0 -111.13311772 0 5556.37028711 0 742.13420045 0 297.17113433 0 14776
0.11650000 0.11649800 14124.29296227 0 229.38863230 0 5253.91008108 0 396.70014957 0 718.23396743 0 14553
0.11750000 0.11747300 14104.41088590 0 -105.25252679 0 4315.49804546 0 723.22206184 0 1454.63202408 0 14568
0.11850000 0.11849100 14055.41969218 0 -11.29422768 0 4387.20533527 0 411.35137248 0 957.92942419 0 16015
0.11950000 0.11950300 13938.21430274 0 273.65206598 0 4098.33304553 0 -681.35765882 0 152.97555160 0 15270
0.12050000 0.12050700 13927.33957589 0 92.05500221 0 4138.95399493 0 -307.93821237 0 -61.30577834 0 15999
0.12150000 0.12150000 13517.61501860 0 -25.12973623 0 4155.23313150 0 82.84696456 0 -22.07240014 0 15670
0.12250000 0.12250700 13449.07128569 0 370.96439447 0 4543.85632485 0 -332.37119717 0 -931.68508338 0 16887
0.12350000 0.12352200 13352.40704698 0 77.00800516 0 4275.94259959 0 -113.06420558 0 -771.90129369 0 16407
0.12450000 0.12449800 12912.36506937 0 187.72085313 0 4956.89822306 0 323.62637893 0 -1163.06851406 0 16306
0.12550000 0.12549900 13165.01023874 0 15.24186338 0 4166.05293549 0 528.42824243 0 -1026.84333719 0 17523
0.12650000 0.12650100 13083.72440164 0 -103.74851911 0 4161.60418360 0 45.98735249 0 -134.72468425 0 17154
0.12750000 0.12750600 12923.34964195 0 9.31580730 0 3764.54483850 0 730.14783485 0 48.57839348 0 18007
0.12850000 0.12850300 13045.38824333 0 59.29768863 0 3460.70057632 0 367.11759716 0 916.41323212 0 17496
0.12950000 0.12949900 13230.03890842 0 24.89949959 0 3251.60923724 0 491.32565162 0 585.54472448 0 18405
0.13050000 0.13049000 12869.52523630 0 241.23549383 0 3003.14919002 0 419.71063222 0 1237.40111672 0 18100
0.13150000 0.13148800 12787.03109622 0 163.38233566 0 3205.08957236 0 -165.63307458 0 1484.76270668 0 19059
0.13250000 0.13249300 12311.17941199 0 177.95337119 0 3699.77979856 0 -154.90114717 0 1641.33680425 0 18957
0.13350000 0.13349100 12169.58827142 0 222.22778944 0 3262.80251670 0 -50.93019046 0 1711.38542360 0 19468
0.13450000 0.13450700 12071.60588399 0 132.73647662 0 3565.99868909 0 182.94366251 0 1383.26525602 0 19953
0.13550000 0.13551000 11696.37288461 0 276.46631347 0 3646.01031577 0 -460.47328261 0 938.72070211 0 19956
0.13650000 0.13649900 11653.09366864 0 88.54685927 0 3915.62664978 0 -185.24712738 0 1329.69349554 0 19723
0.13750000 0.13749600 11653.20351437 0 -192.60679101 0 3966.32045224 0 236.14304598 0 923.21817483 0 20946
0.13850000 0.13851100 11663.74870405 0 137.62790679 0 3921.02007492 0 -102.38577304 0 178.68823910 0 20955
0.13950000 0.13949800 11605.64031509 0 311.65868711 0 3994.41898891 0 -719.40382441 0 10.52105657 0 20506
0.14050000 0.14048300 11264.89887362 0 113.05322101 0 4274.19605255 0 231.29225873 0 126.37311372 0 21447
0.14150000 0.14148400 11404.73248258 0 -21.48791104 0 4056.19622510 0 268.91551828 0 149.39567939 0 21771
0.14250000 0.14249400 11282.25449830 0 137.35768630 0 3829.40873959 0 350.37930546 0 165.98238399 0 22470
0.14350000 0.14350900 11418.13366113 0 -203.53204690 0 3700.81234838 0 611.86705576 0 306.40915987 0 22519
0.14450000 0.14449900 11332.56384072 0 -16.17082868 0 3411.57756774 0 -80.32578546 0 83.70123477 0 22218
0.14550000 0.14550500 11070.25224748 0 344.92107134 0 3406.68943294 0 -333.67945976 0 -46.56096687 0 23559
0.14650000 0.14650700 10820.16648352 0 369.52431701 0 3657.46722497 0 -131.07231387 0 501.73682951 0 23044
0.14750000 0.14750500 10394.23968168 0 85.57267640 0 3672.63691971 0 363.74643183 0 525.05158482 0 23649
0.14850000 0.14849900 10275.48546750 0 25.07470352 0 3458.73433783 0 514.08458755 0 482.48416915 0 23640
0.14950000 0.14949500 10138.18929481 0 174.06263558 0 3140.17074840 0 490.60616212 0 594.95191244 0 24457
0.15050000 0.15050000 10260.16198875 0 -14.32443187 0 2968.41597152 0 -20.25060878 0 890.97186356 0 24591
0.15150000 0.15149900 9911.03931840 0 175.53566676 0 3096.89153243 0 -330.50381983 0 633.55389740 0 25020
0.15250000 0.15250500 9728.76132098 0 167.23352681 0 2879.45191818 0 53.11952563 0 596.54028163 0 25297
0.15350000 0.15350100 9796.31644236 0 30.06609330 0 3210.18641403 0 39.77722439 0 311.21710729 0 25452
0.15450000 0.15450400 9740.95419655 0 40.02064251 0 2912.13102161 0 -7.20916400 0 81.04736203 0 26061
0.15550000 0.15549900 9766.99861814 0 -24.13376504 0 2811.23772245 0 156.35220921 0 191.08103388 0 26128
0.15650000 0.15649500 9620.61820392 0 -0.74630504 0 2990.39610125 0 -31.42752123 0 -52.35280246 0 26331
0.15750000 0.15749700 9499.37049176 0 171.24728963 0 2529.51638946 0 158.15917140 0 49.40124781 0 27345
0.15850000 0.15849900 9443.36015617 0 120.34258337 0 2654.16931911 0 305.62046756 0 -112.86208944 0 26980
0.15950000 0.15949700 9379.16631401 0 25.55967240 0 2578.62841347 0 220.32086764 0 707.61298420 0 27777
0.16050000 0.16050000 9162.57251185 0 101.21877205 0 2133.33581017 0 0.68630401 0 -214.28814037 0 28224
0.16150000 0.16150500 9064.26058725 0 262.19405832 0 2595.66548554 0 91.05683410 0 480.98367653 0 28075
0.16250000 0.16249700 8849.32545555 0 102.76671801 0 2214.40195582 0 -274.41329686 0 86.84139453 0 28590
0.16350000 0.16349900 8701.42917031 0 176.26394393 0 2583.17602652 0 40.20683102 0 -0.91070675 0 29163
0.16450000 0.16449100 8496.96233628 0 8.58665137 0 2465.78389934 0 69.25399537 0 194.13254814 0 28996
0.16550000 0.16550500 8437.50284490 0 -20.93033413 0 2247.31173527 0 137.06989050 0 73.12550798 0 30777
0.16650000 0.16650700 8503.06975864 0 133.67016529 0 2218.82873857 0 84.44115558 0 -67.74910893 0 29211
0.16750000 0.16749900 8442.28113397 0 27.33401041 0 2050.44622547 0 73.86004635 0 -135.69681893 0 30922
0.16850000 0.16850800 8230.02623798 0 100.50719143 0 2204.46091763 0 -13.27221967 0 45.11221160 0 30867
0.16950000 0.16949900 8360.24834593 0 13.18467262 0 2040.77980160 0 107.12473734 0 -140.28287798 0 30852
0.17050000 0.17049200 8258.02591349 0 28.93665955 0 1900.41893315 0 243.38187931 0 59.80451681 0 31257
0.17150000 0.17149500 8246.00879109 0 -0.24362464 0 1801.71156394 0 29.94603193 0 -139.69740026 0 32608
0.17250000 0.17250900 8071.38704076 0 159.65197481 0 1874.13285097 0 -251.78727425 0 -153.87958192 0 32361
0.17350000 0.17350400 8015.84904179 0 296.83500641 0 2069.57036633 0 -199.87198732 0 -224.23576930 0 32508
0.17450000 0.17449800 7866.51377755 0 -3.38440174 0 1974.72956667 0 112.92250459 0 -35.88978415 0 32791
0.17550000 0.17549800 7779.13150266 0 61.00535028 0 2338.42876483 0 49.31963243 0 -652.25293531 0 33633
0.17650000 0.17650100 7701.16300648 0 26.41767737 0 1954.88044401 0 -179.44837152 0 -208.63547932 0 33984
0.17750000 0.17750300 7676.31590330 0 101.26842231 0 2002.41068957 0 117.95673421 0 -438.40417784 0 34069
0.17850000 0.17849800 7582.76029863 0 3.03345563 0 2307.03485640 0 -76.30136760 0 -444.48853259 0 34536
