### header ###
fiducial parameters:
Omega_m = 0.31
Omega_nu = 0
Omega_de = 0.69
Omega_k = 0
H_0 = 100
w_de = -1
zeff = 0
beta = 0
fgrowth = 0
b_1 = 2
gamma = 0.55
Lx = 3500 Ly = 3500 Lz = 3500
nx = 700 ny = 700 nz = 700
xoffset = -983.599254 yoffset = -42.9823471 zoffset = 800.977702
bins = 400 dk = 0.001
kx_ny = 0.628318531 ky_ny = 0.628318531 kz_ny = 0.628318531
############################
A(data) = 9.07640565 (not used)
A(ran) = 9.07668676 (used)
Ngal = 504736
weighted Ngal = 0
Nran = 25229228
weighted Nran = 0
SN(data) = 6742.16092
SN(ran) = 134.737162
SN(data+ran) = 6876.89809
############################
13 columns: k_central k_mean P_0(k) sigma^{lin}_{P_0(k)} P^img_1(k) sigma^{lin}_{P_1(k)} P_2(k) sigma^{lin}_{P_2(k)} P^img_3(k) sigma^{lin}_{P_3(k)} P_4(k) sigma^{lin}_{P_4(k)} N_modes
### header ###
0.00050000 0 0 0 0 0 0 0 0 0 0 0 0
0.00150000 0.00179520 30562.81567597 0 -13028.47200155 0 -8622.05464884 0 -2453.09671801 0 -31683.13223355 0 3
0.00250000 0.00253879 51083.75478954 0 -1553.30643958 0 14088.92263856 0 -22041.86303317 0 20319.70174387 0 6
0.00350000 0.00331552 47880.21404191 0 4769.40255367 0 25951.82164350 0 -56226.40213494 0 72993.36356883 0 7
0.00450000 0.00420575 34302.73310274 0 9436.92319664 0 18441.66936964 0 4598.85607977 0 8845.10737968 0 24
0.00550000 0.00557378 38792.89683682 0 -11798.41956389 0 16555.72810315 0 37310.96814987 0 -79.75733383 0 45
0.00650000 0.00659388 69997.87062590 0 -17264.67241755 0 -8360.51197568 0 34555.37827212 0 -10464.28830103 0 40
0.00750000 0.00754703 80963.65958813 0 -6689.22024200 0 2893.33641793 0 -9449.93991515 0 1563.36830807 0 57
0.00850000 0.00846663 87356.79067620 0 8764.06320317 0 -11207.44955902 0 -19173.90097791 0 14786.66268892 0 75
0.00950000 0.00948925 70491.84685488 0 8490.48143846 0 28457.40264931 0 -32857.60273394 0 -274.95373783 0 112
0.01050000 0.01054430 56945.67194757 0 5923.58454851 0 29887.59399940 0 5289.01677505 0 6030.32164028 0 105
0.01150000 0.01145670 61432.86984705 0 4808.70535436 0 43373.46360324 0 -1722.77642537 0 -18490.33102618 0 144
0.01250000 0.01249090 60149.32254092 0 -5270.32103252 0 24395.96678308 0 13882.63236548 0 -11737.23549462 0 169
0.01350000 0.01339930 76997.24027473 0 -7706.90793794 0 34951.81149658 0 11030.26840328 0 -23385.60579705 0 180
0.01450000 0.01448870 64052.25102480 0 5417.14082964 0 14659.57118416 0 -4537.62807220 0 -15005.14583757 0 267
0.01550000 0.01550050 74614.90617329 0 284.08521301 0 27734.06854483 0 1045.22601941 0 -4968.14642538 0 238
0.01650000 0.01653350 65946.97994935 0 -6123.42687748 0 24865.88679811 0 -5673.76241429 0 -20160.20574999 0 315
0.01750000 0.01747870 74843.71482016 0 3697.56091490 0 27487.68458183 0 5291.24664329 0 -25861.30876543 0 297
0.01850000 0.01844180 69722.26769983 0 8469.90733401 0 27727.25810983 0 -4633.08400793 0 -15273.27925428 0 388
0.01950000 0.01947590 68296.47017878 0 -3092.81625600 0 31130.16884980 0 2103.96306309 0 -18881.27196435 0 399
0.02050000 0.02045430 67723.07549003 0 918.50908856 0 27571.16733345 0 3880.44306380 0 -10027.28905002 0 462
0.02150000 0.02154770 60105.05471342 0 2177.76840626 0 25345.03385411 0 -1761.20046026 0 -12946.63693582 0 571
0.02250000 0.02255340 60847.50197419 0 1735.57345242 0 32218.08091826 0 7202.11190497 0 -762.39414612 0 510
0.02350000 0.02348930 63179.63657893 0 4002.39378860 0 28376.00696648 0 1199.33957272 0 -12506.48511249 0 555
0.02450000 0.02439640 63838.93062527 0 -172.37979906 0 30284.02722386 0 3521.24754039 0 694.11184604 0 592
0.02550000 0.02547300 59721.58328460 0 779.86620727 0 27859.73205516 0 3843.82049882 0 38.44128067 0 837
0.02650000 0.02652900 59781.55905090 0 -541.49548997 0 27152.43542664 0 -2883.51621004 0 5361.37215465 0 723
0.02750000 0.02749970 57001.14403911 0 -734.85252729 0 26273.44992869 0 6015.83298904 0 -1389.38366295 0 826
0.02850000 0.02848090 57113.29652516 0 3904.83979951 0 27782.94989281 0 1844.58435072 0 10124.74417797 0 831
0.02950000 0.02946900 53606.58157429 0 2973.83136580 0 34505.94769550 0 -4100.40912974 0 2308.38595882 0 996
0.03050000 0.03053250 52657.18496609 0 2852.68251480 0 31454.10389522 0 546.62638382 0 -1026.28751782 0 1041
0.03150000 0.03150510 52359.17351196 0 -2955.33334557 0 31402.47640409 0 10725.06205411 0 7340.40767376 0 1036
0.03250000 0.03246190 55795.14781540 0 -5917.53204901 0 20812.24997842 0 7674.82200143 0 4295.73679939 0 1059
0.03350000 0.03345080 58335.54991629 0 635.22245398 0 21479.01353411 0 6272.44358912 0 2291.86516166 0 1302
0.03450000 0.03451200 58466.15648428 0 3282.70656222 0 13520.47100747 0 -5034.60308950 0 -476.08785253 0 1339
0.03550000 0.03553350 54756.00724921 0 430.02624433 0 19204.43808969 0 2606.32052095 0 5176.67755126 0 1365
0.03650000 0.03647120 54798.29785364 0 1166.79228416 0 25666.00306494 0 -2890.55732106 0 -2977.40135189 0 1308
0.03750000 0.03744890 49084.12319683 0 2193.03696215 0 18741.98758401 0 -4612.30119661 0 839.67720498 0 1579
0.03850000 0.03847530 46350.61230996 0 1649.65212569 0 24962.00180820 0 3981.76476129 0 -1707.62869978 0 1662
0.03950000 0.03950240 48186.68361693 0 1687.82351541 0 21219.44808401 0 1230.54674342 0 -814.77188356 0 1683
0.04050000 0.04050350 45877.72646033 0 1408.37598894 0 22566.81575684 0 1694.64493499 0 -951.15523828 0 1822
0.04150000 0.04152450 44564.85034541 0 1940.02930188 0 20994.26434609 0 882.93445180 0 -3617.83488710 0 1887
0.04250000 0.04250150 41788.49962548 0 -789.55679720 0 21292.38564595 0 1473.37170491 0 3495.74136286 0 1920
0.04350000 0.04349210 41107.01674253 0 411.56447319 0 15465.28958300 0 6159.42332183 0 -3175.42024181 0 2005
0.04450000 0.04448520 42378.37117310 0 1412.78080255 0 17691.20337088 0 -1864.49938081 0 2168.06902867 0 2151
0.04550000 0.04548030 38088.01681428 0 1768.26354043 0 17019.49675753 0 -2712.84890584 0 -4939.89410470 0 2274
0.04650000 0.04648670 36912.11831944 0 1224.42833650 0 18061.71300405 0 3319.83441754 0 292.65317963 0 2311
0.04750000 0.04749250 37038.44090413 0 -933.76556142 0 18636.53568723 0 -636.40439399 0 -1678.26693727 0 2568
0.04850000 0.04851840 35465.12057330 0 904.38402668 0 14623.10240319 0 4322.41832619 0 -1489.61788776 0 2493
0.04950000 0.04949480 38037.15824322 0 -1279.63679829 0 14043.44650807 0 2919.30394751 0 1225.63663948 0 2644
0.05050000 0.05050630 37739.91570917 0 -742.64717999 0 10712.90213226 0 1092.54426271 0 -1264.81860988 0 2829
0.05150000 0.05149060 38728.19770432 0 1727.57668359 0 14250.39585550 0 -2509.06311531 0 -2142.62875857 0 2784
0.05250000 0.05249300 35788.06700719 0 1208.52267540 0 13381.95554722 0 -2991.16502134 0 800.56224047 0 3055
0.05350000 0.05348950 35940.86241180 0 -270.30726362 0 16761.13961042 0 2204.32910276 0 -2486.88526327 0 3009
0.05450000 0.05448610 37071.06508469 0 -0.23183160 0 14764.25416086 0 1920.72940786 0 -2223.60702764 0 3336
0.05550000 0.05550870 36791.83724968 0 -273.21378153 0 12224.62098005 0 909.34685657 0 -2045.83270498 0 3349
0.05650000 0.05647670 36166.81506980 0 -179.05951765 0 11103.31581095 0 490.00530599 0 -1439.34149905 0 3324
0.05750000 0.05747970 35593.85976396 0 1842.57417394 0 12786.59171331 0 -474.09964490 0 -3197.59809386 0 3639
0.05850000 0.05849280 33373.98749099 0 1342.33673859 0 12777.14498089 0 -1350.17972341 0 -91.57904069 0 3846
0.05950000 0.05951020 33504.59405898 0 153.96086776 0 13447.64329126 0 2695.81183377 0 -2762.86166480 0 3787
0.06050000 0.06049470 32456.00676037 0 -478.69888544 0 11128.58032788 0 1217.72774722 0 -1465.02342975 0 3930
0.06150000 0.06148310 32870.12514669 0 -166.75130407 0 10602.69391555 0 2393.83494893 0 -827.94568146 0 4083
0.06250000 0.06249100 32804.54724838 0 81.53881181 0 8670.89205853 0 790.68930664 0 -155.17246611 0 4303
0.06350000 0.06350600 32625.38886957 0 -85.55356324 0 7503.11116284 0 277.08584336 0 -454.24832533 0 4470
0.06450000 0.06451750 31687.63590830 0 1521.46216367 0 9623.24351676 0 -954.08811915 0 -1701.99361404 0 4479
0.06550000 0.06550280 30840.28597938 0 225.68792980 0 9386.99831426 0 299.96560959 0 444.32266554 0 4636
0.06650000 0.06648880 30050.05582788 0 771.41577558 0 10748.83266918 0 -1331.82450262 0 -901.87844568 0 4653
0.06750000 0.06749660 29157.44945992 0 1212.11463063 0 10325.26755044 0 -1165.35330515 0 -1035.05320674 0 5220
0.06850000 0.06852730 28081.18103840 0 150.62155769 0 11136.15968297 0 1851.15312513 0 300.30283597 0 5029
0.06950000 0.06949320 28152.03153155 0 -450.53993362 0 9777.68660726 0 1425.62176790 0 -85.92934547 0 5040
0.07050000 0.07048030 28617.11833464 0 -84.01001110 0 9511.47549075 0 2187.55566043 0 -252.95163895 0 5475
0.07150000 0.07148790 28461.24724971 0 543.10143448 0 9255.65577990 0 241.78801783 0 1019.32439726 0 5509
0.07250000 0.07249820 27593.46601579 0 533.72720024 0 8930.57833893 0 -594.38291158 0 2334.78188674 0 5916
0.07350000 0.07351270 27269.97035327 0 -362.32942197 0 9261.76320226 0 306.07962269 0 232.17541837 0 5721
0.07450000 0.07449140 27113.76973116 0 1161.44279732 0 9301.48341671 0 161.89282762 0 1524.30716797 0 6028
0.07550000 0.07549160 26150.75225295 0 108.01020374 0 8917.04534551 0 -85.36913227 0 711.67947297 0 6183
0.07650000 0.07648840 25863.94506285 0 -59.82923210 0 8919.81345780 0 1277.78040552 0 2031.08042401 0 6330
0.07750000 0.07749960 25675.99902599 0 589.12679360 0 9284.78686639 0 -149.11117896 0 48.35419835 0 6583
0.07850000 0.07848650 25609.32267042 0 695.72877513 0 8593.03340808 0 -33.65958638 0 1355.41936453 0 6549
0.07950000 0.07947320 25098.32035393 0 94.82168651 0 9188.73776374 0 535.58359301 0 -126.32588006 0 6828
0.08050000 0.08048110 24859.73543747 0 20.59431606 0 9200.95260845 0 213.08313276 0 1543.84872259 0 7147
0.08150000 0.08149960 24177.37378871 0 173.25307258 0 7679.84195110 0 294.88304786 0 -420.31258680 0 7386
0.08250000 0.08250610 23895.50965628 0 403.32494530 0 9352.72644780 0 -1130.75190152 0 712.40775013 0 7227
0.08350000 0.08350160 22680.83562023 0 946.94155623 0 8641.80491034 0 -30.48921904 0 -1195.14346600 0 7798
0.08450000 0.08449610 22565.16807095 0 655.07267509 0 9975.54072859 0 -467.21121943 0 -441.21952379 0 7371
0.08550000 0.08548940 22020.11357946 0 644.95698220 0 9997.07049085 0 116.37275884 0 -1942.32507755 0 8256
0.08650000 0.08650700 21801.30089364 0 -316.15247575 0 9096.34652376 0 -19.78596136 0 -2275.14664219 0 8037
0.08750000 0.08749060 21314.35479111 0 -499.48609059 0 8742.92888552 0 1445.39399854 0 -1231.32664808 0 8155
0.08850000 0.08849210 21540.96652347 0 497.68352223 0 8475.21288257 0 578.63542832 0 -2458.30340541 0 8718
0.08950000 0.08949900 20995.69234053 0 687.70124948 0 7277.13653570 0 18.66641372 0 -1026.59179048 0 8571
0.09050000 0.09049190 20190.63301604 0 258.48676507 0 7636.96916432 0 784.26992242 0 -377.76494336 0 8932
0.09150000 0.09150830 19483.44623325 0 149.46817757 0 6738.71672605 0 1743.61415955 0 774.80891005 0 9285
0.09250000 0.09250820 19875.81516586 0 14.52237387 0 6976.98308991 0 363.43007614 0 652.29797206 0 9204
0.09350000 0.09350330 19222.78232590 0 744.38054555 0 5745.08524406 0 393.66730908 0 1844.46352042 0 9349
0.09450000 0.09448040 18808.55409386 0 -274.38913080 0 6163.52056740 0 364.37804475 0 2996.02020242 0 9564
0.09550000 0.09549270 18647.30056836 0 21.32808551 0 5146.60179154 0 1234.99549532 0 1614.17195626 0 10155
0.09650000 0.09649430 19226.84661775 0 138.72965942 0 4978.04352528 0 175.19075119 0 1706.84879512 0 9913
0.09750000 0.09749140 18498.02022698 0 309.68585787 0 4759.24182403 0 -257.62667304 0 1901.38557554 0 10476
0.09850000 0.09850240 17708.99837846 0 569.00525354 0 5317.43386432 0 -627.44208122 0 1283.97570446 0 10575
0.09950000 0.09950330 17436.91051562 0 483.06635150 0 5252.52602494 0 -39.01116029 0 2073.41496674 0 10882
0.10050000 0.10051200 17173.83000230 0 -186.08085644 0 5244.54024067 0 931.75758155 0 1816.18923060 0 10875
0.10150000 0.10150300 17230.07101392 0 -75.82727345 0 4642.01446544 0 1337.51451122 0 2149.28540956 0 11118
0.10250000 0.10250800 17687.90799911 0 47.75356192 0 4075.51808828 0 338.08976565 0 1847.33049387 0 11575
0.10350000 0.10349800 16571.54588767 0 209.50985130 0 4186.91263882 0 -238.80350946 0 2724.84405910 0 11364
0.10450000 0.10450100 16348.77875572 0 584.12002541 0 4795.75454329 0 -1144.69132413 0 1323.67394977 0 12093
0.10550000 0.10551000 15939.38373561 0 630.86707095 0 5364.51374241 0 -540.55301364 0 2315.58085386 0 12067
0.10650000 0.10649700 15711.01447164 0 396.34864325 0 6102.87474218 0 -152.58779618 0 450.17414736 0 12054
0.10750000 0.10749900 15315.13047581 0 -142.09423400 0 6381.14691938 0 18.42870757 0 1521.42920995 0 12807
0.10850000 0.10850100 15538.44683639 0 69.73270304 0 5923.01335073 0 443.70423411 0 147.50084062 0 12736
0.10950000 0.10950300 15033.48603483 0 15.73386238 0 5768.47139908 0 88.49226594 0 830.20301113 0 12933
0.11050000 0.11050200 15452.65732453 0 60.36670723 0 5834.86215577 0 417.59829891 0 851.41971307 0 13428
0.11150000 0.11150900 14834.55542538 0 167.52571644 0 5583.60104254 0 -69.90625929 0 1047.94360266 0 13453
0.11250000 0.11250000 14905.62560998 0 96.87821819 0 5209.65323815 0 471.68413739 0 1186.70731425 0 13668
0.11350000 0.11349100 14757.66341731 0 121.97928469 0 5297.72754111 0 -190.99315730 0 197.73988178 0 13791
0.11450000 0.11448600 14735.47458069 0 300.45222616 0 5237.03777760 0 240.33256196 0 873.48771938 0 14205
0.11550000 0.11549300 14410.66076946 0 -126.06884106 0 4748.60875777 0 358.94287824 0 10.26832353 0 14776
0.11650000 0.11649800 14202.94250195 0 20.17756137 0 4469.38092275 0 286.40735166 0 1647.52111861 0 14553
0.11750000 0.11747300 14414.72506132 0 -19.60032209 0 4126.27779817 0 1180.06164784 0 791.71856109 0 14568
0.11850000 0.11849100 14794.90111836 0 -197.38288317 0 3549.48887650 0 597.47397030 0 1234.54512784 0 16015
0.11950000 0.11950300 14248.63832389 0 319.22376224 0 3127.83507339 0 98.58445185 0 1462.14547173 0 15270
0.12050000 0.12050700 14121.32712767 0 476.63708116 0 3837.44944672 0 -1015.15575196 0 1408.79340270 0 15999
0.12150000 0.12150000 13203.45624277 0 556.46636394 0 4308.38004243 0 -429.13649395 0 2124.60307497 0 15670
0.12250000 0.12250700 13255.08373391 0 159.37955741 0 4993.46586518 0 43.04491504 0 1385.61595456 0 16887
0.12350000 0.12352200 12896.54728485 0 -41.31462516 0 4891.37524761 0 88.44777842 0 869.12025332 0 16407
0.12450000 0.12449800 13019.35480631 0 94.22313715 0 4511.13328313 0 443.31428178 0 1133.73970527 0 16306
0.12550000 0.12549900 12904.12663993 0 22.94303737 0 4295.34135477 0 -186.32251704 0 1736.52911024 0 17523
0.12650000 0.12650100 12969.92422970 0 115.86307467 0 4869.17542642 0 74.98969979 0 692.66847321 0 17154
0.12750000 0.12750600 12470.12617724 0 188.51833310 0 4489.19709169 0 -16.77377187 0 1132.33367998 0 18007
0.12850000 0.12850300 12507.36387829 0 271.77480252 0 4646.30943332 0 326.15392909 0 1061.48867911 0 17496
0.12950000 0.12949900 12450.79332950 0 -239.45379616 0 4306.95204799 0 658.32301012 0 2144.25447531 0 18405
0.13050000 0.13049000 12744.96018323 0 -293.12881162 0 3903.06029875 0 856.79995672 0 1227.16349507 0 18100
0.13150000 0.13148800 12796.25813718 0 248.99499590 0 3482.98827409 0 93.86855515 0 1609.43760547 0 19059
0.13250000 0.13249300 12549.32494556 0 200.25754582 0 3631.97203201 0 -236.83946788 0 1801.92027082 0 18957
0.13350000 0.13349100 12060.95084859 0 132.85840537 0 3583.69483552 0 -301.25629687 0 1523.36249473 0 19468
0.13450000 0.13450700 12106.75651625 0 309.16628759 0 3828.44209720 0 -331.64072309 0 1271.69495231 0 19953
0.13550000 0.13551000 11743.38685526 0 225.87796290 0 4232.26793901 0 196.86331289 0 1350.15775426 0 19956
0.13650000 0.13649900 11480.52603339 0 -9.19907425 0 3725.12120750 0 427.07029585 0 1252.14241312 0 19723
0.13750000 0.13749600 11708.67560591 0 80.84546559 0 3760.85402211 0 130.48024541 0 915.48942956 0 20946
0.13850000 0.13851100 11614.86735606 0 51.76018477 0 3217.84266112 0 141.82730888 0 840.17151074 0 20955
0.13950000 0.13949800 11247.76294039 0 -165.47050291 0 3150.27655518 0 230.03891900 0 1340.75496013 0 20506
0.14050000 0.14048300 11440.43234347 0 3.73914851 0 2607.16633304 0 290.19702920 0 698.87255980 0 21447
0.14150000 0.14148400 11452.95475621 0 252.51774833 0 3040.58461338 0 128.88089164 0 666.76135877 0 21771
0.14250000 0.14249400 11253.03553523 0 238.87051535 0 3149.20006706 0 -405.60973640 0 684.21804152 0 22470
0.14350000 0.14350900 10968.06276875 0 87.36975247 0 2960.68283242 0 22.83582794 0 620.98864483 0 22519
0.14450000 0.14449900 11067.94548724 0 14.56828939 0 3030.87425122 0 -77.05007607 0 324.34806535 0 22218
0.14550000 0.14550500 10732.01528855 0 183.19960305 0 2929.80519890 0 70.54413342 0 329.48994378 0 23559
0.14650000 0.14650700 10537.10503267 0 63.40218402 0 3030.24813058 0 248.54243151 0 728.07943984 0 23044
0.14750000 0.14750500 10506.10656885 0 161.19201189 0 3192.09482299 0 -31.92248607 0 323.09582408 0 23649
0.14850000 0.14849900 10134.16894124 0 362.88414288 0 3148.21145553 0 -307.79431447 0 31.15960750 0 23640
0.14950000 0.14949500 9932.45923493 0 198.47145431 0 3425.78062009 0 -193.75028502 0 195.34085113 0 24457
0.15050000 0.15050000 9892.85985077 0 -156.60814975 0 3342.89103539 0 243.35331942 0 198.65929051 0 24591
0.15150000 0.15149900 9803.30263052 0 77.59172534 0 3055.53461666 0 389.48548230 0 -439.81679387 0 25020
0.15250000 0.15250500 9812.18914974 0 178.74755579 0 2911.54883927 0 -196.72710419 0 -569.98507742 0 25297
0.15350000 0.15350100 9448.84145789 0 137.86407510 0 2826.46234005 0 -345.13746742 0 -195.32437427 0 25452
0.15450000 0.15450400 9370.66425483 0 134.16007722 0 3122.41967911 0 111.76363219 0 -728.16621796 0 26061
0.15550000 0.15549900 9332.18529708 0 191.91366448 0 2972.44730966 0 129.02478954 0 -667.79940088 0 26128
0.15650000 0.15649500 8998.01263001 0 31.28867623 0 2826.07788001 0 344.32241213 0 -31.73640741 0 26331
0.15750000 0.15749700 9069.32447521 0 81.66304732 0 2679.34595947 0 414.48856641 0 90.32976525 0 27345
0.15850000 0.15849900 8899.16246135 0 137.81684143 0 2682.82806898 0 49.76450762 0 53.02813398 0 26980
0.15950000 0.15949700 8669.65080183 0 89.00425687 0 2597.44498630 0 39.35871217 0 506.86772336 0 27777
0.16050000 0.16050000 8526.92825028 0 63.19545436 0 2595.65450097 0 136.43058837 0 738.94647749 0 28224
0.16150000 0.16150500 8420.07032821 0 103.90900372 0 2738.80545085 0 207.03173173 0 675.45674643 0 28075
0.16250000 0.16249700 8683.65613187 0 -21.99012570 0 2477.50443829 0 -65.35403272 0 845.87799620 0 28590
0.16350000 0.16349900 8476.59693872 0 -0.41578694 0 2211.49104408 0 40.69344758 0 161.56548736 0 29163
0.16450000 0.16449100 8386.27079838 0 83.77417233 0 2561.34968080 0 -114.90851532 0 395.98944773 0 28996
0.16550000 0.16550500 8250.38065098 0 269.19562488 0 2577.38715677 0 -131.20522720 0 457.95891395 0 30777
0.16650000 0.16650700 8289.58459052 0 24.13947701 0 2886.69075151 0 173.12784845 0 234.48217861 0 29211
0.16750000 0.16749900 8152.13463381 0 -73.07333126 0 2572.37819167 0 33.06740807 0 -59.96478172 0 30922
0.16850000 0.16850800 8027.86616420 0 186.05669038 0 2669.13030697 0 73.88487148 0 225.24305461 0 30867
0.16950000 0.16949900 7950.04046746 0 146.33427901 0 2720.35136891 0 -22.08360441 0 377.93190886 0 30852
0.17050000 0.17049200 7742.38810738 0 53.15896024 0 2694.47171591 0 3.40512962 0 424.17805789 0 31257
0.17150000 0.17149500 7842.58937847 0 125.21533977 0 2577.92540083 0 233.93185152 0 329.66350002 0 32608
0.17250000 0.17250900 7805.08804767 0 -119.17052948 0 2333.02435512 0 395.91694955 0 345.01114484 0 32361
0.17350000 0.17350400 7878.79452969 0 -20.80093587 0 2127.94238503 0 254.55209117 0 701.92187715 0 32508
0.17450000 0.17449800 7828.17761924 0 6.02602667 0 1835.28041775 0 364.49338277 0 761.35830093 0 32791
0.17550000 0.17549800 7879.42065033 0 5.81803379 0 1702.90533357 0 -151.03677454 0 607.01077622 0 33633
0.17650000 0.17650100 7812.73331019 0 -15.33841777 0 1571.52984550 0 -16.03077538 0 474.28748109 0 33984
0.17750000 0.17750300 7798.99160989 0 90.04812080 0 1601.64954351 0 -175.06333014 0 7.52123571 0 34069
0.17850000 0.17849800 7710.52186232 0 192.54308049 0 1776.72166131 0 -540.80895418 0 -163.94694269 0 34536
