### header ###
fiducial parameters:
Omega_m = 0.31
Omega_nu = 0
Omega_de = 0.69
Omega_k = 0
H_0 = 100
w_de = -1
zeff = 0
beta = 0
fgrowth = 0
b_1 = 2
gamma = 0.55
Lx = 3500 Ly = 3500 Lz = 3500
nx = 700 ny = 700 nz = 700
xoffset = -983.599254 yoffset = -42.9823471 zoffset = 800.977702
bins = 400 dk = 0.001
kx_ny = 0.628318531 ky_ny = 0.628318531 kz_ny = 0.628318531
############################
A(data) = 9.05489188 (not used)
A(ran) = 9.04823952 (used)
Ngal = 502518
weighted Ngal = 0
Nran = 25229228
weighted Nran = 0
SN(data) = 6738.96302
SN(ran) = 134.314882
SN(data+ran) = 6873.2779
############################
13 columns: k_central k_mean P_0(k) sigma^{lin}_{P_0(k)} P^img_1(k) sigma^{lin}_{P_1(k)} P_2(k) sigma^{lin}_{P_2(k)} P^img_3(k) sigma^{lin}_{P_3(k)} P_4(k) sigma^{lin}_{P_4(k)} N_modes
### header ###
0.00050000 0 0 0 0 0 0 0 0 0 0 0 0
0.00150000 0.00179520 75049.01648170 0 -66376.58658301 0 -12160.36123045 0 -28645.56837763 0 -6632.28720231 0 3
0.00250000 0.00253879 116519.95211386 0 -37459.69926262 0 -13616.36632611 0 -76220.30145605 0 102704.43548685 0 6
0.00350000 0.00331552 103601.54552957 0 31613.38019765 0 -7697.79074270 0 -93339.64797835 0 -52446.06148107 0 7
0.00450000 0.00420575 87766.18569630 0 40269.00370030 0 17495.34844176 0 -46863.81154096 0 51615.51794820 0 24
0.00550000 0.00557378 48027.62700596 0 8394.49824324 0 44600.11082340 0 40234.95152530 0 -7862.50440856 0 45
0.00650000 0.00659388 53868.01440173 0 -7627.10501814 0 45658.25470016 0 37476.17612149 0 9182.25686591 0 40
0.00750000 0.00754703 49674.54397308 0 -2221.58586629 0 26077.15561666 0 21699.69359727 0 18090.93196712 0 57
0.00850000 0.00846663 65133.24281253 0 -5854.81013957 0 7553.31065954 0 19641.40438697 0 15584.47219551 0 75
0.00950000 0.00948925 65053.49481559 0 -2849.23335901 0 2744.01213826 0 6851.37450244 0 3315.38566565 0 112
0.01050000 0.01054430 76647.60132947 0 -1821.11031912 0 17243.69188392 0 367.92716015 0 3177.51829518 0 105
0.01150000 0.01145670 71039.42779806 0 6924.64160156 0 31830.21566041 0 -23513.13668472 0 5220.59387244 0 144
0.01250000 0.01249090 69303.64563876 0 4632.87530105 0 27332.14303408 0 -8592.37433372 0 5533.44548413 0 169
0.01350000 0.01339930 55430.02062280 0 -2453.47019348 0 37812.63357966 0 3657.03882664 0 -7340.02321372 0 180
0.01450000 0.01448870 63513.89712258 0 6886.43725812 0 42965.71626902 0 -1957.31901912 0 -11999.65693359 0 267
0.01550000 0.01550050 63661.96916098 0 3318.37346939 0 43198.36951629 0 19341.19601833 0 17507.76100877 0 238
0.01650000 0.01653350 63034.09099223 0 -7338.69408044 0 33786.45819142 0 12062.37884302 0 -4257.02716561 0 315
0.01750000 0.01747870 58437.70644129 0 2414.35413052 0 29650.76661455 0 6600.50883383 0 7965.02342446 0 297
0.01850000 0.01844180 60695.58533539 0 6686.54000629 0 32654.49798691 0 -7304.03775395 0 -16197.30149982 0 388
0.01950000 0.01947590 60599.14078813 0 2209.65662046 0 28410.82806156 0 2188.84085542 0 7853.42016703 0 399
0.02050000 0.02045430 51311.24528770 0 -3141.54381997 0 23260.93089825 0 10158.51075408 0 -1975.23485700 0 462
0.02150000 0.02154770 58259.75636548 0 -1490.50763814 0 20691.96890865 0 9422.21485395 0 -5849.24096127 0 571
0.02250000 0.02255340 61096.08285171 0 -1183.09338987 0 16480.92316387 0 4422.43285954 0 398.40495524 0 510
0.02350000 0.02348930 58315.44814846 0 2744.28675257 0 19521.78239156 0 -8206.10183890 0 -328.33436674 0 555
0.02450000 0.02439640 57667.79774907 0 1883.67844454 0 18235.59878801 0 486.41884305 0 2220.50937817 0 592
0.02550000 0.02547300 58116.62738474 0 -1579.82319779 0 21139.37054989 0 -2142.68368143 0 139.32612171 0 837
0.02650000 0.02652900 55916.96672533 0 -635.27737684 0 15364.67089815 0 15378.95084251 0 4084.06408574 0 723
0.02750000 0.02749970 61967.59884031 0 -732.33046943 0 16177.63911490 0 7463.29208723 0 8689.87339996 0 826
0.02850000 0.02848090 61144.96419969 0 -221.37209123 0 11185.48041386 0 -4334.47938688 0 10459.60887311 0 831
0.02950000 0.02946900 62044.38100265 0 2095.82349480 0 13542.00076973 0 -2084.64119991 0 7703.93111877 0 996
0.03050000 0.03053250 59213.43695699 0 2622.05042888 0 19064.38478928 0 -788.52314892 0 13291.99189778 0 1041
0.03150000 0.03150510 56786.06610796 0 -485.88389436 0 23767.86892288 0 -663.87131773 0 3584.89215393 0 1036
0.03250000 0.03246190 55562.60441385 0 4579.31452515 0 26497.97459225 0 -3003.28100489 0 4123.54263960 0 1059
0.03350000 0.03345080 51186.24085172 0 4692.51054560 0 28964.12098249 0 -4435.55942377 0 11971.09704487 0 1302
0.03450000 0.03451200 49995.29349245 0 -564.80914682 0 35002.77991335 0 4428.58422018 0 6460.34568769 0 1339
0.03550000 0.03553350 47933.92860184 0 14.66165825 0 32174.58201083 0 5685.95528985 0 7028.43482788 0 1365
0.03650000 0.03647120 48246.22000032 0 -973.41108078 0 25866.25182310 0 4106.67033612 0 8241.35133231 0 1308
0.03750000 0.03744890 49238.89582450 0 214.66930504 0 27360.48323134 0 1678.60745902 0 2731.17117291 0 1579
0.03850000 0.03847530 49035.02215739 0 2328.44378836 0 27938.93082347 0 -2630.77217951 0 1959.47199535 0 1662
0.03950000 0.03950240 46295.14021843 0 288.10117275 0 24703.75450681 0 2316.59143454 0 6792.22257909 0 1683
0.04050000 0.04050350 46676.85411563 0 -1602.57224761 0 19901.73875715 0 6115.60586180 0 3283.11299140 0 1822
0.04150000 0.04152450 51094.62951639 0 232.99816285 0 23274.11238535 0 4573.06430335 0 -3057.51183973 0 1887
0.04250000 0.04250150 47094.04818227 0 1114.68147184 0 16028.02923634 0 -4137.47107763 0 -4019.60661384 0 1920
0.04350000 0.04349210 43697.94787729 0 2208.44831748 0 18587.54449352 0 392.56885183 0 1315.16090602 0 2005
0.04450000 0.04448520 43210.34270041 0 1675.46587126 0 17647.48477201 0 1327.65036504 0 1943.44550395 0 2151
0.04550000 0.04548030 40982.78122664 0 -748.21306292 0 17704.38485798 0 3866.71234808 0 1019.92305646 0 2274
0.04650000 0.04648670 42196.90603405 0 -176.49022612 0 13718.52285111 0 3591.15336030 0 -2610.57155054 0 2311
0.04750000 0.04749250 40635.55888734 0 1547.59446184 0 12894.24052461 0 -731.30011652 0 472.16965549 0 2568
0.04850000 0.04851840 40104.45480303 0 1644.52233030 0 13534.75095183 0 1518.40845249 0 2896.53292855 0 2493
0.04950000 0.04949480 38296.06461897 0 -855.33131936 0 12467.27018837 0 146.97248268 0 3544.90830973 0 2644
0.05050000 0.05050630 38101.96722145 0 745.22745609 0 10899.77168102 0 195.43422000 0 -1502.28309994 0 2829
0.05150000 0.05149060 37813.73203692 0 968.76900041 0 11538.85411380 0 1003.63073841 0 1847.89070707 0 2784
0.05250000 0.05249300 35886.92816043 0 135.81984614 0 13668.65289159 0 -1765.81398074 0 682.39130710 0 3055
0.05350000 0.05348950 35791.80176187 0 1224.82378111 0 12411.13902248 0 1758.84976172 0 1995.66616201 0 3009
0.05450000 0.05448610 35297.71568716 0 290.52436946 0 12608.53179177 0 -308.83125812 0 -609.40211767 0 3336
0.05550000 0.05550870 35511.14593242 0 -490.20522522 0 11033.78346651 0 3782.68036783 0 2041.21918450 0 3349
0.05650000 0.05647670 34759.58147640 0 6.33558291 0 11312.02268999 0 920.65657250 0 2084.07000214 0 3324
0.05750000 0.05747970 35080.44084150 0 1276.26453451 0 10090.48329608 0 -659.09193020 0 -419.81169029 0 3639
0.05850000 0.05849280 33772.83732142 0 694.87197847 0 10036.15360010 0 -406.15676811 0 1757.94902677 0 3846
0.05950000 0.05951020 32814.87274660 0 -261.33176937 0 8021.72578812 0 1353.73872492 0 43.24131920 0 3787
0.06050000 0.06049470 31801.32623452 0 356.19014435 0 10821.55053966 0 -805.17026867 0 1332.74720672 0 3930
0.06150000 0.06148310 32199.73668205 0 991.84539049 0 8866.17578989 0 -810.17703685 0 -3912.69376890 0 4083
0.06250000 0.06249100 30933.76469205 0 546.37264020 0 11209.97601071 0 -1244.06875227 0 -2732.41242961 0 4303
0.06350000 0.06350600 30488.99934823 0 459.50114794 0 10670.97401872 0 -263.57372063 0 -4062.27069374 0 4470
0.06450000 0.06451750 30623.23082517 0 -103.90065544 0 11423.40625597 0 1195.52792604 0 -3260.16621928 0 4479
0.06550000 0.06550280 30466.48097444 0 -73.36398305 0 9987.12945267 0 1530.32671374 0 -4269.67040865 0 4636
0.06650000 0.06648880 30277.87586321 0 112.11623697 0 9456.86019588 0 1166.67145386 0 -1994.85330363 0 4653
0.06750000 0.06749660 31108.74893327 0 -137.90911184 0 8747.28976084 0 903.29435708 0 -2504.12005765 0 5220
0.06850000 0.06852730 29669.22069648 0 132.74636273 0 8178.50859258 0 469.98921784 0 -1089.57513275 0 5029
0.06950000 0.06949320 29831.13329633 0 1258.03014402 0 9751.30166392 0 -1166.05631780 0 -309.55184609 0 5040
0.07050000 0.07048030 28706.75244690 0 376.19414948 0 8818.83228206 0 171.64053733 0 -17.02938287 0 5475
0.07150000 0.07148790 28253.74867365 0 550.59620835 0 10859.56814537 0 459.00025143 0 -800.48534846 0 5509
0.07250000 0.07249820 27823.48296564 0 465.54376131 0 10387.85764501 0 -719.17754222 0 -619.26736230 0 5916
0.07350000 0.07351270 26728.54077073 0 671.70881026 0 11063.55165820 0 -115.47641772 0 321.77877383 0 5721
0.07450000 0.07449140 26400.54143345 0 467.91862591 0 11554.23251541 0 128.97755588 0 -197.71461726 0 6028
0.07550000 0.07549160 25393.14628202 0 542.68731609 0 11249.19093483 0 347.41896315 0 488.15001169 0 6183
0.07650000 0.07648840 25686.21467849 0 63.17348522 0 11514.13882549 0 1289.70965135 0 1171.98798699 0 6330
0.07750000 0.07749960 24811.84270101 0 398.68506184 0 10598.46485511 0 1045.11507522 0 2145.78133090 0 6583
0.07850000 0.07848650 24718.14429689 0 727.26328609 0 11965.05552995 0 -286.63143694 0 2064.67124696 0 6549
0.07950000 0.07947320 23719.20726635 0 343.05918629 0 9583.97366979 0 564.89043265 0 2302.87170339 0 6828
0.08050000 0.08048110 23409.99154818 0 -137.80365995 0 10363.51583217 0 1371.83031597 0 2655.11399235 0 7147
0.08150000 0.08149960 23894.63089047 0 -212.55367636 0 9244.71514561 0 1053.24256047 0 3072.62661160 0 7386
0.08250000 0.08250610 23536.31413287 0 -181.39923161 0 8512.11006187 0 1063.08254059 0 3065.80519203 0 7227
0.08350000 0.08350160 23312.55838938 0 229.20628840 0 7170.69602738 0 720.80325896 0 3985.07111764 0 7798
0.08450000 0.08449610 23037.17515477 0 604.86878456 0 7699.03199940 0 584.45725179 0 1950.01427836 0 7371
0.08550000 0.08548940 22981.81290896 0 -175.50271305 0 6161.94977352 0 538.91631233 0 4554.57726769 0 8256
0.08650000 0.08650700 22705.11152564 0 192.39039493 0 6451.00880100 0 488.29281113 0 1141.62662838 0 8037
0.08750000 0.08749060 21780.32036001 0 1113.12166253 0 6666.21854701 0 -1323.66296520 0 3046.00000766 0 8155
0.08850000 0.08849210 21366.53151087 0 732.03608288 0 7227.82678938 0 -954.47038228 0 1083.07446269 0 8718
0.08950000 0.08949900 20374.18522388 0 -340.30755086 0 7454.21883028 0 488.04895362 0 688.31199172 0 8571
0.09050000 0.09049190 20138.34645055 0 458.26098969 0 7711.16995210 0 294.15696761 0 73.80995669 0 8932
0.09150000 0.09150830 19423.14092978 0 1117.28481554 0 7237.73487385 0 -290.99670608 0 306.57832229 0 9285
0.09250000 0.09250820 18912.13861330 0 34.98729167 0 7713.20209803 0 -116.22227020 0 420.78162804 0 9204
0.09350000 0.09350330 19002.98102855 0 -137.27530201 0 7146.32126083 0 1448.94201549 0 312.72858448 0 9349
0.09450000 0.09448040 18952.12245749 0 -59.36282714 0 7249.32359792 0 249.97152440 0 1360.97755826 0 9564
0.09550000 0.09549270 18693.32592748 0 188.46890252 0 6393.59244012 0 31.22573463 0 706.90997156 0 10155
0.09650000 0.09649430 18394.87509044 0 372.06944248 0 6321.73136629 0 -238.83097089 0 611.26839655 0 9913
0.09750000 0.09749140 17798.52264500 0 385.85947489 0 7506.34062718 0 370.75898297 0 801.45748314 0 10476
0.09850000 0.09850240 17653.85582411 0 175.07101934 0 6996.76630513 0 12.83591244 0 1264.19248924 0 10575
0.09950000 0.09950330 17540.82457224 0 146.31340833 0 6862.69959677 0 691.87758398 0 1179.39158891 0 10882
0.10050000 0.10051200 17154.38730883 0 349.66860361 0 6775.89950424 0 457.01753608 0 1790.94668281 0 10875
0.10150000 0.10150300 16709.73181074 0 145.70815838 0 6245.65221659 0 55.23229832 0 1879.76793670 0 11118
0.10250000 0.10250800 16522.77438540 0 563.94575941 0 6926.20141087 0 -446.91063084 0 809.20380372 0 11575
0.10350000 0.10349800 15747.92263552 0 363.13898497 0 6928.00288077 0 367.21755677 0 3015.08942042 0 11364
0.10450000 0.10450100 15673.22754196 0 -131.24257474 0 6768.84740864 0 192.15532508 0 544.96331953 0 12093
0.10550000 0.10551000 16004.85178819 0 -106.93316639 0 6851.36351787 0 -163.79865096 0 456.77587548 0 12067
0.10650000 0.10649700 15549.87079188 0 474.73015936 0 6031.74963471 0 122.72074334 0 -41.91207607 0 12054
0.10750000 0.10749900 15584.80173268 0 -128.54036989 0 6530.42726076 0 -43.32183611 0 186.16873302 0 12807
0.10850000 0.10850100 15051.50073386 0 135.90882118 0 6167.57387468 0 665.45309618 0 51.38703884 0 12736
0.10950000 0.10950300 15046.11829329 0 208.62998704 0 5939.73187020 0 -245.18884150 0 -413.77347074 0 12933
0.11050000 0.11050200 14995.14987652 0 329.38668880 0 5907.21753536 0 210.24032538 0 -90.25858522 0 13428
0.11150000 0.11150900 14557.52450488 0 65.01285190 0 5417.71202742 0 874.78170203 0 -21.35477802 0 13453
0.11250000 0.11250000 14229.41532187 0 -8.16503052 0 5002.92358217 0 696.08577374 0 868.76435317 0 13668
0.11350000 0.11349100 14261.92965671 0 279.47718482 0 5018.07130776 0 57.13691336 0 -422.68195910 0 13791
0.11450000 0.11448600 14288.40247663 0 31.95269364 0 4605.01842499 0 96.69785151 0 112.92579997 0 14205
0.11550000 0.11549300 14126.70956824 0 -91.91044524 0 4255.80787805 0 250.11432385 0 -287.97814554 0 14776
0.11650000 0.11649800 14026.96964920 0 103.05165783 0 4444.47889671 0 -247.79877595 0 222.63971091 0 14553
0.11750000 0.11747300 13757.51808378 0 341.39282663 0 4424.32220602 0 -543.90440674 0 -1174.88791416 0 14568
0.11850000 0.11849100 13912.07102000 0 3.79300587 0 4450.69616479 0 259.99824226 0 -132.19823256 0 16015
0.11950000 0.11950300 13514.86887546 0 -89.97243710 0 4593.72628437 0 201.98102525 0 -682.06616375 0 15270
0.12050000 0.12050700 13999.83775492 0 107.50557247 0 4692.41168444 0 336.49919954 0 -16.25936433 0 15999
0.12150000 0.12150000 13331.64620480 0 465.67557618 0 4409.95438509 0 2.44966953 0 -177.87428227 0 15670
0.12250000 0.12250700 13287.92760593 0 182.82502913 0 4724.27792950 0 176.76923427 0 415.37721833 0 16887
0.12350000 0.12352200 12962.78425752 0 78.45961642 0 4700.11186982 0 323.09692254 0 1138.13353430 0 16407
0.12450000 0.12449800 13039.12703696 0 -138.21448296 0 4401.71595565 0 372.06834402 0 1201.00922775 0 16306
0.12550000 0.12549900 13026.05539559 0 21.86951509 0 4497.68816629 0 6.47909635 0 784.46654627 0 17523
0.12650000 0.12650100 12749.24416654 0 59.13050343 0 3760.34873177 0 362.93137654 0 1020.41736223 0 17154
0.12750000 0.12750600 12942.24310679 0 217.17378759 0 4643.73904334 0 74.12774038 0 1116.39506516 0 18007
0.12850000 0.12850300 12620.83451306 0 19.19301413 0 3840.33838931 0 -194.38079948 0 888.62775577 0 17496
0.12950000 0.12949900 12773.52007194 0 38.66349857 0 4267.97878447 0 310.92052383 0 707.64264255 0 18405
0.13050000 0.13049000 12450.90317523 0 151.93091874 0 3832.47343534 0 -116.01576023 0 709.61437333 0 18100
0.13150000 0.13148800 12578.21437144 0 198.39126693 0 4239.64957179 0 116.37934958 0 548.57834237 0 19059
0.13250000 0.13249300 12226.37851166 0 265.29280624 0 3951.84278558 0 -266.01229575 0 253.67991611 0 18957
0.13350000 0.13349100 12132.24072464 0 57.21786966 0 4300.05373641 0 -56.36942127 0 967.09275463 0 19468
0.13450000 0.13450700 11784.02977381 0 -165.55069029 0 4080.97742085 0 377.49911670 0 447.28190940 0 19953
0.13550000 0.13551000 12124.66136956 0 71.45662186 0 3705.99706664 0 589.20478406 0 219.09828471 0 19956
0.13650000 0.13649900 11826.97945261 0 235.09621621 0 3544.84240230 0 -93.03603439 0 680.05049468 0 19723
0.13750000 0.13749600 11734.59919720 0 224.91681280 0 4027.04316947 0 -208.76839265 0 767.13069382 0 20946
0.13850000 0.13851100 11396.93343605 0 36.49107965 0 3542.35988889 0 471.66546361 0 873.08348711 0 20955
0.13950000 0.13949800 11635.29866106 0 -7.48180109 0 3997.98897500 0 50.93557291 0 584.06620101 0 20506
0.14050000 0.14048300 11424.17517605 0 230.48708956 0 3491.62214814 0 193.47017842 0 663.24849246 0 21447
0.14150000 0.14148400 11298.40181999 0 58.36509842 0 3543.76591418 0 -163.73933427 0 801.74418048 0 21771
0.14250000 0.14249400 11010.16663546 0 105.16882435 0 3682.10562127 0 -108.19188857 0 511.09348844 0 22470
0.14350000 0.14350900 11107.70963998 0 174.65031021 0 3598.29333248 0 455.34458567 0 434.54200212 0 22519
0.14450000 0.14449900 10809.75310871 0 90.77969334 0 3770.67423000 0 -286.94559571 0 566.53372471 0 22218
0.14550000 0.14550500 10465.09017483 0 167.04569062 0 3447.58499666 0 -80.80658020 0 285.91634126 0 23559
0.14650000 0.14650700 10625.06948990 0 -24.29798440 0 3326.13956220 0 274.25731592 0 78.92327523 0 23044
0.14750000 0.14750500 10308.97742930 0 230.80783908 0 3222.77473421 0 171.04846886 0 -71.59337979 0 23649
0.14850000 0.14849900 10334.67034457 0 132.30807829 0 2780.67864153 0 26.27916191 0 14.80171155 0 23640
0.14950000 0.14949500 10074.32498982 0 16.42314431 0 2926.54278084 0 249.14548455 0 -218.44360418 0 24457
0.15050000 0.15050000 9928.97712542 0 -65.73058387 0 2439.36600228 0 717.83412899 0 503.86234431 0 24591
0.15150000 0.15149900 9985.56964336 0 112.47762940 0 2547.53108849 0 -11.19734375 0 72.11207131 0 25020
0.15250000 0.15250500 9795.70130629 0 112.52266615 0 2129.23856459 0 -27.23020620 0 395.36991783 0 25297
0.15350000 0.15350100 9673.91535008 0 119.18261251 0 2304.11296009 0 299.30983061 0 484.02420622 0 25452
0.15450000 0.15450400 9479.92779830 0 172.24249190 0 2346.75507085 0 200.87927262 0 971.46900835 0 26061
0.15550000 0.15549900 9619.01445632 0 121.62558145 0 2474.97798659 0 -131.39855568 0 843.15162528 0 26128
0.15650000 0.15649500 9392.95195260 0 52.47550014 0 2537.66694231 0 -102.06051984 0 1188.50878416 0 26331
0.15750000 0.15749700 9327.60473031 0 -25.04163996 0 2418.12183891 0 -77.92510712 0 545.52682811 0 27345
0.15850000 0.15849900 9413.25144273 0 30.38420653 0 2483.79859838 0 92.23262275 0 600.63093646 0 26980
0.15950000 0.15949700 9222.02101866 0 221.70821915 0 2712.44247666 0 -489.93610319 0 35.52630464 0 27777
0.16050000 0.16050000 9026.74827188 0 217.92952618 0 2883.72491692 0 -470.67245825 0 31.83427995 0 28224
0.16150000 0.16150500 8768.47900135 0 130.25506167 0 3042.69365131 0 176.28591307 0 -64.09849608 0 28075
0.16250000 0.16249700 8738.67785593 0 153.25236283 0 2930.02489035 0 -128.21412808 0 -936.94998901 0 28590
0.16350000 0.16349900 8451.00288460 0 112.94996602 0 2794.20065038 0 434.83529021 0 -139.12949786 0 29163
0.16450000 0.16449100 8538.57189722 0 -101.94814766 0 2712.96973614 0 363.42128848 0 -252.38813037 0 28996
0.16550000 0.16550500 8580.29130388 0 -29.50939517 0 2326.27982756 0 270.00848325 0 -9.78710039 0 30777
0.16650000 0.16650700 8291.35310670 0 269.53724509 0 2218.08178763 0 -89.99539486 0 244.80547992 0 29211
0.16750000 0.16749900 8213.01113505 0 90.08513881 0 2369.62495097 0 -169.95440544 0 293.95704839 0 30922
0.16850000 0.16850800 8191.45940365 0 -29.50939517 0 2391.39637382 0 489.72629785 0 137.34670173 0 30867
0.16950000 0.16949900 8243.48233939 0 -56.77343385 0 2005.48636989 0 356.18355361 0 615.94672601 0 30852
0.17050000 0.17049200 8102.67110347 0 16.17104837 0 1697.98424505 0 405.19561801 0 575.89807284 0 31257
0.17150000 0.17149500 8155.05653012 0 220.92831450 0 2024.75331020 0 -446.77332369 0 744.71227964 0 32608
0.17250000 0.17250900 7842.69922419 0 192.58262495 0 1722.90824024 0 -21.30732466 0 513.11574825 0 32361
0.17350000 0.17350400 7764.69777429 0 113.25094331 0 2220.21279471 0 -104.26808939 0 379.34452490 0 32508
0.17450000 0.17449800 7635.74987676 0 41.13074342 0 2077.52319688 0 -48.13033276 0 333.87937898 0 32791
0.17550000 0.17549800 7477.24249441 0 -24.49713470 0 1963.93173182 0 72.27475283 0 229.16015319 0 33633
0.17650000 0.17650100 7537.94324250 0 -23.25686661 0 1964.65671361 0 111.26822796 0 71.92873879 0 33984
0.17750000 0.17750300 7647.28367797 0 56.89525276 0 1863.62061501 0 -118.70038977 0 6.69965559 0 34069
0.17850000 0.17849800 7712.04871791 0 96.62557302 0 2019.74434510 0 -172.36881449 0 -231.85576730 0 34536
