### header ###
fiducial parameters:
Omega_m = 0.31
Omega_nu = 0
Omega_de = 0.69
Omega_k = 0
H_0 = 100
w_de = -1
zeff = 0
beta = 0
fgrowth = 0
b_1 = 2
gamma = 0.55
Lx = 3500 Ly = 3500 Lz = 3500
nx = 700 ny = 700 nz = 700
xoffset = -983.599254 yoffset = -42.9823471 zoffset = 800.977702
bins = 400 dk = 0.001
kx_ny = 0.628318531 ky_ny = 0.628318531 kz_ny = 0.628318531
############################
A(data) = 9.02306839 (not used)
A(ran) = 9.02771674 (used)
Ngal = 501034
weighted Ngal = 0
Nran = 25229228
weighted Nran = 0
SN(data) = 6750.86334
SN(ran) = 134.010235
SN(data+ran) = 6884.87358
############################
13 columns: k_central k_mean P_0(k) sigma^{lin}_{P_0(k)} P^img_1(k) sigma^{lin}_{P_1(k)} P_2(k) sigma^{lin}_{P_2(k)} P^img_3(k) sigma^{lin}_{P_3(k)} P_4(k) sigma^{lin}_{P_4(k)} N_modes
### header ###
0.00050000 0 0 0 0 0 0 0 0 0 0 0 0
0.00150000 0.00179520 64233.27678094 0 -49719.91025784 0 -17068.04856834 0 -16564.18622404 0 54463.04869846 0 3
0.00250000 0.00253879 53531.44709784 0 -4397.99218555 0 -7762.79744324 0 -31564.49884967 0 19431.81874212 0 6
0.00350000 0.00331552 61313.24785164 0 9915.47708572 0 -20116.26745967 0 -9155.12497164 0 -2360.89221576 0 7
0.00450000 0.00420575 46538.99772973 0 3197.02689608 0 21420.68545370 0 -32577.27644167 0 -12873.91906533 0 24
0.00550000 0.00557378 50052.41326987 0 1710.34188921 0 28790.23519852 0 18081.37538897 0 -7811.77765238 0 45
0.00650000 0.00659388 69867.04436646 0 -11362.66156959 0 20106.16165289 0 -1698.34673595 0 13551.88688505 0 40
0.00750000 0.00754703 70145.39343567 0 -11526.88092968 0 8538.12152974 0 -1565.22470083 0 -25463.44754654 0 57
0.00850000 0.00846663 81658.10426672 0 2829.35128264 0 21564.69320024 0 -12738.03990250 0 -11685.16862058 0 75
0.00950000 0.00948925 72894.28272415 0 13514.53933828 0 29570.13985180 0 -16780.14292099 0 863.05457234 0 112
0.01050000 0.01054430 66522.02232399 0 4099.88187026 0 58444.51687629 0 3082.07334402 0 -7615.98863069 0 105
0.01150000 0.01145670 70543.36450029 0 -3006.48850009 0 36819.40852686 0 16306.15861410 0 -12217.48100787 0 144
0.01250000 0.01249090 77029.20538094 0 490.54355005 0 50316.26270328 0 17313.77345699 0 -12760.88781347 0 169
0.01350000 0.01339930 69923.28537807 0 -3342.77020509 0 18966.07286467 0 -3593.04270678 0 -6976.82930589 0 180
0.01450000 0.01448870 81946.66898843 0 -2409.11448940 0 38086.80851129 0 3911.07903673 0 -11376.94151395 0 267
0.01550000 0.01550050 66827.17375030 0 4847.94224762 0 17068.37810552 0 -3108.82077825 0 -1512.23512270 0 238
0.01650000 0.01653350 71082.92670549 0 2663.02288461 0 25537.15402856 0 7590.35063828 0 -10207.56785523 0 315
0.01750000 0.01747870 71785.93935069 0 2283.61574765 0 35596.60590710 0 -2389.01272157 0 -20414.05922235 0 297
0.01850000 0.01844180 66677.89340891 0 4283.19241750 0 32398.44760004 0 -6157.29231475 0 -23696.35935538 0 388
0.01950000 0.01947590 62606.35173591 0 4058.87646081 0 28164.88348147 0 2115.32111113 0 350.64732903 0 399
0.02050000 0.02045430 66932.18626417 0 -10815.91545393 0 20392.85899726 0 13439.18517037 0 -11874.65249761 0 462
0.02150000 0.02154770 78094.48922988 0 -3543.49129987 0 14163.83742356 0 9771.67804606 0 -16622.18476727 0 571
0.02250000 0.02255340 73195.04032143 0 4135.72453059 0 13623.72598974 0 -7455.11956523 0 -18062.26223268 0 510
0.02350000 0.02348930 72562.21909501 0 8093.99329114 0 16635.69579154 0 -16442.25746838 0 -11222.16888628 0 555
0.02450000 0.02439640 69650.53844088 0 967.52005451 0 25160.82257192 0 873.21530198 0 -8714.36899681 0 592
0.02550000 0.02547300 65920.17759225 0 -3498.23486084 0 23606.39570594 0 5336.43717489 0 -17318.93620610 0 837
0.02650000 0.02652900 66799.05324449 0 1252.07650568 0 18796.03168111 0 6032.77119996 0 -10700.29184294 0 723
0.02750000 0.02749970 72144.47579975 0 88.22380299 0 21440.23799289 0 1708.07906725 0 -11232.49438450 0 826
0.02850000 0.02848090 67355.64153718 0 895.02736776 0 11493.70752049 0 3164.55649953 0 -7061.99269712 0 831
0.02950000 0.02946900 70631.35092667 0 393.11588354 0 16250.90621402 0 -176.59238265 0 -689.74108461 0 996
0.03050000 0.03053250 63768.29982357 0 1723.86389805 0 14963.95369039 0 -559.45746305 0 -5722.12748736 0 1041
0.03150000 0.03150510 66121.41496194 0 3723.04512328 0 21355.98632120 0 1644.85186748 0 114.22857027 0 1036
0.03250000 0.03246190 60512.03312756 0 3778.46229196 0 21482.30890588 0 519.89432799 0 787.01386865 0 1059
0.03350000 0.03345080 56462.35075399 0 1728.62021798 0 20760.95202446 0 -2096.53749202 0 2471.99018285 0 1302
0.03450000 0.03451200 53322.30083589 0 2693.71378041 0 23060.13291147 0 2982.92659190 0 1382.34255193 0 1339
0.03550000 0.03553350 48516.22079437 0 1835.85161552 0 25849.77496422 0 637.30622740 0 7561.53810440 0 1365
0.03650000 0.03647120 47712.36977287 0 812.46072949 0 25245.29393507 0 2458.08371396 0 2202.70338602 0 1308
0.03750000 0.03744890 47503.00381947 0 1950.89304416 0 23714.37405441 0 152.83165370 0 3576.09351129 0 1579
0.03850000 0.03847530 50798.26574815 0 -1134.66240936 0 24100.70147210 0 3517.98512234 0 -2205.49346745 0 1662
0.03950000 0.03950240 45823.57251751 0 -866.83875760 0 18832.06107918 0 -2571.21382698 0 -2442.22199116 0 1683
0.04050000 0.04050350 46214.95283858 0 3780.61526818 0 26666.47793565 0 -2950.06075074 0 -3083.80890649 0 1822
0.04150000 0.04152450 43020.85882338 0 1865.26830089 0 24437.92785034 0 782.59807047 0 -2228.72583846 0 1887
0.04250000 0.04250150 44413.81247242 0 -1436.76012449 0 24596.32538697 0 3808.04374592 0 -3882.33241029 0 1920
0.04350000 0.04349210 42936.71699741 0 1085.03411044 0 23636.71312626 0 -2251.39799627 0 -8873.22788548 0 2005
0.04450000 0.04448520 41029.13612293 0 1217.65085521 0 23534.33690980 0 4366.86190685 0 -2102.60097609 0 2151
0.04550000 0.04548030 42945.72434692 0 -1210.58777504 0 20138.78583346 0 5370.57722647 0 -1211.20291111 0 2274
0.04650000 0.04648670 42990.98078596 0 -1480.54463080 0 16685.56575106 0 4135.76846888 0 -4113.29403338 0 2311
0.04750000 0.04749250 42849.93887401 0 1199.72403276 0 15418.16576662 0 -1742.52668687 0 -2956.97004689 0 2568
0.04850000 0.04851840 40384.34171241 0 2961.79227425 0 16737.85231655 0 -890.68516622 0 -342.07606704 0 2493
0.04950000 0.04949480 39119.13864249 0 1615.52305868 0 18969.58792790 0 -40.33798682 0 2991.00025275 0 2644
0.05050000 0.05050630 37642.48255038 0 110.75195305 0 18066.65606171 0 2660.40855634 0 -298.26519776 0 2829
0.05150000 0.05149060 36675.18108886 0 76.64968840 0 17893.75888928 0 2340.91127824 0 2924.80721837 0 2784
0.05250000 0.05249300 35840.13388123 0 -172.77634213 0 16004.74194247 0 1831.24907961 0 6637.52684343 0 3055
0.05350000 0.05348950 37389.06846092 0 201.97663142 0 17518.85542708 0 2323.00642493 0 5949.49715522 0 3009
0.05450000 0.05448610 36467.46282135 0 939.29080143 0 15342.26237009 0 -765.35888226 0 4184.63883230 0 3336
0.05550000 0.05550870 35645.26756364 0 868.10418036 0 18626.97910909 0 -1189.15687394 0 5589.36794315 0 3349
0.05650000 0.05647670 35183.58597804 0 690.90984314 0 18285.68843898 0 -1250.52768095 0 4022.31980326 0 3324
0.05750000 0.05747970 33426.49374793 0 -204.13400148 0 17530.27938257 0 2171.77082963 0 3233.16613987 0 3639
0.05850000 0.05849280 34518.90949115 0 250.61192499 0 17138.02029569 0 1466.39650132 0 2840.19305578 0 3846
0.05950000 0.05951020 34872.83241972 0 426.05312443 0 16628.99520227 0 1759.06945318 0 1742.41684114 0 3787
0.06050000 0.06049470 33484.71198261 0 199.92361481 0 15079.40154822 0 216.63444508 0 1670.57773646 0 3930
0.06150000 0.06148310 32672.84222312 0 566.42168207 0 13712.92071910 0 641.68028420 0 931.76417230 0 4083
0.06250000 0.06249100 31746.40337161 0 1241.63017716 0 13163.47239858 0 -347.66062374 0 1279.48301427 0 4303
0.06350000 0.06350600 31027.90247907 0 388.23653640 0 13676.12240095 0 2222.26690979 0 1505.22696539 0 4470
0.06450000 0.06451750 30197.24910047 0 -483.53868812 0 11291.15200209 0 2193.67406736 0 590.69099673 0 4479
0.06550000 0.06550280 30922.88996519 0 -24.61730592 0 10934.85640584 0 1516.31039913 0 2531.92201085 0 4636
0.06650000 0.06648880 29930.43383247 0 -380.18704161 0 7456.22900706 0 1103.62000725 0 1992.22799079 0 4653
0.06750000 0.06749660 30440.77707460 0 458.37083542 0 8452.15626472 0 -444.38417915 0 1980.58434385 0 5220
0.06850000 0.06852730 29523.89480123 0 1306.50506282 0 9094.53406928 0 -298.70238375 0 1507.09434273 0 5029
0.06950000 0.06949320 29889.68106819 0 -633.68681073 0 7547.92821897 0 1873.25408516 0 1804.05127790 0 5040
0.07050000 0.07048030 29816.19427762 0 -543.86376382 0 8563.36407754 0 480.42895562 0 -432.85696868 0 5475
0.07150000 0.07148790 29603.75264390 0 1084.13227703 0 8265.58329943 0 -1853.80040712 0 983.81786485 0 5509
0.07250000 0.07249820 28360.07933624 0 1202.07473129 0 9159.17827892 0 -1104.09234387 0 846.37449888 0 5916
0.07350000 0.07351270 27726.59903547 0 400.13941925 0 9605.30570974 0 589.36296191 0 -133.71300512 0 5721
0.07450000 0.07449140 26911.10436703 0 295.46303329 0 10787.25670406 0 111.26712951 0 162.54421277 0 6028
0.07550000 0.07549160 26104.50720238 0 409.39392165 0 10175.52585701 0 -473.16156240 0 398.79710448 0 6183
0.07650000 0.07648840 25849.33558132 0 341.24343644 0 10490.83801296 0 1721.15070863 0 3344.68152072 0 6330
0.07750000 0.07749960 25664.79476195 0 43.26812155 0 9800.36974964 0 591.04250306 0 1027.28491701 0 6583
0.07850000 0.07848650 25894.59202036 0 1050.59857385 0 10389.35154688 0 1155.80771158 0 2477.69117602 0 6549
0.07950000 0.07947320 23713.27559715 0 437.49575368 0 10604.28667858 0 -555.99073195 0 4511.64955804 0 6828
0.08050000 0.08048110 24071.59235476 0 262.63344122 0 10643.78720158 0 1052.05952201 0 4530.40022344 0 7147
0.08150000 0.08149960 24062.03577661 0 406.14248817 0 11700.87655937 0 -357.36439516 0 2371.63512775 0 7386
0.08250000 0.08250610 23050.13695042 0 462.80970120 0 10510.63221275 0 -254.54220506 0 3647.50421764 0 7227
0.08350000 0.08350160 23224.13258010 0 -176.88457228 0 10802.22867649 0 593.90508267 0 3640.30932260 0 7798
0.08450000 0.08449610 22822.97598943 0 -431.25871337 0 10300.39847811 0 954.22652477 0 2548.50871545 0 7371
0.08550000 0.08548940 22734.11079725 0 642.69196333 0 10335.34040350 0 625.80428145 0 2608.05608342 0 8256
0.08650000 0.08650700 22386.66876650 0 899.93088096 0 9650.50722591 0 -271.38814557 0 3480.67052928 0 8037
0.08750000 0.08749060 21398.71630854 0 218.44250572 0 9801.35836117 0 824.39107377 0 2561.65724883 0 8155
0.08850000 0.08849210 21016.34333698 0 137.76631240 0 8751.43094470 0 889.50432466 0 2039.78020549 0 8718
0.08950000 0.08949900 20871.78636181 0 179.49230981 0 8443.85192785 0 1262.51184964 0 2735.85060083 0 8571
0.09050000 0.09049190 20309.15655419 0 149.94271111 0 8022.95606025 0 67.21987222 0 3342.51755992 0 8932
0.09150000 0.09150830 19713.02380020 0 251.14797213 0 6697.92002348 0 865.94351493 0 3438.32500198 0 9285
0.09250000 0.09250820 19943.91951586 0 -147.04607932 0 6464.03650408 0 434.72544448 0 1480.68743025 0 9204
0.09350000 0.09350330 19442.58362325 0 181.49919122 0 5416.25107926 0 -495.78648654 0 1366.34901425 0 9349
0.09450000 0.09448040 18945.31202249 0 678.64007556 0 6238.12778437 0 156.24236348 0 1431.10306962 0 9564
0.09550000 0.09549270 18694.86376764 0 599.16339756 0 6646.16071748 0 -660.77256980 0 570.47608781 0 10155
0.09650000 0.09649430 18325.45259173 0 276.72554938 0 6749.93197465 0 78.02858179 0 -54.27433374 0 9913
0.09750000 0.09749140 17923.08769807 0 59.08898175 0 6175.39489036 0 442.98254769 0 620.11866668 0 10476
0.09850000 0.09850240 17403.73710643 0 -149.36272567 0 6740.38638108 0 222.89784836 0 457.96440623 0 10575
0.09950000 0.09950330 17799.29156508 0 326.99534734 0 5799.51380120 0 857.15915224 0 649.50898908 0 10882
0.10050000 0.10051200 17523.90833047 0 210.36884488 0 6089.97885397 0 676.32672458 0 1660.76851315 0 10875
0.10150000 0.10150300 17320.47404626 0 137.63998982 0 5561.12660704 0 -51.84147061 0 2402.51276127 0 11118
0.10250000 0.10250800 16634.26779711 0 394.90746733 0 5847.08798505 0 219.12574614 0 1988.53717440 0 11575
0.10350000 0.10349800 16244.20562474 0 380.92190952 0 6150.95421637 0 -29.19183117 0 2985.34319787 0 11364
0.10450000 0.10450100 15994.30659852 0 425.08977741 0 6716.27524427 0 45.32937660 0 2972.21663363 0 12093
0.10550000 0.10551000 15411.24548590 0 193.65471924 0 5925.30912640 0 472.24435059 0 3098.40740345 0 12067
0.10650000 0.10649700 15747.92263552 0 -310.60416814 0 5532.72050234 0 1660.57079084 0 3578.12565722 0 12054
0.10750000 0.10749900 15353.13709694 0 -43.61776050 0 5625.45226408 0 -293.19252214 0 2685.85981101 0 12807
0.10850000 0.10850100 15398.94276461 0 485.02929462 0 4925.24068488 0 -122.72953099 0 2580.84729713 0 12736
0.10950000 0.10950300 14952.85927208 0 137.32363413 0 5410.89060784 0 -456.06077980 0 2951.36791487 0 12933
0.11050000 0.11050200 14891.01612845 0 -15.40685166 0 4933.06170056 0 481.10560529 0 1873.59460691 0 13428
0.11150000 0.11150900 15247.02612581 0 21.66377404 0 4682.37178510 0 889.43512186 0 2031.62965264 0 13453
0.11250000 0.11250000 14814.56350328 0 94.50741789 0 4583.41177072 0 125.09670639 0 1983.68199332 0 13668
0.11350000 0.11349100 14656.05612093 0 206.72745907 0 4222.29394711 0 -599.22271426 0 2659.89228143 0 13791
0.11450000 0.11448600 14257.31613623 0 7.31170499 0 4633.55634455 0 234.09771857 0 1668.19408421 0 14205
0.11550000 0.11549300 14342.99580236 0 445.77372758 0 4424.27826773 0 -221.40065112 0 1493.52839559 0 14776
0.11650000 0.11649800 14070.57840235 0 357.26333709 0 4946.42992539 0 -612.88642409 0 1100.54432692 0 14553
0.11750000 0.11747300 13500.25939392 0 46.53866819 0 5059.27443952 0 274.04860905 0 1738.94571621 0 14568
0.11850000 0.11849100 13728.29912071 0 -89.54392892 0 4877.19416441 0 762.37217698 0 903.37344600 0 16015
0.11950000 0.11950300 13729.83696087 0 -184.06628583 0 3853.15738551 0 477.78826437 0 1487.68460298 0 15270
0.12050000 0.12050700 13496.30494779 0 283.03398942 0 4388.08410108 0 -35.34758565 0 1265.82919056 0 15999
0.12150000 0.12150000 13352.51689270 0 356.60755811 0 4335.81950474 0 -626.86539116 0 1312.82119206 0 15670
0.12250000 0.12250700 13225.31554221 0 176.01129876 0 5055.91316031 0 73.64046474 0 296.08805547 0 16887
0.12350000 0.12352200 13179.83941172 0 -157.25733799 0 4452.70634157 0 -256.70946123 0 882.73343412 0 16407
0.12450000 0.12449800 13282.65501109 0 -239.79871174 0 4364.61006947 0 692.62343646 0 167.94642557 0 16306
0.12550000 0.12549900 13113.27290188 0 167.70696189 0 4548.98612025 0 241.65071067 0 617.78224809 0 17523
0.12650000 0.12650100 13322.85854673 0 192.39698568 0 3955.64344769 0 416.69646550 0 874.06770481 0 17154
0.12750000 0.12750600 13432.04519819 0 -149.96028642 0 4327.43827586 0 241.66059679 0 887.08112795 0 18007
0.12850000 0.12850300 13346.58522351 0 -5.72866331 0 3782.75725984 0 105.29602570 0 814.23034413 0 17496
0.12950000 0.12949900 12930.26992268 0 350.54846787 0 4158.61637985 0 -367.85136660 0 691.00211355 0 18405
0.13050000 0.13049000 12690.03732032 0 317.44206457 0 4543.76844827 0 -686.19746150 0 932.35404385 0 18100
0.13150000 0.13148800 12299.42591933 0 246.15438543 0 4823.64437307 0 -36.13517950 0 52.42486126 0 19059
0.13250000 0.13249300 12367.20073216 0 200.75185158 0 4618.37566525 0 402.56371442 0 749.72014628 0 18957
0.13350000 0.13349100 12065.56436907 0 -157.92190463 0 3990.47552735 0 648.90044376 0 -105.93763458 0 19468
0.13450000 0.13450700 12168.48981416 0 -20.40735863 0 4098.45387582 0 279.11908775 0 948.89351478 0 19953
0.13550000 0.13551000 11968.24105600 0 260.78803303 0 3505.15514156 0 372.25947558 0 316.28868445 0 19956
0.13650000 0.13649900 11880.69401253 0 163.06817688 0 3729.85555829 0 -387.52144073 0 398.46427193 0 19723
0.13750000 0.13749600 11541.49041122 0 143.74411680 0 3662.11369918 0 -100.42953051 0 235.57953741 0 20946
0.13850000 0.13851100 11384.96025193 0 102.79791420 0 3794.01644673 0 -352.89367412 0 316.17774027 0 20955
0.13950000 0.13949800 11203.38526716 0 206.66594546 0 3706.52432612 0 -160.36926740 0 -183.22706449 0 20506
0.14050000 0.14048300 11003.46604618 0 218.77423982 0 3888.82429268 0 307.80420059 0 -433.53471681 0 21447
0.14150000 0.14148400 10885.62355153 0 43.14267773 0 3825.35543231 0 363.58935244 0 369.00254981 0 21771
0.14250000 0.14249400 10999.62144578 0 58.81623481 0 3618.46100774 0 353.06613191 0 -569.92466227 0 22470
0.14350000 0.14350900 10863.09419317 0 -36.32477322 0 3097.57257593 0 312.46275782 0 87.73213352 0 22519
0.14450000 0.14449900 10728.91763909 0 -128.08890396 0 2643.89874375 0 357.37098590 0 -78.07208070 0 22218
0.14550000 0.14550500 10722.42575669 0 89.63982424 0 2685.12384465 0 74.52208653 0 -130.17048046 0 23559
0.14650000 0.14650700 10513.37835589 0 337.20550756 0 2670.88783858 0 -226.05151915 0 118.74103269 0 23044
0.14750000 0.14750500 10416.61525602 0 -29.07133041 0 2394.07660953 0 58.70627924 0 -558.96864958 0 23649
0.14850000 0.14849900 10355.72777021 0 166.70077504 0 2797.27633070 0 -10.93493330 0 -467.73738046 0 23640
0.14950000 0.14949500 10088.34130443 0 192.20805103 0 2543.28005890 0 -278.19308828 0 -594.14674327 0 24457
0.15050000 0.15050000 10041.00878118 0 15.70804864 0 2576.36559152 0 241.51669889 0 -548.19058696 0 24591
0.15150000 0.15149900 9861.79547951 0 64.02083515 0 2720.35136891 0 78.57605289 0 -1123.72177507 0 25020
0.15250000 0.15250500 9723.92810905 0 236.38580504 0 2588.99784999 0 -200.55522773 0 -347.47059064 0 25297
0.15350000 0.15350100 9554.71076843 0 -21.33764208 0 2460.30259762 0 636.99536399 0 64.07026572 0 25452
0.15450000 0.15450400 9744.93061182 0 -140.94964153 0 2575.40993370 0 377.71661124 0 -116.29257146 0 26061
0.15550000 0.15549900 9786.49623447 0 198.01339764 0 2055.30140655 0 -114.74374673 0 -75.14809733 0 26128
0.15650000 0.15649500 9666.45682530 0 176.32765445 0 2492.91579362 0 -301.21785087 0 -74.42047924 0 26331
0.15750000 0.15749700 9278.84421262 0 145.29184308 0 2851.49618096 0 -481.40328721 0 154.63312360 0 27345
0.15850000 0.15849900 9291.26776421 0 175.79380422 0 2841.18166731 0 157.61982888 0 91.12384000 0 26980
0.15950000 0.15949700 9082.08854854 0 -124.88690105 0 2845.81715694 0 466.49063147 0 180.73576342 0 27777
0.16050000 0.16050000 9444.33778313 0 9.54547274 0 2516.04930347 0 -28.82198061 0 -356.95137523 0 28224
0.16150000 0.16150500 9052.16657283 0 254.68390604 0 2761.29087093 0 -89.16660885 0 200.07410345 0 28075
0.16250000 0.16249700 9055.37406803 0 135.31675272 0 2472.89091780 0 184.28597728 0 502.50684805 0 28590
0.16350000 0.16349900 8908.78494693 0 -43.89973448 0 2550.21132420 0 243.55433710 0 57.08374802 0 29163
0.16450000 0.16449100 8798.15931646 0 140.97600451 0 2446.11052985 0 222.85281162 0 79.75491722 0 28996
0.16550000 0.16550500 8689.84044624 0 89.32577531 0 2403.22675849 0 7.02877535 0 430.54691307 0 30777
0.16650000 0.16650700 8500.90579784 0 137.15447171 0 2124.52618296 0 -45.61530502 0 353.05075351 0 29211
0.16750000 0.16749900 8576.82017895 0 21.80097136 0 1986.63684334 0 662.14564137 0 478.29794854 0 30922
0.16850000 0.16850800 8339.35568888 0 -161.10743068 0 1984.83537344 0 11.60827661 0 790.91229346 0 30867
0.16950000 0.16949900 8303.63385885 0 322.05119123 0 1916.74200801 0 -210.35895876 0 497.52314747 0 30852
0.17050000 0.17049200 8134.04304277 0 213.43024526 0 2000.22475963 0 -296.36486670 0 909.52151128 0 31257
0.17150000 0.17149500 7945.30611667 0 106.54859651 0 2565.29314236 0 -14.04355635 0 672.30307564 0 32608
0.17250000 0.17250900 7914.99968092 0 102.76858539 0 2401.78777948 0 -27.50690758 0 379.10506121 0 32361
0.17350000 0.17350400 7912.17664577 0 -72.23641667 0 2468.43118133 0 130.41214106 0 689.88827789 0 32508
0.17450000 0.17449800 7989.54099046 0 25.57647880 0 2329.49830733 0 -59.35074411 0 243.53236796 0 32791
0.17550000 0.17549800 7806.36225809 0 -75.55628404 0 2342.39419554 0 298.21906255 0 712.34184270 0 33633
0.17650000 0.17650100 7951.30369330 0 61.21493593 0 2122.71372848 0 54.45074598 0 389.26579085 0 33984
0.17750000 0.17750300 7811.51402263 0 261.90296714 0 2276.81629723 0 -186.44664271 0 218.92692538 0 34069
0.17850000 0.17849800 7666.80326345 0 179.30117825 0 2123.57052514 0 -20.80291309 0 710.94790044 0 34536
