### header ###
fiducial parameters:
Omega_m = 0.31
Omega_nu = 0
Omega_de = 0.69
Omega_k = 0
H_0 = 100
w_de = -1
zeff = 0
beta = 0
fgrowth = 0
b_1 = 2
gamma = 0.55
Lx = 3500 Ly = 3500 Lz = 3500
nx = 700 ny = 700 nz = 700
xoffset = -983.599254 yoffset = -42.9823471 zoffset = 800.977702
bins = 400 dk = 0.001
kx_ny = 0.628318531 ky_ny = 0.628318531 kz_ny = 0.628318531
############################
A(data) = 9.05161056 (not used)
A(ran) = 9.04658539 (used)
Ngal = 501811
weighted Ngal = 0
Nran = 25229228
weighted Nran = 0
SN(data) = 6756.97311
SN(ran) = 134.290328
SN(data+ran) = 6891.26344
############################
13 columns: k_central k_mean P_0(k) sigma^{lin}_{P_0(k)} P^img_1(k) sigma^{lin}_{P_1(k)} P_2(k) sigma^{lin}_{P_2(k)} P^img_3(k) sigma^{lin}_{P_3(k)} P_4(k) sigma^{lin}_{P_4(k)} N_modes
### header ###
0.00050000 0 0 0 0 0 0 0 0 0 0 0 0
0.00150000 0.00179520 -2392.72550710 0 7412.87289908 0 11930.01474342 0 6409.87157668 0 -1306.39521710 0 3
0.00250000 0.00253879 4612.87239438 0 8515.20771134 0 -4353.50466659 0 11553.46359533 0 -11902.55331197 0 6
0.00350000 0.00331552 9784.06864393 0 863.00733868 0 10605.25332096 0 -6883.07597891 0 9839.82633435 0 7
0.00450000 0.00420575 22203.11655867 0 -10346.43482180 0 -10637.62485636 0 3709.42425328 0 8973.42915657 0 24
0.00550000 0.00557378 36012.48182503 0 -10230.21804389 0 -8614.01394171 0 -29018.71430822 0 -25914.36425100 0 45
0.00650000 0.00659388 40892.37819429 0 -4786.69227091 0 -16523.87284266 0 -4714.73233593 0 -2243.81864119 0 40
0.00750000 0.00754703 60680.53647095 0 -10079.85022983 0 1149.07416859 0 14899.47424933 0 -3092.31096566 0 57
0.00850000 0.00846663 72111.96146491 0 -14807.09399392 0 -18536.68592247 0 -22294.83773972 0 -31159.71735004 0 75
0.00950000 0.00948925 80185.62231219 0 -9149.01754928 0 -9333.41556921 0 -3159.27292012 0 -11335.20013814 0 112
0.01050000 0.01054430 99976.19719482 0 -5243.47473713 0 -30628.17388283 0 -12058.75393407 0 -14270.38777760 0 105
0.01150000 0.01145670 98728.45959531 0 1859.35860084 0 -9144.79947341 0 -5378.35430386 0 -14661.98779013 0 144
0.01250000 0.01249090 106163.58723844 0 2481.31608497 0 -2448.20858321 0 -33100.80117089 0 -31030.75846794 0 169
0.01350000 0.01339930 86458.36248477 0 5207.33549334 0 23667.90931239 0 -11855.42949559 0 -21462.86621241 0 180
0.01450000 0.01448870 87176.20430296 0 10712.74834825 0 32565.63279473 0 -10632.34127695 0 -43952.35057828 0 267
0.01550000 0.01550050 80201.54994244 0 7539.06366890 0 45429.00667039 0 -14809.40075417 0 -13446.65467973 0 238
0.01650000 0.01653350 74030.63675769 0 -309.69794090 0 47468.07287866 0 14819.94594385 0 -21612.25639952 0 315
0.01750000 0.01747870 73985.70985583 0 1647.19158144 0 52444.30394946 0 2090.15545535 0 -16578.79570557 0 297
0.01850000 0.01844180 73672.86922871 0 1823.57086337 0 44315.61039354 0 4957.71108143 0 -13239.04625794 0 388
0.01950000 0.01947590 72933.27795681 0 5061.53726147 0 49969.47974689 0 4222.51363856 0 -8007.56667407 0 399
0.02050000 0.02045430 69711.06343580 0 -3373.27436315 0 47844.29448957 0 1274.61684862 0 6041.16341342 0 462
0.02150000 0.02154770 74792.63655766 0 346.29743828 0 39815.56054414 0 18963.87595016 0 -2463.13661735 0 571
0.02250000 0.02255340 73866.52724332 0 -2196.40922593 0 41037.59424382 0 -1544.94717985 0 -5190.32039041 0 510
0.02350000 0.02348930 68851.63047704 0 6252.39674416 0 38672.61576705 0 2428.20567654 0 9089.65691905 0 555
0.02450000 0.02439640 66283.76694470 0 6739.55155357 0 42046.63708114 0 1437.43018342 0 7261.05512144 0 592
0.02550000 0.02547300 61072.24632920 0 906.00095577 0 37866.45798531 0 6326.19110276 0 -538.32424387 0 837
0.02650000 0.02652900 66353.84851777 0 -560.84810994 0 43189.69170395 0 4791.29480682 0 5819.86821419 0 723
0.02750000 0.02749970 56965.77371539 0 -1327.81513363 0 23084.62850832 0 10625.86037913 0 10088.57198046 0 826
0.02850000 0.02848090 62892.93923456 0 -1886.39163397 0 24935.96837118 0 6176.83386937 0 8912.02539584 0 831
0.02950000 0.02946900 59739.26844646 0 3943.47254127 0 16437.20456500 0 4108.21916085 0 -1632.83474507 0 996
0.03050000 0.03053250 56692.25785812 0 2055.08171510 0 20441.08127090 0 -4204.44401666 0 7045.92226743 0 1041
0.03150000 0.03150510 54565.53476065 0 811.44136116 0 20698.88918938 0 -912.46427827 0 4524.06212506 0 1036
0.03250000 0.03246190 53263.31368113 0 2586.42746000 0 18864.90495120 0 3307.25708194 0 2131.85289287 0 1059
0.03350000 0.03345080 51145.81762462 0 1068.50452562 0 22499.80986409 0 -96.02768273 0 5650.77170388 0 1302
0.03450000 0.03451200 51500.50947327 0 511.97225424 0 18132.67334293 0 6151.97578162 0 1033.04302996 0 1339
0.03550000 0.03553350 51244.78862358 0 -317.71008814 0 24120.36385702 0 -1847.71495391 0 5843.44110695 0 1365
0.03650000 0.03647120 50747.07763992 0 647.51089532 0 18306.55912689 0 4602.98627906 0 11535.99812493 0 1308
0.03750000 0.03744890 52019.09114484 0 -1807.89587830 0 20249.51032508 0 1752.92907710 0 4678.96656760 0 1579
0.03850000 0.03847530 52539.10081084 0 1508.43446059 0 18042.49000203 0 687.70564331 0 3683.35786255 0 1662
0.03950000 0.03950240 50187.74320408 0 1957.20917340 0 22140.83403213 0 -3009.37744268 0 8759.12014551 0 1683
0.04050000 0.04050350 49266.90648458 0 49.22582418 0 20540.49165276 0 1248.39667387 0 4759.80203723 0 1822
0.04150000 0.04152450 48450.20351316 0 780.48134334 0 21638.61937371 0 3132.53647046 0 1519.70463206 0 1887
0.04250000 0.04250150 45414.72672603 0 3406.77730952 0 23193.81515978 0 -1089.58941269 0 9166.12052879 0 1920
0.04350000 0.04349210 44154.13717660 0 1419.15185465 0 21332.25964442 0 1420.44803421 0 665.98694641 0 2005
0.04450000 0.04448520 43326.99886122 0 -680.56567114 0 22378.75987424 0 2485.75385230 0 -830.19202655 0 2151
0.04550000 0.04548030 44168.19742950 0 279.35855143 0 19148.19707807 0 1482.62071502 0 -3048.28479876 0 2274
0.04650000 0.04648670 40688.28483573 0 158.65128025 0 15122.02168983 0 -3472.95935933 0 -3925.29307365 0 2311
0.04750000 0.04749250 40646.98284283 0 742.34730116 0 11716.80418962 0 2878.52921409 0 -6722.44857406 0 2568
0.04850000 0.04851840 39477.12586291 0 931.43902895 0 15849.74962335 0 -1145.80076596 0 -5566.37723273 0 2493
0.04950000 0.04949480 37693.34112143 0 899.23665597 0 10226.12079832 0 2786.76409474 0 -6456.83062447 0 2644
0.05050000 0.05050630 38904.06071134 0 106.06999868 0 12691.79485194 0 4124.00399165 0 -8925.86595729 0 2829
0.05150000 0.05149060 36417.26332465 0 1210.44497560 0 10291.74263492 0 -1605.19756046 0 -4562.21154564 0 2784
0.05250000 0.05249300 36428.02820578 0 548.64315135 0 10269.61970574 0 436.24680778 0 -4064.13807108 0 3055
0.05350000 0.05348950 36026.87161511 0 -1021.71354179 0 12423.88112668 0 3006.60933038 0 1142.04404214 0 3009
0.05450000 0.05448610 36560.39230539 0 -47.55682823 0 8916.03476483 0 357.92350991 0 -2406.81871373 0 3336
0.05550000 0.05550870 36264.57776577 0 524.43974412 0 7869.25992069 0 1727.20320812 0 2748.82338105 0 3349
0.05650000 0.05647670 35431.17824403 0 869.59698377 0 11606.07969800 0 -1261.35846952 0 1807.22581937 0 3324
0.05750000 0.05747970 34499.46679768 0 2226.16643305 0 11905.40930084 0 -1129.19209222 0 3104.91027042 0 3639
0.05850000 0.05849280 32669.43700562 0 655.22316373 0 12490.99686515 0 -347.19817324 0 3132.98683793 0 3846
0.05950000 0.05951020 32641.31649982 0 -583.03255273 0 13774.98355418 0 -243.28851045 0 1424.05097402 0 3787
0.06050000 0.06049470 32468.41932739 0 770.47329926 0 12662.90542605 0 2572.01570078 0 2891.87546977 0 3930
0.06150000 0.06148310 31310.20599441 0 -20.69141968 0 12359.07214845 0 -329.49214069 0 391.22214323 0 4083
0.06250000 0.06249100 31326.46316183 0 397.87769576 0 12098.95746972 0 150.23929457 0 1806.61068331 0 4303
0.06350000 0.06350600 31171.58068843 0 820.65851601 0 11189.65455144 0 1077.90182746 0 -632.37195739 0 4470
0.06450000 0.06451750 30978.69159390 0 336.66286967 0 13025.61601268 0 -1332.85705245 0 829.01448037 0 4479
0.06550000 0.06550280 29660.54288414 0 606.39124632 0 12040.95892649 0 -1074.19014039 0 -1146.67953177 0 4636
0.06650000 0.06648880 29777.85811931 0 -398.61805595 0 12492.20516813 0 2548.50871545 0 2950.91754740 0 4653
0.06750000 0.06749660 30507.34358444 0 -1072.19534201 0 10510.59925903 0 2560.72356016 0 -32.00432114 0 5220
0.06850000 0.06852730 31506.17076926 0 449.21189880 0 12203.86013787 0 -10.59102830 0 -1956.44025332 0 5029
0.06950000 0.06949320 29836.95511980 0 1452.44609414 0 9982.24131787 0 -2038.34122648 0 4041.99317276 0 5040
0.07050000 0.07048030 28455.86480915 0 752.03459572 0 12137.07393658 0 301.05527919 0 2509.05213074 0 5475
0.07150000 0.07148790 28481.89824616 0 473.64158822 0 12795.04983420 0 1455.76343506 0 1497.87828634 0 5509
0.07250000 0.07249820 26929.88798615 0 445.18605295 0 12173.43287182 0 484.37241718 0 1061.24592006 0 5916
0.07350000 0.07351270 27374.76317569 0 657.55738541 0 12197.37924005 0 87.91326912 0 2673.40330570 0 5721
0.07450000 0.07449140 26094.95062424 0 324.40408667 0 11589.05361049 0 208.59373795 0 2921.53381574 0 6028
0.07550000 0.07549160 25665.56368203 0 5.93459109 0 11704.39162260 0 748.90948482 0 1722.21621217 0 6183
0.07650000 0.07648840 25815.28340632 0 213.85315130 0 11378.47935411 0 1296.38827148 0 1331.68170318 0 6330
0.07750000 0.07749960 25586.80429663 0 114.02096185 0 8453.01306138 0 504.15673085 0 1037.69060261 0 6583
0.07850000 0.07848650 25708.73305228 0 -46.65279790 0 9729.59614850 0 664.46997693 0 2203.30753751 0 6549
0.07950000 0.07947320 24590.06418059 0 -16.06592601 0 8417.08252447 0 1352.31073049 0 2311.52754658 0 6828
0.08050000 0.08048110 24704.85296407 0 307.55155542 0 7821.74065971 0 1521.23148765 0 2264.27191534 0 7147
0.08150000 0.08149960 24169.13535928 0 688.09449718 0 7275.58771096 0 -904.25440873 0 2333.94705922 0 7386
0.08250000 0.08250610 23854.64704627 0 799.66150552 0 7667.71498297 0 221.52148142 0 2069.99876466 0 7227
0.08350000 0.08350160 22635.90871837 0 314.87606842 0 9280.51386765 0 -537.79149210 0 1601.99006526 0 7798
0.08450000 0.08449610 21732.09808638 0 625.16168395 0 8503.45421868 0 -444.91583246 0 1715.91106750 0 7371
0.08550000 0.08548940 21892.36300034 0 -69.55585143 0 8906.93953874 0 281.10839384 0 37.38247772 0 8256
0.08650000 0.08650700 21829.97062808 0 15.64598580 0 7876.87222949 0 536.60405980 0 -14.26170997 0 8037
0.08750000 0.08749060 21730.23070904 0 311.92561222 0 8172.44510851 0 425.17985091 0 559.88476293 0 8155
0.08850000 0.08849210 21710.45847840 0 -28.10194188 0 7793.56523104 0 -442.36411625 0 -157.35729760 0 8718
0.08950000 0.08949900 21249.98519579 0 30.16143939 0 7354.62171069 0 424.37687865 0 -1028.62942869 0 8571
0.09050000 0.09049190 21175.72948514 0 208.66294076 0 6852.40705227 0 781.40624435 0 -1096.05273520 0 8932
0.09150000 0.09150830 21057.53548416 0 720.82632656 0 7812.64543361 0 -134.62582310 0 -329.59319876 0 9285
0.09250000 0.09250820 19844.50913400 0 506.21523975 0 7947.77764551 0 -260.18717691 0 10.39909486 0 9204
0.09350000 0.09350330 19660.73723472 0 312.11564533 0 7612.00123084 0 321.27348349 0 -378.03955767 0 9349
0.09450000 0.09448040 19017.04128145 0 116.46502925 0 6994.67923634 0 -82.29751624 0 433.33699450 0 9564
0.09550000 0.09549270 18551.84463263 0 379.05343372 0 7321.98654555 0 1090.65821160 0 -610.14797015 0 10155
0.09650000 0.09649430 18010.30520437 0 308.33585390 0 6823.07824347 0 44.02792444 0 679.01574794 0 9913
0.09750000 0.09749140 17929.23905872 0 464.99782806 0 6920.00611193 0 377.04325694 0 -529.42893699 0 10476
0.09850000 0.09850240 17561.58541442 0 11.16548849 0 6475.09796867 0 58.03984522 0 -394.75807714 0 10575
0.09950000 0.09950330 16851.43279704 0 209.64715846 0 6512.28074686 0 16.01660528 0 614.50884546 0 10882
0.10050000 0.10051200 16644.04406670 0 371.23131959 0 6148.39481096 0 641.05416356 0 830.58197888 0 10875
0.10150000 0.10150300 16702.15245566 0 -41.58605395 0 6635.50568207 0 723.43516255 0 1102.27988939 0 11118
0.10250000 0.10250800 16768.05989115 0 105.93653612 0 5733.46356627 0 387.69609543 0 109.16885645 0 11575
0.10350000 0.10349800 16615.59402372 0 200.48712338 0 5726.81789986 0 377.72869427 0 1894.55317139 0 11364
0.10450000 0.10450100 15937.62620400 0 67.35124771 0 6207.64559546 0 -787.37745800 0 544.14936271 0 12093
0.10550000 0.10551000 15768.79332342 0 597.67718489 0 6815.27919694 0 -4.58541096 0 2392.96716770 0 12067
0.10650000 0.10649700 15500.00083236 0 277.31981476 0 6556.25199090 0 -196.35253026 0 1799.92107861 0 12054
0.10750000 0.10749900 15550.63971196 0 28.11149846 0 7118.02500186 0 634.70837598 0 1947.77342555 0 12807
0.10850000 0.10850100 15423.98759009 0 -11.23557006 0 6663.85686391 0 509.08770548 0 1536.09361435 0 12736
0.10950000 0.10950300 15302.27852589 0 -60.37263890 0 6287.00913236 0 60.56673630 0 1779.87423365 0 12933
0.11050000 0.11050200 15360.38691485 0 111.61094663 0 5964.80964940 0 -104.60707330 0 1274.59487948 0 13428
0.11150000 0.11150900 14856.85410772 0 226.67983670 0 6436.92657895 0 49.46836355 0 227.47402130 0 13453
0.11250000 0.11250000 15259.43869282 0 196.09878664 0 5963.26082467 0 69.66679561 0 1073.89685230 0 13668
0.11350000 0.11349100 14961.42723869 0 -9.35732898 0 5844.58350250 0 108.46155982 0 -218.90495623 0 13791
0.11450000 0.11448600 14681.43048359 0 -201.49990097 0 4909.69751467 0 709.81429255 0 -33.28720937 0 14205
0.11550000 0.11549300 14836.09326554 0 174.25047177 0 4894.27517477 0 816.98637340 0 523.11170930 0 14776
0.11650000 0.11649800 14382.54026366 0 360.03913858 0 4706.52686021 0 -60.23961573 0 725.32341058 0 14553
0.11750000 0.11747300 14201.18497034 0 330.34124815 0 4818.31685537 0 267.47653927 0 1181.90705603 0 14568
0.11850000 0.11849100 13887.79511459 0 132.02028248 0 4817.04264495 0 -211.83528532 0 1005.67057354 0 16015
0.11950000 0.11950300 13829.79657136 0 -117.75351961 0 4629.89848188 0 335.58748002 0 1769.53775085 0 15270
0.12050000 0.12050700 13847.26204177 0 -22.16335241 0 4829.01582906 0 337.23846128 0 1162.23368654 0 15999
0.12150000 0.12150000 13876.48100483 0 142.56657062 0 4311.22504673 0 156.25444651 0 1968.44639115 0 15670
0.12250000 0.12250700 13962.92959105 0 -30.00392062 0 4531.30095839 0 370.34706149 0 1558.02980579 0 16887
0.12350000 0.12352200 13805.08128305 0 13.10195879 0 4490.07585750 0 58.77921680 0 1356.04548517 0 16407
0.12450000 0.12449800 13816.28554709 0 389.02742563 0 4681.77861818 0 -387.90040848 0 1145.85568882 0 16306
0.12550000 0.12549900 13246.62561302 0 342.73623985 0 4437.09726394 0 -461.23671040 0 1432.10266572 0 17523
0.12650000 0.12650100 13250.25052197 0 -129.13683218 0 5080.57352575 0 354.38318216 0 1098.74285702 0 17154
0.12750000 0.12750600 13166.43823318 0 0.72544644 0 4575.22826415 0 323.18919295 0 90.13182325 0 18007
0.12850000 0.12850300 13011.33606833 0 370.74250611 0 4679.93320999 0 -451.85478696 0 211.46510522 0 17496
0.12950000 0.12949900 12791.86430815 0 277.86464956 0 4919.83627517 0 -361.08047606 0 124.68148954 0 18405
0.13050000 0.13049000 12167.28151118 0 102.60930909 0 4983.81042588 0 225.30127284 0 108.82778547 0 18100
0.13150000 0.13148800 12222.97329416 0 157.05412340 0 5331.56002466 0 -180.29967589 0 -511.77782731 0 19059
0.13250000 0.13249300 12299.64561078 0 10.58607426 0 4731.02245707 0 278.97738676 0 -120.27447902 0 18957
0.13350000 0.13349100 12102.14299577 0 -79.23512725 0 5011.57942537 0 747.36944775 0 -32.36856956 0 19468
0.13450000 0.13450700 12506.70480394 0 -9.03737035 0 4188.92281560 0 309.38158521 0 103.62801835 0 19953
0.13550000 0.13551000 12121.25615206 0 129.17088436 0 4436.48212787 0 -47.31967130 0 137.58946078 0 19956
0.13650000 0.13649900 11970.87735342 0 161.72586212 0 4236.95835150 0 56.40259468 0 254.73882890 0 19723
0.13750000 0.13749600 12066.11359770 0 146.72203443 0 4364.92862208 0 160.39782729 0 732.01521219 0 20946
0.13850000 0.13851100 11563.34971065 0 156.44447962 0 3904.40041660 0 192.60898793 0 511.22090948 0 20955
0.13950000 0.13949800 11665.72592711 0 -22.79584410 0 4321.62743696 0 97.92713503 0 257.84526603 0 20506
0.14050000 0.14048300 11348.38162524 0 286.03167927 0 4020.84787054 0 -133.25714536 0 670.52357488 0 21447
0.14150000 0.14148400 11200.52927829 0 145.05787168 0 4333.26009932 0 61.62257342 0 460.59191599 0 21771
0.14250000 0.14249400 11109.24748014 0 110.92001701 0 4384.59100700 0 -58.47966751 0 376.23698931 0 22470
0.14350000 0.14350900 11051.24893691 0 139.00097836 0 4083.39402682 0 51.70240592 0 156.94317921 0 22519
0.14450000 0.14449900 11014.89000167 0 -72.36416725 0 4101.73826303 0 538.53295074 0 282.78134425 0 22218
0.14550000 0.14550500 10719.93225871 0 99.19695162 0 3499.76171642 0 319.08315971 0 662.03689411 0 23559
0.14650000 0.14650700 10861.62226044 0 24.79833168 0 3745.22297533 0 83.99726900 0 686.53249096 0 23044
0.14750000 0.14750500 10536.96223323 0 160.88444386 0 3436.17202575 0 90.07514285 0 409.74982180 0 23649
0.14850000 0.14849900 10344.13904613 0 236.88450463 0 3359.86220003 0 -157.80436970 0 517.47991894 0 23640
0.14950000 0.14949500 10267.80725127 0 122.10670573 0 3669.56123939 0 -59.65688415 0 236.54947517 0 24457
0.15050000 0.15050000 10209.79772346 0 115.42149486 0 3405.61294483 0 299.35267044 0 383.24844199 0 24591
0.15150000 0.15149900 10134.71816987 0 -117.98529410 0 3209.14287964 0 316.82912542 0 222.67596000 0 25020
0.15250000 0.15250500 10046.99537324 0 11.03883637 0 2689.91311829 0 215.02740211 0 342.25511557 0 25297
0.15350000 0.15350100 9839.06839884 0 182.57897470 0 3051.40441737 0 -271.87146676 0 221.97734118 0 25452
0.15450000 0.15450400 9616.18043659 0 277.13856931 0 2811.55627506 0 335.68524271 0 758.12444276 0 26061
0.15550000 0.15549900 9418.90849761 0 144.52402145 0 3153.93441785 0 136.46903438 0 629.90701931 0 26128
0.15650000 0.15649500 9432.02407727 0 10.35135591 0 2839.33625912 0 270.94436883 0 612.54700080 0 26331
0.15750000 0.15749700 9587.21411870 0 -19.08624409 0 2661.17747642 0 182.02095842 0 515.41481929 0 27345
0.15850000 0.15849900 9074.46525517 0 221.88836614 0 2750.75666582 0 -422.27882529 0 580.03815824 0 26980
0.15950000 0.15949700 9108.02312441 0 240.81588316 0 3013.77127171 0 -222.13112520 0 847.79150874 0 27777
0.16050000 0.16050000 8852.37916672 0 -53.98203427 0 3109.41394517 0 240.54676113 0 552.60418822 0 28224
0.16150000 0.16150500 8997.67210826 0 69.00189943 0 2896.90640401 0 379.20502082 0 481.59661568 0 28075
0.16250000 0.16249700 8812.56009112 0 204.22737035 0 3033.91697782 0 -120.53371494 0 615.56446289 0 28590
0.16350000 0.16349900 8697.83721508 0 146.49465377 0 3114.17026510 0 -214.54847474 0 801.55744275 0 29163
0.16450000 0.16449100 8439.64483655 0 -12.42190390 0 3156.19723980 0 279.07075563 0 1106.87144073 0 28996
0.16550000 0.16550500 8480.25480139 0 24.31808616 0 2775.88936789 0 346.02941471 0 755.56943118 0 30777
0.16650000 0.16650700 8595.58182892 0 45.96703104 0 2710.15768556 0 235.40158733 0 1041.92295843 0 29211
0.16750000 0.16749900 8474.42199334 0 -10.79081571 0 2548.75037605 0 170.03459282 0 921.25083788 0 30922
0.16850000 0.16850800 8290.55123291 0 114.31754531 0 2600.91611124 0 -118.75750955 0 1181.79721031 0 30867
0.16950000 0.16949900 8067.42161006 0 248.71818467 0 2379.39023599 0 -67.03456248 0 783.21100962 0 30852
0.17050000 0.17049200 8070.92568871 0 63.69635087 0 2602.60773542 0 -169.70944947 0 911.10109282 0 31257
0.17150000 0.17149500 8041.56392620 0 129.00501731 0 2693.21947464 0 -12.87139261 0 339.07727873 0 32608
0.17250000 0.17250900 7757.07448092 0 39.88322551 0 2437.59748610 0 123.67640115 0 388.91977682 0 32361
0.17350000 0.17350400 7772.83734257 0 -15.32765289 0 2413.50831843 0 277.17481840 0 489.94708776 0 32508
0.17450000 0.17449800 7879.15702059 0 -98.58500108 0 2079.15989820 0 94.21149350 0 103.71216018 0 32791
0.17550000 0.17549800 7747.11147359 0 144.14944753 0 2116.05707750 0 234.34596991 0 52.58380802 0 33633
0.17650000 0.17650100 7675.55796779 0 147.08782069 0 1965.26086510 0 -186.81133052 0 757.32586433 0 33984
0.17750000 0.17750300 7548.70812362 0 -123.00304685 0 1675.11436494 0 322.44443892 0 306.86831500 0 34069
0.17850000 0.17849800 7583.14475867 0 33.17110244 0 1688.59243549 0 245.73587322 0 343.89071843 0 34536
