### header ###
fiducial parameters:
Omega_m = 0.31
Omega_nu = 0
Omega_de = 0.69
Omega_k = 0
H_0 = 100
w_de = -1
zeff = 0
beta = 0
fgrowth = 0
b_1 = 2
gamma = 0.55
Lx = 3500 Ly = 3500 Lz = 3500
nx = 700 ny = 700 nz = 700
xoffset = -983.599254 yoffset = -42.9823471 zoffset = 800.977702
bins = 400 dk = 0.001
kx_ny = 0.628318531 ky_ny = 0.628318531 kz_ny = 0.628318531
############################
A(data) = 9.04416271 (not used)
A(ran) = 9.0485665 (used)
Ngal = 502499
weighted Ngal = 0
Nran = 25229228
weighted Nran = 0
SN(data) = 6741.87276
SN(ran) = 134.319736
SN(data+ran) = 6876.1925
############################
13 columns: k_central k_mean P_0(k) sigma^{lin}_{P_0(k)} P^img_1(k) sigma^{lin}_{P_1(k)} P_2(k) sigma^{lin}_{P_2(k)} P^img_3(k) sigma^{lin}_{P_3(k)} P_4(k) sigma^{lin}_{P_4(k)} N_modes
### header ###
0.00050000 0 0 0 0 0 0 0 0 0 0 0 0
0.00150000 0.00179520 13235.97057762 0 -21973.64883744 0 -15150.03234991 0 25261.22156532 0 64167.25949972 0 3
0.00250000 0.00253879 17535.55197740 0 -12037.88324617 0 -6723.30537072 0 -32046.39204881 0 -39495.47009912 0 6
0.00350000 0.00331552 74802.96205588 0 -57905.28420828 0 -85564.65765955 0 14632.76882706 0 18891.15807967 0 7
0.00450000 0.00420575 78032.31654907 0 -35442.71204524 0 -56296.37386229 0 -10442.90133821 0 -37499.57326109 0 24
0.00550000 0.00557378 122970.09313362 0 37024.27080550 0 -42022.47102146 0 -108419.81844665 0 -15017.66825031 0 45
0.00650000 0.00659388 66702.16931432 0 12135.42625069 0 38453.47354406 0 -40567.23484588 0 -8458.00005734 0 40
0.00750000 0.00754703 49899.39817382 0 7617.09807252 0 50951.93991856 0 -4303.14040131 0 -12764.18318525 0 57
0.00850000 0.00846663 50623.83073556 0 -829.54064140 0 30890.04609317 0 39816.32946422 0 -25781.78045994 0 75
0.00950000 0.00948925 49090.93363183 0 -939.12932821 0 40466.17677814 0 1238.49957397 0 -25579.99386163 0 112
0.01050000 0.01054430 60835.63863580 0 -300.62358549 0 17587.72869717 0 3368.51804322 0 -22404.46377409 0 105
0.01150000 0.01145670 60673.94572740 0 -3130.65810855 0 25708.95274373 0 -3776.64983748 0 -10804.51346759 0 144
0.01250000 0.01249090 58807.77669156 0 -2295.33628660 0 19031.87045444 0 13247.17484165 0 -2081.68634989 0 169
0.01350000 0.01339930 75948.87266757 0 -6161.07100771 0 15421.57098413 0 6543.65268615 0 -14030.04532952 0 180
0.01450000 0.01448870 77038.54226764 0 -6629.61795117 0 6463.84976635 0 6796.50656240 0 -13703.25429523 0 267
0.01550000 0.01550050 83223.62555101 0 1664.42637582 0 15541.74220817 0 5758.21180829 0 19759.04915932 0 238
0.01650000 0.01653350 76389.57371953 0 4623.07706231 0 22008.90931543 0 -12530.32163499 0 8593.01143893 0 315
0.01750000 0.01747870 73112.98556424 0 4854.15951570 0 14712.07744110 0 -3214.27267503 0 -1160.03677203 0 297
0.01850000 0.01844180 83290.19206086 0 -1137.02409247 0 30423.31160419 0 5289.84061800 0 -17749.75114274 0 388
0.01950000 0.01947590 73300.71190966 0 776.40386999 0 17228.42332803 0 -5519.73673755 0 16858.13338631 0 399
0.02050000 0.02045430 81543.53517470 0 -3299.51295827 0 33154.73542227 0 6913.41536838 0 -6848.02420781 0 462
0.02150000 0.02154770 70810.50930547 0 7039.59515362 0 25463.33770081 0 -15122.68076419 0 -15428.71095630 0 571
0.02250000 0.02255340 64217.56884215 0 6136.83904060 0 33826.11249844 0 873.92600383 0 -8845.25017912 0 510
0.02350000 0.02348930 64148.03649771 0 -197.98703466 0 38716.99344028 0 9732.48509109 0 -10664.48213632 0 555
0.02450000 0.02439640 68493.97279379 0 -1842.56318937 0 25810.77973156 0 12975.74605316 0 -7716.47550066 0 592
0.02550000 0.02547300 71413.34264873 0 -4750.76173400 0 14280.82312155 0 8909.94931162 0 -15093.57164685 0 837
0.02650000 0.02652900 69910.76296533 0 706.63975107 0 19310.98844373 0 3230.35408929 0 -1634.20781664 0 723
0.02750000 0.02749970 70678.69443449 0 3764.81945281 0 8413.53450753 0 -5233.62157553 0 -2100.70064503 0 826
0.02850000 0.02848090 63352.86328854 0 5447.02985164 0 20805.98877205 0 -3214.65713508 0 -1609.71221979 0 831
0.02950000 0.02946900 60796.86309459 0 2214.61066270 0 17910.67513106 0 25.85845278 0 -2727.61217139 0 996
0.03050000 0.03053250 56286.48774696 0 2273.29024943 0 19907.23104344 0 4757.17672438 0 780.71531473 0 1041
0.03150000 0.03150510 52714.30474351 0 -215.26357042 0 22034.50336955 0 -2140.01443030 0 9144.15138363 0 1036
0.03250000 0.03246190 52860.50940457 0 2366.17579517 0 19770.69280626 0 3415.45512186 0 721.06688870 0 1059
0.03350000 0.03345080 52233.94938453 0 3140.28059413 0 25021.64803732 0 -3544.55680341 0 -1991.37119413 0 1302
0.03450000 0.03451200 47492.67832124 0 2864.00760913 0 26539.93565951 0 -3094.92529394 0 -1427.56603724 0 1339
0.03550000 0.03553350 46769.45406249 0 444.88727257 0 32539.92889489 0 1565.78491403 0 3623.62375685 0 1365
0.03650000 0.03647120 45080.79571956 0 -556.23019563 0 25645.79145139 0 4616.58517991 0 -3143.47710475 0 1308
0.03750000 0.03744890 45599.37739112 0 757.94319731 0 25093.81667918 0 2768.14524422 0 207.39202571 0 1579
0.03850000 0.03847530 45868.38957364 0 -1405.44310807 0 21605.66565597 0 4577.01874948 0 4138.42673545 0 1662
0.03950000 0.03950240 46749.46214039 0 -709.26835929 0 18362.36075560 0 5671.32383917 0 -626.18544611 0 1683
0.04050000 0.04050350 46173.32130850 0 2350.14930378 0 18677.94752586 0 1001.42393778 0 3720.03535040 0 1822
0.04150000 0.04152450 45875.74923727 0 1872.12267418 0 14890.68659127 0 -4766.52459565 0 -2498.62777136 0 1887
0.04250000 0.04250150 42920.89921289 0 833.29956214 0 20794.45497084 0 -26.35506530 0 771.70357139 0 1920
0.04350000 0.04349210 40588.54491669 0 1048.66419062 0 20888.04352923 0 -186.45982420 0 -1181.84114860 0 2005
0.04450000 0.04448520 38484.45003874 0 -33.51118480 0 17720.42233395 0 3289.86850354 0 -229.77089543 0 2151
0.04550000 0.04548030 40337.54743321 0 34.08040535 0 16694.79279203 0 4438.90971841 0 -3744.78359242 0 2274
0.04650000 0.04648670 39585.32390284 0 459.75489156 0 14411.86907245 0 -284.13354513 0 1536.90647272 0 2311
0.04750000 0.04749250 39174.17135112 0 651.30716361 0 15532.18563002 0 1825.98746934 0 5.73317797 0 2568
0.04850000 0.04851840 38224.33536001 0 317.48929823 0 13854.07247677 0 -22.16983330 0 685.25828054 0 2493
0.04950000 0.04949480 37791.54320030 0 661.54588371 0 14761.28832626 0 1444.53720188 0 1315.10598316 0 2644
0.05050000 0.05050630 36493.93564127 0 770.71825523 0 12431.57032748 0 86.75472625 0 -789.39202861 0 2829
0.05150000 0.05149060 36531.50287950 0 172.38529135 0 15155.52463621 0 3614.17702443 0 5247.06669237 0 2784
0.05250000 0.05249300 36424.18360538 0 70.10145515 0 12917.19828130 0 1238.36775910 0 1763.71592738 0 3055
0.05350000 0.05348950 36139.13394689 0 261.53827933 0 12403.33997595 0 -1795.19771240 0 4180.68438617 0 3009
0.05450000 0.05448610 33723.84612771 0 1740.01121975 0 14154.61038259 0 -595.11448411 0 2114.88172823 0 3336
0.05550000 0.05550870 33585.66020463 0 1083.64675892 0 13327.03268431 0 -1117.85601331 0 5397.62124417 0 3349
0.05650000 0.05647670 33220.42316630 0 -380.06071903 0 13766.30574184 0 2110.03753172 0 211.26408754 0 3324
0.05750000 0.05747970 32449.30617109 0 304.41216457 0 14947.47683151 0 2110.80645180 0 1983.28654871 0 3639
0.05850000 0.05849280 31649.95882435 0 449.47552854 0 12218.14008223 0 431.53662306 0 3603.65380390 0 3846
0.05950000 0.05951020 32195.78223592 0 -426.39254772 0 12015.03533520 0 1294.20234153 0 1227.38318652 0 3787
0.06050000 0.06049470 31934.67894566 0 352.09839107 0 12526.14749741 0 -56.50826627 0 941.82823770 0 3930
0.06150000 0.06148310 31130.49838698 0 1016.19708944 0 10982.24385196 0 234.52941227 0 2626.59804193 0 4083
0.06250000 0.06249100 30457.69331637 0 -183.71587797 0 11021.15120804 0 2426.14057690 0 4045.02491479 0 4303
0.06350000 0.06350600 31503.20493466 0 -1118.64690254 0 9495.42703021 0 1777.60042712 0 1097.13251868 0 4470
0.06450000 0.06451750 31434.11197313 0 1008.81655513 0 9086.94372963 0 -405.17914115 0 279.96270292 0 4479
0.06550000 0.06550280 30760.75767389 0 1111.14443947 0 10562.38053418 0 -2861.47017287 0 853.26951509 0 4636
0.06650000 0.06648880 29704.59102019 0 -426.75064479 0 8761.88825780 0 519.38903765 0 -323.30123559 0 4653
0.06750000 0.06749660 30002.60247433 0 -69.92822844 0 10990.39440481 0 14.74250471 0 -1906.64718581 0 5220
0.06850000 0.06852730 29528.28863026 0 780.03427123 0 8730.06595103 0 397.04945898 0 136.94137100 0 5029
0.06950000 0.06949320 29808.28538536 0 341.41809114 0 11629.36699187 0 -710.65790772 0 -3685.49985420 0 5040
0.07050000 0.07048030 28687.19990771 0 480.69258536 0 9502.00678918 0 -399.86700185 0 -2298.36802863 0 5475
0.07150000 0.07148790 28352.71967261 0 255.63297311 0 10209.22652569 0 1195.75860206 0 -1672.47806752 0 5509
0.07250000 0.07249820 27980.78204500 0 10.72005309 0 10368.26116752 0 426.29698194 0 -1699.04974859 0 5916
0.07350000 0.07351270 27544.14528490 0 983.33344520 0 9215.92458088 0 902.50456631 0 -1644.79694461 0 5721
0.07450000 0.07449140 27077.96002454 0 26.98118594 0 9264.59722198 0 253.08235536 0 -999.68507994 0 6028
0.07550000 0.07549160 27175.61287479 0 867.28692816 0 9617.47661616 0 -548.39819538 0 -2989.98967207 0 6183
0.07650000 0.07648840 25227.71861894 0 480.10051690 0 9736.26378405 0 -185.67882109 0 107.49173191 0 6330
0.07750000 0.07749960 24616.64684624 0 441.56114400 0 9331.18570097 0 669.31087807 0 -1625.90347977 0 6583
0.07850000 0.07848650 24542.06159841 0 -414.60829825 0 8885.87112852 0 1111.22133147 0 -642.86002729 0 6549
0.07950000 0.07947320 24281.83707396 0 459.27266883 0 8369.51932519 0 1892.55397918 0 -153.60496761 0 6828
0.08050000 0.08048110 23869.47621926 0 810.01776055 0 8884.33328836 0 -809.73985086 0 1349.50966448 0 7147
0.08150000 0.08149960 23168.22110567 0 536.72269318 0 7930.58678942 0 74.24802145 0 650.55691730 0 7386
0.08250000 0.08250610 23571.13522795 0 -334.94158715 0 8564.93487142 0 1813.04764284 0 867.33086645 0 7227
0.08350000 0.08350160 22971.48741073 0 3.03430144 0 7282.61783741 0 -85.23720755 0 1633.84532575 0 7798
0.08450000 0.08449610 22388.97552675 0 737.55912597 0 8047.08916621 0 20.52159819 0 1231.85390756 0 7371
0.08550000 0.08548940 22023.18925979 0 408.76670256 0 7831.17640755 0 -305.28324118 0 1745.76713578 0 8256
0.08650000 0.08650700 21582.81774500 0 410.81312843 0 8718.41131952 0 19.09129699 0 514.32295278 0 8037
0.08750000 0.08749060 20800.38664003 0 87.48772678 0 7532.19831104 0 -38.10416414 0 1029.07759925 0 8155
0.08850000 0.08849210 20914.51634915 0 -83.19374751 0 8018.47435464 0 1314.17229449 0 457.69857958 0 8718
0.08950000 0.08949900 20525.99201695 0 290.20471840 0 7135.01813564 0 325.82109654 0 618.46768542 0 8571
0.09050000 0.09049190 20472.49714848 0 608.54641946 0 6999.57835571 0 242.81178000 0 283.82707556 0 8932
0.09150000 0.09150830 20227.32148846 0 376.18316491 0 6832.18445414 0 -469.23128233 0 576.89107820 0 9285
0.09250000 0.09250820 19561.10716140 0 315.13530433 0 8003.87585768 0 -583.14679228 0 -963.09986250 0 9204
0.09350000 0.09350330 18946.19078830 0 373.33816061 0 7570.19394759 0 139.59084991 0 -696.66136534 0 9349
0.09450000 0.09448040 18333.36148399 0 8.52847708 0 7443.49788744 0 410.26719517 0 166.71505498 0 9564
0.09550000 0.09549270 18057.97824937 0 192.97916802 0 7187.41454685 0 904.29834702 0 756.92932126 0 10155
0.09650000 0.09649430 18388.83357552 0 156.16437302 0 6992.09786178 0 565.00686912 0 270.05242154 0 9913
0.09750000 0.09749140 18038.64540163 0 325.95400986 0 6410.56360475 0 882.72794184 0 386.79865585 0 10476
0.09850000 0.09850240 17345.84840892 0 35.19237364 0 6474.91123094 0 208.93755507 0 1495.62644896 0 10575
0.09950000 0.09950330 17635.51158789 0 295.30046162 0 6087.16680339 0 -149.94710494 0 518.04452597 0 10882
0.10050000 0.10051200 16938.21092043 0 268.76283272 0 6646.76486897 0 -83.79471348 0 1309.88831118 0 10875
0.10150000 0.10150300 16623.94229888 0 517.90062807 0 6375.28115762 0 -318.15166796 0 1290.43463314 0 11118
0.10250000 0.10250800 15876.77167190 0 368.72683704 0 6790.49800120 0 163.47899990 0 521.88473254 0 11575
0.10350000 0.10349800 15893.57806795 0 227.47402130 0 6639.11960645 0 100.17809364 0 886.29023873 0 11364
0.10450000 0.10450100 15330.72856888 0 109.83298371 0 6637.90031890 0 535.26284349 0 1207.58898673 0 12093
0.10550000 0.10551000 15354.78478283 0 -27.80722580 0 6671.19455839 0 66.81267411 0 1284.87643941 0 12067
0.10650000 0.10649700 15331.27779751 0 122.42965216 0 6010.50547134 0 695.48381916 0 916.76693535 0 12054
0.10750000 0.10749900 15498.57283792 0 -205.92119144 0 5575.10996793 0 553.78942360 0 1211.49949457 0 12807
0.10850000 0.10850100 15584.36234978 0 94.83333016 0 5589.81831062 0 -244.74506477 0 932.54847078 0 12736
0.10950000 0.10950300 15043.15245870 0 415.34426462 0 5755.01529767 0 -282.34525672 0 521.75511458 0 12933
0.11050000 0.11050200 14779.08333384 0 161.26451007 0 5888.35702424 0 -97.96415304 0 810.60433673 0 13428
0.11150000 0.11150900 14840.92647748 0 34.09248838 0 5744.92047547 0 673.77500837 0 688.77663914 0 13453
0.11250000 0.11250000 14928.36367522 0 -190.58453120 0 5018.36789122 0 803.33254968 0 823.58370769 0 13668
0.11350000 0.11349100 14944.73068837 0 183.56758624 0 5012.65591348 0 -396.87480428 0 628.89204480 0 13791
0.11450000 0.11448600 14398.90727680 0 298.69798992 0 5336.08566856 0 387.07327016 0 865.95120413 0 14205
0.11550000 0.11549300 14094.96415348 0 274.56598241 0 5013.18317296 0 92.18033619 0 1506.98449701 0 14776
0.11650000 0.11649800 13762.24144999 0 78.77696072 0 5119.21725209 0 546.14416109 0 1592.94976203 0 14553
0.11750000 0.11747300 14143.40611856 0 186.98598522 0 5080.67238690 0 459.23971511 0 1416.81214069 0 14568
0.11850000 0.11849100 13576.82186481 0 64.19900491 0 4545.99831651 0 16.23552781 0 1881.42660716 0 16015
0.11950000 0.11950300 13423.58707730 0 -61.44264612 0 4534.57436102 0 571.12527605 0 2042.52634864 0 15270
0.12050000 0.12050700 13616.36632611 0 142.26559333 0 4301.49271542 0 417.18967281 0 2416.06772384 0 15999
0.12150000 0.12150000 13606.59005651 0 71.30690214 0 3952.73253596 0 -24.26854574 0 2523.23321394 0 15670
0.12250000 0.12250700 13368.66421440 0 -353.87239954 0 3812.75612756 0 692.76513744 0 1989.50381679 0 16887
0.12350000 0.12352200 13923.49497548 0 232.34787616 0 3558.13373512 0 444.35232389 0 2755.61184690 0 16407
0.12450000 0.12449800 13557.15947989 0 5.81378276 0 2717.27568859 0 -251.66424704 0 2134.25851426 0 16306
0.12550000 0.12549900 13439.51470755 0 284.86511767 0 3453.83521846 0 -108.54185705 0 2901.66272394 0 17523
0.12650000 0.12650100 12889.29746695 0 243.66198591 0 3595.97558766 0 -211.03890380 0 2340.18629645 0 17154
0.12750000 0.12750600 12948.06493026 0 81.26540580 0 3396.00144382 0 87.10414551 0 2039.67035977 0 18007
0.12850000 0.12850300 12985.96170566 0 7.27701571 0 3933.30082706 0 257.80462311 0 1897.78263573 0 17496
0.12950000 0.12949900 12835.14352412 0 66.04661002 0 3238.13116668 0 -95.08542610 0 1464.49617026 0 18405
0.13050000 0.13049000 12665.10234056 0 -9.67791373 0 3504.08963802 0 -87.99686172 0 1150.30444072 0 18100
0.13150000 0.13148800 12321.06552732 0 319.59723771 0 3486.12986185 0 -122.69767573 0 1361.12035770 0 19059
0.13250000 0.13249300 12597.10783628 0 194.22701547 0 3770.97081346 0 -92.98056230 0 333.69044433 0 18957
0.13350000 0.13349100 12162.33845351 0 209.09902829 0 3484.99845087 0 94.85628791 0 951.16182902 0 19468
0.13450000 0.13450700 11845.21384309 0 139.17563306 0 3744.16845636 0 -26.92044125 0 535.43749819 0 19953
0.13550000 0.13551000 11875.86080059 0 112.05362490 0 3558.34244200 0 89.59764348 0 572.87951229 0 19956
0.13650000 0.13649900 11732.73181986 0 66.62308039 0 3519.16047160 0 40.38478110 0 244.55722858 0 19723
0.13750000 0.13749600 11556.75896711 0 -17.64188264 0 3659.48838633 0 88.13087351 0 672.66556654 0 20946
0.13850000 0.13851100 11550.49776073 0 143.32780150 0 3410.53403335 0 -68.60634497 0 -242.03187534 0 20955
0.13950000 0.13949800 11341.68103596 0 -8.73913921 0 3244.77683309 0 73.12748520 0 280.05167796 0 20506
0.14050000 0.14048300 11385.61932629 0 176.03656327 0 3510.95499588 0 108.55943236 0 -94.55542047 0 21447
0.14150000 0.14148400 11097.16445030 0 188.91377771 0 3480.95612816 0 -71.25867987 0 574.43602623 0 21771
0.14250000 0.14249400 11012.47339570 0 131.43700168 0 3323.34948077 0 133.34941577 0 -14.00225436 0 22470
0.14350000 0.14350900 10909.77862664 0 146.73851129 0 3308.02600202 0 352.59928757 0 435.75140356 0 22519
0.14450000 0.14449900 10795.05575060 0 -51.38967514 0 3412.08285808 0 45.54555299 0 -58.95079583 0 22218
0.14550000 0.14550500 10733.71789730 0 173.02129810 0 3332.09320054 0 -401.41912196 0 -109.10712315 0 23559
0.14650000 0.14650700 10424.32642598 0 282.54078211 0 3625.84264051 0 -93.41093785 0 -90.98345716 0 23044
0.14750000 0.14750500 10409.00294723 0 -25.47069736 0 3334.72949796 0 -359.10874529 0 -326.05726485 0 23649
0.14850000 0.14849900 10395.09647834 0 -37.31338476 0 3509.25238713 0 359.39434417 0 -983.09947380 0 23640
0.14950000 0.14949500 10240.94997130 0 217.49343865 0 3174.45359943 0 56.85933321 0 -758.73298808 0 24457
0.15050000 0.15050000 10049.68659352 0 113.16746056 0 3072.27510528 0 392.67540218 0 41.14227722 0 24591
0.15150000 0.15149900 10134.35567897 0 -129.11156766 0 2789.07085498 0 569.39520587 0 -761.37367933 0 25020
0.15250000 0.15250500 9991.97364918 0 89.02798355 0 2672.66733934 0 110.31257015 0 -117.30205368 0 25297
0.15350000 0.15350100 9732.28736878 0 247.82733584 0 2438.52019020 0 65.66588474 0 247.27151646 0 25452
0.15450000 0.15450400 9631.39406962 0 246.33672934 0 2814.79672397 0 -249.23995187 0 430.56338993 0 26061
0.15550000 0.15549900 9393.35838178 0 96.44564572 0 2498.07854273 0 203.34421071 0 129.98484118 0 26128
0.15650000 0.15649500 9299.03385703 0 7.95606001 0 2776.37268908 0 360.35878965 0 378.51518967 0 26331
0.15750000 0.15749700 9213.11253030 0 98.69056282 0 2577.14549617 0 79.25248287 0 658.41198515 0 27345
0.15850000 0.15849900 9316.14782111 0 32.53970920 0 2560.78946760 0 47.65437123 0 540.89573231 0 26980
0.15950000 0.15949700 9071.57631258 0 -45.89596085 0 2391.66000356 0 93.86767638 0 791.24842138 0 27777
0.16050000 0.16050000 9050.44199494 0 113.74524908 0 2525.21043701 0 73.33860869 0 896.21370160 0 28224
0.16150000 0.16150500 8934.29112446 0 228.84050213 0 2679.33497490 0 -264.76884213 0 1340.06293206 0 28075
0.16250000 0.16249700 8920.00019553 0 184.15196550 0 2828.36267111 0 220.93051141 0 1303.08886075 0 28590
0.16350000 0.16349900 8773.68568875 0 -99.85371921 0 2811.44642933 0 59.39753839 0 1044.54936973 0 29163
0.16450000 0.16449100 8737.42561466 0 41.99731635 0 2740.44215217 0 328.09819843 0 1228.99791869 0 28996
0.16550000 0.16550500 8935.96077950 0 19.27671658 0 2520.34427135 0 -274.07277511 0 1003.99322931 0 30777
0.16650000 0.16650700 8659.49007220 0 79.92364026 0 2664.06641901 0 46.92499561 0 1201.49254895 0 29211
0.16750000 0.16749900 8714.07241335 0 49.73177360 0 2597.54384746 0 17.19887483 0 597.51790859 0 30922
0.16850000 0.16850800 8540.02186080 0 183.49398960 0 2555.16536644 0 59.95742206 0 571.29993075 0 30867
0.16950000 0.16949900 8562.71598775 0 -18.69409485 0 2423.20769602 0 53.04559945 0 264.99951815 0 30852
0.17050000 0.17049200 8425.74935224 0 46.28492457 0 2342.00973550 0 24.59533678 0 349.69936041 0 31257
0.17150000 0.17149500 8234.72763505 0 166.56896017 0 2244.98300588 0 -12.29382379 0 93.96521939 0 32608
0.17250000 0.17250900 8205.06928908 0 116.43756782 0 2277.83786248 0 96.82472332 0 234.35475757 0 32361
0.17350000 0.17350400 7894.13997759 0 116.02784326 0 2341.85595148 0 9.49924966 0 132.79908868 0 32508
0.17450000 0.17449800 7944.26258228 0 109.27178190 0 2077.67698090 0 105.21627770 0 171.29891712 0 32791
0.17550000 0.17549800 7819.74146750 0 15.18298607 0 2098.16320876 0 234.34816682 0 356.78770510 0 33633
0.17650000 0.17650100 7743.34376519 0 10.98211204 0 2130.71049732 0 161.14038440 0 600.16848596 0 33984
0.17750000 0.17750300 7922.44722113 0 11.34190073 0 1830.75477384 0 81.10316366 0 371.23241804 0 34069
0.17850000 0.17849800 7722.90147562 0 -47.57297555 0 1781.07155206 0 39.04169741 0 220.65040481 0 34536
