### header ###
fiducial parameters:
Omega_m = 0.31
Omega_nu = 0
Omega_de = 0.69
Omega_k = 0
H_0 = 100
w_de = -1
zeff = 0
beta = 0
fgrowth = 0
b_1 = 2
gamma = 0.55
Lx = 3500 Ly = 3500 Lz = 3500
nx = 700 ny = 700 nz = 700
xoffset = -983.599254 yoffset = -42.9823471 zoffset = 800.977702
bins = 400 dk = 0.001
kx_ny = 0.628318531 ky_ny = 0.628318531 kz_ny = 0.628318531
############################
A(data) = 9.04998148 (not used)
A(ran) = 9.06364604 (used)
Ngal = 503545
weighted Ngal = 0
Nran = 25229228
weighted Nran = 0
SN(data) = 6716.77006
SN(ran) = 134.543581
SN(data+ran) = 6851.31365
############################
13 columns: k_central k_mean P_0(k) sigma^{lin}_{P_0(k)} P^img_1(k) sigma^{lin}_{P_1(k)} P_2(k) sigma^{lin}_{P_2(k)} P^img_3(k) sigma^{lin}_{P_3(k)} P_4(k) sigma^{lin}_{P_4(k)} N_modes
### header ###
0.00050000 0 0 0 0 0 0 0 0 0 0 0 0
0.00150000 0.00179520 82008.51213207 0 -45482.94092176 0 6131.36872345 0 -37251.32192075 0 -49783.73062453 0 3
0.00250000 0.00253879 74156.19042229 0 -2562.68979865 0 -2683.33335932 0 -45710.98064855 0 43602.71163301 0 6
0.00350000 0.00331552 59907.55209840 0 23898.03610797 0 -7787.34796295 0 4413.53535575 0 -8288.40924125 0 7
0.00450000 0.00420575 50238.49192940 0 8375.45099439 0 31848.01066799 0 -9248.79042204 0 19289.45868147 0 24
0.00550000 0.00557378 45037.51650359 0 5789.07845725 0 30426.49713024 0 18788.45232603 0 -18429.80603125 0 45
0.00650000 0.00659388 54077.16066368 0 401.23128576 0 40513.19074878 0 24196.81648218 0 34890.84711875 0 40
0.00750000 0.00754703 43483.63886623 0 5336.93148065 0 33721.42952174 0 20525.22309687 0 8234.54089731 0 57
0.00850000 0.00846663 49592.70890735 0 -4930.95266262 0 18612.58931901 0 17848.61229597 0 17942.85992872 0 75
0.00950000 0.00948925 58410.46470129 0 -7890.28439261 0 19763.66267980 0 19417.75848922 0 -3287.49583586 0 112
0.01050000 0.01054430 65729.48541224 0 4571.79009293 0 19333.06743462 0 -4809.61707389 0 25981.80952665 0 105
0.01150000 0.01145670 61755.37689804 0 969.68071993 0 18066.32652454 0 -21422.55283104 0 9193.97740486 0 144
0.01250000 0.01249090 60119.55434922 0 -2055.81768146 0 31125.11594641 0 7133.89770924 0 11591.14067928 0 169
0.01350000 0.01339930 66673.60942561 0 -1388.01059138 0 29847.50030948 0 5548.15382682 0 -19299.56448824 0 180
0.01450000 0.01448870 67798.86904084 0 3278.82900810 0 38921.63602747 0 -882.06447365 0 -3403.43799946 0 267
0.01550000 0.01550050 76813.46837545 0 -1103.49917695 0 45429.66574474 0 -7508.24095824 0 -11252.37646088 0 238
0.01650000 0.01653350 67407.26902832 0 2889.21720321 0 47561.66143705 0 2779.36049282 0 361.80985168 0 315
0.01750000 0.01747870 72189.07316443 0 1189.82693287 0 58310.50509080 0 -5688.54764898 0 -3496.97163499 0 297
0.01850000 0.01844180 68998.71390390 0 -1071.90754621 0 47254.53278768 0 10142.80281529 0 -14830.71082497 0 388
0.01950000 0.01947590 78294.73798804 0 1644.42346914 0 57069.57792629 0 -6154.97456993 0 -20537.08643526 0 399
0.02050000 0.02045430 70682.75872635 0 5922.70578270 0 60650.98797071 0 -12852.60899453 0 -20647.26169825 0 462
0.02150000 0.02154770 64964.62962340 0 5411.19817588 0 68121.04655465 0 2216.18145658 0 -10054.54177460 0 571
0.02250000 0.02255340 60154.15575286 0 -1162.05793338 0 63179.19719603 0 13949.19887532 0 -9058.88913125 0 510
0.02350000 0.02348930 66867.92651457 0 -2069.41658232 0 57779.95023512 0 26641.54295589 0 -7553.82693445 0 555
0.02450000 0.02439640 73911.78368236 0 -3764.86339110 0 48275.98819202 0 19432.58766220 0 5175.30447969 0 592
0.02550000 0.02547300 65557.79654280 0 537.05003345 0 40227.81155312 0 2225.77098844 0 14277.63759550 0 837
0.02650000 0.02652900 62471.24149316 0 3382.97374074 0 32749.84407692 0 2331.33273095 0 17762.82278411 0 723
0.02750000 0.02749970 62210.02835718 0 5765.00027415 0 29521.47819526 0 7423.17642817 0 12285.36566643 0 826
0.02850000 0.02848090 57790.05604190 0 739.47263852 0 37165.97179180 0 339.48700328 0 10871.59625234 0 831
0.02950000 0.02946900 57470.62467123 0 -104.70692307 0 29812.67921439 0 5801.58988542 0 12051.50411617 0 996
0.03050000 0.03053250 59153.35134497 0 -1866.56448046 0 28795.39794764 0 4685.66715688 0 4700.29860756 0 1041
0.03150000 0.03150510 57078.80496726 0 2695.81183377 0 29606.60863277 0 -10991.16332489 0 690.24857187 0 1036
0.03250000 0.03246190 52738.47080319 0 3249.58807588 0 22964.89666719 0 -1425.31419986 0 -3806.85741208 0 1059
0.03350000 0.03345080 53082.50761644 0 518.67723735 0 34529.01529792 0 5347.70734636 0 5503.50153928 0 1302
0.03450000 0.03451200 53088.10974845 0 -74.84415420 0 28619.64478633 0 6443.93473626 0 -4197.99607256 0 1339
0.03550000 0.03553350 52642.68533028 0 1905.04343821 0 31514.18950724 0 549.30332416 0 1112.27585044 0 1365
0.03650000 0.03647120 48953.40678311 0 951.93624139 0 26857.82919001 0 -107.35903827 0 2996.19595558 0 1308
0.03750000 0.03744890 45210.74321320 0 2407.21415834 0 28259.90003430 0 2401.61202632 0 7677.79882060 0 1579
0.03850000 0.03847530 48721.08307302 0 -802.65370309 0 29861.89009956 0 6586.15199747 0 7093.23282154 0 1662
0.03950000 0.03950240 48401.43201090 0 784.71040378 0 25367.33253645 0 4415.92999257 0 1905.16426851 0 1683
0.04050000 0.04050350 46474.62813441 0 -22.97807815 0 22958.52561509 0 1473.92093354 0 9424.29093817 0 1822
0.04150000 0.04152450 44590.99362816 0 1012.94236059 0 21326.10828377 0 -1495.05525118 0 4061.91918742 0 1887
0.04250000 0.04250150 44119.53577297 0 1515.10209614 0 20851.68459399 0 1391.25104029 0 4656.75576184 0 1920
0.04350000 0.04349210 41224.55166915 0 997.93633599 0 21196.81986449 0 1811.37798781 0 1924.80468428 0 2005
0.04450000 0.04448520 39496.78824783 0 1233.84211520 0 19806.28282142 0 2964.51644825 0 6711.25529460 0 2151
0.04550000 0.04548030 40964.87637333 0 1091.04486856 0 17644.84847459 0 3282.48687077 0 -1452.38018671 0 2274
0.04650000 0.04648670 37640.61517304 0 257.55966714 0 14898.26594635 0 -353.02768591 0 2522.62906245 0 2311
0.04750000 0.04749250 35616.81752065 0 153.43470673 0 13852.31494515 0 3055.93006127 0 4493.63485901 0 2568
0.04850000 0.04851840 36435.71740659 0 -36.98318850 0 14364.85510180 0 1194.57226822 0 2839.01770651 0 2493
0.04950000 0.04949480 35502.02873718 0 926.24991686 0 10548.38618871 0 1161.77233449 0 1658.69242893 0 2644
0.05050000 0.05050630 34842.51499939 0 1082.53841555 0 12370.16656675 0 -830.02945488 0 663.63844479 0 2829
0.05150000 0.05149060 34629.30444559 0 613.67182103 0 13715.55701652 0 462.47906556 0 2900.34457523 0 2784
0.05250000 0.05249300 34248.13977702 0 382.69042570 0 15658.17867753 0 -2025.42336913 0 -435.14395669 0 3055
0.05350000 0.05348950 32165.57466132 0 893.37638650 0 15620.61143930 0 -1463.87004963 0 1099.41291595 0 3009
0.05450000 0.05448610 33718.79322432 0 -140.62120281 0 17281.25912215 0 1021.95190702 0 925.16683801 0 3336
0.05550000 0.05550870 32360.77051609 0 -501.51933497 0 14554.66851601 0 964.98920898 0 2709.42171920 0 3349
0.05650000 0.05647670 34910.72919512 0 231.21976055 0 17131.53939786 0 2242.13800159 0 -1914.52312435 0 3324
0.05750000 0.05747970 33653.54486319 0 822.83236292 0 16072.73644675 0 -1371.58865537 0 1896.16790356 0 3639
0.05850000 0.05849280 32967.33861403 0 -259.05137210 0 16910.20026035 0 2895.73105475 0 4905.83094513 0 3846
0.05950000 0.05951020 33392.55141865 0 254.49167602 0 15395.42770138 0 -530.31978583 0 -1213.69640909 0 3787
0.06050000 0.06049470 33205.26445614 0 629.90042856 0 13799.91853394 0 466.37089963 0 430.21408052 0 3930
0.06150000 0.06148310 32000.69622687 0 503.24281441 0 15409.37810856 0 1393.44795481 0 319.52144416 0 4083
0.06250000 0.06249100 31311.85368030 0 -367.50425411 0 12269.54788191 0 669.49212352 0 861.94403206 0 4303
0.06350000 0.06350600 31233.97306069 0 366.92646559 0 12795.37937138 0 829.72078839 0 -2809.05179251 0 4470
0.06450000 0.06451750 30971.77131318 0 1145.27350648 0 11456.46981944 0 -602.86849390 0 -1841.23405608 0 4479
0.06550000 0.06550280 30175.17010958 0 163.14177352 0 11354.20344871 0 1620.61990036 0 -157.98341824 0 4636
0.06650000 0.06648880 29833.44005657 0 -257.10051201 0 11242.27065410 0 199.37548464 0 -1920.43282440 0 4653
0.06750000 0.06749660 28856.36232546 0 532.69465042 0 11015.65892175 0 -8.00310694 0 -99.08271206 0 5220
0.06850000 0.06852730 28572.52096996 0 429.41000981 0 10349.40065640 0 -49.39586537 0 -1443.87812753 0 5029
0.06950000 0.06949320 28359.96949051 0 264.26135488 0 10806.04032318 0 1537.71933109 0 -115.71038911 0 5040
0.07050000 0.07048030 28494.75019609 0 551.93083392 0 10714.59375644 0 95.85698248 0 -1887.09464661 0 5475
0.07150000 0.07148790 27713.85693128 0 39.62212222 0 9951.34171520 0 -196.28442591 0 -921.92309372 0 5509
0.07250000 0.07249820 27662.66882305 0 -152.88218273 0 10660.60458220 0 1321.74066500 0 -703.50914789 0 5916
0.07350000 0.07351270 27591.48879272 0 -27.97353223 0 7982.64267888 0 1319.07141386 0 -340.78537976 0 5721
0.07450000 0.07449140 27235.91817826 0 -273.51805419 0 8679.07556511 0 620.60308633 0 -1347.98280889 0 6028
0.07550000 0.07549160 27295.56440738 0 1351.03652007 0 8120.00475901 0 -1818.06759251 0 -2308.01248336 0 6183
0.07650000 0.07648840 25605.91745292 0 1159.35572853 0 9587.62054788 0 -1102.98290204 0 -300.07215995 0 6330
0.07750000 0.07749960 24937.94559425 0 306.85952735 0 9897.37451010 0 13.55364442 0 -1935.52562712 0 6583
0.07850000 0.07848650 25203.99194217 0 97.66559235 0 9711.42766545 0 1536.07164520 0 -870.86570191 0 6549
0.07950000 0.07947320 24900.59804747 0 -116.36067581 0 8761.49281319 0 1735.34277640 0 -362.75452493 0 6828
0.08050000 0.08048110 24723.41689173 0 9.21884648 0 8600.61276316 0 419.31189223 0 -448.22987801 0 7147
0.08150000 0.08149960 24641.03259737 0 199.02617523 0 8663.55436405 0 94.80883456 0 476.49867555 0 7386
0.08250000 0.08250610 24628.62003036 0 79.82104435 0 7879.37671204 0 -72.43578666 0 499.02803391 0 7227
0.08350000 0.08350160 23479.41404690 0 418.06404479 0 8322.74701514 0 -428.38514919 0 -405.01986485 0 7798
0.08450000 0.08449610 23505.99671254 0 1283.72305929 0 10094.13017418 0 -1778.08374831 0 -748.59752296 0 7371
0.08550000 0.08548940 22026.15509438 0 278.38092447 0 9940.55486492 0 805.28011440 0 780.86800029 0 8256
0.08650000 0.08650700 22215.41927996 0 35.05254003 0 9349.87045893 0 1717.72352198 0 -1893.52062157 0 8037
0.08750000 0.08749060 21747.69617945 0 359.66346620 0 8004.69970062 0 -240.60278245 0 -548.30812188 0 8155
0.08850000 0.08849210 21696.17853404 0 218.96537138 0 8740.52326413 0 1191.47461875 0 374.94849895 0 8718
0.08950000 0.08949900 21301.61268692 0 -91.12515815 0 7250.76257693 0 787.12151746 0 528.98076643 0 8571
0.09050000 0.09049190 20711.74113930 0 483.91985278 0 8105.31838547 0 48.84443982 0 472.38385466 0 8932
0.09150000 0.09150830 20027.40226748 0 807.10135653 0 7178.75870366 0 -876.29976996 0 209.62958314 0 9285
0.09250000 0.09250820 19012.75729814 0 472.25643362 0 8341.25601994 0 167.30932036 0 1187.87167895 0 9204
0.09350000 0.09350330 18803.50119047 0 171.83386580 0 7461.32584874 0 833.32043282 0 200.98692144 0 9349
0.09450000 0.09448040 18663.55773578 0 -179.07599451 0 7962.80454080 0 1100.75303380 0 749.67840490 0 9564
0.09550000 0.09549270 19036.15443774 0 -51.17404798 0 6448.19675042 0 677.52514145 0 26.18030075 0 10155
0.09650000 0.09649430 18748.46848184 0 115.28528616 0 6008.37446426 0 224.45326384 0 894.47813913 0 9913
0.09750000 0.09749140 18356.42908641 0 433.86974628 0 5410.76977755 0 521.09164640 0 295.90461311 0 10476
0.09850000 0.09850240 18205.28136769 0 349.94102101 0 5734.80368412 0 -268.75843889 0 18.51713338 0 10575
0.09950000 0.09950330 17676.59388935 0 -10.13505869 0 5382.55041058 0 -370.73042308 0 7.26846971 0 10882
0.10050000 0.10051200 16760.81007324 0 601.87329162 0 6132.03878238 0 49.31348107 0 -579.35381937 0 10875
0.10150000 0.10150300 17030.37148439 0 343.11630607 0 5380.11183547 0 -11.74964806 0 -848.21221787 0 11118
0.10250000 0.10250800 16740.15907679 0 -117.71836898 0 6112.47525861 0 -290.41342528 0 -1351.98119331 0 11575
0.10350000 0.10349800 16093.05790602 0 477.03032886 0 6217.52072621 0 -381.11523800 0 -905.76918128 0 11364
0.10450000 0.10450100 15616.76683890 0 75.60088141 0 5813.06876376 0 389.34927360 0 -485.40606546 0 12093
0.10550000 0.10551000 15960.69380642 0 19.62712444 0 6412.28818265 0 1183.36800419 0 -250.54821447 0 12067
0.10650000 0.10649700 16213.88820442 0 66.07824559 0 6015.12997640 0 307.14183086 0 -273.24453833 0 12054
0.10750000 0.10749900 15835.46967899 0 204.26252098 0 5936.30468355 0 -153.82795443 0 955.99394250 0 12807
0.10850000 0.10850100 15699.37082471 0 203.77590441 0 5945.32301764 0 194.19186484 0 120.66003752 0 12736
0.10950000 0.10950300 15488.90641405 0 122.70975876 0 5493.90102284 0 370.43493808 0 993.11960091 0 12933
0.11050000 0.11050200 15117.18847790 0 -14.90529607 0 5795.49344763 0 639.24939829 0 1052.92620478 0 13428
0.11150000 0.11150900 14911.77697063 0 432.51864385 0 5560.43457897 0 -86.24152702 0 906.71495298 0 13453
0.11250000 0.11250000 14317.40174825 0 325.53769456 0 5313.80895537 0 -172.69615475 0 1123.88654366 0 13668
0.11350000 0.11349100 14052.23416613 0 277.69329023 0 4923.87859788 0 309.92312464 0 331.00142097 0 13791
0.11450000 0.11448600 13674.69440651 0 102.52791341 0 4577.82062327 0 609.01765763 0 684.18289089 0 14205
0.11550000 0.11549300 13732.36341257 0 150.20634085 0 4388.12803937 0 453.89242518 0 641.19476609 0 14776
0.11650000 0.11649800 13746.31381974 0 -66.04496234 0 3655.65477050 0 237.63914477 0 577.93351414 0 14553
0.11750000 0.11747300 13403.15577230 0 -144.88541389 0 3717.59677528 0 173.96926671 0 -292.41481440 0 14568
0.11850000 0.11849100 13509.26674344 0 81.32560125 0 2888.32745283 0 -95.12079642 0 582.34601694 0 16015
0.11950000 0.11950300 13503.33507425 0 62.88228420 0 3401.48274554 0 349.91136266 0 248.71708622 0 15270
0.12050000 0.12050700 13790.69149297 0 -0.15997272 0 2863.57921080 0 133.12862586 0 -1.36854593 0 15999
0.12150000 0.12150000 13263.54185479 0 -1.28019701 0 2900.57525126 0 142.86205562 0 -350.51880953 0 15670
0.12250000 0.12250700 13532.44419159 0 210.71156354 0 3124.15524158 0 -0.99533958 0 -57.43338697 0 16887
0.12350000 0.12352200 13163.47239858 0 214.26617123 0 3024.81076715 0 -9.60984234 0 715.00340464 0 16407
0.12450000 0.12449800 12933.78498590 0 248.37217064 0 3381.84232976 0 -256.75449797 0 95.35147245 0 16306
0.12550000 0.12549900 12551.85139725 0 73.17515825 0 3412.42337983 0 452.48090760 0 579.96346315 0 17523
0.12650000 0.12650100 12950.81107340 0 142.23703344 0 3369.72634621 0 -257.55856869 0 -187.82960040 0 17154
0.12750000 0.12750600 12526.14749741 0 124.87262110 0 3397.62716056 0 133.34831731 0 536.21520593 0 18007
0.12850000 0.12850300 12756.16444726 0 -193.06704460 0 3518.52336639 0 410.56817246 0 269.91731130 0 17496
0.12950000 0.12949900 12508.24264410 0 129.62344875 0 3107.55755241 0 107.77908833 0 524.77037976 0 18405
0.13050000 0.13049000 12358.30322837 0 359.71179832 0 3511.54816280 0 -376.32706281 0 1024.27404566 0 18100
0.13150000 0.13148800 12129.49458150 0 29.62671040 0 3665.26627151 0 189.84087564 0 1007.19193684 0 19059
0.13250000 0.13249300 12028.65620520 0 76.89047023 0 3560.03406618 0 284.51141443 0 1312.51362403 0 18957
0.13350000 0.13349100 11810.28290228 0 142.33809151 0 3781.10957395 0 252.44964398 0 1151.52372827 0 19468
0.13450000 0.13450700 11928.25721181 0 224.66965992 0 3469.53217268 0 -300.76638494 0 932.30461327 0 19953
0.13550000 0.13551000 11424.94409613 0 138.37266081 0 3521.37935526 0 -59.93786952 0 801.78482340 0 19956
0.13650000 0.13649900 11511.83206525 0 122.21325608 0 3891.07613006 0 -424.07150753 0 188.11959311 0 19723
0.13750000 0.13749600 11139.78459192 0 144.08354009 0 3747.15626010 0 -99.31503577 0 360.15118122 0 20946
0.13850000 0.13851100 11200.41943257 0 -69.42744177 0 3390.41029638 0 421.55164658 0 -208.53442126 0 20955
0.13950000 0.13949800 11259.62627878 0 -219.14661683 0 3201.35481768 0 370.83587497 0 -142.27547945 0 20506
0.14050000 0.14048300 11468.00362065 0 85.01268289 0 2598.96085732 0 521.99238135 0 -544.63817619 0 21447
0.14150000 0.14148400 11445.70493831 0 101.58499770 0 2735.70780138 0 -215.90946329 0 -313.31076682 0 21771
0.14250000 0.14249400 11229.74824136 0 144.28455777 0 2525.84754222 0 -177.40963485 0 -248.23046965 0 22470
0.14350000 0.14350900 11132.20523684 0 64.40199982 0 2672.90899994 0 351.30640338 0 -319.59174543 0 22519
0.14450000 0.14449900 10946.17051560 0 97.17897579 0 2531.58148910 0 -37.92555499 0 -28.48068994 0 22218
0.14550000 0.14550500 10672.78647319 0 158.96763594 0 2457.68826935 0 332.55244261 0 101.58972106 0 23559
0.14650000 0.14650700 10791.79333254 0 122.29344346 0 2536.82113023 0 194.70704129 0 445.90664091 0 23044
0.14750000 0.14750500 10398.85320216 0 58.63334168 0 2364.53909386 0 -72.37701920 0 315.92839047 0 23649
0.14850000 0.14849900 10314.95303678 0 245.41841907 0 2587.41607154 0 59.61679046 0 80.81141341 0 23640
0.14950000 0.14949500 10177.98640127 0 212.17361015 0 2859.40507322 0 -300.74112042 0 514.74256345 0 24457
0.15050000 0.15050000 9912.75291172 0 21.97167161 0 2673.59004344 0 -4.71467741 0 733.29601336 0 24591
0.15150000 0.15149900 9821.51505186 0 117.66234766 0 2827.73655047 0 241.39477013 0 -47.34921980 0 25020
0.15250000 0.15250500 9772.09545981 0 216.18517606 0 2685.78291900 0 123.01073605 0 422.45787382 0 25297
0.15350000 0.15350100 9656.09837336 0 9.10593606 0 2743.85835424 0 152.47135972 0 694.04703707 0 25452
0.15450000 0.15450400 9421.70956361 0 -24.19670664 0 2792.56394906 0 52.09774068 0 662.86952471 0 26061
0.15550000 0.15549900 9659.30586855 0 157.76372679 0 2623.80796050 0 5.89513451 0 686.43472827 0 26128
0.15650000 0.15649500 9270.56184490 0 226.54472646 0 3060.49964347 0 -375.31538367 0 560.92500195 0 26331
0.15750000 0.15749700 9160.03507558 0 109.04143541 0 3149.62846539 0 6.08737551 0 825.13472934 0 27345
0.15850000 0.15849900 9170.30565095 0 17.06156767 0 2992.58203120 0 221.26993471 0 583.18633675 0 26980
0.15950000 0.15949700 9055.14339200 0 -3.97864514 0 3082.96309440 0 124.08173188 0 594.00614074 0 27777
0.16050000 0.16050000 9181.60877613 0 174.45917865 0 2902.44262860 0 65.41071312 0 745.98758852 0 28224
0.16150000 0.16150500 8924.16334854 0 30.82084329 0 2892.68832814 0 38.08658882 0 624.29829655 0 28075
0.16250000 0.16249700 8809.71508682 0 38.12217884 0 2876.70577504 0 69.30935762 0 669.16698017 0 28590
0.16350000 0.16349900 8835.61670896 0 136.60414462 0 2729.86400877 0 115.77519809 0 555.78092661 0 29163
0.16450000 0.16449100 8769.41269002 0 -30.10728545 0 2533.13031384 0 302.46130448 0 1103.02684033 0 28996
0.16550000 0.16550500 8707.22902463 0 82.65495423 0 2352.43409488 0 74.05128775 0 517.81165303 0 30777
0.16650000 0.16650700 8583.35599963 0 181.90452195 0 2085.13550568 0 -11.68659662 0 494.39803657 0 29211
0.16750000 0.16749900 8346.95701311 0 114.97881658 0 2480.79981006 0 -129.57291971 0 450.82443405 0 30922
0.16850000 0.16850800 7992.32008732 0 137.53234100 0 2336.75910980 0 59.61052926 0 859.49557083 0 30867
0.16950000 0.16949900 8112.87577140 0 19.98730858 0 2084.19083244 0 597.93642081 0 300.17871030 0 30852
0.17050000 0.17049200 8088.94038775 0 14.50765455 0 2062.88076163 0 -133.44608000 0 712.24298155 0 31257
0.17150000 0.17149500 7980.74234782 0 73.81698682 0 2045.66793640 0 -90.51287807 0 433.08434934 0 32608
0.17250000 0.17250900 7870.17164022 0 -8.31715587 0 1703.92689882 0 370.71834005 0 707.92274915 0 32361
0.17350000 0.17350400 8060.83086651 0 -39.78886803 0 1878.97704747 0 338.00957827 0 500.84158685 0 32508
0.17450000 0.17449800 7945.25119381 0 183.68512116 0 1825.51513272 0 -536.14820004 0 202.76532374 0 32791
0.17550000 0.17549800 7882.22171634 0 268.31576062 0 2183.95272062 0 -397.34823936 0 540.64198868 0 33633
0.17650000 0.17650100 7623.80964636 0 37.51264490 0 2473.49506929 0 -268.66836540 0 293.76811374 0 33984
0.17750000 0.17750300 7701.49254366 0 -174.52618454 0 2306.43070490 0 645.74787142 0 327.10958690 0 34069
0.17850000 0.17849800 7858.74768473 0 -184.31673409 0 2101.08510507 0 331.44959153 0 523.68730090 0 34536
