### header ###
fiducial parameters:
Omega_m = 0.31
Omega_nu = 0
Omega_de = 0.69
Omega_k = 0
H_0 = 100
w_de = -1
zeff = 0
beta = 0
fgrowth = 0
b_1 = 2
gamma = 0.55
Lx = 3500 Ly = 3500 Lz = 3500
nx = 700 ny = 700 nz = 700
xoffset = -983.599254 yoffset = -42.9823471 zoffset = 800.977702
bins = 400 dk = 0.001
kx_ny = 0.628318531 ky_ny = 0.628318531 kz_ny = 0.628318531
############################
A(data) = 9.08837617 (not used)
A(ran) = 9.08828492 (used)
Ngal = 504696
weighted Ngal = 0
Nran = 25229228
weighted Nran = 0
SN(data) = 6743.35818
SN(ran) = 134.909328
SN(data+ran) = 6878.26751
############################
13 columns: k_central k_mean P_0(k) sigma^{lin}_{P_0(k)} P^img_1(k) sigma^{lin}_{P_1(k)} P_2(k) sigma^{lin}_{P_2(k)} P^img_3(k) sigma^{lin}_{P_3(k)} P_4(k) sigma^{lin}_{P_4(k)} N_modes
### header ###
0.00050000 0 0 0 0 0 0 0 0 0 0 0 0
0.00150000 0.00179520 48955.82338908 0 -30959.02920898 0 -18208.79643092 0 -17741.62255903 0 -68527.14620298 0 3
0.00250000 0.00253879 57039.37035169 0 -6478.01986498 0 -13288.80637173 0 -6836.54532946 0 48849.27303504 0 6
0.00350000 0.00331552 48406.81445146 0 10841.22390916 0 34734.53665092 0 -76109.79665589 0 35807.07031776 0 7
0.00450000 0.00420575 30409.80057992 0 3716.21271914 0 316.92249429 0 4085.37124988 0 14186.68533453 0 24
0.00550000 0.00557378 56157.63871058 0 -6578.60559610 0 22755.75040524 0 3354.65551262 0 -19434.56488527 0 45
0.00650000 0.00659388 60304.64439722 0 1252.38407372 0 -7135.68819457 0 -3173.12446615 0 36198.45063883 0 40
0.00750000 0.00754703 62070.63413112 0 -1816.20021517 0 31587.56645209 0 -4442.87514911 0 3284.16751037 0 57
0.00850000 0.00846663 51106.38300905 0 9430.14571536 0 29830.03483907 0 3880.83850842 0 13697.43247176 0 75
0.00950000 0.00948925 57606.94321697 0 1592.14788823 0 34060.96266023 0 30424.73959863 0 28515.29134681 0 112
0.01050000 0.01054430 54579.92455073 0 -6318.02956533 0 22298.46264868 0 26451.29015878 0 27187.03683028 0 105
0.01150000 0.01145670 67093.87917257 0 -4201.12667574 0 31733.22188452 0 -3935.68447931 0 17732.06598088 0 144
0.01250000 0.01249090 59980.70935180 0 5173.78860868 0 17680.32864403 0 2883.79082435 0 22327.90130319 0 169
0.01350000 0.01339930 60466.66684279 0 -3665.91436129 0 25544.62353791 0 3465.07243621 0 15643.67904172 0 180
0.01450000 0.01448870 73835.11136574 0 -9449.09410306 0 17918.25448614 0 10931.01180544 0 10903.95680317 0 267
0.01550000 0.01550050 85110.77512049 0 -3359.11524909 0 16768.16973687 0 -3085.54446895 0 -20655.06074478 0 238
0.01650000 0.01653350 79251.38441415 0 7318.25179087 0 12066.88251778 0 -19729.28096762 0 -2884.93321990 0 315
0.01750000 0.01747870 80457.27079213 0 3334.34503792 0 26267.29856804 0 -17850.58951904 0 -7393.79269651 0 297
0.01850000 0.01844180 75943.81976418 0 1003.68456282 0 36595.54293765 0 2943.25031574 0 -27009.74582881 0 388
0.01950000 0.01947590 73943.96848002 0 7953.35780838 0 38897.36012207 0 3427.41732140 0 -7081.41342144 0 399
0.02050000 0.02045430 69859.46501137 0 -4562.34336051 0 43336.55543937 0 -4042.38861737 0 2134.86266576 0 462
0.02150000 0.02154770 71440.25485156 0 2547.50911935 0 36522.60537571 0 16792.55548800 0 -6443.59421451 0 571
0.02250000 0.02255340 70929.91160943 0 3150.13375573 0 36291.38012287 0 -1884.65607150 0 -2646.00778168 0 510
0.02350000 0.02348930 69805.20122282 0 1991.30528669 0 43142.12850468 0 5908.99703612 0 12177.71685513 0 555
0.02450000 0.02439640 64592.36245862 0 609.89312806 0 40383.24325515 0 5920.88234365 0 8916.79270034 0 592
0.02550000 0.02547300 62418.40569905 0 3022.14151601 0 33029.95067774 0 8444.08260388 0 8408.89901790 0 837
0.02650000 0.02652900 67253.26532073 0 506.87651102 0 37705.42415127 0 2637.05535503 0 5501.68908480 0 723
0.02750000 0.02749970 58879.94533342 0 1483.77409514 0 33637.72707867 0 27.04676384 0 7099.27433646 0 826
0.02850000 0.02848090 55996.82456799 0 1695.46877793 0 26624.40702266 0 4745.10467912 0 9902.94368840 0 831
0.02950000 0.02946900 60048.48416462 0 -4034.33692567 0 21605.22627307 0 9106.69399113 0 1471.26266697 0 996
0.03050000 0.03053250 61082.13244453 0 -934.31479005 0 20801.04571439 0 1061.48648220 0 -1182.81877556 0 1041
0.03150000 0.03150510 59714.44331242 0 5021.82803159 0 16610.10173743 0 -4631.31549175 0 -249.84739873 0 1036
0.03250000 0.03246190 56884.92726120 0 2144.93551881 0 23153.06239550 0 -3257.15644639 0 1670.34706044 0 1059
0.03350000 0.03345080 52918.94733070 0 1793.37427335 0 22421.16032441 0 1080.95663710 0 -769.06947088 0 1302
0.03450000 0.03451200 54654.94918146 0 599.80160123 0 23706.02577925 0 2274.11409237 0 -6837.59984843 0 1339
0.03550000 0.03553350 54379.78563829 0 -286.38977634 0 23683.17786828 0 1754.48888641 0 -8383.54662438 0 1365
0.03650000 0.03647120 52364.00672389 0 -437.49465523 0 25953.68902084 0 -1120.94267821 0 -3449.96864891 0 1308
0.03750000 0.03744890 49920.81809035 0 1206.32576088 0 19838.13808191 0 -988.29188126 0 -5772.64553667 0 1579
0.03850000 0.03847530 49739.79233421 0 2249.38781949 0 28120.50580824 0 219.36411136 0 -1513.08093479 0 1662
0.03950000 0.03950240 48033.88821233 0 2535.63479639 0 25307.79615306 0 -213.05127750 0 -5902.01084796 0 1683
0.04050000 0.04050350 47109.75612106 0 1257.46993082 0 28513.09443230 0 1264.34627326 0 -1869.80492937 0 1822
0.04150000 0.04152450 43764.29469568 0 784.44567558 0 22721.91792169 0 5402.90482358 0 -4294.80311072 0 1887
0.04250000 0.04250150 43698.49710592 0 -283.65242085 0 23708.88176812 0 4479.19014607 0 4499.88508081 0 1920
0.04350000 0.04349210 43719.47763955 0 377.07291529 0 20204.36373177 0 5792.40678274 0 -558.52267593 0 2005
0.04450000 0.04448520 44534.64277081 0 -772.28795065 0 15698.05267600 0 2942.83290198 0 4717.05008074 0 2151
0.04550000 0.04548030 42663.97006021 0 752.74310065 0 13922.94574685 0 -570.23662413 0 -193.99414253 0 2274
0.04650000 0.04648670 40576.02250395 0 1439.71497452 0 11945.72268221 0 -2397.14130528 0 2353.21399953 0 2311
0.04750000 0.04749250 38514.98715051 0 1599.73822788 0 15799.87966383 0 986.35310420 0 2009.15521714 0 2568
0.04850000 0.04851840 37215.18267696 0 928.01184230 0 14015.54569371 0 1447.84355823 0 2028.45511116 0 2493
0.04950000 0.04949480 38601.76527390 0 -966.81923878 0 11405.83093984 0 4078.97822864 0 1695.93012998 0 2644
0.05050000 0.05050630 37112.58676905 0 -606.50438742 0 11402.31587661 0 1872.35335021 0 2720.66992152 0 2829
0.05150000 0.05149060 38204.45328364 0 1439.69300537 0 9620.80494165 0 -221.87848003 0 3478.98988967 0 2784
0.05250000 0.05249300 36326.31106368 0 545.78935939 0 10637.32827290 0 895.37667716 0 5599.33095048 0 3055
0.05350000 0.05348950 37464.86201174 0 -830.66436317 0 10348.99422721 0 -155.09337719 0 4558.41088352 0 3009
0.05450000 0.05448610 37124.55995317 0 382.19282457 0 11117.81544675 0 553.41594814 0 2848.12391718 0 3336
0.05550000 0.05550870 37022.07389098 0 1455.17026814 0 12408.61257079 0 -700.08196124 0 6768.41901031 0 3349
0.05650000 0.05647670 34036.02768047 0 1009.10215401 0 11905.07976366 0 -582.06700880 0 3542.63450321 0 3324
0.05750000 0.05747970 35752.36714630 0 612.35806615 0 13474.88503126 0 267.76213816 0 3371.43993953 0 3639
0.05850000 0.05849280 34258.46527524 0 -30.02907529 0 13670.84980611 0 762.81485525 0 4227.63244938 0 3846
0.05950000 0.05951020 33222.62008082 0 884.70846027 0 14944.73068837 0 -1896.47547160 0 5347.68537721 0 3787
0.06050000 0.06049470 32172.49494204 0 594.64763978 0 11694.72519873 0 2140.62956636 0 2875.58534863 0 3930
0.06150000 0.06148310 32242.46666939 0 -338.46543803 0 14701.09286851 0 1384.59438931 0 3144.08125624 0 4083
0.06250000 0.06249100 31498.48156845 0 1087.18928358 0 11720.75863574 0 -284.18627108 0 1038.01574596 0 4303
0.06350000 0.06350600 32238.40237753 0 335.19642923 0 15025.79683402 0 -1017.92166734 0 287.14441648 0 4470
0.06450000 0.06451750 29820.14872375 0 737.44159105 0 13183.57416640 0 -301.63196925 0 698.76051716 0 4479
0.06550000 0.06550280 30127.60691030 0 -2.66201230 0 13120.08333688 0 472.05541594 0 -1250.60457296 0 4636
0.06650000 0.06648880 30556.88400678 0 -160.61642028 0 12561.62766685 0 2367.01062269 0 967.52554679 0 4653
0.06750000 0.06749660 29520.48958373 0 145.59941111 0 11592.01944509 0 842.58042751 0 -461.70794857 0 5220
0.06850000 0.06852730 29141.30213822 0 997.84845940 0 11820.05917188 0 1413.53873806 0 2316.85506428 0 5029
0.06950000 0.06949320 29165.68788935 0 62.45037081 0 10511.02765736 0 191.76866813 0 568.41648045 0 5040
0.07050000 0.07048030 28614.70172867 0 386.54710914 0 11839.83140253 0 176.15080283 0 785.63310788 0 5475
0.07150000 0.07148790 28022.52342081 0 291.28450188 0 9793.01008601 0 528.87751145 0 2168.62924187 0 5509
0.07250000 0.07249820 27482.19229554 0 -377.72320198 0 11545.55470307 0 -288.44169450 0 181.09166358 0 5916
0.07350000 0.07351270 27219.44131939 0 1289.05057699 0 10311.63569586 0 -693.03316102 0 -2088.85927579 0 5721
0.07450000 0.07449140 26938.56579849 0 688.61296901 0 11231.94515588 0 207.85887004 0 -1376.07036098 0 6028
0.07550000 0.07549160 25875.69855552 0 -108.66521380 0 10972.33576749 0 -154.68475109 0 7.21582065 0 6183
0.07650000 0.07648840 26139.32829747 0 -20.55268453 0 10184.02791619 0 2423.43837204 0 -1189.93677859 0 6330
0.07750000 0.07749960 25530.67313074 0 189.01922961 0 9542.75955346 0 731.54726940 0 -552.49873632 0 6583
0.07850000 0.07848650 25803.74960511 0 395.94550944 0 8461.21853710 0 -25.63898102 0 -266.28251623 0 6549
0.07950000 0.07947320 24855.01207126 0 697.22816928 0 8689.86241538 0 1068.59569757 0 334.40334309 0 6828
0.08050000 0.08048110 24181.32823484 0 636.27367757 0 9612.08319102 0 -775.84255833 0 602.22479794 0 7147
0.08150000 0.08149960 23690.86706909 0 215.50523102 0 9066.32568689 0 283.97097346 0 875.89114386 0 7386
0.08250000 0.08250610 22757.28824540 0 -125.29552715 0 9297.95736891 0 922.24604016 0 1269.25637720 0 7227
0.08350000 0.08350160 23192.93639397 0 -461.85404338 0 7656.01641317 0 1186.94897485 0 1144.10914178 0 7798
0.08450000 0.08449610 23511.04961593 0 479.60401422 0 7310.14517630 0 443.30110029 0 -731.78343771 0 7371
0.08550000 0.08548940 23188.76225639 0 662.88929694 0 7415.56411937 0 -410.76479631 0 1475.83224917 0 8256
0.08650000 0.08650700 22550.44874369 0 489.78561454 0 8255.79604526 0 -962.64839657 0 -804.85501144 0 8037
0.08750000 0.08749060 21108.83343812 0 625.05293668 0 8972.92386623 0 -1190.42009979 0 238.02799864 0 8155
0.08850000 0.08849210 21106.30698642 0 155.29659178 0 8633.41269689 0 645.12175079 0 -682.62088467 0 8718
0.08950000 0.08949900 20797.75034261 0 -37.36611070 0 8489.47085778 0 2034.51859523 0 14.94209439 0 8571
0.09050000 0.09049190 21030.40358988 0 27.42188699 0 6870.07024498 0 1001.35473497 0 -444.29081028 0 8932
0.09150000 0.09150830 20679.99572454 0 488.80579067 0 6801.60340408 0 -436.64884314 0 -348.47787594 0 9285
0.09250000 0.09250820 19765.20051997 0 582.72937853 0 7591.75666357 0 169.29862645 0 2054.93891565 0 9204
0.09350000 0.09350330 19097.11881557 0 198.71531183 0 7055.37998442 0 485.27315213 0 40.63039614 0 9349
0.09450000 0.09448040 19640.08623826 0 15.85677975 0 7260.39604708 0 646.79030736 0 1098.96254847 0 9564
0.09550000 0.09549270 18897.85866894 0 -79.82060497 0 5407.69409722 0 603.49351608 0 -71.67049149 0 10155
0.09650000 0.09649430 18799.10736144 0 336.66506659 0 5854.16204979 0 231.78546604 0 1464.82570744 0 9913
0.09750000 0.09749140 18175.07379309 0 435.31751294 0 5651.40880908 0 -163.97001029 0 823.39696995 0 10476
0.09850000 0.09850240 18012.83165606 0 485.92563574 0 6635.23106776 0 -89.76977174 0 1223.78024671 0 10575
0.09950000 0.09950330 17334.97368207 0 523.95202910 0 6059.82620223 0 -487.53267871 0 -15.93564898 0 10882
0.10050000 0.10051200 16913.82516930 0 188.52492384 0 6868.12597563 0 396.21792684 0 938.94698431 0 10875
0.10150000 0.10150300 16776.18847486 0 -183.31823644 0 5921.17892711 0 476.87105256 0 772.77237030 0 11118
0.10250000 0.10250800 16450.82543500 0 163.89641366 0 6005.63930569 0 231.55918384 0 445.80668130 0 11575
0.10350000 0.10349800 16726.64805251 0 351.57442695 0 5938.76522781 0 313.50189839 0 1169.42858158 0 11364
0.10450000 0.10450100 16155.45027828 0 -184.40790604 0 5485.08041106 0 -189.30702541 0 611.60013064 0 12093
0.10550000 0.10551000 16507.94521242 0 42.95011818 0 5561.75272768 0 720.56379528 0 403.31176381 0 12067
0.10650000 0.10649700 16002.65487368 0 151.71671958 0 5057.45100047 0 105.62204781 0 164.57086641 0 12054
0.10750000 0.10749900 16111.40214223 0 448.34192065 0 5546.06675803 0 -451.23086324 0 208.91558592 0 12807
0.10850000 0.10850100 15630.49755462 0 303.16761250 0 5900.76959125 0 -252.95383586 0 50.30198276 0 12736
0.10950000 0.10950300 15286.02135847 0 232.41598051 0 5873.97821873 0 -40.15915797 0 -262.12375705 0 12933
0.11050000 0.11050200 15005.80491192 0 287.62554076 0 6245.53138629 0 -229.33590635 0 -96.97301505 0 13428
0.11150000 0.11150900 15221.21238024 0 -121.72334415 0 5577.09817557 0 458.15663625 0 -1019.89339812 0 13453
0.11250000 0.11250000 14917.26925692 0 -269.44607313 0 5470.76751298 0 988.48740665 0 -174.20213965 0 13668
0.11350000 0.11349100 15138.49854870 0 -52.06764296 0 4614.43220369 0 234.97209054 0 -502.29814117 0 13791
0.11450000 0.11448600 15219.23515718 0 116.88134455 0 4352.35128647 0 440.30670581 0 744.81114079 0 14205
0.11550000 0.11549300 14769.74644715 0 133.01109093 0 4196.74383128 0 392.22503470 0 -210.28865750 0 14776
0.11650000 0.11649800 14924.40922909 0 22.62898844 0 3324.89830550 0 517.05481598 0 176.49242304 0 14553
0.11750000 0.11747300 14936.27256748 0 -69.56222248 0 3232.37525065 0 767.78427589 0 291.33832629 0 14568
0.11850000 0.11849100 14710.64944666 0 239.79981019 0 3135.44738219 0 -446.25595032 0 428.07867961 0 16015
0.11950000 0.11950300 14623.87132327 0 354.52268623 0 3777.56155701 0 -591.73343267 0 -36.39727140 0 15270
0.12050000 0.12050700 14107.26687477 0 223.52287054 0 3634.01516251 0 -549.62627059 0 -990.61951219 0 15999
0.12150000 0.12150000 14061.79074428 0 231.51195018 0 3981.52310070 0 319.36766014 0 -292.81245593 0 15670
0.12250000 0.12250700 13281.00732520 0 182.60643613 0 3988.61913458 0 367.18460305 0 -226.50518200 0 16887
0.12350000 0.12352200 13465.21860739 0 214.01682143 0 4182.22222633 0 -43.99255411 0 -71.35655241 0 16407
0.12450000 0.12449800 13292.32143496 0 86.23911042 0 4139.74488416 0 -15.14102500 0 -515.89923894 0 16306
0.12550000 0.12549900 12784.06526162 0 283.46238775 0 4489.44973686 0 -24.71814430 0 96.61173246 0 17523
0.12650000 0.12650100 12870.51384783 0 76.69604329 0 4049.86911130 0 -291.89634258 0 319.43905987 0 17154
0.12750000 0.12750600 12611.16808919 0 25.47157613 0 4618.62831041 0 277.07266188 0 297.07666701 0 18007
0.12850000 0.12850300 12740.23681702 0 57.44986383 0 4219.89931028 0 564.66305200 0 -135.75503716 0 17496
0.12950000 0.12949900 12623.36096475 0 132.55303425 0 3913.58351928 0 35.50510442 0 45.11341990 0 18405
0.13050000 0.13049000 12283.71798054 0 10.34517160 0 4151.32262366 0 149.48575289 0 337.71848710 0 18100
0.13150000 0.13148800 12466.06188539 0 -3.45861351 0 3659.25771031 0 105.24044376 0 191.91036911 0 19059
0.13250000 0.13249300 12201.99276053 0 242.28122514 0 4072.10188620 0 53.43203672 0 557.22100408 0 18957
0.13350000 0.13349100 12290.63826126 0 37.68345501 0 3294.38316287 0 277.78885601 0 459.62637206 0 19468
0.13450000 0.13450700 12340.72791224 0 -66.31847819 0 3455.01056773 0 -92.46088217 0 -35.54377011 0 19953
0.13550000 0.13551000 12220.55668820 0 192.13445439 0 3728.24082612 0 -134.38196559 0 -321.52393174 0 19956
0.13650000 0.13649900 11804.46107881 0 253.29545607 0 4114.16181462 0 -495.08347390 0 259.88949499 0 19723
0.13750000 0.13749600 11751.73513042 0 168.21335068 0 4031.81047397 0 314.65967234 0 280.14394837 0 20946
0.13850000 0.13851100 11714.71712083 0 -100.35450587 0 3864.41657241 0 498.48210066 0 -470.46484983 0 20955
0.13950000 0.13949800 11861.36116479 0 72.97359134 0 4157.61678375 0 -169.36563235 0 -437.47488300 0 20506
0.14050000 0.14048300 11428.56900508 0 449.29208618 0 3925.41390395 0 -410.26060443 0 225.16396569 0 21447
0.14150000 0.14148400 11090.90324393 0 122.87342889 0 4188.37358698 0 87.40753940 0 310.60966043 0 21771
0.14250000 0.14249400 11181.41612200 0 -98.32884084 0 4216.61492308 0 289.26004516 0 -305.88519576 0 22470
0.14350000 0.14350900 10997.42453126 0 150.65890524 0 4014.33401900 0 311.40604194 0 134.07549601 0 22519
0.14450000 0.14449900 10738.88064642 0 247.67355182 0 3827.98074515 0 -164.31163050 0 204.38115436 0 22218
0.14550000 0.14550500 10634.68099091 0 170.04338047 0 3827.67317712 0 411.43924906 0 -12.32820550 0 23559
0.14650000 0.14650700 10503.48125600 0 20.52632155 0 3719.94747382 0 340.71617696 0 716.61374298 0 23044
0.14750000 0.14750500 10309.07629045 0 113.04882718 0 3591.38403633 0 6.82070558 0 148.47297530 0 23649
0.14850000 0.14849900 10064.21918304 0 226.48431131 0 3513.34963271 0 96.61074385 0 920.72907068 0 23640
0.14950000 0.14949500 10130.26941797 0 -87.85417212 0 3370.13277539 0 573.31010754 0 896.99690162 0 24457
0.15050000 0.15050000 10239.45606943 0 -112.27331635 0 3084.17139738 0 5.74339362 0 652.74394570 0 24591
0.15150000 0.15149900 9963.62246734 0 297.63028946 0 2975.34723682 0 -114.06490014 0 584.83292418 0 25020
0.15250000 0.15250500 9711.29585058 0 226.36787484 0 3174.14603140 0 -294.20200436 0 598.89757091 0 25297
0.15350000 0.15350100 9561.86172518 0 103.24992936 0 3452.47313146 0 111.51538085 0 431.87714481 0 25452
0.15450000 0.15450400 9474.30369713 0 127.59899202 0 3155.31847399 0 125.91176167 0 -55.28974763 0 26061
0.15550000 0.15549900 9323.13400927 0 125.13295547 0 3225.78450710 0 78.42633317 0 171.56584223 0 26128
0.15650000 0.15649500 9098.85100630 0 104.88190731 0 2830.30694045 0 15.20484537 0 -75.91306296 0 26331
0.15750000 0.15749700 9020.65183410 0 -13.08185702 0 2709.35581176 0 482.75658655 0 188.72154769 0 27345
0.15850000 0.15849900 8843.29492520 0 69.21324261 0 2631.63996075 0 146.06405853 0 -21.03216112 0 26980
0.15950000 0.15949700 8870.31697375 0 132.47943762 0 2173.92380586 0 -6.47008900 0 248.51497008 0 27777
0.16050000 0.16050000 8738.23847303 0 73.51787691 0 2418.71500583 0 -45.61925947 0 28.08568471 0 28224
0.16150000 0.16150500 8679.73463946 0 23.52170465 0 2357.34419882 0 66.98666974 0 -134.18863711 0 28075
0.16250000 0.16249700 8668.26674569 0 45.84477274 0 2335.29816165 0 117.45364078 0 -72.59835834 0 28590
0.16350000 0.16349900 8654.76670599 0 63.69755918 0 2319.45840799 0 -258.89868654 0 -338.67744029 0 29163
0.16450000 0.16449100 8624.26254793 0 31.79297796 0 2292.18371427 0 169.04927666 0 72.83683341 0 28996
0.16550000 0.16550500 8566.26400470 0 17.99371850 0 2106.05013188 0 100.64801365 0 5.25128477 0 30777
0.16650000 0.16650700 8529.38879454 0 80.64236084 0 2353.36778354 0 24.96584641 0 -156.31596012 0 29211
0.16750000 0.16749900 8390.49985882 0 303.44112836 0 2458.47915858 0 -51.14955238 0 330.73998814 0 30922
0.16850000 0.16850800 8241.23050202 0 -72.40041634 0 2537.53512744 0 219.58160590 0 528.70615211 0 30867
0.16950000 0.16949900 8191.30561963 0 2.94973121 0 2308.86928002 0 339.29806864 0 543.12120671 0 30852
0.17050000 0.17049200 8340.67383759 0 -56.97258415 0 2120.43992196 0 233.22554350 0 479.47659318 0 31257
0.17150000 0.17149500 8196.90775165 0 53.97511398 0 2177.55969938 0 -21.99957243 0 810.68013028 0 32608
0.17250000 0.17250900 8264.92422507 0 211.09162975 0 2050.85265465 0 65.46783289 0 945.61132449 0 32361
0.17350000 0.17350400 8113.30416973 0 5.24600119 0 2134.53312858 0 29.73326075 0 1097.11494336 0 32508
0.17450000 0.17449800 8002.99709187 0 113.73865834 0 2288.04253040 0 -147.33497358 0 509.73579527 0 32791
0.17550000 0.17549800 7851.89331144 0 149.69336131 0 2037.59427555 0 -22.86460752 0 622.05304991 0 33633
0.17650000 0.17650100 7746.34255351 0 14.71647127 0 2148.97784152 0 271.82862693 0 887.88410021 0 33984
0.17750000 0.17750300 7808.68000291 0 113.85179943 0 2118.64943663 0 -148.27964682 0 803.11505514 0 34069
0.17850000 0.17849800 7617.97683832 0 30.30698498 0 2039.05522370 0 134.65328453 0 638.19268240 0 34536
