### header ###
fiducial parameters:
Omega_m = 0.31
Omega_nu = 0
Omega_de = 0.69
Omega_k = 0
H_0 = 100
w_de = -1
zeff = 0
beta = 0
fgrowth = 0
b_1 = 2
gamma = 0.55
Lx = 3500 Ly = 3500 Lz = 3500
nx = 700 ny = 700 nz = 700
xoffset = -983.599254 yoffset = -42.9823471 zoffset = 800.977702
bins = 400 dk = 0.001
kx_ny = 0.628318531 ky_ny = 0.628318531 kz_ny = 0.628318531
############################
A(data) = 8.9531289 (not used)
A(ran) = 8.94341368 (used)
Ngal = 496990
weighted Ngal = 0
Nran = 25229228
weighted Nran = 0
SN(data) = 6800.01466
SN(ran) = 132.758815
SN(data+ran) = 6932.77348
############################
13 columns: k_central k_mean P_0(k) sigma^{lin}_{P_0(k)} P^img_1(k) sigma^{lin}_{P_1(k)} P_2(k) sigma^{lin}_{P_2(k)} P^img_3(k) sigma^{lin}_{P_3(k)} P_4(k) sigma^{lin}_{P_4(k)} N_modes
### header ###
0.00050000 0 0 0 0 0 0 0 0 0 0 0 0
0.00150000 0.00179520 19635.36287205 0 18337.09623867 0 16294.29527571 0 16629.98381380 0 -27518.55123078 0 3
0.00250000 0.00253879 27662.33928587 0 -11828.51729277 0 7550.59747011 0 54702.07299783 0 24435.18170720 0 6
0.00350000 0.00331552 15071.27296451 0 -3657.41230211 0 24819.53190182 0 34411.70006275 0 -12943.01202687 0 7
0.00450000 0.00420575 29157.55930564 0 -13885.37850862 0 1934.09763269 0 29693.16706471 0 -3555.69516001 0 24
0.00550000 0.00557378 37941.70230749 0 -349.03259686 0 6695.19584948 0 20048.49264684 0 16624.93091041 0 45
0.00650000 0.00659388 59322.40391700 0 -13618.12385772 0 -15665.31864971 0 6706.79555813 0 12863.59356711 0 40
0.00750000 0.00754703 64996.70457534 0 -4372.13450169 0 -10583.16334550 0 -5260.94020754 0 5648.21229846 0 57
0.00850000 0.00846663 56779.80490159 0 6207.50279602 0 -2216.13751829 0 -15416.29838929 0 5398.60985570 0 75
0.00950000 0.00948925 61524.92056528 0 -7670.88952445 0 -9455.32235571 0 3660.87244247 0 -1195.28626544 0 112
0.01050000 0.01054430 66437.44111511 0 -369.42216048 0 11212.39261668 0 -18958.49350959 0 -9335.37082313 0 105
0.01150000 0.01145670 65868.33040967 0 8906.87363130 0 13588.90489465 0 -22498.93109828 0 -27072.90712116 0 144
0.01250000 0.01249090 61202.19382284 0 5561.96143456 0 32161.40052374 0 -21792.95261848 0 -9324.46314255 0 169
0.01350000 0.01339930 58296.00545499 0 -3303.81891072 0 27669.69894950 0 6835.36998019 0 -28695.32849142 0 180
0.01450000 0.01448870 61280.40397962 0 2660.62824779 0 38572.10692794 0 15558.76829567 0 -8314.27790968 0 267
0.01550000 0.01550050 61060.16329936 0 -2732.11584615 0 27767.90102838 0 3980.55645831 0 -5717.81055034 0 238
0.01650000 0.01653350 70422.20466472 0 727.41816857 0 41349.88564231 0 9804.75259410 0 -3900.03954129 0 315
0.01750000 0.01747870 63669.76820751 0 4701.68266370 0 29753.69205963 0 -1994.07339898 0 6836.57828318 0 297
0.01850000 0.01844180 72841.99615866 0 -8192.66770663 0 29328.14971783 0 11044.65819336 0 12851.18100009 0 388
0.01950000 0.01947590 71384.78276002 0 -4852.90727443 0 27147.38252326 0 2549.67308015 0 -4195.98589577 0 399
0.02050000 0.02045430 72009.47540272 0 4288.04759858 0 18742.86634982 0 -5841.56274504 0 -6987.91273963 0 462
0.02150000 0.02154770 72372.62537226 0 3122.03521907 0 28773.09926530 0 -3105.30571503 0 -231.56797150 0 571
0.02250000 0.02255340 70205.25935624 0 810.84380041 0 31487.38715015 0 -619.21793173 0 -23746.33916062 0 510
0.02350000 0.02348930 71151.36059267 0 4949.37379084 0 34909.85042932 0 3082.90817153 0 -10877.59382897 0 555
0.02450000 0.02439640 65918.42006064 0 -221.34792517 0 29596.83236317 0 4217.58156547 0 308.36770916 0 592
0.02550000 0.02547300 67888.61299883 0 -3715.44379906 0 20988.55236835 0 11693.29720429 0 -12254.49901747 0 837
0.02650000 0.02652900 71767.92465166 0 -2265.49120289 0 18128.93858825 0 7027.34735520 0 1399.06107140 0 723
0.02750000 0.02749970 68590.96656968 0 4133.70336924 0 13990.94025113 0 2029.16910838 0 -4958.13947976 0 826
0.02850000 0.02848090 63853.10072390 0 1760.11298757 0 13120.52271979 0 -5760.99090516 0 7236.25195655 0 831
0.02950000 0.02946900 62244.30022363 0 6013.15275333 0 23321.89527608 0 -4277.77702322 0 -6657.66156497 0 996
0.03050000 0.03053250 57546.30837632 0 2303.21222514 0 18363.01982996 0 1113.55006086 0 4079.60434928 0 1041
0.03150000 0.03150510 58270.52124661 0 -4292.62816535 0 18570.40856029 0 10632.47309182 0 2800.07739671 0 1036
0.03250000 0.03246190 59632.82793814 0 -2230.88979926 0 16625.26044759 0 6049.27002798 0 -11139.01567184 0 1059
0.03350000 0.03345080 56617.34307311 0 4103.59465579 0 8216.88868918 0 -1406.92602536 0 3828.10157545 0 1302
0.03450000 0.03451200 56299.01015971 0 3250.84031716 0 14227.43809881 0 1646.68629110 0 5113.87874982 0 1339
0.03550000 0.03553350 49486.04870758 0 3511.55914738 0 15348.08419356 0 -6346.01825627 0 3073.48340826 0 1365
0.03650000 0.03647120 47792.33746126 0 1794.24205458 0 24425.62512905 0 -5785.03613454 0 -5825.69003766 0 1308
0.03750000 0.03744890 44390.30548710 0 1133.50902924 0 19205.97592985 0 2393.74707235 0 1859.73207631 0 1579
0.03850000 0.03847530 44966.22662753 0 -927.70756964 0 21903.89680155 0 1654.63912165 0 -1010.53234536 0 1662
0.03950000 0.03950240 44703.03626849 0 217.53518003 0 18644.66427094 0 3221.29181691 0 -794.60091293 0 1683
0.04050000 0.04050350 45639.36123532 0 2105.48991867 0 18197.37247543 0 852.08757508 0 -3989.78349928 0 1822
0.04150000 0.04152450 43043.48704290 0 2058.64071661 0 21719.90521082 0 560.46584682 0 557.57251040 0 1887
0.04250000 0.04250150 41258.82353561 0 1017.07475679 0 19883.06498376 0 -1665.32711077 0 -172.06564029 0 1920
0.04350000 0.04349210 39891.02455778 0 -449.14159753 0 21730.45040049 0 1032.58826865 0 -3743.59725858 0 2005
0.04450000 0.04448520 38977.65734764 0 1672.70874354 0 18519.76968069 0 -1311.83258053 0 445.24207427 0 2151
0.04550000 0.04548030 36415.50579304 0 420.86730771 0 21019.96824593 0 3167.25870439 0 -2732.91771995 0 2274
0.04650000 0.04648670 37491.66436883 0 -29.88495770 0 20831.58282616 0 2097.11967437 0 -1248.90196421 0 2311
0.04750000 0.04749250 37841.85254273 0 -525.13946140 0 17260.38843424 0 3514.88747287 0 -1314.51281624 0 2568
0.04850000 0.04851840 38492.68846817 0 -330.82456935 0 15839.31427939 0 -947.36006845 0 -3590.98859171 0 2493
0.04950000 0.04949480 37617.21803344 0 1694.78773443 0 16787.06320171 0 -1270.61846420 0 -2426.87654326 0 2644
0.05050000 0.05050630 37281.52949535 0 1090.43522478 0 18716.06399272 0 -1021.61797601 0 -2526.56153943 0 2829
0.05150000 0.05149060 35356.37330475 0 -566.88632949 0 16672.05472679 0 1640.77659105 0 -1124.74334032 0 2784
0.05250000 0.05249300 36734.05839790 0 -284.37300881 0 15727.27163906 0 2228.49516244 0 -6143.89113620 0 3055
0.05350000 0.05348950 36767.45149855 0 387.04471028 0 14483.92786858 0 2125.20722646 0 -1866.16903584 0 3009
0.05450000 0.05448610 36065.53731060 0 669.12523879 0 14355.95759801 0 89.30710154 0 -2607.95722226 0 3336
0.05550000 0.05550870 34652.15235656 0 1233.20500999 0 13165.55946737 0 620.26476149 0 -1526.86657338 0 3349
0.05650000 0.05647670 32976.45580927 0 1343.53405700 0 14042.01851363 0 -630.95934136 0 -6.22254068 0 3324
0.05750000 0.05747970 32482.04019739 0 -379.59717007 0 12077.86709036 0 1688.90000353 0 -269.16596653 0 3639
0.05850000 0.05849280 31835.70794670 0 -299.84368084 0 12811.96607598 0 3828.02468344 0 -690.72310540 0 3846
0.05950000 0.05951020 33091.35443847 0 -705.92904923 0 9747.84152355 0 1554.31702026 0 -1539.30110954 0 3787
0.06050000 0.06049470 31958.40562243 0 1390.88854939 0 11063.55165820 0 -2398.08597852 0 -838.73253173 0 3930
0.06150000 0.06148310 31352.71629030 0 1293.56523632 0 10200.25212989 0 -1295.31178336 0 1127.48948347 0 4083
0.06250000 0.06249100 30937.38960100 0 -92.45374220 0 14563.34632834 0 487.77873313 0 -34.17476283 0 4303
0.06350000 0.06350600 30525.13859202 0 138.26281508 0 9955.94425111 0 1549.40691632 0 -1485.00436727 0 4470
0.06450000 0.06451750 30630.15110590 0 -187.50994934 0 13169.84345068 0 1620.02673344 0 2962.76990121 0 4479
0.06550000 0.06550280 30621.91267646 0 -384.70279940 0 10592.35743275 0 2924.97198696 0 4682.05323250 0 4636
0.06650000 0.06648880 29837.72403988 0 990.74363786 0 11068.93409877 0 541.18133119 0 5366.20536658 0 4653
0.06750000 0.06749660 29448.43078760 0 1436.89193937 0 11117.59575530 0 -1672.13754577 0 5209.77406845 0 5220
0.06850000 0.06852730 28754.42549191 0 -549.88001422 0 10787.53131838 0 1096.54484405 0 4287.75101512 0 5029
0.06950000 0.06949320 29171.50971282 0 -342.46821628 0 10335.69190982 0 1693.64533888 0 3564.21918833 0 5040
0.07050000 0.07048030 29229.28856460 0 -12.08094277 0 9322.18933603 0 175.19075119 0 2738.69560513 0 5475
0.07150000 0.07148790 28786.39059812 0 300.80483094 0 8374.12186110 0 -158.46783789 0 2393.87888722 0 5509
0.07250000 0.07249820 27703.42158733 0 940.88356445 0 9902.00999973 0 -759.18665093 0 404.23446791 0 5916
0.07350000 0.07351270 27201.97584899 0 312.09916847 0 9091.59020383 0 -27.37157765 0 862.34936278 0 5721
0.07450000 0.07449140 26167.88818618 0 574.67219454 0 8752.67220140 0 743.81703697 0 -748.28775801 0 6028
0.07550000 0.07549160 26322.22143095 0 780.27922720 0 8567.01095563 0 828.42351037 0 598.51970161 0 6183
0.07650000 0.07648840 25018.02312836 0 473.19451612 0 7385.51032878 0 298.98249035 0 775.06485060 0 6330
0.07750000 0.07749960 24435.07186147 0 542.02824174 0 9643.33430002 0 319.58076085 0 1992.76623484 0 6583
0.07850000 0.07848650 23400.43497004 0 -43.14795033 0 7456.21802249 0 162.74962428 0 1390.53704307 0 6549
0.07950000 0.07947320 23455.13814149 0 107.19141369 0 7378.54610977 0 1611.26104452 0 588.29855682 0 6828
0.08050000 0.08048110 23651.54229924 0 108.27570085 0 7853.16752186 0 498.43267008 0 2335.29816165 0 7147
0.08150000 0.08149960 23387.14363721 0 294.48101250 0 6571.43267021 0 -334.91961801 0 983.42901098 0 7386
0.08250000 0.08250610 22670.18058483 0 177.37668113 0 7380.10591907 0 -111.34621843 0 759.83474071 0 7227
0.08350000 0.08350160 21827.11463921 0 417.89598083 0 7160.09591484 0 -743.85108915 0 310.59757740 0 7798
0.08450000 0.08449610 22348.11291674 0 517.14818484 0 7009.99173052 0 601.20762652 0 713.47215522 0 7371
0.08550000 0.08548940 22359.09748932 0 -255.78346176 0 7562.75739196 0 1012.15256982 0 843.23620649 0 8256
0.08650000 0.08650700 21949.92216067 0 11.02082167 0 6338.18625602 0 57.61792779 0 856.07058110 0 8037
0.08750000 0.08749060 21570.62486944 0 419.25806783 0 6671.97446304 0 -629.00189052 0 -21.04457369 0 8155
0.08850000 0.08849210 21031.72173859 0 948.07077029 0 7677.53519086 0 -709.94940279 0 -389.09772689 0 8718
0.08950000 0.08949900 20502.81456880 0 393.40807317 0 8764.85409240 0 475.23215433 0 1487.26718922 0 8571
0.09050000 0.09049190 20351.33731291 0 55.21197686 0 8225.69831639 0 617.93603211 0 510.15870131 0 8932
0.09150000 0.09150830 19435.11411390 0 217.17818142 0 8577.47925330 0 458.42575828 0 1793.41821164 0 9285
0.09250000 0.09250820 19114.14490307 0 626.35570699 0 7912.81375098 0 471.77201397 0 1995.35859397 0 9204
0.09350000 0.09350330 18757.80536853 0 346.86424223 0 8302.33767929 0 -154.03666131 0 1964.10748498 0 9349
0.09450000 0.09448040 18109.27620333 0 372.10569156 0 7915.01066549 0 432.29455857 0 3399.48355333 0 9564
0.09550000 0.09549270 17954.39372993 0 118.46422146 0 8248.90871825 0 408.85677605 0 2547.79471823 0 10155
0.09650000 0.09649430 17650.34076088 0 245.46784965 0 7743.47558006 0 6.15257993 0 1779.42386617 0 9913
0.09750000 0.09749140 17091.99493657 0 262.80809592 0 7937.89153018 0 130.67247543 0 1183.65360308 0 10476
0.09850000 0.09850240 17249.29401593 0 81.04263866 0 7254.39847045 0 344.29385225 0 1726.37936517 0 10575
0.09950000 0.09950330 16914.37439793 0 -60.25038061 0 6066.44989950 0 957.39337704 0 1141.08838432 0 10882
0.10050000 0.10051200 17364.52218231 0 -206.61761334 0 5976.72791065 0 898.53693870 0 690.23429192 0 10875
0.10150000 0.10150300 16648.43789574 0 116.62760093 0 5577.57051219 0 39.15395974 0 991.41918907 0 11118
0.10250000 0.10250800 16774.76048042 0 457.85785588 0 4859.27832653 0 104.83763948 0 584.43857802 0 11575
0.10350000 0.10349800 16302.20416797 0 272.98310551 0 5917.42220329 0 -411.64795594 0 1963.18478088 0 11364
0.10450000 0.10450100 15775.60375842 0 138.42428830 0 5134.12331708 0 792.62478832 0 928.39081006 0 12093
0.10550000 0.10551000 15985.40909473 0 -31.51320090 0 5567.15713739 0 409.74762489 0 1606.75736976 0 12067
0.10650000 0.10649700 16053.29375328 0 177.45796697 0 4608.47856535 0 635.14006968 0 1002.04895996 0 12054
0.10750000 0.10749900 16065.37678312 0 79.27588001 0 5046.86187250 0 -211.72653805 0 1857.52417722 0 12807
0.10850000 0.10850100 15415.52946921 0 268.35969891 0 5216.25496628 0 -426.88136120 0 2522.54118587 0 12736
0.10950000 0.10950300 15088.51874346 0 370.50414088 0 5437.73690323 0 -37.37039469 0 2028.88350949 0 12933
0.11050000 0.11050200 15337.97838678 0 -68.75485639 0 5981.14370883 0 343.94014901 0 2122.08760784 0 13428
0.11150000 0.11150900 14974.71857152 0 176.20133186 0 5727.82848053 0 496.23905093 0 1541.00371829 0 13453
0.11250000 0.11250000 14601.79233238 0 430.17892989 0 5615.06085841 0 -753.02650263 0 2272.20277674 0 13668
0.11350000 0.11349100 14262.03950244 0 90.81341598 0 5798.05285305 0 234.52172307 0 1869.16782416 0 13791
0.11450000 0.11448600 14221.61627534 0 56.11172320 0 5783.91570813 0 666.27913604 0 1523.75793934 0 14205
0.11550000 0.11549300 14082.88112364 0 297.34908441 0 5693.49070664 0 -451.37695806 0 897.14409489 0 14776
0.11650000 0.11649800 13508.16828618 0 195.19365786 0 5338.32652137 0 82.03333727 0 592.67920437 0 14553
0.11750000 0.11747300 13678.42916119 0 18.71815106 0 5538.45444923 0 92.95958177 0 815.58254502 0 14568
0.11850000 0.11849100 13553.31487949 0 -128.70623694 0 4642.60763236 0 408.87544982 0 240.26555607 0 16015
0.11950000 0.11950300 13527.83067110 0 -26.90868776 0 4876.99644210 0 418.36172670 0 408.49208824 0 15270
0.12050000 0.12050700 13661.95230232 0 -22.97708954 0 3944.54902939 0 273.53013722 0 78.71445851 0 15999
0.12150000 0.12150000 13686.00851627 0 76.90024650 0 4085.15155843 0 408.69859821 0 491.02796970 0 15670
0.12250000 0.12250700 13892.73817225 0 278.01403975 0 3669.04496448 0 151.04666065 0 139.02734133 0 16887
0.12350000 0.12352200 13378.44048400 0 11.17691245 0 4330.26131101 0 -361.96802953 0 778.97645689 0 16407
0.12450000 0.12449800 13154.46504906 0 151.52888339 0 3918.42771579 0 403.47653240 0 654.90461113 0 16306
0.12550000 0.12549900 13026.05539559 0 130.19574498 0 3958.47746742 0 139.39971834 0 1591.69752075 0 17523
0.12650000 0.12650100 13105.58370107 0 -59.23804240 0 3596.85435347 0 633.87904075 0 1545.56231591 0 17154
0.12750000 0.12750600 13021.88125800 0 -33.25579349 0 3542.82124094 0 418.63743948 0 1681.02406499 0 18007
0.12850000 0.12850300 13024.84709260 0 124.56395462 0 3305.25788973 0 353.77463684 0 2004.25609776 0 17496
0.12950000 0.12949900 12750.34262379 0 142.12279389 0 3368.08964489 0 -128.62934493 0 1975.53144046 0 18405
0.13050000 0.13049000 12655.98514532 0 338.12162091 0 3592.64726217 0 66.45930041 0 2090.38613137 0 18100
0.13150000 0.13148800 12487.92118483 0 117.87764528 0 3485.49275664 0 -354.45787726 0 1229.29450215 0 19059
0.13250000 0.13249300 12228.46558045 0 78.20982724 0 3579.86121969 0 74.86864980 0 1710.64945724 0 18957
0.13350000 0.13349100 12324.03136191 0 -99.27285501 0 3437.09472985 0 67.62004020 0 1400.52201955 0 19468
0.13450000 0.13450700 12226.37851166 0 14.30762548 0 3185.83361662 0 119.99327396 0 891.80778953 0 19953
0.13550000 0.13551000 12021.95561593 0 383.38794606 0 3234.64905717 0 -625.60546068 0 369.50893861 0 19956
0.13650000 0.13649900 11796.99156946 0 385.21577894 0 3701.17483928 0 -62.68653912 0 310.10766546 0 19723
0.13750000 0.13749600 11558.95588162 0 120.88522126 0 3811.02056509 0 -94.93098301 0 200.53655396 0 20946
0.13850000 0.13851100 11431.53483968 0 -89.06170619 0 3922.84351397 0 466.26434927 0 607.22277847 0 20955
0.13950000 0.13949800 11425.71301621 0 87.43401222 0 3370.59412744 0 130.06063473 0 142.11620314 0 20506
0.14050000 0.14048300 11073.32792780 0 235.86513630 0 3582.70622399 0 86.85073142 0 466.27972768 0 21447
0.14150000 0.14148400 11085.52080337 0 180.98731014 0 3444.84983809 0 -16.15094660 0 346.09642061 0 21771
0.14250000 0.14249400 10645.94017781 0 -45.86289729 0 3488.72222098 0 599.62035578 0 1002.56853024 0 22470
0.14350000 0.14350900 10877.59382897 0 10.88779850 0 3018.17608531 0 381.58318079 0 1224.54916680 0 22519
0.14450000 0.14449900 10943.08385070 0 7.11231302 0 2847.62961141 0 421.63622779 0 1378.62976639 0 22218
0.14550000 0.14550500 10755.32455157 0 40.74342739 0 2699.39280443 0 -120.86874440 0 913.66599051 0 23559
0.14650000 0.14650700 10640.67856754 0 223.66347307 0 2741.38682541 0 -299.21536329 0 1070.93541153 0 23044
0.14750000 0.14750500 10359.36366373 0 252.18491578 0 3132.66828533 0 -445.50899938 0 942.73556339 0 23649
0.14850000 0.14849900 10129.80806593 0 65.00560208 0 2905.29861747 0 164.65544762 0 669.03186993 0 23640
0.14950000 0.14949500 10175.93228620 0 129.81787568 0 3084.23730482 0 260.27725040 0 102.46859671 0 24457
0.15050000 0.15050000 9995.33492839 0 145.43793789 0 2875.70617893 0 7.77549561 0 -13.49663448 0 24591
0.15150000 0.15149900 9847.88901063 0 109.74137237 0 2840.22600950 0 103.21763472 0 232.06117881 0 25020
0.15250000 0.15250500 9612.21500589 0 33.32949997 0 2521.77226579 0 271.42109928 0 474.06119889 0 25297
0.15350000 0.15350100 9539.72781143 0 -10.32898034 0 2456.11747547 0 263.37270295 0 637.13596652 0 25452
0.15450000 0.15450400 9628.19755900 0 16.00595025 0 1894.89369314 0 482.25349312 0 268.05982007 0 26061
0.15550000 0.15549900 9446.62257423 0 197.57291628 0 1992.43669767 0 -125.53169546 0 317.74304186 0 26128
0.15650000 0.15649500 9360.05315772 0 170.50363406 0 2163.07104815 0 -0.15437169 0 640.24460056 0 26331
0.15750000 0.15749700 9070.00551871 0 35.49148355 0 2134.40131371 0 -46.63280598 0 996.83678027 0 27345
0.15850000 0.15849900 9173.00785580 0 -53.85757906 0 1878.35092684 0 352.27743960 0 354.50181555 0 26980
0.15950000 0.15949700 9106.79285228 0 33.61839423 0 1685.76940034 0 161.51385986 0 611.90000947 0 27777
0.16050000 0.16050000 9004.26285181 0 238.08621687 0 1789.39785807 0 -109.85121810 0 775.72722032 0 28224
0.16150000 0.16150500 8764.75523124 0 188.68969243 0 2072.20666375 0 -151.95728172 0 1031.34261812 0 28075
0.16250000 0.16249700 8706.62487314 0 104.27698690 0 2038.46205678 0 -260.92424173 0 640.17649621 0 28590
0.16350000 0.16349900 8376.85701968 0 15.96102334 0 2230.19777119 0 187.00136362 0 859.88991698 0 29163
0.16450000 0.16449100 8515.50429480 0 210.30842973 0 2299.97177623 0 5.47566663 0 871.02497821 0 28996
0.16550000 0.16550500 8363.03842737 0 31.87316534 0 2305.22240192 0 85.01718656 0 946.33520783 0 30777
0.16650000 0.16650700 8260.91485608 0 68.75914038 0 2252.83697528 0 138.66265352 0 967.37835352 0 29211
0.16750000 0.16749900 8196.72101392 0 74.28086532 0 2351.77502052 0 -20.16888356 0 1254.58098823 0 30922
0.16850000 0.16850800 8297.05409987 0 -14.07112763 0 2138.70726616 0 322.27198113 0 1216.61830539 0 30867
0.16950000 0.16949900 8273.95354374 0 -102.58766948 0 1811.79540157 0 134.28310444 0 931.00074450 0 30852
0.17050000 0.17049200 8325.51512743 0 96.87711973 0 2165.00433292 0 -300.89710135 0 690.11236317 0 31257
0.17150000 0.17149500 8124.85994009 0 158.63260648 0 2003.76179200 0 -379.18415014 0 542.59834106 0 32608
0.17250000 0.17250900 8043.26653495 0 133.82504776 0 2457.38070132 0 -33.61905331 0 157.03215425 0 32361
0.17350000 0.17350400 7926.97286504 0 24.37564532 0 2181.09673175 0 -45.85399978 0 18.93037300 0 32508
0.17450000 0.17449800 7948.55755016 0 100.30210946 0 2157.31513211 0 322.90908634 0 -127.65940717 0 32791
0.17550000 0.17549800 7834.85623937 0 -57.50467685 0 1912.62279329 0 70.95891088 0 273.18741856 0 33633
0.17650000 0.17650100 7880.83766019 0 -36.53161273 0 1935.71236486 0 359.90842217 0 97.89736683 0 33984
0.17750000 0.17750300 7985.46571403 0 -16.68842174 0 1347.09305851 0 185.66893497 0 393.27296293 0 34069
0.17850000 0.17849800 7795.38867008 0 110.88706329 0 1653.37589580 0 263.50451782 0 618.78733648 0 34536
