### header ###
fiducial parameters:
Omega_m = 0.31
Omega_nu = 0
Omega_de = 0.69
Omega_k = 0
H_0 = 100
w_de = -1
zeff = 0
beta = 0
fgrowth = 0
b_1 = 2
gamma = 0.55
Lx = 3500 Ly = 3500 Lz = 3500
nx = 700 ny = 700 nz = 700
xoffset = -983.599254 yoffset = -42.9823471 zoffset = 800.977702
bins = 400 dk = 0.001
kx_ny = 0.628318531 ky_ny = 0.628318531 kz_ny = 0.628318531
############################
A(data) = 9.09585113 (not used)
A(ran) = 9.09145854 (used)
Ngal = 504955
weighted Ngal = 0
Nran = 25229228
weighted Nran = 0
SN(data) = 6746.26793
SN(ran) = 134.956439
SN(data+ran) = 6881.22437
############################
13 columns: k_central k_mean P_0(k) sigma^{lin}_{P_0(k)} P^img_1(k) sigma^{lin}_{P_1(k)} P_2(k) sigma^{lin}_{P_2(k)} P^img_3(k) sigma^{lin}_{P_3(k)} P_4(k) sigma^{lin}_{P_4(k)} N_modes
### header ###
0.00050000 0 0 0 0 0 0 0 0 0 0 0 0
0.00150000 0.00179520 1396.00736022 0 -218.64242495 0 -19015.83297847 0 35262.67490063 0 23664.72378634 0 3
0.00250000 0.00253879 14486.45432028 0 -17115.83145907 0 -12341.82636949 0 -5865.86061959 0 -11583.01209557 0 6
0.00350000 0.00331552 15840.08319947 0 -17974.27580630 0 -22395.78596175 0 -7306.21269932 0 -13447.20390835 0 7
0.00450000 0.00420575 33066.52930444 0 -11788.42360285 0 -31686.42760532 0 2288.80046591 0 -7903.69655574 0 24
0.00550000 0.00557378 43984.75506739 0 1505.84210146 0 -14134.83815195 0 -28010.22069952 0 8956.11747018 0 45
0.00650000 0.00659388 50720.82451145 0 -3283.72812747 0 -7412.02708700 0 -8184.57207664 0 3127.52750536 0 40
0.00750000 0.00754703 46983.32369065 0 -5728.99284523 0 -16833.63778946 0 -3919.39435818 0 -6164.94856184 0 57
0.00850000 0.00846663 51267.08730592 0 -6917.45769109 0 1432.84961666 0 -13701.82630079 0 -20340.57243178 0 75
0.00950000 0.00948925 62836.36868577 0 2525.28732902 0 27.83941060 0 -7797.00340225 0 -25629.97366687 0 112
0.01050000 0.01054430 63813.55626260 0 987.11872891 0 9458.67265035 0 5133.95854850 0 14341.45796220 0 105
0.01150000 0.01145670 61319.94844091 0 1366.03046164 0 19089.97884339 0 -9974.36537933 0 16294.51496716 0 144
0.01250000 0.01249090 56063.39107784 0 3508.59331278 0 27625.65081345 0 8731.98825123 0 4184.06763452 0 169
0.01350000 0.01339930 60396.25573255 0 629.02715504 0 33767.01549795 0 -8396.26675943 0 -12052.05334480 0 180
0.01450000 0.01448870 58700.89680034 0 -1171.71337268 0 19704.01645069 0 9108.86893650 0 5415.63594320 0 267
0.01550000 0.01550050 58720.33949381 0 -2207.08623048 0 41420.40659828 0 3362.56440488 0 5444.84392169 0 238
0.01650000 0.01653350 63692.06688985 0 3938.52948361 0 22911.95102734 0 -11317.40513056 0 -11678.02864840 0 315
0.01750000 0.01747870 64622.24049604 0 -344.12468983 0 42474.59602891 0 2238.26044746 0 2559.33950402 0 297
0.01850000 0.01844180 65056.02126728 0 -4891.33130932 0 21884.01472518 0 8038.69695276 0 -6245.81698518 0 388
0.01950000 0.01947590 65748.59856853 0 -1086.16112759 0 23023.88382195 0 5649.24484829 0 -11689.12306671 0 399
0.02050000 0.02045430 71289.21697856 0 500.71196889 0 18649.60732860 0 -85.49336778 0 -11628.59807179 0 462
0.02150000 0.02154770 70550.39462674 0 -762.46334893 0 14594.32282302 0 -2557.37326553 0 -17527.53323942 0 571
0.02250000 0.02255340 68499.46508008 0 3789.27111138 0 25799.57546753 0 -2293.65564699 0 -8806.82614423 0 510
0.02350000 0.02348930 68438.06131935 0 2427.84318565 0 19303.29924292 0 -2836.88669943 0 -12420.25621772 0 555
0.02450000 0.02439640 61886.42284893 0 3677.55800823 0 28741.57354199 0 -2119.27555726 0 -13716.76531950 0 592
0.02550000 0.02547300 58702.10510333 0 2682.89397641 0 30271.39496539 0 2593.99583051 0 -6020.98475358 0 837
0.02650000 0.02652900 60068.25639527 0 322.12808323 0 30805.35503857 0 9030.09856652 0 -3207.20959487 0 723
0.02750000 0.02749970 58948.15952915 0 -596.67099805 0 27651.68425047 0 2528.36300934 0 -1540.56433539 0 826
0.02850000 0.02848090 58978.03756657 0 -1369.43567914 0 21047.75921456 0 6166.32163341 0 1646.58742994 0 831
0.02950000 0.02946900 62742.88997310 0 237.91156217 0 20975.48072698 0 -1203.59060231 0 1934.28437042 0 996
0.03050000 0.03053250 59380.62215168 0 407.12560741 0 18471.65725279 0 1603.50593628 0 719.95085613 0 1041
0.03150000 0.03150510 62800.00975052 0 -1842.93666483 0 17761.94401831 0 10236.88567945 0 217.22761200 0 1036
0.03250000 0.03246190 59895.24937711 0 -550.66870653 0 10051.68578573 0 1277.94517411 0 -803.07221531 0 1059
0.03350000 0.03345080 60657.35902281 0 4069.91595626 0 14282.36096171 0 -5121.13955229 0 -437.50563980 0 1302
0.03450000 0.03451200 56838.79205635 0 2650.21487298 0 16640.41915775 0 -286.43920692 0 -1519.37509488 0 1339
0.03550000 0.03553350 53721.69989495 0 -1698.00621420 0 15568.54456526 0 4720.64203598 0 1978.92567339 0 1365
0.03650000 0.03647120 51260.05717947 0 3470.70752195 0 14442.95541285 0 -1684.51715907 0 -2439.01449596 0 1308
0.03750000 0.03744890 51009.27938744 0 3178.52887586 0 16154.13212957 0 -2134.26949884 0 -1273.48543765 0 1579
0.03850000 0.03847530 47233.44240832 0 1043.09720924 0 21914.44199123 0 2141.35454815 0 4102.69392084 0 1662
0.03950000 0.03950240 46962.67269419 0 73.15318910 0 18200.33831003 0 2144.27644446 0 2045.83270498 0 1683
0.04050000 0.04050350 46780.43863507 0 248.98840516 0 19640.74531262 0 3117.23496085 0 2265.68892520 0 1822
0.04150000 0.04152450 45343.10731280 0 1158.94929934 0 19946.66565901 0 -2604.76071164 0 7600.95075082 0 1887
0.04250000 0.04250150 44134.36494595 0 1693.32678628 0 23647.14847021 0 -2005.79393793 0 4729.40772490 0 1920
0.04350000 0.04349210 45094.08705238 0 724.41938025 0 24022.71100677 0 1556.43704277 0 -167.73771869 0 2005
0.04450000 0.04448520 42428.90020697 0 -824.84693353 0 23510.17085012 0 170.97926606 0 1507.97310854 0 2151
0.04550000 0.04548030 42430.76758431 0 1978.67302822 0 21584.02604798 0 2230.30761692 0 -217.15071999 0 2274
0.04650000 0.04648670 43038.65383096 0 673.46084959 0 23609.80092344 0 1727.64259102 0 1877.39526902 0 2311
0.04750000 0.04749250 40231.43646207 0 367.12418790 0 19796.17701465 0 1137.38658336 0 -62.75629115 0 2568
0.04850000 0.04851840 38986.33515998 0 -419.91164990 0 16738.84092808 0 4101.14509611 0 1464.44124740 0 2493
0.04950000 0.04949480 38716.22452020 0 1540.25676736 0 16702.59183856 0 579.83494365 0 -1980.85895817 0 2644
0.05050000 0.05050630 37333.37667794 0 1841.98100702 0 13615.26786885 0 -290.57599695 0 132.77602108 0 2829
0.05150000 0.05149060 35110.64841610 0 933.25697571 0 15696.29514438 0 1665.87633940 0 -51.63430157 0 2784
0.05250000 0.05249300 33910.47401586 0 -391.30672444 0 13720.39022845 0 1603.02261509 0 -1176.31590859 0 3055
0.05350000 0.05348950 34501.22432929 0 -253.90839522 0 12885.78240372 0 1533.72094667 0 -1073.73647754 0 3009
0.05450000 0.05448610 34976.41693916 0 -60.51642696 0 11944.29468778 0 922.33940902 0 -1823.29624906 0 3336
0.05550000 0.05550870 34158.61551048 0 665.91225131 0 10279.93421940 0 -202.10515092 0 557.65489469 0 3349
0.05650000 0.05647670 34274.83228839 0 -586.29387233 0 10781.55571089 0 1915.17121413 0 -1042.19317892 0 3324
0.05750000 0.05747970 34026.14156515 0 995.84047954 0 11597.29203993 0 -110.87058644 0 1088.76117592 0 3639
0.05850000 0.05849280 33752.62570787 0 629.45225800 0 11723.61462462 0 -483.96928336 0 -856.86696261 0 3846
0.05950000 0.05951020 33275.23618349 0 -480.15983359 0 10777.15089729 0 1153.53390506 0 2552.35331586 0 3787
0.06050000 0.06049470 33463.51175753 0 -157.86148948 0 10973.29142530 0 1351.57476413 0 1464.04580279 0 3930
0.06150000 0.06148310 33683.09336343 0 92.82150569 0 10653.95891579 0 -158.20201123 0 2150.03236049 0 4083
0.06250000 0.06249100 32072.09594865 0 1280.91100871 0 9910.90750352 0 -724.95762431 0 1786.41005433 0 4303
0.06350000 0.06350600 32490.38847255 0 774.46289602 0 12421.57436643 0 259.16341474 0 1097.87946962 0 4470
0.06450000 0.06451750 31342.61048352 0 448.71210075 0 13097.89450027 0 -1236.59924292 0 344.16423429 0 4479
0.06550000 0.06550280 30390.79726935 0 929.21904683 0 13229.92906270 0 254.33569509 0 427.13620328 0 4636
0.06650000 0.06648880 30331.04119451 0 -169.45790276 0 12418.60853184 0 2211.39218293 0 2617.07441751 0 4653
0.06750000 0.06749660 30936.40098947 0 -1104.89421767 0 10791.18918105 0 2617.78841472 0 2212.53457848 0 5220
0.06850000 0.06852730 30571.38364259 0 830.76102741 0 10086.33112765 0 23.41998751 0 1305.68121988 0 5029
0.06950000 0.06949320 29636.48667019 0 1296.55304007 0 10943.23763472 0 -2305.11255619 0 1727.79637504 0 5040
0.07050000 0.07048030 28121.82395695 0 1004.55124559 0 12233.07910094 0 -292.42579897 0 2567.47907230 0 5475
0.07150000 0.07148790 27311.82157480 0 344.24222475 0 12469.02771999 0 659.37313525 0 1442.51604053 0 5509
0.07250000 0.07249820 27809.86209564 0 340.92158846 0 12472.65262894 0 292.69272409 0 593.47558588 0 5916
0.07350000 0.07351270 25806.71543970 0 121.79035004 0 11400.99772790 0 439.70035740 0 1791.18834340 0 5721
0.07450000 0.07449140 26549.49223765 0 -12.58304758 0 10299.87121863 0 2797.05663925 0 1356.16631547 0 6028
0.07550000 0.07549160 26497.09582644 0 313.85450317 0 9957.80064387 0 1223.69237013 0 1384.67128131 0 6183
0.07650000 0.07648840 25844.28267793 0 647.35161902 0 8661.75289415 0 188.28875553 0 2491.27909230 0 6330
0.07750000 0.07749960 25061.63188151 0 436.92785128 0 9001.52769323 0 -665.06534077 0 2346.53537940 0 6583
0.07850000 0.07848650 23931.86859152 0 245.12952481 0 9237.71797288 0 1089.14343904 0 2499.79213605 0 6549
0.07950000 0.07947320 23471.39530891 0 416.13844921 0 8878.50048032 0 -539.95984672 0 2116.60630613 0 6828
0.08050000 0.08048110 22970.49879920 0 380.37377935 0 9096.06092487 0 -336.14329939 0 1584.84314746 0 7147
0.08150000 0.08149960 23077.59838187 0 714.95177714 0 9458.63969663 0 238.20485026 0 2343.65742138 0 7386
0.08250000 0.08250610 23276.08960841 0 -85.70295343 0 9507.03772343 0 847.15110816 0 1804.60050653 0 7227
0.08350000 0.08350160 23127.79787857 0 -655.50327033 0 8829.79488550 0 1164.49650849 0 1092.36301727 0 7798
0.08450000 0.08449610 22973.90401670 0 304.68897580 0 7783.77797687 0 368.23802356 0 192.35194893 0 7371
0.08550000 0.08548940 21895.65837212 0 1064.06456138 0 8429.75872123 0 -1507.05040444 0 1531.28237156 0 8256
0.08650000 0.08650700 21358.40292716 0 752.99574582 0 9436.68153604 0 49.89731111 0 1493.86891734 0 8037
0.08750000 0.08749060 20099.68075507 0 456.84727520 0 9957.29535354 0 327.56544666 0 1838.87237298 0 8155
0.08850000 0.08849210 20072.87839797 0 -117.78867025 0 8352.50422226 0 1428.59858707 0 576.88338900 0 8718
0.08950000 0.08949900 20703.72240132 0 -251.89052923 0 8483.96758692 0 1034.83351529 0 942.31375581 0 8571
0.09050000 0.09049190 20197.33360532 0 -32.74303364 0 6736.49784239 0 488.58390230 0 85.38077591 0 8932
0.09150000 0.09150830 19413.25481446 0 565.29466492 0 7058.69732534 0 -956.06314531 0 248.26781720 0 9285
0.09250000 0.09250820 18773.62315305 0 729.90507580 0 7239.48142089 0 -137.65646667 0 348.66571213 0 9204
0.09350000 0.09350330 19098.87634718 0 272.06699215 0 6840.92817392 0 259.55007170 0 -1283.65715186 0 9349
0.09450000 0.09448040 18838.98135991 0 -310.13512689 0 7519.13765424 0 776.39288542 0 -1191.16705072 0 9564
0.09550000 0.09549270 18312.71048753 0 176.87248925 0 6161.10396143 0 29.00761989 0 -1086.04908495 0 10155
0.09650000 0.09649430 17663.52224798 0 369.09591868 0 6433.63120717 0 -189.98257662 0 -487.27124588 0 9913
0.09750000 0.09749140 17626.72392983 0 443.41533985 0 5913.59957203 0 154.07291040 0 -1246.50732739 0 10476
0.09850000 0.09850240 17779.73902589 0 -254.61360478 0 5963.64528471 0 1230.89824975 0 -908.10120604 0 10575
0.09950000 0.09950330 17640.34479983 0 14.70999037 0 5357.87906057 0 712.59448787 0 -604.11304597 0 10882
0.10050000 0.10051200 16820.56614809 0 608.96603014 0 5199.71219997 0 -375.03308016 0 -188.05698105 0 10875
0.10150000 0.10150300 16732.14033881 0 15.13959701 0 4593.05622545 0 -330.83994775 0 -195.63304076 0 11118
0.10250000 0.10250800 16650.96434743 0 284.76296114 0 5501.62317737 0 454.44275226 0 -1455.56571275 0 11575
0.10350000 0.10349800 15992.54906690 0 453.76061031 0 5156.57578344 0 -738.40603652 0 -1153.81950394 0 11364
0.10450000 0.10450100 15812.29223084 0 245.38216998 0 5255.63465898 0 67.40671980 0 -1120.15178898 0 12093
0.10550000 0.10551000 15775.16437552 0 -49.81668434 0 5549.32917609 0 331.30129980 0 -1168.86836838 0 12067
0.10650000 0.10649700 15833.71214738 0 -255.79554479 0 4713.12858833 0 862.89090221 0 -1970.32475306 0 12054
0.10750000 0.10749900 15891.16146198 0 85.41164256 0 4709.40481823 0 395.49953579 0 -391.33089050 0 12807
0.10850000 0.10850100 15430.35864219 0 14.36309757 0 4261.55280951 0 266.15948902 0 -221.05903091 0 12736
0.10950000 0.10950300 15593.25985357 0 152.48344275 0 4702.25386148 0 93.66940485 0 363.24223995 0 12933
0.11050000 0.11050200 15329.63011162 0 471.84231523 0 4616.16776616 0 -458.52901326 0 110.17306608 0 13428
0.11150000 0.11150900 14800.17371320 0 593.40638307 0 5559.59975145 0 -536.85560651 0 558.82694859 0 13453
0.11250000 0.11250000 14809.62044562 0 290.79458995 0 6081.53171765 0 323.79444289 0 1110.24370451 0 13668
0.11350000 0.11349100 14564.22509415 0 -183.17104317 0 5949.90358441 0 -62.40159930 0 488.26644816 0 13791
0.11450000 0.11448600 14474.04175326 0 -200.07080808 0 6119.81295310 0 558.59297719 0 406.38305030 0 14205
0.11550000 0.11549300 14184.15888284 0 132.52227745 0 5642.64312017 0 -319.65655440 0 714.02358076 0 14776
0.11650000 0.11649800 14387.70301277 0 110.62123664 0 5314.72067489 0 725.99346950 0 1511.07075801 0 14553
0.11750000 0.11747300 14407.91462632 0 99.25593877 0 4951.75744309 0 293.69891094 0 363.34110110 0 14568
0.11850000 0.11849100 14347.16993994 0 298.87044771 0 5642.68705846 0 329.70524140 0 -324.68529173 0 16015
0.11950000 0.11950300 14077.49868307 0 114.25822862 0 4602.06357496 0 159.75193442 0 1711.86874479 0 15270
0.12050000 0.12050700 13861.32229467 0 -118.80584167 0 5019.54324049 0 23.71679066 0 608.47282283 0 15999
0.12150000 0.12150000 13487.95667263 0 70.90201080 0 4055.57010447 0 371.13685226 0 333.67726285 0 15670
0.12250000 0.12250700 13852.86417378 0 328.46618161 0 4162.62574885 0 405.88764608 0 558.86649305 0 16887
0.12350000 0.12352200 13417.65540811 0 -49.85754695 0 4178.97079285 0 -70.72680686 0 718.53714164 0 16407
0.12450000 0.12449800 13181.81663479 0 98.10299803 0 3887.17660680 0 190.11109612 0 451.93167897 0 16306
0.12550000 0.12549900 13432.48458110 0 -5.94225832 0 3649.05304238 0 630.47052788 0 396.04766596 0 17523
0.12650000 0.12650100 13202.90701415 0 77.80878050 0 3074.64777295 0 -204.86337710 0 486.04207221 0 17154
0.12750000 0.12750600 12958.93965711 0 104.45021361 0 3228.48671196 0 234.71834692 0 613.15774303 0 18007
0.12850000 0.12850300 13037.47935107 0 43.15069647 0 3015.15532785 0 482.59291642 0 896.46305139 0 17496
0.12950000 0.12949900 12931.25853421 0 -153.78511460 0 2152.61373505 0 465.62394869 0 484.39987861 0 18405
0.13050000 0.13049000 12796.69752009 0 362.86546911 0 2649.97321239 0 61.54765863 0 409.86625827 0 18100
0.13150000 0.13148800 12463.31574224 0 440.71533191 0 2441.00270360 0 -732.09100574 0 501.34907410 0 19059
0.13250000 0.13249300 11936.93502415 0 174.35262830 0 3014.57314551 0 -26.30025229 0 319.85207980 0 18957
0.13350000 0.13349100 12140.03977117 0 35.40767126 0 2916.68961923 0 -286.55564339 0 -587.00018035 0 19468
0.13450000 0.13450700 11790.95005454 0 19.40589515 0 2911.16437923 0 -123.40178684 0 -780.15729844 0 19953
0.13550000 0.13551000 11574.77366614 0 192.41236408 0 3092.98102459 0 -104.45208098 0 -1280.57048696 0 19956
0.13650000 0.13649900 11309.93562120 0 227.76291556 0 2679.96109553 0 4.70736169 0 -183.63019830 0 19723
0.13750000 0.13749600 11469.65130654 0 111.64280189 0 3273.00718463 0 335.08438659 0 -706.49475471 0 20946
0.13850000 0.13851100 11391.55099548 0 35.31364332 0 2840.10517920 0 219.02139270 0 -318.41859307 0 20955
0.13950000 0.13949800 11319.82173653 0 -26.60749078 0 2839.11656766 0 327.05795941 0 -416.68767784 0 20506
0.14050000 0.14048300 11087.93740933 0 396.30470496 0 2926.26816652 0 -340.60413432 0 -115.66864774 0 21447
0.14150000 0.14148400 10673.52243956 0 188.08004865 0 3436.73223895 0 -457.69638266 0 192.11687908 0 21771
0.14250000 0.14249400 10568.96029316 0 157.52755847 0 3653.69951658 0 -0.27867970 0 -15.64829256 0 22470
0.14350000 0.14350900 10345.80870117 0 -24.74648449 0 3359.41183255 0 839.50694410 0 953.15003666 0 22519
0.14450000 0.14449900 10517.64037006 0 -83.39839010 0 3155.74687232 0 505.61987592 0 612.25590962 0 22218
0.14550000 0.14550500 10739.75941222 0 37.35314891 0 2975.97335746 0 -22.27934949 0 699.79965773 0 23559
0.14650000 0.14650700 10378.63060404 0 233.59462514 0 2973.11736858 0 131.64021627 0 889.50981695 0 23044
0.14750000 0.14750500 10404.29056559 0 41.79574944 0 3251.54332980 0 -206.02554488 0 939.00300563 0 23649
0.14850000 0.14849900 10372.94059544 0 -8.74161074 0 3146.46490849 0 10.78341210 0 707.59980272 0 23640
0.14950000 0.14949500 10178.83221336 0 199.08219655 0 3235.70357614 0 -15.20781120 0 938.29999298 0 24457
0.15050000 0.15050000 10112.12290407 0 87.05350663 0 3234.63807260 0 -216.12695782 0 928.19638312 0 24591
0.15150000 0.15149900 9923.33105511 0 61.88905915 0 3398.17638919 0 146.79672952 0 419.63374021 0 25020
0.15250000 0.15250500 9706.07817860 0 144.65363941 0 3355.57821672 0 294.66555332 0 1345.41241891 0 25297
0.15350000 0.15350100 9829.30311382 0 -9.30261483 0 3356.76455056 0 38.05253664 0 913.49902501 0 25452
0.15450000 0.15450400 9816.30836445 0 308.72690468 0 3417.03690031 0 32.85947011 0 1131.71854391 0 26061
0.15550000 0.15549900 9436.97811950 0 3.02233924 0 3267.43800633 0 161.96422734 0 1556.30522790 0 26128
0.15650000 0.15649500 9481.28988530 0 -172.80270511 0 3259.90258954 0 414.06675883 0 1301.36428286 0 26331
0.15750000 0.15749700 9739.42734096 0 110.10386327 0 2956.57460228 0 164.66203837 0 1191.48560333 0 27345
0.15850000 0.15849900 9439.64737064 0 155.29000104 0 2925.58712302 0 -131.46666003 0 1110.32059652 0 26980
0.15950000 0.15949700 9285.94024651 0 141.75261379 0 3007.41120418 0 -309.47934791 0 1095.24866448 0 27777
0.16050000 0.16050000 9097.11544384 0 170.70684866 0 3065.37679369 0 51.43679895 0 703.62009207 0 28224
0.16150000 0.16150500 9136.82467372 0 26.28037021 0 3178.03457009 0 110.70801476 0 700.83769983 0 28075
0.16250000 0.16249700 8963.37827266 0 -22.38908537 0 2706.09339370 0 196.91713729 0 708.72242603 0 28590
0.16350000 0.16349900 8964.93808196 0 108.42959472 0 2758.28109804 0 -69.77191797 0 122.79763534 0 29163
0.16450000 0.16449100 8791.81023351 0 111.43629192 0 2681.63075057 0 42.65133780 0 311.97833817 0 28996
0.16550000 0.16550500 8680.96491159 0 215.02410674 0 2828.83500773 0 -93.24045729 0 270.82463699 0 30777
0.16650000 0.16650700 8348.85734417 0 87.79946895 0 2704.90705987 0 67.14100299 0 530.78113787 0 29211
0.16750000 0.16749900 8340.90451362 0 61.17055825 0 2478.17449721 0 544.25151923 0 174.63712873 0 30922
0.16850000 0.16850800 8223.09497268 0 62.82538411 0 2470.10083637 0 243.17756626 0 626.07779730 0 30867
0.16950000 0.16949900 8131.65939052 0 107.69483666 0 2183.96370520 0 104.58730107 0 884.39869533 0 30852
0.17050000 0.17049200 8040.78402155 0 156.55762072 0 2235.93171808 0 352.53338014 0 1342.40264602 0 31257
0.17150000 0.17149500 7948.16210555 0 26.82784131 0 1934.04270982 0 117.89851597 0 1211.86198546 0 32608
0.17250000 0.17250900 7886.80228311 0 61.70737432 0 1997.78618451 0 -181.58487088 0 689.63453426 0 32361
0.17350000 0.17350400 7680.78662434 0 169.82149211 0 2222.32183265 0 -242.00002008 0 1083.90929021 0 32508
0.17450000 0.17449800 7634.56354292 0 22.70214569 0 2254.06724741 0 -16.02154834 0 919.28789476 0 32791
0.17550000 0.17549800 7684.18085727 0 -122.85365666 0 2159.56696949 0 -38.77751844 0 767.09114936 0 33633
0.17650000 0.17650100 7770.57452062 0 -49.02755265 0 1910.20618732 0 184.13768555 0 607.28429207 0 33984
0.17750000 0.17750300 7786.44722800 0 69.16458095 0 2009.91315264 0 120.26459291 0 364.81303383 0 34069
0.17850000 0.17849800 7884.15500111 0 69.27058208 0 2106.63231422 0 61.23393924 0 337.38455609 0 34536
