### header ###
fiducial parameters:
Omega_m = 0.31
Omega_nu = 0
Omega_de = 0.69
Omega_k = 0
H_0 = 100
w_de = -1
zeff = 0
beta = 0
fgrowth = 0
b_1 = 2
gamma = 0.55
Lx = 3500 Ly = 3500 Lz = 3500
nx = 700 ny = 700 nz = 700
xoffset = -983.599254 yoffset = -42.9823471 zoffset = 800.977702
bins = 400 dk = 0.001
kx_ny = 0.628318531 ky_ny = 0.628318531 kz_ny = 0.628318531
############################
A(data) = 9.054734 (not used)
A(ran) = 9.04710471 (used)
Ngal = 502844
weighted Ngal = 0
Nran = 25229228
weighted Nran = 0
SN(data) = 6743.02792
SN(ran) = 134.298037
SN(data+ran) = 6877.32595
############################
13 columns: k_central k_mean P_0(k) sigma^{lin}_{P_0(k)} P^img_1(k) sigma^{lin}_{P_1(k)} P_2(k) sigma^{lin}_{P_2(k)} P^img_3(k) sigma^{lin}_{P_3(k)} P_4(k) sigma^{lin}_{P_4(k)} N_modes
### header ###
0.00050000 0 0 0 0 0 0 0 0 0 0 0 0
0.00150000 0.00179520 -2487.09397015 0 -5564.35607138 0 -5169.38379507 0 -10527.66928482 0 -4092.73091351 0 3
0.00250000 0.00253879 2036.72649431 0 -3640.40818376 0 2840.83016099 0 -10651.97070815 0 -10553.80158299 0 6
0.00350000 0.00331552 24474.39663131 0 -24195.16879630 0 -26192.38378304 0 -8817.63496365 0 -12842.17365057 0 7
0.00450000 0.00420575 27352.90387625 0 -16429.29567274 0 -38750.93576956 0 15034.47464636 0 44.28254683 0 24
0.00550000 0.00557378 43888.53021158 0 -10768.28634722 0 -21425.40881991 0 -16931.94971406 0 -13627.79028159 0 45
0.00650000 0.00659388 62906.88964174 0 8393.86113803 0 -30871.92154841 0 -29268.83302589 0 3653.23816453 0 40
0.00750000 0.00754703 60825.20329185 0 -8306.81938490 0 -3466.66519924 0 -17193.93177012 0 -3391.23413932 0 57
0.00850000 0.00846663 65561.64114320 0 -5896.24394735 0 -20111.10471055 0 9376.50804744 0 -24378.06192978 0 75
0.00950000 0.00948925 70698.57651086 0 7342.83526431 0 22632.06411797 0 -35856.72058583 0 -11063.99104111 0 112
0.01050000 0.01054430 60277.62234867 0 11655.94965751 0 16739.82953961 0 -840.83058510 0 11447.24277847 0 105
0.01150000 0.01145670 60799.93877491 0 -8743.99438906 0 26374.83753361 0 24536.56931212 0 3312.29900075 0 144
0.01250000 0.01249090 77825.03766446 0 -11587.40592461 0 11394.07744718 0 19227.39584638 0 -7800.65028035 0 169
0.01350000 0.01339930 80851.06771917 0 -4071.78333360 0 19043.51410137 0 -1274.94638580 0 -6674.67666790 0 180
0.01450000 0.01448870 78231.35700425 0 8038.60907618 0 14464.04579221 0 -34319.64934452 0 -6032.60643138 0 267
0.01550000 0.01550050 74744.96351265 0 12850.30223428 0 33883.78150449 0 -15512.74293655 0 -9111.09880473 0 238
0.01650000 0.01653350 66902.63776393 0 -1291.00583091 0 52386.08571478 0 6740.49622681 0 -12802.62918928 0 315
0.01750000 0.01747870 74347.65152239 0 -3348.54809027 0 35590.01516355 0 21524.70935605 0 -34701.36324172 0 297
0.01850000 0.01844180 69342.64087142 0 -1366.78839715 0 31268.79415578 0 10862.58890283 0 -11188.55609418 0 388
0.01950000 0.01947590 72447.65000299 0 -449.15697594 0 21402.34121749 0 1108.69487978 0 -4446.67581123 0 399
0.02050000 0.02045430 75099.54551558 0 -1520.69324359 0 13072.41029188 0 1573.85857488 0 -14148.12948477 0 462
0.02150000 0.02154770 72828.04575148 0 226.23386306 0 14301.69380946 0 -6761.21313070 0 -24750.65863173 0 571
0.02250000 0.02255340 70986.15262104 0 7967.27526184 0 16987.42180560 0 -2348.98493908 0 -14737.12226658 0 510
0.02350000 0.02348930 64948.92168461 0 2671.62380494 0 18318.86184818 0 -5324.76057423 0 -10509.74246237 0 555
0.02450000 0.02439640 60404.82369916 0 -1435.28819177 0 18188.80450882 0 6979.64135648 0 -10942.94105126 0 592
0.02550000 0.02547300 65526.92989384 0 -1762.66140841 0 14054.10154347 0 13654.37294724 0 -7930.12543737 0 837
0.02650000 0.02652900 70147.26081301 0 -2770.61677305 0 13898.34030427 0 4657.08529902 0 -4252.36970683 0 723
0.02750000 0.02749970 66405.80554607 0 3326.93045143 0 8126.45270311 0 -3268.66827846 0 2648.57817167 0 826
0.02850000 0.02848090 67676.94028519 0 2377.90731869 0 16389.86105717 0 -2823.61733575 0 8139.62320564 0 831
0.02950000 0.02946900 65624.03351546 0 -2139.73981598 0 15262.95375605 0 -2459.35792438 0 1105.20178570 0 996
0.03050000 0.03053250 63973.27194794 0 3902.03873350 0 17818.51456710 0 5908.44780749 0 2197.70540549 0 1041
0.03150000 0.03150510 61864.45370377 0 3596.01952595 0 23189.20163930 0 -5679.81491378 0 12595.35030467 0 1036
0.03250000 0.03246190 58999.23779165 0 1617.81883435 0 28521.11317028 0 2491.98210495 0 2092.08874012 0 1059
0.03350000 0.03345080 55782.73524838 0 3548.99457073 0 27215.92625617 0 3770.09204765 0 11161.20450845 0 1302
0.03450000 0.03451200 50627.45564451 0 2645.60135250 0 28549.12383036 0 -2318.15124385 0 12873.91906533 0 1339
0.03550000 0.03553350 52432.77014825 0 469.61684083 0 29264.54904259 0 3530.95790256 0 11113.09208054 0 1365
0.03650000 0.03647120 49541.30110766 0 672.08228573 0 30281.72046362 0 122.25719437 0 6886.76679530 0 1308
0.03750000 0.03744890 47521.67759286 0 1318.73089211 0 26053.42893988 0 2909.07731043 0 7674.18489622 0 1579
0.03850000 0.03847530 45934.62654631 0 635.86834685 0 24618.18468640 0 885.96070155 0 5483.27894115 0 1662
0.03950000 0.03950240 46268.11816988 0 -104.93836801 0 24120.36385702 0 3672.73578086 0 9763.12106402 0 1683
0.04050000 0.04050350 44699.85074244 0 1119.05333172 0 23174.15277486 0 6479.23915253 0 1556.59082678 0 1822
0.04150000 0.04152450 45204.48200682 0 2211.60088981 0 19584.06491810 0 2873.56418728 0 9592.81625071 0 1887
0.04250000 0.04250150 41156.22762770 0 -44.93590921 0 16812.65725583 0 356.42960803 0 7405.99655665 0 1920
0.04350000 0.04349210 41861.98641605 0 -785.72208291 0 16867.25058156 0 3146.13537131 0 3769.07048240 0 2005
0.04450000 0.04448520 39230.08282556 0 2027.96080540 0 13739.72307620 0 644.45388877 0 4331.77718203 0 2151
0.04550000 0.04548030 38695.24398657 0 1220.16632234 0 12283.49828909 0 -265.40375042 0 7182.76807265 0 2274
0.04650000 0.04648670 38013.43156645 0 -762.80716605 0 13120.63256551 0 560.21979239 0 1795.60414158 0 2311
0.04750000 0.04749250 36770.85671605 0 979.88099403 0 11509.74499646 0 1648.45480728 0 890.52588991 0 2568
0.04850000 0.04851840 36158.46679464 0 519.35278856 0 11262.15273047 0 -1647.59801062 0 1715.53759204 0 2493
0.04950000 0.04949480 36455.26994578 0 268.31026833 0 11789.74175156 0 1268.37761140 0 480.15324285 0 2644
0.05050000 0.05050630 37165.20287172 0 -898.00638384 0 10801.30597240 0 1404.38858910 0 -1953.40851129 0 2829
0.05150000 0.05149060 37184.31602801 0 -300.13806738 0 8416.00603636 0 -683.62597306 0 569.12388693 0 2784
0.05250000 0.05249300 36631.02310709 0 413.95142081 0 9505.25822267 0 -104.18845124 0 -3168.56586852 0 3055
0.05350000 0.05348950 36572.80487240 0 1684.63798937 0 11320.26111943 0 -2926.38899682 0 -1131.15833071 0 3009
0.05450000 0.05448610 35426.45487782 0 463.26556096 0 12080.72307924 0 1354.52961415 0 -2894.94016552 0 3336
0.05550000 0.05550870 36191.31066665 0 -558.52487284 0 10502.97596566 0 1412.90163285 0 -4103.59465579 0 3349
0.05650000 0.05647670 34208.92485290 0 34.13587745 0 10872.21138841 0 929.94183171 0 -2522.48626301 0 3324
0.05750000 0.05747970 34860.31000697 0 1306.52703197 0 11751.29574752 0 -421.57910801 0 -225.98341480 0 3639
0.05850000 0.05849280 33238.54771106 0 903.64146958 0 11385.94886347 0 -1176.56855376 0 -759.70182738 0 3846
0.05950000 0.05951020 33090.80520984 0 200.43000361 0 13416.33725940 0 696.79757404 0 -3562.37378014 0 3787
0.06050000 0.06049470 33110.57744049 0 622.68356438 0 11914.08711318 0 -129.87060163 0 -2652.33489549 0 3930
0.06150000 0.06148310 32977.00503790 0 -447.40493661 0 12331.39102554 0 1645.40109610 0 -2026.64265669 0 4083
0.06250000 0.06249100 32444.36311343 0 -140.32461935 0 13055.38420438 0 -87.36404049 0 -858.18291440 0 4303
0.06350000 0.06350600 31767.93313387 0 983.08629231 0 11462.73102581 0 1268.72911772 0 609.46253282 0 4470
0.06450000 0.06451750 31677.42025580 0 -241.82536538 0 11029.93886610 0 1515.64034020 0 449.50848226 0 4479
0.06550000 0.06550280 31851.63557694 0 73.50755141 0 11288.40585894 0 1180.33626216 0 255.46051532 0 4636
0.06650000 0.06648880 31778.25863210 0 842.73091615 0 9469.70116122 0 636.69768208 0 1572.99079365 0 4653
0.06750000 0.06749660 30532.93763855 0 44.01232634 0 10854.31751967 0 732.65012049 0 4406.49424472 0 5220
0.06850000 0.06852730 29838.93234286 0 1047.63713309 0 9953.83521317 0 182.53283950 0 1203.23909599 0 5029
0.06950000 0.06949320 28945.77674627 0 891.58040888 0 10886.65610135 0 -1787.60737274 0 693.20561881 0 5040
0.07050000 0.07048030 27949.14647597 0 792.50285957 0 11084.20265466 0 224.56640494 0 1575.33050761 0 5475
0.07150000 0.07148790 26835.75019912 0 36.20284447 0 9958.76728626 0 127.42982960 0 546.03101999 0 5509
0.07250000 0.07249820 27105.53130172 0 -256.89180513 0 9838.23357133 0 1416.44964979 0 -438.88420366 0 5916
0.07350000 0.07351270 26917.47541913 0 147.58432337 0 9124.25832268 0 1803.73272529 0 875.65827092 0 5721
0.07450000 0.07449140 27497.79038860 0 434.06197630 0 7970.18617357 0 349.63235452 0 94.28168492 0 6028
0.07550000 0.07549160 26490.94446580 0 -58.94530354 0 7536.31752575 0 346.51712974 0 204.30645927 0 6183
0.07650000 0.07648840 25840.32823180 0 300.08094761 0 7362.94801670 0 136.95565094 0 473.01766450 0 6330
0.07750000 0.07749960 25440.70948129 0 1184.55433803 0 7620.81085805 0 -1165.32035144 0 -776.26656284 0 6583
0.07850000 0.07848650 25268.58122894 0 466.86520539 0 8105.34035461 0 1416.31783492 0 838.24042288 0 6549
0.07950000 0.07947320 24420.35253421 0 -598.74268843 0 7208.60378736 0 908.29453452 0 71.46705721 0 6828
0.08050000 0.08048110 24512.18356099 0 297.42707487 0 7141.86152436 0 475.60562980 0 327.51162226 0 7147
0.08150000 0.08149960 23932.08828297 0 699.44595449 0 6484.43485536 0 -889.81958190 0 777.46278279 0 7386
0.08250000 0.08250610 23070.12887251 0 594.36973009 0 7183.76766875 0 237.81050410 0 1256.77790275 0 7227
0.08350000 0.08350160 23051.12556195 0 480.48497694 0 7816.42412658 0 111.63511269 0 921.55840591 0 7798
0.08450000 0.08449610 21876.32552437 0 32.85507628 0 7272.75369124 0 -120.14925489 0 481.71305215 0 7371
0.08550000 0.08548940 21596.65830645 0 548.15214095 0 8835.12240320 0 395.37541012 0 1309.03151452 0 8256
0.08650000 0.08650700 21495.60023870 0 640.94981012 0 7839.29400669 0 -181.64858141 0 1883.16216963 0 8037
0.08750000 0.08749060 21409.81072684 0 -241.39147476 0 8325.18559025 0 1097.10835262 0 1282.61361746 0 8155
0.08850000 0.08849210 20978.55640730 0 -13.72269699 0 8664.11457725 0 25.13500883 0 1604.40667123 0 8718
0.08950000 0.08949900 20608.26646558 0 534.49172649 0 7639.50660058 0 95.88927712 0 1714.68079538 0 8571
0.09050000 0.09049190 20504.24256324 0 216.32138476 0 8127.57312952 0 101.16527718 0 1477.38107390 0 8932
0.09150000 0.09150830 20192.50039338 0 149.43742077 0 7752.19733069 0 175.23908330 0 1590.03885029 0 9285
0.09250000 0.09250820 19899.98122554 0 379.01938155 0 8077.18689509 0 338.63899428 0 1026.46546789 0 9204
0.09350000 0.09350330 19636.68102076 0 -41.20203330 0 7555.35379004 0 546.60441468 0 1323.49819661 0 9349
0.09450000 0.09448040 19214.43405074 0 563.61072995 0 7171.93728408 0 284.51800517 0 1303.37445964 0 9564
0.09550000 0.09549270 18798.77782426 0 250.10004390 0 7129.18532760 0 180.93348573 0 1834.56642053 0 10155
0.09650000 0.09649430 18386.30712383 0 -16.46708260 0 6805.30520504 0 633.95153893 0 1310.93184558 0 9913
0.09750000 0.09749140 17959.22694187 0 434.17731431 0 6314.37170266 0 346.08873141 0 1963.43742605 0 10476
0.09850000 0.09850240 17584.65301684 0 319.04141834 0 6768.61673262 0 471.02286612 0 2624.47801942 0 10575
0.09950000 0.09950330 17412.19522732 0 273.01386231 0 6938.42724015 0 8.22442411 0 1142.56031705 0 10882
0.10050000 0.10051200 17185.14411206 0 38.06472952 0 5455.54289539 0 805.07140752 0 2455.16181766 0 10875
0.10150000 0.10150300 17299.71320408 0 -305.54467401 0 6146.70318678 0 279.96050601 0 1599.48558271 0 11118
0.10250000 0.10250800 16907.67380866 0 98.83468041 0 5287.01758284 0 249.49918778 0 1575.08884701 0 11575
0.10350000 0.10349800 16552.32288565 0 479.27447704 0 5220.52796501 0 141.37035066 0 1815.65098654 0 11364
0.10450000 0.10450100 16872.19363922 0 449.12731759 0 5357.04423305 0 -622.50341739 0 633.73843822 0 12093
0.10550000 0.10551000 16134.25005320 0 309.98573670 0 5623.95836220 0 255.58354254 0 744.75951330 0 12067
0.10650000 0.10649700 15600.39982575 0 197.16209326 0 5340.27079072 0 -252.77478733 0 472.66615818 0 12054
0.10750000 0.10749900 15148.27481830 0 135.59246549 0 5702.03670411 0 166.63596606 0 499.34658652 0 12807
0.10850000 0.10850100 14905.40591853 0 262.90695708 0 5760.22198508 0 235.00724118 0 489.38577610 0 12736
0.10950000 0.10950300 14587.07300512 0 281.27206398 0 5345.86193816 0 -188.10311625 0 426.17725010 0 12933
0.11050000 0.11050200 14662.20748158 0 391.11998670 0 5868.94728449 0 158.71608923 0 327.44461636 0 13428
0.11150000 0.11150900 14011.59124758 0 277.32530705 0 6240.73112807 0 -271.42878848 0 518.43447829 0 13453
0.11250000 0.11250000 13987.31534218 0 -186.73773388 0 5954.27544430 0 314.17744960 0 896.63770610 0 13668
0.11350000 0.11349100 14193.38592381 0 -80.37137143 0 5688.93210902 0 429.90102020 0 343.63367943 0 13791
0.11450000 0.11448600 14148.34917622 0 64.39694691 0 5797.05325694 0 173.75506755 0 608.90122116 0 14205
0.11550000 0.11549300 14245.45279784 0 91.69580669 0 5113.08786059 0 165.39031553 0 336.69802031 0 14776
0.11650000 0.11649800 14156.69745138 0 187.03102197 0 5794.83437328 0 -133.38676331 0 464.72870603 0 14553
0.11750000 0.11747300 13891.09048637 0 63.48138279 0 5241.90394325 0 -78.19532761 0 -23.79137591 0 14568
0.11850000 0.11849100 13686.66759063 0 106.32198478 0 5656.65943478 0 129.89696460 0 -269.85579769 0 16015
0.11950000 0.11950300 13479.71824320 0 300.89819981 0 5362.77817994 0 340.27899097 0 235.05777021 0 15270
0.12050000 0.12050700 13242.01209254 0 -67.94573278 0 5129.10336741 0 315.42859242 0 360.96623651 0 15999
0.12150000 0.12150000 13375.69434085 0 32.62582825 0 5020.81745091 0 376.55114809 0 425.33802875 0 15670
0.12250000 0.12250700 13250.79975060 0 66.44842569 0 4990.34624657 0 -17.83345359 0 -226.89733124 0 16887
0.12350000 0.12352200 13195.87688769 0 148.22362550 0 4559.05897331 0 11.74898899 0 795.77955757 0 16407
0.12450000 0.12449800 13272.65905004 0 -115.11832065 0 4646.79275451 0 372.92953451 0 39.96374243 0 16306
0.12550000 0.12549900 13170.06314213 0 19.41336466 0 4295.34135477 0 261.10329026 0 465.05604629 0 17523
0.12650000 0.12650100 13096.24681438 0 94.38054608 0 4301.38286969 0 468.89625287 0 701.42866984 0 17154
0.12750000 0.12750600 13072.08075470 0 61.70704478 0 3833.87946063 0 302.97867785 0 1090.33746208 0 18007
0.12850000 0.12850300 12856.12405775 0 265.75196137 0 3934.70685235 0 497.30675139 0 1442.42816395 0 17496
0.12950000 0.12949900 12778.57297533 0 246.92660089 0 4001.32828506 0 -433.40729577 0 1463.15605241 0 18405
0.13050000 0.13049000 12399.82491272 0 39.78073945 0 4044.06925697 0 -184.08276269 0 1134.20105731 0 18100
0.13150000 0.13148800 12337.65223191 0 146.02561252 0 3883.60662071 0 224.85749611 0 666.69215597 0 19059
0.13250000 0.13249300 12030.63342826 0 243.66637974 0 4324.82394758 0 -466.12923903 0 449.68203851 0 18957
0.13350000 0.13349100 11860.81193616 0 447.35660449 0 4493.47009042 0 -432.94814064 0 79.16878043 0 19468
0.13450000 0.13450700 11570.05029993 0 -69.13481276 0 4464.24014278 0 241.90665122 0 -21.16298738 0 19953
0.13550000 0.13551000 11516.22589428 0 -158.93028839 0 4236.11253941 0 524.16073598 0 -669.54375101 0 19956
0.13650000 0.13649900 11686.15723211 0 -87.69720258 0 3485.91017040 0 299.37134422 0 -992.32212094 0 19723
0.13750000 0.13749600 11597.18219420 0 158.04053801 0 3455.16435174 0 24.61071518 0 -698.74074493 0 20946
0.13850000 0.13851100 11250.39923781 0 330.73779122 0 3232.22146663 0 -68.26208847 0 -637.12608041 0 20955
0.13950000 0.13949800 11139.45505474 0 302.17680405 0 3398.96727842 0 -193.93812121 0 -393.52341118 0 20506
0.14050000 0.14048300 11054.32461723 0 -209.96351415 0 3528.62917317 0 429.91859552 0 -691.09328550 0 21447
0.14150000 0.14148400 10886.27164131 0 20.95428050 0 3139.31395174 0 437.80551863 0 -689.26874799 0 21771
0.14250000 0.14249400 10992.26178215 0 107.75744872 0 2936.42889616 0 -44.30748181 0 -211.19818011 0 22470
0.14350000 0.14350900 10871.26671517 0 21.59116602 0 2780.50288837 0 -52.98584338 0 -422.53915966 0 22519
0.14450000 0.14449900 10874.55110237 0 295.96392980 0 3269.82165858 0 3.25645343 0 65.16169286 0 22218
0.14550000 0.14550500 10470.53852283 0 223.50199986 0 3144.27897855 0 16.88614405 0 -167.68609120 0 23559
0.14650000 0.14650700 10412.70474819 0 -24.23328526 0 3443.11427562 0 256.46560371 0 535.02777363 0 23044
0.14750000 0.14750500 10265.73116705 0 134.61813390 0 3146.82739939 0 370.44482419 0 556.59927727 0 23649
0.14850000 0.14849900 10124.77713168 0 49.04051444 0 3078.22874361 0 173.91654077 0 1166.17714810 0 23640
0.14950000 0.14949500 10055.25577182 0 168.16721548 0 3356.09449163 0 24.61104471 0 721.21737735 0 24457
0.15050000 0.15050000 9933.28307787 0 221.70712070 0 3149.46369680 0 -144.06376786 0 1261.94065186 0 24591
0.15150000 0.15149900 9620.28866674 0 -29.07759162 0 3334.30109963 0 20.19733361 0 1248.67128818 0 25020
0.15250000 0.15250500 9740.85533539 0 125.38779756 0 3339.50778703 0 129.95847821 0 485.73011035 0 25297
0.15350000 0.15350100 9539.98045660 0 158.36348445 0 3284.18947952 0 -335.39634846 0 672.67545265 0 25452
0.15450000 0.15450400 9333.20686233 0 134.08648059 0 3618.91137521 0 -284.93981276 0 305.07563276 0 26061
0.15550000 0.15549900 9102.33311581 0 165.96920250 0 3526.39930493 0 -112.03275421 0 -93.07294256 0 26128
0.15650000 0.15649500 9039.39151492 0 208.74642351 0 3544.88634059 0 342.50556383 0 15.30096038 0 26331
0.15750000 0.15749700 9113.82297873 0 -88.60134275 0 3282.22324102 0 300.52033051 0 38.97458167 0 27345
0.15850000 0.15849900 8955.57922613 0 -149.02769621 0 2901.48697078 0 328.51890756 0 -146.91096907 0 26980
0.15950000 0.15949700 8899.83252028 0 197.88817351 0 2696.64666128 0 166.51403730 0 -101.46208033 0 27777
0.16050000 0.16050000 8893.92282023 0 79.33102257 0 2494.98089326 0 11.83269143 0 36.56511567 0 28224
0.16150000 0.16150500 8812.95553573 0 -36.63069357 0 2300.07063738 0 475.37934760 0 205.92668373 0 28075
0.16250000 0.16249700 8749.23403019 0 63.57980456 0 2251.46390371 0 57.13021277 0 183.34020558 0 28590
0.16350000 0.16349900 8505.17879657 0 180.99170397 0 2002.20198269 0 -5.90818418 0 -12.25373010 0 29163
0.16450000 0.16449100 8391.91686869 0 132.81886091 0 2112.61890628 0 175.24677251 0 354.91263856 0 28996
0.16550000 0.16550500 8423.01419366 0 73.12770489 0 1995.50139342 0 -136.93258334 0 -147.06145772 0 30777
0.16650000 0.16650700 8195.21612747 0 88.55312048 0 2136.58724365 0 86.69683756 0 -11.44284895 0 29211
0.16750000 0.16749900 8128.42992618 0 41.67568807 0 2321.10609387 0 -343.70837453 0 -355.34762763 0 30922
0.16850000 0.16850800 8049.39592646 0 188.13497152 0 2119.09980410 0 -267.57540042 0 -332.12843811 0 30867
0.16950000 0.16949900 7934.96963388 0 7.81120645 0 2411.90457083 0 9.31597207 0 -560.97992481 0 30852
0.17050000 0.17049200 8028.05290193 0 -137.98161002 0 2174.28629675 0 321.61949752 0 -601.08459931 0 31257
0.17150000 0.17149500 8037.45569606 0 26.95262605 0 1812.88287425 0 465.29111614 0 -574.81828935 0 32608
0.17250000 0.17250900 8123.40997651 0 -43.38785339 0 1674.41135229 0 252.60452645 0 69.46654685 0 32361
0.17350000 0.17350400 7902.85074365 0 203.16076835 0 1675.03747293 0 15.71859383 0 -29.33342231 0 32508
0.17450000 0.17449800 7870.94056030 0 141.11990241 0 1672.60988239 0 190.74929979 0 325.21255122 0 32791
0.17550000 0.17549800 7780.54851253 0 147.40857021 0 1820.37435275 0 -108.17848739 0 476.47121412 0 33633
0.17650000 0.17650100 7680.68776319 0 -32.99128498 0 1673.13714187 0 -21.77757422 0 412.87163733 0 33984
0.17750000 0.17750300 7597.12811956 0 23.90374809 0 1790.72699136 0 262.85862496 0 718.38775145 0 34069
0.17850000 0.17849800 7702.29441746 0 25.38974106 0 1685.90121521 0 -104.48525439 0 410.81312843 0 34536
