### header ###
fiducial parameters:
Omega_m = 0.31
Omega_nu = 0
Omega_de = 0.69
Omega_k = 0
H_0 = 100
w_de = -1
zeff = 0
beta = 0
fgrowth = 0
b_1 = 2
gamma = 0.55
Lx = 3500 Ly = 3500 Lz = 3500
nx = 700 ny = 700 nz = 700
xoffset = -983.599254 yoffset = -42.9823471 zoffset = 800.977702
bins = 400 dk = 0.001
kx_ny = 0.628318531 ky_ny = 0.628318531 kz_ny = 0.628318531
############################
A(data) = 9.04897466 (not used)
A(ran) = 9.04235389 (used)
Ngal = 502292
weighted Ngal = 0
Nran = 25229228
weighted Nran = 0
SN(data) = 6757.98101
SN(ran) = 134.227514
SN(data+ran) = 6892.20853
############################
13 columns: k_central k_mean P_0(k) sigma^{lin}_{P_0(k)} P^img_1(k) sigma^{lin}_{P_1(k)} P_2(k) sigma^{lin}_{P_2(k)} P^img_3(k) sigma^{lin}_{P_3(k)} P_4(k) sigma^{lin}_{P_4(k)} N_modes
### header ###
0.00050000 0 0 0 0 0 0 0 0 0 0 0 0
0.00150000 0.00179520 91851.12854785 0 -45480.63416152 0 -77394.44241927 0 81320.98773420 0 -21436.83277539 0 3
0.00250000 0.00253879 108683.88757150 0 -3454.39543166 0 28903.48614184 0 -123466.59581430 0 13757.40823805 0 6
0.00350000 0.00331552 99285.81680808 0 16805.18774647 0 -21037.65340779 0 -39930.67886480 0 108491.54770560 0 7
0.00450000 0.00420575 85744.03572980 0 14771.83351594 0 -10693.98669828 0 -4074.84802935 0 5023.83820837 0 24
0.00550000 0.00557378 80621.70984367 0 -7528.69423238 0 13987.53503363 0 -3172.63016038 0 -28195.42059324 0 45
0.00650000 0.00659388 97501.81237515 0 9634.71141054 0 -3266.36151822 0 -24084.33445895 0 -31176.96312900 0 40
0.00750000 0.00754703 78878.01879211 0 4192.87726173 0 28714.55149344 0 -33356.08263768 0 -9867.43056525 0 57
0.00850000 0.00846663 67442.96888921 0 8362.59904447 0 16256.83788321 0 -9152.51064336 0 -11781.06393922 0 75
0.00950000 0.00948925 63778.95485897 0 -876.95445049 0 27693.86500918 0 4409.25137244 0 -9098.21390109 0 112
0.01050000 0.01054430 64702.20818443 0 1242.27826694 0 39150.99390297 0 3113.18165357 0 -42109.02945340 0 105
0.01150000 0.01145670 77564.70329428 0 -1849.18688663 0 21626.20680670 0 19880.97791497 0 -17720.42233395 0 144
0.01250000 0.01249090 79354.30985924 0 -4731.23116395 0 26821.58010049 0 -222.96155888 0 -9067.35823671 0 169
0.01350000 0.01339930 84895.14796072 0 -4958.42507865 0 14602.89078964 0 -9144.11842991 0 -12692.89330919 0 180
0.01450000 0.01448870 83516.58410176 0 751.64574185 0 16957.87330535 0 9359.17439191 0 -6956.59572320 0 267
0.01550000 0.01550050 88115.38525866 0 2709.45467291 0 26230.06086699 0 -6844.37732971 0 -15424.42697300 0 238
0.01650000 0.01653350 81554.84928446 0 4048.01271853 0 25988.72980738 0 -735.13043698 0 -11147.69348418 0 315
0.01750000 0.01747870 86134.31759362 0 4071.21213582 0 37751.88889329 0 2242.42360047 0 272.88314589 0 297
0.01850000 0.01844180 79810.16962136 0 568.70537471 0 38811.02138158 0 -1440.58275575 0 1268.56434913 0 388
0.01950000 0.01947590 74302.83446625 0 -629.75323529 0 22498.16217820 0 14576.52781544 0 11555.77035557 0 399
0.02050000 0.02045430 82665.49941816 0 -1883.34890736 0 20921.87601278 0 14691.31659892 0 20895.95242149 0 462
0.02150000 0.02154770 86886.32143254 0 -4163.76814439 0 12614.46346096 0 10632.75869071 0 4437.10824851 0 571
0.02250000 0.02255340 79408.46380206 0 8935.70813433 0 24597.97307285 0 -13456.65064077 0 6238.60012099 0 510
0.02350000 0.02348930 77086.32515837 0 9640.47831114 0 24829.52786287 0 -16220.58879369 0 2576.32165323 0 555
0.02450000 0.02439640 68328.76482216 0 2765.00365646 0 43456.39712623 0 -9728.86018213 0 9004.93291073 0 592
0.02550000 0.02547300 65696.31200305 0 3061.45530128 0 41081.20299697 0 5681.31980022 0 -4791.17397652 0 837
0.02650000 0.02652900 64479.22136103 0 -4067.62018059 0 41987.43023493 0 11634.52974098 0 -2710.70691419 0 723
0.02750000 0.02749970 62969.83124263 0 1633.97714062 0 30139.36040296 0 9907.15077970 0 -6007.04533098 0 826
0.02850000 0.02848090 66195.56082687 0 1291.65392069 0 28067.45032267 0 3630.12662382 0 1764.94619951 0 831
0.02950000 0.02946900 64732.08622186 0 773.02721238 0 27441.87891416 0 4027.28483007 0 4645.27688350 0 996
0.03050000 0.03053250 59603.71882080 0 2805.47082185 0 26556.96174701 0 -2897.37874064 0 -27.47757878 0 1041
0.03150000 0.03150510 57368.79768340 0 3818.10561440 0 26689.43569234 0 5268.40971689 0 7013.25414857 0 1036
0.03250000 0.03246190 55214.61315448 0 -2800.08838128 0 23121.53667220 0 2118.49565261 0 -1936.23962434 0 1059
0.03350000 0.03345080 56093.81834389 0 2069.29575202 0 22738.39478056 0 4445.44553910 0 -1579.02132400 0 1302
0.03450000 0.03451200 50253.98017674 0 4390.59956820 0 23533.89752690 0 -4325.97732770 0 -2840.37979351 0 1339
0.03550000 0.03553350 47432.26317205 0 3621.51471892 0 25994.66147657 0 899.00268457 0 7761.31452594 0 1365
0.03650000 0.03647120 45303.23331433 0 -1222.56095916 0 21675.74722904 0 9072.56492412 0 3557.77124423 0 1308
0.03750000 0.03744890 45459.32409071 0 -4095.56493324 0 14064.42704170 0 8973.46211029 0 3264.80170891 0 1579
0.03850000 0.03847530 48181.19133064 0 1585.22760750 0 13172.91913100 0 2085.08058282 0 69.49455751 0 1662
0.03950000 0.03950240 46659.16895377 0 3395.45221519 0 11224.58549225 0 -4808.41975547 0 7125.19792775 0 1683
0.04050000 0.04050350 42173.61874018 0 -269.36039347 0 13623.28660683 0 2725.77774777 0 6639.42717449 0 1822
0.04150000 0.04152450 43340.94926840 0 216.37081534 0 13577.04155627 0 -691.59857584 0 -1983.91266934 0 1887
0.04250000 0.04250150 44609.44771009 0 649.46285387 0 13485.54006666 0 -2589.10769571 0 784.00299731 0 1920
0.04350000 0.04349210 40937.19525042 0 1530.38163661 0 17173.61031085 0 -3077.38293153 0 1432.20152687 0 2005
0.04450000 0.04448520 40327.88100934 0 931.91795631 0 19047.46854750 0 1733.23373846 0 2608.31971316 0 2151
0.04550000 0.04548030 41866.16055363 0 -115.84989319 0 18888.08239935 0 2672.89801536 0 -2587.44902525 0 2274
0.04650000 0.04648670 40907.42705873 0 72.61142998 0 17296.30798658 0 1887.16055405 0 2181.36036149 0 2311
0.04750000 0.04749250 41280.79268077 0 -609.61411992 0 17470.30361627 0 1012.68971542 0 4669.12439057 0 2568
0.04850000 0.04851840 39369.47705161 0 705.70606240 0 13984.34950758 0 2059.80508131 0 3479.63797945 0 2493
0.04950000 0.04949480 41991.16498960 0 994.06756952 0 14338.49212760 0 3194.81899699 0 3606.68554593 0 2644
0.05050000 0.05050630 39782.49698067 0 356.58888434 0 16162.26071329 0 -1770.49340866 0 4310.42317293 0 2829
0.05150000 0.05149060 36837.20353444 0 636.14735499 0 13978.52768411 0 468.53046660 0 4317.68397540 0 2784
0.05250000 0.05249300 38229.71780057 0 1050.02188379 0 16666.23290332 0 1574.14417377 0 3441.84006520 0 3055
0.05350000 0.05348950 37467.71800061 0 92.94046861 0 13396.34533730 0 370.28115406 0 4401.08983501 0 3009
0.05450000 0.05448610 36844.01396944 0 862.94692353 0 16689.30050574 0 92.52854714 0 1887.62190610 0 3336
0.05550000 0.05550870 35830.90684026 0 1043.98146733 0 16983.13782229 0 -2488.28030399 0 3159.09716696 0 3349
0.05650000 0.05647670 35639.22604872 0 1051.73328020 0 18091.59104147 0 213.18968312 0 1832.67707404 0 3324
0.05750000 0.05747970 33903.22419796 0 -151.80349770 0 17747.11484532 0 1265.54359167 0 5059.02179435 0 3639
0.05850000 0.05849280 34511.00059889 0 -1296.08070345 0 17217.10921827 0 3379.84313755 0 3844.91895607 0 3846
0.05950000 0.05951020 36021.92855745 0 907.43554094 0 16728.95481276 0 3085.41265408 0 2700.94162916 0 3787
0.06050000 0.06049470 33740.32298658 0 1034.44905525 0 13928.10849597 0 -1642.27049292 0 6896.14762029 0 3930
0.06150000 0.06148310 34080.95458233 0 99.56021143 0 15111.14696298 0 795.04468966 0 5242.00280441 0 4083
0.06250000 0.06249100 33722.19844182 0 330.67847453 0 15458.14961082 0 790.88373357 0 1565.01599395 0 4303
0.06350000 0.06350600 32133.49970938 0 1448.32687942 0 14735.69427215 0 -1357.55037161 0 2483.18346231 0 4470
0.06450000 0.06451750 31139.50573650 0 542.35118817 0 15750.22939576 0 -2823.58438203 0 179.71529663 0 4479
0.06550000 0.06550280 30163.30677119 0 214.89558724 0 16143.91647707 0 1676.28971420 0 -477.82671037 0 4636
0.06650000 0.06648880 30270.95558249 0 -449.77540737 0 14727.45584271 0 1838.09246833 0 -1631.93401012 0 4653
0.06750000 0.06749660 30149.90559264 0 689.99812361 0 14755.02711989 0 361.80435940 0 -3836.62560378 0 5220
0.06850000 0.06852730 30614.33332138 0 891.13992752 0 13987.31534218 0 74.17980725 0 -2109.27959621 0 5029
0.06950000 0.06949320 29300.79813210 0 -135.44417376 0 13054.28574712 0 2266.40292242 0 1738.01202754 0 5040
0.07050000 0.07048030 28880.85792232 0 -55.13464547 0 11664.07824123 0 609.58665849 0 -247.43298968 0 5475
0.07150000 0.07148790 27686.94472845 0 495.59755190 0 12059.52285415 0 406.41490557 0 955.83466620 0 5509
0.07250000 0.07249820 27746.59095757 0 1060.05519239 0 12588.32017822 0 690.96476600 0 126.47856562 0 5916
0.07350000 0.07351270 26524.33756644 0 776.24569215 0 13670.30057748 0 -378.24496918 0 1949.16846627 0 5721
0.07450000 0.07449140 26422.73027007 0 242.52178728 0 13394.47795996 0 -468.26354148 0 1486.16873197 0 6028
0.07550000 0.07549160 25748.27751357 0 -115.35888279 0 12757.26290452 0 1137.02409247 0 1026.96416749 0 6183
0.07650000 0.07648840 25454.22050557 0 -251.54451520 0 13337.90741117 0 1834.53346681 0 2205.01014626 0 6330
0.07750000 0.07749960 26494.12999184 0 78.96227046 0 10767.87991803 0 1517.77134728 0 1597.64017452 0 6583
0.07850000 0.07848650 26060.78860351 0 407.73415273 0 10793.33117270 0 1465.34198235 0 3886.47359415 0 6549
0.07950000 0.07947320 26605.73324927 0 -296.87674778 0 10638.52559131 0 -123.27875962 0 2762.69689622 0 6828
0.08050000 0.08048110 25766.18236688 0 445.91982240 0 10956.19943037 0 186.46971031 0 3570.28267240 0 7147
0.08150000 0.08149960 24876.98121642 0 840.36593768 0 11008.18941239 0 -767.70299005 0 3336.28930727 0 7386
0.08250000 0.08250610 23874.08973974 0 555.38987583 0 11588.06499896 0 -782.10486316 0 3044.79170468 0 7227
0.08350000 0.08350160 23825.53792893 0 484.82717848 0 12305.68712570 0 690.09588631 0 2352.06061941 0 7798
0.08450000 0.08449610 23885.18415805 0 130.59009113 0 12076.10955875 0 466.89706066 0 -182.59325465 0 7371
0.08550000 0.08548940 22446.97406997 0 367.33069786 0 11601.24648606 0 294.54472303 0 2741.22205682 0 8256
0.08650000 0.08650700 22027.91262600 0 165.49027514 0 10287.18403730 0 1445.31710654 0 1577.48348383 0 8037
0.08750000 0.08749060 22276.38365779 0 392.15583190 0 10626.59634549 0 -19.62800321 0 2352.04963483 0 8155
0.08850000 0.08849210 21284.25706224 0 459.77136842 0 9572.89023605 0 782.19493666 0 197.81787225 0 8718
0.08950000 0.08949900 20757.98618987 0 413.79543988 0 9557.03949782 0 396.57822082 0 2870.87296700 0 8571
0.09050000 0.09049190 20349.90931847 0 286.99063246 0 8822.69885161 0 318.90191427 0 924.63738161 0 8932
0.09150000 0.09150830 20016.19800345 0 217.84384652 0 9464.80204185 0 474.74114394 0 1538.71892719 0 9285
0.09250000 0.09250820 19116.78120049 0 261.50971944 0 8006.75381569 0 717.34970934 0 2295.64385463 0 9204
0.09350000 0.09350330 19689.62666061 0 -62.24089501 0 7946.09700590 0 1110.58422626 0 2628.01505180 0 9349
0.09450000 0.09448040 19497.06710326 0 128.06473790 0 7515.76539045 0 -41.31023134 0 1749.56779789 0 9564
0.09550000 0.09549270 18967.28116766 0 535.03546283 0 8115.34730023 0 19.05581682 0 2058.44299431 0 10155
0.09650000 0.09649430 18445.29427859 0 438.35914109 0 7144.91523553 0 432.70977541 0 3119.36596793 0 9913
0.09750000 0.09749140 18226.81112995 0 -417.47197633 0 7408.94042210 0 598.65151648 0 2413.23370411 0 10476
0.09850000 0.09850240 18265.47682543 0 325.74640144 0 7156.33919102 0 745.82172147 0 1894.41037195 0 10575
0.09950000 0.09950330 17997.67294590 0 230.96491847 0 6253.15467966 0 62.88228420 0 2913.21849430 0 10882
0.10050000 0.10051200 17434.05452675 0 416.32189158 0 6278.50707318 0 -132.74526427 0 1742.32896456 0 10875
0.10150000 0.10150300 17197.55667908 0 81.30813578 0 6074.56749864 0 596.36892230 0 2450.17482170 0 11118
0.10250000 0.10250800 16864.72412986 0 105.56921202 0 5656.11020615 0 315.14738736 0 767.51185849 0 11575
0.10350000 0.10349800 16262.87939813 0 463.75986673 0 5587.79714927 0 -130.87239465 0 2095.16442045 0 11364
0.10450000 0.10450100 16358.88456249 0 295.41579963 0 5237.77374396 0 -1.54996713 0 666.53397812 0 12093
0.10550000 0.10551000 15822.72757480 0 -13.42907936 0 5692.12861964 0 155.22848743 0 416.29662706 0 12067
0.10650000 0.10649700 15633.24369777 0 247.36268842 0 5548.60419430 0 -119.50885431 0 663.57583272 0 12054
0.10750000 0.10749900 15459.24806808 0 -41.89142507 0 5321.23452643 0 136.46683746 0 969.71477211 0 12807
0.10850000 0.10850100 15773.73638108 0 50.32109592 0 5414.69126996 0 371.60479506 0 -141.25940648 0 12736
0.10950000 0.10950300 15672.56846761 0 283.00652799 0 5514.78269532 0 -431.16754142 0 880.06198607 0 12933
0.11050000 0.11050200 15021.95223362 0 475.39692292 0 5881.46969723 0 -169.37112463 0 545.94863569 0 13428
0.11150000 0.11150900 15036.78140660 0 -15.71134401 0 5755.89406348 0 516.45066448 0 990.84689284 0 13453
0.11250000 0.11250000 14895.95918611 0 -27.03490050 0 5650.80465759 0 579.34063788 0 1576.24222713 0 13668
0.11350000 0.11349100 14534.78643963 0 149.83176692 0 5844.60547165 0 100.36461168 0 1566.77352557 0 13791
0.11450000 0.11448600 14753.37943400 0 402.78230741 0 5489.66097782 0 61.71824904 0 1443.47169834 0 14205
0.11550000 0.11549300 14105.39949743 0 109.38613130 0 5496.82291915 0 -36.48514798 0 834.14537422 0 14776
0.11650000 0.11649800 14016.86384242 0 -25.87229334 0 5668.89624863 0 80.94300859 0 1411.11114752 0 14553
0.11750000 0.11747300 14226.99871590 0 -1.71520805 0 5398.18145737 0 95.99681609 0 346.56216648 0 14568
0.11850000 0.11849100 13917.45346056 0 239.96348033 0 5267.75064254 0 149.20894166 0 516.57039633 0 16015
0.11950000 0.11950300 13966.55450000 0 157.37816829 0 5591.58682681 0 -543.76600112 0 173.64522182 0 15270
0.12050000 0.12050700 13573.74618449 0 174.09009701 0 5757.70651795 0 368.10071640 0 85.53807499 0 15999
0.12150000 0.12150000 13639.43392853 0 56.04252039 0 5978.44150398 0 -142.59293359 0 411.98737924 0 15670
0.12250000 0.12250700 13509.04705199 0 62.99586468 0 5453.71945634 0 488.55314550 0 -288.58119857 0 16887
0.12350000 0.12352200 13571.32957852 0 -34.65467881 0 6044.03038686 0 -91.57739300 0 485.48625283 0 16407
0.12450000 0.12449800 13181.04771471 0 79.35826431 0 5299.22144298 0 -238.59809795 0 -0.72569579 0 16306
0.12550000 0.12549900 13607.46882232 0 85.27378618 0 5707.13354579 0 653.35688485 0 433.09094008 0 17523
0.12650000 0.12650100 13113.49259333 0 11.29719352 0 4776.37775726 0 300.65544075 0 655.34838786 0 17154
0.12750000 0.12750600 13501.35785118 0 -83.13794588 0 4735.54810097 0 1127.19290001 0 1059.84978088 0 18007
0.12850000 0.12850300 13377.67156391 0 69.92031954 0 4749.77312246 0 184.21787293 0 928.92246337 0 17496
0.12950000 0.12949900 13177.20311431 0 452.06678921 0 4216.43916992 0 -247.70540708 0 865.23391154 0 18405
0.13050000 0.13049000 12798.78458888 0 273.48949430 0 4097.44329515 0 -270.65876995 0 1148.78856970 0 18100
0.13150000 0.13148800 12602.16073967 0 -55.76592885 0 4427.48576293 0 43.53131191 0 747.37054620 0 19059
0.13250000 0.13249300 12159.70215610 0 215.28993339 0 4433.70303101 0 295.93317300 0 1012.92478527 0 18957
0.13350000 0.13349100 12072.04526690 0 255.29354982 0 4550.21639238 0 -61.45121408 0 528.04817622 0 19468
0.13450000 0.13450700 11988.01328665 0 111.45167032 0 4039.98299597 0 102.11643132 0 -73.96418009 0 19953
0.13550000 0.13551000 11705.27038841 0 88.97855297 0 3994.07846716 0 293.52865006 0 687.43652129 0 19956
0.13650000 0.13649900 11645.62415929 0 78.96446738 0 3939.25446540 0 -76.71295954 0 310.90734234 0 19723
0.13750000 0.13749600 11349.80961967 0 126.27864640 0 3947.60274057 0 471.20191465 0 800.55894510 0 20946
0.13850000 0.13851100 11288.40585894 0 119.18920325 0 3390.88263300 0 141.04630577 0 192.19596800 0 20955
0.13950000 0.13949800 11189.10532281 0 87.33020801 0 3799.97008507 0 -105.79670251 0 554.57591900 0 20506
0.14050000 0.14048300 10912.77741495 0 254.38622413 0 3467.57691876 0 -9.54318795 0 260.45959431 0 21447
0.14150000 0.14148400 11018.51491062 0 0.62829009 0 3998.40638875 0 -46.80559331 0 406.21718326 0 21771
0.14250000 0.14249400 10780.65497594 0 89.02710478 0 3650.17346878 0 103.73368994 0 -116.54851200 0 22470
0.14350000 0.14350900 10740.49537859 0 -82.47403832 0 3548.79684843 0 -2.89485229 0 -55.63158753 0 22519
0.14450000 0.14449900 10804.61232874 0 74.93258001 0 3699.30746194 0 144.37572972 0 -119.64945684 0 22218
0.14550000 0.14550500 10773.53697291 0 163.48339373 0 3443.32298250 0 -47.58297151 0 -334.05183677 0 23559
0.14650000 0.14650700 10685.42971624 0 97.96920594 0 3776.85854436 0 -301.20466938 0 -245.23827208 0 23044
0.14750000 0.14750500 10301.66170396 0 212.15933021 0 3705.21716199 0 -16.45258297 0 -166.76228864 0 23649
0.14850000 0.14849900 10497.94503142 0 96.53846536 0 3628.43499964 0 283.38110191 0 -152.63722676 0 23640
0.14950000 0.14949500 10275.15593032 0 -140.73324545 0 3568.32741848 0 354.18436140 0 -15.59963091 0 24457
0.15050000 0.15050000 10192.11256161 0 91.91396030 0 3784.93220521 0 189.03131264 0 18.05468288 0 24591
0.15150000 0.15149900 10013.09698225 0 259.87741196 0 3227.12462496 0 -96.20442451 0 442.73869018 0 25020
0.15250000 0.15250500 9934.03002881 0 72.48422863 0 3609.56350395 0 177.62383401 0 288.35711329 0 25297
0.15350000 0.15350100 9903.13042614 0 79.40406997 0 3587.45155934 0 258.56255862 0 484.64373612 0 25452
0.15450000 0.15450400 9839.04642970 0 114.16266284 0 3282.87133081 0 81.55979234 0 450.15986741 0 26061
0.15550000 0.15549900 9669.88401195 0 3.11795994 0 3471.30068887 0 166.34377643 0 803.91583048 0 26128
0.15650000 0.15649500 9478.90623305 0 173.11137160 0 2933.90244447 0 135.00259394 0 717.64519434 0 26331
0.15750000 0.15749700 9494.11986607 0 -52.55546782 0 2840.73129983 0 351.86661658 0 883.54519404 0 27345
0.15850000 0.15849900 9320.51968100 0 126.73450616 0 2840.67637697 0 -33.58675866 0 568.15175225 0 26980
0.15950000 0.15949700 9111.91166310 0 342.90759919 0 2870.86198242 0 -217.46707568 0 707.28125011 0 27777
0.16050000 0.16050000 8849.98452990 0 217.00572363 0 3167.75301015 0 -250.11432385 0 733.10488179 0 28224
0.16150000 0.16150500 8756.40695608 0 61.67716674 0 3327.55657207 0 61.35235293 0 548.95401475 0 28075
0.16250000 0.16249700 8640.84925252 0 -3.52876099 0 3267.07551543 0 278.74561228 0 417.76965824 0 28590
0.16350000 0.16349900 8598.61357095 0 -50.23464733 0 3153.20943606 0 229.43916134 0 492.36479219 0 29163
0.16450000 0.16449100 8697.27700188 0 37.69762510 0 3161.68952609 0 18.52800811 0 794.48118109 0 28996
0.16550000 0.16550500 8497.65436435 0 163.49987059 0 3004.46733873 0 -214.29582957 0 597.84524885 0 30777
0.16650000 0.16650700 8537.81396171 0 273.76191170 0 3235.11040922 0 -18.15332434 0 523.08754324 0 29211
0.16750000 0.16749900 8358.17226172 0 -23.31783098 0 3268.76713961 0 -151.30369965 0 376.98284179 0 30922
0.16850000 0.16850800 8434.92147034 0 0.36951992 0 3228.09126734 0 116.41010639 0 90.49035970 0 30867
0.16950000 0.16949900 8186.13188595 0 73.99120214 0 3326.62288340 0 -188.36235217 0 -1.95761560 0 30852
0.17050000 0.17049200 8252.53362720 0 90.58350887 0 3020.43890726 0 81.02110890 0 -41.82716532 0 31257
0.17150000 0.17149500 8123.32209993 0 -59.50903181 0 3148.47508527 0 265.12254537 0 38.05308587 0 32608
0.17250000 0.17250900 8226.33542160 0 4.73798668 0 2948.85244775 0 180.19642091 0 -317.26631141 0 32361
0.17350000 0.17350400 8326.74539956 0 13.64196038 0 2830.76829250 0 350.71982721 0 93.43631222 0 32508
0.17450000 0.17449800 8211.78086293 0 92.18187403 0 2796.56233348 0 -310.05054568 0 -224.26103382 0 32791
0.17550000 0.17549800 8155.91332678 0 227.53443645 0 2767.68389217 0 -233.70886470 0 -83.46814214 0 33633
0.17650000 0.17650100 7942.47209695 0 29.44766187 0 2932.95777123 0 210.06127684 0 -276.19499453 0 33984
0.17750000 0.17750300 7926.26985239 0 16.68984973 0 2982.43228613 0 116.09484915 0 258.46809130 0 34069
0.17850000 0.17849800 7873.30224340 0 53.21058773 0 2709.38876548 0 424.36589408 0 190.04299177 0 34536
