### header ###
fiducial parameters:
Omega_m = 0.31
Omega_nu = 0
Omega_de = 0.69
Omega_k = 0
H_0 = 100
w_de = -1
zeff = 0
beta = 0
fgrowth = 0
b_1 = 2
gamma = 0.55
Lx = 3500 Ly = 3500 Lz = 3500
nx = 700 ny = 700 nz = 700
xoffset = -983.599254 yoffset = -42.9823471 zoffset = 800.977702
bins = 400 dk = 0.001
kx_ny = 0.628318531 ky_ny = 0.628318531 kz_ny = 0.628318531
############################
A(data) = 9.18920902 (not used)
A(ran) = 9.19538038 (used)
Ngal = 510410
weighted Ngal = 0
Nran = 25229228
weighted Nran = 0
SN(data) = 6700.36278
SN(ran) = 136.499087
SN(data+ran) = 6836.86187
############################
13 columns: k_central k_mean P_0(k) sigma^{lin}_{P_0(k)} P^img_1(k) sigma^{lin}_{P_1(k)} P_2(k) sigma^{lin}_{P_2(k)} P^img_3(k) sigma^{lin}_{P_3(k)} P_4(k) sigma^{lin}_{P_4(k)} N_modes
### header ###
0.00050000 0 0 0 0 0 0 0 0 0 0 0 0
0.00150000 0.00179520 25752.01226825 0 -13210.81590640 0 -11827.08929833 0 -5417.56922797 0 -122436.24290617 0 3
0.00250000 0.00253879 42348.27344422 0 -8352.51520684 0 5870.88056926 0 -13687.10697353 0 58944.53462020 0 6
0.00350000 0.00331552 63093.29783845 0 -17898.59210122 0 -6903.27660789 0 -77657.08354969 0 -56036.03949211 0 7
0.00450000 0.00420575 58425.29387428 0 1869.20077788 0 11096.39553022 0 -42372.43950390 0 -13981.93290161 0 24
0.00550000 0.00557378 47364.70805067 0 7279.38837308 0 30675.07800776 0 -2554.16577033 0 -16568.90959025 0 45
0.00650000 0.00659388 47139.63415848 0 2118.60549834 0 54632.76034484 0 2658.85973160 0 24800.74828271 0 40
0.00750000 0.00754703 50039.78101141 0 -3287.82537304 0 32354.94869262 0 40562.62132540 0 22265.83846811 0 57
0.00850000 0.00846663 81416.11413275 0 -13069.99368591 0 44769.82246978 0 22491.57143466 0 9871.29713480 0 75
0.00950000 0.00948925 68412.79680241 0 895.62712542 0 10143.01152217 0 15764.17980294 0 8629.95255652 0 112
0.01050000 0.01054430 79348.92741867 0 4897.79023800 0 41547.38825732 0 -6946.65468501 0 28977.41231531 0 105
0.01150000 0.01145670 62861.19381980 0 9244.13296326 0 52935.31434385 0 -16465.43491653 0 35022.33245255 0 144
0.01250000 0.01249090 61930.36113926 0 12159.81200182 0 54939.12007414 0 26829.15945558 0 29731.50322302 0 169
0.01350000 0.01339930 49307.76909459 0 -1600.79274685 0 50987.52993372 0 1481.67604178 0 28533.74542875 0 180
0.01450000 0.01448870 51935.60839322 0 4377.28626623 0 61173.08470550 0 23306.07749156 0 17481.39803458 0 267
0.01550000 0.01550050 45810.06149323 0 5505.89617610 0 56953.91037701 0 6706.78457356 0 52904.22800344 0 238
0.01650000 0.01653350 49941.35924108 0 -6466.99135410 0 43559.43241704 0 17724.04724290 0 45531.05334967 0 315
0.01750000 0.01747870 56682.81112570 0 -9977.92438084 0 31692.02973734 0 30305.99636902 0 44573.52815775 0 297
0.01850000 0.01844180 64468.23678845 0 -8991.42188646 0 19053.83959960 0 13634.27117941 0 25361.84025016 0 388
0.01950000 0.01947590 77856.56338777 0 829.52855837 0 11652.21490284 0 -1408.94718672 0 16829.90303478 0 399
0.02050000 0.02045430 77604.68713848 0 4124.81685002 0 24091.03504822 0 -16998.40637818 0 23341.99704390 0 462
0.02150000 0.02154770 69386.46931602 0 5611.53481061 0 33416.93716978 0 -11715.59588663 0 20747.11146301 0 571
0.02250000 0.02255340 71033.60597459 0 1279.99928919 0 33563.03198512 0 5773.30461102 0 10352.87178134 0 510
0.02350000 0.02348930 66326.05754913 0 -4193.64618181 0 29528.06893881 0 13213.78174100 0 -4401.97958539 0 555
0.02450000 0.02439640 69546.95392144 0 295.12361000 0 30836.22168752 0 9690.50205468 0 6595.73054476 0 592
0.02550000 0.02547300 66655.04549795 0 264.40415432 0 22994.66485888 0 7936.14498314 0 10443.29678282 0 837
0.02650000 0.02652900 63979.31346286 0 2968.63566297 0 23059.03445421 0 -8536.62762787 0 3017.11058177 0 723
0.02750000 0.02749970 63324.96247419 0 5285.88617187 0 22271.22090867 0 -3162.01906327 0 -4189.63681282 0 826
0.02850000 0.02848090 59875.14760929 0 -233.93294998 0 21436.94262112 0 197.46197209 0 -3591.15336030 0 831
0.02950000 0.02946900 57106.81562734 0 -1081.18841158 0 14535.88489689 0 3304.92835255 0 -9443.64575506 0 996
0.03050000 0.03053250 58673.43536889 0 2476.28515073 0 18753.63123095 0 5063.99780573 0 -11308.83716394 0 1041
0.03150000 0.03150510 57903.52667666 0 -1595.24553770 0 9130.15703816 0 2609.70376930 0 -5449.97371709 0 1036
0.03250000 0.03246190 57498.41563986 0 -256.02402390 0 11653.97243445 0 2340.74650965 0 -8837.69279318 0 1059
0.03350000 0.03345080 56295.49509648 0 2600.08128372 0 14049.70771444 0 -6235.88693157 0 -6660.36376983 0 1302
0.03450000 0.03451200 50977.20443550 0 2827.97821107 0 16033.74121408 0 -2841.86271081 0 -2313.39492392 0 1339
0.03550000 0.03553350 51714.59879288 0 1945.47764988 0 21878.63228462 0 5051.60720785 0 5657.52721601 0 1365
0.03650000 0.03647120 52895.98957401 0 -783.20222196 0 18390.92064431 0 2643.49231456 0 -3591.55978949 0 1308
0.03750000 0.03744890 51705.37175191 0 -1385.96746088 0 20335.18999121 0 6498.28640139 0 5108.21071036 0 1579
0.03850000 0.03847530 51537.19794569 0 302.14824417 0 14463.82610076 0 -2716.14427762 0 9480.96034812 0 1662
0.03950000 0.03950240 49488.90469645 0 1871.88101359 0 18757.36598563 0 3790.97372013 0 11724.05400752 0 1683
0.04050000 0.04050350 47725.55125997 0 1794.53863804 0 17665.60931677 0 -1210.54383675 0 12404.76797039 0 1822
0.04150000 0.04152450 48201.29309847 0 1770.88885327 0 19583.51568947 0 4074.23289328 0 3953.88591608 0 1887
0.04250000 0.04250150 48342.00547323 0 478.95372752 0 17685.49139314 0 -2469.26600885 0 7394.23207941 0 1920
0.04350000 0.04349210 40018.22590827 0 1066.06485205 0 18556.67784457 0 161.48090615 0 8031.21645883 0 2005
0.04450000 0.04448520 43196.50213895 0 1623.75050355 0 17437.02036135 0 1464.49617026 0 8219.78861634 0 2151
0.04550000 0.04548030 39008.30430514 0 732.19206381 0 15612.70254704 0 2788.60950294 0 1636.00928655 0 2274
0.04650000 0.04648670 40714.64780993 0 1664.79985128 0 16708.85304493 0 -1892.30133402 0 3102.48267987 0 2311
0.04750000 0.04749250 36394.19572223 0 1020.60080459 0 17467.00824450 0 215.88200186 0 4637.49980611 0 2568
0.04850000 0.04851840 36967.59041098 0 -396.93192406 0 17031.90932455 0 2325.37909261 0 368.75649538 0 2493
0.04950000 0.04949480 38190.17333928 0 -419.04606558 0 12766.27025404 0 1378.87142699 0 -271.60454165 0 2644
0.05050000 0.05050630 36769.09918443 0 487.10867421 0 13466.86629328 0 634.74901890 0 -8.35935860 0 2829
0.05150000 0.05149060 36419.02085627 0 -66.33198922 0 12562.83596983 0 2008.80371081 0 5052.96929485 0 2784
0.05250000 0.05249300 36263.91869142 0 403.75663900 0 11281.48557822 0 -1068.31559097 0 -185.94684466 0 3055
0.05350000 0.05348950 35469.62424806 0 1089.73001522 0 12904.67586856 0 817.25329851 0 -1186.33383879 0 3009
0.05450000 0.05448610 34749.36582390 0 1509.42307212 0 13550.12935344 0 -229.14257788 0 250.72506608 0 3336
0.05550000 0.05550870 33266.00914252 0 240.37540180 0 14437.79266374 0 -623.45907520 0 2782.04072853 0 3349
0.05650000 0.05647670 33911.02324449 0 38.96074111 0 13643.16868321 0 2118.34186859 0 1263.45652288 0 3324
0.05750000 0.05747970 33994.94537902 0 -295.92438534 0 13403.92469238 0 2190.02718926 0 1419.32760781 0 3639
0.05850000 0.05849280 32692.06522514 0 -12.34830727 0 11382.65349169 0 1986.94441138 0 5842.67218687 0 3846
0.05950000 0.05951020 33946.50341393 0 194.05455768 0 13374.37619214 0 506.03399431 0 5060.98803284 0 3787
0.06050000 0.06049470 31464.97862208 0 457.67331506 0 12105.87775045 0 317.06968756 0 8439.34825309 0 3930
0.06150000 0.06148310 32939.98702830 0 353.69664638 0 12389.49941450 0 -715.16377940 0 4098.20123066 0 4083
0.06250000 0.06249100 31623.04662153 0 990.84030210 0 12834.81398694 0 2361.27667580 0 5580.62422337 0 4303
0.06350000 0.06350600 32578.59459038 0 87.78738592 0 13757.18854660 0 -878.52085054 0 5250.94424649 0 4470
0.06450000 0.06451750 31655.89049354 0 303.86073903 0 13477.30163723 0 35.73490168 0 6110.28932867 0 4479
0.06550000 0.06550280 31000.33120189 0 1026.12714306 0 13716.65547377 0 -826.26833723 0 2306.06821401 0 4636
0.06650000 0.06648880 30141.88685466 0 267.83573479 0 14850.59290135 0 -828.60695273 0 2162.86234127 0 4653
0.06750000 0.06749660 28905.02398200 0 424.89535048 0 15008.11167216 0 -913.78462390 0 2575.35501084 0 5220
0.06850000 0.06852730 28585.81230278 0 1179.84195639 0 15471.44094364 0 1255.50369233 0 675.81044967 0 5029
0.06950000 0.06949320 28139.61896453 0 -212.37023400 0 13854.84139685 0 825.05893579 0 432.55599139 0 5040
0.07050000 0.07048030 28385.56354463 0 -408.40750703 0 12977.61343050 0 1632.21960901 0 -756.17138576 0 5475
0.07150000 0.07148790 27763.72689080 0 764.23845586 0 13420.84093416 0 -1017.46910295 0 -2202.72535516 0 5509
0.07250000 0.07249820 27409.36457932 0 1155.41226697 0 12596.99799056 0 -940.27941296 0 -2158.56737339 0 5916
0.07350000 0.07351270 26531.03815572 0 -28.19772735 0 12400.15444990 0 824.51959327 0 -1956.31942302 0 5721
0.07450000 0.07449140 25876.35762987 0 -696.65916842 0 11901.12531753 0 717.20690990 0 -2935.74785266 0 6028
0.07550000 0.07549160 26858.81780155 0 -219.88368165 0 11079.03990554 0 2666.65877814 0 -3812.31674465 0 6183
0.07650000 0.07648840 26509.39854773 0 268.27511770 0 9445.61199355 0 1619.91688772 0 -657.94623928 0 6330
0.07750000 0.07749960 27140.90162543 0 552.77444910 0 8653.99778590 0 -973.18479859 0 -1554.87723346 0 6583
0.07850000 0.07848650 25528.80575340 0 659.20726821 0 10124.79910083 0 -1213.15816503 0 -1751.96243472 0 6549
0.07950000 0.07947320 24659.48667931 0 806.83662833 0 11107.92933143 0 -154.06631965 0 -983.96945195 0 6828
0.08050000 0.08048110 23716.79066038 0 448.64619331 0 10924.20137044 0 168.82299446 0 -526.22034334 0 7147
0.08150000 0.08149960 24376.41424389 0 -197.93430871 0 11430.32653669 0 1708.85897191 0 -1760.50843218 0 7386
0.08250000 0.08250610 24229.22097130 0 182.11762266 0 10433.45460579 0 1188.44287672 0 1303.20969105 0 7227
0.08350000 0.08350160 23895.61950200 0 118.60592245 0 10149.39355884 0 -362.84899225 0 930.41746370 0 7798
0.08450000 0.08449610 22821.43814927 0 218.79401205 0 9708.93416747 0 607.75772715 0 382.12032639 0 7371
0.08550000 0.08548940 23031.57302275 0 641.74289626 0 10105.88366684 0 685.74379865 0 2382.23524029 0 8256
0.08650000 0.08650700 22476.19303304 0 205.89153309 0 9281.65626320 0 1222.06665339 0 1419.19579294 0 8037
0.08750000 0.08749060 22545.61553176 0 -254.02702860 0 8210.69339024 0 2333.98001294 0 3405.49211453 0 8155
0.08850000 0.08849210 22756.07994241 0 -366.23443752 0 6777.06386893 0 1168.69261522 0 2921.24821685 0 8718
0.08950000 0.08949900 22183.89355665 0 825.91573245 0 5535.98292040 0 -135.54852720 0 2929.94799834 0 8571
0.09050000 0.09049190 20794.56481656 0 776.92783411 0 6751.08535478 0 -1142.39554846 0 2626.13668988 0 8932
0.09150000 0.09150830 20570.80907308 0 632.46312935 0 6910.55937951 0 -338.71808320 0 1897.48605227 0 9285
0.09250000 0.09250820 20062.00367111 0 24.15782125 0 6958.52900797 0 631.28558316 0 435.12857829 0 9204
0.09350000 0.09350330 19646.56713609 0 -52.58358833 0 5915.64270253 0 -167.07864433 0 44.88845585 0 9349
0.09450000 0.09448040 19495.96864600 0 702.28436804 0 6924.00449635 0 -696.03524470 0 -847.20383411 0 9564
0.09550000 0.09549270 18403.77259423 0 652.23096616 0 6900.45357274 0 -526.16432202 0 -382.06540352 0 10155
0.09650000 0.09649430 18282.50291294 0 195.47815829 0 7546.39037881 0 434.70347533 0 -739.36608816 0 9913
0.09750000 0.09749140 17595.74743515 0 62.52759235 0 6924.45486383 0 541.84919321 0 -1009.57229372 0 10476
0.09850000 0.09850240 17727.45246040 0 90.00868619 0 5769.67970207 0 1207.11665011 0 -1154.61039317 0 10575
0.09950000 0.09950330 17600.47080136 0 56.82681887 0 6354.15782455 0 459.95481078 0 127.07283099 0 10882
0.10050000 0.10051200 17318.71651465 0 365.45013904 0 5525.08622440 0 321.42946442 0 660.64954259 0 10875
0.10150000 0.10150300 16875.59885672 0 85.45975499 0 5759.04663581 0 -413.41427521 0 -404.74634899 0 11118
0.10250000 0.10250800 16551.55396557 0 453.04990846 0 5127.97195644 0 -21.84260289 0 -5.77179972 0 11575
0.10350000 0.10349800 16601.53377081 0 182.46363669 0 5892.94857558 0 122.30003421 0 -81.92261277 0 11364
0.10450000 0.10450100 16233.66043506 0 -27.15012867 0 5500.05238349 0 505.03659512 0 -404.54313440 0 12093
0.10550000 0.10551000 16227.83861160 0 22.95643855 0 5618.45509134 0 52.83425628 0 -492.64160341 0 12067
0.10650000 0.10649700 15720.90058697 0 255.42316778 0 5451.41269610 0 -369.90108785 0 127.12116311 0 12054
0.10750000 0.10749900 15632.80431486 0 315.73616045 0 5715.67954326 0 511.73828285 0 61.75405875 0 12807
0.10850000 0.10850100 15756.16106495 0 -18.29041181 0 5424.67624643 0 438.75129033 0 -24.73407193 0 12736
0.10950000 0.10950300 15614.78961583 0 62.00637438 0 5573.81378837 0 826.81646740 0 1049.32985572 0 12933
0.11050000 0.11050200 15438.04784300 0 86.28129117 0 4636.87368547 0 326.73281606 0 1814.31086869 0 13428
0.11150000 0.11150900 15347.20542775 0 233.33648769 0 5515.02435591 0 89.21933480 0 1707.92528324 0 13453
0.11250000 0.11250000 14947.58667724 0 418.09480159 0 5390.86573203 0 -635.32241359 0 1650.57482979 0 13668
0.11350000 0.11349100 14696.91873093 0 196.07791595 0 6223.82587087 0 -459.97897684 0 1699.23648633 0 13791
0.11450000 0.11448600 14344.75333398 0 345.11439982 0 6397.78854684 0 -602.06112781 0 1250.98903300 0 14205
0.11550000 0.11549300 13818.81199878 0 125.11647862 0 6544.23486850 0 -46.85381558 0 428.49938874 0 14776
0.11650000 0.11649800 13938.54383992 0 197.29500659 0 7148.59506735 0 -119.55718643 0 350.45729592 0 14553
0.11750000 0.11747300 13872.41671298 0 92.06203234 0 6891.44622322 0 98.28556163 0 -183.41929451 0 14568
0.11850000 0.11849100 14037.18530170 0 -97.57628778 0 6272.21291309 0 590.66023993 0 -172.85103723 0 16015
0.11950000 0.11950300 13988.74333661 0 -329.05275779 0 5778.13782296 0 580.84552433 0 -250.33950759 0 15270
0.12050000 0.12050700 13943.59674331 0 189.47948320 0 6133.43382310 0 -110.83543580 0 -574.20205483 0 15999
0.12150000 0.12150000 13689.08419660 0 376.48963448 0 5655.72574611 0 85.23380233 0 -6.06297877 0 15670
0.12250000 0.12250700 13271.67043850 0 162.58046186 0 5484.69595102 0 807.11343956 0 260.09490650 0 16887
0.12350000 0.12352200 13708.41704434 0 3.70128469 0 5364.71146471 0 324.92695233 0 -24.32280953 0 16407
0.12450000 0.12449800 13266.72738084 0 86.47714610 0 4935.58815225 0 143.68589856 0 0.49147284 0 16306
0.12550000 0.12549900 13021.33202938 0 147.75458425 0 4765.27235438 0 -89.51185397 0 300.01833554 0 17523
0.12650000 0.12650100 12777.80405525 0 28.75332703 0 4715.53420973 0 538.63400881 0 1215.10243438 0 17154
0.12750000 0.12750600 12965.20086349 0 -344.79694567 0 4070.86062950 0 878.31434057 0 784.09636617 0 18007
0.12850000 0.12850300 13182.36586342 0 99.88480555 0 3866.97597782 0 131.67646536 0 -136.04612833 0 17496
0.12950000 0.12949900 12952.45875929 0 495.29218078 0 3526.84967241 0 -301.60340937 0 530.56144642 0 18405
0.13050000 0.13049000 12734.30514783 0 -3.42036523 0 3759.96427173 0 -60.24917231 0 822.06344284 0 18100
0.13150000 0.13148800 12301.18345094 0 -65.35282442 0 3606.87228366 0 471.54683023 0 -166.27457362 0 19059
0.13250000 0.13249300 12599.85397943 0 290.76273469 0 3342.92398911 0 136.77111012 0 93.79210252 0 18957
0.13350000 0.13349100 12169.25873424 0 363.54980798 0 3612.99069059 0 -274.69010808 0 154.66827423 0 19468
0.13450000 0.13450700 11776.45041873 0 279.43873881 0 3783.48224163 0 -556.66738162 0 -83.72078731 0 19953
0.13550000 0.13551000 11305.87132935 0 101.14133081 0 4030.94269274 0 0.07661465 0 -315.24844543 0 19956
0.13650000 0.13649900 11483.60171371 0 108.78197980 0 3649.83294703 0 526.69817225 0 -404.33442752 0 19723
0.13750000 0.13749600 11344.97640774 0 -119.62638924 0 3600.52320071 0 517.69631502 0 417.25997407 0 20946
0.13850000 0.13851100 11541.92979412 0 -226.15147876 0 2761.65336182 0 632.21597646 0 294.06689412 0 20955
0.13950000 0.13949800 11562.36109912 0 23.11285886 0 2452.20696763 0 344.05548702 0 392.81161088 0 20506
0.14050000 0.14048300 11503.04440718 0 117.86006997 0 2644.90932443 0 -127.23869804 0 867.13534106 0 21447
0.14150000 0.14148400 11244.90695152 0 345.57245649 0 2867.18215061 0 -191.38530654 0 879.27219530 0 21771
0.14250000 0.14249400 10992.92085651 0 343.66553469 0 3318.82383686 0 -532.27943357 0 622.14751723 0 22470
0.14350000 0.14350900 10835.14944052 0 12.72661595 0 3169.94992467 0 239.19346179 0 471.36119095 0 22519
0.14450000 0.14449900 10689.87846813 0 -5.75058851 0 3437.29245215 0 279.84956183 0 846.23060098 0 22218
0.14550000 0.14550500 10933.01099765 0 -141.49777171 0 3016.13295481 0 326.46589095 0 929.42445834 0 23559
0.14650000 0.14650700 10913.88685678 0 -5.44309737 0 2773.98903683 0 188.41947195 0 491.00490210 0 23044
0.14750000 0.14750500 10977.12504113 0 179.99650169 0 2839.01770651 0 64.40639364 0 692.33673911 0 23649
0.14850000 0.14849900 10708.85980955 0 23.55257130 0 2445.35259434 0 -122.48237811 0 783.11764076 0 23640
0.14950000 0.14949500 10554.83413282 0 212.51413190 0 2901.35515591 0 -162.64527084 0 404.58048194 0 24457
0.15050000 0.15050000 10400.44596519 0 234.35475757 0 2621.22658594 0 289.22599298 0 945.46522968 0 24591
0.15150000 0.15149900 10351.46575604 0 134.98282171 0 2969.45950591 0 1.29880488 0 444.32376400 0 25020
0.15250000 0.15250500 10095.07484742 0 64.48075920 0 2867.92910155 0 -94.51708431 0 503.55697319 0 25297
0.15350000 0.15350100 9589.54284809 0 280.51852230 0 3032.84048971 0 -434.60571264 0 242.07801055 0 25452
0.15450000 0.15450400 9541.07891386 0 264.87978631 0 2977.53316676 0 32.54366365 0 348.84036684 0 26061
0.15550000 0.15549900 9457.66206967 0 -155.05712810 0 2991.85704941 0 375.93161819 0 186.24782195 0 26128
0.15650000 0.15649500 9455.79469233 0 56.86943901 0 2800.67056363 0 141.78446905 0 -343.63587635 0 26331
0.15750000 0.15749700 9417.75511749 0 170.76506689 0 2749.75706972 0 -34.52198517 0 173.25087567 0 27345
0.15850000 0.15849900 9210.86069292 0 82.87870997 0 2687.06811399 0 -144.17581050 0 271.24864149 0 26980
0.15950000 0.15949700 9162.83614159 0 75.80167939 0 2789.45531502 0 229.41829065 0 -82.44163383 0 27777
0.16050000 0.16050000 9008.42600481 0 164.14796037 0 2913.37227831 0 -224.84541308 0 -304.71973261 0 28224
0.16150000 0.16150500 8874.65587992 0 59.36359606 0 2818.37769463 0 151.48274818 0 124.06415656 0 28075
0.16250000 0.16249700 8848.77622692 0 -42.39331019 0 2707.57631100 0 99.12697989 0 179.28470139 0 28590
0.16350000 0.16349900 8865.26407036 0 -96.59646390 0 2524.18887176 0 519.94266011 0 284.89148064 0 29163
0.16450000 0.16449100 9168.27350502 0 114.72836833 0 2432.45670613 0 180.68743131 0 -13.77179803 0 28996
0.16550000 0.16550500 8726.88042498 0 129.02478954 0 2195.71719786 0 -70.74251480 0 168.03979443 0 30777
0.16650000 0.16650700 8895.41672210 0 30.57896300 0 2357.87145830 0 -230.87704189 0 426.33213257 0 29211
0.16750000 0.16749900 8458.96669972 0 28.81407172 0 2246.33410831 0 199.12503638 0 346.50284979 0 30922
0.16850000 0.16850800 8730.57124137 0 146.14973819 0 2462.69723445 0 15.04106539 0 42.38177639 0 30867
0.16950000 0.16949900 8536.56172044 0 93.23430593 0 2133.87405422 0 -193.24499468 0 -165.56387178 0 30852
0.17050000 0.17049200 8415.84126777 0 150.62814844 0 2562.68979865 0 125.35045001 0 254.46091922 0 31257
0.17150000 0.17149500 8262.70534141 0 71.27603549 0 2158.39162023 0 113.93088836 0 324.12837390 0 32608
0.17250000 0.17250900 8232.71745827 0 -39.14703946 0 2501.37391451 0 210.31941430 0 65.80549865 0 32361
0.17350000 0.17350400 8176.99272156 0 126.14024078 0 2147.83544598 0 265.36969825 0 592.24421530 0 32508
0.17450000 0.17449800 8097.96970641 0 78.26233350 0 2178.18582002 0 -51.24621662 0 784.48412158 0 32791
0.17550000 0.17549800 8011.88361109 0 94.39823124 0 2170.92501754 0 101.29269822 0 768.95852670 0 33633
0.17650000 0.17650100 7934.34351324 0 61.96122779 0 2007.44162381 0 58.81788250 0 619.25967310 0 33984
0.17750000 0.17750300 7954.23657418 0 98.69385819 0 2137.77357749 0 137.74544171 0 492.29449092 0 34069
0.17850000 0.17849800 7665.40822273 0 98.40573285 0 1914.79773866 0 -11.57993642 0 1033.64168916 0 34536
