### header ###
fiducial parameters:
Omega_m = 0.31
Omega_nu = 0
Omega_de = 0.69
Omega_k = 0
H_0 = 100
w_de = -1
zeff = 0
beta = 0
fgrowth = 0
b_1 = 2
gamma = 0.55
Lx = 3500 Ly = 3500 Lz = 3500
nx = 700 ny = 700 nz = 700
xoffset = -983.599254 yoffset = -42.9823471 zoffset = 800.977702
bins = 400 dk = 0.001
kx_ny = 0.628318531 ky_ny = 0.628318531 kz_ny = 0.628318531
############################
A(data) = 9.09718656 (not used)
A(ran) = 9.08790024 (used)
Ngal = 504532
weighted Ngal = 0
Nran = 25229228
weighted Nran = 0
SN(data) = 6743.32181
SN(ran) = 134.903618
SN(data+ran) = 6878.22543
############################
13 columns: k_central k_mean P_0(k) sigma^{lin}_{P_0(k)} P^img_1(k) sigma^{lin}_{P_1(k)} P_2(k) sigma^{lin}_{P_2(k)} P^img_3(k) sigma^{lin}_{P_3(k)} P_4(k) sigma^{lin}_{P_4(k)} N_modes
### header ###
0.00050000 0 0 0 0 0 0 0 0 0 0 0 0
0.00150000 0.00179520 -1617.84080350 0 -5110.06710313 0 -19185.65447057 0 19895.03816788 0 4853.24779618 0 3
0.00250000 0.00253879 2657.01432341 0 -6068.95438205 0 -4821.83191860 0 1506.44625295 0 -5618.07063130 0 6
0.00350000 0.00331552 29272.67762630 0 -33615.86777923 0 -29214.89877452 0 -30576.32670025 0 -52996.82795030 0 7
0.00450000 0.00420575 30223.28253749 0 -19860.43676425 0 -36755.14877726 0 3456.60333075 0 -6317.31556811 0 24
0.00550000 0.00557378 43883.03792529 0 -7975.60156785 0 -31841.74946162 0 -23001.91467678 0 -13644.37698619 0 45
0.00650000 0.00659388 64398.04536966 0 -7798.40942754 0 -58809.42437745 0 -24965.51687143 0 -16381.51278201 0 40
0.00750000 0.00754703 81821.22516955 0 -280.70196466 0 -18252.95441269 0 -33922.55704570 0 -31418.73357151 0 57
0.00850000 0.00846663 71718.27438359 0 7488.95204878 0 -23002.02452251 0 -31375.34450982 0 -11319.49219935 0 75
0.00950000 0.00948925 53667.10656922 0 -2459.20414037 0 -13127.88238341 0 2496.94713176 0 -92.19472598 0 112
0.01050000 0.01054430 61152.87309195 0 -7323.21681768 0 -17718.77464806 0 14103.42227436 0 -13271.78028423 0 105
0.01150000 0.01145670 80565.13929488 0 -8167.60091200 0 -19989.72518353 0 1401.68638424 0 -31998.82884953 0 144
0.01250000 0.01249090 71553.28610342 0 5870.08968003 0 -25915.24301681 0 -12658.07221411 0 -3778.38539995 0 169
0.01350000 0.01339930 68603.92836533 0 2197.27700716 0 -17325.74664110 0 -12332.48948280 0 -3273.63330526 0 180
0.01450000 0.01448870 72872.86280761 0 -2803.92199711 0 -20308.71717129 0 -299.87663456 0 -10081.57480772 0 267
0.01550000 0.01550050 75666.45930650 0 853.85609126 0 -10768.96739072 0 -7952.87448718 0 -8567.54919969 0 238
0.01650000 0.01653350 64999.67040994 0 3795.73004006 0 -7020.32821332 0 -15318.64553904 0 -10951.56394074 0 315
0.01750000 0.01747870 68635.78362581 0 5944.83969645 0 5461.13404283 0 -13349.11167520 0 -17522.37049031 0 297
0.01850000 0.01844180 62601.29883253 0 -844.77953894 0 10984.79227279 0 110.19503522 0 -12937.08035768 0 388
0.01950000 0.01947590 63067.04470998 0 -2398.44846942 0 20640.23157180 0 -5817.86902198 0 -11560.38387606 0 399
0.02050000 0.02045430 65413.67895053 0 5650.82662674 0 19840.11530497 0 -6862.13938357 0 -19022.42372202 0 462
0.02150000 0.02154770 64254.91638892 0 2247.09204382 0 38838.04343013 0 -11709.33468026 0 -11226.23317813 0 571
0.02250000 0.02255340 60834.32048709 0 -371.77505593 0 33537.10839382 0 13780.03645757 0 -6512.40157716 0 510
0.02350000 0.02348930 67495.03576324 0 -4155.38691551 0 32216.65292382 0 12141.90714851 0 -9067.11657612 0 555
0.02450000 0.02439640 74612.16003014 0 -2531.09816791 0 33323.23876567 0 7369.90125115 0 4680.99871353 0 592
0.02550000 0.02547300 69285.63093973 0 1135.90366606 0 27569.40980183 0 4168.45855689 0 8237.67150050 0 837
0.02650000 0.02652900 69917.46355460 0 2138.52052843 0 32293.21539471 0 -4916.91437886 0 18473.41478440 0 723
0.02750000 0.02749970 66156.23605703 0 3366.76051161 0 31222.21956803 0 -77.95004210 0 1297.35491386 0 826
0.02850000 0.02848090 62371.61141985 0 2038.04464302 0 38920.42772449 0 8822.57802131 0 23000.92606525 0 831
0.02950000 0.02946900 60778.51885838 0 4313.66362184 0 34431.58213912 0 -349.88170432 0 8615.29913670 0 996
0.03050000 0.03053250 58822.38617309 0 1395.08465612 0 36517.77216377 0 3714.79570928 0 11668.69176171 0 1041
0.03150000 0.03150510 56764.64619143 0 -2488.99430121 0 39593.12294937 0 6381.84993203 0 19020.11696177 0 1036
0.03250000 0.03246190 55740.33479822 0 2488.86248634 0 32203.25174527 0 589.06308308 0 11352.33607137 0 1059
0.03350000 0.03345080 58557.54812816 0 1344.97303600 0 32006.95743324 0 3868.57972542 0 10576.81426255 0 1302
0.03450000 0.03451200 57199.30572847 0 -1763.92463426 0 34850.20420020 0 3021.15290448 0 7730.68953758 0 1339
0.03550000 0.03553350 55116.85045850 0 2822.57380136 0 31355.35258772 0 -989.55730402 0 12150.03573222 0 1365
0.03650000 0.03647120 54443.16662209 0 1861.32483934 0 31690.71158863 0 -344.79804413 0 6056.57476875 0 1308
0.03750000 0.03744890 54442.83708491 0 -401.70801621 0 31509.35629531 0 4890.78208069 0 3193.89629290 0 1579
0.03850000 0.03847530 50908.11147396 0 1393.68961540 0 30046.76045610 0 2405.05019754 0 9605.50343205 0 1662
0.03950000 0.03950240 53406.44266186 0 -66.46138748 0 28103.69941219 0 795.36214381 0 2514.46752502 0 1683
0.04050000 0.04050350 48033.44882942 0 636.22534545 0 27064.11946309 0 4361.89688004 0 11702.52424526 0 1822
0.04150000 0.04152450 53021.10385571 0 1454.15968746 0 24854.90222553 0 3474.12372402 0 -1395.58994646 0 1887
0.04250000 0.04250150 47291.44095155 0 723.98768655 0 22344.92739069 0 -487.81827759 0 5397.64321331 0 1920
0.04350000 0.04349210 45998.88629591 0 3055.22704863 0 22283.96301287 0 3219.92972991 0 2979.89484987 0 2005
0.04450000 0.04448520 44244.65005467 0 538.24515494 0 22949.62811130 0 1836.11524526 0 10057.21102574 0 2151
0.04550000 0.04548030 42394.07911189 0 680.91717746 0 21579.96175613 0 1518.26565305 0 2734.76312814 0 2274
0.04650000 0.04648670 41709.74024007 0 335.46884663 0 17504.24594555 0 3554.32208844 0 6571.48759307 0 2311
0.04750000 0.04749250 41435.56530844 0 -594.38950232 0 14375.29044575 0 5464.82485922 0 4274.73429661 0 2568
0.04850000 0.04851840 42271.05189898 0 -951.06736170 0 12180.79253545 0 1434.82683972 0 5801.24936367 0 2493
0.04950000 0.04949480 41193.24563730 0 839.06865966 0 12336.44392893 0 -78.21641799 0 4113.88720030 0 2644
0.05050000 0.05050630 39257.54425701 0 2069.80104236 0 8909.74060474 0 -2587.17441094 0 3029.39133392 0 2829
0.05150000 0.05149060 38537.94490721 0 1281.60303678 0 15635.44061228 0 -50.31823993 0 644.91304391 0 2784
0.05250000 0.05249300 38395.80453800 0 673.34770849 0 13153.91582043 0 -1245.83726846 0 1255.65747635 0 3055
0.05350000 0.05348950 37206.06548172 0 253.49757220 0 12487.37195620 0 838.60071686 0 921.69131924 0 3009
0.05450000 0.05448610 35693.70952872 0 449.36019053 0 14367.16186204 0 -274.22106684 0 -2129.83173151 0 3336
0.05550000 0.05550870 35083.73621328 0 1240.46581247 0 12394.99170079 0 1400.81860301 0 27.29710225 0 3349
0.05650000 0.05647670 34884.36622093 0 870.33295014 0 13857.58753999 0 1528.86576559 0 963.44367962 0 3324
0.05750000 0.05747970 34211.01192169 0 169.34366320 0 14832.79789377 0 -172.51271239 0 1841.56359326 0 3639
0.05850000 0.05849280 32485.55526061 0 306.05875200 0 14861.02824530 0 -338.67084954 0 1615.00678377 0 3846
0.05950000 0.05951020 32515.54314376 0 414.70606095 0 14803.68877642 0 1365.71190904 0 1284.12948848 0 3787
0.06050000 0.06049470 32149.86672253 0 318.74703179 0 14092.43770178 0 -577.82147150 0 678.20618495 0 3930
0.06150000 0.06148310 32393.50454238 0 403.63580870 0 14304.87933551 0 988.39843161 0 780.61865049 0 4083
0.06250000 0.06249100 32388.67133045 0 282.56165280 0 15051.39088813 0 594.78055310 0 893.39396181 0 4303
0.06350000 0.06350600 31909.30458300 0 125.21094594 0 15354.45524565 0 -376.31168441 0 3279.82860420 0 4470
0.06450000 0.06451750 32034.52871042 0 -629.00738281 0 13931.07433056 0 2964.85697000 0 572.88390612 0 4479
0.06550000 0.06550280 32085.16759002 0 -202.21389819 0 13465.21860739 0 825.17427380 0 1859.69912259 0 4636
0.06650000 0.06648880 32159.53314640 0 979.99303667 0 12079.84431343 0 888.32348311 0 1438.67144012 0 4653
0.06750000 0.06749660 30760.09859954 0 1079.32542807 0 13957.76684194 0 -1475.92012575 0 4400.63946754 0 5220
0.06850000 0.06852730 30149.79574692 0 266.43630025 0 12410.80948530 0 1017.29994053 0 604.15698426 0 5029
0.06950000 0.06949320 30222.84315458 0 174.93481064 0 12903.57741130 0 1281.17463845 0 323.07824876 0 5040
0.07050000 0.07048030 29433.93115179 0 14.66758992 0 12515.05307910 0 1204.50232183 0 2097.74579500 0 5475
0.07150000 0.07148790 28725.31637457 0 452.93566890 0 12161.89907061 0 -1552.31782805 0 1219.77087772 0 5509
0.07250000 0.07249820 28390.94598519 0 1177.78784132 0 11853.12273535 0 261.84365045 0 846.45688317 0 5916
0.07350000 0.07351270 27317.20401537 0 528.04378239 0 12760.99765920 0 -318.24723374 0 322.73113627 0 5721
0.07450000 0.07449140 26865.62823655 0 21.71320462 0 11900.46624318 0 1224.73590453 0 1100.47841949 0 6028
0.07550000 0.07549160 26520.82250322 0 160.83391482 0 12221.10591683 0 2677.99485704 0 782.61235042 0 6183
0.07650000 0.07648840 25948.30658028 0 334.20122696 0 10573.49692163 0 792.32271258 0 3184.42759133 0 6330
0.07750000 0.07749960 25918.86792576 0 189.60800270 0 9767.26224788 0 1265.90608256 0 2786.34668098 0 6583
0.07850000 0.07848650 25064.26817893 0 285.94160578 0 8761.66856635 0 471.34141872 0 1852.52619670 0 6549
0.07950000 0.07947320 24912.35154013 0 507.83985804 0 8419.87260591 0 269.64050007 0 2595.12724149 0 6828
0.08050000 0.08048110 23535.54521279 0 686.82028676 0 8261.26636240 0 -586.88594079 0 1975.99279251 0 7147
0.08150000 0.08149960 23404.71895334 0 455.65544908 0 7790.24789012 0 684.97707548 0 720.12111700 0 7386
0.08250000 0.08250610 22815.50648008 0 33.24173324 0 7064.53013338 0 1140.93460031 0 386.34938683 0 7227
0.08350000 0.08350160 22025.49602003 0 -362.93247500 0 6246.27833723 0 975.53989095 0 602.19953343 0 7798
0.08450000 0.08449610 22153.24659915 0 636.93494884 0 5007.00984317 0 197.60696845 0 -801.62554710 0 7371
0.08550000 0.08548940 22113.15290923 0 485.80260853 0 5512.98122541 0 -1319.92821052 0 -1037.74991931 0 8256
0.08650000 0.08650700 20803.79185753 0 595.70106029 0 6181.95268019 0 -798.17639131 0 -1178.43593110 0 8037
0.08750000 0.08749060 21094.22395658 0 -60.45502320 0 6230.59236758 0 589.00156947 0 -1155.35734411 0 8155
0.08850000 0.08849210 20489.96261888 0 -171.62076510 0 5541.82671301 0 736.66058794 0 -2521.54158977 0 8718
0.08950000 0.08949900 20315.19806911 0 832.75472734 0 5982.16527408 0 -413.66142810 0 -628.87227257 0 8571
0.09050000 0.09049190 19764.54144561 0 492.28350635 0 6397.53590167 0 360.18193803 0 -722.23015494 0 8932
0.09150000 0.09150830 19483.33638753 0 245.65678429 0 6612.96533914 0 23.15756607 0 -203.11023932 0 9285
0.09250000 0.09250820 18864.57541402 0 493.19852124 0 6798.23114029 0 377.43430772 0 396.30250805 0 9204
0.09350000 0.09350330 19004.07948580 0 -12.52757549 0 6435.92698284 0 745.75251866 0 657.72435091 0 9349
0.09450000 0.09448040 18297.77146882 0 -25.27956580 0 6395.69049348 0 73.34234344 0 1789.69444153 0 9564
0.09550000 0.09549270 17924.84522969 0 320.45403437 0 6371.82101726 0 803.08319988 0 1629.62724988 0 10155
0.09650000 0.09649430 18361.92137270 0 77.01294821 0 5832.46751894 0 134.62911847 0 1673.34584875 0 9913
0.09750000 0.09749140 17838.94587210 0 -0.99862287 0 5690.44798004 0 798.61138038 0 1242.21235951 0 10476
0.09850000 0.09850240 17682.19602137 0 246.90573020 0 5588.35736247 0 344.67501691 0 3099.93425904 0 10575
0.09950000 0.09950330 17709.43776137 0 115.15896357 0 5110.39664031 0 -158.07788556 0 2416.12264670 0 10882
0.10050000 0.10051200 17413.84291320 0 73.81929358 0 4540.19846218 0 675.03603730 0 1811.52078725 0 10875
0.10150000 0.10150300 17832.35512855 0 -125.95569996 0 4720.22462222 0 -29.35308470 0 1759.58572809 0 11118
0.10250000 0.10250800 17152.08054859 0 323.35615845 0 4733.43906303 0 -168.40228533 0 1549.69251520 0 11575
0.10350000 0.10349800 16782.55952695 0 378.23727998 0 5092.43686414 0 -290.09377422 0 1660.77949772 0 11364
0.10450000 0.10450100 16711.37949663 0 276.06427811 0 5399.09317689 0 7.74761676 0 1087.57154671 0 12093
0.10550000 0.10551000 16350.97567023 0 307.72621012 0 5748.54538442 0 -462.27145714 0 230.98139533 0 12067
0.10650000 0.10649700 15598.75213986 0 579.01000225 0 6084.24490708 0 -392.56335954 0 751.42605040 0 12054
0.10750000 0.10749900 15381.80683138 0 259.46988432 0 6307.76997454 0 -67.92024857 0 674.80975510 0 12807
0.10850000 0.10850100 15024.14914813 0 137.47192586 0 6159.36839896 0 152.57571315 0 512.14800740 0 12736
0.10950000 0.10950300 14657.04473246 0 12.36236752 0 6614.76680904 0 1103.03782490 0 781.27992176 0 12933
0.11050000 0.11050200 14701.75194287 0 207.08885150 0 5115.91089574 0 429.21997670 0 1329.66054183 0 13428
0.11150000 0.11150900 14911.33758772 0 -25.03318184 0 5141.45002700 0 442.08950194 0 1031.22288628 0 13453
0.11250000 0.11250000 14458.88304310 0 106.31825002 0 5095.56746732 0 536.10316329 0 1564.64251849 0 13668
0.11350000 0.11349100 14242.26727179 0 -100.25795148 0 4482.02416579 0 -304.21224535 0 1050.51728802 0 13791
0.11450000 0.11448600 14341.12842502 0 371.18079055 0 4824.96252178 0 1.72046967 0 416.76896368 0 14205
0.11550000 0.11549300 13901.74552177 0 193.33616663 0 4609.28043915 0 -915.83764051 0 -117.08455914 0 14776
0.11650000 0.11649800 13717.31454813 0 176.59238265 0 4670.42057014 0 64.29676761 0 -402.07050711 0 14553
0.11750000 0.11747300 13525.74360231 0 111.25175110 0 5589.00545225 0 -74.27625180 0 -479.99726192 0 14568
0.11850000 0.11849100 13657.11909038 0 229.10742724 0 4914.65155691 0 101.47097783 0 -1167.50628138 0 16015
0.11950000 0.11950300 13281.33686238 0 75.57396921 0 5341.34727883 0 355.36080912 0 -39.43077097 0 15270
0.12050000 0.12050700 13410.62528166 0 -88.08396938 0 4529.63130336 0 382.65747199 0 -511.54934820 0 15999
0.12150000 0.12150000 13439.73439900 0 8.21483457 0 4843.12002026 0 514.19223636 0 480.24661171 0 15670
0.12250000 0.12250700 13287.37837730 0 -97.40404968 0 4114.64513581 0 553.80370355 0 831.41131411 0 16887
0.12350000 0.12352200 13520.03162457 0 15.63653907 0 4041.22425268 0 612.69419407 0 603.06841312 0 16407
0.12450000 0.12449800 13492.46034739 0 218.31069085 0 4166.47034925 0 -57.21138876 0 1550.14288268 0 16306
0.12550000 0.12549900 13056.48266164 0 166.64695063 0 3988.42141228 0 145.91466834 0 1960.20796171 0 17523
0.12650000 0.12650100 12951.57999348 0 -62.20761175 0 3545.17193948 0 77.92378897 0 1346.54382988 0 17154
0.12750000 0.12750600 13073.72844059 0 261.71622941 0 3704.33839618 0 -123.11289258 0 801.93091822 0 18007
0.12850000 0.12850300 12670.26508968 0 115.99488954 0 3927.98429394 0 -89.46286278 0 1378.45401323 0 17496
0.12950000 0.12949900 12568.87748475 0 73.45262855 0 3815.09584152 0 266.82076029 0 1369.57847859 0 18405
0.13050000 0.13049000 12641.81504669 0 60.15745112 0 3816.74352740 0 261.33836011 0 910.29482519 0 18100
0.13150000 0.13148800 12220.44684247 0 369.55727073 0 3824.56454308 0 -218.35023531 0 575.96507873 0 19059
0.13250000 0.13249300 12059.08347125 0 126.92453926 0 3869.48046037 0 -12.11982816 0 1173.54779630 0 18957
0.13350000 0.13349100 11985.59668068 0 -41.68897940 0 3912.95739864 0 185.89631562 0 853.71219336 0 19468
0.13450000 0.13450700 11867.40267971 0 77.98211705 0 3766.80766045 0 175.50490996 0 750.25399651 0 19953
0.13550000 0.13551000 11943.30607624 0 135.32224500 0 3912.32029343 0 -199.46995196 0 399.98563523 0 19956
0.13650000 0.13649900 11388.80485234 0 133.65588534 0 3839.05319432 0 87.76256079 0 656.50835873 0 19723
0.13750000 0.13749600 11437.79604605 0 208.25761003 0 3542.89813295 0 -22.61053436 0 642.58980681 0 20946
0.13850000 0.13851100 11547.09254323 0 52.96046902 0 3625.99642453 0 56.20849728 0 416.74809299 0 20955
0.13950000 0.13949800 11464.37871170 0 -148.90686591 0 3782.70233697 0 69.38273456 0 -452.11072750 0 20506
0.14050000 0.14048300 11451.52676178 0 147.21524174 0 3344.33001440 0 90.39775975 0 -500.30773662 0 21447
0.14150000 0.14148400 11185.91979676 0 43.12905686 0 3203.62862420 0 -157.37597137 0 -85.10736990 0 21771
0.14250000 0.14249400 11086.72910635 0 49.52021073 0 3118.50917127 0 461.64423805 0 -218.82257194 0 22470
0.14350000 0.14350900 11130.33785950 0 203.18932824 0 3207.27550230 0 209.89431134 0 -546.83838607 0 22519
0.14450000 0.14449900 10829.74503081 0 389.27567697 0 3234.08884397 0 -362.40631398 0 -805.06481677 0 22218
0.14550000 0.14550500 10478.44741509 0 105.52889863 0 3162.38155416 0 -83.49186881 0 -244.38806616 0 23559
0.14650000 0.14650700 10411.19986174 0 -53.60207790 0 3393.44203841 0 192.90996522 0 4.16059360 0 23044
0.14750000 0.14750500 10161.42166582 0 223.97433648 0 3204.02406882 0 -88.05244366 0 -658.93704772 0 23649
0.14850000 0.14849900 9915.82859204 0 162.32232441 0 3304.69767652 0 226.09435898 0 79.95143122 0 23640
0.14950000 0.14949500 9995.38985125 0 133.21430552 0 3295.77820359 0 158.72158151 0 -172.79501591 0 24457
0.15050000 0.15050000 9775.43476988 0 237.04817476 0 3789.33701881 0 -139.93796240 0 299.73932740 0 24591
0.15150000 0.15149900 9618.38833568 0 16.90185199 0 3599.00732970 0 -328.87480771 0 84.66633931 0 25020
0.15250000 0.15250500 9640.28058884 0 45.45394165 0 3462.10660162 0 73.65749083 0 -310.14611146 0 25297
0.15350000 0.15350100 9675.95848058 0 -48.88837811 0 3606.92720653 0 124.91655940 0 -148.28404065 0 25452
0.15450000 0.15450400 9589.72958582 0 5.08448403 0 3428.51577866 0 91.05211074 0 -369.78025755 0 26061
0.15550000 0.15549900 9488.57265692 0 122.83608135 0 3435.06258392 0 258.77895470 0 -433.61160882 0 26128
0.15650000 0.15649500 9382.94500698 0 150.71272965 0 3093.34351549 0 -29.98568623 0 -206.34739286 0 26331
0.15750000 0.15749700 9262.91658238 0 139.83910125 0 3121.57386702 0 372.91525456 0 -194.11387437 0 27345
0.15850000 0.15849900 9146.12860669 0 188.56556676 0 3016.45150742 0 342.68680928 0 -184.18272230 0 26980
0.15950000 0.15949700 8862.19937461 0 37.48364563 0 2718.38513042 0 8.35240536 0 251.19191042 0 27777
0.16050000 0.16050000 8669.62883269 0 122.78335540 0 2771.46258514 0 138.01126837 0 65.16279131 0 28224
0.16150000 0.16150500 8399.78182265 0 76.11605786 0 2550.68366082 0 -13.37415650 0 312.29030003 0 28075
0.16250000 0.16249700 8641.34355829 0 30.97781283 0 2516.22505664 0 328.33876057 0 182.12750877 0 28590
0.16350000 0.16349900 8657.11740452 0 -52.86896753 0 2406.37933082 0 53.31054734 0 -73.80808932 0 29163
0.16450000 0.16449100 8488.64701484 0 13.69929985 0 2246.74053750 0 101.65496942 0 64.71791612 0 28996
0.16550000 0.16550500 8626.31666300 0 9.35453890 0 2004.64055780 0 -13.80661912 0 41.51004071 0 30777
0.16650000 0.16650700 8513.27442657 0 105.61150262 0 2174.71469508 0 -167.87392739 0 -125.29552715 0 29211
0.16750000 0.16749900 8485.82397968 0 51.74359806 0 2276.69546693 0 -41.59945513 0 -143.32121076 0 30922
0.16850000 0.16850800 8482.79223765 0 127.83406187 0 2299.42254760 0 218.72810461 0 -482.30402216 0 30867
0.16950000 0.16949900 8457.41787499 0 117.91279592 0 2500.46219498 0 -319.61371457 0 -352.60477986 0 30852
0.17050000 0.17049200 8317.43048201 0 127.92852920 0 2315.28427041 0 140.91229399 0 -178.73876813 0 31257
0.17150000 0.17149500 8099.19997854 0 -79.09551333 0 2619.22739373 0 164.97509868 0 132.65738769 0 32608
0.17250000 0.17250900 8153.93610371 0 -3.18276892 0 2164.66381117 0 247.38026373 0 -272.86227521 0 32361
0.17350000 0.17350400 8200.17016971 0 78.58253379 0 2153.80006889 0 22.08602101 0 246.12912092 0 32508
0.17450000 0.17449800 7870.92957573 0 185.61181519 0 1839.68523135 0 42.17812241 0 -35.13393571 0 32791
0.17550000 0.17549800 8099.11210196 0 9.53108295 0 2048.95232360 0 252.30245071 0 226.65017836 0 33633
0.17650000 0.17650100 7838.84363922 0 30.43879985 0 2036.99012406 0 -189.60251041 0 -356.80088659 0 33984
0.17750000 0.17750300 7864.27292474 0 183.57088161 0 1991.52497814 0 -310.02967499 0 -220.68665390 0 34069
0.17850000 0.17849800 7554.17844077 0 64.35026248 0 2397.52576532 0 -152.12644414 0 -259.74999092 0 34536
