### header ###
fiducial parameters:
Omega_m = 0.31
Omega_nu = 0
Omega_de = 0.69
Omega_k = 0
H_0 = 100
w_de = -1
zeff = 0
beta = 0
fgrowth = 0
b_1 = 2
gamma = 0.55
Lx = 3500 Ly = 3500 Lz = 3500
nx = 700 ny = 700 nz = 700
xoffset = -983.599254 yoffset = -42.9823471 zoffset = 800.977702
bins = 400 dk = 0.001
kx_ny = 0.628318531 ky_ny = 0.628318531 kz_ny = 0.628318531
############################
A(data) = 9.05757354 (not used)
A(ran) = 9.05801045 (used)
Ngal = 503279
weighted Ngal = 0
Nran = 25229228
weighted Nran = 0
SN(data) = 6731.9787
SN(ran) = 134.459925
SN(data+ran) = 6866.43862
############################
13 columns: k_central k_mean P_0(k) sigma^{lin}_{P_0(k)} P^img_1(k) sigma^{lin}_{P_1(k)} P_2(k) sigma^{lin}_{P_2(k)} P^img_3(k) sigma^{lin}_{P_3(k)} P_4(k) sigma^{lin}_{P_4(k)} N_modes
### header ###
0.00050000 0 0 0 0 0 0 0 0 0 0 0 0
0.00150000 0.00179520 23673.51144441 0 -3104.38301093 0 12209.57211561 0 6188.91689921 0 -7558.35257835 0 3
0.00250000 0.00253879 41255.74785528 0 5820.80190286 0 10841.83904522 0 -54568.61044097 0 -4469.83129023 0 6
0.00350000 0.00331552 56739.49152022 0 -10696.40330424 0 -44601.42897211 0 15302.05883444 0 23224.79165446 0 7
0.00450000 0.00420575 42532.04534351 0 -5459.51931066 0 1032.11263666 0 -29761.16156899 0 -5233.69846753 0 24
0.00550000 0.00557378 39379.80254984 0 -592.48807281 0 -2185.55646822 0 -6039.59261954 0 1164.17795589 0 45
0.00650000 0.00659388 47499.59860197 0 -12894.89959896 0 -4625.21905396 0 -4681.44908101 0 -10233.42553909 0 40
0.00750000 0.00754703 61076.09092961 0 -6243.10379575 0 -21916.52906002 0 19972.25971312 0 -39932.54624213 0 57
0.00850000 0.00846663 79645.40103264 0 -6959.03429831 0 9231.21510591 0 -34410.38191404 0 -9094.40225441 0 75
0.00950000 0.00948925 70754.92736821 0 2221.13549881 0 1528.83281187 0 -7726.39456970 0 -16300.66632781 0 112
0.01050000 0.01054430 86130.25330176 0 4572.93248848 0 30426.38728451 0 -54422.84516281 0 -31557.13918604 0 105
0.01150000 0.01145670 65039.65425413 0 6738.47506545 0 16112.61044522 0 3659.44444804 0 -11814.34719414 0 144
0.01250000 0.01249090 87959.62401946 0 -8916.05673398 0 41736.43275144 0 17425.48656014 0 -5636.97508071 0 169
0.01350000 0.01339930 74859.53260468 0 -4364.33545516 0 28224.52971058 0 10723.59012138 0 -12188.04235336 0 180
0.01450000 0.01448870 84485.86278634 0 7352.24904301 0 43998.48578312 0 -2988.77038451 0 4912.38873496 0 267
0.01550000 0.01550050 88957.68228420 0 4088.40299191 0 39482.39845775 0 9279.16276523 0 25261.11171959 0 238
0.01650000 0.01653350 90371.17708397 0 2686.61774652 0 62820.66074698 0 7634.20105203 0 11150.21993587 0 315
0.01750000 0.01747870 82382.86636564 0 3113.55512904 0 46948.28290411 0 -6599.94862063 0 14867.61898885 0 297
0.01850000 0.01844180 77645.98913139 0 -1016.15644653 0 52337.42405825 0 12772.64130613 0 12848.98408557 0 388
0.01950000 0.01947590 80738.47585021 0 -1865.66374551 0 64302.69927965 0 17427.46378320 0 21370.26626555 0 399
0.02050000 0.02045430 82053.76857110 0 5449.43547303 0 65501.88506836 0 -105.00757082 0 20521.48834219 0 462
0.02150000 0.02154770 74775.28093298 0 7423.93436367 0 63447.76999564 0 -4916.29924280 0 23591.78622440 0 571
0.02250000 0.02255340 68096.88049497 0 2273.66372489 0 63957.01478052 0 11902.22377479 0 14957.69248402 0 510
0.02350000 0.02348930 72639.22094881 0 250.19780660 0 65796.38145926 0 20380.11689307 0 23259.39305809 0 555
0.02450000 0.02439640 73344.86989144 0 -1709.82561429 0 61596.86951569 0 13068.56569148 0 33215.80964582 0 592
0.02550000 0.02547300 69717.21479645 0 1002.92443039 0 44737.08844349 0 11939.90085874 0 27330.49534819 0 837
0.02650000 0.02652900 72924.92968165 0 2955.43220673 0 49534.27098121 0 228.38464237 0 37971.36065346 0 723
0.02750000 0.02749970 65639.52176280 0 118.80913704 0 41749.39454709 0 5275.81331881 0 22967.09358170 0 826
0.02850000 0.02848090 64753.06675549 0 4735.47120896 0 50777.72459742 0 -59.11929917 0 27792.28677951 0 831
0.02950000 0.02946900 60744.90606628 0 1190.38714607 0 42236.23080389 0 7283.25494262 0 32204.78958543 0 996
0.03050000 0.03053250 60782.47330451 0 -1335.47138072 0 35638.12759146 0 10811.13716486 0 16121.50794901 0 1041
0.03150000 0.03150510 58757.35750341 0 3187.28358020 0 38476.76083793 0 3604.74127658 0 15856.01082972 0 1036
0.03250000 0.03246190 60456.89057320 0 2995.44900464 0 31517.04549612 0 4516.44981626 0 20974.93149835 0 1059
0.03350000 0.03345080 56859.55289853 0 -3250.18124280 0 29814.54659173 0 11188.44624845 0 23306.51687446 0 1302
0.03450000 0.03451200 54702.18284356 0 -1672.08262290 0 19104.25878775 0 -115.05021630 0 9959.06386972 0 1339
0.03550000 0.03553350 57810.81688408 0 2667.88905027 0 18289.64288511 0 252.22665716 0 8657.99617032 0 1365
0.03650000 0.03647120 54006.63970771 0 1454.48922464 0 21217.03147804 0 -6598.19108902 0 2721.90019365 0 1308
0.03750000 0.03744890 52484.94686801 0 2721.07635071 0 18377.51946576 0 287.69913739 0 -710.69305835 0 1579
0.03850000 0.03847530 52517.79074003 0 1699.69783837 0 21657.07345565 0 -517.17125245 0 -11060.91536078 0 1662
0.03950000 0.03950240 48209.86106508 0 446.51079240 0 20398.13159210 0 -1134.64044022 0 -10541.26818568 0 1683
0.04050000 0.04050350 48157.13511669 0 2022.82002543 0 20531.59414897 0 219.03018036 0 -10970.89678848 0 1822
0.04150000 0.04152450 45540.39023636 0 1023.92583471 0 21671.57309146 0 -3915.98914068 0 -15953.22429706 0 1887
0.04250000 0.04250150 42409.01813060 0 1478.29279342 0 20402.52542114 0 2486.83034041 0 -11511.06314517 0 1920
0.04350000 0.04349210 40910.61258478 0 1605.35134447 0 22668.53289894 0 1907.41610589 0 -8672.46285241 0 2005
0.04450000 0.04448520 40125.87471957 0 971.84358228 0 19303.62878010 0 4150.24613555 0 -7495.00454827 0 2151
0.04550000 0.04548030 40569.10222322 0 531.18317323 0 20530.27600026 0 -965.04413185 0 -7318.73511206 0 2274
0.04650000 0.04648670 37636.44103546 0 703.92216782 0 17666.92746548 0 4428.97966480 0 -5426.71937693 0 2311
0.04750000 0.04749250 39418.46824533 0 -166.15813715 0 19158.41273057 0 -1136.26615696 0 -2735.63090938 0 2568
0.04850000 0.04851840 35431.94716411 0 1038.42766743 0 19122.93256113 0 574.79192638 0 -1845.58394683 0 2493
0.04950000 0.04949480 37669.39475320 0 928.45342212 0 19006.05670887 0 1091.34804276 0 1968.44639115 0 2644
0.05050000 0.05050630 36071.35913407 0 255.17381798 0 16664.69506316 0 4559.53130993 0 -663.91745293 0 2829
0.05150000 0.05149060 36767.56134427 0 -1695.76536139 0 14107.70625767 0 4206.95948378 0 3290.73628477 0 2784
0.05250000 0.05249300 35515.86929863 0 -522.66793257 0 11938.03348140 0 2211.52399780 0 5814.24411303 0 3055
0.05350000 0.05348950 37946.75521088 0 685.26047746 0 12064.24622036 0 -546.94164106 0 4346.73816988 0 3009
0.05450000 0.05448610 36176.04211077 0 523.18420748 0 12157.17570440 0 -2973.75447379 0 -2867.56661065 0 3336
0.05550000 0.05550870 35116.47023957 0 1191.10114329 0 12257.68454352 0 199.47105042 0 -1395.87554535 0 3349
0.05650000 0.05647670 34678.18579357 0 843.64702951 0 13544.63706715 0 -1830.60098983 0 -577.87639436 0 3324
0.05750000 0.05747970 34567.35145623 0 -722.33780375 0 11876.73956640 0 1717.76746027 0 -4901.47006981 0 3639
0.05850000 0.05849280 34335.02774613 0 -537.17306066 0 9707.55011133 0 4875.39269450 0 -1806.06145468 0 3846
0.05950000 0.05951020 35895.93550994 0 -91.41910531 0 9365.84202747 0 1211.06011167 0 -4235.76103309 0 3787
0.06050000 0.06049470 34123.24518677 0 872.27721948 0 7278.64142214 0 -950.42366574 0 -1190.18942376 0 3930
0.06150000 0.06148310 32958.88049314 0 1868.17921263 0 8847.63383137 0 -662.44661866 0 -2956.45377198 0 4083
0.06250000 0.06249100 30796.89691768 0 1374.32381394 0 11884.20907576 0 -3402.52627993 0 816.76558349 0 4303
0.06350000 0.06350600 29547.40178656 0 750.57145065 0 10970.68808160 0 1590.57709435 0 -509.08990240 0 4470
0.06450000 0.06451750 29553.99253010 0 -511.75366125 0 11716.25496099 0 2837.27115947 0 493.73017456 0 4479
0.06550000 0.06550280 29710.08330648 0 -261.14393318 0 9081.85787252 0 1330.82490652 0 -1276.82474771 0 4636
0.06650000 0.06648880 30492.95379436 0 202.82244351 0 8751.80442017 0 959.78911232 0 2056.42183295 0 4653
0.06750000 0.06749660 29808.50507681 0 294.41290815 0 8666.31149177 0 -78.91789279 0 1020.33058411 0 5220
0.06850000 0.06852730 29203.91420194 0 164.92786502 0 8779.00222188 0 -539.92799146 0 344.60142028 0 5029
0.06950000 0.06949320 28752.77780602 0 547.50295271 0 7934.35449781 0 177.42281633 0 -78.09503846 0 5040
0.07050000 0.07048030 27865.11449572 0 649.65178852 0 10553.27432351 0 -761.07050513 0 869.79580454 0 5475
0.07150000 0.07148790 28367.54884559 0 803.31387590 0 9663.23834553 0 777.40126918 0 1742.71342460 0 5509
0.07250000 0.07249820 27159.90493600 0 -91.88023767 0 8929.44692795 0 196.60407698 0 -568.40659434 0 5916
0.07350000 0.07351270 27389.15296577 0 222.14650360 0 10070.27168254 0 508.80320505 0 -468.68754599 0 5721
0.07450000 0.07449140 26864.96916219 0 383.21109444 0 9033.40492286 0 113.27291246 0 306.74199242 0 6028
0.07550000 0.07549160 26142.07444061 0 120.38432475 0 10274.35405652 0 -572.39289573 0 2628.09194380 0 6183
0.07650000 0.07648840 25628.54567244 0 381.02186913 0 10234.06264430 0 -235.29174161 0 -102.48375542 0 6330
0.07750000 0.07749960 25951.71179778 0 941.63820459 0 11408.79677443 0 386.07587097 0 -63.57321381 0 6583
0.07850000 0.07848650 24996.82290328 0 781.02398122 0 11546.54331460 0 -897.29678045 0 1322.44367764 0 6549
0.07950000 0.07947320 24417.27685389 0 -112.29308858 0 11926.60952592 0 240.00192633 0 976.84815354 0 6828
0.08050000 0.08048110 24161.11662129 0 155.86669110 0 12714.64276290 0 1053.14699469 0 147.45141005 0 7147
0.08150000 0.08149960 23804.00816667 0 718.06260810 0 11549.61899493 0 903.84029034 0 1461.13489105 0 7386
0.08250000 0.08250610 23612.76675803 0 398.66858498 0 11798.52940962 0 -101.75229274 0 1456.96075347 0 7227
0.08350000 0.08350160 22439.17502344 0 615.74021605 0 12228.46558045 0 373.81049723 0 2152.99819509 0 7798
0.08450000 0.08449610 21590.94632871 0 218.66878792 0 11023.34812256 0 611.86705576 0 1549.84629922 0 7371
0.08550000 0.08548940 21491.42610112 0 -239.84484694 0 10885.76635097 0 1246.68308055 0 2438.43231361 0 8256
0.08650000 0.08650700 21238.78093175 0 384.16894917 0 9502.74275555 0 1006.94807933 0 1134.82717795 0 8037
0.08750000 0.08749060 20709.43437906 0 606.17265333 0 9476.75325682 0 1070.86291335 0 3664.68408916 0 8155
0.08850000 0.08849210 20544.88548179 0 -470.07050367 0 7603.90560085 0 531.19635472 0 1467.54988144 0 8718
0.08950000 0.08949900 20619.69042107 0 -69.50323532 0 6676.10466234 0 1712.00055967 0 589.07187073 0 8571
0.09050000 0.09049190 20445.58494565 0 607.91151117 0 6533.63475596 0 -806.94208023 0 1175.37123535 0 8932
0.09150000 0.09150830 19753.55687303 0 711.69924520 0 6204.07560937 0 -1232.06261444 0 943.84830059 0 9285
0.09250000 0.09250820 19283.96639518 0 -147.28554300 0 7035.00360229 0 605.75414111 0 425.14360182 0 9204
0.09350000 0.09350330 18954.75875491 0 -102.27384024 0 6226.58299859 0 994.41468202 0 -1001.27674451 0 9349
0.09450000 0.09448040 19638.43855238 0 65.12654222 0 6096.66845867 0 768.36316286 0 253.14386897 0 9564
0.09550000 0.09549270 18970.13715653 0 -2.06028840 0 5618.32327647 0 -295.67064171 0 -84.24288404 0 10155
0.09650000 0.09649430 18792.51661789 0 465.75136974 0 5393.12855398 0 272.89413047 0 783.01548423 0 9913
0.09750000 0.09749140 18679.48536603 0 218.05804568 0 5719.50217452 0 -487.42502990 0 -480.41797105 0 10476
0.09850000 0.09850240 18013.82026760 0 483.18278796 0 6388.45166015 0 -90.44070943 0 164.56866950 0 10575
0.09950000 0.09950330 18214.72810011 0 101.71758149 0 6228.70302110 0 209.37034723 0 -284.35763041 0 10882
0.10050000 0.10051200 17561.14603152 0 156.27751411 0 6964.71332234 0 -274.72306180 0 102.73002954 0 10875
0.10150000 0.10150300 17487.54939522 0 635.17522032 0 6366.89992874 0 412.62997673 0 -264.05154954 0 11118
0.10250000 0.10250800 17298.83443828 0 -243.98383389 0 6104.89590353 0 332.54585187 0 142.68520400 0 11575
0.10350000 0.10349800 16991.81563463 0 -67.47735060 0 5590.19178609 0 36.17329597 0 -685.01002920 0 11364
0.10450000 0.10450100 16703.58045009 0 502.79244694 0 6752.04101259 0 -571.28784773 0 -946.88223954 0 12093
0.10550000 0.10551000 16199.71810579 0 572.82678634 0 6040.58123107 0 24.54063360 0 -578.32786029 0 12067
0.10650000 0.10649700 15918.40320198 0 207.96102657 0 6921.00570804 0 361.76481494 0 -314.20381257 0 12054
0.10750000 0.10749900 15689.37486366 0 -257.32349883 0 6148.01035091 0 278.23153428 0 -571.29334001 0 12807
0.10850000 0.10850100 16011.33268602 0 324.74790379 0 6617.69968992 0 382.42240213 0 -1437.02375424 0 12736
0.10950000 0.10950300 15543.38989405 0 339.86377412 0 5533.54434529 0 189.28285935 0 -94.80422104 0 12933
0.11050000 0.11050200 15119.05585523 0 144.62947335 0 6334.56134706 0 -146.34746050 0 -132.25425388 0 13428
0.11150000 0.11150900 15304.69513186 0 -94.40471214 0 5987.50377636 0 502.92316335 0 -390.53450898 0 13453
0.11250000 0.11250000 14839.82802022 0 -42.57411626 0 5734.33134750 0 286.47765292 0 -185.82601436 0 13668
0.11350000 0.11349100 14535.00613108 0 284.01930558 0 5409.93495003 0 120.67212055 0 -47.48938295 0 13791
0.11450000 0.11448600 14617.71996262 0 374.08071771 0 5384.05529703 0 281.36982667 0 257.70686042 0 14205
0.11550000 0.11549300 14635.40512448 0 -196.86990363 0 5058.94490234 0 332.56452564 0 -12.35039434 0 14776
0.11650000 0.11649800 14514.24528891 0 201.23077895 0 4625.57056029 0 228.83500984 0 -265.02368421 0 14553
0.11750000 0.11747300 14106.49795469 0 223.42620630 0 4695.70705622 0 27.87115601 0 714.13232803 0 14568
0.11850000 0.11849100 14335.19675583 0 -14.41241830 0 4943.10159989 0 194.73450272 0 420.58720111 0 16015
0.11950000 0.11950300 13883.73082274 0 117.72276281 0 4464.93217086 0 163.41748629 0 -290.27721658 0 15270
0.12050000 0.12050700 13947.99057234 0 174.83924486 0 4561.17899581 0 99.83845065 0 -280.22962804 0 15999
0.12150000 0.12150000 13697.32262603 0 52.99375227 0 4854.77465177 0 -307.57791839 0 459.18369379 0 15670
0.12250000 0.12250700 13582.53384256 0 283.35693585 0 4950.66997040 0 -188.69298780 0 -40.47474474 0 16887
0.12350000 0.12352200 13471.80935094 0 112.36778368 0 4533.69559522 0 404.05871475 0 -444.61485517 0 16407
0.12450000 0.12449800 13516.84609852 0 -113.99789425 0 4893.16573294 0 363.97271403 0 -369.78684829 0 16306
0.12550000 0.12549900 13032.64613913 0 97.76851780 0 4345.85940407 0 232.09632944 0 343.06907240 0 17523
0.12650000 0.12650100 13196.86549923 0 178.36199729 0 4138.11916742 0 544.17243031 0 387.78946430 0 17154
0.12750000 0.12750600 12596.66845338 0 138.98889533 0 3713.10408510 0 407.89452749 0 380.99770307 0 18007
0.12850000 0.12850300 12883.14610630 0 296.14847062 0 3902.91749930 0 241.33435498 0 159.91560455 0 17496
0.12950000 0.12949900 12357.42446256 0 206.56928122 0 3720.60654817 0 -529.14883039 0 545.17642024 0 18405
0.13050000 0.13049000 12008.66428310 0 106.80794227 0 3801.80450869 0 45.84664012 0 690.54405687 0 18100
0.13150000 0.13148800 12079.29508480 0 -26.54257196 0 4099.65119424 0 173.30799544 0 101.06158281 0 19059
0.13250000 0.13249300 11889.04228769 0 35.88681831 0 3486.30561501 0 240.86091991 0 440.17489094 0 18957
0.13350000 0.13349100 12099.50669835 0 99.70520779 0 3644.76905907 0 150.59299780 0 472.42230066 0 19468
0.13450000 0.13450700 11890.14074495 0 134.54234035 0 3539.64669947 0 180.87307058 0 954.36053656 0 19953
0.13550000 0.13551000 11774.14365849 0 26.11098810 0 3614.70428392 0 186.03032741 0 832.29227683 0 19956
0.13650000 0.13649900 11598.82988009 0 158.48211783 0 3314.92431360 0 552.19775904 0 1526.46014419 0 19723
0.13750000 0.13749600 11615.85596759 0 4.02501102 0 3563.51617569 0 35.71315222 0 1824.22993773 0 20946
0.13850000 0.13851100 11488.87430855 0 120.53920722 0 3420.35424123 0 211.35745641 0 1572.73814848 0 20955
0.13950000 0.13949800 11419.89119274 0 117.86885763 0 3108.96357770 0 289.54784096 0 2100.31618499 0 20506
0.14050000 0.14048300 11273.35699451 0 -7.41824436 0 2902.81610406 0 -131.82475709 0 1541.39916290 0 21447
0.14150000 0.14148400 11156.70083369 0 189.17411208 0 3126.52790926 0 12.65741314 0 1252.03256739 0 21771
0.14250000 0.14249400 10884.37131026 0 268.72438672 0 2793.17908513 0 -31.24034411 0 881.68440744 0 22470
0.14350000 0.14350900 10514.22416798 0 156.75753994 0 3177.92472436 0 -297.78956577 0 796.06515646 0 22519
0.14450000 0.14449900 10395.01958633 0 195.48694594 0 3003.13820545 0 127.41774657 0 902.23654274 0 22218
0.14550000 0.14550500 10671.75392337 0 -173.65510794 0 2573.89406269 0 292.47413109 0 389.95122818 0 23559
0.14650000 0.14650700 10332.51736834 0 -32.86144733 0 2559.60313376 0 297.50506534 0 141.27368643 0 23044
0.14750000 0.14750500 10459.61985768 0 329.62834939 0 2512.22667222 0 -341.41369732 0 -264.52718153 0 23649
0.14850000 0.14849900 10010.32886996 0 270.67744372 0 2619.08459429 0 -608.59035775 0 184.89232569 0 23640
0.14950000 0.14949500 9917.48726250 0 150.86321829 0 3159.19602811 0 111.37038449 0 -245.68863956 0 24457
0.15050000 0.15050000 9739.95460044 0 -26.38966671 0 3093.81585211 0 -90.53012385 0 -312.87907312 0 24591
0.15150000 0.15149900 9556.05088628 0 157.47043870 0 2937.79098316 0 172.44241113 0 -486.66270056 0 25020
0.15250000 0.15250500 9673.59679748 0 36.01984149 0 3151.51781188 0 132.37508418 0 -19.17565851 0 25297
0.15350000 0.15350100 9578.94273554 0 -53.05987940 0 2691.38505102 0 243.43240835 0 -252.48918844 0 25452
0.15450000 0.15450400 9624.50674261 0 -24.27799247 0 2876.74971333 0 56.75618807 0 -251.34679289 0 26061
0.15550000 0.15549900 9480.53194979 0 255.04859385 0 2486.33603464 0 -5.07555358 0 -124.43873049 0 26128
0.15650000 0.15649500 9521.77901983 0 -47.93217107 0 2704.22601637 0 166.28445974 0 323.98886983 0 26331
0.15750000 0.15749700 9421.40199558 0 42.99284816 0 2569.07183532 0 286.07122374 0 -323.64395425 0 27345
0.15850000 0.15849900 9295.66159324 0 323.27816798 0 2714.17803912 0 -413.17151616 0 -64.63695982 0 26980
0.15950000 0.15949700 8910.90496944 0 162.33770281 0 2939.47162277 0 -42.64760305 0 381.71609412 0 27777
0.16050000 0.16050000 8849.70991559 0 -77.90412659 0 2764.56427355 0 369.11129708 0 454.17802406 0 28224
0.16150000 0.16150500 9050.78251669 0 -8.14603820 0 2611.68099237 0 353.82516587 0 196.49642816 0 28075
0.16250000 0.16249700 8895.06521577 0 135.57598863 0 2557.42818839 0 -37.90457445 0 230.08834958 0 28590
0.16350000 0.16349900 8846.40355924 0 166.21855230 0 2804.84470121 0 -418.20904115 0 78.17599476 0 29163
0.16450000 0.16449100 8425.28800019 0 147.71174442 0 3056.17172187 0 -213.98936000 0 513.15089888 0 28996
0.16550000 0.16550500 8329.85403360 0 145.80921644 0 3233.34189304 0 8.70733887 0 161.69180994 0 30777
0.16650000 0.16650700 8447.57569796 0 37.59645719 0 3040.06833847 0 225.49020749 0 628.17475221 0 29211
0.16750000 0.16749900 8451.53014409 0 153.40834376 0 3212.15265253 0 318.19011396 0 616.13126683 0 30922
0.16850000 0.16850800 8202.74055969 0 74.65192418 0 3175.56304126 0 33.51415064 0 920.19741737 0 30867
0.16950000 0.16949900 8273.25053109 0 35.78532086 0 3161.49180378 0 -83.01810420 0 874.87177553 0 30852
0.17050000 0.17049200 8096.48678911 0 -18.41135195 0 3045.25305673 0 83.05116776 0 754.13594446 0 31257
0.17150000 0.17149500 8080.66900459 0 64.05247072 0 3022.18545430 0 76.14077315 0 447.29509088 0 32608
0.17250000 0.17250900 7966.86883265 0 122.49775651 0 3045.98902309 0 -159.95185364 0 668.25526064 0 32361
0.17350000 0.17350400 7939.26460175 0 16.75377995 0 2856.74680666 0 113.24984486 0 234.00874353 0 32508
0.17450000 0.17449800 7934.18972922 0 -65.54747104 0 2590.67848959 0 502.41677455 0 308.17218377 0 32791
0.17550000 0.17549800 7980.55561009 0 -37.66741753 0 2340.73552508 0 329.04616705 0 389.73922593 0 33633
0.17650000 0.17650100 7984.05968874 0 65.67588070 0 1828.60179762 0 308.52149318 0 119.07386524 0 33984
0.17750000 0.17750300 7914.02205396 0 174.06373404 0 1917.13745262 0 -272.49429203 0 148.14673349 0 34069
0.17850000 0.17849800 7583.72694101 0 145.16661895 0 1840.06969139 0 63.36769246 0 508.30560392 0 34536
