### header ###
fiducial parameters:
Omega_m = 0.31
Omega_nu = 0
Omega_de = 0.69
Omega_k = 0
H_0 = 100
w_de = -1
zeff = 0
beta = 0
fgrowth = 0
b_1 = 2
gamma = 0.55
Lx = 3500 Ly = 3500 Lz = 3500
nx = 700 ny = 700 nz = 700
xoffset = -983.599254 yoffset = -42.9823471 zoffset = 800.977702
bins = 400 dk = 0.001
kx_ny = 0.628318531 ky_ny = 0.628318531 kz_ny = 0.628318531
############################
A(data) = 9.04388396 (not used)
A(ran) = 9.0544329 (used)
Ngal = 502985
weighted Ngal = 0
Nran = 25229228
weighted Nran = 0
SN(data) = 6721.37898
SN(ran) = 134.406818
SN(data+ran) = 6855.7858
############################
13 columns: k_central k_mean P_0(k) sigma^{lin}_{P_0(k)} P^img_1(k) sigma^{lin}_{P_1(k)} P_2(k) sigma^{lin}_{P_2(k)} P^img_3(k) sigma^{lin}_{P_3(k)} P_4(k) sigma^{lin}_{P_4(k)} N_modes
### header ###
0.00050000 0 0 0 0 0 0 0 0 0 0 0 0
0.00150000 0.00179520 81277.04944387 0 -13132.16636672 0 -32276.07946149 0 37495.83850642 0 -163160.44729424 0 3
0.00250000 0.00253879 109575.17579075 0 31349.53076425 0 22893.93632831 0 -26266.09026506 0 73680.44858380 0 6
0.00350000 0.00331552 72231.91299749 0 34195.74336580 0 53513.32255308 0 -66397.67696236 0 130125.44371311 0 7
0.00450000 0.00420575 33203.94630743 0 18351.37618302 0 30195.27187740 0 21425.84820281 0 13946.56257790 0 24
0.00550000 0.00557378 26159.10052811 0 -8845.00851852 0 7195.57608428 0 38306.39011719 0 -16124.58362933 0 45
0.00650000 0.00659388 46302.60972778 0 -17289.49755158 0 -19640.96500407 0 35734.79183017 0 -3297.78838037 0 40
0.00750000 0.00754703 68733.65616751 0 -16467.41213959 0 -26236.65161054 0 -9393.70988811 0 -5989.33819998 0 57
0.00850000 0.00846663 78784.86961662 0 -5243.91412003 0 -20006.20204240 0 -18793.72492087 0 -5770.20696155 0 75
0.00950000 0.00948925 68329.53374225 0 -1007.66317501 0 -26341.33458724 0 -36838.08230024 0 -5374.80628691 0 112
0.01050000 0.01054430 79633.86723143 0 3544.53483427 0 -3818.85256534 0 1231.62323154 0 -12611.05824346 0 105
0.01150000 0.01145670 82933.19345196 0 -371.23351650 0 4833.48655011 0 -25884.37636785 0 -28829.55996836 0 144
0.01250000 0.01249090 84088.33110462 0 8734.18516575 0 22565.93699103 0 10488.26762297 0 -10931.89057124 0 169
0.01350000 0.01339930 72522.23525082 0 109.36690829 0 31932.15249396 0 -22235.52104778 0 -14991.63481329 0 180
0.01450000 0.01448870 76325.64350711 0 3136.68863889 0 29520.92896663 0 15643.12981309 0 12182.33037561 0 267
0.01550000 0.01550050 84910.85589951 0 -10540.02692898 0 34797.25856036 0 20032.45517087 0 12102.03315004 0 238
0.01650000 0.01653350 78452.47645031 0 -1692.78854222 0 20531.81384042 0 -4867.49478682 0 10261.16158485 0 315
0.01750000 0.01747870 90097.88091815 0 2092.00086354 0 20221.49966499 0 4054.18604832 0 -2412.86022865 0 297
0.01850000 0.01844180 85017.62594500 0 9499.39246091 0 41200.05607230 0 -23723.82078683 0 -8102.51731946 0 388
0.01950000 0.01947590 72458.74442130 0 2196.69482482 0 36341.46977384 0 5206.64346527 0 2231.65871934 0 399
0.02050000 0.02045430 83003.82425366 0 -346.26338611 0 51631.00619554 0 6940.55824723 0 -4326.13111172 0 462
0.02150000 0.02154770 78646.24431064 0 -2652.38981835 0 30289.62935588 0 15300.74068573 0 -2117.08962732 0 571
0.02250000 0.02255340 80798.12207933 0 163.00666328 0 42496.56517407 0 -7970.37291130 0 -8225.17105690 0 510
0.02350000 0.02348930 76784.90848673 0 5445.04164400 0 28596.35749246 0 9695.07163687 0 -8055.39350308 0 555
0.02450000 0.02439640 77039.09149627 0 1633.52677314 0 32250.59525310 0 1074.60535723 0 -1648.58662215 0 592
0.02550000 0.02547300 67746.03324672 0 975.06535741 0 25528.03683332 0 2550.45298480 0 -6825.81340205 0 837
0.02650000 0.02652900 68014.05681771 0 8302.32669471 0 33398.26339640 0 -2145.34194800 0 -10581.30695274 0 723
0.02750000 0.02749970 60513.68081344 0 3554.02550498 0 27654.65008506 0 50.03088351 0 -2264.21699247 0 826
0.02850000 0.02848090 57666.25990891 0 -514.87108295 0 28111.16892154 0 4834.22251647 0 -13271.99997568 0 831
0.02950000 0.02946900 57937.57885167 0 -173.80999041 0 20378.13967000 0 1933.46052748 0 -11981.42254310 0 996
0.03050000 0.03053250 54101.98579771 0 -750.12218164 0 20617.60335228 0 3183.38405694 0 -16104.04247860 0 1041
0.03150000 0.03150510 51069.47484518 0 3276.32452555 0 19272.43259397 0 -4911.72966060 0 -6717.74717699 0 1036
0.03250000 0.03246190 52172.32593235 0 2838.61127733 0 16689.30050574 0 5549.69166698 0 -10042.88714309 0 1059
0.03350000 0.03345080 51347.38453149 0 -536.77322222 0 17083.53681568 0 1522.62652836 0 -10005.70436490 0 1302
0.03450000 0.03451200 49718.26257195 0 1934.64686132 0 17918.25448614 0 2080.14850973 0 -15034.03526346 0 1339
0.03550000 0.03553350 50433.90747562 0 -288.34942409 0 13045.05870615 0 3018.59349907 0 -47.23278333 0 1365
0.03650000 0.03647120 47891.96753458 0 -4044.69537761 0 11810.28290228 0 7389.75037380 0 381.06031513 0 1308
0.03750000 0.03744890 51709.32619804 0 -396.90995491 0 7577.21308947 0 4737.04200284 0 -2129.18364173 0 1579
0.03850000 0.03847530 51715.25786724 0 208.71346979 0 2765.14645590 0 -3685.70856108 0 -6393.48259439 0 1662
0.03950000 0.03950240 48964.06181851 0 3911.46349677 0 9053.96804274 0 -4820.08537156 0 -3376.26216689 0 1683
0.04050000 0.04050350 47074.82518025 0 3549.28016962 0 14185.25734010 0 -6042.72322272 0 -4178.79503968 0 1822
0.04150000 0.04152450 44021.99276844 0 1217.16753402 0 16555.61825742 0 1852.78982644 0 -3784.03147026 0 1887
0.04250000 0.04250150 42561.37415230 0 -607.39194089 0 14661.65825295 0 -649.91322135 0 -6686.36425313 0 1920
0.04350000 0.04349210 41374.49108489 0 1972.95006591 0 18874.68122080 0 -530.30770280 0 -6789.38855937 0 2005
0.04450000 0.04448520 39559.72984872 0 2042.09795031 0 18569.52979449 0 -197.00721079 0 -6009.22027635 0 2151
0.04550000 0.04548030 37933.13434088 0 424.99531009 0 18862.48834523 0 2179.59184531 0 -1921.00402217 0 2274
0.04650000 0.04648670 38272.44778792 0 -374.76725350 0 18171.66857559 0 1416.87804812 0 -3121.40909843 0 2311
0.04750000 0.04749250 38707.54670786 0 -423.82655156 0 17114.51331036 0 532.12235419 0 -5299.56196473 0 2568
0.04850000 0.04851840 38321.43898163 0 1212.45515238 0 19178.84403557 0 155.92930316 0 -5550.50452535 0 2493
0.04950000 0.04949480 39539.18869800 0 7.81245870 0 16346.47199547 0 -266.04854483 0 -1627.47427365 0 2644
0.05050000 0.05050630 38493.12785108 0 -1174.97579074 0 15380.15914549 0 2349.80878203 0 -7480.66968106 0 2829
0.05150000 0.05149060 38169.08295993 0 177.22729094 0 16104.59170723 0 -913.61106765 0 -7268.48069250 0 2784
0.05250000 0.05249300 36873.23293250 0 3309.84944107 0 18610.50225021 0 -2122.16449985 0 -4779.43146843 0 3055
0.05350000 0.05348950 35415.79984241 0 1254.84461797 0 20428.77854960 0 -1804.47967623 0 -4318.70554065 0 3009
0.05450000 0.05448610 34857.01463520 0 -1010.97612210 0 19252.33082614 0 3627.98463217 0 -2943.73363693 0 3336
0.05550000 0.05550870 34758.48301914 0 -546.23862841 0 17752.16774871 0 5014.84184342 0 -1050.07131437 0 3349
0.05650000 0.05647670 35392.84208572 0 57.52708537 0 15305.24436049 0 1494.50602255 0 707.79972194 0 3324
0.05750000 0.05747970 34734.42680519 0 1242.28925151 0 15521.42074889 0 -114.03963562 0 1358.04467738 0 3639
0.05850000 0.05849280 34476.50904098 0 1000.49903677 0 15547.23449446 0 881.35377181 0 1931.18672095 0 3846
0.05950000 0.05951020 33018.85625944 0 -295.57837131 0 14901.01208950 0 1430.30119582 0 2353.93898132 0 3787
0.06050000 0.06049470 32775.87751394 0 61.93552389 0 13778.60846313 0 1297.17916070 0 3450.48492382 0 3930
0.06150000 0.06148310 32941.74455992 0 1020.12297568 0 14011.04201895 0 -1160.10267946 0 106.77465901 0 4083
0.06250000 0.06249100 31129.72946690 0 588.01625331 0 12960.80703445 0 1160.69584638 0 2961.92408912 0 4303
0.06350000 0.06350600 30480.10184444 0 108.74529133 0 11850.70612938 0 1228.27293690 0 -834.96262642 0 4470
0.06450000 0.06451750 30820.29405728 0 1031.98851099 0 13209.16822052 0 79.49040871 0 1161.26704415 0 4479
0.06550000 0.06550280 29857.60611625 0 354.63582733 0 12654.77684234 0 229.58964998 0 346.14585118 0 4636
0.06650000 0.06648880 28591.08489762 0 62.51693732 0 10259.21731551 0 324.94892147 0 -918.25754185 0 4653
0.06750000 0.06749660 28336.13296801 0 286.12834351 0 10105.70791368 0 1627.93562570 0 -299.94803428 0 5220
0.06850000 0.06852730 28424.99816019 0 -28.09161638 0 10218.42061294 0 1055.08906713 0 1264.03870523 0 5029
0.06950000 0.06949320 28605.58453343 0 -300.80263402 0 9692.97358351 0 390.92995360 0 -959.67816814 0 5040
0.07050000 0.07048030 28247.81700446 0 469.33234040 0 8953.78874079 0 1439.09983845 0 200.28830262 0 5475
0.07150000 0.07148790 27951.67292766 0 478.12439229 0 8431.13179280 0 -997.02351800 0 96.36150390 0 5509
0.07250000 0.07249820 27323.13568456 0 256.87093444 0 8800.80659845 0 610.83121056 0 1910.87624625 0 5916
0.07350000 0.07351270 26840.47356533 0 23.96657984 0 8840.63665863 0 887.24479808 0 981.81647572 0 5721
0.07450000 0.07449140 26623.52825685 0 118.07536759 0 8645.55064959 0 360.81904324 0 2521.34386746 0 6028
0.07550000 0.07549160 26106.59427118 0 783.83822872 0 7793.69704591 0 762.30297417 0 1198.12028516 0 6183
0.07650000 0.07648840 25352.28367201 0 337.77011459 0 7271.91886372 0 574.88309833 0 2691.57178875 0 6330
0.07750000 0.07749960 25708.84289800 0 209.55928188 0 7468.77338895 0 1542.21202128 0 1682.57288972 0 6583
0.07850000 0.07848650 25704.11953179 0 -336.12242870 0 6134.68606437 0 221.83783711 0 2800.60465619 0 6549
0.07950000 0.07947320 24801.84673996 0 547.49416506 0 6127.76578365 0 -472.66176435 0 950.56097290 0 6828
0.08050000 0.08048110 23630.78145707 0 1301.96843435 0 7018.77938858 0 -2010.81388760 0 537.01268590 0 7147
0.08150000 0.08149960 23196.34161147 0 300.24681465 0 7864.77821508 0 -563.08017509 0 282.04757480 0 7386
0.08250000 0.08250610 22267.92553690 0 347.76937101 0 7928.30199832 0 28.71301365 0 -1143.39514456 0 7227
0.08350000 0.08350160 22592.29996523 0 30.53722162 0 8073.96841532 0 705.29194402 0 -228.56149399 0 7798
0.08450000 0.08449610 22193.99936343 0 4.51450555 0 7351.04074002 0 1087.82748725 0 -1384.38568243 0 7371
0.08550000 0.08548940 22328.67022327 0 124.27615881 0 7500.06843623 0 600.07292017 0 429.91859552 0 8256
0.08650000 0.08650700 21900.49158405 0 403.72588220 0 6938.42724015 0 289.71480646 0 -40.06227404 0 8037
0.08750000 0.08749060 21641.58520831 0 233.38811518 0 7202.06796668 0 -87.19290085 0 2211.44710579 0 8155
0.08850000 0.08849210 21358.29308144 0 29.58936285 0 7691.40870603 0 102.00098346 0 -500.18031558 0 8718
0.08950000 0.08949900 21150.13543102 0 744.46402830 0 6553.26418716 0 306.68597110 0 725.57166192 0 8571
0.09050000 0.09049190 20512.15145550 0 305.63474750 0 8174.59808474 0 -309.26954257 0 432.07926094 0 8932
0.09150000 0.09150830 19886.79973844 0 298.61121179 0 7018.32902111 0 148.32138819 0 759.61724617 0 9285
0.09250000 0.09250820 19978.30122804 0 -6.35136774 0 7954.32445076 0 1222.15452997 0 378.53606035 0 9204
0.09350000 0.09350330 19466.96937438 0 115.08426848 0 6259.49277804 0 239.43622084 0 1291.65392069 0 9349
0.09450000 0.09448040 19555.28533794 0 159.18622893 0 6270.10387516 0 649.68474224 0 1838.90532670 0 9564
0.09550000 0.09549270 18910.05154451 0 388.29365618 0 6234.19530739 0 100.14645807 0 1303.36347507 0 10155
0.09650000 0.09649430 18717.49198716 0 221.23148870 0 5662.76685713 0 246.44987044 0 1103.64197639 0 9913
0.09750000 0.09749140 18719.13967304 0 240.79281556 0 5866.88218484 0 -218.78083056 0 -226.38984399 0 10476
0.09850000 0.09850240 17706.36208104 0 408.36796257 0 6626.38848683 0 -1104.02643643 0 503.46909661 0 10575
0.09950000 0.09950330 17370.34400578 0 316.92249429 0 6220.56345281 0 12.77450868 0 -579.02647911 0 10882
0.10050000 0.10051200 17320.69373771 0 20.44360772 0 6077.74204011 0 384.93786925 0 -1396.39182026 0 10875
0.10150000 0.10150300 17246.87740997 0 283.80620487 0 6299.52056053 0 418.43092951 0 -1797.99877840 0 11118
0.10250000 0.10250800 16751.58303227 0 89.90213583 0 5650.18952153 0 363.25761835 0 -366.09493345 0 11575
0.10350000 0.10349800 16900.20429930 0 33.97923744 0 5475.47989462 0 376.79720251 0 -335.29858576 0 11364
0.10450000 0.10450100 16178.95726361 0 159.35978518 0 5081.45229156 0 717.06960274 0 400.07790564 0 12093
0.10550000 0.10551000 16451.04512645 0 131.75884966 0 4923.14263151 0 534.26214893 0 -201.00998904 0 12067
0.10650000 0.10649700 15867.21509375 0 363.54431569 0 5165.98956214 0 -153.51159874 0 197.20383464 0 12054
0.10750000 0.10749900 15588.97587026 0 306.83206591 0 4884.80647321 0 -17.29751629 0 810.29127641 0 12807
0.10850000 0.10850100 15939.49358134 0 -116.64737316 0 4834.20054732 0 344.11260680 0 826.62753275 0 12736
0.10950000 0.10950300 15261.63560734 0 -5.57603267 0 4536.43075379 0 21.73077994 0 34.00603980 0 12933
0.11050000 0.11050200 15387.51880912 0 356.60536120 0 4956.23914870 0 107.56159379 0 531.81368770 0 13428
0.11150000 0.11150900 14796.87834142 0 450.10274764 0 4744.66529621 0 -723.25281864 0 262.73340083 0 13453
0.11250000 0.11250000 14957.03340966 0 261.68547261 0 5556.44717912 0 32.27080687 0 463.29412085 0 13668
0.11350000 0.11349100 14614.20489940 0 -337.08467726 0 4953.75663530 0 390.85525850 0 -91.34375114 0 13791
0.11450000 0.11448600 14762.71632070 0 32.61923751 0 5387.02113162 0 255.40669092 0 -1.86033623 0 14205
0.11550000 0.11549300 14618.04949980 0 230.91329098 0 5172.17387651 0 -70.98834954 0 -162.39042876 0 14776
0.11650000 0.11649800 14610.57999044 0 170.45310503 0 4921.79152909 0 19.30472724 0 510.08071084 0 14553
0.11750000 0.11747300 14428.78531422 0 57.12779616 0 5786.00277692 0 -553.77843903 0 -119.72744731 0 14568
0.11850000 0.11849100 14270.38777760 0 260.56504620 0 5630.39532174 0 -7.31204551 0 -1055.69980936 0 16015
0.11950000 0.11950300 14007.63680145 0 214.20905145 0 5922.85956672 0 147.09880527 0 92.06675571 0 15270
0.12050000 0.12050700 13704.24290676 0 12.03843247 0 5552.59159414 0 -57.79642709 0 -642.90726096 0 15999
0.12150000 0.12150000 13948.75949242 0 76.72097827 0 5648.36608248 0 500.58784322 0 -1001.96108338 0 15670
0.12250000 0.12250700 13747.96150563 0 121.62118762 0 5221.53854569 0 300.83119391 0 -615.29534086 0 16887
0.12350000 0.12352200 13678.31931547 0 -119.96691099 0 5066.60114943 0 495.28119621 0 379.21820231 0 16407
0.12450000 0.12449800 13413.26157908 0 24.57776146 0 4364.40136259 0 214.04538132 0 -562.94396639 0 16306
0.12550000 0.12549900 13479.38870602 0 278.24361731 0 4058.39313962 0 126.53348848 0 -236.31220840 0 17523
0.12650000 0.12650100 13312.97243141 0 257.84746295 0 4512.76998445 0 274.31004187 0 -263.18266985 0 17154
0.12750000 0.12750600 12904.56602284 0 198.02218530 0 4481.24426114 0 -384.88514331 0 -234.08014325 0 18007
0.12850000 0.12850300 12544.60157935 0 302.06036759 0 4571.53744776 0 36.54040038 0 -782.88586627 0 17496
0.12950000 0.12949900 12613.69454088 0 -100.06352455 0 4476.71861724 0 93.75365652 0 -368.70047406 0 18405
0.13050000 0.13049000 12212.42810449 0 52.81492343 0 4168.08508142 0 418.48695083 0 -424.14839954 0 18100
0.13150000 0.13148800 12243.73413634 0 198.14191714 0 4104.82492792 0 47.07251842 0 -248.88734709 0 19059
0.13250000 0.13249300 12178.81531239 0 171.48675331 0 3930.07136273 0 307.52409399 0 -103.94942694 0 18957
0.13350000 0.13349100 11940.77962455 0 121.44982829 0 3768.62011492 0 416.62067195 0 31.24462810 0 19468
0.13450000 0.13450700 12036.01586883 0 100.36428214 0 3694.68295688 0 151.87489742 0 151.51789882 0 19953
0.13550000 0.13551000 11726.58045921 0 -76.23271402 0 3923.57948033 0 -98.43176629 0 -24.31907478 0 19956
0.13650000 0.13649900 11481.62449065 0 136.66675669 0 3274.25942590 0 186.44883962 0 177.56232041 0 19723
0.13750000 0.13749600 11600.91694888 0 107.02170205 0 3369.03431813 0 351.35693242 0 -36.07926803 0 20946
0.13850000 0.13851100 11379.57781137 0 117.87544837 0 3039.99144646 0 -104.29533113 0 338.60933594 0 20955
0.13950000 0.13949800 11115.94806942 0 211.05538066 0 2959.04613111 0 249.45744641 0 -28.42422924 0 20506
0.14050000 0.14048300 11015.65892175 0 115.85209010 0 3128.71383920 0 50.07888609 0 -292.53784161 0 21447
0.14150000 0.14148400 10829.95373769 0 59.67962222 0 2728.58979835 0 230.57167077 0 110.17965682 0 21771
0.14250000 0.14249400 10832.10671391 0 74.33490942 0 2677.76418102 0 78.40974646 0 -236.94382132 0 22470
0.14350000 0.14350900 10582.38344085 0 180.14918725 0 2965.41718320 0 -220.97774508 0 -12.47572831 0 22519
0.14450000 0.14449900 10432.82848515 0 227.84310294 0 2780.54682666 0 0.77946637 0 -6.29792780 0 22218
0.14550000 0.14550500 10354.72817410 0 11.38638825 0 3038.83806634 0 -232.70487476 0 -260.11467873 0 23559
0.14650000 0.14650700 10305.30858206 0 62.03350628 0 3078.10791332 0 108.71090962 0 -316.28099525 0 23044
0.14750000 0.14750500 10033.37450323 0 85.37176857 0 3028.99588931 0 -39.07607912 0 -418.97466585 0 23649
0.14850000 0.14849900 10048.63207455 0 183.99818148 0 2971.93103475 0 212.07914283 0 -231.22195747 0 23640
0.14950000 0.14949500 9924.03406776 0 67.27336709 0 3238.54858044 0 115.90042222 0 -46.89028436 0 24457
0.15050000 0.15050000 10031.05675842 0 -94.42206776 0 2993.26307470 0 135.08717515 0 -274.67802505 0 24591
0.15150000 0.15149900 9980.12129536 0 49.44870116 0 2519.60830499 0 165.12888270 0 -813.16374214 0 25020
0.15250000 0.15250500 9869.89110951 0 130.98333883 0 2808.46961016 0 -98.60872775 0 -124.44861660 0 25297
0.15350000 0.15350100 9780.54259613 0 102.60919924 0 2580.19920735 0 196.96327250 0 145.87512388 0 25452
0.15450000 0.15450400 9741.38259488 0 55.28930825 0 2703.34725056 0 -199.02617523 0 -538.33632690 0 26061
0.15550000 0.15549900 9401.43204263 0 199.62153906 0 2568.80820558 0 -55.93871618 0 -480.20926417 0 26128
0.15650000 0.15649500 9367.70940480 0 213.97837543 0 2782.05171310 0 267.44029018 0 54.34122979 0 26331
0.15750000 0.15749700 9163.94558342 0 89.17979034 0 2679.49974348 0 -92.14595448 0 -40.96169085 0 27345
0.15850000 0.15849900 9114.49303766 0 -12.46869818 0 2716.84729026 0 252.80664259 0 65.30504153 0 26980
0.15950000 0.15949700 8923.65805820 0 113.37836436 0 2787.70876798 0 11.34651425 0 -27.47966584 0 27777
0.16050000 0.16050000 8526.21425307 0 232.02932355 0 2697.07505961 0 -102.35622454 0 304.26936513 0 28224
0.16150000 0.16150500 8778.01361035 0 114.86018320 0 2786.03911295 0 161.15136897 0 69.04056513 0 28075
0.16250000 0.16249700 8685.58941665 0 -54.79225634 0 2754.17286789 0 203.99779278 0 -365.18211547 0 28590
0.16350000 0.16349900 8727.93494395 0 1.04452191 0 2614.88848756 0 -39.26819929 0 -214.53419480 0 29163
0.16450000 0.16449100 8708.56914249 0 -45.02554332 0 2457.99583738 0 -179.98551712 0 -327.36992127 0 28996
0.16550000 0.16550500 8534.01329960 0 168.65712741 0 2614.50402752 0 -37.32590717 0 -441.66000515 0 30777
0.16650000 0.16650700 8279.22613857 0 144.88321698 0 2673.88662690 0 -261.23290821 0 -211.11579581 0 29211
0.16750000 0.16749900 8374.06693824 0 40.22089127 0 2398.58028429 0 424.38127248 0 -663.83836401 0 30922
0.16850000 0.16850800 8402.69273439 0 -85.79983736 0 2405.30284271 0 353.86580879 0 -375.15500891 0 30867
0.16950000 0.16949900 8413.04020176 0 182.64817751 0 2210.67818571 0 105.52505403 0 -413.05178432 0 30852
0.17050000 0.17049200 8151.47555945 0 111.52307005 0 2182.04140499 0 -183.78837614 0 -173.10587931 0 31257
0.17150000 0.17149500 8007.67651979 0 105.87634067 0 2393.20882830 0 -110.63771350 0 -224.91132052 0 32608
0.17250000 0.17250900 7898.19328487 0 110.19833059 0 2174.26432761 0 221.81037568 0 -57.47787449 0 32361
0.17350000 0.17350400 7988.56336350 0 -143.99895888 0 2184.82050186 0 428.61692367 0 163.21646861 0 32508
0.17450000 0.17449800 8022.42880077 0 39.95967814 0 1999.46682412 0 183.23695060 0 -283.37341271 0 32791
0.17550000 0.17549800 7973.53646821 0 228.89872036 0 1956.86865165 0 -276.94963466 0 -136.08896817 0 33633
0.17650000 0.17650100 7650.71086462 0 42.23930648 0 2150.24106737 0 -79.13560702 0 208.74752196 0 33984
0.17750000 0.17750300 7640.14370579 0 13.10382617 0 2191.35632254 0 85.03069759 0 322.88052646 0 34069
0.17850000 0.17849800 7774.32025987 0 -65.72959526 0 1902.01169618 0 293.14748539 0 169.04817820 0 34536
