### header ###
fiducial parameters:
Omega_m = 0.31
Omega_nu = 0
Omega_de = 0.69
Omega_k = 0
H_0 = 100
w_de = -1
zeff = 0
beta = 0
fgrowth = 0
b_1 = 2
gamma = 0.55
Lx = 3500 Ly = 3500 Lz = 3500
nx = 700 ny = 700 nz = 700
xoffset = -983.599254 yoffset = -42.9823471 zoffset = 800.977702
bins = 400 dk = 0.001
kx_ny = 0.628318531 ky_ny = 0.628318531 kz_ny = 0.628318531
############################
A(data) = 9.03198732 (not used)
A(ran) = 9.03469872 (used)
Ngal = 501900
weighted Ngal = 0
Nran = 25229228
weighted Nran = 0
SN(data) = 6729.45721
SN(ran) = 134.113878
SN(data+ran) = 6863.57109
############################
13 columns: k_central k_mean P_0(k) sigma^{lin}_{P_0(k)} P^img_1(k) sigma^{lin}_{P_1(k)} P_2(k) sigma^{lin}_{P_2(k)} P^img_3(k) sigma^{lin}_{P_3(k)} P_4(k) sigma^{lin}_{P_4(k)} N_modes
### header ###
0.00050000 0 0 0 0 0 0 0 0 0 0 0 0
0.00150000 0.00179520 10286.49200923 0 -8373.69346277 0 9944.86081737 0 -20686.25693091 0 -74322.49685117 0 3
0.00250000 0.00253879 45178.22887835 0 -22960.72252960 0 -8952.81111384 0 1394.82102638 0 91512.80371235 0 6
0.00350000 0.00331552 49904.23138575 0 -15959.81504061 0 -28112.15753308 0 -5919.35548806 0 -6774.61430925 0 7
0.00450000 0.00420575 59208.82343650 0 -9432.01309270 0 -23907.15330321 0 -12964.21225195 0 28087.11270759 0 24
0.00550000 0.00557378 66760.60724045 0 8814.95472794 0 9272.61595997 0 -33825.23373263 0 -41839.24835080 0 45
0.00650000 0.00659388 69717.10495072 0 10071.57884667 0 1287.43584482 0 -20223.25719661 0 19817.26739400 0 40
0.00750000 0.00754703 70026.65020606 0 -3127.07713788 0 16375.25157564 0 36122.21770512 0 15111.58634588 0 57
0.00850000 0.00846663 51447.89337061 0 -12164.09598513 0 15042.38353862 0 2960.43018725 0 12166.51259110 0 75
0.00950000 0.00948925 62963.67988199 0 4916.84847143 0 5712.99930755 0 18208.57673946 0 -595.66700811 0 112
0.01050000 0.01054430 66146.67947888 0 2450.53731260 0 -14412.85768398 0 4000.41656554 0 11236.66852209 0 105
0.01150000 0.01145670 65098.31187172 0 2772.23150522 0 6576.13406727 0 2060.89255399 0 20372.20800081 0 144
0.01250000 0.01249090 48293.56350815 0 5802.44668208 0 7742.98127430 0 -23268.18071616 0 6900.08009727 0 169
0.01350000 0.01339930 52363.23780381 0 -1111.39708464 0 18340.72114762 0 -43.33666529 0 -8769.78616548 0 180
0.01450000 0.01448870 55509.32923683 0 -3085.96188271 0 10784.46662263 0 -1933.60332692 0 -11276.98190346 0 267
0.01550000 0.01550050 64994.50766082 0 203.04323342 0 12488.36056773 0 -3643.85733955 0 -10226.58215037 0 238
0.01650000 0.01653350 64955.84196534 0 -6219.42105727 0 15168.59627758 0 -1607.18576809 0 -20274.11576766 0 315
0.01750000 0.01747870 72294.63490693 0 1657.12163505 0 14020.04936847 0 -10173.21909677 0 -36231.29451085 0 297
0.01850000 0.01844180 66285.30478486 0 2060.28840250 0 21401.90183459 0 -4163.51549922 0 -11514.57820839 0 388
0.01950000 0.01947590 71093.14235799 0 -4540.91245940 0 22323.50747416 0 11029.16994602 0 -8329.93092561 0 399
0.02050000 0.02045430 73519.74428693 0 -1183.37898876 0 22695.99433039 0 1080.38653778 0 -21992.87183946 0 462
0.02150000 0.02154770 76609.92424551 0 1499.76763282 0 15557.55999268 0 6907.47271462 0 -5468.83422821 0 571
0.02250000 0.02255340 70652.00192312 0 -3535.74717620 0 10569.83905896 0 -4105.44006399 0 -6669.50293421 0 510
0.02350000 0.02348930 79311.36018044 0 6514.37880022 0 22787.82535717 0 -1467.03360653 0 -17118.68744794 0 555
0.02450000 0.02439640 65177.95002293 0 5443.81137187 0 18490.22118045 0 -13461.37400698 0 -2567.27036542 0 592
0.02550000 0.02547300 64299.62359933 0 1517.22211865 0 29569.59062317 0 -164.23473849 0 -15658.39836898 0 837
0.02650000 0.02652900 65738.16322458 0 104.58257771 0 23506.10655827 0 3664.03599938 0 -9497.05274695 0 723
0.02750000 0.02749970 64245.35981078 0 -554.85163177 0 17526.43478216 0 8274.71147924 0 -17319.48543473 0 826
0.02850000 0.02848090 61965.62161724 0 1027.94728673 0 22763.76914322 0 -2244.68642242 0 -7297.97426988 0 831
0.02950000 0.02946900 58872.25613261 0 4132.86854172 0 21502.63036516 0 4138.28393600 0 -8396.16789828 0 996
0.03050000 0.03053250 59047.89944819 0 -1170.01076393 0 19208.72207299 0 1347.26881167 0 2168.51939615 0 1041
0.03150000 0.03150510 59558.13284459 0 -395.32597954 0 15490.99348284 0 9444.37073685 0 -3879.38854484 0 1036
0.03250000 0.03246190 58672.33691163 0 -2071.16312936 0 8454.78157757 0 -1560.73201065 0 -1017.48667827 0 1059
0.03350000 0.03345080 57373.30135816 0 3102.10920441 0 12485.28488741 0 2562.16253917 0 1495.41774208 0 1302
0.03450000 0.03451200 54802.03260832 0 1264.89550189 0 12965.64024639 0 151.58490471 0 4253.61096354 0 1339
0.03550000 0.03553350 58204.06458249 0 -837.86035667 0 13174.34712543 0 6197.26517437 0 -537.67505563 0 1365
0.03650000 0.03647120 54990.08849091 0 1986.13155301 0 15443.43028356 0 -4607.64373783 0 -6212.34699252 0 1308
0.03750000 0.03744890 53136.99109644 0 3044.20952233 0 14019.17060267 0 -7000.21546092 0 -1473.05315230 0 1579
0.03850000 0.03847530 49374.66514161 0 2125.49282534 0 18110.81404349 0 -3887.55008226 0 -1603.15442996 0 1662
0.03950000 0.03950240 46936.96879435 0 195.11456893 0 17406.15371240 0 3271.94168109 0 -3191.07325774 0 1683
0.04050000 0.04050350 45949.67541074 0 39.89662669 0 23950.10298201 0 2987.78177298 0 -3914.58311539 0 1822
0.04150000 0.04152450 43614.46512567 0 3473.16806620 0 17072.44239738 0 -584.64508798 0 -5527.38200007 0 1887
0.04250000 0.04250150 43672.13413173 0 1688.79015780 0 18215.38717446 0 -366.85067204 0 -3342.16605360 0 1920
0.04350000 0.04349210 42766.23643094 0 213.60599842 0 20103.63520120 0 2537.88663377 0 -4783.48477572 0 2005
0.04450000 0.04448520 41924.04925113 0 -1086.55876911 0 13240.80378955 0 4713.53501752 0 -4734.20798312 0 2151
0.04550000 0.04548030 41069.11996713 0 -679.72425288 0 12333.47809433 0 1209.03895031 0 -2868.71999077 0 2274
0.04650000 0.04648670 40316.89643676 0 1612.85380755 0 12781.64865565 0 -1062.84747074 0 -5300.75928314 0 2311
0.04750000 0.04749250 38574.08415100 0 2637.24209276 0 14077.49868307 0 -2836.23860965 0 -3043.18795708 0 2568
0.04850000 0.04851840 37582.94616699 0 679.82201557 0 14986.14252700 0 1287.08433850 0 -4065.39031236 0 2493
0.04950000 0.04949480 34929.95219714 0 613.59273211 0 14903.20900401 0 -1140.81377001 0 -3920.78939889 0 2644
0.05050000 0.05050630 36090.69198181 0 456.26728977 0 13544.52722143 0 2508.15139579 0 -5108.47434011 0 2829
0.05150000 0.05149060 35774.44613719 0 -782.19933049 0 14784.57562013 0 -14.01367832 0 -7552.43189373 0 2784
0.05250000 0.05249300 34554.16996913 0 1145.91061169 0 12298.32746207 0 601.98862963 0 -1857.54614637 0 3055
0.05350000 0.05348950 33762.29213174 0 1343.07270495 0 15930.48623182 0 -1620.92746839 0 -7111.84068749 0 3009
0.05450000 0.05448610 33458.78839132 0 345.98547642 0 13846.38327596 0 -101.51260936 0 -6319.30377575 0 3336
0.05550000 0.05550870 32689.97815635 0 303.79043777 0 14038.17391323 0 1705.24504753 0 -5977.22221642 0 3349
0.05650000 0.05647670 32696.23936272 0 -234.81501116 0 13321.86993520 0 1066.30211882 0 -3055.16114119 0 3324
0.05750000 0.05747970 32452.60154287 0 -184.16844236 0 12555.91568910 0 2859.44901151 0 -4215.20889779 0 3639
0.05850000 0.05849280 33219.87393768 0 296.35388213 0 11677.80895695 0 1703.75114566 0 -869.81667523 0 3846
0.05950000 0.05951020 32662.29703345 0 -290.76822697 0 10869.02586236 0 -227.76730939 0 -522.05499342 0 3787
0.06050000 0.06049470 32702.93995200 0 699.65136600 0 12495.72023136 0 -799.39787578 0 412.42786060 0 3930
0.06150000 0.06148310 30944.96895608 0 827.53595690 0 13050.88052962 0 -1391.27300944 0 -740.54912663 0 4083
0.06250000 0.06249100 31669.40151782 0 249.67713786 0 13724.45452031 0 445.40244903 0 1373.88443104 0 4303
0.06350000 0.06350600 31261.76402933 0 -18.28019615 0 14306.30732994 0 1751.28139122 0 -103.83749415 0 4470
0.06450000 0.06451750 31621.17924419 0 -148.11158286 0 13368.11498577 0 1835.96146125 0 -2.64810584 0 4479
0.06550000 0.06550280 31817.91293912 0 610.30504953 0 13322.96839246 0 -566.22615668 0 9.83129132 0 4636
0.06650000 0.06648880 30680.13091114 0 164.23803386 0 11807.31706769 0 86.21088006 0 970.89012138 0 4653
0.06750000 0.06749660 29954.05066352 0 -67.92189625 0 11847.63044906 0 2088.50776946 0 1998.40132058 0 5220
0.06850000 0.06852730 30211.52904482 0 195.86591370 0 9879.38178022 0 474.17983228 0 -565.15516085 0 5029
0.06950000 0.06949320 29722.05649060 0 1251.72499936 0 10057.61745492 0 97.58463605 0 556.26534626 0 5040
0.07050000 0.07048030 27979.68358775 0 1127.22585372 0 11251.05831217 0 -780.30449172 0 -744.60572929 0 5475
0.07150000 0.07148790 26921.97909389 0 180.75443720 0 10173.52666480 0 64.90201756 0 661.69747081 0 5509
0.07250000 0.07249820 27006.45045704 0 -188.95222372 0 10074.73141900 0 1690.76738087 0 -2268.70968266 0 5916
0.07350000 0.07351270 26535.54183048 0 696.11653054 0 9483.33301580 0 986.17185875 0 -642.58321606 0 5721
0.07450000 0.07449140 25551.54381864 0 499.68161598 0 7919.14086479 0 106.21938887 0 -147.71943362 0 6028
0.07550000 0.07549160 25732.78926623 0 74.75935330 0 9202.50143318 0 614.97898517 0 -1014.82072250 0 6183
0.07650000 0.07648840 24798.66121391 0 462.05286415 0 8300.36045622 0 59.62195321 0 -113.65627404 0 6330
0.07750000 0.07749960 24336.21070824 0 -155.90403865 0 7590.62525260 0 1362.01010808 0 784.69612384 0 6583
0.07850000 0.07848650 24256.46271130 0 62.86404981 0 7365.47446840 0 299.29664912 0 1981.21046449 0 6549
0.07950000 0.07947320 23995.90864967 0 644.53956844 0 6674.30319243 0 988.39403778 0 258.69327503 0 6828
0.08050000 0.08048110 24011.17720556 0 7.62195325 0 6926.77260864 0 449.67544776 0 2153.51447000 0 7147
0.08150000 0.08149960 24396.07662881 0 67.37651223 0 7023.40389364 0 306.49593799 0 687.72102172 0 7386
0.08250000 0.08250610 23662.85640900 0 712.51539895 0 7739.64196423 0 -1432.98143153 0 1638.33801593 0 7227
0.08350000 0.08350160 22280.33810392 0 357.11943919 0 8410.81033353 0 -997.20586191 0 2066.78028490 0 7798
0.08450000 0.08449610 22601.85654337 0 229.71816948 0 9115.22900402 0 -33.70033914 0 1502.57968340 0 7371
0.08550000 0.08548940 22095.35790165 0 318.25052911 0 8868.71322615 0 1112.08911271 0 1528.93167302 0 8256
0.08650000 0.08650700 22513.65042554 0 -193.62286398 0 8006.28147907 0 1471.17479039 0 2588.94292712 0 8037
0.08750000 0.08749060 22485.74961119 0 -1.90628469 0 8199.35731134 0 879.72695661 0 3324.86535178 0 8155
0.08850000 0.08849210 21748.13556235 0 372.05186716 0 7787.32599381 0 -160.86906545 0 3018.73629851 0 8718
0.08950000 0.08949900 21517.67922959 0 809.44546432 0 8132.98852380 0 -68.10709615 0 4200.59941626 0 8571
0.09050000 0.09049190 20043.11020627 0 577.97964934 0 7800.82603351 0 -445.75285689 0 2830.01035699 0 8932
0.09150000 0.09150830 19673.69903036 0 770.06137779 0 9116.97555106 0 -254.79485023 0 2522.25558698 0 9285
0.09250000 0.09250820 19451.15158987 0 119.26389834 0 8689.76355423 0 73.03257849 0 1702.99321015 0 9204
0.09350000 0.09350330 18998.03797088 0 302.08673056 0 8399.97954496 0 705.56216450 0 1101.79656820 0 9349
0.09450000 0.09448040 18438.37399787 0 -63.49291659 0 7738.70827556 0 -238.67828533 0 1252.48293487 0 9564
0.09550000 0.09549270 18109.38604905 0 285.51430591 0 7330.84011105 0 505.99115447 0 80.15178983 0 10155
0.09650000 0.09649430 18148.93051035 0 135.90113198 0 7037.24445509 0 975.28065504 0 354.90165399 0 9913
0.09750000 0.09749140 17811.37459492 0 -158.89513776 0 6022.12714913 0 644.68017097 0 -286.37989023 0 10476
0.09850000 0.09850240 17900.56932428 0 64.02259268 0 5617.90586271 0 142.18650441 0 612.78756294 0 10575
0.09950000 0.09950330 17625.07624394 0 405.43618015 0 5259.75387370 0 -1.64826807 0 -1267.98216678 0 10882
0.10050000 0.10051200 17014.00447124 0 545.24781996 0 5787.71637025 0 -842.85394337 0 -406.21059252 0 10875
0.10150000 0.10150300 16388.98229136 0 501.70826962 0 5996.76377104 0 -557.83174631 0 -1599.09013810 0 11118
0.10250000 0.10250800 15903.02480037 0 95.74636783 0 6294.99491663 0 519.81523907 0 -1332.64834557 0 11575
0.10350000 0.10349800 16008.80623432 0 214.89339032 0 6162.70770903 0 367.00225914 0 -864.88240522 0 11364
0.10450000 0.10450100 15681.24627995 0 164.18201254 0 6378.09320820 0 431.48279865 0 -1075.75544198 0 12093
0.10550000 0.10551000 15361.26568065 0 252.93516209 0 5513.85999122 0 415.10809631 0 -534.48843112 0 12067
0.10650000 0.10649700 15010.96766103 0 124.90008254 0 5861.56565171 0 37.81010713 0 -600.37938975 0 12054
0.10750000 0.10749900 15075.11756491 0 265.78491509 0 6073.62282539 0 -414.74011312 0 -449.97532659 0 12807
0.10850000 0.10850100 14882.88754474 0 17.46876578 0 5669.55532299 0 202.54123846 0 -373.40956033 0 12736
0.10950000 0.10950300 14540.82795455 0 -93.74442948 0 5725.89519576 0 734.95907764 0 427.23726135 0 12933
0.11050000 0.11050200 14929.90151538 0 11.54302825 0 5302.79142907 0 478.44624027 0 -442.97376003 0 13428
0.11150000 0.11150900 14768.09876126 0 157.49240784 0 4547.43729551 0 566.74243159 0 -184.99448221 0 13453
0.11250000 0.11250000 14553.02083012 0 -75.87802217 0 4619.13360075 0 328.86162623 0 407.80555245 0 13668
0.11350000 0.11349100 14167.79186969 0 250.68442317 0 4261.76151639 0 -271.15637108 0 -334.25285445 0 13791
0.11450000 0.11448600 13943.81643476 0 529.08182450 0 4170.73236341 0 -204.32513304 0 -1.06518389 0 14205
0.11550000 0.11549300 13627.46074441 0 196.68755973 0 4751.51966950 0 -288.11105886 0 -938.04075707 0 14776
0.11650000 0.11649800 13573.63633877 0 -287.79250626 0 4132.53900454 0 422.07011841 0 -1240.75141135 0 14553
0.11750000 0.11747300 13504.98276013 0 39.82335959 0 4226.74269900 0 463.64562717 0 -974.94013329 0 14568
0.11850000 0.11849100 13679.30792700 0 -58.37311715 0 3616.64855326 0 167.82339836 0 -840.34177162 0 16015
0.11950000 0.11950300 13906.13935080 0 164.43355926 0 3576.58781706 0 20.06398089 0 -956.97706174 0 15270
0.12050000 0.12050700 13412.82219617 0 224.26323074 0 3736.52319384 0 -200.05213431 0 -673.18293990 0 15999
0.12150000 0.12150000 13553.42472522 0 156.92889927 0 4328.42688739 0 127.62865037 0 -487.77873313 0 15670
0.12250000 0.12250700 13169.84345068 0 26.59716528 0 4612.99322468 0 -138.18152924 0 -130.26934161 0 16887
0.12350000 0.12352200 13193.78981890 0 183.95973548 0 4518.63574621 0 208.09943218 0 263.14971613 0 16407
0.12450000 0.12449800 12958.71996566 0 94.88506749 0 4131.31971699 0 238.32568055 0 150.16789485 0 16306
0.12550000 0.12549900 13017.37758325 0 113.16306673 0 4516.18618652 0 733.55524927 0 1107.23393163 0 17523
0.12650000 0.12650100 12714.64276290 0 304.35724171 0 4603.07415564 0 -264.78751590 0 865.24379766 0 17154
0.12750000 0.12750600 12421.35467498 0 214.62976058 0 4301.44877713 0 -29.23456116 0 1522.92311182 0 18007
0.12850000 0.12850300 12272.84325368 0 148.64982691 0 4133.75829210 0 182.00118619 0 712.49123289 0 17496
0.12950000 0.12949900 12133.99825625 0 -40.25131854 0 4029.86620463 0 487.82486834 0 1465.08933718 0 18405
0.13050000 0.13049000 12052.93211060 0 -89.98473982 0 3508.80201966 0 448.11454000 0 790.97270861 0 18100
0.13150000 0.13148800 12145.20252029 0 144.93045064 0 3657.37934839 0 -131.73358514 0 533.27353739 0 19059
0.13250000 0.13249300 12001.30461947 0 54.42954575 0 3166.85227520 0 -14.68033203 0 640.60269763 0 18957
0.13350000 0.13349100 11836.09664785 0 48.04652047 0 3384.14909001 0 -331.17168184 0 415.30911398 0 19468
0.13450000 0.13450700 11798.63925535 0 45.76458536 0 3043.77013943 0 679.84728009 0 106.44984520 0 19953
0.13550000 0.13551000 11991.19881270 0 -279.85725103 0 2766.76118807 0 278.44793036 0 123.15573241 0 19956
0.13650000 0.13649900 11583.67116993 0 433.13927220 0 3019.81278663 0 -263.01899972 0 -152.21981300 0 19723
0.13750000 0.13749600 11515.34712847 0 416.66351178 0 3184.28479189 0 -481.78115650 0 429.72197167 0 20946
0.13850000 0.13851100 11279.50835515 0 9.64487214 0 3061.09281039 0 533.27024202 0 166.62717840 0 20955
0.13950000 0.13949800 11283.79233846 0 -99.96751938 0 2762.91658767 0 464.17837894 0 262.71802243 0 20506
0.14050000 0.14048300 11305.10240927 0 -12.46529297 0 2387.15632880 0 748.61070445 0 815.43754866 0 21447
0.14150000 0.14148400 11168.78386353 0 98.30775047 0 2317.17361689 0 19.87383794 0 1166.33093211 0 21771
0.14250000 0.14249400 10854.17472023 0 126.33027389 0 2185.18299275 0 -106.17325366 0 710.97865724 0 22470
0.14350000 0.14350900 10879.92255836 0 215.15921698 0 2314.09793657 0 12.81976512 0 782.53216304 0 22519
0.14450000 0.14449900 10665.73437760 0 -3.19771892 0 2255.49524184 0 -374.21143413 0 499.46521990 0 22218
0.14550000 0.14550500 10559.14008527 0 325.68049401 0 2441.44208650 0 -296.53842295 0 -62.32283992 0 23559
0.14650000 0.14650700 10423.31584530 0 85.36605659 0 2488.99430121 0 -61.96309517 0 -247.10564942 0 23044
0.14750000 0.14750500 10267.96103528 0 107.92430438 0 2754.11794503 0 -12.22714743 0 -424.16707331 0 23649
0.14850000 0.14849900 10000.92607583 0 74.91544408 0 2653.58713677 0 162.27618920 0 166.06586674 0 23640
0.14950000 0.14949500 9967.55494433 0 -85.80445088 0 2126.17386884 0 476.17792603 0 -239.60098943 0 24457
0.15050000 0.15050000 10024.63078346 0 -12.42475989 0 2006.72762660 0 484.46249067 0 37.25615513 0 24591
0.15150000 0.15149900 9729.39842619 0 352.98155070 0 2026.46690352 0 -490.73138624 0 -239.83825620 0 25020
0.15250000 0.15250500 9476.40175050 0 417.21603578 0 2486.11634319 0 -389.30313840 0 196.45248987 0 25297
0.15350000 0.15350100 9201.55675994 0 100.19336219 0 2602.48690512 0 88.81927667 0 229.92577790 0 25452
0.15450000 0.15450400 9209.09217673 0 -87.75454205 0 2375.02936068 0 426.09706272 0 6.52503384 0 26061
0.15550000 0.15549900 9298.67136613 0 -93.03845100 0 2200.71517838 0 150.82037846 0 -249.82323267 0 26128
0.15650000 0.15649500 9073.66338138 0 146.05087704 0 2189.03857773 0 -70.97527789 0 224.45655921 0 26331
0.15750000 0.15749700 9061.90988871 0 127.68027786 0 2221.81654231 0 -230.87045114 0 13.81342956 0 27345
0.15850000 0.15849900 8913.35452912 0 206.62640100 0 2502.08791172 0 -372.32318610 0 -308.15021462 0 26980
0.15950000 0.15949700 8769.87404207 0 183.91140336 0 2930.48624240 0 -199.18764845 0 -48.72943135 0 27777
0.16050000 0.16050000 8588.90320879 0 38.14502675 0 2880.59431373 0 408.76780101 0 -302.42176002 0 28224
0.16150000 0.16150500 8851.72009237 0 0.75924267 0 2703.58891116 0 36.08970337 0 17.33596229 0 28075
0.16250000 0.16249700 8815.36115712 0 -91.29838486 0 2476.58173419 0 395.77634702 0 161.63688708 0 28590
0.16350000 0.16349900 8778.76056128 0 -11.80808599 0 2461.24727087 0 -104.04103828 0 30.78668127 0 29163
0.16450000 0.16449100 8672.90223532 0 133.60645476 0 2465.68503819 0 58.98715476 0 600.16958441 0 28996
0.16550000 0.16550500 8718.43328867 0 81.76454478 0 2688.84761475 0 164.91138816 0 358.90443224 0 30777
0.16650000 0.16650700 8447.45486766 0 100.06187686 0 2386.69497676 0 138.20679376 0 594.11159263 0 29211
0.16750000 0.16749900 8417.59879938 0 139.84679045 0 2506.11924986 0 -192.70125834 0 715.12972722 0 30922
0.16850000 0.16850800 8235.10111052 0 89.46637784 0 2757.65497740 0 58.48900440 0 633.27269234 0 30867
0.16950000 0.16949900 8122.39939583 0 93.26253628 0 2681.02659907 0 36.90442912 0 388.37054819 0 30852
0.17050000 0.17049200 8157.15458348 0 7.48377832 0 2424.37206071 0 269.21979094 0 679.73304053 0 31257
0.17150000 0.17149500 8186.75800658 0 -17.64616662 0 2298.74150410 0 137.48071351 0 406.20510023 0 32608
0.17250000 0.17250900 8186.35157740 0 57.34342332 0 2200.22087262 0 111.50769164 0 499.39931247 0 32361
0.17350000 0.17350400 8034.46789232 0 52.99276366 0 2126.94278893 0 105.86096226 0 723.05180097 0 32508
0.17450000 0.17449800 8061.98424663 0 -31.39478720 0 2134.48919029 0 -72.27618082 0 81.82397131 0 32791
0.17550000 0.17549800 8121.78425977 0 158.40632428 0 1952.80435979 0 105.23187579 0 164.47639909 0 33633
0.17650000 0.17650100 7896.72135215 0 -6.57901203 0 1992.39275938 0 -127.90765851 0 416.89858164 0 33984
0.17750000 0.17750300 7927.78572341 0 49.01503024 0 2001.74063064 0 117.53382816 0 -19.56220562 0 34069
0.17850000 0.17849800 7833.14264605 0 94.95130447 0 1891.66422881 0 -208.66843304 0 42.20437554 0 34536
