### header ###
fiducial parameters:
Omega_m = 0.31
Omega_nu = 0
Omega_de = 0.69
Omega_k = 0
H_0 = 100
w_de = -1
zeff = 0
beta = 0
fgrowth = 0
b_1 = 2
gamma = 0.55
Lx = 3500 Ly = 3500 Lz = 3500
nx = 700 ny = 700 nz = 700
xoffset = -983.599254 yoffset = -42.9823471 zoffset = 800.977702
bins = 400 dk = 0.001
kx_ny = 0.628318531 ky_ny = 0.628318531 kz_ny = 0.628318531
############################
A(data) = 9.01981996 (not used)
A(ran) = 9.02140796 (used)
Ngal = 500993
weighted Ngal = 0
Nran = 25229228
weighted Nran = 0
SN(data) = 6742.95816
SN(ran) = 133.916586
SN(data+ran) = 6876.87475
############################
13 columns: k_central k_mean P_0(k) sigma^{lin}_{P_0(k)} P^img_1(k) sigma^{lin}_{P_1(k)} P_2(k) sigma^{lin}_{P_2(k)} P^img_3(k) sigma^{lin}_{P_3(k)} P_4(k) sigma^{lin}_{P_4(k)} N_modes
### header ###
0.00050000 0 0 0 0 0 0 0 0 0 0 0 0
0.00150000 0.00179520 23879.69187176 0 -42096.94642356 0 -48964.61104714 0 30114.09588603 0 4304.32673514 0 3
0.00250000 0.00253879 24053.02842709 0 -20620.01995825 0 -13384.26230746 0 -17388.79808772 0 45269.62052223 0 6
0.00350000 0.00331552 35975.90319833 0 10913.18384414 0 -11252.48630660 0 -44373.27939959 0 -26710.74576315 0 7
0.00450000 0.00420575 53968.08385795 0 -4504.48761672 0 -27978.58513049 0 -33396.61571051 0 -11774.80273285 0 24
0.00550000 0.00557378 69705.46130378 0 -21843.37180663 0 -20190.96255322 0 11316.52636475 0 -301.77147333 0 45
0.00650000 0.00659388 79420.65667763 0 -3870.02968900 0 -15371.15179598 0 -41163.69713705 0 9801.22654630 0 40
0.00750000 0.00754703 71581.51645495 0 10631.70417174 0 -23817.84872813 0 -15686.51887479 0 8222.00750000 0 57
0.00850000 0.00846663 101679.02563638 0 -8650.05432435 0 11257.31951854 0 -11841.80862559 0 -43228.46724517 0 75
0.00950000 0.00948925 90550.33546277 0 -5649.33272487 0 -15308.42988654 0 2847.64059599 0 -16715.99301711 0 112
0.01050000 0.01054430 97440.07907724 0 5685.86741327 0 10980.73896551 0 -18468.14218956 0 -24031.93804774 0 105
0.01150000 0.01145670 89100.15219058 0 4569.29659495 0 19882.84529231 0 -30854.78561519 0 -24094.65995718 0 144
0.01250000 0.01249090 85425.81266212 0 11601.24648606 0 28388.19984205 0 -5969.58793848 0 -34389.84076331 0 169
0.01350000 0.01339930 77641.26576518 0 1699.92851440 0 47522.11697576 0 -17668.13576846 0 -9581.04078891 0 180
0.01450000 0.01448870 75965.34952644 0 2453.21754831 0 50545.95011595 0 10064.18622933 0 -33065.43084718 0 267
0.01550000 0.01550050 84052.52139800 0 -2645.29378447 0 38987.87300014 0 16841.54668172 0 -6642.07445648 0 238
0.01650000 0.01653350 82939.23496688 0 -1306.13158736 0 36042.57955390 0 15185.29282790 0 -21068.08067384 0 315
0.01750000 0.01747870 87618.99242371 0 2679.12626802 0 23686.47324005 0 -6333.67159668 0 1933.50446577 0 297
0.01850000 0.01844180 76882.78102843 0 -2395.72429542 0 34007.46779176 0 7052.76565615 0 2221.12451424 0 388
0.01950000 0.01947590 79091.33919164 0 6208.27171610 0 29709.64392358 0 -441.08880738 0 3210.25232147 0 399
0.02050000 0.02045430 77849.31356987 0 1117.03217037 0 29865.40516279 0 9406.18836256 0 9007.37148585 0 462
0.02150000 0.02154770 76471.29893954 0 -762.49520419 0 33069.16560186 0 5704.42035636 0 3233.19909359 0 571
0.02250000 0.02255340 76108.80804435 0 5732.82646106 0 31252.86652553 0 568.15614608 0 19543.97122818 0 510
0.02350000 0.02348930 75210.70939010 0 1693.74420004 0 26653.95552290 0 -1995.17185624 0 7866.15128665 0 555
0.02450000 0.02439640 69381.52625836 0 -678.37974119 0 41236.63469899 0 -4243.13168129 0 3039.25548010 0 592
0.02550000 0.02547300 69998.20016308 0 4266.92426551 0 33294.45918550 0 7846.54382460 0 9693.09441381 0 837
0.02650000 0.02652900 68928.19294793 0 -4833.57442669 0 30218.55917128 0 2944.40369586 0 7770.77224293 0 723
0.02750000 0.02749970 69320.67172626 0 14.50172288 0 24225.59606235 0 10958.46225232 0 -1252.34013543 0 826
0.02850000 0.02848090 71627.98119697 0 5175.42530999 0 26922.52832252 0 -4366.86190685 0 1884.49130291 0 831
0.02950000 0.02946900 66438.21003519 0 735.83784345 0 25773.65187623 0 -1237.81853047 0 2839.08361395 0 996
0.03050000 0.03053250 60595.29618772 0 912.24568528 0 22376.89249691 0 8458.96669972 0 6596.19189681 0 1041
0.03150000 0.03150510 63910.76972995 0 -1035.15096943 0 19515.96056810 0 10105.07080847 0 8321.83529562 0 1036
0.03250000 0.03246190 63863.86560503 0 301.83957768 0 10415.01150843 0 1768.35141701 0 -3170.92755163 0 1059
0.03350000 0.03345080 61461.97896439 0 5069.51206116 0 19912.50363828 0 -5069.22646227 0 1462.50796263 0 1302
0.03450000 0.03451200 52639.82934141 0 5841.45289931 0 17724.48662580 0 -7001.31391818 0 13344.05877182 0 1339
0.03550000 0.03553350 51600.46908376 0 -1337.21792776 0 24006.12430217 0 1961.99844704 0 -1411.80317559 0 1365
0.03650000 0.03647120 48233.80743331 0 -269.97003725 0 22977.19938848 0 6584.24068184 0 1460.83830759 0 1308
0.03750000 0.03744890 50345.15212917 0 501.90599193 0 18276.90078092 0 2350.05044263 0 -3445.08051411 0 1579
0.03850000 0.03847530 50604.93727072 0 1542.68435790 0 23018.61122711 0 -2551.79310265 0 503.74371092 0 1662
0.03950000 0.03950240 44707.86948042 0 3301.06178300 0 18557.00738174 0 1602.22074129 0 1711.81382193 0 1683
0.04050000 0.04050350 44370.86279363 0 1480.88515255 0 21498.12669040 0 2347.53497550 0 6133.43382310 0 1822
0.04150000 0.04152450 43802.19147109 0 -557.38137884 0 21747.25679654 0 2182.45881875 0 3843.97428283 0 1887
0.04250000 0.04250150 42406.27198745 0 952.53160522 0 19688.30851190 0 5896.35379308 0 5399.84012783 0 1920
0.04350000 0.04349210 40458.04819443 0 1307.84518068 0 17980.75670413 0 -375.99972254 0 10231.52520803 0 2005
0.04450000 0.04448520 40013.83207924 0 -230.26080736 0 15903.57402899 0 3750.72624619 0 10869.92659731 0 2151
0.04550000 0.04548030 41675.68806507 0 -774.68917821 0 15914.33891012 0 1320.81796090 0 7686.47663294 0 2274
0.04650000 0.04648670 40107.31079190 0 1387.02197985 0 13572.97726441 0 32.72392049 0 4654.43801703 0 2311
0.04750000 0.04749250 38822.22564561 0 1309.24022140 0 15864.35910488 0 -870.05174508 0 6577.70486115 0 2568
0.04850000 0.04851840 38310.89379195 0 499.45643224 0 14733.71704908 0 916.47584418 0 7059.41132256 0 2493
0.04950000 0.04949480 39740.86545059 0 -959.54635327 0 15476.49384703 0 2074.12896395 0 2054.88399279 0 2644
0.05050000 0.05050630 37704.54538546 0 948.56617452 0 13548.48166755 0 356.24836259 0 1518.48534450 0 2829
0.05150000 0.05149060 36558.41508232 0 978.77374912 0 14405.38817463 0 -2167.39896974 0 2554.55023037 0 2784
0.05250000 0.05249300 36028.73899245 0 727.82789312 0 13033.41505922 0 323.32430319 0 -2219.26812147 0 3055
0.05350000 0.05348950 34599.42640817 0 432.01884580 0 14291.80769413 0 -760.86069979 0 -1881.69023690 0 3009
0.05450000 0.05448610 34137.52513112 0 1182.77483727 0 13940.63090871 0 -951.38481584 0 -1944.01670173 0 3336
0.05550000 0.05550870 33955.29107200 0 525.61838876 0 13040.66487712 0 2274.11409237 0 -3539.13042456 0 3349
0.05650000 0.05647670 33518.98384907 0 -267.94448206 0 11997.89940197 0 189.74970368 0 -4355.25121363 0 3324
0.05750000 0.05747970 32196.33146455 0 74.51088227 0 11124.62588176 0 3678.37086660 0 -3264.72481690 0 3639
0.05850000 0.05849280 33129.25121388 0 23.71712020 0 10055.89287703 0 602.29949304 0 -1226.57032815 0 3846
0.05950000 0.05951020 32614.51414272 0 364.80644308 0 10717.54860646 0 -1881.99780493 0 -2689.46275082 0 3787
0.06050000 0.06049470 31988.50335131 0 560.37467487 0 9968.88407761 0 933.45030419 0 -1076.30467061 0 3930
0.06150000 0.06148310 32890.88598886 0 -361.54951731 0 11503.81332726 0 -687.72651400 0 -1366.85430459 0 4083
0.06250000 0.06249100 31690.27220572 0 334.14520564 0 11198.99143813 0 909.78294411 0 -568.80423586 0 4303
0.06350000 0.06350600 31501.88678595 0 306.71672790 0 11094.85769006 0 783.73717065 0 1211.35669513 0 4470
0.06450000 0.06451750 31447.18361450 0 745.84698599 0 12539.43883023 0 -11.37452491 0 656.10412645 0 4479
0.06550000 0.06550280 31003.18719076 0 914.36570779 0 12440.57767700 0 506.84685268 0 -486.63963296 0 4636
0.06650000 0.06648880 30109.70205699 0 -111.94817301 0 12680.81027935 0 -97.52828520 0 2221.36617483 0 4653
0.06750000 0.06749660 29615.17659938 0 -453.59474326 0 11697.91072478 0 1394.68921151 0 893.32366055 0 5220
0.06850000 0.06852730 30700.23267897 0 404.89573918 0 10527.31777850 0 997.45191633 0 -1547.06720236 0 5029
0.06950000 0.06949320 30320.27631338 0 806.12812340 0 11036.96899256 0 -398.42582593 0 242.45917522 0 5040
0.07050000 0.07048030 28553.51765940 0 102.58854825 0 9558.20386251 0 376.01400249 0 64.27194248 0 5475
0.07150000 0.07148790 28885.58128853 0 244.34742324 0 10023.32361932 0 1212.54302896 0 -1715.25199315 0 5509
0.07250000 0.07249820 28846.47621014 0 565.04751204 0 10015.05223617 0 -1595.77279718 0 -2540.41308546 0 5916
0.07350000 0.07351270 26631.43714911 0 350.97796466 0 9889.89401618 0 -773.77965560 0 -1252.23028970 0 5721
0.07450000 0.07449140 26780.82733622 0 545.47300370 0 10819.92482292 0 1178.42494653 0 -1116.79050977 0 6028
0.07550000 0.07549160 27259.75470076 0 -78.15479453 0 9437.99968475 0 657.95612539 0 -3211.86705364 0 6183
0.07650000 0.07648840 27425.18236384 0 -59.38248953 0 9605.22881773 0 1122.62331781 0 -1440.26420315 0 6330
0.07750000 0.07749960 26674.71636508 0 306.49154416 0 8539.01128012 0 1509.84048588 0 -1152.32560207 0 6583
0.07850000 0.07848650 26083.08728585 0 396.14762557 0 8368.25609935 0 -255.66372992 0 976.23631285 0 6549
0.07950000 0.07947320 26059.14091762 0 186.68171256 0 8273.20659280 0 639.65472901 0 -1575.16573902 0 6828
0.08050000 0.08048110 24981.77403885 0 1097.16547240 0 8235.28784825 0 -820.11368121 0 135.37167558 0 7147
0.08150000 0.08149960 24151.12066024 0 440.14962642 0 8319.27589021 0 90.83461620 0 936.62923949 0 7386
0.08250000 0.08250610 23489.73954512 0 579.63063060 0 9111.73590994 0 -466.96186963 0 -1431.39965307 0 7227
0.08350000 0.08350160 22770.46973250 0 570.80672345 0 9620.56328105 0 58.97737849 0 -1407.36540827 0 7798
0.08450000 0.08449610 22892.17879670 0 260.94950624 0 9350.05719667 0 236.12547067 0 -1924.25545565 0 7371
0.08550000 0.08548940 21896.64698365 0 93.31954621 0 8815.69069430 0 -217.89547401 0 -1556.56885764 0 8256
0.08650000 0.08650700 21315.12371119 0 141.39012290 0 8968.84858980 0 849.49741286 0 -1569.80526760 0 8037
0.08750000 0.08749060 21423.10205967 0 689.15340998 0 8481.61688839 0 287.48054440 0 -2083.69652667 0 8155
0.08850000 0.08849210 20996.57110633 0 587.33191444 0 8851.70910780 0 -531.08211516 0 -994.88811709 0 8718
0.08950000 0.08949900 20498.96996840 0 39.28621399 0 9271.04516609 0 1183.71951051 0 -1443.13117659 0 8571
0.09050000 0.09049190 19824.51721190 0 19.18104095 0 8468.60016988 0 906.12178606 0 367.45482353 0 8932
0.09150000 0.09150830 20100.66936660 0 -0.91166350 0 8064.91712751 0 -99.64841755 0 -1160.95947612 0 9285
0.09250000 0.09250820 19787.60904803 0 492.20112205 0 8042.46466116 0 -92.03819582 0 -444.59947677 0 9204
0.09350000 0.09350330 19174.56005227 0 383.52635168 0 8442.42393342 0 -366.26848970 0 -312.16617436 0 9349
0.09450000 0.09448040 18610.94163312 0 337.91950478 0 8055.31661108 0 215.84245739 0 603.15958507 0 9564
0.09550000 0.09549270 18579.96513844 0 88.89759667 0 7931.07011061 0 1018.82350075 0 -941.91172045 0 10155
0.09650000 0.09649430 18078.29970865 0 232.21056900 0 8278.17161961 0 1023.03608433 0 367.82390517 0 9913
0.09750000 0.09749140 18133.22257156 0 312.20681728 0 6861.60113952 0 -10.65177299 0 6.28926097 0 10476
0.09850000 0.09850240 17236.99129464 0 -141.00456440 0 7208.62575651 0 721.43597034 0 1786.33316232 0 10575
0.09950000 0.09950330 17259.72935989 0 504.64993816 0 6601.68418310 0 547.27337515 0 525.73702214 0 10882
0.10050000 0.10051200 16561.33023517 0 541.21428491 0 6528.48299141 0 270.31495283 0 2088.80435292 0 10875
0.10150000 0.10150300 16314.39704354 0 359.55362048 0 6815.16935122 0 -268.53435361 0 2489.23596180 0 11118
0.10250000 0.10250800 16168.74161111 0 -82.99822212 0 6904.13340455 0 876.18333349 0 1555.95372157 0 11575
0.10350000 0.10349800 16067.46385191 0 -311.41482960 0 6220.92594371 0 507.01162127 0 1997.39073990 0 11364
0.10450000 0.10450100 16013.30990908 0 160.90751146 0 6256.62580460 0 -131.41613099 0 1902.37418707 0 12093
0.10550000 0.10551000 15820.42081455 0 212.93813640 0 6226.44019915 0 446.70192396 0 1804.34786136 0 12067
0.10650000 0.10649700 15965.63686408 0 363.79146858 0 6197.59471155 0 -491.76942835 0 1125.25961523 0 12054
0.10750000 0.10749900 15432.00632808 0 273.11601883 0 6170.28706411 0 -43.71464443 0 1557.35974687 0 12807
0.10850000 0.10850100 15473.96739534 0 25.27275537 0 6459.55479847 0 345.80862481 0 1106.50894984 0 12736
0.10950000 0.10950300 15041.50477281 0 84.43181869 0 6420.02132175 0 -11.43285299 0 1259.00777098 0 12933
0.11050000 0.11050200 14957.25310111 0 166.91497420 0 5611.34807288 0 995.69987701 0 1799.76729459 0 13428
0.11150000 0.11150900 15088.40889773 0 -328.93961669 0 5178.70969719 0 800.88628536 0 1432.77272465 0 13453
0.11250000 0.11250000 14981.52900652 0 -1.45128173 0 4678.39536983 0 549.42635137 0 1397.75390726 0 13668
0.11350000 0.11349100 15006.79352345 0 470.45935754 0 4287.49836995 0 -39.52315122 0 1762.90306901 0 13791
0.11450000 0.11448600 14310.59131325 0 211.36624407 0 4240.55030674 0 -270.04363388 0 1764.62764690 0 14205
0.11550000 0.11549300 14343.43518527 0 149.45938991 0 4720.07083820 0 -187.79664668 0 800.31069376 0 14776
0.11650000 0.11649800 13796.62316217 0 398.19405145 0 4397.14637346 0 76.87662967 0 942.60704389 0 14553
0.11750000 0.11747300 13941.28998306 0 -52.91488304 0 4519.15202112 0 24.83161493 0 349.45989673 0 14568
0.11850000 0.11849100 13664.47875401 0 9.59248671 0 4263.98040005 0 -20.92725845 0 110.27741952 0 16015
0.11950000 0.11950300 13361.41439649 0 324.99505668 0 4459.53874572 0 -41.91482221 0 131.01629255 0 15270
0.12050000 0.12050700 13509.04705199 0 185.57886148 0 4330.15146528 0 -242.12304730 0 -400.20093286 0 15999
0.12150000 0.12150000 13053.07744414 0 -111.11114857 0 4312.58713373 0 316.12721123 0 -268.82214941 0 15670
0.12250000 0.12250700 13006.61270212 0 -42.81621624 0 4224.19427816 0 421.91303902 0 -435.71515447 0 16887
0.12350000 0.12352200 13167.53669043 0 247.26931955 0 4238.24354650 0 -121.58054470 0 -194.59170328 0 16407
0.12450000 0.12449800 13042.64210018 0 201.00669367 0 4360.43593189 0 -239.05615463 0 99.63380807 0 16306
0.12550000 0.12549900 13254.20496810 0 -126.64333420 0 4150.69650302 0 176.85820930 0 -500.08694671 0 17523
0.12650000 0.12650100 13071.42168035 0 20.10022998 0 4691.71965637 0 18.62533142 0 -414.17440764 0 17154
0.12750000 0.12750600 12759.45981904 0 347.93963189 0 4449.44392352 0 -211.24101994 0 -409.06548293 0 18007
0.12850000 0.12850300 12474.41016055 0 253.21856406 0 5220.41811928 0 -47.36448836 0 144.06157095 0 17496
0.12950000 0.12949900 12468.47849136 0 98.94496552 0 4684.67854535 0 149.50222975 0 333.17197251 0 18405
0.13050000 0.13049000 12427.83557281 0 27.08960367 0 5107.37588285 0 637.21176007 0 385.40800896 0 18100
0.13150000 0.13148800 12450.13425515 0 -58.21076517 0 4502.34562507 0 254.99586790 0 82.79885213 0 19059
0.13250000 0.13249300 12437.39215095 0 139.31843251 0 4354.19669466 0 -73.66166496 0 912.21163310 0 18957
0.13350000 0.13349100 11980.98316020 0 178.59157486 0 4677.11017484 0 -115.14688054 0 243.31487342 0 19468
0.13450000 0.13450700 11845.21384309 0 248.42489659 0 4694.11429319 0 -442.01480684 0 419.08451158 0 19953
0.13550000 0.13551000 11781.94270502 0 221.18425504 0 5283.38168932 0 405.16156583 0 78.24453849 0 19956
0.13650000 0.13649900 11444.16709815 0 -121.57175704 0 4475.10388507 0 234.18229978 0 21.63246801 0 19723
0.13750000 0.13749600 11661.11240663 0 82.55323709 0 4522.01899456 0 573.62426631 0 339.41230819 0 20946
0.13850000 0.13851100 11547.31223469 0 53.04647822 0 3903.85118797 0 228.15945863 0 131.85112007 0 20955
0.13950000 0.13949800 11252.04692370 0 -29.54586395 0 3676.50348926 0 456.58035009 0 149.20564629 0 20506
0.14050000 0.14048300 11409.23615734 0 197.92552106 0 3396.05636668 0 -90.87339174 0 -193.45919385 0 21447
0.14150000 0.14148400 10924.00364813 0 135.45405987 0 3245.38098459 0 -34.02515295 0 341.22476267 0 21771
0.14250000 0.14249400 11066.84702998 0 2.13950914 0 3304.97229084 0 151.03677454 0 80.18155802 0 22470
0.14350000 0.14350900 10586.22804125 0 50.39238579 0 3000.35910859 0 144.47788625 0 -127.53747841 0 22519
0.14450000 0.14449900 10708.81587126 0 220.78441660 0 2980.19143333 0 129.11266612 0 -278.06237187 0 22218
0.14550000 0.14550500 10629.19968919 0 237.01741796 0 2911.26324038 0 -239.74598579 0 -778.42503135 0 23559
0.14650000 0.14650700 10454.86353775 0 50.61185755 0 2950.14862732 0 53.16840697 0 241.37170253 0 23044
0.14750000 0.14750500 10048.03890763 0 70.60531749 0 3247.65479111 0 -5.58340332 0 -158.10644545 0 23649
0.14850000 0.14849900 10385.13347101 0 93.45718290 0 3249.12672384 0 11.46778393 0 -358.83852480 0 23640
0.14950000 0.14949500 10092.88891748 0 22.43126613 0 2750.03168403 0 396.71992181 0 -226.86986981 0 24457
0.15050000 0.15050000 10105.55412967 0 80.15288829 0 2989.64915032 0 273.80694845 0 483.66501070 0 24591
0.15150000 0.15149900 10059.38597111 0 175.95308052 0 2860.20694702 0 42.00291848 0 182.22197609 0 25020
0.15250000 0.15250500 9887.52134850 0 84.85153921 0 3170.25749270 0 -180.30187281 0 786.12301981 0 25297
0.15350000 0.15350100 9476.86310255 0 166.72933493 0 3006.26880863 0 -53.51233394 0 664.80500640 0 25452
0.15450000 0.15450400 9565.54155699 0 83.89763892 0 3211.58145475 0 234.72383920 0 860.32051223 0 26061
0.15550000 0.15549900 9432.11195385 0 42.49294027 0 2984.60723150 0 311.99701194 0 727.07325299 0 26128
0.15650000 0.15649500 9421.42396473 0 163.04181391 0 2890.44747534 0 118.04790616 0 733.33995165 0 26331
0.15750000 0.15749700 9107.72654095 0 230.62879055 0 3156.46086954 0 -274.63738214 0 938.31756830 0 27345
0.15850000 0.15849900 8916.12264141 0 99.27966545 0 2996.10807900 0 179.38246408 0 856.89442404 0 26980
0.15950000 0.15949700 8799.49943432 0 -110.92550930 0 2812.57784031 0 448.80107578 0 725.13996821 0 27777
0.16050000 0.16050000 8820.04058504 0 70.64057797 0 2325.00561714 0 267.61055106 0 499.60252706 0 28224
0.16150000 0.16150500 8797.64304155 0 118.94314883 0 2555.89034823 0 -219.72330689 0 630.62541035 0 28075
0.16250000 0.16249700 8796.09421682 0 68.14433385 0 2315.78956074 0 102.92896015 0 841.71704011 0 28590
0.16350000 0.16349900 8592.79174748 0 -164.79824707 0 2239.60056532 0 266.29569772 0 417.95969135 0 29163
0.16450000 0.16449100 8761.95416523 0 116.98350108 0 1920.77334615 0 -69.12261988 0 97.88429519 0 28996
0.16550000 0.16550500 8641.28863543 0 278.65004650 0 2151.89973783 0 -65.43323149 0 516.93837951 0 30777
0.16650000 0.16650700 8399.56213120 0 92.33148391 0 2259.51559541 0 -240.45229381 0 707.55147060 0 29211
0.16750000 0.16749900 8332.02897897 0 -21.81909590 0 2393.32965860 0 43.15465092 0 243.23139067 0 30922
0.16850000 0.16850800 8228.14787607 0 136.43168683 0 2525.90246508 0 177.18115574 0 522.69100017 0 30867
0.16950000 0.16949900 8271.08657029 0 -64.61312330 0 2102.35931549 0 286.37769331 0 792.62588678 0 30852
0.17050000 0.17049200 8416.40148097 0 -75.82068271 0 2062.54023988 0 341.44665103 0 716.00519766 0 31257
0.17150000 0.17149500 8287.04715425 0 186.26210189 0 2156.29356686 0 -7.08247892 0 603.56821117 0 32608
0.17250000 0.17250900 8146.64234752 0 284.59599564 0 2249.59652637 0 -532.62874298 0 878.52304745 0 32361
0.17350000 0.17350400 7766.29053732 0 129.65750092 0 2370.86620767 0 -99.94906530 0 674.99868975 0 32508
0.17450000 0.17449800 7845.57718221 0 -88.38472698 0 2349.28152254 0 185.57776302 0 262.14792311 0 32791
0.17550000 0.17549800 7718.95801406 0 41.08131284 0 2365.42884424 0 -118.52683352 0 197.07751205 0 33633
0.17650000 0.17650100 7714.35547815 0 164.86195759 0 2391.47326583 0 -5.66314033 0 144.21096113 0 33984
0.17750000 0.17750300 7631.30112486 0 9.99646634 0 2189.88438982 0 -6.56724755 0 -11.72306540 0 34069
0.17850000 0.17849800 7636.16729052 0 27.45198472 0 2175.43967687 0 280.13296380 0 -307.33406088 0 34536
