### header ###
fiducial parameters:
Omega_m = 0.31
Omega_nu = 0
Omega_de = 0.69
Omega_k = 0
H_0 = 100
w_de = -1
zeff = 0
beta = 0
fgrowth = 0
b_1 = 2
gamma = 0.55
Lx = 3500 Ly = 3500 Lz = 3500
nx = 700 ny = 700 nz = 700
xoffset = -983.599254 yoffset = -42.9823471 zoffset = 800.977702
bins = 400 dk = 0.001
kx_ny = 0.628318531 ky_ny = 0.628318531 kz_ny = 0.628318531
############################
A(data) = 9.00927367 (not used)
A(ran) = 9.00890579 (used)
Ngal = 501408
weighted Ngal = 0
Nran = 25229228
weighted Nran = 0
SN(data) = 6713.62079
SN(ran) = 133.731
SN(data+ran) = 6847.35179
############################
13 columns: k_central k_mean P_0(k) sigma^{lin}_{P_0(k)} P^img_1(k) sigma^{lin}_{P_1(k)} P_2(k) sigma^{lin}_{P_2(k)} P^img_3(k) sigma^{lin}_{P_3(k)} P_4(k) sigma^{lin}_{P_4(k)} N_modes
### header ###
0.00050000 0 0 0 0 0 0 0 0 0 0 0 0
0.00150000 0.00179520 210.93015654 0 -7763.54439417 0 -10609.92176431 0 21385.64466717 0 33705.39204577 0 3
0.00250000 0.00253879 7083.88495027 0 -11736.46657454 0 -1974.49889064 0 -20750.73637196 0 -12135.86563359 0 6
0.00350000 0.00331552 14480.08326818 0 -9885.61003287 0 -27175.39318334 0 -34.44113872 0 -12200.67461182 0 7
0.00450000 0.00420575 34036.57690910 0 -10500.54837512 0 -14721.41432779 0 -8019.68265762 0 1381.35394039 0 24
0.00550000 0.00557378 37482.76686504 0 2138.47659014 0 -4957.89781916 0 -17499.74227079 0 11039.27575280 0 45
0.00650000 0.00659388 44126.12651651 0 -6296.77441738 0 -6852.56083628 0 12286.57396941 0 -5526.59111084 0 40
0.00750000 0.00754703 39277.20664193 0 -6347.44625070 0 5975.78323741 0 -1651.18996585 0 7549.04864537 0 57
0.00850000 0.00846663 44428.97118258 0 4473.51112204 0 8860.38692014 0 4216.10963274 0 19624.81768238 0 75
0.00950000 0.00948925 39780.08037471 0 -5142.80112942 0 -4655.61336630 0 2176.97751703 0 23234.23838688 0 112
0.01050000 0.01054430 52610.06114971 0 -7218.52285640 0 8792.78786047 0 25817.37047511 0 23787.20177062 0 105
0.01150000 0.01145670 60385.38100569 0 -2655.52042154 0 2408.76298307 0 6822.06766280 0 25261.22156532 0 144
0.01250000 0.01249090 62816.26691794 0 6965.63602643 0 16924.26051325 0 -10667.38206348 0 19862.63367876 0 169
0.01350000 0.01339930 61270.84740147 0 1926.48532389 0 22346.35538513 0 -12205.06844086 0 17725.47523734 0 180
0.01450000 0.01448870 56313.72948697 0 3126.71464699 0 27711.11078813 0 3191.64445552 0 20986.24560811 0 267
0.01550000 0.01550050 55410.24839215 0 388.80114343 0 34054.81129958 0 14445.81140172 0 37186.62278825 0 238
0.01650000 0.01653350 56995.10252419 0 -1430.38907240 0 31887.66497501 0 10603.07837559 0 27691.77794039 0 315
0.01750000 0.01747870 56951.93315394 0 -1376.87223478 0 32496.42998747 0 -1198.54868350 0 13019.79418921 0 297
0.01850000 0.01844180 58855.12019939 0 264.41404043 0 20361.11358250 0 9087.62477313 0 28501.45078536 0 388
0.01950000 0.01947590 67439.67351743 0 -5437.73690323 0 31281.53625997 0 9668.40109465 0 18532.29209344 0 399
0.02050000 0.02045430 65247.81190455 0 2285.06571123 0 10303.03477553 0 -4535.17851251 0 485.45220066 0 462
0.02150000 0.02154770 62605.47297011 0 6147.28536912 0 27915.97306677 0 -5866.44280194 0 6431.20361663 0 571
0.02250000 0.02255340 52661.24925794 0 -1065.97807393 0 24984.73987344 0 -3254.42128782 0 -4093.09340441 0 510
0.02350000 0.02348930 58771.30791059 0 1537.36782477 0 32054.19109534 0 3096.35328837 0 -512.58409494 0 555
0.02450000 0.02439640 57229.73299452 0 -938.09458148 0 22031.64738067 0 5760.73825999 0 3089.67466824 0 592
0.02550000 0.02547300 60552.67604611 0 -5038.82116537 0 15500.87959816 0 12060.73115714 0 4677.73629547 0 837
0.02650000 0.02652900 63240.05172813 0 514.95017187 0 8406.61422680 0 5882.62307735 0 -1480.06130961 0 723
0.02750000 0.02749970 64271.28340207 0 1739.81349744 0 10149.23977482 0 -3637.73893262 0 608.52774569 0 826
0.02850000 0.02848090 62509.13826857 0 3140.75293075 0 10568.81749371 0 -4843.69121803 0 5994.30322678 0 831
0.02950000 0.02946900 54717.78093662 0 2534.76701515 0 16059.77465110 0 471.26123134 0 3893.84424235 0 996
0.03050000 0.03053250 58217.35591531 0 321.91498253 0 16376.45987862 0 -1855.25037070 0 64.08245860 0 1041
0.03150000 0.03150510 54222.26686748 0 -417.96298672 0 17061.23813334 0 5069.85258291 0 153.06232972 0 1036
0.03250000 0.03246190 55902.24739807 0 2221.48700513 0 11113.64130917 0 -216.10498868 0 -2910.21970598 0 1059
0.03350000 0.03345080 54180.08610877 0 1026.82686033 0 18201.21707583 0 -1147.38254441 0 792.66213587 0 1302
0.03450000 0.03451200 52294.69407090 0 808.38764998 0 16162.59025046 0 -4045.87072688 0 -5237.83965140 0 1339
0.03550000 0.03553350 52071.70724750 0 83.90225245 0 19026.37816814 0 2271.24711893 0 -4186.26454904 0 1365
0.03650000 0.03647120 49648.94991896 0 -1047.90405820 0 14253.25184437 0 4306.21608163 0 -7804.96721738 0 1308
0.03750000 0.03744890 49537.78604444 0 1552.04321374 0 14852.13074151 0 -1158.93831477 0 -5967.51185426 0 1579
0.03850000 0.03847530 50071.19688899 0 3458.22904749 0 17252.04015908 0 -5044.66495798 0 -8792.93065991 0 1662
0.03950000 0.03950240 45722.51444976 0 2569.56614109 0 18155.52125390 0 -1507.90720110 0 -8921.32932882 0 1683
0.04050000 0.04050350 45162.08155666 0 -2609.00075666 0 17744.14901072 0 6146.02214328 0 -4122.05972230 0 1822
0.04150000 0.04152450 46444.20086835 0 -1521.67087055 0 16869.88687898 0 5883.98516435 0 -5675.04760928 0 1887
0.04250000 0.04250150 47021.33031178 0 798.57403283 0 10683.91384522 0 106.71644078 0 -4984.63426882 0 1920
0.04350000 0.04349210 46184.96495544 0 2095.76857194 0 14180.86351106 0 -2696.53681556 0 -2216.21441029 0 2005
0.04450000 0.04448520 43664.77446810 0 -13.63207426 0 14148.89840485 0 351.76995234 0 486.04646604 0 2151
0.04550000 0.04548030 43282.29165082 0 2527.08879892 0 14237.32421413 0 581.52217400 0 -3895.62374311 0 2274
0.04650000 0.04648670 44743.89887849 0 -492.04074729 0 14565.32355141 0 1097.07539890 0 271.45624992 0 2311
0.04750000 0.04749250 40604.25285548 0 -146.59131801 0 14410.11154084 0 2080.17047887 0 -2941.76739844 0 2568
0.04850000 0.04851840 41166.22358875 0 2156.08485998 0 14443.39479576 0 317.47391983 0 1873.75937550 0 2493
0.04950000 0.04949480 39044.66324038 0 1242.32220523 0 12750.23277807 0 1985.26377177 0 1304.00058028 0 2644
0.05050000 0.05050630 40151.02939078 0 33.02478793 0 14540.16888020 0 -4.19996231 0 -3025.88725526 0 2829
0.05150000 0.05149060 37824.49691805 0 -171.80091209 0 12268.99865328 0 -989.15526866 0 -729.75239024 0 2784
0.05250000 0.05249300 36858.73329670 0 1664.99757359 0 12154.75909843 0 -650.81944859 0 -2697.37164307 0 3055
0.05350000 0.05348950 34807.25452141 0 1629.04506753 0 14080.79405485 0 -943.07169131 0 1711.14376300 0 3009
0.05450000 0.05448610 33740.65252376 0 306.05216126 0 12854.80590904 0 3186.67942871 0 -4071.95908676 0 3336
0.05550000 0.05550870 33959.24551813 0 775.48995355 0 13059.33865051 0 1626.43073926 0 -2406.13767023 0 3349
0.05650000 0.05647670 32136.90492688 0 813.33839684 0 11805.55953607 0 453.38274101 0 1555.55827696 0 3324
0.05750000 0.05747970 31762.99007621 0 -188.40738892 0 11681.21417445 0 2047.12888455 0 2068.50486279 0 3639
0.05850000 0.05849280 32107.46627236 0 -348.59980470 0 10385.71565335 0 1090.74718664 0 2106.03914730 0 3846
0.05950000 0.05951020 31789.90227904 0 54.81817993 0 10286.34920978 0 1445.35006025 0 5950.63955077 0 3787
0.06050000 0.06049470 31015.38006633 0 477.20388511 0 9227.87579584 0 773.26557761 0 5573.94560324 0 3930
0.06150000 0.06148310 32277.17791874 0 669.22409995 0 11375.40367379 0 -496.81574100 0 5323.74999356 0 4083
0.06250000 0.06249100 30572.70179130 0 -336.22348677 0 10522.30881340 0 863.34126969 0 5011.56844079 0 4303
0.06350000 0.06350600 31631.50474241 0 -48.54554960 0 10570.97046994 0 692.11045692 0 4235.21180446 0 4470
0.06450000 0.06451750 30883.34550390 0 261.31529251 0 9635.20571631 0 -1973.52126368 0 -208.98588719 0 4479
0.06550000 0.06550280 30664.20328090 0 2116.27676895 0 12195.73155416 0 -1409.97973654 0 2307.85869934 0 4636
0.06650000 0.06648880 29022.44906289 0 247.05951421 0 11907.93575253 0 -20.62386456 0 2011.56083853 0 4653
0.06750000 0.06749660 28511.44674641 0 -180.88625207 0 12141.35791988 0 1797.19690461 0 1318.06083318 0 5220
0.06850000 0.06852730 28271.98306414 0 320.19370000 0 9206.02748098 0 2188.45639538 0 -1072.90384694 0 5029
0.06950000 0.06949320 27477.90831223 0 654.96832165 0 9341.36839975 0 532.82207146 0 2025.98358233 0 5040
0.07050000 0.07048030 26891.44198211 0 375.59658873 0 8528.33427557 0 1142.91182337 0 466.51809290 0 5475
0.07150000 0.07148790 26584.86256137 0 -21.38992865 0 7534.99937704 0 919.38565746 0 2482.09598963 0 5509
0.07250000 0.07249820 25879.32346447 0 -45.14384717 0 5923.73833252 0 1190.91440555 0 1943.30270451 0 5916
0.07350000 0.07351270 26731.61645105 0 -111.69223246 0 6159.31347610 0 358.10145998 0 1887.06169289 0 5721
0.07450000 0.07449140 26301.68028022 0 535.28591109 0 5818.04477514 0 -731.69885650 0 -944.64687902 0 6028
0.07550000 0.07549160 25855.59678769 0 441.22062225 0 6218.13586227 0 -1326.82652210 0 -1106.94833274 0 6183
0.07650000 0.07648840 24981.88388457 0 185.62279977 0 7147.99091586 0 -1004.29310814 0 45.97548916 0 6330
0.07750000 0.07749960 24608.40841681 0 527.90537677 0 8125.74969047 0 -109.58341422 0 -2281.51769429 0 6583
0.07850000 0.07848650 24884.99995440 0 248.14478998 0 8062.22590723 0 -292.76522227 0 -2319.77696059 0 6549
0.07950000 0.07947320 25313.06874790 0 24.92146874 0 7659.67427584 0 398.56752691 0 -3775.96879398 0 6828
0.08050000 0.08048110 24695.73576883 0 -410.16613710 0 7949.31548567 0 -580.18425306 0 -2636.68187956 0 7147
0.08150000 0.08149960 24652.01716995 0 540.42559260 0 7800.45255804 0 281.35225135 0 -2156.38144344 0 7386
0.08250000 0.08250610 24133.32565266 0 455.21057389 0 7791.02779477 0 -520.60173446 0 -2486.50080323 0 7227
0.08350000 0.08350160 23769.07722587 0 489.96356462 0 8519.43677178 0 240.92133505 0 -2755.13951028 0 7798
0.08450000 0.08449610 23218.09106519 0 703.68929488 0 9215.74882771 0 150.51610580 0 -3210.17542946 0 7371
0.08550000 0.08548940 22103.48648536 0 600.27833168 0 8917.35291354 0 198.26055052 0 -563.49209656 0 8256
0.08650000 0.08650700 21975.95559769 0 124.73421549 0 9226.85423059 0 757.60047865 0 -1989.27314076 0 8037
0.08750000 0.08749060 21250.86396159 0 360.99369794 0 8555.25746297 0 787.88933908 0 257.66511904 0 8155
0.08850000 0.08849210 20957.35618222 0 -281.51592149 0 7597.29288815 0 1665.86535482 0 -326.53069992 0 8718
0.08950000 0.08949900 20856.07842302 0 91.64352013 0 6540.29140694 0 918.82105043 0 1907.70170477 0 8571
0.09050000 0.09049190 20891.33890101 0 303.73881028 0 5980.73727965 0 540.84849864 0 -389.22404948 0 8932
0.09150000 0.09150830 20513.79914138 0 307.63943200 0 5346.32329021 0 179.44068232 0 1007.27761651 0 9285
0.09250000 0.09250820 20027.18257603 0 562.76711477 0 6032.06818732 0 -228.93716637 0 951.97468739 0 9204
0.09350000 0.09350330 18519.65983497 0 394.49554586 0 6449.44899169 0 -857.62819349 0 808.71499024 0 9349
0.09450000 0.09448040 18522.51582384 0 514.39215558 0 6109.34465543 0 85.58300190 0 -734.92502547 0 9564
0.09550000 0.09549270 18341.49006770 0 438.43932847 0 7122.60556862 0 -332.58100250 0 -793.75729776 0 10155
0.09650000 0.09649430 17400.00235175 0 417.34675220 0 6532.45940669 0 -110.71570396 0 -544.37344799 0 9913
0.09750000 0.09749140 17288.83847723 0 -34.16740317 0 6805.48095820 0 1013.99248573 0 -688.44490505 0 10476
0.09850000 0.09850240 16899.65507067 0 123.42046061 0 6338.04345657 0 -106.70051315 0 -1594.27889531 0 10575
0.09950000 0.09950330 16821.33506817 0 304.21004844 0 5934.76684339 0 771.48387993 0 230.82102057 0 10882
0.10050000 0.10051200 16624.60137323 0 19.43851933 0 5511.52027726 0 555.32506685 0 133.35161268 0 10875
0.10150000 0.10150300 16495.53264540 0 110.71131013 0 5276.92276064 0 -94.50884588 0 87.99642234 0 11118
0.10250000 0.10250800 16439.62117096 0 45.32728953 0 4724.62943582 0 920.49290237 0 -287.71561425 0 11575
0.10350000 0.10349800 16103.05386707 0 -184.47491193 0 4039.38982906 0 655.25392054 0 527.69007915 0 11364
0.10450000 0.10450100 16103.38340425 0 211.21465697 0 3679.64507702 0 366.74522015 0 152.51859338 0 12093
0.10550000 0.10551000 16031.43445384 0 590.45482842 0 3592.48249358 0 2.65365304 0 231.24063124 0 12067
0.10650000 0.10649700 15297.00593105 0 233.95711604 0 3868.96418546 0 -784.53465062 0 -35.16568112 0 12054
0.10750000 0.10749900 15005.58522047 0 94.89034009 0 4046.66161610 0 176.88896611 0 108.46419612 0 12807
0.10850000 0.10850100 14678.02526609 0 132.04115317 0 4366.20283250 0 221.74336979 0 -250.54711601 0 12736
0.10950000 0.10950300 14930.23105256 0 36.50601867 0 3952.41398336 0 450.78708651 0 -406.37206573 0 12933
0.11050000 0.11050200 14888.70936820 0 -106.19577204 0 3482.93335123 0 -124.97367917 0 -789.23494923 0 13428
0.11150000 0.11150900 15042.16384717 0 102.72497664 0 3812.96483444 0 -23.28026375 0 -598.04626653 0 13453
0.11250000 0.11250000 14634.08697577 0 -135.58367783 0 3854.45356508 0 -401.45427259 0 -644.43301809 0 13668
0.11350000 0.11349100 14845.43015223 0 467.25515772 0 4519.14103655 0 -158.37337056 0 -1039.46241417 0 13791
0.11450000 0.11448600 14499.96534455 0 300.77736951 0 4064.54450027 0 -273.05340677 0 -705.44133420 0 14205
0.11550000 0.11549300 14284.77756768 0 -26.59815389 0 4582.85155752 0 -12.84239334 0 -898.44247137 0 14776
0.11650000 0.11649800 14334.53768148 0 150.67318518 0 4815.81237282 0 243.27203359 0 -1180.74269134 0 14553
0.11750000 0.11747300 13894.38585814 0 295.90351465 0 4827.53291177 0 -20.93472796 0 -372.88669468 0 14568
0.11850000 0.11849100 13669.86119458 0 379.85091369 0 5268.36577860 0 -124.24759892 0 -48.78325575 0 16015
0.11950000 0.11950300 13569.02281828 0 91.91791475 0 4875.98586142 0 -108.06809243 0 -391.38801027 0 15270
0.12050000 0.12050700 13552.21642223 0 -194.72241969 0 4866.18762268 0 842.86712485 0 313.40413569 0 15999
0.12150000 0.12150000 13667.11505143 0 -311.64001333 0 4358.20606366 0 853.59795381 0 88.61408485 0 15670
0.12250000 0.12250700 13492.68003884 0 197.19504698 0 4068.68568413 0 288.78880699 0 113.58597278 0 16887
0.12350000 0.12352200 12975.85589889 0 299.69978294 0 3986.48812750 0 242.97215476 0 1186.45466908 0 16407
0.12450000 0.12449800 13396.23549158 0 264.82376499 0 4148.33481992 0 -286.01080859 0 926.85296990 0 16306
0.12550000 0.12549900 13169.18437632 0 172.22162122 0 3922.72268367 0 341.52573996 0 721.75342449 0 17523
0.12650000 0.12650100 12899.29342800 0 -124.65183120 0 3594.26199434 0 -104.98735921 0 262.75976380 0 17154
0.12750000 0.12750600 12791.64461670 0 -38.17095034 0 3585.92470375 0 319.45114290 0 177.66008310 0 18007
0.12850000 0.12850300 12748.91462936 0 182.67234357 0 3417.76188210 0 -193.98974870 0 275.61610755 0 17496
0.12950000 0.12949900 12537.35176144 0 290.55292935 0 3352.06315350 0 -558.26453847 0 -516.39903699 0 18405
0.13050000 0.13049000 12196.17093707 0 405.66246234 0 3921.22878180 0 -450.51686602 0 -545.95083261 0 18100
0.13150000 0.13148800 11884.53861293 0 255.31442051 0 4121.99381487 0 -73.97132007 0 -859.29455315 0 19059
0.13250000 0.13249300 11736.68626599 0 -48.44031740 0 4523.90834105 0 225.54293344 0 -871.42921048 0 18957
0.13350000 0.13349100 11594.98527969 0 164.90260051 0 4052.54934701 0 51.87870831 0 -674.85479185 0 19468
0.13450000 0.13450700 11535.33905057 0 -4.81474687 0 3895.50291281 0 369.92305699 0 -366.75071243 0 19953
0.13550000 0.13551000 11613.87874453 0 -43.94136601 0 3942.34113030 0 322.74541621 0 -641.02999750 0 19956
0.13650000 0.13649900 11464.70824887 0 68.59228472 0 3713.15900796 0 93.13039187 0 -418.48036009 0 19723
0.13750000 0.13749600 11621.34825388 0 100.11614065 0 3820.76388097 0 -81.87153451 0 226.57768018 0 20946
0.13850000 0.13851100 11246.66448313 0 153.33914095 0 3911.48546592 0 93.22409027 0 -292.01058213 0 20955
0.13950000 0.13949800 11351.45730556 0 59.99751575 0 3520.41271288 0 228.83500984 0 -377.92861349 0 20506
0.14050000 0.14048300 11063.22212103 0 68.08710423 0 3666.35374419 0 305.80061455 0 271.97472174 0 21447
0.14150000 0.14148400 11083.87311748 0 133.71190666 0 3243.83215985 0 409.32032501 0 620.40536402 0 21771
0.14250000 0.14249400 10719.53681410 0 34.85492757 0 3187.88773169 0 415.65402956 0 606.12981350 0 22470
0.14350000 0.14350900 10838.75238033 0 226.22178003 0 2792.30031932 0 96.66138273 0 258.22313533 0 22519
0.14450000 0.14449900 10391.94390601 0 12.86117696 0 2633.69407582 0 139.02075059 0 1038.83849045 0 22218
0.14550000 0.14550500 10276.70475506 0 120.44034607 0 2901.93733826 0 81.65854365 0 563.17134704 0 23559
0.14650000 0.14650700 10304.08929450 0 137.64328519 0 2455.38150911 0 -50.93546306 0 719.33462160 0 23044
0.14750000 0.14750500 10037.10925791 0 60.22291918 0 2568.69835986 0 90.03955284 0 114.78878348 0 23649
0.14850000 0.14849900 10184.06086991 0 48.11835958 0 2382.96022208 0 136.00878079 0 657.99896522 0 23640
0.14950000 0.14949500 10084.68344176 0 80.45485419 0 2243.64288803 0 215.89957717 0 331.12444818 0 24457
0.15050000 0.15050000 9760.34196715 0 258.29014122 0 2730.19354595 0 -221.22270104 0 779.37849225 0 24591
0.15150000 0.15149900 9793.30666947 0 106.52805536 0 2472.66024178 0 52.98144955 0 557.57800269 0 25020
0.15250000 0.15250500 9712.48218442 0 -194.41485166 0 2300.41115913 0 293.54293001 0 717.63420977 0 25297
0.15350000 0.15350100 9566.24456964 0 139.64028048 0 2307.43030101 0 112.42710037 0 803.87628602 0 25452
0.15450000 0.15450400 9460.78168829 0 317.16745026 0 2476.99914795 0 -493.08208477 0 919.00998507 0 26061
0.15550000 0.15549900 9320.53066557 0 27.88466703 0 2748.81239647 0 -150.53148420 0 496.98490341 0 26128
0.15650000 0.15649500 9174.11729763 0 188.10201780 0 2934.02327477 0 -79.55071402 0 109.85231656 0 26331
0.15750000 0.15749700 9067.73171218 0 115.19850803 0 3009.34448896 0 -12.85810128 0 371.92883995 0 27345
0.15850000 0.15849900 8993.08055692 0 15.34456913 0 2895.77499304 0 161.37325734 0 524.20028044 0 26980
0.15950000 0.15949700 8898.47043328 0 19.58549291 0 2801.03305452 0 519.06938659 0 722.98259816 0 27777
0.16050000 0.16050000 8923.61411991 0 83.61280896 0 2705.58810337 0 409.79815392 0 792.57865312 0 28224
0.16150000 0.16150500 9019.45451569 0 -18.65674730 0 2375.79828076 0 255.04969231 0 1343.88556332 0 28075
0.16250000 0.16249700 8648.53845333 0 43.53669435 0 2337.42916873 0 261.59210374 0 1336.00962478 0 28590
0.16350000 0.16349900 8641.78294119 0 232.91468010 0 2196.89254712 0 -404.58707269 0 1509.04959665 0 29163
0.16450000 0.16449100 8509.92413193 0 195.45618914 0 2632.55168027 0 -244.58578847 0 1321.71869585 0 28996
0.16550000 0.16550500 8252.33590490 0 68.34688937 0 2685.57421212 0 29.06737596 0 1094.26774215 0 30777
0.16650000 0.16650700 8430.47271845 0 60.90077715 0 2700.48027712 0 -14.77732580 0 783.65039253 0 29211
0.16750000 0.16749900 8216.06484623 0 37.33623267 0 2747.18667973 0 -64.61729744 0 698.22447002 0 30922
0.16850000 0.16850800 8215.20804957 0 -81.66216856 0 2869.33512684 0 -96.49353846 0 702.83799050 0 30867
0.16950000 0.16949900 8203.77310951 0 143.64964948 0 2656.53100222 0 -39.39518095 0 -31.88425976 0 30852
0.17050000 0.17049200 8209.75970157 0 223.32624669 0 2751.86610765 0 -47.23102580 0 314.14779125 0 31257
0.17150000 0.17149500 8146.04918060 0 58.22218913 0 2728.28223032 0 21.35005465 0 46.96091516 0 32608
0.17250000 0.17250900 8091.51077773 0 -105.41564769 0 2717.76999436 0 241.98024785 0 38.85583844 0 32361
0.17350000 0.17350400 8045.85889408 0 -106.10745607 0 2272.77397452 0 404.42340256 0 475.45514115 0 32508
0.17450000 0.17449800 7886.60456080 0 48.05135368 0 2102.12863946 0 229.54461323 0 224.47852836 0 32791
0.17550000 0.17549800 7973.49252992 0 200.25754582 0 2130.57868245 0 4.69481731 0 412.62448445 0 33633
0.17650000 0.17650100 7770.08021486 0 140.72995008 0 1865.75162209 0 89.78844551 0 460.85774265 0 33984
0.17750000 0.17750300 7647.19580139 0 60.56036525 0 2210.08501879 0 -29.11845423 0 818.04748311 0 34069
0.17850000 0.17849800 7584.52881481 0 13.49861171 0 1781.17041321 0 276.64536200 0 221.32046374 0 34536
