### header ###
fiducial parameters:
Omega_m = 0.31
Omega_nu = 0
Omega_de = 0.69
Omega_k = 0
H_0 = 100
w_de = -1
zeff = 0
beta = 0
fgrowth = 0
b_1 = 2
gamma = 0.55
Lx = 3500 Ly = 3500 Lz = 3500
nx = 700 ny = 700 nz = 700
xoffset = -983.599254 yoffset = -42.9823471 zoffset = 800.977702
bins = 400 dk = 0.001
kx_ny = 0.628318531 ky_ny = 0.628318531 kz_ny = 0.628318531
############################
A(data) = 9.06599329 (not used)
A(ran) = 9.06810835 (used)
Ngal = 503500
weighted Ngal = 0
Nran = 25229228
weighted Nran = 0
SN(data) = 6734.29891
SN(ran) = 134.609821
SN(data+ran) = 6868.90873
############################
13 columns: k_central k_mean P_0(k) sigma^{lin}_{P_0(k)} P^img_1(k) sigma^{lin}_{P_1(k)} P_2(k) sigma^{lin}_{P_2(k)} P^img_3(k) sigma^{lin}_{P_3(k)} P_4(k) sigma^{lin}_{P_4(k)} N_modes
### header ###
0.00050000 0 0 0 0 0 0 0 0 0 0 0 0
0.00150000 0.00179520 24336.65009114 0 -31286.80885481 0 -5831.85238288 0 -25216.07497201 0 -11410.33461460 0 3
0.00250000 0.00253879 42651.00826457 0 -28822.41999619 0 -14173.17431026 0 -41295.07262512 0 4691.18141231 0 6
0.00350000 0.00331552 40993.54610777 0 -17.32882232 0 -21400.58368588 0 -23463.81595383 0 19041.31718686 0 7
0.00450000 0.00420575 43034.80923056 0 6949.81824192 0 -8305.95160366 0 -18916.97182523 0 26301.79012595 0 24
0.00550000 0.00557378 42528.53028028 0 -4147.12651693 0 17978.66963534 0 -7800.32074317 0 -25605.14853284 0 45
0.00650000 0.00659388 49519.33196250 0 4162.83445572 0 5655.81362269 0 -4234.04743977 0 21538.44007177 0 40
0.00750000 0.00754703 49231.42631514 0 -12327.10704223 0 -9312.22632870 0 27198.90016866 0 -159.14338910 0 57
0.00850000 0.00846663 62381.27784372 0 -14617.28057972 0 -16917.55992398 0 23849.26460571 0 7594.74446731 0 75
0.00950000 0.00948925 87466.52655628 0 -6439.31023120 0 -11461.85226000 0 -5716.20680274 0 -18253.28394987 0 112
0.01050000 0.01054430 73900.46957260 0 5933.37180268 0 -5518.26480483 0 -38632.30238568 0 2694.70239194 0 105
0.01150000 0.01145670 78975.01256800 0 6052.94985980 0 -9.57314288 0 -10947.02731226 0 -10158.59863066 0 144
0.01250000 0.01249090 73910.02615075 0 4480.87078567 0 22693.90726160 0 -12983.21556252 0 -7046.09802059 0 169
0.01350000 0.01339930 75381.62933947 0 455.44015145 0 18139.15424075 0 -4094.68616743 0 -32273.77270124 0 180
0.01450000 0.01448870 75223.01211139 0 2425.02015049 0 31722.78654056 0 -4749.09207896 0 -18905.65771548 0 267
0.01550000 0.01550050 64471.64200595 0 1240.30104388 0 31248.03331360 0 -2601.78389247 0 3559.07840836 0 238
0.01650000 0.01653350 77637.75070195 0 -1926.43040103 0 39681.43891292 0 13277.49226197 0 -10672.99518007 0 315
0.01750000 0.01747870 66604.18692689 0 -549.18249386 0 28824.39721925 0 2380.53263154 0 1759.36603664 0 297
0.01850000 0.01844180 72848.47705648 0 5279.61398092 0 38789.05223642 0 3273.87496586 0 -2563.26099643 0 388
0.01950000 0.01947590 76722.18657729 0 3230.79347220 0 46145.09095696 0 826.65719110 0 2816.40047157 0 399
0.02050000 0.02045430 72066.37548869 0 -3545.07307832 0 36608.28504184 0 7074.35034127 0 7979.90752031 0 462
0.02150000 0.02154770 75589.56729843 0 -1332.31880839 0 42188.55775889 0 6322.65407039 0 5189.12307200 0 571
0.02250000 0.02255340 74950.26517420 0 3461.30472782 0 29642.74787656 0 5992.57864889 0 10524.17619074 0 510
0.02350000 0.02348930 75109.98085953 0 -2841.00591415 0 37570.75329142 0 1738.37451843 0 11799.84755833 0 555
0.02450000 0.02439640 73547.09587266 0 5361.24033978 0 32664.27425651 0 3310.21193196 0 3689.65202264 0 592
0.02550000 0.02547300 68239.13070990 0 7528.48552550 0 41878.68296637 0 -5658.64764242 0 9725.90533211 0 837
0.02650000 0.02652900 62277.25394138 0 1488.59632251 0 36207.56783408 0 7870.06179449 0 8723.88163667 0 723
0.02750000 0.02749970 58037.86799933 0 -3639.61729453 0 41860.77811306 0 11664.18808695 0 15458.80868518 0 826
0.02850000 0.02848090 62324.70729493 0 4052.65919273 0 32501.70258231 0 7064.93656257 0 2886.20743032 0 831
0.02950000 0.02946900 58073.12847732 0 1237.53293159 0 33485.70059414 0 1432.21251145 0 15183.97467919 0 996
0.03050000 0.03053250 52836.01380771 0 2292.46931315 0 31995.64332348 0 -3904.38943203 0 8898.54732528 0 1041
0.03150000 0.03150510 53848.02247963 0 2338.17611966 0 32562.55711441 0 11691.10028978 0 21256.46609361 0 1036
0.03250000 0.03246190 53521.67082824 0 -1634.20781664 0 28921.83037805 0 2484.80917905 0 6121.17504010 0 1059
0.03350000 0.03345080 52303.37188324 0 -107.82873860 0 25416.32373016 0 4802.81762346 0 15022.94084515 0 1302
0.03450000 0.03451200 54110.11438142 0 2480.74488720 0 27889.71993830 0 3391.25610847 0 15858.20774423 0 1339
0.03550000 0.03553350 49830.30521228 0 -1225.64762405 0 24619.72252656 0 1856.89805659 0 21584.57527661 0 1365
0.03650000 0.03647120 49910.49259212 0 914.59528535 0 20241.27189564 0 2292.72195832 0 7226.24501093 0 1308
0.03750000 0.03744890 51140.21549260 0 2192.47674895 0 24836.22845214 0 -1212.26841465 0 14975.37764587 0 1579
0.03850000 0.03847530 46491.43453045 0 2003.34437824 0 23926.59599668 0 -684.05766676 0 10600.73866163 0 1662
0.03950000 0.03950240 46605.89377675 0 822.68626811 0 22873.39517758 0 4893.19868666 0 10136.75031580 0 1683
0.04050000 0.04050350 46118.50829132 0 -1318.30249378 0 22761.79192016 0 1843.40900146 0 7757.49189468 0 1822
0.04150000 0.04152450 44257.83154176 0 515.73996264 0 17201.29143375 0 4467.81012887 0 1924.50810082 0 1887
0.04250000 0.04250150 44545.07811477 0 302.62167924 0 17775.89442548 0 459.68019647 0 5678.50774964 0 1920
0.04350000 0.04349210 42552.47664851 0 2242.47852334 0 17619.58395765 0 -3480.93415902 0 2946.93014755 0 2005
0.04450000 0.04448520 40515.93689193 0 3116.56490192 0 19125.34916710 0 -3408.02955080 0 -1280.99888529 0 2151
0.04550000 0.04548030 40291.41222837 0 -930.37572232 0 20826.85945995 0 2059.98083447 0 -2784.49028822 0 2274
0.04650000 0.04648670 40692.56881904 0 -396.26735741 0 17897.93302686 0 38.89252691 0 -7651.72144529 0 2311
0.04750000 0.04749250 38625.05256778 0 804.89565436 0 19262.54647864 0 -1250.67048039 0 -5288.98382134 0 2568
0.04850000 0.04851840 38398.88021833 0 1243.95890655 0 20150.20978894 0 1635.58088822 0 -1474.70083819 0 2493
0.04950000 0.04949480 39809.95841213 0 -175.70153381 0 18578.09776110 0 1255.25104716 0 -7716.12399434 0 2644
0.05050000 0.05050630 37941.48261604 0 -167.82998910 0 17046.62865181 0 2524.17788718 0 -6994.39363745 0 2829
0.05150000 0.05149060 38487.74541051 0 267.08109466 0 15447.05519251 0 724.28207310 0 -4081.54861862 0 2784
0.05250000 0.05249300 36531.83241668 0 861.27617004 0 15771.64931229 0 1854.07502143 0 470.97123863 0 3055
0.05350000 0.05348950 36042.46970818 0 1777.12809050 0 15050.62196805 0 -1072.68525394 0 -2243.45615030 0 3009
0.05450000 0.05448610 35535.64152927 0 33.26963405 0 15545.69665429 0 3536.97744833 0 -79.39231648 0 3336
0.05550000 0.05550870 35879.34880534 0 -1558.61198814 0 11960.00262657 0 3911.12297502 0 664.20634719 0 3349
0.05650000 0.05647670 35621.76057831 0 -1079.42319077 0 9250.54795365 0 2177.47182280 0 1663.72336317 0 3324
0.05750000 0.05747970 35913.29113462 0 1727.75243675 0 10043.72197061 0 -539.63250646 0 -200.06202042 0 3639
0.05850000 0.05849280 33907.94756417 0 2653.48827561 0 11370.79015330 0 -4043.23442946 0 907.93973283 0 3846
0.05950000 0.05951020 32254.65954495 0 942.43568456 0 13411.17451029 0 -724.31063298 0 -605.21260169 0 3787
0.06050000 0.06049470 32213.13786060 0 56.59570347 0 14391.65745890 0 761.06281593 0 -2277.92573906 0 3930
0.06150000 0.06148310 30626.85573412 0 -201.46584880 0 13350.42982391 0 2877.51863341 0 618.53798668 0 4083
0.06250000 0.06249100 31358.42826804 0 -310.38996897 0 12301.62283385 0 1243.22294018 0 -345.08693839 0 4303
0.06350000 0.06350600 31062.17434552 0 -71.97663153 0 10981.00259525 0 1211.26881854 0 218.93461458 0 4470
0.06450000 0.06451750 30681.44905985 0 774.04658072 0 10733.77282017 0 -934.41365120 0 583.71908852 0 4479
0.06550000 0.06550280 29553.11376430 0 660.90328622 0 10504.43691381 0 361.77250414 0 -610.30065570 0 4636
0.06650000 0.06648880 30452.53056726 0 42.21821610 0 10813.49884796 0 -58.79624289 0 864.13215891 0 4653
0.06750000 0.06749660 30673.65001332 0 323.21994975 0 11749.75790736 0 -970.69239907 0 -2095.32918904 0 5220
0.06850000 0.06852730 29595.18467728 0 34.90974058 0 11406.27032274 0 -377.12783815 0 -1460.28907896 0 5029
0.06950000 0.06949320 30057.30564578 0 -211.26189063 0 11016.20815038 0 1708.58435759 0 -2719.35177281 0 5040
0.07050000 0.07048030 29818.50103786 0 -447.67186172 0 10421.73406685 0 1331.24232028 0 -1268.30071939 0 5475
0.07150000 0.07148790 30899.38297987 0 515.42690232 0 10079.80629154 0 -373.30960072 0 -2591.53528625 0 5509
0.07250000 0.07249820 29581.12442438 0 883.35406247 0 9834.20223319 0 -558.22938784 0 -1228.19604489 0 5916
0.07350000 0.07351270 27620.15852716 0 709.92084290 0 11864.32699938 0 1336.86642144 0 1104.80634109 0 5721
0.07450000 0.07449140 28535.50296036 0 321.30973258 0 10096.93124019 0 786.66675616 0 -1439.92368140 0 6028
0.07550000 0.07549160 27405.95936182 0 679.14097207 0 11733.50073994 0 -537.57289910 0 -1505.02924309 0 6183
0.07650000 0.07648840 25688.63128446 0 635.97379874 0 10332.29767689 0 -227.15217332 0 1126.95123941 0 6330
0.07750000 0.07749960 25643.81422832 0 45.51831125 0 10351.50969434 0 1117.08709323 0 868.22610912 0 6583
0.07850000 0.07848650 26005.64604915 0 -404.08507772 0 10525.92273778 0 811.86316874 0 -927.58124706 0 6549
0.07950000 0.07947320 24933.44191949 0 1657.04474304 0 10795.45119521 0 -860.36335206 0 -748.16802617 0 6828
0.08050000 0.08048110 24059.72901637 0 1012.67543547 0 10016.87567522 0 -91.44404029 0 -1012.27999086 0 7147
0.08150000 0.08149960 24424.74636325 0 -183.44126365 0 11722.29647591 0 325.20046819 0 -1361.24118800 0 7386
0.08250000 0.08250610 22665.67691007 0 -329.42733171 0 10012.98713652 0 1065.09491429 0 207.77209192 0 7227
0.08350000 0.08350160 23220.06828825 0 -253.01425101 0 8750.46430231 0 2055.79571232 0 327.90706687 0 7798
0.08450000 0.08449610 23048.37941880 0 240.64013000 0 7834.86722394 0 1151.62258943 0 82.39461986 0 7371
0.08550000 0.08548940 22861.75153065 0 1331.19838199 0 8058.22752281 0 -166.29764122 0 982.51729145 0 8256
0.08650000 0.08650700 21626.09696097 0 -199.81486754 0 7919.96470773 0 -225.94387034 0 1956.14366986 0 8037
0.08750000 0.08749060 21803.49780816 0 98.62081078 0 7872.87384507 0 633.26170777 0 452.13928739 0 8155
0.08850000 0.08849210 21280.74199901 0 327.06125478 0 7595.20581936 0 196.08890052 0 544.41958319 0 8718
0.08950000 0.08949900 20435.80867606 0 293.17384837 0 6560.39317476 0 210.53031809 0 357.50170232 0 8571
0.09050000 0.09049190 20629.68638212 0 119.98228939 0 7413.57591173 0 354.80938358 0 718.19222606 0 8932
0.09150000 0.09150830 20362.43173121 0 498.83360698 0 6692.60349035 0 621.03038620 0 -146.04648321 0 9285
0.09250000 0.09250820 20209.74617233 0 83.82096661 0 6736.11338235 0 -412.35646087 0 -189.25759483 0 9204
0.09350000 0.09350330 19424.01969559 0 418.70774074 0 6930.44145588 0 335.70391649 0 -385.66285104 0 9349
0.09450000 0.09448040 19280.78086913 0 327.33477064 0 5915.56581052 0 -143.12678382 0 -515.32584425 0 9564
0.09550000 0.09549270 19096.89912412 0 88.60639565 0 7098.13194091 0 -450.54872128 0 -520.39083067 0 10155
0.09650000 0.09649430 18156.94924833 0 546.62638382 0 6377.69776359 0 -314.80576715 0 -1038.43755355 0 9913
0.09750000 0.09749140 18023.26700002 0 209.82730545 0 6480.40351723 0 871.25345732 0 -437.26727457 0 10476
0.09850000 0.09850240 18217.36439753 0 -194.36212571 0 6549.72715479 0 981.63852565 0 291.00549374 0 10575
0.09950000 0.09950330 17531.81722273 0 304.17160244 0 6358.22211640 0 251.58405966 0 -97.03925202 0 10882
0.10050000 0.10051200 17413.95275893 0 788.34190348 0 6138.12423559 0 -172.66759486 0 775.07034288 0 10875
0.10150000 0.10150300 17035.97361641 0 20.40834724 0 6050.59916126 0 -328.05865397 0 8.25205031 0 11118
0.10250000 0.10250800 16444.12484572 0 218.72371078 0 6557.72392363 0 638.78145549 0 764.90082559 0 11575
0.10350000 0.10349800 16002.10564505 0 209.42856546 0 6667.11928196 0 280.28345244 0 627.09826410 0 11364
0.10450000 0.10450100 16328.67698789 0 -198.66588125 0 5288.61034587 0 1047.43941078 0 736.17397137 0 12093
0.10550000 0.10551000 16341.74862926 0 10.04919229 0 5089.24035352 0 554.96147750 0 271.41670546 0 12067
0.10650000 0.10649700 15728.80947923 0 426.66057129 0 4867.54970968 0 -545.21266933 0 1242.39909724 0 12054
0.10750000 0.10749900 15711.56370027 0 42.47953909 0 5228.50276470 0 140.07746647 0 1255.37187746 0 12807
0.10850000 0.10850100 15334.79286073 0 226.17674328 0 4997.59606447 0 411.09872731 0 1465.88022641 0 12736
0.10950000 0.10950300 15385.43174033 0 136.61622765 0 5193.15441014 0 -90.07876776 0 578.57611163 0 12933
0.11050000 0.11050200 15180.23992451 0 281.93003987 0 5060.26305105 0 -476.51734932 0 -153.98832919 0 13428
0.11150000 0.11150900 14892.33427716 0 206.59784111 0 5737.97822560 0 -301.13436812 0 125.60529210 0 13453
0.11250000 0.11250000 14628.04546085 0 213.44672211 0 5281.08591365 0 -148.52020896 0 545.45323147 0 13668
0.11350000 0.11349100 14676.48742593 0 -31.62853891 0 5672.81774105 0 506.75568072 0 -150.00312626 0 13791
0.11450000 0.11448600 14905.18622708 0 -102.28427559 0 5329.91233877 0 563.83591369 0 -84.27144393 0 14205
0.11550000 0.11549300 14612.55721351 0 -104.47569782 0 4622.57177197 0 700.37195396 0 330.48185068 0 14776
0.11650000 0.11649800 14558.40327068 0 144.28565623 0 4023.74779770 0 129.89586615 0 340.15376684 0 14553
0.11750000 0.11747300 14359.36281551 0 353.55384693 0 4670.94782962 0 7.26628378 0 193.83486623 0 14568
0.11850000 0.11849100 13856.15954556 0 658.02422974 0 4854.89548207 0 -268.17625654 0 361.86367609 0 16015
0.11950000 0.11950300 13488.50590126 0 11.19844221 0 4884.98222637 0 -134.29299055 0 878.83061549 0 15270
0.12050000 0.12050700 13081.85702430 0 -97.50258130 0 5072.03851285 0 382.61243524 0 407.04981386 0 15999
0.12150000 0.12150000 13382.61462158 0 248.04922420 0 4469.22713874 0 389.62498637 0 1294.55384786 0 15670
0.12250000 0.12250700 13531.78511723 0 -163.77558336 0 4569.99960760 0 530.08032214 0 617.04518327 0 16887
0.12350000 0.12352200 13429.84828368 0 -67.15868815 0 3909.64005772 0 330.17647956 0 989.80335845 0 16407
0.12450000 0.12449800 13299.57125286 0 204.41630500 0 3551.65283730 0 118.04570925 0 1063.43624383 0 16306
0.12550000 0.12549900 13247.72407028 0 103.91856029 0 3898.34791711 0 -341.68172089 0 503.41746912 0 17523
0.12650000 0.12650100 12949.82246187 0 439.62126848 0 4247.02021999 0 -116.36397118 0 394.96788248 0 17154
0.12750000 0.12750600 12477.04645797 0 49.19737414 0 4220.63527665 0 -122.47798428 0 940.35960034 0 18007
0.12850000 0.12850300 12491.10671087 0 -157.74065918 0 3644.74708993 0 629.57418676 0 730.91895185 0 17496
0.12950000 0.12949900 12775.05791210 0 -9.81232096 0 3398.79152526 0 635.67062454 0 194.72571506 0 18405
0.13050000 0.13049000 12875.56675122 0 110.88047255 0 3096.79267128 0 76.34409759 0 607.55890639 0 18100
0.13150000 0.13148800 12594.25184741 0 260.72651942 0 3395.35335404 0 -58.13870638 0 -204.86886939 0 19059
0.13250000 0.13249300 12320.40645296 0 171.27584952 0 3443.00442990 0 -959.93301023 0 238.63434704 0 18957
0.13350000 0.13349100 11869.37990277 0 145.52142064 0 3840.27248187 0 -354.52268623 0 -360.16875654 0 19468
0.13450000 0.13450700 11858.17563874 0 126.52689774 0 3856.18912754 0 523.71695925 0 -252.15745435 0 19953
0.13550000 0.13551000 11825.33176672 0 -33.94134066 0 3870.21642673 0 316.21069398 0 -497.21777635 0 19956
0.13650000 0.13649900 11867.84206261 0 190.34177215 0 3755.26287467 0 95.32038611 0 -258.48896198 0 19723
0.13750000 0.13749600 11575.32289477 0 103.37559287 0 3646.51560611 0 366.71006951 0 447.97833130 0 20946
0.13850000 0.13851100 11551.48637227 0 -47.85571845 0 3585.00199966 0 -122.41976605 0 174.84254023 0 20955
0.13950000 0.13949800 11571.69798582 0 195.83186152 0 3399.29681560 0 402.49231470 0 399.83514659 0 20506
0.14050000 0.14048300 11428.12962218 0 25.27231598 0 3267.15240744 0 -168.91965870 0 365.08325431 0 21447
0.14150000 0.14148400 11127.37202490 0 207.41838868 0 3323.55818765 0 186.26979109 0 533.78981230 0 21771
0.14250000 0.14249400 10895.99298805 0 149.26496298 0 3285.21104477 0 27.99198631 0 627.00599369 0 22470
0.14350000 0.14350900 10908.61426194 0 107.98889366 0 3390.39931180 0 -98.08476364 0 388.30354229 0 22519
0.14450000 0.14449900 10471.45024235 0 442.48714347 0 3779.98914755 0 -209.60102325 0 -493.67415324 0 22218
0.14550000 0.14550500 10199.87865442 0 370.39099978 0 3989.70660727 0 -517.02515763 0 88.47227402 0 23559
0.14650000 0.14650700 9974.23356446 0 -96.47794036 0 3987.00440241 0 163.63607929 0 -90.09063110 0 23044
0.14750000 0.14750500 10074.13825208 0 -170.39708371 0 3598.80960739 0 640.45989818 0 -499.23234696 0 23649
0.14850000 0.14849900 10144.05505656 0 -82.62233005 0 3416.19108823 0 389.15155130 0 11.59773142 0 23640
0.14950000 0.14949500 10044.23824552 0 180.13600576 0 3128.85663864 0 -40.50462278 0 199.79289840 0 24457
0.15050000 0.15050000 10022.19220835 0 196.80509465 0 3229.33252404 0 -184.80884294 0 105.41268186 0 24591
0.15150000 0.15149900 9892.85985077 0 70.34311574 0 3556.03568176 0 60.05584383 0 38.64043097 0 25020
0.15250000 0.15250500 9727.10265052 0 117.54591119 0 3328.74290591 0 -48.22205394 0 187.62309043 0 25297
0.15350000 0.15350100 9630.25167407 0 98.49569650 0 3605.20262863 0 -127.67698248 0 0.96787705 0 25452
0.15450000 0.15450400 9622.90299501 0 -112.96095060 0 3186.08626179 0 413.98217762 0 332.62164542 0 26061
0.15550000 0.15549900 9676.57361665 0 -122.42635679 0 3083.77595277 0 801.30260066 0 173.94290374 0 26128
0.15650000 0.15649500 9757.03561081 0 241.66608908 0 2747.99953810 0 141.85367186 0 559.60026250 0 26331
0.15750000 0.15749700 9647.21185414 0 111.22868350 0 2497.55128325 0 81.75674573 0 1112.15502014 0 27345
0.15850000 0.15849900 9329.92247513 0 109.88087645 0 2709.54254949 0 -70.60410919 0 586.99798343 0 26980
0.15950000 0.15949700 9164.01149086 0 169.26896811 0 2630.88202524 0 93.36667003 0 1065.93193872 0 27777
0.16050000 0.16050000 9022.85973319 0 124.27945419 0 2530.84552274 0 196.92812187 0 767.47121557 0 28224
0.16150000 0.16150500 8858.06917532 0 3.07363719 0 2495.00286241 0 -84.03187040 0 784.82574179 0 28075
0.16250000 0.16249700 8768.94035340 0 160.87675465 0 2318.28305872 0 134.27211986 0 524.05857945 0 28590
0.16350000 0.16349900 8727.44063818 0 63.10076735 0 2360.24412598 0 224.49061139 0 918.83313346 0 29163
0.16450000 0.16449100 8793.10641307 0 -117.59863714 0 2207.25099907 0 226.35139798 0 917.28540718 0 28996
0.16550000 0.16550500 8720.92678664 0 67.41550746 0 2076.97396825 0 -32.01706324 0 481.09901455 0 30777
0.16650000 0.16650700 8549.67730010 0 212.67999895 0 2204.52682507 0 -7.84264430 0 1092.06972918 0 29211
0.16750000 0.16749900 8385.94126120 0 160.10234229 0 2446.41809788 0 -263.66599104 0 824.19884375 0 30922
0.16850000 0.16850800 8046.67175245 0 218.66439409 0 2468.05770587 0 28.53978694 0 903.14606535 0 30867
0.16950000 0.16949900 8223.09497268 0 1.59720079 0 2620.18305155 0 264.67107943 0 1237.52194701 0 30852
0.17050000 0.17049200 8100.86963357 0 -87.56209234 0 2530.63681586 0 212.30652348 0 1146.86626950 0 31257
0.17150000 0.17149500 8149.47636724 0 58.05071995 0 2411.61897194 0 -112.81485578 0 999.10289759 0 32608
0.17250000 0.17250900 8078.64784324 0 229.99937454 0 2557.71378728 0 -415.52990389 0 894.29249985 0 32361
0.17350000 0.17350400 7865.74485747 0 104.37452990 0 2700.91966002 0 -160.34839671 0 643.39168061 0 32508
0.17450000 0.17449800 7918.16323783 0 -43.77747618 0 2643.07490081 0 464.72431220 0 725.72764285 0 32791
0.17550000 0.17549800 7876.44383116 0 35.88209495 0 2806.69010940 0 -71.80823803 0 604.32724514 0 33633
0.17650000 0.17650100 7909.35361062 0 -15.27207095 0 2334.06788952 0 200.16198003 0 520.20628985 0 33984
0.17750000 0.17750300 7879.95889439 0 -11.95341188 0 2237.66728055 0 197.37519397 0 644.27703716 0 34069
0.17850000 0.17849800 7940.98917965 0 73.99669443 0 1893.07025410 0 222.74735972 0 493.76312827 0 34536
