### header ###
fiducial parameters:
Omega_m = 0.31
Omega_nu = 0
Omega_de = 0.69
Omega_k = 0
H_0 = 100
w_de = -1
zeff = 0
beta = 0
fgrowth = 0
b_1 = 2
gamma = 0.55
Lx = 3500 Ly = 3500 Lz = 3500
nx = 700 ny = 700 nz = 700
xoffset = -983.599254 yoffset = -42.9823471 zoffset = 800.977702
bins = 400 dk = 0.001
kx_ny = 0.628318531 ky_ny = 0.628318531 kz_ny = 0.628318531
############################
A(data) = 9.11677143 (not used)
A(ran) = 9.13792813 (used)
Ngal = 508040
weighted Ngal = 0
Nran = 25229228
weighted Nran = 0
SN(data) = 6650.54163
SN(ran) = 135.646248
SN(data+ran) = 6786.18788
############################
13 columns: k_central k_mean P_0(k) sigma^{lin}_{P_0(k)} P^img_1(k) sigma^{lin}_{P_1(k)} P_2(k) sigma^{lin}_{P_2(k)} P^img_3(k) sigma^{lin}_{P_3(k)} P_4(k) sigma^{lin}_{P_4(k)} N_modes
### header ###
0.00050000 0 0 0 0 0 0 0 0 0 0 0 0
0.00150000 0.00179520 86685.74313720 0 -73777.44235969 0 -45918.14968743 0 -2026.86234814 0 -70183.40005680 0 3
0.00250000 0.00253879 82977.79081664 0 -56910.08193241 0 -7175.72696163 0 7757.22826494 0 -43272.40553549 0 6
0.00350000 0.00331552 123318.30408445 0 -17497.65520200 0 -10514.85028862 0 -45750.74480129 0 64490.86500797 0 7
0.00450000 0.00420575 103152.27651099 0 27926.84779363 0 22609.21620700 0 -38965.46447207 0 41317.92053609 0 24
0.00550000 0.00557378 60277.95188585 0 7247.62098917 0 16135.56820191 0 26918.02464776 0 25340.53017935 0 45
0.00650000 0.00659388 71517.69608825 0 8169.52321220 0 55328.52317215 0 55451.00115643 0 9831.39018261 0 40
0.00750000 0.00754703 69899.99808420 0 482.92465051 0 22680.94546596 0 9516.29771811 0 5178.35819087 0 57
0.00850000 0.00846663 67207.45965306 0 -4709.56958682 0 7743.96988583 0 41388.77102924 0 68300.42462490 0 75
0.00950000 0.00948925 70216.24392882 0 -4919.80332145 0 9272.55005253 0 18980.13311758 0 25275.39166394 0 112
0.01050000 0.01054430 92318.52211119 0 -11356.18067177 0 -13776.63124007 0 10871.27769974 0 10578.45096387 0 105
0.01150000 0.01145670 84085.03573284 0 6833.08518910 0 3307.32298937 0 -15946.85324497 0 23217.54183656 0 144
0.01250000 0.01249090 81313.07884194 0 11800.06724978 0 19273.09166832 0 -21262.83714571 0 27585.33743208 0 169
0.01350000 0.01339930 61668.04954602 0 5986.97651687 0 35836.61881800 0 -1116.81247892 0 50662.05704814 0 180
0.01450000 0.01448870 69435.46050974 0 -163.77118953 0 41541.67627958 0 24903.12449916 0 29541.79965454 0 267
0.01550000 0.01550050 72217.08382451 0 -5991.10671616 0 45290.38136441 0 13612.08234280 0 23225.01134591 0 238
0.01650000 0.01653350 70815.23267168 0 6610.74645548 0 36455.81917441 0 9811.15659991 0 36175.05349923 0 315
0.01750000 0.01747870 76879.81519384 0 -2974.13893383 0 39154.39912047 0 4895.63726177 0 65609.42403393 0 297
0.01850000 0.01844180 80539.32554931 0 -6924.74046271 0 31797.26194267 0 23739.74841707 0 53396.11716364 0 388
0.01950000 0.01947590 80364.78069099 0 436.28854916 0 27134.86011051 0 11938.58271003 0 45158.23695626 0 399
0.02050000 0.02045430 82474.58754669 0 5381.06749329 0 35205.66496893 0 -851.33403340 0 52257.89575276 0 462
0.02150000 0.02154770 74266.14599383 0 3170.26847727 0 29370.66001372 0 6749.67932949 0 48015.43413039 0 571
0.02250000 0.02255340 73718.56505065 0 1297.88217335 0 32586.83301981 0 8812.84569000 0 49601.27687396 0 510
0.02350000 0.02348930 69340.66364836 0 -64.01446410 0 25850.98326721 0 1928.51746982 0 32141.73813882 0 555
0.02450000 0.02439640 68259.34232345 0 3169.41168061 0 25829.56335067 0 -331.41553935 0 30093.88427248 0 592
0.02550000 0.02547300 63904.94790648 0 3012.98038248 0 24629.60864189 0 679.71766213 0 22016.81820769 0 837
0.02650000 0.02652900 64181.20990690 0 -1967.21611902 0 20245.55587895 0 9475.46806183 0 21255.80701925 0 723
0.02750000 0.02749970 61484.05795528 0 2252.81500614 0 20032.67486232 0 -1697.39107813 0 3519.61083908 0 826
0.02850000 0.02848090 62406.87189784 0 5422.22668675 0 16057.35804513 0 -3353.37031763 0 4628.66820975 0 831
0.02950000 0.02946900 54976.35777519 0 1313.35943612 0 16908.00334583 0 -2354.54313281 0 -2028.94941693 0 996
0.03050000 0.03053250 53387.10981412 0 -1622.70696915 0 20967.90137190 0 -149.45499608 0 -6689.15433456 0 1041
0.03150000 0.03150510 53039.00870902 0 1440.31912601 0 14686.26369553 0 3201.11315708 0 219.06972482 0 1036
0.03250000 0.03246190 51596.62448336 0 470.76912249 0 15929.71731174 0 -2222.25592521 0 -7038.78229525 0 1059
0.03350000 0.03345080 50977.20443550 0 1936.83279126 0 22317.46595924 0 -630.06959098 0 -2928.55295762 0 1302
0.03450000 0.03451200 53724.66572954 0 1910.18421818 0 22018.68558503 0 -3509.48306316 0 -13372.39896908 0 1339
0.03550000 0.03553350 49874.24350260 0 744.51345888 0 25072.39676264 0 -3853.67366042 0 -11418.24350685 0 1365
0.03650000 0.03647120 48743.93098398 0 390.61469636 0 30434.84540540 0 1229.75585420 0 -4585.82837669 0 1308
0.03750000 0.03744890 47960.62111321 0 22.00912901 0 28806.16282877 0 4474.87320904 0 -3734.97436911 0 1579
0.03850000 0.03847530 50522.33328490 0 1705.76132244 0 30353.23003112 0 -858.78596744 0 -8175.79540315 0 1662
0.03950000 0.03950240 48925.94535166 0 1535.72013888 0 26464.47164588 0 3870.35922617 0 -2824.89154617 0 1683
0.04050000 0.04050350 45164.82769981 0 603.01129334 0 32332.65001028 0 2459.72041528 0 6012.53761727 0 1822
0.04150000 0.04152450 46074.02077236 0 1170.29636282 0 27995.61121799 0 2748.62565874 0 5513.87097579 0 1887
0.04250000 0.04250150 43143.33680766 0 299.19778797 0 28958.07946757 0 5162.15594631 0 9255.93039422 0 1920
0.04350000 0.04349210 45140.33210295 0 -1012.56888512 0 23582.77887489 0 2669.97611906 0 7437.44538795 0 2005
0.04450000 0.04448520 42414.62026261 0 3186.59155213 0 26534.55321894 0 2642.15219671 0 9804.74160953 0 2151
0.04550000 0.04548030 41283.09944101 0 1772.26192485 0 24790.64247593 0 -1160.21252519 0 12572.72208515 0 2274
0.04650000 0.04648670 39566.10090082 0 -769.96800892 0 26302.00981740 0 3141.39003596 0 8226.35739074 0 2311
0.04750000 0.04749250 38814.31675335 0 964.52346311 0 24792.40000754 0 2353.93898132 0 8487.29591241 0 2568
0.04850000 0.04851840 38591.98900431 0 872.71660239 0 23345.07272423 0 1848.60470429 0 10549.69335285 0 2493
0.04950000 0.04949480 37948.73243394 0 -1139.82515848 0 19712.14503440 0 1421.60141433 0 9752.13649143 0 2644
0.05050000 0.05050630 37027.89571445 0 536.27671954 0 20998.10894650 0 803.41383551 0 4087.30453465 0 2829
0.05150000 0.05149060 36773.71270492 0 2085.66276516 0 20975.48072698 0 -1502.44786853 0 5906.76716788 0 2784
0.05250000 0.05249300 35158.21161538 0 -192.90666984 0 19388.31983470 0 489.03756515 0 3017.17648921 0 3055
0.05350000 0.05348950 35068.02827449 0 211.16852176 0 18071.48927365 0 2620.55652701 0 -986.48931290 0 3009
0.05450000 0.05448610 36275.67218408 0 828.83982567 0 18262.62083656 0 954.66261230 0 -15.85293515 0 3336
0.05550000 0.05550870 34998.82546722 0 -272.02854615 0 15302.16868017 0 371.28624245 0 -50.12875605 0 3349
0.05650000 0.05647670 33931.01516659 0 475.55180539 0 17001.37221277 0 238.75407888 0 -1444.74590876 0 3324
0.05750000 0.05747970 32166.34358140 0 950.83229184 0 15102.13961346 0 -654.54212023 0 -1447.08562272 0 3639
0.05850000 0.05849280 31904.47137106 0 1100.64318808 0 15364.45120670 0 1644.11590111 0 -39.10463901 0 3846
0.05950000 0.05951020 32901.87056145 0 -790.97490552 0 15250.32149758 0 4565.41904083 0 -497.27599459 0 3787
0.06050000 0.06049470 32869.24638088 0 -388.40899419 0 12629.29263395 0 1276.70391741 0 1765.34164412 0 3930
0.06150000 0.06148310 31346.23539248 0 1281.57008307 0 12738.69897686 0 -1326.34320091 0 1210.19233043 0 4083
0.06250000 0.06249100 30481.52983887 0 1524.52685942 0 13698.86046619 0 -727.40169171 0 2453.15164087 0 4303
0.06350000 0.06350600 29619.02119979 0 -822.05355673 0 13205.65315729 0 1662.64687506 0 1097.46315432 0 4470
0.06450000 0.06451750 30865.77018777 0 -806.51038652 0 10968.08473790 0 3521.44526270 0 -461.21364280 0 4479
0.06550000 0.06550280 30886.97041285 0 216.01930901 0 10054.42094430 0 716.27541814 0 2013.39526215 0 4636
0.06650000 0.06648880 30314.67418136 0 797.42614500 0 9255.98531708 0 -856.85048575 0 1312.87611492 0 4653
0.06750000 0.06749660 29453.15415381 0 462.68777244 0 8594.90078542 0 1313.52420470 0 983.93869514 0 5220
0.06850000 0.06852730 28561.64624311 0 210.11729816 0 8518.64588256 0 -69.73588857 0 -293.91530702 0 5029
0.06950000 0.06949320 28209.48084615 0 810.05291118 0 8004.39213259 0 1123.84260537 0 2642.03136641 0 5040
0.07050000 0.07048030 28434.88427552 0 -331.68685829 0 8304.95200756 0 86.79053596 0 -826.45507496 0 5475
0.07150000 0.07148790 27229.76681762 0 546.85376448 0 7543.17189904 0 -247.65927188 0 -1555.11889406 0 5509
0.07250000 0.07249820 26877.93095784 0 849.09757442 0 7966.53929547 0 -853.22557680 0 -54.31354867 0 5916
0.07350000 0.07351270 26410.64724023 0 294.26681334 0 7925.85243863 0 -15.90610048 0 983.29939302 0 5721
0.07450000 0.07449140 26109.88964295 0 -542.79935874 0 8052.30683819 0 1762.07922606 0 157.07499408 0 6028
0.07550000 0.07549160 26610.56646121 0 -122.24950517 0 5766.62599089 0 3158.13052457 0 1497.38398057 0 6183
0.07650000 0.07648840 26387.03040918 0 451.66475386 0 6019.18328368 0 -323.80213210 0 434.18060968 0 6330
0.07750000 0.07749960 25475.86011355 0 987.98541168 0 5648.06949902 0 -536.70072404 0 989.89562886 0 6583
0.07850000 0.07848650 24758.56752399 0 40.66532708 0 6414.12260627 0 -955.85663534 0 2012.60437293 0 6549
0.07950000 0.07947320 23820.04564264 0 816.87542921 0 7407.51242766 0 -598.67897791 0 -95.76701883 0 6828
0.08050000 0.08048110 23140.43013704 0 790.47181210 0 7629.54359325 0 -1082.30554261 0 532.62215224 0 7147
0.08150000 0.08149960 23103.41212744 0 -25.66182893 0 7688.11333425 0 526.58722806 0 -1181.26995083 0 7386
0.08250000 0.08250610 22387.10814941 0 -190.48457159 0 6595.75251390 0 1646.33478477 0 191.51492450 0 7227
0.08350000 0.08350160 23224.35227156 0 -165.28706055 0 5925.56177157 0 1184.25775457 0 -1432.94847781 0 7798
0.08450000 0.08449610 22936.66631565 0 538.94377376 0 6484.03941075 0 -515.64000303 0 -516.74175566 0 7371
0.08550000 0.08548940 22286.15992738 0 433.07885705 0 5444.18484734 0 30.64981349 0 1304.00058028 0 8256
0.08650000 0.08650700 21551.40186742 0 -231.08465031 0 6414.24343657 0 846.27563773 0 1047.81728008 0 8037
0.08750000 0.08749060 22177.30281310 0 120.12399038 0 5524.39419633 0 -586.37296125 0 -173.91873768 0 8155
0.08850000 0.08849210 21415.08332168 0 1078.92888500 0 6600.05846635 0 -728.73631728 0 -1093.70752895 0 8718
0.08950000 0.08949900 20339.69366597 0 764.57678070 0 7596.75464410 0 -1396.52363513 0 628.92060469 0 8571
0.09050000 0.09049190 20210.18555524 0 118.76080492 0 8151.61835890 0 812.28717325 0 -785.11353759 0 8932
0.09150000 0.09150830 20232.59408330 0 -163.95682881 0 8007.01744544 0 570.64305331 0 -1480.23706277 0 9285
0.09250000 0.09250820 19815.83939957 0 -13.01605943 0 7455.13054980 0 696.03085087 0 -31.59481627 0 9204
0.09350000 0.09350330 19584.83383818 0 59.27528010 0 6343.93118748 0 269.49550371 0 630.93187993 0 9349
0.09450000 0.09448040 19692.59249520 0 227.62670686 0 6682.28897670 0 1203.25008056 0 1325.06899049 0 9564
0.09550000 0.09549270 19520.24455140 0 322.47409727 0 5579.19622894 0 321.15265319 0 601.96116820 0 10155
0.09650000 0.09649430 18961.56918991 0 645.77313594 0 7099.99931825 0 -82.23699124 0 1945.89506364 0 9913
0.09750000 0.09749140 18137.50655486 0 436.89379911 0 6857.28420249 0 -950.07215942 0 724.22055949 0 10476
0.09850000 0.09850240 17880.46755646 0 146.75279123 0 6684.39801463 0 849.79948861 0 2348.25995729 0 10575
0.09950000 0.09950330 17624.63686104 0 -200.56511385 0 6571.61940794 0 508.72741150 0 1014.33190902 0 10882
0.10050000 0.10051200 17325.96633255 0 462.62296346 0 5843.32027665 0 719.80256440 0 1963.10788887 0 10875
0.10150000 0.10150300 17415.38075336 0 221.29849460 0 5641.98404581 0 660.90328622 0 1409.99072111 0 11118
0.10250000 0.10250800 16883.39790325 0 139.21737444 0 6133.91714429 0 -327.85983321 0 1167.58317339 0 11575
0.10350000 0.10349800 16310.33275168 0 455.11940193 0 5750.88509838 0 -79.38297959 0 1966.66689039 0 11364
0.10450000 0.10450100 15841.29150246 0 156.23577274 0 5501.56825450 0 -89.59753364 0 1273.13393132 0 12093
0.10550000 0.10551000 15737.59713729 0 143.58703741 0 5677.92556730 0 105.29679462 0 1145.85568882 0 12067
0.10650000 0.10649700 15795.15629762 0 104.44439178 0 4786.07713484 0 413.75479696 0 -62.12940159 0 12054
0.10750000 0.10749900 15398.72307316 0 146.71434523 0 5478.58852866 0 32.30518858 0 -45.21876195 0 12807
0.10850000 0.10850100 15275.14663162 0 143.01913501 0 4707.47153345 0 -58.97221574 0 158.51067772 0 12736
0.10950000 0.10950300 15358.51953751 0 72.63010375 0 4992.78482168 0 -243.56971550 0 -823.24757977 0 12933
0.11050000 0.11050200 14969.33613095 0 185.92377705 0 5284.05174825 0 -514.18564562 0 -849.81926084 0 13428
0.11150000 0.11150900 14958.02202119 0 140.29935484 0 4795.62272842 0 818.39239869 0 -879.15575883 0 13453
0.11250000 0.11250000 15204.84536710 0 -414.56545842 0 4673.17769785 0 528.27335995 0 -623.24158066 0 13668
0.11350000 0.11349100 14802.15093626 0 349.75757865 0 4359.17270604 0 239.24289236 0 -841.58083141 0 13791
0.11450000 0.11448600 14673.63143706 0 297.03163026 0 4271.75747744 0 -51.79478617 0 29.88605616 0 14205
0.11550000 0.11549300 14535.66520544 0 266.48023854 0 4734.36176713 0 71.25011190 0 270.20510710 0 14776
0.11650000 0.11649800 14241.71804316 0 31.19948150 0 4701.02358935 0 117.44485313 0 -307.48125415 0 14553
0.11750000 0.11747300 14303.78087825 0 -172.96307987 0 4490.85576215 0 300.32150975 0 192.12127290 0 14568
0.11850000 0.11849100 14102.76320001 0 251.67413315 0 4283.57687754 0 70.81402437 0 361.75492882 0 16015
0.11950000 0.11950300 14069.91932799 0 231.65474963 0 4821.76601116 0 -204.42619111 0 709.21014106 0 15270
0.12050000 0.12050700 13869.45087838 0 91.97613298 0 4605.08433242 0 324.06576184 0 37.18036158 0 15999
0.12150000 0.12150000 14031.36347823 0 42.44988074 0 4692.94992850 0 2.30644169 0 414.82139896 0 15670
0.12250000 0.12250700 13497.07386787 0 59.59833638 0 4387.27124271 0 167.43015066 0 995.52741922 0 16887
0.12350000 0.12352200 13653.60402716 0 5.35561624 0 4409.53697133 0 873.39544897 0 952.94023132 0 16407
0.12450000 0.12449800 13436.76856440 0 264.02189119 0 4178.76208597 0 -126.28194177 0 984.86579307 0 16306
0.12550000 0.12549900 13434.90118706 0 207.16684197 0 4087.94163986 0 251.74004059 0 1256.18473583 0 17523
0.12650000 0.12650100 13114.92058777 0 61.12969564 0 3973.36156327 0 371.08083094 0 1664.15176150 0 17154
0.12750000 0.12750600 13016.38897171 0 -65.92775695 0 4035.75393553 0 496.13140212 0 1625.93643349 0 18007
0.12850000 0.12850300 12711.89661976 0 231.89750868 0 3473.01428219 0 -279.70456547 0 1129.58753683 0 17496
0.12950000 0.12949900 12869.63508203 0 265.60806347 0 3671.49452416 0 19.00067427 0 1583.95339708 0 18405
0.13050000 0.13049000 12333.03871143 0 -33.34564729 0 3616.25310865 0 -173.80999041 0 1043.06755089 0 18100
0.13150000 0.13148800 12331.83040844 0 90.41687291 0 3362.25683685 0 182.90851188 0 1224.23061419 0 19059
0.13250000 0.13249300 12331.06148836 0 95.27260322 0 3248.88506324 0 32.91889665 0 831.43657863 0 18957
0.13350000 0.13349100 12312.05817780 0 76.62727987 0 3120.53033263 0 -125.55036923 0 358.32334835 0 19468
0.13450000 0.13450700 12083.68891383 0 216.23900046 0 3663.87123079 0 41.24421405 0 -18.10191654 0 19953
0.13550000 0.13551000 12038.76201197 0 259.74999092 0 3936.56324512 0 -606.62411926 0 -274.73184946 0 19956
0.13650000 0.13649900 11574.00474606 0 139.77648918 0 3761.04075984 0 -229.21068223 0 -89.37081206 0 19723
0.13750000 0.13749600 11600.58741170 0 167.96619780 0 4543.90026314 0 -280.04398876 0 -519.72626403 0 20946
0.13850000 0.13851100 11188.33640273 0 197.55863633 0 4357.60191216 0 73.07717586 0 80.00382764 0 20955
0.13950000 0.13949800 11191.74162023 0 3.24528212 0 3935.94810906 0 907.62337714 0 393.26856910 0 20506
0.14050000 0.14048300 11424.17517605 0 -278.78735366 0 3673.53765466 0 759.09767589 0 88.75380862 0 21447
0.14150000 0.14148400 11406.38016847 0 209.03531777 0 3522.45584338 0 352.52239557 0 717.04543668 0 21771
0.14250000 0.14249400 11202.28680991 0 269.92829587 0 3436.17202575 0 -558.85221311 0 685.65152824 0 22470
0.14350000 0.14350900 11025.54503707 0 93.08074160 0 3473.00329762 0 -53.63162640 0 1053.27551419 0 22519
0.14450000 0.14449900 10670.54562039 0 4.98668838 0 3268.03117325 0 302.71285120 0 688.29661332 0 22218
0.14550000 0.14550500 10726.52300226 0 -0.96851196 0 3157.99870970 0 375.74597892 0 491.13122468 0 23559
0.14650000 0.14650700 10573.47495249 0 218.19095901 0 3310.58540743 0 215.16690618 0 893.04575086 0 23044
0.14750000 0.14750500 10553.61484526 0 66.63670126 0 2975.80858887 0 -323.12218705 0 195.51221046 0 23649
0.14850000 0.14849900 10229.26238608 0 255.08703986 0 3166.42387687 0 -115.13809288 0 464.33655679 0 23640
0.14950000 0.14949500 10041.55800981 0 233.47709022 0 3040.17818419 0 85.48523920 0 509.86431476 0 24457
0.15050000 0.15050000 9824.42596359 0 42.90266482 0 3210.85647296 0 32.52960340 0 275.49857263 0 24591
0.15150000 0.15149900 9712.57006100 0 53.41577955 0 3065.17907139 0 481.38351498 0 74.92357266 0 25020
0.15250000 0.15250500 9725.29019605 0 201.91731473 0 2831.57016630 0 154.76603693 0 497.09255222 0 25297
0.15350000 0.15350100 9490.69267943 0 -35.03474502 0 2638.98863980 0 -15.50714080 0 660.19917511 0 25452
0.15450000 0.15450400 9569.08957394 0 -28.92391745 0 2417.02338165 0 413.80752291 0 225.34411268 0 26061
0.15550000 0.15549900 9402.38770044 0 154.53316399 0 2420.30776886 0 -106.01364782 0 370.82598886 0 26128
0.15650000 0.15649500 9112.61467575 0 112.83682493 0 2302.22361361 0 -3.79602662 0 875.58577275 0 26331
0.15750000 0.15749700 9250.33924677 0 7.50303427 0 2485.78680601 0 125.79202983 0 324.16681991 0 27345
0.15850000 0.15849900 9250.64681481 0 29.52620156 0 2197.34291460 0 396.28932656 0 164.37534102 0 26980
0.15950000 0.15949700 9249.77903357 0 53.00418761 0 2345.11836954 0 -98.82402538 0 266.10236924 0 27777
0.16050000 0.16050000 8909.57583615 0 371.27306096 0 2546.35573923 0 -561.05791528 0 581.29808872 0 28224
0.16150000 0.16150500 8665.34484938 0 220.18136356 0 2826.18772574 0 -212.52841185 0 544.78317254 0 28075
0.16250000 0.16249700 8493.51318049 0 -46.53317591 0 2949.39069181 0 106.13744396 0 539.75773059 0 28590
0.16350000 0.16349900 8548.40308968 0 -18.50691773 0 2734.63131327 0 367.91507712 0 420.15111358 0 29163
0.16450000 0.16449100 8520.00796956 0 247.52086626 0 3102.23003471 0 9.27732834 0 454.84698453 0 28996
0.16550000 0.16550500 8344.04610138 0 39.89399039 0 3063.48744721 0 4.92156085 0 1028.58549040 0 30777
0.16650000 0.16650700 8460.22992557 0 13.17357821 0 2960.15557294 0 249.67603940 0 717.97143615 0 29211
0.16750000 0.16749900 8372.36432949 0 185.57776302 0 2867.88516325 0 -460.84456116 0 602.57081198 0 30922
0.16850000 0.16850800 8179.96954073 0 49.13498177 0 2997.72281117 0 208.18291493 0 673.60694441 0 30867
0.16950000 0.16949900 8256.21345902 0 -90.01209141 0 2878.60610609 0 127.54956144 0 438.61398317 0 30852
0.17050000 0.17049200 8242.68046560 0 1.79525264 0 2667.58148223 0 147.66121538 0 591.86085371 0 31257
0.17150000 0.17149500 8247.48072381 0 115.34789822 0 2597.91732292 0 372.90426999 0 541.97661425 0 32608
0.17250000 0.17250900 8227.35698685 0 13.02484709 0 2296.90708048 0 45.49348611 0 572.97397962 0 32361
0.17350000 0.17350400 8104.97786372 0 30.62191268 0 2340.73552508 0 84.30307950 0 466.66968000 0 32508
0.17450000 0.17449800 7892.45933799 0 134.19742477 0 2162.02751375 0 -123.34576552 0 681.81351858 0 32791
0.17550000 0.17549800 7764.86254288 0 137.90361956 0 2139.77276970 0 193.72611896 0 502.35965478 0 33633
0.17650000 0.17650100 7801.05670954 0 -5.25360251 0 2272.16982302 0 114.58447043 0 224.48951293 0 33984
0.17750000 0.17750300 7689.11293036 0 79.90189080 0 2006.35415113 0 25.42697877 0 607.01736696 0 34069
0.17850000 0.17849800 7543.04008417 0 -0.62989494 0 1869.84886766 0 222.83963013 0 568.43405577 0 34536
