### header ###
fiducial parameters:
Omega_m = 0.31
Omega_nu = 0
Omega_de = 0.69
Omega_k = 0
H_0 = 100
w_de = -1
zeff = 0
beta = 0
fgrowth = 0
b_1 = 2
gamma = 0.55
Lx = 3500 Ly = 3500 Lz = 3500
nx = 700 ny = 700 nz = 700
xoffset = -983.599254 yoffset = -42.9823471 zoffset = 800.977702
bins = 400 dk = 0.001
kx_ny = 0.628318531 ky_ny = 0.628318531 kz_ny = 0.628318531
############################
A(data) = 9.11242671 (not used)
A(ran) = 9.12065591 (used)
Ngal = 506508
weighted Ngal = 0
Nran = 25229228
weighted Nran = 0
SN(data) = 6705.66322
SN(ran) = 135.389853
SN(data+ran) = 6841.05308
############################
13 columns: k_central k_mean P_0(k) sigma^{lin}_{P_0(k)} P^img_1(k) sigma^{lin}_{P_1(k)} P_2(k) sigma^{lin}_{P_2(k)} P^img_3(k) sigma^{lin}_{P_3(k)} P_4(k) sigma^{lin}_{P_4(k)} N_modes
### header ###
0.00050000 0 0 0 0 0 0 0 0 0 0 0 0
0.00150000 0.00179520 28310.86845107 0 -21729.02240606 0 -5011.61237908 0 -9463.52783143 0 25341.18925371 0 3
0.00250000 0.00253879 41831.99853290 0 -15454.30501042 0 -25889.64896269 0 -478.23204110 0 27690.02040878 0 6
0.00350000 0.00331552 50186.31520964 0 -7246.09413358 0 -16760.48053607 0 -55879.28964137 0 -50667.10995153 0 7
0.00450000 0.00420575 63468.31114637 0 -13704.90198111 0 -47487.95495503 0 23337.60321487 0 46310.84815722 0 24
0.00550000 0.00557378 81199.05897855 0 -15809.76577915 0 -47825.73056191 0 -54082.43325852 0 -48197.88788097 0 45
0.00650000 0.00659388 84889.98521160 0 1921.15780619 0 -31847.35159364 0 -55348.18555707 0 -27311.16250045 0 40
0.00750000 0.00754703 60472.15912908 0 30287.10290418 0 10871.11293115 0 -34047.45163595 0 -16857.14477478 0 57
0.00850000 0.00846663 55883.35393323 0 7595.17286564 0 7359.77347523 0 -2282.34153723 0 6435.92698284 0 75
0.00950000 0.00948925 55654.98466926 0 3632.83981325 0 34536.70449873 0 5710.33005641 0 -21955.08490978 0 112
0.01050000 0.01054430 55077.30599721 0 -10516.15745276 0 12555.69599765 0 23344.08411269 0 -8070.33252180 0 105
0.01150000 0.01145670 59195.20256650 0 -10630.42996132 0 17799.51125653 0 11284.56125854 0 14872.01281788 0 144
0.01250000 0.01249090 60236.75973867 0 7744.45320702 0 1067.73011325 0 13487.62713545 0 19509.47967027 0 169
0.01350000 0.01339930 63504.45039016 0 -4297.10987096 0 -1539.74049244 0 -3085.65431468 0 15376.64408227 0 180
0.01450000 0.01448870 64491.85361950 0 645.03057884 0 17720.42233395 0 -1276.92360886 0 -598.61746431 0 267
0.01550000 0.01550050 68909.18963736 0 5081.57312186 0 11925.84060584 0 -5075.59751437 0 25537.59341146 0 238
0.01650000 0.01653350 67797.22135495 0 -1645.52192640 0 23833.88620410 0 -12308.76280602 0 12407.18457635 0 315
0.01750000 0.01747870 68003.29193658 0 -4115.31519474 0 17879.91832783 0 3531.66091520 0 -7933.78330004 0 297
0.01850000 0.01844180 75004.96834565 0 -619.85943077 0 30501.30206952 0 1463.95792621 0 -14563.89555697 0 388
0.01950000 0.01947590 74723.32390467 0 -539.03933954 0 28873.05887579 0 4900.43751999 0 -8807.67195632 0 399
0.02050000 0.02045430 75837.81863877 0 1115.67008337 0 27556.44800619 0 -5831.42398455 0 -456.85166903 0 462
0.02150000 0.02154770 78030.77870891 0 2480.61307233 0 34350.84553065 0 -211.89460201 0 -6607.02268537 0 571
0.02250000 0.02255340 75257.06428640 0 186.98159139 0 46843.81961886 0 2406.80772915 0 -2687.12303686 0 510
0.02350000 0.02348930 69420.52149102 0 3325.28276554 0 32270.80686665 0 2881.76966300 0 -8254.10442108 0 555
0.02450000 0.02439640 73785.57094340 0 5784.30016817 0 48730.52980544 0 -1179.96278669 0 14803.90846788 0 592
0.02550000 0.02547300 64258.43145215 0 63.36890076 0 43822.40308464 0 4912.23495094 0 3320.13100100 0 837
0.02650000 0.02652900 65289.77297181 0 4946.11137278 0 44532.44585630 0 4704.68145202 0 8115.58896083 0 723
0.02750000 0.02749970 58163.42166394 0 224.57738951 0 34405.76839356 0 11532.26337025 0 6949.56559675 0 826
0.02850000 0.02848090 58568.42285501 0 -1190.02465517 0 34752.33165850 0 8558.11345184 0 12744.96018323 0 831
0.02950000 0.02946900 62204.86560807 0 1714.37322734 0 25458.06510597 0 2288.53683617 0 -384.72037472 0 996
0.03050000 0.03053250 60105.82363350 0 -316.40731783 0 21615.22223412 0 1471.19675954 0 5458.79432887 0 1041
0.03150000 0.03150510 55902.02770662 0 1138.00171943 0 16572.86403638 0 969.58295724 0 -4512.31961697 0 1036
0.03250000 0.03246190 57135.59520750 0 -1191.14508158 0 15171.23257500 0 2921.64366147 0 -2633.61718381 0 1059
0.03350000 0.03345080 53967.97401222 0 1569.03634752 0 13220.59217600 0 1646.42266135 0 -10068.71187323 0 1302
0.03450000 0.03451200 54723.93229727 0 3006.19191663 0 13908.99533967 0 -5667.16068617 0 -12959.59873147 0 1339
0.03550000 0.03553350 47747.19086795 0 3710.45680311 0 17573.99798144 0 -5876.91109961 0 -12231.21172360 0 1365
0.03650000 0.03647120 45604.54014024 0 3594.95402241 0 24965.95625433 0 -1758.16871822 0 -8230.38872888 0 1308
0.03750000 0.03744890 43249.77731597 0 -137.42579065 0 22110.40676608 0 1828.55785933 0 -14658.80226408 0 1579
0.03850000 0.03847530 46370.82392351 0 -394.47906900 0 22734.55018015 0 4158.29782725 0 -15489.56548840 0 1662
0.03950000 0.03950240 45658.80392879 0 954.80651020 0 22177.52250455 0 -1219.62807828 0 -11039.38559852 0 1683
0.04050000 0.04050350 42641.67137787 0 -1166.07828695 0 22049.00300535 0 2628.64117243 0 -4968.30020940 0 1822
0.04150000 0.04152450 43783.18816052 0 -563.78758157 0 16006.93885698 0 1875.01161677 0 -7784.37114379 0 1887
0.04250000 0.04250150 45411.10181708 0 152.89097039 0 19679.85039101 0 3972.63658148 0 -5372.57641868 0 1920
0.04350000 0.04349210 45803.69044114 0 -508.26715791 0 14820.49517247 0 2242.68723022 0 -11459.87503694 0 2005
0.04450000 0.04448520 45307.95668054 0 2551.15599744 0 14409.34262075 0 -3606.70751508 0 -6987.93470877 0 2151
0.04550000 0.04548030 41463.57596852 0 1702.12542891 0 18660.15251828 0 -1835.08269544 0 -3482.32919974 0 2274
0.04650000 0.04648670 40471.22968152 0 434.64855247 0 18427.60911674 0 522.50645935 0 -7790.51151986 0 2311
0.04750000 0.04749250 41159.74269092 0 30.83940721 0 17181.07982020 0 2924.29094346 0 -5472.71178233 0 2568
0.04850000 0.04851840 39435.16479565 0 520.67533110 0 17575.97520450 0 2291.44774790 0 -5953.70424652 0 2493
0.04950000 0.04949480 39290.16843758 0 629.49180246 0 15697.72313882 0 1342.38067688 0 -980.60817274 0 2644
0.05050000 0.05050630 39283.24815685 0 1262.61071079 0 17101.66136044 0 -105.36709588 0 -1757.15813755 0 2829
0.05150000 0.05149060 35962.39217406 0 273.69270889 0 16305.49953975 0 2017.29478542 0 2207.95401171 0 2784
0.05250000 0.05249300 37447.39654133 0 -111.45606415 0 16667.33136058 0 2021.00757095 0 2424.45993729 0 3055
0.05350000 0.05348950 37503.63755295 0 838.39530536 0 14361.12034712 0 670.21600685 0 611.88682799 0 3009
0.05450000 0.05448610 36254.69165045 0 1481.82982580 0 16959.08160834 0 -583.64439342 0 -264.99073050 0 3336
0.05550000 0.05550870 33520.30199778 0 -294.08007560 0 15275.91555170 0 -1077.89084289 0 3361.50988592 0 3349
0.05650000 0.05647670 33856.64961022 0 1306.53801654 0 17800.17033089 0 1467.71465003 0 2756.78719617 0 3324
0.05750000 0.05747970 34083.59087975 0 -20.97910564 0 15519.77306300 0 3180.19853089 0 2906.05655298 0 3639
0.05850000 0.05849280 32720.40542240 0 -356.50759850 0 13004.52563333 0 3106.03069682 0 2376.45735511 0 3846
0.05950000 0.05951020 32740.61703595 0 1071.72300539 0 13974.24370081 0 764.08027801 0 4720.10379192 0 3787
0.06050000 0.06049470 31986.08674534 0 872.72758696 0 13118.65534245 0 -1294.85043132 0 7087.64167410 0 3930
0.06150000 0.06148310 30605.21612614 0 -535.95926539 0 13101.62925495 0 1719.05265526 0 7354.22626607 0 4083
0.06250000 0.06249100 32458.97259497 0 -558.82475167 0 11406.59985992 0 3060.40078232 0 3918.17507062 0 4303
0.06350000 0.06350600 32260.81090560 0 194.14023735 0 10455.24799779 0 1315.97376439 0 7256.94689129 0 4470
0.06450000 0.06451750 32812.34629491 0 -30.34784759 0 10238.93979452 0 567.11151323 0 4983.21725896 0 4479
0.06550000 0.06550280 31651.49666451 0 741.76841419 0 8759.91103473 0 -776.07433282 0 5872.62711630 0 4636
0.06650000 0.06648880 30547.32742863 0 1150.08474927 0 10081.28920883 0 722.08955241 0 3840.64595734 0 4653
0.06750000 0.06749660 30220.31670289 0 149.92074196 0 9174.13926678 0 -617.54937515 0 3952.46890622 0 5220
0.06850000 0.06852730 28855.70325111 0 721.79077203 0 10595.27932906 0 993.08005645 0 3403.92132065 0 5029
0.06950000 0.06949320 28363.26486229 0 233.90658700 0 8865.54966925 0 -336.75733700 0 2043.93237393 0 5040
0.07050000 0.07048030 28045.48117751 0 793.17291850 0 9822.84418514 0 811.99608207 0 2055.57602086 0 5475
0.07150000 0.07148790 27841.05828177 0 -131.90274756 0 6701.14948782 0 -85.83927197 0 1947.24616607 0 5509
0.07250000 0.07249820 26759.51726541 0 86.03172169 0 7579.55280343 0 1013.75412050 0 1071.65050721 0 5916
0.07350000 0.07351270 26808.28876767 0 448.43419106 0 6444.85744035 0 592.85715445 0 405.40322643 0 5721
0.07450000 0.07449140 26858.81780155 0 253.71836211 0 7208.36212676 0 -130.17487429 0 333.90354504 0 6028
0.07550000 0.07549160 25267.15323451 0 207.22835558 0 5963.78808415 0 1499.46006479 0 1739.93432774 0 6183
0.07650000 0.07648840 26606.83170653 0 258.22752916 0 6029.79438079 0 889.89317853 0 1856.05224450 0 6330
0.07750000 0.07749960 25205.09039942 0 505.67260187 0 5737.39604325 0 -1268.56434913 0 827.83803265 0 6583
0.07850000 0.07848650 24271.07219283 0 356.49222010 0 6487.63136598 0 234.82489727 0 2066.53862430 0 6549
0.07950000 0.07947320 24347.08543510 0 686.53139250 0 7397.92289580 0 -1550.91180276 0 -217.84604343 0 6828
0.08050000 0.08048110 23434.15760786 0 894.06292228 0 8533.21142580 0 -505.64404198 0 576.32866808 0 7147
0.08150000 0.08149960 22602.84515490 0 120.48648127 0 9048.44280273 0 29.01662724 0 -20.66967023 0 7386
0.08250000 0.08250610 22622.50753982 0 -113.62771415 0 8259.54178451 0 422.07890607 0 -652.94166801 0 7227
0.08350000 0.08350160 22144.01955818 0 423.46625758 0 8434.95442406 0 -498.80834246 0 -1528.88773473 0 7798
0.08450000 0.08449610 22286.59931029 0 883.24201983 0 9393.74284182 0 -322.74431776 0 -1020.62167528 0 7371
0.08550000 0.08548940 21585.23435097 0 -79.14274699 0 8548.15044451 0 889.51091541 0 -344.26309544 0 8256
0.08650000 0.08650700 21662.67558767 0 -18.01030520 0 8785.98841004 0 751.24041112 0 -1334.58163034 0 8037
0.08750000 0.08749060 21237.02340014 0 255.51983202 0 7711.23585954 0 -203.45076107 0 -819.18987866 0 8155
0.08850000 0.08849210 20457.22859259 0 -2.80296634 0 7542.41396354 0 789.25911529 0 -756.65690386 0 8718
0.08950000 0.08949900 20584.75948026 0 167.40268923 0 6788.64160843 0 374.00382571 0 -532.11905881 0 8571
0.09050000 0.09049190 20235.88945508 0 572.51262757 0 7379.02943096 0 104.37925327 0 -1201.96488557 0 8932
0.09150000 0.09150830 19659.63877746 0 489.96576153 0 6457.09425421 0 195.28373135 0 46.10093298 0 9285
0.09250000 0.09250820 19609.21958931 0 -27.17693102 0 7629.44473210 0 189.81451266 0 511.86021160 0 9204
0.09350000 0.09350330 19130.84145339 0 15.72760118 0 5509.98243710 0 674.34400923 0 -540.86936933 0 9349
0.09450000 0.09448040 19404.02777349 0 -19.21080914 0 6799.20876725 0 1042.94781905 0 -295.11262543 0 9564
0.09550000 0.09549270 19416.33049478 0 275.07896195 0 5440.84553727 0 -310.80957965 0 629.39403977 0 10155
0.09650000 0.09649430 18606.76749554 0 387.83669796 0 6763.94828927 0 227.39932621 0 1669.18269574 0 9913
0.09750000 0.09749140 18734.73776611 0 -160.00787496 0 5570.82598463 0 455.97400168 0 804.35850876 0 10476
0.09850000 0.09850240 18373.89455681 0 40.87238627 0 5847.88985885 0 751.18768518 0 1141.94518098 0 10575
0.09950000 0.09950330 18606.43795836 0 432.47360710 0 5831.36906169 0 -380.97463547 0 843.35703679 0 10882
0.10050000 0.10051200 17929.56859590 0 275.71277179 0 5567.84916546 0 3.13088878 0 2104.50130714 0 10875
0.10150000 0.10150300 17754.36466323 0 185.86995265 0 6061.96819389 0 523.38302824 0 923.20059951 0 11118
0.10250000 0.10250800 17287.19079134 0 359.78209959 0 5706.58431716 0 140.47840337 0 1486.05888624 0 11575
0.10350000 0.10349800 16869.55734180 0 466.79160876 0 5837.57534519 0 -434.34208290 0 1450.33705621 0 11364
0.10450000 0.10450100 16093.71698038 0 468.54254963 0 6478.77780048 0 -7.85215694 0 1252.39505829 0 12093
0.10550000 0.10551000 15627.09233712 0 271.82533156 0 6361.62733390 0 100.39328142 0 1697.24827869 0 12067
0.10650000 0.10649700 15508.12941607 0 198.68345657 0 6325.92747301 0 505.08163186 0 1156.47777051 0 12054
0.10750000 0.10749900 15670.81093600 0 19.06405525 0 6033.04581428 0 19.15445828 0 1081.08295968 0 12807
0.10850000 0.10850100 15330.94826033 0 -206.82082793 0 5635.59102457 0 644.82956116 0 1281.76780537 0 12736
0.10950000 0.10950300 15133.44564532 0 222.60675719 0 5427.22466727 0 73.33553300 0 1134.34385676 0 12933
0.11050000 0.11050200 15060.72777483 0 251.78837271 0 5349.24518652 0 274.99987303 0 1303.07787618 0 13428
0.11150000 0.11150900 14892.55396861 0 235.79922886 0 5549.69166698 0 -119.02992695 0 1085.07585182 0 13453
0.11250000 0.11250000 14866.74022304 0 213.97178468 0 5467.59297151 0 293.11013785 0 1401.77426082 0 13668
0.11350000 0.11349100 14737.78134094 0 -10.11145285 0 5632.96571172 0 -99.02097876 0 1053.05801966 0 13791
0.11450000 0.11448600 14511.27945431 0 -21.90005220 0 5333.14180311 0 -25.08491918 0 1838.88335755 0 14205
0.11550000 0.11549300 14253.58138155 0 69.97941654 0 5491.55032431 0 314.14559434 0 723.21986493 0 14776
0.11650000 0.11649800 14410.44107801 0 66.52916230 0 4949.45068285 0 480.36854047 0 1235.56669309 0 14553
0.11750000 0.11747300 14425.48994245 0 249.60354122 0 5097.69847440 0 22.73235327 0 1339.14022796 0 14568
0.11850000 0.11849100 14036.74591880 0 78.31912374 0 5195.72480012 0 -98.71308119 0 936.68416236 0 16015
0.11950000 0.11950300 13835.50854911 0 145.75978587 0 4647.79235062 0 466.97834649 0 1250.15420548 0 15270
0.12050000 0.12050700 14116.27422428 0 -35.98545978 0 4576.27179854 0 342.90100844 0 624.12254338 0 15999
0.12150000 0.12150000 13962.49020815 0 18.34863004 0 4573.99799202 0 -248.66765564 0 711.85742305 0 15670
0.12250000 0.12250700 13705.89059265 0 235.56415901 0 4597.94436024 0 -154.27722345 0 270.00299096 0 16887
0.12350000 0.12352200 13399.86040053 0 293.22108203 0 4943.54098280 0 -56.31900208 0 636.83498923 0 16407
0.12450000 0.12449800 13224.43677640 0 116.47491537 0 4259.65247846 0 316.74344575 0 534.55983084 0 16306
0.12550000 0.12549900 13376.68295238 0 36.67375309 0 4714.80922794 0 776.28194124 0 1217.87054667 0 17523
0.12650000 0.12650100 13132.82544108 0 23.00883496 0 4082.88873648 0 235.18189588 0 1175.32729706 0 17154
0.12750000 0.12750600 13077.24350381 0 57.78555237 0 4126.51945877 0 363.64976759 0 1729.90541297 0 18007
0.12850000 0.12850300 12859.08989235 0 274.03652602 0 3801.54087895 0 396.84953976 0 2040.68094044 0 17496
0.12950000 0.12949900 12800.65196622 0 -72.80124339 0 3769.68561847 0 102.74035504 0 2384.46510852 0 18405
0.13050000 0.13049000 12604.24780846 0 166.90838346 0 3889.58222819 0 136.75243635 0 2533.66855789 0 18100
0.13150000 0.13148800 12083.46922238 0 283.22841635 0 3700.57068778 0 -130.13532983 0 2377.79747297 0 19059
0.13250000 0.13249300 11977.13855979 0 263.38588444 0 4115.34814846 0 -96.55362407 0 2045.94255071 0 18957
0.13350000 0.13349100 12045.68229270 0 315.78449257 0 4211.77072657 0 -343.15255515 0 789.88962975 0 19468
0.13450000 0.13450700 11693.62674147 0 -153.09088961 0 3945.36188776 0 28.73135789 0 1158.61976216 0 19953
0.13550000 0.13551000 11726.69030494 0 -112.69841931 0 3787.38176489 0 136.05711291 0 253.56897192 0 19956
0.13650000 0.13649900 11707.46730292 0 48.81741777 0 3443.49873566 0 92.26524693 0 652.47152830 0 19723
0.13750000 0.13749600 11501.94594992 0 167.56086707 0 2943.36016146 0 317.83421381 0 -57.77105273 0 20946
0.13850000 0.13851100 11548.74022912 0 138.93836630 0 2979.43349782 0 255.67581295 0 -129.90575226 0 20955
0.13950000 0.13949800 11296.86397983 0 88.39527217 0 2850.34280084 0 41.33450724 0 -94.32946781 0 20506
0.14050000 0.14048300 11062.23350949 0 214.63525287 0 2923.07165590 0 -147.39319181 0 -85.01422073 0 21447
0.14150000 0.14148400 10842.36630471 0 36.19932940 0 2719.01125106 0 131.83684012 0 176.00580647 0 21771
0.14250000 0.14249400 11156.04175934 0 -82.50556404 0 2719.76918657 0 480.56186895 0 128.66449556 0 22470
0.14350000 0.14350900 11072.44916199 0 61.47054693 0 2700.48027712 0 205.36756898 0 -319.13478721 0 22519
0.14450000 0.14449900 10863.96197440 0 22.05987773 0 2311.20899398 0 -381.58098387 0 -32.95239960 0 22218
0.14550000 0.14550500 10775.75585657 0 244.96146085 0 2968.64664754 0 -308.87409796 0 -529.00932632 0 23559
0.14650000 0.14650700 10436.43142496 0 345.40988482 0 3139.08327572 0 -718.84361121 0 54.95493786 0 23044
0.14750000 0.14750500 10159.46641190 0 338.81584590 0 3923.52455747 0 -253.67442382 0 -487.80619456 0 23649
0.14850000 0.14849900 9862.44356930 0 124.33437705 0 3659.88383094 0 486.67258667 0 189.28945009 0 23640
0.14950000 0.14949500 10046.99537324 0 -141.18471139 0 3800.87082002 0 592.27497210 0 113.38056127 0 24457
0.15050000 0.15050000 10035.09908113 0 28.55505550 0 3342.67134394 0 200.71340558 0 255.63297311 0 24591
0.15150000 0.15149900 9965.92922758 0 132.97044801 0 3312.58459964 0 284.76735497 0 604.25474696 0 25020
0.15250000 0.15250500 9881.93020106 0 -47.61845168 0 3108.84274740 0 -133.54494116 0 684.59700927 0 25297
0.15350000 0.15350100 9698.85032984 0 288.14071721 0 3478.42967647 0 -64.07290202 0 260.42554213 0 25452
0.15450000 0.15450400 9347.57468326 0 350.12885720 0 3287.40795928 0 -251.63678561 0 923.52574286 0 26061
0.15550000 0.15549900 9307.29425561 0 -115.73565363 0 3469.55414183 0 317.48710132 0 618.36882427 0 26128
0.15650000 0.15649500 9157.92603765 0 -37.24440164 0 3211.66933133 0 568.72734386 0 560.98212173 0 26331
0.15750000 0.15749700 9256.68832973 0 150.95548870 0 2981.90502665 0 75.05088386 0 631.49429004 0 27345
0.15850000 0.15849900 9042.55507182 0 194.25118153 0 2817.29022195 0 -4.66457678 0 801.45308931 0 26980
0.15950000 0.15949700 9012.72097269 0 6.17092417 0 2947.57823733 0 193.57233494 0 834.65725531 0 27777
0.16050000 0.16050000 8896.02087359 0 38.24213037 0 3015.28714272 0 -148.12476434 0 916.36709691 0 28224
0.16150000 0.16150500 8841.74610047 0 151.48164973 0 2807.05260030 0 59.28231023 0 508.76585751 0 28075
0.16250000 0.16249700 8735.03097784 0 147.21853711 0 3177.49632603 0 -457.25480284 0 308.38528448 0 28590
0.16350000 0.16349900 8521.27119540 0 2.71022359 0 3017.02270519 0 131.62373941 0 566.56448152 0 29163
0.16450000 0.16449100 8559.17895538 0 13.85528078 0 3321.60293373 0 113.62991107 0 467.96915494 0 28996
0.16550000 0.16550500 8467.93011095 0 136.00219004 0 2970.83257749 0 64.62213065 0 172.47536484 0 30777
0.16650000 0.16650700 8540.90062661 0 91.08726137 0 3177.95767808 0 -17.79643558 0 345.92286436 0 29211
0.16750000 0.16749900 8517.55840987 0 48.84993211 0 2963.90131219 0 182.66685128 0 215.12296789 0 30922
0.16850000 0.16850800 8348.05547037 0 -69.15524406 0 2744.97878064 0 -20.86947960 0 287.04445687 0 30867
0.16950000 0.16949900 8495.32563497 0 -23.99601850 0 2750.10857604 0 243.35991017 0 116.04981241 0 30852
0.17050000 0.17049200 8313.73966563 0 63.37900657 0 2624.88444861 0 54.17712027 0 200.26633347 0 31257
0.17150000 0.17149500 8312.09197974 0 67.31214263 0 2569.12675819 0 -23.95471650 0 334.90973189 0 32608
0.17250000 0.17250900 8136.36078758 0 182.83381679 0 2812.63276317 0 8.26569315 0 -35.20171052 0 32361
0.17350000 0.17350400 8134.48242567 0 125.43503122 0 2349.41333742 0 144.58992889 0 327.74779057 0 32508
0.17450000 0.17449800 8263.46327692 0 -86.25921218 0 2533.28409785 0 500.08255288 0 423.91332969 0 32791
0.17550000 0.17549800 8159.15377569 0 -73.69593683 0 2419.82444766 0 184.88573495 0 633.11561296 0 33633
0.17650000 0.17650100 8081.03149549 0 146.01682487 0 2259.01030507 0 -71.44772436 0 368.27976493 0 33984
0.17750000 0.17750300 7972.45998010 0 176.22000564 0 2236.85442217 0 -218.15910375 0 822.97516237 0 34069
0.17850000 0.17849800 7904.10298492 0 16.66930858 0 2492.03702781 0 -1.82406517 0 588.12060675 0 34536
