### header ###
fiducial parameters:
Omega_m = 0.31
Omega_nu = 0
Omega_de = 0.69
Omega_k = 0
H_0 = 100
w_de = -1
zeff = 0
beta = 0
fgrowth = 0
b_1 = 2
gamma = 0.55
Lx = 3500 Ly = 3500 Lz = 3500
nx = 700 ny = 700 nz = 700
xoffset = -983.599254 yoffset = -42.9823471 zoffset = 800.977702
bins = 400 dk = 0.001
kx_ny = 0.628318531 ky_ny = 0.628318531 kz_ny = 0.628318531
############################
A(data) = 9.05383772 (not used)
A(ran) = 9.05285571 (used)
Ngal = 503029
weighted Ngal = 0
Nran = 25229228
weighted Nran = 0
SN(data) = 6742.69077
SN(ran) = 134.383406
SN(data+ran) = 6877.07418
############################
13 columns: k_central k_mean P_0(k) sigma^{lin}_{P_0(k)} P^img_1(k) sigma^{lin}_{P_1(k)} P_2(k) sigma^{lin}_{P_2(k)} P^img_3(k) sigma^{lin}_{P_3(k)} P_4(k) sigma^{lin}_{P_4(k)} N_modes
### header ###
0.00050000 0 0 0 0 0 0 0 0 0 0 0 0
0.00150000 0.00179520 14342.33672801 0 -24901.47681328 0 -14139.12213525 0 -30946.39695052 0 -3088.12584351 0 3
0.00250000 0.00253879 20744.25547414 0 -15809.43624197 0 -29947.67961142 0 14344.20410535 0 11885.08784156 0 6
0.00350000 0.00331552 35492.47215903 0 -12498.13683733 0 -16223.22509111 0 625.88886266 0 14726.02784827 0 7
0.00450000 0.00420575 25910.95903350 0 -3171.15822765 0 -6092.35152165 0 -3265.35093754 0 21079.17509215 0 24
0.00550000 0.00557378 32629.23346998 0 2469.25502428 0 -3290.84613050 0 -8823.27004938 0 -13575.83325328 0 45
0.00650000 0.00659388 26866.83653953 0 -2461.96126808 0 15469.90310348 0 3495.88416230 0 18626.53972618 0 40
0.00750000 0.00754703 54856.18655115 0 -17484.36386918 0 -2584.43925237 0 5023.36587175 0 -29071.55010233 0 57
0.00850000 0.00846663 47474.88331366 0 -3558.90265520 0 -10439.24347554 0 1671.43453312 0 -2256.45089966 0 75
0.00950000 0.00948925 78607.02938653 0 1154.98386864 0 336.35200627 0 -42745.58543449 0 -36449.44812232 0 112
0.01050000 0.01054430 59673.91023960 0 4598.07617511 0 15174.85748395 0 -13393.81888561 0 14015.32600226 0 105
0.01150000 0.01145670 76120.67138274 0 -4786.53848689 0 13301.21893875 0 14173.72353888 0 -14104.08134872 0 144
0.01250000 0.01249090 79779.30297241 0 -18165.62706067 0 16351.08551596 0 16132.71221304 0 -9812.06831944 0 169
0.01350000 0.01339930 94351.76649600 0 2574.88267422 0 9087.35015881 0 8494.02945540 0 -16556.27733178 0 180
0.01450000 0.01448870 99183.87997453 0 4482.37567212 0 20393.62791734 0 -22807.70743355 0 -10155.63279606 0 267
0.01550000 0.01550050 81196.86206403 0 8774.16900994 0 33576.87254657 0 -4580.00655322 0 38407.77772212 0 238
0.01650000 0.01653350 84706.10346659 0 3509.42814030 0 42921.55828724 0 2744.48447488 0 -4465.60222978 0 315
0.01750000 0.01747870 75306.27517156 0 -158.94237142 0 46572.83021328 0 7150.77001272 0 7700.16341038 0 297
0.01850000 0.01844180 81679.74387471 0 10068.81073438 0 59644.69127653 0 -346.96639876 0 68.97048355 0 388
0.01950000 0.01947590 77609.30065896 0 -2268.40211463 0 52221.20728033 0 7255.09049853 0 2378.63230048 0 399
0.02050000 0.02045430 73021.92345754 0 -1851.49364688 0 55443.86118425 0 4038.66484726 0 1109.39789243 0 462
0.02150000 0.02154770 74962.56789549 0 676.67823090 0 42253.91596575 0 8443.84094328 0 -718.76891612 0 571
0.02250000 0.02255340 75075.70899308 0 218.50182242 0 42970.00025233 0 -1150.72185448 0 108.94433179 0 510
0.02350000 0.02348930 77199.79579313 0 4093.32408043 0 39523.48075921 0 9511.79404335 0 -9950.36408824 0 555
0.02450000 0.02439640 76764.03779883 0 1225.49384004 0 42875.97231103 0 1918.63135449 0 4903.78781463 0 592
0.02550000 0.02547300 72820.57624213 0 271.44196997 0 31608.43713999 0 6795.44105886 0 1272.95817816 0 837
0.02650000 0.02652900 69273.32821843 0 -1261.18271635 0 31384.68139651 0 11046.30587925 0 8625.40494348 0 723
0.02750000 0.02749970 65142.79939067 0 1276.85770143 0 22388.31645239 0 2900.93774215 0 3164.17203949 0 826
0.02850000 0.02848090 64301.82051384 0 7495.48786947 0 28084.91579308 0 596.76985920 0 14684.28647247 0 831
0.02950000 0.02946900 60620.78039611 0 2469.47471573 0 31477.83057200 0 -3438.30303283 0 9810.25586496 0 996
0.03050000 0.03053250 59837.14098816 0 113.01257809 0 32156.56731180 0 -4.26471637 0 1717.14133963 0 1041
0.03150000 0.03150510 57001.80311346 0 2297.10480278 0 31313.83090336 0 128.73919065 0 -4278.60086616 0 1036
0.03250000 0.03246190 57411.41782502 0 -2024.81921764 0 34534.61742994 0 -5487.03566498 0 -11314.10975878 0 1059
0.03350000 0.03345080 54796.43047630 0 3069.84751474 0 33168.57598372 0 1506.08376206 0 -4751.65148437 0 1302
0.03450000 0.03451200 55178.36406496 0 2034.29890377 0 37804.72468740 0 -178.34222506 0 -8043.54114927 0 1339
0.03550000 0.03553350 54540.38008943 0 -385.99788051 0 33924.75396022 0 6706.86146556 0 -6353.69647250 0 1365
0.03650000 0.03647120 52497.02989785 0 1643.37993475 0 32331.33186157 0 6133.55465340 0 -8857.02564093 0 1308
0.03750000 0.03744890 52389.60077801 0 -132.51019442 0 26140.97598335 0 1539.10338723 0 -4770.16048917 0 1579
0.03850000 0.03847530 49500.98772629 0 659.07215797 0 24482.74490648 0 4926.55883359 0 -3913.86911817 0 1662
0.03950000 0.03950240 46517.79750465 0 2697.95382542 0 22097.99419907 0 1550.81294161 0 3287.56174330 0 1683
0.04050000 0.04050350 45497.77009475 0 820.93313032 0 19992.36148095 0 6362.39625398 0 2592.46897492 0 1822
0.04150000 0.04152450 44027.92443764 0 1267.93822849 0 18666.41372465 0 4321.19903863 0 1402.69696492 0 1887
0.04250000 0.04250150 42375.07580132 0 545.69269515 0 17044.21204584 0 -3130.03198791 0 3398.48395722 0 1920
0.04350000 0.04349210 42868.94218458 0 -677.08136471 0 15316.77816170 0 3859.34169987 0 -311.51039538 0 2005
0.04450000 0.04448520 40668.95198799 0 527.49455376 0 12603.80842556 0 -2007.35374723 0 2268.67672894 0 2151
0.04550000 0.04548030 40899.73785792 0 -347.32559428 0 13182.03632624 0 2962.79187036 0 1452.87449247 0 2274
0.04650000 0.04648670 42106.94238461 0 364.34289412 0 13626.14259570 0 1078.05451302 0 -5762.68252933 0 2311
0.04750000 0.04749250 41681.07050563 0 2171.37538502 0 14876.95587554 0 -4013.89463609 0 -2515.73075087 0 2568
0.04850000 0.04851840 39706.04435551 0 405.94476586 0 13424.46584311 0 -1067.59390455 0 -2328.50969579 0 2493
0.04950000 0.04949480 40201.11904175 0 -722.25541945 0 17050.58309794 0 825.15010774 0 -3541.56899967 0 2644
0.05050000 0.05050630 39255.23749677 0 -108.89292399 0 13289.68513754 0 2473.67082246 0 -3753.57125049 0 2829
0.05150000 0.05149060 39393.86280275 0 448.73077452 0 14004.34142968 0 2323.66549928 0 -1806.40197643 0 2784
0.05250000 0.05249300 37730.79851393 0 1002.77064638 0 12957.95104558 0 260.78473765 0 -644.58240827 0 3055
0.05350000 0.05348950 39418.13870815 0 676.97591282 0 12529.11333201 0 1839.88295366 0 1729.29027691 0 3009
0.05450000 0.05448610 39312.24742847 0 -99.79286468 0 11206.57079321 0 2037.83593615 0 883.75829475 0 3336
0.05550000 0.05550870 36074.87419729 0 749.20716674 0 13265.07969496 0 -2114.04690071 0 4062.65515378 0 3349
0.05650000 0.05647670 36175.27319069 0 1801.11839702 0 10428.32481040 0 936.79071271 0 1480.54463080 0 3324
0.05750000 0.05747970 35250.04264216 0 -67.93991095 0 13406.01176117 0 1059.11161761 0 722.99577965 0 3639
0.05850000 0.05849280 34317.23273855 0 740.36458581 0 14375.18060003 0 -1273.52937594 0 -1070.78821826 0 3846
0.05950000 0.05951020 32929.66153008 0 1870.11249740 0 13696.55370595 0 -1118.96545514 0 -1741.08770786 0 3787
0.06050000 0.06049470 31465.41800498 0 252.41119797 0 13789.59303572 0 -49.89654218 0 -387.87953779 0 3930
0.06150000 0.06148310 31009.77793431 0 -800.91923908 0 12328.86457385 0 1826.72343570 0 -888.00273359 0 4083
0.06250000 0.06249100 31121.16150028 0 429.58136914 0 10852.21946631 0 4591.08998695 0 -350.05745748 0 4303
0.06350000 0.06350600 30985.28233745 0 -181.21249387 0 9327.14337826 0 -516.57149478 0 1127.06108514 0 4470
0.06450000 0.06451750 31316.90658368 0 748.75679926 0 8404.13171340 0 638.58263473 0 -1318.17067891 0 4479
0.06550000 0.06550280 29914.50620222 0 877.20819412 0 9758.78215785 0 -1714.54898050 0 799.69995152 0 4636
0.06650000 0.06648880 28556.92287690 0 203.40023203 0 9766.78991126 0 644.21881892 0 2011.01160990 0 4653
0.06750000 0.06749660 29366.70556759 0 -395.83456525 0 10024.09253940 0 947.87854027 0 1028.33723906 0 5220
0.06850000 0.06852730 30242.17600233 0 -786.32293903 0 8946.54990746 0 2515.17053767 0 479.79514578 0 5029
0.06950000 0.06949320 30397.27816717 0 140.40260982 0 8532.51939773 0 -35.29738615 0 1164.11204845 0 5040
0.07050000 0.07048030 30434.07648532 0 1140.57210941 0 8747.49846772 0 -1410.36419658 0 1443.77926637 0 5475
0.07150000 0.07148790 28710.81673876 0 1045.04147859 0 9752.69670464 0 -1398.41298161 0 1044.62406483 0 5509
0.07250000 0.07249820 28641.94346868 0 154.03995668 0 11142.31104361 0 932.15632154 0 812.03562653 0 5916
0.07350000 0.07351270 27962.21811734 0 -39.70879050 0 11150.00024442 0 195.65610836 0 1648.49874557 0 5721
0.07450000 0.07449140 27165.61691374 0 232.54340155 0 9935.89740615 0 1124.60054088 0 1375.69688551 0 6028
0.07550000 0.07549160 27492.51779376 0 772.60101097 0 10943.86375536 0 -327.30730921 0 1497.87828634 0 6183
0.07650000 0.07648840 26783.02425073 0 404.41022107 0 10919.89541798 0 426.92859486 0 1676.10297647 0 6330
0.07750000 0.07749960 26659.77734637 0 480.99356265 0 11551.15683509 0 -255.63187466 0 371.36313446 0 6583
0.07850000 0.07848650 26119.55606682 0 325.47508250 0 9704.95775220 0 789.17782945 0 788.02664624 0 6549
0.07950000 0.07947320 26032.44840625 0 -704.42965507 0 10098.17249689 0 1755.01614589 0 1013.41030338 0 6828
0.08050000 0.08048110 25524.85130727 0 456.18051165 0 10178.63449105 0 -13.70984504 0 1652.02479337 0 7147
0.08150000 0.08149960 24674.31585229 0 1104.36695818 0 8916.26544086 0 -877.23565555 0 546.75819869 0 7386
0.08250000 0.08250610 23621.00518747 0 726.48338144 0 10148.35002444 0 -177.28660763 0 1914.22654089 0 7227
0.08350000 0.08350160 23558.17343230 0 170.72112860 0 8923.25162902 0 1706.49728880 0 -419.12954833 0 7798
0.08450000 0.08449610 23577.94566295 0 -167.43893831 0 9255.17245871 0 1898.03528090 0 878.15067044 0 7371
0.08550000 0.08548940 22969.07080477 0 10.48585102 0 7028.87421079 0 627.07519649 0 2503.94430449 0 8256
0.08650000 0.08650700 23070.23871824 0 615.65783175 0 8208.90290491 0 -391.14744813 0 1642.49018437 0 8037
0.08750000 0.08749060 21927.51363260 0 315.65707153 0 6620.40189478 0 -359.74145667 0 1355.70496342 0 8155
0.08850000 0.08849210 21318.85846587 0 322.31152560 0 7891.52564932 0 1.34467645 0 993.62928508 0 8718
0.08950000 0.08949900 21152.99141989 0 635.90789131 0 8172.46707766 0 246.81126287 0 1177.59011901 0 8571
0.09050000 0.09049190 20517.42405034 0 664.66989615 0 8267.65938365 0 -634.45133698 0 130.67247543 0 8932
0.09150000 0.09150830 19924.36697667 0 119.07496370 0 8719.22417789 0 350.39468386 0 1383.46297833 0 9285
0.09250000 0.09250820 19389.85767486 0 132.14990044 0 7999.15249147 0 592.33538725 0 -551.29043334 0 9204
0.09350000 0.09350330 19466.31030003 0 77.92631542 0 8465.12904494 0 463.99823195 0 30.72187229 0 9349
0.09450000 0.09448040 18837.88290265 0 659.03261350 0 7268.09623246 0 342.57366818 0 -359.67884460 0 9564
0.09550000 0.09549270 18332.92210108 0 321.13507787 0 7669.11002369 0 -645.77643131 0 378.04285304 0 10155
0.09650000 0.09649430 17896.28534098 0 162.54311432 0 7330.32383614 0 1150.10671841 0 -37.45563497 0 9913
0.09750000 0.09749140 17997.34340872 0 -121.61239996 0 6361.46256532 0 337.90961866 0 -914.18556080 0 10476
0.09850000 0.09850240 16984.01658810 0 536.51508476 0 6430.39075826 0 -302.82159847 0 -323.11779322 0 10575
0.09950000 0.09950330 16751.25349510 0 485.74548875 0 6565.00669525 0 19.86537982 0 -394.19347011 0 10882
0.10050000 0.10051200 16455.54880121 0 15.67718199 0 6747.16386236 0 387.41708729 0 -35.78718824 0 10875
0.10150000 0.10150300 16650.85450170 0 65.20793791 0 6345.23835161 0 890.80379960 0 -705.34686688 0 11118
0.10250000 0.10250800 16237.72472692 0 273.36427017 0 6279.56159215 0 340.54591608 0 259.92354716 0 11575
0.10350000 0.10349800 16268.15199297 0 93.48025051 0 5499.09672567 0 -80.55294642 0 936.54355983 0 11364
0.10450000 0.10450100 16362.50947144 0 -112.52376461 0 6017.63445895 0 786.18453342 0 555.47775241 0 12093
0.10550000 0.10551000 16044.83563239 0 -268.98581954 0 5117.92107253 0 669.19554006 0 1680.66157409 0 12067
0.10650000 0.10649700 15869.19231681 0 253.07686307 0 4839.67086447 0 410.86805129 0 502.51014342 0 12054
0.10750000 0.10749900 16247.17145934 0 270.37976180 0 4581.63226996 0 -627.23776817 0 1112.48455732 0 12807
0.10850000 0.10850100 15527.13272663 0 279.68479324 0 4810.92423802 0 86.57172327 0 412.25650126 0 12736
0.10950000 0.10950300 15332.37625476 0 139.04381819 0 5284.18356312 0 157.17165832 0 1085.69977554 0 12933
0.11050000 0.11050200 15068.85635854 0 -42.38386346 0 4175.56557535 0 707.68108855 0 637.17770790 0 13428
0.11150000 0.11150900 15548.33295171 0 53.84791263 0 4493.31630641 0 764.93158239 0 294.48320942 0 13453
0.11250000 0.11250000 15026.67559983 0 231.33290165 0 4109.26269525 0 -343.02074028 0 997.90228381 0 13668
0.11350000 0.11349100 14679.56310626 0 390.11379985 0 4045.83777316 0 -134.40393473 0 633.28807075 0 13791
0.11450000 0.11448600 14590.91760552 0 178.48722142 0 4456.94638659 0 -245.08558652 0 1281.24054589 0 14205
0.11550000 0.11549300 14014.33739073 0 -147.44481930 0 4412.78840481 0 271.51446815 0 204.93367836 0 14776
0.11650000 0.11649800 14465.69347810 0 221.77852042 0 4663.80785744 0 -189.77277129 0 541.00557803 0 14553
0.11750000 0.11747300 14028.17795218 0 268.92540439 0 4476.08151203 0 -231.45043658 0 728.51992120 0 14568
0.11850000 0.11849100 13932.50232500 0 38.46083321 0 4445.30273965 0 655.93825941 0 457.79524381 0 16015
0.11950000 0.11950300 14191.84808364 0 -63.13438014 0 4436.75674219 0 500.99646932 0 764.40432291 0 15270
0.12050000 0.12050700 13922.50636395 0 63.66855990 0 4116.25986798 0 23.23995036 0 732.33266634 0 15999
0.12150000 0.12150000 13764.54821023 0 191.39629111 0 4440.31574370 0 -356.22419653 0 1069.65461037 0 15670
0.12250000 0.12250700 13581.32553957 0 362.17014566 0 4505.05881450 0 -19.97160064 0 1148.01964962 0 16887
0.12350000 0.12352200 13355.37288157 0 78.44577586 0 5043.30287098 0 -544.04720618 0 816.39869876 0 16407
0.12450000 0.12449800 13214.33096963 0 -1.56603756 0 4625.13117738 0 559.38496488 0 656.64017360 0 16306
0.12550000 0.12549900 13310.33613399 0 93.74662639 0 4774.34561133 0 468.31846435 0 592.72314266 0 17523
0.12650000 0.12650100 13206.97130600 0 -7.55261863 0 4727.25474867 0 -201.30327713 0 333.16867714 0 17154
0.12750000 0.12750600 13233.33428020 0 145.35115977 0 4120.36809812 0 137.67074662 0 21.93113854 0 18007
0.12850000 0.12850300 12839.20781598 0 219.23229649 0 4686.75462956 0 -480.85515703 0 125.38669910 0 17496
0.12950000 0.12949900 12851.73022872 0 241.73968571 0 3873.36899906 0 387.97400512 0 -106.44852705 0 18405
0.13050000 0.13049000 12401.25290716 0 70.25370132 0 4746.52168898 0 205.91350224 0 184.10692875 0 18100
0.13150000 0.13148800 12337.32269474 0 25.51902948 0 4127.04671825 0 -84.92744260 0 55.71957396 0 19059
0.13250000 0.13249300 12382.68897950 0 88.19491356 0 4248.93153562 0 371.44112492 0 -282.06844549 0 18957
0.13350000 0.13349100 12375.87854450 0 141.26380031 0 4037.10503796 0 -266.04305255 0 -409.60592390 0 19468
0.13450000 0.13450700 12350.94356474 0 -93.84241187 0 4073.70563380 0 -80.87018088 0 -320.66933200 0 19953
0.13550000 0.13551000 12203.75029215 0 -71.32063286 0 4064.10511736 0 484.21753470 0 -217.04416963 0 19956
0.13650000 0.13649900 12186.17497602 0 261.77664456 0 3942.93429722 0 155.33064396 0 -83.19934965 0 19723
0.13750000 0.13749600 12030.63342826 0 202.59286595 0 3804.42982154 0 319.72246184 0 158.70730157 0 20946
0.13850000 0.13851100 11671.98713348 0 223.42400939 0 4013.70789836 0 192.27615538 0 1023.31069865 0 20955
0.13950000 0.13949800 11558.51649872 0 -47.10777890 0 3702.09754337 0 321.10212416 0 550.96528999 0 20506
0.14050000 0.14048300 11250.50908354 0 227.75083253 0 3382.56731155 0 294.14049075 0 953.15003666 0 21447
0.14150000 0.14148400 11240.07373959 0 322.04460048 0 3354.00742284 0 37.09830682 0 1420.31621934 0 21771
0.14250000 0.14249400 10797.97764690 0 -210.66652679 0 3027.07358910 0 291.64259895 0 1113.33036941 0 22470
0.14350000 0.14350900 10881.06495391 0 340.61182352 0 3395.75978322 0 -67.55303431 0 518.24114982 0 22519
0.14450000 0.14449900 10384.35356635 0 389.61839563 0 3107.68936728 0 -470.63511070 0 1110.82588686 0 22218
0.14550000 0.14550500 10373.00650288 0 34.86404476 0 3317.04433611 0 296.38024510 0 904.27967324 0 23559
0.14650000 0.14650700 10256.76775582 0 -146.49575223 0 3470.55373793 0 1.71708642 0 458.96290388 0 23044
0.14750000 0.14750500 10054.62965118 0 214.28923883 0 3118.27849525 0 38.01178388 0 434.97918811 0 23649
0.14850000 0.14849900 10347.96167739 0 119.42427310 0 3294.05362569 0 167.50045192 0 824.95677926 0 23640
0.14950000 0.14949500 10159.89481023 0 -171.52959314 0 3030.63259062 0 118.82890927 0 399.84722962 0 24457
0.15050000 0.15050000 10140.97937624 0 123.35784855 0 3301.96251795 0 76.19251049 0 471.14479487 0 24591
0.15150000 0.15149900 9936.02922102 0 108.72024651 0 2903.82668474 0 -130.67137697 0 652.66265986 0 25020
0.15250000 0.15250500 9846.80153794 0 165.34198341 0 3337.42071824 0 108.57052678 0 501.13597339 0 25297
0.15350000 0.15350100 9638.31435035 0 275.57656309 0 3225.49890821 0 47.99093853 0 375.01001256 0 25452
0.15450000 0.15450400 9421.81940934 0 155.27572110 0 3555.58531428 0 179.79877938 0 947.00966058 0 26061
0.15550000 0.15549900 9334.98636309 0 -42.14264225 0 3086.60997249 0 132.61564632 0 851.30327660 0 26128
0.15650000 0.15649500 9184.24507355 0 62.03888872 0 3205.66077013 0 235.39499659 0 998.02201565 0 26331
0.15750000 0.15749700 9333.19587775 0 16.46455615 0 2674.35896352 0 87.18828733 0 1036.05829513 0 27345
0.15850000 0.15849900 9189.80326728 0 20.88694507 0 2799.67096752 0 110.48283102 0 1141.37398321 0 26980
0.15950000 0.15949700 9348.11292732 0 66.42162333 0 2722.36154570 0 -3.59526159 0 745.46142749 0 27777
0.16050000 0.16050000 9227.16179863 0 146.30571913 0 2978.02747253 0 -56.86328765 0 656.74342858 0 28224
0.16150000 0.16150500 9085.61459634 0 56.90865394 0 2822.91432311 0 -174.51739689 0 445.51888550 0 28075
0.16250000 0.16249700 8856.19081341 0 57.90462513 0 3017.64882583 0 98.29434929 0 678.72355831 0 28590
0.16350000 0.16349900 8939.48682729 0 71.76166345 0 2714.47462258 0 247.67684719 0 509.74787830 0 29163
0.16450000 0.16449100 8954.49175344 0 21.61676007 0 2834.86553808 0 -108.69212600 0 190.13196681 0 28996
0.16550000 0.16550500 8702.74731902 0 223.48552300 0 2734.16996122 0 -72.30012719 0 317.17843483 0 30777
0.16650000 0.16650700 8637.78455677 0 34.06458757 0 2852.95712912 0 -101.65584819 0 214.81539986 0 29211
0.16750000 0.16749900 8462.70145440 0 73.46427220 0 2672.94195365 0 81.10667872 0 -34.87788532 0 30922
0.16850000 0.16850800 8484.29712410 0 224.83882234 0 3147.50844289 0 -88.90792217 0 -113.72327993 0 30867
0.16950000 0.16949900 8203.63031007 0 114.97442275 0 2816.90576190 0 -122.00564766 0 109.27200159 0 30852
0.17050000 0.17049200 8220.98593475 0 -126.45989184 0 2697.38262765 0 656.89281877 0 204.41191117 0 31257
0.17150000 0.17149500 8180.58467679 0 -104.42637708 0 2618.79899540 0 247.40223288 0 472.05980977 0 32608
0.17250000 0.17250900 8129.55035258 0 184.16295007 0 2297.68698513 0 69.27915004 0 219.76614672 0 32361
0.17350000 0.17350400 8162.09764114 0 180.87966133 0 2490.10374304 0 -224.50818670 0 454.48559210 0 32508
0.17450000 0.17449800 7879.40966576 0 144.37243435 0 2505.60297495 0 -36.95111355 0 336.13561019 0 32791
0.17550000 0.17549800 8006.36935565 0 -58.06708696 0 2310.92339509 0 211.26518600 0 219.44759412 0 33633
0.17650000 0.17650100 7985.47669860 0 -20.74502439 0 2356.11392669 0 95.40617562 0 -51.12659462 0 33984
0.17750000 0.17750300 7881.38688882 0 96.46816410 0 1979.14536484 0 3.51181179 0 -20.09407862 0 34069
0.17850000 0.17849800 7712.23545564 0 80.30183909 0 2184.09552007 0 32.11262902 0 272.82053383 0 34536
