### header ###
fiducial parameters:
Omega_m = 0.31
Omega_nu = 0
Omega_de = 0.69
Omega_k = 0
H_0 = 100
w_de = -1
zeff = 0
beta = 0
fgrowth = 0
b_1 = 2
gamma = 0.55
Lx = 3500 Ly = 3500 Lz = 3500
nx = 700 ny = 700 nz = 700
xoffset = -983.599254 yoffset = -42.9823471 zoffset = 800.977702
bins = 400 dk = 0.001
kx_ny = 0.628318531 ky_ny = 0.628318531 kz_ny = 0.628318531
############################
A(data) = 9.07953352 (not used)
A(ran) = 9.07037797 (used)
Ngal = 503616
weighted Ngal = 0
Nran = 25229228
weighted Nran = 0
SN(data) = 6759.76665
SN(ran) = 134.643512
SN(data+ran) = 6894.41016
############################
13 columns: k_central k_mean P_0(k) sigma^{lin}_{P_0(k)} P^img_1(k) sigma^{lin}_{P_1(k)} P_2(k) sigma^{lin}_{P_2(k)} P^img_3(k) sigma^{lin}_{P_3(k)} P_4(k) sigma^{lin}_{P_4(k)} N_modes
### header ###
0.00050000 0 0 0 0 0 0 0 0 0 0 0 0
0.00150000 0.00179520 13735.54893861 0 -28495.29942471 0 -26740.18441767 0 7866.27211695 0 -25682.91930671 0 3
0.00250000 0.00253879 41969.74507307 0 -43793.29396730 0 -14653.63951496 0 -20215.56799580 0 27025.23407615 0 6
0.00350000 0.00331552 63937.02285842 0 -20922.75477859 0 -3672.43919740 0 -39888.49810608 0 -29793.01682947 0 7
0.00450000 0.00420575 75734.89319368 0 10953.74987068 0 -2246.03752485 0 -43682.56947568 0 10578.75853190 0 24
0.00550000 0.00557378 75959.63754870 0 13675.79286377 0 29290.91201678 0 -9094.59997672 0 -1879.42741495 0 45
0.00650000 0.00659388 59487.17250572 0 7400.10882574 0 84669.85437707 0 7071.94471988 0 21910.81708228 0 40
0.00750000 0.00754703 68791.87440219 0 2336.69320237 0 49520.21072831 0 21586.11311678 0 24171.66181097 0 57
0.00850000 0.00846663 61673.10244940 0 -5420.34832484 0 55985.29076678 0 41182.92013907 0 9800.97390113 0 75
0.00950000 0.00948925 64232.06847795 0 -5363.99746749 0 30706.49388534 0 27104.10330729 0 24961.01319667 0 112
0.01050000 0.01054430 74218.69264028 0 -216.20275138 0 39160.88001830 0 12188.48173626 0 19029.23415702 0 105
0.01150000 0.01145670 72214.55737281 0 3147.54139660 0 8655.11821231 0 14747.99699344 0 31556.37026596 0 144
0.01250000 0.01249090 76597.29198705 0 -7874.77417613 0 17779.95871734 0 2746.56055909 0 3244.26055818 0 169
0.01350000 0.01339930 83253.06420553 0 -6637.41699770 0 18270.74942027 0 -4458.58308790 0 -6954.14616351 0 180
0.01450000 0.01448870 84218.71798116 0 11942.42731044 0 15935.53913521 0 -12526.80657176 0 -22200.69995270 0 267
0.01550000 0.01550050 73817.64589534 0 4816.35061688 0 13240.36440665 0 -17069.58640850 0 21887.96917131 0 238
0.01650000 0.01653350 81967.10029343 0 -6861.80984640 0 28359.74979906 0 20443.05849396 0 -39264.35469201 0 315
0.01750000 0.01747870 85566.41519116 0 -3583.28840633 0 15428.27157340 0 -7242.32642519 0 -15022.06207934 0 297
0.01850000 0.01844180 76732.84161270 0 6923.69692832 0 18752.42292797 0 -4935.52224481 0 -5373.09269359 0 388
0.01950000 0.01947590 68921.82189583 0 4270.19766813 0 28430.38060076 0 -5870.69383153 0 -7606.87143544 0 399
0.02050000 0.02045430 74419.93000997 0 2996.75616878 0 30611.91671541 0 6097.59116277 0 -15554.26462091 0 462
0.02150000 0.02154770 66760.60724045 0 2575.21221140 0 24489.77503293 0 8041.17946616 0 -8811.70329446 0 571
0.02250000 0.02255340 63373.95366790 0 -1607.89976531 0 34109.40462531 0 -551.43762661 0 895.35910185 0 510
0.02350000 0.02348930 63009.37570392 0 6813.45575789 0 25184.54924870 0 8282.66430979 0 8967.12401191 0 555
0.02450000 0.02439640 62488.92665502 0 -3201.32186396 0 20408.89647323 0 5929.24160338 0 13243.00070407 0 592
0.02550000 0.02547300 65677.52838393 0 -1479.69881872 0 19177.08650396 0 6327.84977322 0 1099.95116001 0 837
0.02650000 0.02652900 64961.33425163 0 2024.87414050 0 21038.86171077 0 3210.14247574 0 8899.04163105 0 723
0.02750000 0.02749970 63736.00518018 0 -1934.35027786 0 15954.32275432 0 2259.21901195 0 22397.43364763 0 826
0.02850000 0.02848090 58886.20653979 0 2823.35370601 0 17760.73571532 0 3131.51490521 0 20534.77967501 0 831
0.02950000 0.02946900 61310.50170849 0 2212.61147049 0 13883.51113129 0 1639.63419550 0 6047.35871235 0 996
0.03050000 0.03053250 60624.84468797 0 307.03637896 0 19134.35651662 0 4472.35774192 0 10614.27165505 0 1041
0.03150000 0.03150510 58627.51985550 0 2596.44539020 0 19870.65241675 0 -8934.07143301 0 9384.32906312 0 1036
0.03250000 0.03246190 54902.21191026 0 3950.27199170 0 22287.69776755 0 -5783.23466463 0 8393.25698654 0 1059
0.03350000 0.03345080 53934.69075730 0 -693.19024040 0 25028.56831804 0 4092.51122206 0 6063.95640152 0 1302
0.03450000 0.03451200 52451.22423019 0 -2257.85692495 0 19340.64678970 0 2834.97538380 0 -6861.27160234 0 1339
0.03550000 0.03553350 56392.26918092 0 2870.31275380 0 23451.29354109 0 1377.70706230 0 -1315.89687238 0 1365
0.03650000 0.03647120 50552.76055095 0 1722.01848986 0 18849.63639531 0 -2647.22706924 0 -8.58291662 0 1308
0.03750000 0.03744890 48633.53602954 0 -450.59815186 0 21719.02644501 0 4097.46526429 0 1362.93281218 0 1579
0.03850000 0.03847530 48914.74108762 0 914.93251173 0 15523.72750913 0 5329.18735698 0 -2315.46002357 0 1662
0.03950000 0.03950240 47167.20543566 0 3137.55642013 0 18438.81338077 0 250.78987506 0 -906.30742534 0 1683
0.04050000 0.04050350 45558.40493540 0 1304.16534887 0 13342.19139448 0 212.54159333 0 4615.93709013 0 1822
0.04150000 0.04152450 44088.66912401 0 -381.32394488 0 16155.66996974 0 1088.11308613 0 646.74087679 0 1887
0.04250000 0.04250150 41674.04037918 0 438.16691107 0 15850.40869770 0 -961.54225011 0 2837.74349609 0 1920
0.04350000 0.04349210 44521.24159226 0 -403.14260139 0 12250.98395425 0 3873.09438475 0 676.03014112 0 2005
0.04450000 0.04448520 45279.28694610 0 -445.34752617 0 14627.05684932 0 -821.54716793 0 -1968.28162256 0 2151
0.04550000 0.04548030 43866.01183779 0 1059.67512618 0 13986.32673065 0 -1921.53128165 0 -320.07726353 0 2274
0.04650000 0.04648670 43626.32846406 0 955.93462581 0 16764.54482792 0 -718.21529366 0 -1252.93330235 0 2311
0.04750000 0.04749250 42969.01164080 0 732.01960602 0 18197.15278398 0 -626.60835216 0 -742.58896176 0 2568
0.04850000 0.04851840 40427.40123692 0 899.15537013 0 21103.23130610 0 -623.24817141 0 -2859.80051783 0 2493
0.04950000 0.04949480 42037.95926880 0 1927.62771944 0 19631.29858020 0 1024.22900892 0 1884.28259603 0 2644
0.05050000 0.05050630 38642.18850100 0 -350.22222607 0 18397.07200496 0 3753.51632763 0 2336.51744920 0 2829
0.05150000 0.05149060 37254.06806390 0 535.11345330 0 18623.02466296 0 3161.39294263 0 4050.92363027 0 2784
0.05250000 0.05249300 35706.34178719 0 2287.64708579 0 15807.01963600 0 3286.17768715 0 6730.70897264 0 3055
0.05350000 0.05348950 35895.71581849 0 -286.05694379 0 14960.98785579 0 1598.80453921 0 7694.75900067 0 3009
0.05450000 0.05448610 34793.74349713 0 108.51604330 0 13236.19026907 0 3085.23690092 0 6126.33778921 0 3336
0.05550000 0.05550870 34456.84665606 0 535.17167153 0 11581.58410114 0 -222.90114374 0 7833.84565869 0 3349
0.05650000 0.05647670 33894.98576852 0 73.66199450 0 9668.62078610 0 1084.78805601 0 4257.82903941 0 3324
0.05750000 0.05747970 34188.27385645 0 1535.47847828 0 13205.98269447 0 -2358.61840924 0 3288.95678402 0 3639
0.05850000 0.05849280 31185.20155843 0 499.78267405 0 10892.82943114 0 -2199.75952057 0 2937.12092424 0 3846
0.05950000 0.05951020 31595.58519007 0 241.69245205 0 14066.73380194 0 2545.44401970 0 2261.42691104 0 3787
0.06050000 0.06049470 30534.25578726 0 -147.09001761 0 11114.95945788 0 529.27844834 0 1406.40975045 0 3930
0.06150000 0.06148310 31099.85142948 0 984.61754173 0 13318.35487198 0 1033.88005439 0 465.23179945 0 4083
0.06250000 0.06249100 30480.54122734 0 539.20960042 0 11371.66891911 0 298.93855206 0 4026.25228025 0 4303
0.06350000 0.06350600 30734.28485397 0 -917.46884954 0 11769.20060083 0 331.06952532 0 407.01686014 0 4470
0.06450000 0.06451750 29482.81249978 0 80.46517968 0 10656.66112064 0 -446.22739043 0 286.09538980 0 4479
0.06550000 0.06550280 30106.95591385 0 583.58727364 0 11997.35017334 0 55.08697242 0 1787.83804877 0 4636
0.06650000 0.06648880 30017.76118449 0 385.34759381 0 10245.89302897 0 52.64598070 0 459.55277543 0 4653
0.06750000 0.06749660 30544.58128549 0 174.96446899 0 12404.10889603 0 1009.58327829 0 -3045.74736249 0 5220
0.06850000 0.06852730 30190.98789410 0 229.56768083 0 10351.72938579 0 -2051.30302213 0 -427.59975225 0 5029
0.06950000 0.06949320 29243.67835468 0 -423.71450892 0 10880.23012639 0 1845.12259478 0 -1862.02785198 0 5040
0.07050000 0.07048030 30516.79031686 0 -676.22127268 0 9495.13044675 0 2948.77555574 0 -600.86380940 0 5475
0.07150000 0.07148790 30615.54162436 0 820.63434995 0 9251.22899715 0 1413.61563007 0 -1067.04247901 0 5509
0.07250000 0.07249820 29455.79045123 0 809.92878551 0 8535.02388028 0 -2297.73092342 0 215.37671152 0 5916
0.07350000 0.07351270 27504.05159497 0 198.19134771 0 8494.24914685 0 1283.78896673 0 -191.08542771 0 5721
0.07450000 0.07449140 27366.08536335 0 685.48346428 0 9593.50827879 0 628.74265461 0 1180.21543186 0 6028
0.07550000 0.07549160 27318.74185553 0 558.37767957 0 8219.72270890 0 791.44174986 0 525.34816828 0 6183
0.07650000 0.07648840 27243.71722480 0 511.48563768 0 10024.09253940 0 -143.79025200 0 1283.99767361 0 6330
0.07750000 0.07749960 25220.90818394 0 430.50187632 0 8330.89756800 0 -1353.00275856 0 246.84641351 0 6583
0.07850000 0.07848650 25102.60433724 0 434.38602119 0 9240.79365320 0 1061.51284517 0 406.21718326 0 6549
0.07950000 0.07947320 25324.05332048 0 -41.52717664 0 8778.78253043 0 323.11339939 0 -1640.22736242 0 6828
0.08050000 0.08048110 24227.79297686 0 660.33098998 0 8509.03438155 0 -122.70316802 0 405.62841017 0 7147
0.08150000 0.08149960 23703.27963610 0 710.38109649 0 9439.64737064 0 202.50828474 0 -309.53756614 0 7386
0.08250000 0.08250610 22904.81105517 0 646.84193485 0 8862.05657517 0 172.62145966 0 645.80608966 0 7227
0.08350000 0.08350160 22187.51846560 0 10.30396846 0 8501.98228595 0 1200.94332032 0 626.46884809 0 7798
0.08450000 0.08449610 22347.34399666 0 -200.09058031 0 8801.59748768 0 780.29790097 0 292.21819055 0 7371
0.08550000 0.08548940 21975.07683188 0 706.47168711 0 7812.92004792 0 -25.11117230 0 1524.09846109 0 8256
0.08650000 0.08650700 21519.21706975 0 88.75611538 0 8148.49874028 0 -419.05265632 0 963.32394778 0 8037
0.08750000 0.08749060 21299.96500103 0 578.58599775 0 8137.20659967 0 591.92566269 0 914.66229125 0 8155
0.08850000 0.08849210 20837.29480390 0 -22.07514629 0 7300.70942846 0 819.75778106 0 1066.36802625 0 8718
0.08950000 0.08949900 20553.78298558 0 -191.83457556 0 7062.34420344 0 642.76555997 0 1753.36846001 0 8571
0.09050000 0.09049190 20762.48986463 0 291.73816473 0 6448.37250358 0 950.38851511 0 789.07786984 0 8932
0.09150000 0.09150830 19880.20899489 0 251.65436092 0 6136.17996624 0 71.10390724 0 1504.78758249 0 9285
0.09250000 0.09250820 19699.95215883 0 603.48362996 0 6253.15467966 0 -19.83231626 0 1934.56996931 0 9204
0.09350000 0.09350330 19161.59825662 0 310.59647894 0 6085.76077810 0 -273.26980285 0 112.88625550 0 9349
0.09450000 0.09448040 18882.80980451 0 701.65385358 0 6080.25750723 0 -61.66629201 0 1497.57071830 0 9564
0.09550000 0.09549270 18279.42723261 0 -17.82873022 0 6769.29777612 0 -89.15661289 0 864.35624420 0 10155
0.09650000 0.09649430 18074.78464542 0 160.22097567 0 6575.49696206 0 591.41488007 0 1166.68243844 0 9913
0.09750000 0.09749140 17786.87899807 0 138.59345072 0 6657.29907408 0 203.89014397 0 1351.24522695 0 10476
0.09850000 0.09850240 17238.08975190 0 369.92854928 0 6328.90429218 0 57.12164480 0 2030.22362735 0 10575
0.09950000 0.09950330 17259.72935989 0 -41.45786399 0 6941.22830616 0 -324.83687883 0 1332.82409873 0 10882
0.10050000 0.10051200 17301.91011860 0 566.82042206 0 6823.70436411 0 800.62704945 0 1515.76117050 0 10875
0.10150000 0.10150300 17346.17794610 0 -93.01516370 0 7069.41826818 0 -662.20605652 0 769.63847174 0 11118
0.10250000 0.10250800 16607.79497718 0 336.67165733 0 6857.10844933 0 -38.62878732 0 288.17476939 0 11575
0.10350000 0.10349800 17077.05591786 0 -23.19051979 0 6986.14422344 0 115.39073805 0 778.97755535 0 11364
0.10450000 0.10450100 16151.71552361 0 -128.51400692 0 6703.28049490 0 -26.25807153 0 -390.63446859 0 12093
0.10550000 0.10551000 16283.31070313 0 576.92842575 0 6577.74879944 0 900.46033736 0 -372.52859761 0 12067
0.10650000 0.10649700 16041.75995207 0 239.44830387 0 5970.34587398 0 174.98643814 0 -385.93526844 0 12054
0.10750000 0.10749900 15569.09379389 0 340.90071778 0 6255.97771482 0 212.33288645 0 661.86663323 0 12807
0.10850000 0.10850100 15297.33546823 0 68.02240509 0 5837.43254575 0 275.16134625 0 -134.91252044 0 12736
0.10950000 0.10950300 14716.25157868 0 119.53961112 0 5472.73375148 0 127.03658190 0 166.81611305 0 12933
0.11050000 0.11050200 14825.98745876 0 3.03509233 0 5162.22185375 0 635.37513954 0 -16.04274856 0 13428
0.11150000 0.11150900 14687.69168997 0 74.19452658 0 5114.59274703 0 -332.86550293 0 -631.13289761 0 13453
0.11250000 0.11250000 14570.37645480 0 294.08776481 0 4642.04741916 0 364.96132556 0 165.26289449 0 13668
0.11350000 0.11349100 14873.77034949 0 -219.83864490 0 4760.92246363 0 754.81369259 0 533.22740219 0 13791
0.11450000 0.11448600 14808.74167981 0 -184.77479076 0 4256.45596784 0 546.78785704 0 -196.10427892 0 14205
0.11550000 0.11549300 14613.10644214 0 325.83427802 0 3812.75612756 0 -153.91583101 0 -101.69264651 0 14776
0.11650000 0.11649800 14570.26660907 0 334.80318154 0 4515.94452592 0 57.36693031 0 1123.88654366 0 14553
0.11750000 0.11747300 14042.56774226 0 171.36811993 0 4551.10614276 0 -636.12868122 0 680.32291208 0 14568
0.11850000 0.11849100 13730.49603523 0 214.22333140 0 4542.09879324 0 162.31353675 0 507.36752142 0 16015
0.11950000 0.11950300 13561.22377175 0 164.22375392 0 5124.38000120 0 246.58827605 0 465.43611250 0 15270
0.12050000 0.12050700 13564.73883497 0 -9.15869496 0 4185.23199922 0 590.91508201 0 415.00813670 0 15999
0.12150000 0.12150000 13479.82808892 0 15.90467249 0 4483.74874369 0 155.59207679 0 198.66917662 0 15670
0.12250000 0.12250700 13416.22741368 0 89.75021920 0 3803.01281168 0 -125.32408704 0 -79.87640659 0 16887
0.12350000 0.12352200 13164.68070156 0 123.73791476 0 3807.13202640 0 226.14708493 0 218.87200251 0 16407
0.12450000 0.12449800 13069.99368591 0 175.46207013 0 3765.02815969 0 84.58175810 0 299.08244996 0 16306
0.12550000 0.12549900 12860.73757824 0 288.21211693 0 3311.22251264 0 -219.39267125 0 -253.02633404 0 17523
0.12650000 0.12650100 12487.92118483 0 68.68631266 0 3727.87833522 0 442.35642705 0 -198.77462852 0 17154
0.12750000 0.12750600 12499.01560313 0 -62.37963016 0 3047.54883240 0 891.52219065 0 806.36099634 0 18007
0.12850000 0.12850300 12727.93409573 0 -114.06599860 0 3041.23270316 0 588.52593748 0 736.93520225 0 17496
0.12950000 0.12949900 12536.47299564 0 86.70826151 0 2451.77856930 0 -277.47469723 0 661.59751120 0 18405
0.13050000 0.13049000 12568.87748475 0 205.33461526 0 2881.54997155 0 -266.43410333 0 825.88168027 0 18100
0.13150000 0.13148800 12424.65004676 0 34.44772946 0 2931.17827047 0 -351.03508444 0 768.73114605 0 19059
0.13250000 0.13249300 12289.86934118 0 170.89248793 0 3318.85679058 0 -193.79642022 0 504.79932835 0 18957
0.13350000 0.13349100 11915.62495334 0 75.67414851 0 3670.25326746 0 -19.76311345 0 15.88468056 0 19468
0.13450000 0.13450700 12166.18305392 0 191.67310234 0 3586.02356491 0 -164.75321032 0 -503.20546687 0 19953
0.13550000 0.13551000 11960.00262657 0 263.69235402 0 3886.50654787 0 -168.09691421 0 -12.70157112 0 19956
0.13650000 0.13649900 11663.41916687 0 -61.88136995 0 3577.40067543 0 298.84298628 0 392.36563723 0 19723
0.13750000 0.13749600 11636.72665550 0 84.06064998 0 3562.25294984 0 389.07246237 0 -196.54256337 0 20946
0.13850000 0.13851100 11216.34706281 0 143.45851791 0 3465.47886540 0 47.62218643 0 319.06778131 0 20955
0.13950000 0.13949800 11433.07267984 0 30.29314442 0 3120.10193430 0 407.81104474 0 478.80763271 0 20506
0.14050000 0.14048300 11461.52272283 0 5.81406836 0 2710.08079355 0 627.61234209 0 247.74714846 0 21447
0.14150000 0.14148400 11332.12445782 0 235.04019489 0 2761.87305327 0 -318.95573867 0 422.74017734 0 21771
0.14250000 0.14249400 11008.84848675 0 72.38833331 0 2748.81239647 0 -191.23591635 0 633.01125952 0 22470
0.14350000 0.14350900 10665.18514897 0 192.71114445 0 3051.21767964 0 67.66474741 0 -15.45199825 0 22519
0.14450000 0.14449900 10527.43860880 0 343.56996891 0 3152.45150055 0 -361.56928954 0 346.58193871 0 22218
0.14550000 0.14550500 10518.90359590 0 115.50607606 0 3480.59363727 0 -144.32959452 0 187.08374792 0 23559
0.14650000 0.14650700 10320.51123051 0 68.74387182 0 3483.57045644 0 -30.50338914 0 -2.39510916 0 23044
0.14750000 0.14750500 10390.50492700 0 -89.52228931 0 3302.63257688 0 375.96567037 0 -78.28825709 0 23649
0.14850000 0.14849900 10181.18291189 0 43.04161967 0 3325.13996610 0 150.42932767 0 192.60898793 0 23640
0.14950000 0.14949500 10107.86088991 0 196.55574486 0 3365.39842461 0 -154.27942036 0 -182.65147288 0 24457
0.15050000 0.15050000 10070.28266711 0 134.90153587 0 3240.02051317 0 -98.56006610 0 402.57469899 0 24591
0.15150000 0.15149900 9811.46416795 0 39.25622611 0 3471.66317976 0 289.13042720 0 -163.60202711 0 25020
0.15250000 0.15250500 9906.96404197 0 22.23035830 0 3268.31677214 0 223.81835555 0 184.58365920 0 25297
0.15350000 0.15350100 9855.90774861 0 196.75346716 0 3236.57135738 0 78.90602945 0 97.40954197 0 25452
0.15450000 0.15450400 9740.40496792 0 76.52050982 0 2728.02958515 0 100.29420057 0 -343.21187185 0 26061
0.15550000 0.15549900 9594.45295203 0 28.93940569 0 2993.73541132 0 66.96052646 0 176.98233497 0 26128
0.15650000 0.15649500 9271.07811981 0 16.88713266 0 2485.83074430 0 252.79016573 0 204.08127553 0 26331
0.15750000 0.15749700 9455.49810888 0 -128.83146106 0 2568.75328272 0 432.27258942 0 318.52184806 0 27345
0.15850000 0.15849900 9413.16356615 0 230.48818802 0 1982.26498346 0 29.52103881 0 -166.74361487 0 26980
0.15950000 0.15949700 9323.38665444 0 203.19591898 0 2097.57004184 0 -129.56413205 0 33.43429279 0 27777
0.16050000 0.16050000 9085.76838036 0 83.78208122 0 2153.18493282 0 -100.44139384 0 126.08861329 0 28224
0.16150000 0.16150500 8943.03484424 0 60.40976676 0 2262.08598539 0 14.11726284 0 166.12847881 0 28075
0.16250000 0.16249700 8959.65450255 0 61.94123587 0 2411.57503365 0 150.91484578 0 55.45308823 0 28590
0.16350000 0.16349900 8890.44071072 0 93.52287065 0 2229.73641914 0 -200.99790601 0 -373.33486524 0 29163
0.16450000 0.16449100 8569.25180844 0 149.31878738 0 2294.39161336 0 312.14530367 0 404.28609540 0 28996
0.16550000 0.16550500 8735.27263843 0 -71.29086466 0 2267.28168822 0 -48.29927549 0 13.30824907 0 30777
0.16650000 0.16650700 8581.04923939 0 231.49107949 0 2400.82113710 0 -56.92996401 0 59.97214139 0 29211
0.16750000 0.16749900 8547.21675584 0 189.99905348 0 2419.45097219 0 -180.66985599 0 16.19708181 0 30922
0.16850000 0.16850800 8289.76034368 0 9.32899977 0 2461.02757941 0 35.07516825 0 134.44128228 0 30867
0.16950000 0.16949900 8233.37653262 0 -23.24566234 0 2427.14017300 0 443.69984028 0 -49.17848068 0 30852
0.17050000 0.17049200 8247.09626377 0 -10.25341746 0 2026.22524293 0 409.75860946 0 446.64919802 0 31257
0.17150000 0.17149500 8257.67440717 0 229.10193496 0 2109.91670142 0 20.66560593 0 488.31697719 0 32608
0.17250000 0.17250900 8146.23591833 0 84.71522066 0 1988.48225154 0 -117.25372156 0 656.60172759 0 32361
0.17350000 0.17350400 7969.04377802 0 35.66229365 0 1958.91178215 0 195.19255940 0 469.93978726 0 32508
0.17450000 0.17449800 7717.99137168 0 147.25918003 0 2047.80992805 0 -55.06698050 0 724.26120241 0 32791
0.17550000 0.17549800 7661.44279203 0 51.20172910 0 2046.96411596 0 33.29182289 0 899.26411740 0 33633
0.17650000 0.17650100 7539.43714437 0 -59.44532128 0 1851.09820226 0 302.84905990 0 597.78922753 0 33984
0.17750000 0.17750300 7708.17116379 0 57.53653211 0 1591.84032020 0 202.69721939 0 734.20004368 0 34069
0.17850000 0.17849800 7676.34885702 0 90.38457826 0 1496.16469301 0 46.54580816 0 371.43563264 0 34536
