### header ###
fiducial parameters:
Omega_m = 0.31
Omega_nu = 0
Omega_de = 0.69
Omega_k = 0
H_0 = 100
w_de = -1
zeff = 0
beta = 0
fgrowth = 0
b_1 = 2
gamma = 0.55
Lx = 3500 Ly = 3500 Lz = 3500
nx = 700 ny = 700 nz = 700
xoffset = -983.599254 yoffset = -42.9823471 zoffset = 800.977702
bins = 400 dk = 0.001
kx_ny = 0.628318531 ky_ny = 0.628318531 kz_ny = 0.628318531
############################
A(data) = 9.08427366 (not used)
A(ran) = 9.08436116 (used)
Ngal = 505133
weighted Ngal = 0
Nran = 25229228
weighted Nran = 0
SN(data) = 6693.95069
SN(ran) = 134.851083
SN(data+ran) = 6828.80177
############################
13 columns: k_central k_mean P_0(k) sigma^{lin}_{P_0(k)} P^img_1(k) sigma^{lin}_{P_1(k)} P_2(k) sigma^{lin}_{P_2(k)} P^img_3(k) sigma^{lin}_{P_3(k)} P_4(k) sigma^{lin}_{P_4(k)} N_modes
### header ###
0.00050000 0 0 0 0 0 0 0 0 0 0 0 0
0.00150000 0.00179520 22146.54600988 0 -19420.83416954 0 -15385.76127751 0 -23606.17601448 0 -67082.23552563 0 3
0.00250000 0.00253879 21615.22223412 0 -9381.94541087 0 -2088.59564604 0 1070.09509173 0 1547.41870868 0 6
0.00350000 0.00331552 44767.07632664 0 -16513.76703589 0 19253.97851203 0 -675.48420786 0 42552.14711133 0 7
0.00450000 0.00420575 46463.42387037 0 -11853.89165543 0 12542.73420201 0 19833.08517852 0 4896.72473446 0 24
0.00550000 0.00557378 52447.26978406 0 6425.08520971 0 26762.37325428 0 11335.20013814 0 27822.82389128 0 45
0.00650000 0.00659388 49521.96825992 0 8110.84362548 0 50515.08346700 0 33178.24240759 0 62943.79780561 0 40
0.00750000 0.00754703 67496.79329485 0 -8016.72780760 0 19827.81258368 0 36237.33602577 0 12973.43929292 0 57
0.00850000 0.00846663 77145.20246740 0 -12268.77896183 0 40344.46771393 0 15808.66732189 0 32312.65808818 0 75
0.00950000 0.00948925 69748.19129113 0 -572.32698829 0 4039.80724281 0 -12004.38029980 0 3633.61971790 0 112
0.01050000 0.01054430 64084.98505109 0 15083.35599435 0 36419.46023917 0 -131.98513185 0 47552.98362472 0 105
0.01150000 0.01145670 65352.82441843 0 4380.26308540 0 29129.32895411 0 11019.50352215 0 14641.77617658 0 144
0.01250000 0.01249090 69094.27968536 0 -5585.98469479 0 28677.31379239 0 11520.40003186 0 18820.08789507 0 169
0.01350000 0.01339930 68533.51725508 0 4675.56135010 0 41311.76917545 0 -8700.23185190 0 -8188.22993931 0 180
0.01450000 0.01448870 64190.43694787 0 2286.75733541 0 33758.99675997 0 -10280.93381550 0 10032.86921290 0 267
0.01550000 0.01550050 66874.07787522 0 652.80985314 0 53987.74624287 0 20130.98678692 0 15590.51371043 0 238
0.01650000 0.01653350 71779.12891569 0 -3323.54720307 0 38232.35409799 0 10397.52406888 0 10197.97832337 0 315
0.01750000 0.01747870 66603.74754399 0 -4631.29352260 0 32818.05827265 0 7638.23239016 0 8330.27144736 0 297
0.01850000 0.01844180 75021.99443315 0 -2690.58317722 0 30343.56360725 0 8698.84779575 0 1328.19959367 0 388
0.01950000 0.01947590 84051.42294074 0 4436.61394274 0 36564.78613442 0 -6983.37611115 0 9683.71358883 0 399
0.02050000 0.02045430 77640.93622800 0 894.02667319 0 21136.07517812 0 13959.52437355 0 11989.11174391 0 462
0.02150000 0.02154770 79086.17644253 0 -2046.15125759 0 33018.41687653 0 4247.29483430 0 4147.86248330 0 571
0.02250000 0.02255340 75628.89206827 0 5195.64790811 0 32355.60776698 0 -8712.50161947 0 9405.27664303 0 510
0.02350000 0.02348930 72502.46302017 0 6114.99072574 0 27622.24559595 0 -800.26785393 0 5891.85011832 0 555
0.02450000 0.02439640 64758.88857895 0 2867.99500898 0 35837.16804663 0 1124.39183400 0 6521.79338671 0 592
0.02550000 0.02547300 64328.73271667 0 -911.16700025 0 33789.53387174 0 8145.41207539 0 -1566.02657463 0 837
0.02650000 0.02652900 67105.85235668 0 498.27998452 0 28085.90440461 0 5881.33788236 0 3061.97157619 0 723
0.02750000 0.02749970 63807.95413059 0 1155.99444932 0 27919.37828427 0 -405.89533528 0 -1174.90988330 0 826
0.02850000 0.02848090 63272.45621725 0 1348.65286782 0 25754.86825712 0 2730.97345060 0 94.10560222 0 831
0.02950000 0.02946900 59004.51038649 0 3594.21805605 0 24781.85481787 0 1309.48188199 0 4047.39758247 0 996
0.03050000 0.03053250 57190.95745331 0 1595.22356855 0 21494.17224427 0 -2179.40510757 0 56.28484006 0 1041
0.03150000 0.03150510 53032.74750264 0 4217.36187402 0 28889.31604321 0 4352.52703963 0 2571.87290133 0 1036
0.03250000 0.03246190 53110.29858507 0 -752.51462154 0 21694.09146525 0 6938.27345613 0 7716.01414861 0 1059
0.03350000 0.03345080 50723.68050032 0 -1993.76583095 0 20819.82933350 0 7758.09604617 0 5530.83115586 0 1302
0.03450000 0.03451200 49696.07373534 0 2799.63801381 0 14435.04652059 0 579.59547997 0 4065.51114265 0 1339
0.03550000 0.03553350 47817.82166965 0 2497.08993120 0 20453.82337509 0 -3131.99822640 0 8982.96376557 0 1365
0.03650000 0.03647120 44583.52411880 0 139.01525830 0 17995.36618566 0 -13.79574440 0 8266.63781840 0 1308
0.03750000 0.03744890 49005.25396569 0 -12.64631872 0 16145.12478006 0 3816.64466625 0 5759.37617299 0 1579
0.03850000 0.03847530 48243.91324008 0 -670.28191429 0 18293.15794834 0 -2007.89199129 0 1798.06468584 0 1662
0.03950000 0.03950240 45731.52179928 0 811.79396594 0 18673.55369683 0 749.94642847 0 3294.72368462 0 1683
0.04050000 0.04050350 46540.86510707 0 1577.13197751 0 22162.03425721 0 -1136.57372499 0 840.25828887 0 1822
0.04150000 0.04152450 46126.85656648 0 492.19672822 0 19567.91759640 0 1286.86464705 0 1382.51830509 0 1887
0.04250000 0.04250150 46928.18113629 0 -948.89571170 0 17940.99255138 0 3887.59402055 0 992.04311280 0 1920
0.04350000 0.04349210 47408.75618672 0 -181.72876879 0 18872.15476910 0 882.72904029 0 -3630.33533070 0 2005
0.04450000 0.04448520 47665.90503085 0 2018.90951759 0 19772.99956650 0 -300.28855603 0 1889.82980518 0 2151
0.04550000 0.04548030 43048.10056338 0 849.52487430 0 19307.03399760 0 -3328.83078249 0 2164.90547177 0 2274
0.04650000 0.04648670 41540.57782232 0 652.36058412 0 19321.64347913 0 2415.22191175 0 690.25845798 0 2311
0.04750000 0.04749250 40919.29039712 0 1232.52396649 0 18256.13993874 0 3548.93964787 0 458.07535042 0 2568
0.04850000 0.04851840 40320.41149998 0 1531.28237156 0 19623.82907084 0 1193.07836635 0 48.56696952 0 2493
0.04950000 0.04949480 38707.87624504 0 375.71522212 0 16811.33910712 0 2406.86265202 0 5226.85507882 0 2644
0.05050000 0.05050630 37443.77163238 0 -186.57845758 0 16450.60574355 0 2087.79377225 0 1993.37038634 0 2829
0.05150000 0.05149060 37828.45136418 0 694.23157788 0 12667.07956363 0 2373.42561308 0 3828.13452917 0 2784
0.05250000 0.05249300 37405.32562834 0 279.45521567 0 13710.50411313 0 230.51564945 0 948.19050214 0 3055
0.05350000 0.05348950 36298.62994077 0 976.09461186 0 10779.00729006 0 -1721.64501439 0 629.46873486 0 3009
0.05450000 0.05448610 33846.65364917 0 1103.23554721 0 13814.96739838 0 -1160.14661775 0 -846.94789357 0 3336
0.05550000 0.05550870 33290.39489365 0 802.69214910 0 14208.76432542 0 820.21803465 0 95.66574107 0 3349
0.05650000 0.05647670 31975.65140139 0 -39.27643772 0 11071.46055046 0 1642.86365984 0 -1749.82044306 0 3324
0.05750000 0.05747970 33287.64875050 0 1507.12729645 0 13542.76968981 0 417.08861474 0 -2801.02206995 0 3639
0.05850000 0.05849280 31026.14494746 0 676.12021461 0 13251.45882496 0 -814.08315086 0 -1541.49802406 0 3846
0.05950000 0.05951020 30775.58684688 0 -281.46429400 0 13487.18775255 0 2381.13678303 0 1900.81437777 0 3787
0.06050000 0.06049470 30395.19109838 0 -350.98016158 0 11947.69990528 0 224.34671349 0 1755.73014311 0 3930
0.06150000 0.06148310 31179.59942642 0 -1002.26535604 0 9888.78457435 0 3141.41200510 0 924.09584218 0 4083
0.06250000 0.06249100 31699.27955524 0 499.44325076 0 10369.33765563 0 2522.78284647 0 1262.03951302 0 4303
0.06350000 0.06350600 31315.47858925 0 1451.64422034 0 11308.28793532 0 -2866.62193741 0 5292.01556337 0 4470
0.06450000 0.06451750 30576.87592888 0 159.69042082 0 11994.49418447 0 895.21410549 0 6004.02457352 0 4479
0.06550000 0.06550280 30516.79031686 0 -1212.24644550 0 10671.77589252 0 1571.26621575 0 2461.12644057 0 4636
0.06650000 0.06648880 31195.52705666 0 -308.29740790 0 10892.37906367 0 -221.25785168 0 2937.61523000 0 4653
0.06750000 0.06749660 30274.69033717 0 1718.47047292 0 10482.52269151 0 -1984.69257400 0 1438.44076410 0 5220
0.06850000 0.06852730 29715.46574705 0 718.16806000 0 12954.32613663 0 -696.18463489 0 2049.74321282 0 5029
0.06950000 0.06949320 28746.73629110 0 575.25986917 0 12479.13352676 0 813.84149027 0 64.82798154 0 5040
0.07050000 0.07048030 28410.38867866 0 -124.74300315 0 11686.59661502 0 616.72003992 0 -1374.85107343 0 5475
0.07150000 0.07148790 27917.07152403 0 382.15437856 0 11375.07413661 0 795.05677269 0 111.17815447 0 5509
0.07250000 0.07249820 27833.91830959 0 554.80329965 0 10853.72435275 0 425.45776059 0 -2463.71879970 0 5916
0.07350000 0.07351270 27262.06146101 0 -175.85641628 0 9142.10825313 0 66.92998935 0 -1754.93925389 0 5721
0.07450000 0.07449140 26758.52865388 0 11.49348783 0 9548.28479347 0 653.86327365 0 -2198.14478840 0 6028
0.07550000 0.07549160 27068.51329212 0 113.33222915 0 8056.68968265 0 1267.45490730 0 -3233.41878504 0 6183
0.07650000 0.07648840 27313.46926069 0 268.37617576 0 6910.24082691 0 481.10450683 0 -3043.56143255 0 6330
0.07750000 0.07749960 26273.12039151 0 96.04097407 0 7538.15194937 0 -486.58800546 0 -3515.85411526 0 6583
0.07850000 0.07848650 25455.64850000 0 832.54602046 0 7500.90326375 0 290.22888446 0 -1113.51710714 0 6549
0.07950000 0.07947320 25135.00882636 0 116.83411089 0 7573.07190561 0 868.10418036 0 -1280.98790072 0 6828
0.08050000 0.08048110 24916.41583199 0 482.28424993 0 7498.35484291 0 574.15042734 0 -1401.49964651 0 7147
0.08150000 0.08149960 24316.43847759 0 723.42417798 0 8520.71098220 0 -769.12768912 0 -1387.28560959 0 7386
0.08250000 0.08250610 23733.26751925 0 438.61068780 0 7585.96779382 0 89.13244683 0 -266.39346041 0 7227
0.08350000 0.08350160 23634.29652029 0 -109.24662722 0 8706.00973708 0 710.85233466 0 1024.55525072 0 7798
0.08450000 0.08449610 22984.33936065 0 18.16782398 0 7727.93240986 0 1106.72864129 0 -193.16041347 0 7371
0.08550000 0.08548940 22645.57514225 0 421.50990521 0 7847.97181903 0 -941.25154764 0 783.29119700 0 8256
0.08650000 0.08650700 22704.45245128 0 303.21814154 0 7663.84841342 0 301.47269295 0 -151.66069826 0 8037
0.08750000 0.08749060 21901.37034986 0 122.27257277 0 7798.47533498 0 836.44554372 0 1052.93499244 0 8155
0.08850000 0.08849210 22070.97215052 0 521.04770811 0 7774.70471991 0 -101.99933577 0 -872.38816367 0 8718
0.08950000 0.08949900 21790.42616679 0 360.70809905 0 7824.77240174 0 -251.61042263 0 -1039.33499313 0 8571
0.09050000 0.09049190 20800.16694858 0 15.69442777 0 7607.48657151 0 246.59706371 0 -603.15519124 0 8932
0.09150000 0.09150830 20842.23786157 0 309.93630613 0 7365.50742211 0 555.81827416 0 -919.09017245 0 9285
0.09250000 0.09250820 20462.39134170 0 363.89911739 0 7309.22247221 0 182.19121929 0 779.14232394 0 9204
0.09350000 0.09350330 19711.92534295 0 243.47085435 0 6647.81938794 0 686.07663120 0 -309.86490640 0 9349
0.09450000 0.09448040 19581.64831213 0 701.27268891 0 7512.33820381 0 -289.64670211 0 297.97959887 0 9564
0.09550000 0.09549270 18790.75908627 0 396.12895180 0 6914.08542731 0 359.34491360 0 891.88028771 0 10155
0.09650000 0.09649430 18444.74504996 0 -7.27369836 0 7366.66080223 0 517.62930912 0 1619.53242768 0 9913
0.09750000 0.09749140 18755.71829974 0 -372.13864528 0 5853.42608343 0 1292.06034988 0 -2.09142967 0 10476
0.09850000 0.09850240 18474.62308738 0 -50.07174612 0 5432.31052438 0 802.92721895 0 642.07792573 0 10575
0.09950000 0.09950330 18117.40478704 0 570.90558460 0 5268.26691745 0 -974.75229710 0 -286.15580494 0 10882
0.10050000 0.10051200 17697.35473153 0 435.20107647 0 5384.52763365 0 -189.94522908 0 1483.06009792 0 10875
0.10150000 0.10150300 17455.47444329 0 272.05710604 0 5479.40138703 0 16.02550278 0 -968.69320686 0 11118
0.10250000 0.10250800 17339.69704828 0 50.53375724 0 5554.45897148 0 -272.01866003 0 -429.96143535 0 11575
0.10350000 0.10349800 17093.64262246 0 175.01609648 0 5498.94294166 0 289.80487996 0 -643.15551230 0 11364
0.10450000 0.10450100 16708.96289066 0 451.95914040 0 6037.00026041 0 123.59511531 0 -384.61382436 0 12093
0.10550000 0.10551000 16281.77286297 0 671.26613199 0 6302.37654940 0 -830.74784593 0 -1477.26024360 0 12067
0.10650000 0.10649700 15733.53284544 0 211.91327578 0 6903.72697537 0 -607.44246992 0 -603.85710543 0 12054
0.10750000 0.10749900 15386.64004332 0 111.13311772 0 7072.36213363 0 751.15473146 0 -518.37296469 0 12807
0.10850000 0.10850100 14967.02937071 0 -107.23875720 0 6443.33058476 0 41.12492160 0 -735.50940473 0 12736
0.10950000 0.10950300 15420.58237259 0 180.64788684 0 5970.42276599 0 354.68196254 0 -1872.89159426 0 12933
0.11050000 0.11050200 15118.39678088 0 168.67909656 0 5502.50194317 0 1003.64831373 0 72.17556214 0 13428
0.11150000 0.11150900 15281.40783799 0 -521.43766044 0 5139.01145188 0 973.47149593 0 -740.99619873 0 13453
0.11250000 0.11250000 15066.76928975 0 220.19454505 0 4897.79023800 0 146.86812924 0 -509.36671363 0 13668
0.11350000 0.11349100 14878.60356143 0 713.24916839 0 4651.92254991 0 -360.76961266 0 51.98547835 0 13791
0.11450000 0.11448600 14381.00242349 0 96.10951780 0 4612.44399605 0 70.20416090 0 780.99651979 0 14205
0.11550000 0.11549300 14249.51708970 0 -137.30386190 0 4663.35748997 0 502.26189208 0 -292.74874541 0 14776
0.11650000 0.11649800 14289.61077962 0 113.47502859 0 4730.64898160 0 586.86067627 0 769.67911466 0 14553
0.11750000 0.11747300 14459.43227173 0 25.91579225 0 4089.35864973 0 64.40738226 0 776.99923383 0 14568
0.11850000 0.11849100 14083.97958090 0 -14.04740095 0 4318.71652523 0 -267.35790589 0 575.35982878 0 16015
0.11950000 0.11950300 13979.18675847 0 357.89495002 0 4653.96568041 0 -183.22706449 0 309.73748536 0 15270
0.12050000 0.12050700 13994.23562291 0 244.42980754 0 4893.80283815 0 -225.14748883 0 -87.68424078 0 15999
0.12150000 0.12150000 13313.52166004 0 213.46649435 0 5109.52885907 0 -186.83659504 0 507.50043475 0 15670
0.12250000 0.12250700 13528.05036255 0 87.49201076 0 4683.17365890 0 544.37234953 0 -406.11502673 0 16887
0.12350000 0.12352200 13154.46504906 0 -93.24012775 0 4362.35823209 0 155.87877413 0 557.81526945 0 16407
0.12450000 0.12449800 13325.05546125 0 175.80478879 0 4292.06795214 0 464.35632902 0 -706.13775611 0 16306
0.12550000 0.12549900 13098.33388317 0 143.52442535 0 4422.29006010 0 -189.06866018 0 239.67678298 0 17523
0.12650000 0.12650100 12795.59906283 0 105.01174496 0 3516.67795820 0 84.60460602 0 -682.99436013 0 17154
0.12750000 0.12750600 12692.23423484 0 -68.14400431 0 4191.32843700 0 447.60924966 0 15.50164852 0 18007
0.12850000 0.12850300 12731.66885041 0 276.77937379 0 3554.49784160 0 -164.83339770 0 -610.52583944 0 17496
0.12950000 0.12949900 12497.47776297 0 169.36782926 0 3473.19003535 0 279.23881959 0 -841.56325609 0 18405
0.13050000 0.13049000 12331.94025417 0 122.03310909 0 3486.51432189 0 -198.73618251 0 -767.92927225 0 18100
0.13150000 0.13148800 12198.91708021 0 20.59936896 0 3300.77618411 0 301.49795747 0 -1068.97356687 0 19059
0.13250000 0.13249300 12210.67057287 0 122.24950517 0 3350.16282244 0 17.83400281 0 -538.79108820 0 18957
0.13350000 0.13349100 11855.86887850 0 -5.80070014 0 3145.27857465 0 -14.95154112 0 -474.64228278 0 19468
0.13450000 0.13450700 11803.14293010 0 83.12015088 0 3415.70776703 0 538.18913362 0 -202.07219721 0 19953
0.13550000 0.13551000 12076.32925020 0 76.10364530 0 2962.97860809 0 -33.24865352 0 -431.44545111 0 19956
0.13650000 0.13649900 11878.38725229 0 84.90020086 0 3216.45860498 0 152.97555160 0 -258.41316843 0 19723
0.13750000 0.13749600 11958.79432358 0 34.88392684 0 3368.97939527 0 -105.47254778 0 -144.68110084 0 20946
0.13850000 0.13851100 11626.62084872 0 117.41739169 0 2969.19587617 0 -410.52093880 0 -58.62048973 0 20955
0.13950000 0.13949800 11535.77843348 0 196.37669632 0 3904.12580229 0 -178.87058300 0 -146.90327987 0 20506
0.14050000 0.14048300 11308.61747249 0 252.28817076 0 3354.01840741 0 -176.31996525 0 -1004.94339483 0 21447
0.14150000 0.14148400 11324.76479419 0 102.31272563 0 3711.64313695 0 596.54906929 0 -370.71943851 0 21771
0.14250000 0.14249400 11103.64534812 0 34.38050388 0 3672.79070373 0 164.44564229 0 -630.31564541 0 22470
0.14350000 0.14350900 10983.90252242 0 13.85363309 0 3167.25870439 0 204.00877735 0 -83.59149889 0 22519
0.14450000 0.14449900 10694.72266464 0 225.72857272 0 3331.58791020 0 -20.42339611 0 -447.12153464 0 22218
0.14550000 0.14550500 10406.17991207 0 189.98037971 0 3052.55779749 0 114.29447771 0 135.97802398 0 23559
0.14650000 0.14650700 10366.40477476 0 250.23625260 0 3129.02140723 0 235.86513630 0 -56.97247430 0 23044
0.14750000 0.14750500 10529.29500156 0 -19.11765997 0 2831.66902745 0 116.62430555 0 -47.84044989 0 23649
0.14850000 0.14849900 10221.08986408 0 27.18308238 0 2889.99710786 0 329.19555723 0 66.91351249 0 23640
0.14950000 0.14949500 10103.19244656 0 68.46068954 0 2685.80488815 0 230.62329826 0 519.99758297 0 24457
0.15050000 0.15050000 10174.95465924 0 23.93769041 0 2658.18967268 0 -80.97365555 0 528.88629910 0 24591
0.15150000 0.15149900 9924.19883635 0 106.61406456 0 2696.19629381 0 -261.70414638 0 164.89161593 0 25020
0.15250000 0.15250500 9795.60244514 0 231.04071202 0 3059.88450740 0 17.33442445 0 219.52558458 0 25297
0.15350000 0.15350100 9573.35158810 0 337.99200296 0 3102.33988043 0 31.25440437 0 1002.71901889 0 25452
0.15450000 0.15450400 9367.91811168 0 -82.39901369 0 3023.71230989 0 199.63252364 0 465.17028585 0 26061
0.15550000 0.15549900 9403.82667945 0 27.51690354 0 2977.79679650 0 363.23345229 0 286.80059936 0 26128
0.15650000 0.15649500 9387.17406742 0 140.82881124 0 2783.97401331 0 150.82367383 0 493.85210331 0 26331
0.15750000 0.15749700 9151.79664615 0 135.77261248 0 2680.07094126 0 -28.54637769 0 1135.13474598 0 27345
0.15850000 0.15849900 8894.82355518 0 58.12321813 0 2307.95756049 0 222.38267191 0 533.53606868 0 26980
0.15950000 0.15949700 9024.94680198 0 -47.14128184 0 2237.14002106 0 249.17074906 0 676.36736750 0 27777
0.16050000 0.16050000 8996.13426810 0 42.43538110 0 2083.53175808 0 145.62357717 0 530.76685793 0 28224
0.16150000 0.16150500 8690.57641260 0 246.03025976 0 2249.04729774 0 -260.56284929 0 811.86866103 0 28075
0.16250000 0.16249700 8474.00457959 0 237.72152906 0 2280.89157365 0 -260.91215870 0 873.68544169 0 28590
0.16350000 0.16349900 8416.58821870 0 14.51819974 0 2589.72283178 0 -33.70242621 0 281.99484885 0 29163
0.16450000 0.16449100 8301.06346887 0 159.05221715 0 2640.07611249 0 140.49927406 0 282.72422447 0 28996
0.16550000 0.16550500 8305.90766537 0 84.31208685 0 2847.30007424 0 -267.61164951 0 647.03526333 0 30777
0.16650000 0.16650700 8090.35739761 0 23.66637147 0 3088.13682808 0 -26.96251217 0 736.09378399 0 29211
0.16750000 0.16749900 8203.95984725 0 40.33710805 0 2877.89210888 0 -22.08481271 0 207.21956792 0 30922
0.16850000 0.16850800 8207.03552757 0 -5.97817787 0 3028.01826235 0 152.38897542 0 600.85172637 0 30867
0.16950000 0.16949900 8335.22548959 0 -40.16541918 0 3083.06195555 0 141.04520732 0 172.28203637 0 30852
0.17050000 0.17049200 8146.74120867 0 48.45756318 0 2822.94727682 0 -42.59202111 0 523.95861984 0 31257
0.17150000 0.17149500 8187.10951291 0 151.09059894 0 2890.62322850 0 167.11928725 0 544.17902105 0 32608
0.17250000 0.17250900 8151.95888065 0 55.72188072 0 2843.59827328 0 -65.80472973 0 306.84414894 0 32361
0.17350000 0.17350400 8021.24246693 0 97.27783694 0 2959.38665286 0 99.19870915 0 309.22450582 0 32508
0.17450000 0.17449800 7876.57564603 0 107.81193220 0 2705.04985931 0 -39.15319082 0 517.65896747 0 32791
0.17550000 0.17549800 7835.43842172 0 0.65153784 0 2776.88896399 0 76.66737356 0 451.89213451 0 33633
0.17650000 0.17650100 7781.17463316 0 84.20817279 0 2438.22360674 0 101.28116442 0 -93.26989594 0 33984
0.17750000 0.17750300 7765.27995664 0 23.71986634 0 2483.62284521 0 97.54113714 0 144.43175104 0 34069
0.17850000 0.17849800 7730.36000040 0 -9.89618818 0 2375.49071272 0 174.10437696 0 -57.56432308 0 34536
