### header ###
fiducial parameters:
Omega_m = 0.31
Omega_nu = 0
Omega_de = 0.69
Omega_k = 0
H_0 = 100
w_de = -1
zeff = 0
beta = 0
fgrowth = 0
b_1 = 2
gamma = 0.55
Lx = 3500 Ly = 3500 Lz = 3500
nx = 700 ny = 700 nz = 700
xoffset = -983.599254 yoffset = -42.9823471 zoffset = 800.977702
bins = 400 dk = 0.001
kx_ny = 0.628318531 ky_ny = 0.628318531 kz_ny = 0.628318531
############################
A(data) = 9.10092213 (not used)
A(ran) = 9.10424922 (used)
Ngal = 505702
weighted Ngal = 0
Nran = 25229228
weighted Nran = 0
SN(data) = 6700.68668
SN(ran) = 135.146307
SN(data+ran) = 6835.83298
############################
13 columns: k_central k_mean P_0(k) sigma^{lin}_{P_0(k)} P^img_1(k) sigma^{lin}_{P_1(k)} P_2(k) sigma^{lin}_{P_2(k)} P^img_3(k) sigma^{lin}_{P_3(k)} P_4(k) sigma^{lin}_{P_4(k)} N_modes
### header ###
0.00050000 0 0 0 0 0 0 0 0 0 0 0 0
0.00150000 0.00179520 26462.49442281 0 -7114.64175350 0 4398.44255302 0 44278.59238394 0 -13140.62448761 0 3
0.00250000 0.00253879 43188.59324670 0 1490.90308275 0 14649.57522311 0 -16301.43524789 0 11543.02825138 0 6
0.00350000 0.00331552 31754.31226387 0 15393.01109541 0 -14003.13312670 0 -13799.36930531 0 52155.73922775 0 7
0.00450000 0.00420575 41998.41480751 0 -1136.52978670 0 -7555.89203409 0 36187.13652907 0 36333.34119013 0 24
0.00550000 0.00557378 56486.40696794 0 -16326.91945628 0 -23785.66393046 0 -10291.61082005 0 -44088.33958683 0 45
0.00650000 0.00659388 60554.10404054 0 4704.36289941 0 -8614.66203149 0 -16084.70963086 0 6434.33421982 0 40
0.00750000 0.00754703 65411.48203601 0 12814.71221912 0 -11586.74685025 0 -11231.83531015 0 5933.96496959 0 57
0.00850000 0.00846663 50182.80014641 0 1143.29628341 0 12463.31574224 0 -19939.96506973 0 11810.83213091 0 75
0.00950000 0.00948925 44975.23397705 0 -268.80347564 0 13201.14948253 0 6506.20627822 0 -7372.90003946 0 112
0.01050000 0.01054430 48339.03963864 0 -2634.77056393 0 3819.25899452 0 16057.68758231 0 1285.97489667 0 105
0.01150000 0.01145670 53706.43133906 0 -1099.59965368 0 9181.21333152 0 5599.59458022 0 11612.78028727 0 144
0.01250000 0.01249090 54870.13695833 0 -1669.14974203 0 950.90698694 0 -5700.46591023 0 -4743.53388524 0 169
0.01350000 0.01339930 56275.39332866 0 -502.55957400 0 7934.02496063 0 -3447.58499666 0 3537.23009350 0 180
0.01450000 0.01448870 57817.84701053 0 3957.74150106 0 12939.05758074 0 -3533.02300220 0 -2582.06658469 0 267
0.01550000 0.01550050 57972.07040957 0 -1190.79357525 0 11725.04261905 0 7450.74770534 0 8476.27838611 0 238
0.01650000 0.01653350 60205.12416963 0 -1793.84660997 0 20308.49747984 0 -3715.78432081 0 -8451.42029836 0 315
0.01750000 0.01747870 56636.89561231 0 -2439.36600228 0 5861.25808368 0 4259.37786414 0 2663.36340636 0 297
0.01850000 0.01844180 61669.47754045 0 -5318.16983068 0 446.86010181 0 10158.26909348 0 -3335.64121749 0 388
0.01950000 0.01947590 64712.86321984 0 -3466.29172377 0 1312.93103779 0 4315.01472427 0 4881.43420942 0 399
0.02050000 0.02045430 77387.52213855 0 3873.37998363 0 -1313.79881902 0 -7234.35162549 0 -339.28708406 0 462
0.02150000 0.02154770 66868.91512610 0 939.13372204 0 5647.33353266 0 -2944.93095534 0 -10337.38353400 0 571
0.02250000 0.02255340 69748.85036548 0 517.72817028 0 14064.86642460 0 -15509.99679341 0 -10753.87458799 0 510
0.02350000 0.02348930 65450.91665158 0 4051.01150685 0 9813.94668135 0 -8938.00391000 0 -18047.87244260 0 555
0.02450000 0.02439640 59798.80482985 0 2194.78350919 0 25241.66902612 0 6622.14844182 0 3847.53328435 0 592
0.02550000 0.02547300 65450.36742295 0 -1718.53638035 0 21475.82800806 0 7886.82425225 0 -7729.15169742 0 837
0.02650000 0.02652900 63550.36590355 0 742.14408657 0 20279.82774540 0 -474.27210269 0 -6071.77741720 0 723
0.02750000 0.02749970 61100.47668074 0 4542.79082131 0 20487.54601291 0 -4341.20194530 0 1925.14520603 0 826
0.02850000 0.02848090 60588.70544417 0 1010.75203682 0 23190.30009655 0 -645.08110787 0 -14.45921258 0 831
0.02950000 0.02946900 56793.09623442 0 -876.86877082 0 18268.66235148 0 4546.00930108 0 -240.68846212 0 996
0.03050000 0.03053250 60280.80787472 0 -694.79618492 0 19652.49880528 0 6790.27830975 0 -9973.92599642 0 1041
0.03150000 0.03150510 58670.03015139 0 1212.94945815 0 17573.77828999 0 -1062.45532150 0 -5888.63163855 0 1036
0.03250000 0.03246190 58067.19680813 0 2787.80762914 0 13100.09141478 0 654.26860438 0 -6675.30278854 0 1059
0.03350000 0.03345080 56795.73253184 0 456.72974027 0 20025.31519869 0 -1167.84680313 0 -5226.93197082 0 1302
0.03450000 0.03451200 50277.15762489 0 3227.86059132 0 16010.01453731 0 -3122.89201573 0 -6077.74204011 0 1339
0.03550000 0.03553350 50492.23555603 0 1586.65560194 0 15619.18344486 0 3479.84668633 0 -7291.11989659 0 1365
0.03650000 0.03647120 47335.70877906 0 -2021.74353731 0 16859.89091793 0 5045.37895520 0 -6607.45108370 0 1308
0.03750000 0.03744890 48840.48537697 0 1795.40641928 0 15356.21277727 0 3803.37530257 0 -3557.97995111 0 1579
0.03850000 0.03847530 45214.69765932 0 2068.74652339 0 14329.26508664 0 -4919.83627517 0 1610.83264619 0 1662
0.03950000 0.03950240 45026.42208528 0 1811.74047870 0 14391.21807600 0 2424.49289101 0 -3330.06105461 0 1683
0.04050000 0.04050350 43180.68435444 0 635.61570168 0 16109.31507344 0 381.44807055 0 -695.71010135 0 1822
0.04150000 0.04152450 40751.99535670 0 626.08109268 0 16029.23753933 0 2470.91369474 0 2805.10833095 0 1887
0.04250000 0.04250150 41959.30972912 0 272.41849847 0 12778.79266678 0 3654.16086863 0 2917.85398393 0 1920
0.04350000 0.04349210 42805.78089224 0 -2218.96055344 0 12615.12253532 0 1992.00829934 0 2508.93130044 0 2005
0.04450000 0.04448520 41671.40408176 0 1221.23182588 0 11754.48127357 0 -946.67572958 0 -1796.03253991 0 2151
0.04550000 0.04548030 39705.93450978 0 2271.88422414 0 13130.07929793 0 -4159.01182447 0 2131.35858710 0 2274
0.04650000 0.04648670 38876.37958844 0 1487.08045149 0 14296.64090607 0 771.14665356 0 774.34645955 0 2311
0.04750000 0.04749250 38625.16241350 0 -383.47801956 0 16539.91031863 0 1629.22082069 0 -1539.80639988 0 2568
0.04850000 0.04851840 37241.32595971 0 937.73318904 0 15326.22489412 0 -1927.78150345 0 -970.98458870 0 2493
0.04950000 0.04949480 37906.88121241 0 683.58862551 0 16265.29600410 0 1053.95655769 0 -3822.26876741 0 2644
0.05050000 0.05050630 36421.54730796 0 856.25951575 0 16186.09723579 0 -3291.23059054 0 -4053.88946486 0 2829
0.05150000 0.05149060 35034.74501957 0 1306.52703197 0 17879.47894493 0 1223.47267868 0 -971.98857863 0 2784
0.05250000 0.05249300 35532.67569468 0 -1108.94752495 0 17233.58607714 0 2531.28490564 0 -2392.24218591 0 3055
0.05350000 0.05348950 34526.37900050 0 642.14493162 0 16625.58998477 0 973.57145554 0 -1890.31312638 0 3009
0.05450000 0.05448610 35264.43243224 0 1207.52307929 0 15879.40796932 0 1073.35970670 0 -557.84932163 0 3336
0.05550000 0.05550870 33534.36225068 0 136.70849806 0 14863.44485127 0 522.39331825 0 700.56198706 0 3349
0.05650000 0.05647670 33418.36516422 0 -51.23852742 0 16055.93005070 0 4552.52315262 0 4770.61085665 0 3324
0.05750000 0.05747970 33636.73846714 0 -406.61043096 0 13114.48120487 0 1477.05153672 0 4131.17691754 0 3639
0.05850000 0.05849280 34275.82089992 0 -566.46122653 0 12660.92820298 0 1365.41532558 0 5890.47704675 0 3846
0.05950000 0.05951020 33480.75753648 0 512.36000966 0 12235.60555263 0 617.14514288 0 2602.44296683 0 3787
0.06050000 0.06049470 33346.96544244 0 1245.40887013 0 12089.62058303 0 -883.10361422 0 4321.73728269 0 3930
0.06150000 0.06148310 33186.15129985 0 377.35631726 0 13680.40638426 0 -153.19084922 0 3552.13615849 0 4083
0.06250000 0.06249100 31457.50911272 0 884.95341624 0 13439.29501610 0 -1409.39755419 0 1002.09839054 0 4303
0.06350000 0.06350600 30726.81534461 0 1033.90751582 0 14363.53695309 0 -1550.30765127 0 37.64182348 0 4470
0.06450000 0.06451750 30531.28995267 0 -372.55825596 0 14222.49504115 0 2460.63213480 0 1306.94444573 0 4479
0.06550000 0.06550280 30527.99458089 0 -552.04946731 0 13520.03162457 0 1498.71311385 0 -180.65557604 0 4636
0.06650000 0.06648880 30312.91664975 0 256.59412321 0 11728.44783655 0 154.71001561 0 -670.20502228 0 4653
0.06750000 0.06749660 30052.36258812 0 996.79064506 0 12602.70996830 0 840.80532058 0 821.85803134 0 5220
0.06850000 0.06852730 28992.90056265 0 601.07471319 0 12015.36487238 0 501.27108363 0 953.66521311 0 5029
0.06950000 0.06949320 29826.73946730 0 179.27591373 0 12425.08942966 0 1427.44520695 0 3271.78789707 0 5040
0.07050000 0.07048030 28537.59002915 0 -9.61613650 0 11066.95687570 0 -356.93270146 0 439.97167634 0 5475
0.07150000 0.07148790 27937.39298331 0 855.25552581 0 13291.88205205 0 -477.73993225 0 3216.64534271 0 5509
0.07250000 0.07249820 27015.67749801 0 752.61677807 0 12444.09274023 0 864.03219930 0 1660.27420738 0 5916
0.07350000 0.07351270 27159.57539882 0 -500.02323619 0 12165.19444239 0 1166.03434865 0 4588.44270496 0 5721
0.07450000 0.07449140 27691.66809466 0 -341.03912339 0 10550.38538092 0 2359.70588192 0 647.84262942 0 6028
0.07550000 0.07549160 27882.47012040 0 363.87604979 0 10708.74996383 0 -159.53114451 0 1753.67602804 0 6183
0.07650000 0.07648840 25803.52991366 0 729.97977089 0 10053.02590358 0 -1308.62508533 0 2593.76515449 0 6330
0.07750000 0.07749960 25648.97697744 0 911.29112592 0 11551.04698936 0 32.13525724 0 1900.39696401 0 6583
0.07850000 0.07848650 24561.83382906 0 -13.28529131 0 9867.93585559 0 -114.47901853 0 975.94412322 0 6549
0.07950000 0.07947320 24585.01127721 0 608.70679422 0 10957.48462536 0 1387.67006963 0 -1241.30063998 0 6828
0.08050000 0.08048110 24271.29188428 0 -16.71039089 0 9201.68857481 0 219.92981685 0 447.06990715 0 7147
0.08150000 0.08149960 23995.02988386 0 395.90486652 0 9075.62961987 0 1311.97537997 0 250.09674853 0 7386
0.08250000 0.08250610 23446.68002060 0 -82.00236077 0 8376.80209681 0 747.20138379 0 1265.06027048 0 7227
0.08350000 0.08350160 23573.44198819 0 194.97945869 0 7597.53454875 0 -296.61421650 0 -108.39114871 0 7798
0.08450000 0.08449610 22916.34485638 0 327.53578832 0 7446.79325922 0 31.96290930 0 -307.27694110 0 7371
0.08550000 0.08548940 22131.71683689 0 355.42891347 0 7820.06002010 0 325.81780116 0 752.13565379 0 8256
0.08650000 0.08650700 22302.85647771 0 306.64203281 0 7159.59062450 0 418.31778841 0 -626.48862032 0 8037
0.08750000 0.08749060 21944.21018293 0 573.44192241 0 7505.83533684 0 895.90173973 0 -51.07386867 0 8155
0.08850000 0.08849210 21511.96725185 0 255.19249175 0 6252.70431219 0 -121.93864177 0 -1314.09540248 0 8718
0.08950000 0.08949900 20149.22117741 0 658.94913075 0 7659.64132212 0 -248.98291287 0 544.08345527 0 8571
0.09050000 0.09049190 19508.60090447 0 639.97547853 0 6961.04447510 0 -214.11128876 0 362.75562338 0 8932
0.09150000 0.09150830 19198.50642049 0 -378.41523006 0 7316.24161409 0 1414.93377878 0 1252.15339769 0 9285
0.09250000 0.09250820 19333.39697179 0 272.53603340 0 5990.20598121 0 921.04322946 0 201.20002214 0 9204
0.09350000 0.09350330 18737.59375498 0 325.53989148 0 6579.02300986 0 -261.83486279 0 1274.30928059 0 9349
0.09450000 0.09448040 18273.93494632 0 464.81877952 0 6110.50902012 0 -250.41200577 0 1617.61012747 0 9564
0.09550000 0.09549270 18448.47980464 0 542.15566278 0 7454.84495092 0 199.82145828 0 1963.32758033 0 10155
0.09650000 0.09649430 17658.90872749 0 -42.28632045 0 6505.36046613 0 133.59766711 0 1956.81372879 0 9913
0.09750000 0.09749140 18074.78464542 0 31.05305715 0 6761.96008163 0 939.04145163 0 1941.78683349 0 10476
0.09850000 0.09850240 17381.98765272 0 57.93417363 0 6836.43548373 0 131.47654614 0 2282.46236753 0 10575
0.09950000 0.09950330 17246.65771852 0 507.28513712 0 6857.94327685 0 -198.13532639 0 1817.73805533 0 10882
0.10050000 0.10051200 16624.49152751 0 538.22428426 0 7808.39440402 0 -600.23549185 0 2531.38376680 0 10875
0.10150000 0.10150300 16180.27541232 0 463.27325016 0 7834.92214680 0 -51.82345591 0 1623.67361154 0 11118
0.10250000 0.10250800 16019.90065263 0 103.43304219 0 8007.90719582 0 287.11036430 0 1461.27769050 0 11575
0.10350000 0.10349800 15798.56151512 0 52.35664706 0 7218.67664042 0 327.34136138 0 1247.95729097 0 11364
0.10450000 0.10450100 15618.30467906 0 -166.74581178 0 7024.82090350 0 930.74809933 0 1718.94280954 0 12093
0.10550000 0.10551000 15763.85026576 0 -26.75314621 0 6614.51416387 0 686.00632994 0 2384.92646057 0 12067
0.10650000 0.10649700 15852.27607504 0 171.93821924 0 6256.77958862 0 829.23746720 0 2055.94949633 0 12054
0.10750000 0.10749900 15763.63057431 0 -117.14277738 0 5480.32409113 0 10.14059492 0 2208.56914778 0 12807
0.10850000 0.10850100 15542.62097397 0 188.74681221 0 5476.04010782 0 451.27809690 0 1708.16694383 0 12736
0.10950000 0.10950300 15268.66573379 0 73.80556287 0 5193.29720958 0 -550.83896741 0 2501.93412771 0 12933
0.11050000 0.11050200 15383.78405445 0 152.65699899 0 4883.57620108 0 465.50311839 0 1562.14902051 0 13428
0.11150000 0.11150900 15534.05300736 0 147.16690962 0 5701.19089202 0 -100.48500260 0 1000.89228447 0 13453
0.11250000 0.11250000 14907.27329587 0 356.00011125 0 5357.15407878 0 -402.16058060 0 1407.88168318 0 13668
0.11350000 0.11349100 14230.40393340 0 376.99053099 0 5447.22757394 0 -412.96610465 0 683.93024572 0 13791
0.11450000 0.11448600 14456.90582003 0 -68.62007569 0 5683.75837534 0 651.52685506 0 1133.21244578 0 14205
0.11550000 0.11549300 14234.24853381 0 34.69828756 0 5326.89158131 0 524.15414524 0 489.23089363 0 14776
0.11650000 0.11649800 14140.76982114 0 240.78842173 0 4476.87240125 0 482.11618597 0 1152.05098776 0 14553
0.11750000 0.11747300 14049.26833154 0 -66.21709059 0 4343.03636892 0 483.99344942 0 1493.82497905 0 14568
0.11850000 0.11849100 13824.41413080 0 152.03197681 0 4644.48599427 0 -197.77832778 0 284.79811177 0 16015
0.11950000 0.11950300 13799.47915104 0 225.70220974 0 4050.47326279 0 259.56435164 0 1179.29272776 0 15270
0.12050000 0.12050700 13272.65905004 0 34.57932464 0 4273.27334846 0 -123.33038711 0 1173.94324091 0 15999
0.12150000 0.12150000 13246.18623012 0 114.01546957 0 4145.69852250 0 284.07642536 0 1178.88629857 0 15670
0.12250000 0.12250700 13215.42942689 0 351.54476861 0 4590.05743713 0 312.70551687 0 1213.94905425 0 16887
0.12350000 0.12352200 13001.99918163 0 -1.38968025 0 3906.92686830 0 234.90398619 0 1830.24948350 0 16407
0.12450000 0.12449800 13266.06830649 0 -129.06653092 0 4669.83838779 0 188.60071739 0 883.04978981 0 16306
0.12550000 0.12549900 12855.02560049 0 143.76498749 0 4312.09282796 0 -556.43780405 0 2048.43604869 0 17523
0.12650000 0.12650100 12767.47855702 0 230.00266991 0 4967.66310419 0 -356.48233398 0 867.30560193 0 17154
0.12750000 0.12750600 12694.87053226 0 114.73605753 0 4934.77529388 0 -114.75143593 0 480.21805182 0 18007
0.12850000 0.12850300 12800.98150339 0 -67.35476277 0 4690.56627625 0 315.19022719 0 728.68139441 0 17496
0.12950000 0.12949900 12994.63951800 0 -124.10479948 0 4894.53880451 0 498.86546224 0 201.66686648 0 18405
0.13050000 0.13049000 12759.34997331 0 147.50523445 0 4185.71532041 0 -174.16808748 0 270.77850179 0 18100
0.13150000 0.13148800 12584.69526927 0 307.86022191 0 3886.05618039 0 130.98004346 0 411.51284570 0 19059
0.13250000 0.13249300 12797.57628589 0 -98.52689269 0 4203.96069547 0 231.06707499 0 -250.96672668 0 18957
0.13350000 0.13349100 12219.34838521 0 172.91804312 0 3907.86055697 0 323.06067345 0 621.80699548 0 19468
0.13450000 0.13450700 12274.93032247 0 91.20622429 0 3561.86848980 0 500.98548475 0 621.93551498 0 19953
0.13550000 0.13551000 11797.98018099 0 -3.96861623 0 3372.43953563 0 -64.91146429 0 503.86014739 0 19956
0.13650000 0.13649900 11802.48385575 0 488.49602572 0 3534.19835147 0 37.32261180 0 197.81237996 0 19723
0.13750000 0.13749600 11362.77141532 0 376.22710320 0 3678.68941920 0 -249.21688427 0 1026.61156271 0 20946
0.13850000 0.13851100 10957.11114989 0 93.28911894 0 3866.26198060 0 16.62240446 0 844.03917875 0 20955
0.13950000 0.13949800 11278.51974362 0 -121.44213909 0 3614.42966960 0 431.55419838 0 556.12034990 0 20506
0.14050000 0.14048300 11187.45763692 0 -155.53166164 0 3432.59105509 0 255.15734112 0 664.62156403 0 21447
0.14150000 0.14148400 11368.59323879 0 -39.80095106 0 2918.42518170 0 262.86411724 0 1024.10158787 0 21771
0.14250000 0.14249400 11184.38195660 0 122.42415988 0 3301.29245902 0 -10.61703977 0 819.15582648 0 22470
0.14350000 0.14350900 11045.86649635 0 313.24815476 0 2994.74599200 0 23.34628103 0 830.04812865 0 22519
0.14450000 0.14449900 10745.15283736 0 66.38229856 0 3295.43768184 0 -189.47838474 0 730.69926040 0 22218
0.14550000 0.14550500 10583.38303695 0 212.95351481 0 3171.07035107 0 459.48686799 0 1110.46339597 0 23559
0.14650000 0.14650700 10441.49531292 0 68.65555586 0 3076.10872111 0 303.76846862 0 1570.73895627 0 23044
0.14750000 0.14750500 10316.41398494 0 187.59123517 0 2835.42575128 0 178.83982620 0 823.83525440 0 23649
0.14850000 0.14849900 10307.54943486 0 276.91777940 0 2971.89808103 0 -233.56496680 0 859.26709172 0 23640
0.14950000 0.14949500 9832.81817704 0 141.22974814 0 3252.35618817 0 -456.21236691 0 781.90604240 0 24457
0.15050000 0.15050000 9509.98158888 0 89.62389661 0 3056.28156760 0 132.46735459 0 1265.63146825 0 24591
0.15150000 0.15149900 9653.42912222 0 -57.53466473 0 3165.65495679 0 41.13337972 0 395.77854393 0 25020
0.15250000 0.15250500 9451.96107650 0 145.09082540 0 3146.30013990 0 58.10388528 0 210.55338570 0 25297
0.15350000 0.15350100 9502.46814123 0 188.98627589 0 3409.80905156 0 -141.38463061 0 157.83732342 0 25452
0.15450000 0.15450400 9219.49456696 0 -12.65005348 0 3149.78224941 0 -133.74376192 0 563.95894090 0 26061
0.15550000 0.15549900 9361.52509044 0 12.64390212 0 3095.66126030 0 941.16147414 0 426.69242655 0 26128
0.15650000 0.15649500 9425.14773483 0 -56.08623899 0 2744.85795034 0 169.31070948 0 986.91221894 0 26331
0.15750000 0.15749700 9454.39965162 0 97.09505365 0 2703.39118885 0 191.75658510 0 840.59331833 0 27345
0.15850000 0.15849900 9245.45111197 0 63.54619177 0 2439.10237254 0 -23.91912649 0 883.60341227 0 26980
0.15950000 0.15949700 9092.52389250 0 194.59170328 0 2482.67817197 0 189.76178671 0 1157.85084208 0 27777
0.16050000 0.16050000 9091.45838896 0 -63.41525566 0 2526.40775542 0 -58.77339498 0 823.39037921 0 28224
0.16150000 0.16150500 8859.48618518 0 53.28517298 0 2101.20593537 0 336.53544863 0 1038.89011794 0 28075
0.16250000 0.16249700 9067.68777389 0 82.29477009 0 2235.40445859 0 5.80146906 0 855.02594824 0 28590
0.16350000 0.16349900 8792.00795582 0 153.86200660 0 2015.31756235 0 -170.08512185 0 886.71094786 0 29163
0.16450000 0.16449100 8638.78415288 0 114.09016466 0 2503.18636898 0 -105.56954155 0 393.18508635 0 28996
0.16550000 0.16550500 8415.12727055 0 240.87410139 0 2352.98332350 0 -525.22623952 0 355.04994572 0 30777
0.16650000 0.16650700 8332.65509961 0 152.17807163 0 2627.46582317 0 2.09686703 0 -15.54690496 0 29211
0.16750000 0.16749900 8253.34648557 0 -120.46780750 0 2673.19459882 0 191.73681286 0 112.52046924 0 30922
0.16850000 0.16850800 8351.21902727 0 -172.46547873 0 2192.04835062 0 474.84769429 0 -0.77889297 0 30867
0.16950000 0.16949900 8572.40438077 0 21.11531434 0 2217.49960529 0 116.59025338 0 -114.76022359 0 30852
0.17050000 0.17049200 8506.72762131 0 175.63562637 0 2008.39728163 0 -122.43294753 0 -122.93933633 0 31257
0.17150000 0.17149500 8339.72916435 0 97.15612788 0 2095.87841767 0 -94.56387859 0 -90.09777107 0 32608
0.17250000 0.17250900 8198.51149925 0 156.48072871 0 2187.99504333 0 -94.63857369 0 98.43099737 0 32361
0.17350000 0.17350400 8146.32379491 0 49.63972288 0 2201.83560479 0 206.38144503 0 36.19537496 0 32508
0.17450000 0.17449800 8044.49680708 0 -10.11403422 0 2041.72447484 0 275.96212159 0 8.28936490 0 32791
0.17550000 0.17549800 7994.87949273 0 72.57419228 0 1993.23857147 0 78.96062278 0 22.42851999 0 33633
0.17650000 0.17650100 7973.99782026 0 -10.28924914 0 1771.62481964 0 116.53313360 0 287.66398676 0 33984
0.17750000 0.17750300 7839.44779071 0 92.93486648 0 1831.27104875 0 -70.94638847 0 134.19852323 0 34069
0.17850000 0.17849800 7712.22447107 0 169.87751343 0 1829.33776398 0 -189.36304673 0 173.63313879 0 34536
