### header ###
fiducial parameters:
Omega_m = 0.31
Omega_nu = 0
Omega_de = 0.69
Omega_k = 0
H_0 = 100
w_de = -1
zeff = 0
beta = 0
fgrowth = 0
b_1 = 2
gamma = 0.55
Lx = 3500 Ly = 3500 Lz = 3500
nx = 700 ny = 700 nz = 700
xoffset = -983.599254 yoffset = -42.9823471 zoffset = 800.977702
bins = 400 dk = 0.001
kx_ny = 0.628318531 ky_ny = 0.628318531 kz_ny = 0.628318531
############################
A(data) = 9.09767134 (not used)
A(ran) = 9.09569005 (used)
Ngal = 504953
weighted Ngal = 0
Nran = 25229228
weighted Nran = 0
SN(data) = 6704.78727
SN(ran) = 135.019252
SN(data+ran) = 6839.80653
############################
13 columns: k_central k_mean P_0(k) sigma^{lin}_{P_0(k)} P^img_1(k) sigma^{lin}_{P_1(k)} P_2(k) sigma^{lin}_{P_2(k)} P^img_3(k) sigma^{lin}_{P_3(k)} P_4(k) sigma^{lin}_{P_4(k)} N_modes
### header ###
0.00050000 0 0 0 0 0 0 0 0 0 0 0 0
0.00150000 0.00179520 76837.63443512 0 -96360.29559249 0 -27910.59062621 0 -109932.50393682 0 -5791.89050783 0 3
0.00250000 0.00253879 102077.76562108 0 -46490.99514755 0 -27011.50336043 0 -82012.02719529 0 107008.74025285 0 6
0.00350000 0.00331552 115345.70130491 0 11972.74473076 0 -37849.43189781 0 -77967.28787939 0 -111669.16486194 0 7
0.00450000 0.00420575 93584.16456401 0 25475.09119347 0 -14404.07002592 0 -48700.10253939 0 51939.67268507 0 24
0.00550000 0.00557378 82643.20073582 0 9286.52242886 0 28603.71715609 0 -3005.85139488 0 -28815.60956119 0 45
0.00650000 0.00659388 43492.31667857 0 10255.18597737 0 11256.00136983 0 -1547.66036928 0 49778.78756687 0 40
0.00750000 0.00754703 66145.36133017 0 -5453.12628942 0 26340.23612998 0 11939.57132157 0 -40941.80877091 0 57
0.00850000 0.00846663 47132.16464912 0 548.39929384 0 13220.81186745 0 5228.27208868 0 450.93977207 0 75
0.00950000 0.00948925 62890.30293714 0 1175.34926620 0 3801.29921835 0 18014.03995905 0 -439.28294364 0 112
0.01050000 0.01054430 53923.70618472 0 -5390.14075024 0 -12557.78306644 0 8829.27861059 0 26271.03332272 0 105
0.01150000 0.01145670 67316.42661307 0 -4308.39102700 0 -5477.11659594 0 15220.22376871 0 -7108.90780661 0 144
0.01250000 0.01249090 55476.15582764 0 5567.72833516 0 -16395.90257209 0 -7097.49483570 0 20469.53131388 0 169
0.01350000 0.01339930 61207.90580058 0 -2633.30961578 0 -14455.58767132 0 -4896.42815100 0 2512.58916311 0 180
0.01450000 0.01448870 59519.02776620 0 -2874.82741313 0 -16634.81702573 0 3870.11756558 0 4949.17606853 0 267
0.01550000 0.01550050 74180.46632770 0 -7482.99841044 0 -19476.30626108 0 -8790.94245228 0 -3294.85549949 0 238
0.01650000 0.01653350 65070.96028599 0 -1475.49172742 0 -16861.31891236 0 -9704.72707617 0 -10510.10495326 0 315
0.01750000 0.01747870 72761.03985874 0 5031.31870230 0 -13951.50563556 0 -7073.83406636 0 7808.15274342 0 297
0.01850000 0.01844180 70573.79176634 0 -1393.10743306 0 -2281.84723147 0 4001.66880681 0 -6122.58106539 0 388
0.01950000 0.01947590 72405.90862718 0 2296.51163586 0 3626.21611598 0 -6114.69414228 0 9700.14650941 0 399
0.02050000 0.02045430 69803.66338266 0 5365.28266249 0 15916.64567037 0 -11595.97389122 0 3223.29100912 0 462
0.02150000 0.02154770 64238.43953005 0 2570.80739779 0 29391.53070163 0 -6156.50142552 0 13267.05691802 0 571
0.02250000 0.02255340 59423.02260184 0 3146.09143302 0 34896.33940504 0 919.34171917 0 650.77331338 0 510
0.02350000 0.02348930 63341.32948733 0 1460.70649272 0 38830.90345795 0 1922.72860007 0 12472.76247466 0 555
0.02450000 0.02439640 65236.05841189 0 -360.83881547 0 38666.13486923 0 10182.10561599 0 25361.40086726 0 592
0.02550000 0.02547300 66474.67881616 0 -4844.09764722 0 34290.54022718 0 10251.60500671 0 15778.56959302 0 837
0.02650000 0.02652900 66288.16077373 0 1287.41387568 0 24674.64538947 0 14591.02745125 0 24156.72279226 0 723
0.02750000 0.02749970 64083.33736520 0 3150.97956782 0 24999.89858360 0 -1804.87512084 0 16014.51821207 0 826
0.02850000 0.02848090 59127.97698231 0 5592.24590116 0 25213.32882886 0 -1253.60336127 0 23173.05431760 0 831
0.02950000 0.02946900 54879.03446212 0 2911.55982384 0 24669.92202326 0 590.46581299 0 12804.05718372 0 996
0.03050000 0.03053250 53775.52430059 0 -495.50637994 0 20652.09491018 0 6009.96722729 0 12417.40022885 0 1041
0.03150000 0.03150510 52571.06591705 0 3.44664032 0 20351.33731291 0 2853.28666629 0 9615.82893027 0 1036
0.03250000 0.03246190 48628.92250906 0 2388.38660093 0 15339.29653549 0 -2683.48714333 0 4734.61441230 0 1059
0.03350000 0.03345080 49271.84954224 0 1440.52783289 0 15739.57436036 0 1025.47026562 0 604.02956322 0 1302
0.03450000 0.03451200 50175.22079133 0 -2790.63066429 0 17114.73300181 0 2378.35768617 0 1812.14690789 0 1339
0.03550000 0.03553350 49907.63660325 0 -634.30743908 0 11582.02348404 0 5643.88437687 0 1765.72610416 0 1365
0.03650000 0.03647120 50884.38479719 0 1254.29538935 0 12345.89066135 0 -904.42466960 0 3279.35626758 0 1308
0.03750000 0.03744890 50469.71718224 0 -897.69002815 0 10396.94188653 0 1251.70303022 0 1648.96009762 0 1579
0.03850000 0.03847530 51351.22913189 0 2233.20754408 0 10861.85293646 0 -210.71595737 0 3221.41264721 0 1662
0.03950000 0.03950240 46584.36401449 0 1838.57578952 0 17378.58243522 0 -288.91622803 0 8469.75355000 0 1683
0.04050000 0.04050350 46657.08188498 0 1869.87083680 0 15546.35572865 0 -2248.61889941 0 7998.38357139 0 1822
0.04150000 0.04152450 44810.79492551 0 2804.19661143 0 19439.06856003 0 -2142.46398998 0 1238.56548141 0 1887
0.04250000 0.04250150 42021.26271848 0 24.03424481 0 19472.02227777 0 4100.83752808 0 8031.30433541 0 1920
0.04350000 0.04349210 42779.85730094 0 -675.04482496 0 20550.04823090 0 3657.29147181 0 8079.92205366 0 2005
0.04450000 0.04448520 42298.29363898 0 -109.56452076 0 16594.06426146 0 -282.73191367 0 3067.98013740 0 2151
0.04550000 0.04548030 42187.56914736 0 2211.08461490 0 19558.80040116 0 -918.30697243 0 7284.71589078 0 2274
0.04650000 0.04648670 39494.48148759 0 240.86091991 0 16509.92243548 0 -921.81983874 0 5495.92218420 0 2311
0.04750000 0.04749250 39895.41838681 0 816.16692428 0 19697.97493577 0 1603.08852252 0 3489.76575537 0 2568
0.04850000 0.04851840 38279.91729727 0 1660.65866742 0 21161.99876941 0 -2710.73986791 0 -3409.80905156 0 2493
0.04950000 0.04949480 37282.62795261 0 1930.64847690 0 21966.06948236 0 430.82262584 0 3450.33113981 0 2644
0.05050000 0.05050630 35940.75256607 0 -503.36144780 0 22126.66393350 0 868.12944488 0 2121.73610152 0 2829
0.05150000 0.05149060 34623.92200502 0 -974.69078349 0 20653.52290462 0 4101.99090820 0 1002.64542225 0 2784
0.05250000 0.05249300 37041.40673872 0 -88.72074505 0 15714.09015197 0 1991.61285472 0 -2729.98483907 0 3055
0.05350000 0.05348950 36063.88962471 0 187.41767893 0 16366.02453467 0 404.03564714 0 1336.18537794 0 3009
0.05450000 0.05448610 36706.37727499 0 332.48763364 0 14195.14345542 0 -38.92427232 0 -2783.71038356 0 3336
0.05550000 0.05550870 35979.19857011 0 868.94559862 0 13977.97845549 0 232.05458807 0 -2457.50153162 0 3349
0.05650000 0.05647670 35358.13083636 0 -711.84863539 0 14588.61084528 0 1397.63307696 0 -1880.24027332 0 3324
0.05750000 0.05747970 35786.96854994 0 -331.68246447 0 11894.31488253 0 2162.52181952 0 -4887.73935408 0 3639
0.05850000 0.05849280 35457.54121822 0 666.82397084 0 13196.53596205 0 -822.76865240 0 -2255.70394872 0 3846
0.05950000 0.05951020 34351.17506783 0 1109.61758388 0 12672.57184992 0 -560.76462719 0 -3164.32582351 0 3787
0.06050000 0.06049470 33727.69072811 0 775.08022900 0 12792.74307396 0 861.01803259 0 -2981.12512200 0 3930
0.06150000 0.06148310 34464.64570259 0 -317.36187719 0 12394.00308926 0 1827.28364891 0 -1299.40902894 0 4083
0.06250000 0.06249100 33746.03496432 0 -364.39012778 0 11467.67408347 0 151.53547413 0 -1114.57162611 0 4303
0.06350000 0.06350600 33350.81004285 0 873.55472527 0 10444.45016295 0 668.40684775 0 -1852.13075209 0 4470
0.06450000 0.06451750 32665.37271377 0 520.91369632 0 11084.86172901 0 418.03768181 0 -1715.31790058 0 4479
0.06550000 0.06550280 31361.39410264 0 212.05058294 0 10442.69263133 0 1106.35516582 0 838.29424729 0 4636
0.06650000 0.06648880 30717.80799510 0 684.64094756 0 10346.89617385 0 375.76025886 0 -847.54106049 0 4653
0.06750000 0.06749660 30697.81607300 0 446.84142804 0 9659.39374513 0 758.79010786 0 593.76008631 0 5220
0.06850000 0.06852730 30859.94836430 0 257.89140124 0 9946.23388895 0 973.77467014 0 -1016.89131443 0 5029
0.06950000 0.06949320 29350.44840017 0 459.32978860 0 9295.47485551 0 -355.81447197 0 488.27413736 0 5040
0.07050000 0.07048030 29146.35504161 0 535.27932035 0 9538.71723075 0 -58.68002611 0 -328.82757405 0 5475
0.07150000 0.07148790 28860.09708014 0 923.11162448 0 11019.94290506 0 -771.29933912 0 -148.87391219 0 5509
0.07250000 0.07249820 27778.55606378 0 414.27436725 0 10593.13733741 0 -818.29024216 0 423.57061102 0 5916
0.07350000 0.07351270 26893.19951373 0 -215.80950368 0 11432.41360548 0 1459.48720517 0 1833.78651587 0 5721
0.07450000 0.07449140 26851.12860074 0 -185.65355657 0 9579.54688704 0 2657.86013550 0 2784.69899510 0 6028
0.07550000 0.07549160 27358.50600827 0 237.37112120 0 8709.53578488 0 2333.23306200 0 1528.06389179 0 6183
0.07650000 0.07648840 26846.40523453 0 886.94272234 0 8478.04690230 0 -566.05150198 0 1319.14830587 0 6330
0.07750000 0.07749960 26298.49475417 0 511.89646069 0 7975.31596897 0 -1223.06624950 0 2835.48067414 0 6583
0.07850000 0.07848650 25020.87911724 0 -84.21234693 0 9152.98297998 0 10.58557995 0 1720.51360342 0 6549
0.07950000 0.07947320 24436.17031873 0 763.74305164 0 7898.38002261 0 -641.04647436 0 -1415.12051651 0 6828
0.08050000 0.08048110 24427.27281494 0 910.09710288 0 7763.30273357 0 534.53236941 0 -670.71470645 0 7147
0.08150000 0.08149960 23573.44198819 0 -480.74531131 0 8390.95022630 0 163.74262964 0 -1727.67554474 0 7386
0.08250000 0.08250610 23394.83283802 0 28.58405477 0 6506.94224458 0 1330.18780131 0 -2359.20059159 0 7227
0.08350000 0.08350160 23398.56759270 0 654.58605852 0 7147.26593407 0 115.60933105 0 -1067.66200890 0 7798
0.08450000 0.08449610 21969.36485414 0 789.86985752 0 6575.50794664 0 -460.58093142 0 -1391.80026892 0 7371
0.08550000 0.08548940 22036.48059261 0 281.87511701 0 7773.02408031 0 -88.28828243 0 375.70423754 0 8256
0.08650000 0.08650700 21337.09285636 0 166.47009901 0 7267.09663636 0 1497.07641254 0 -401.44658339 0 8037
0.08750000 0.08749060 21633.45662460 0 -106.87176263 0 7257.96845654 0 609.64487672 0 915.88157880 0 8155
0.08850000 0.08849210 20958.01525657 0 226.65567064 0 6716.58281230 0 -842.56944294 0 1057.97910817 0 8718
0.08950000 0.08949900 20358.36743936 0 627.42121053 0 6817.68481834 0 450.37296812 0 1166.08927152 0 8571
0.09050000 0.09049190 20758.86495567 0 157.00249591 0 7449.07805031 0 -74.52340468 0 230.73643936 0 8932
0.09150000 0.09150830 20106.71088152 0 386.46692176 0 8020.39665484 0 -865.55575952 0 -378.86340062 0 9285
0.09250000 0.09250820 19426.65599301 0 522.02094124 0 7735.74244097 0 487.85562514 0 151.55085253 0 9204
0.09350000 0.09350330 19446.31837793 0 -80.45122928 0 8305.60009734 0 -255.44843229 0 -1320.64220774 0 9349
0.09450000 0.09448040 18756.48721982 0 454.35487568 0 7048.00933622 0 762.33922326 0 -444.48413876 0 9564
0.09550000 0.09549270 18691.56839587 0 197.18186549 0 7336.84867225 0 325.92544998 0 -1469.21953647 0 10155
0.09650000 0.09649430 18323.80490584 0 -55.91509935 0 6976.33500013 0 -57.94241206 0 -425.28640126 0 9913
0.09750000 0.09749140 18226.37174705 0 539.43807953 0 6805.53588106 0 117.63159086 0 -2497.69408269 0 10476
0.09850000 0.09850240 17522.48033603 0 468.67875833 0 6981.46479552 0 -9.70942847 0 360.96623651 0 10575
0.09950000 0.09950330 17592.78160055 0 -212.14614872 0 6195.81521079 0 1049.77253400 0 -1050.23388604 0 10882
0.10050000 0.10051200 17318.27713175 0 -15.46144498 0 6227.74736328 0 -27.33642702 0 -794.48777183 0 10875
0.10150000 0.10150300 17089.24879342 0 430.35248613 0 5838.19048126 0 657.84298429 0 -799.76256359 0 11118
0.10250000 0.10250800 16481.80192968 0 60.41459997 0 5893.31106647 0 -83.24229932 0 -58.85204452 0 11575
0.10350000 0.10349800 16400.84562975 0 288.00560697 0 5209.44453127 0 210.33259579 0 -511.72510136 0 11364
0.10450000 0.10450100 16333.29050838 0 182.78987850 0 5803.08378729 0 63.36406755 0 -766.45184723 0 12093
0.10550000 0.10551000 16351.08551596 0 27.44385614 0 5213.33306997 0 621.44120922 0 -118.56747644 0 12067
0.10650000 0.10649700 16243.32685894 0 -147.82818089 0 4810.83636144 0 701.41109452 0 -727.49615903 0 12054
0.10750000 0.10749900 16023.52556158 0 197.97824701 0 4248.52510643 0 -224.53454968 0 -1186.46565366 0 12807
0.10850000 0.10850100 15487.91780252 0 607.17554481 0 4915.45343071 0 -872.09158021 0 -956.53438347 0 12736
0.10950000 0.10950300 15516.69738268 0 267.71929832 0 5400.67495534 0 -362.02734622 0 -1194.14386989 0 12933
0.11050000 0.11050200 14695.49073650 0 -44.30704243 0 5350.64022724 0 382.77830228 0 -1317.47865083 0 13428
0.11150000 0.11150900 15164.97136863 0 -150.64682221 0 4751.37687006 0 952.84027171 0 -1866.56448046 0 13453
0.11250000 0.11250000 14735.03519779 0 179.26053533 0 4560.86044321 0 62.63633962 0 -899.94296399 0 13668
0.11350000 0.11349100 14445.81140172 0 702.27338347 0 4930.40343399 0 -515.94757106 0 -1478.66626889 0 13791
0.11450000 0.11448600 14302.68242099 0 280.82389341 0 5227.00886283 0 -276.12469326 0 -856.61541590 0 14205
0.11550000 0.11549300 13887.35573169 0 66.00146343 0 5036.88788059 0 779.60806982 0 -561.73456495 0 14776
0.11650000 0.11649800 13703.58383240 0 -215.55356314 0 4475.37849938 0 899.87046581 0 -406.06998999 0 14553
0.11750000 0.11747300 13751.36672313 0 -112.63800416 0 4338.30201814 0 550.13815168 0 123.38421152 0 14568
0.11850000 0.11849100 13908.33626532 0 182.15606866 0 3797.69627855 0 -45.95934183 0 126.27974485 0 16015
0.11950000 0.11950300 13574.40525885 0 471.22937608 0 4229.02749010 0 -471.05801675 0 398.90255638 0 15270
0.12050000 0.12050700 13162.48378705 0 296.59114890 0 4404.97837371 0 -74.68136284 0 416.05716338 0 15999
0.12150000 0.12150000 13322.63885528 0 86.67102381 0 5086.56011781 0 -95.61114774 0 -11.02356781 0 15670
0.12250000 0.12250700 12857.99143509 0 196.72820265 0 5309.70072522 0 -309.99891819 0 -186.76849069 0 16887
0.12350000 0.12352200 12868.97600767 0 -9.42289590 0 5263.29090607 0 18.54316682 0 3.72649428 0 16407
0.12450000 0.12449800 12866.33971025 0 -259.63794828 0 4807.02471476 0 475.84399502 0 -152.90634879 0 16306
0.12550000 0.12549900 12935.76220897 0 80.90335428 0 4892.22105970 0 470.16167563 0 143.11140542 0 17523
0.12650000 0.12650100 12681.24966226 0 335.00749459 0 4638.60924794 0 -642.05925195 0 -150.06573832 0 17154
0.12750000 0.12750600 12621.05420451 0 162.77049497 0 4714.22704559 0 198.92731408 0 290.12343256 0 18007
0.12850000 0.12850300 12364.67428046 0 99.52110635 0 4965.56505082 0 603.54953740 0 -321.97979150 0 17496
0.12950000 0.12949900 12425.74850402 0 -74.80175375 0 4241.13248908 0 5.66287670 0 106.87011495 0 18405
0.13050000 0.13049000 12083.68891383 0 239.56913417 0 4403.77007072 0 226.27889980 0 -111.84052419 0 18100
0.13150000 0.13148800 12233.73817529 0 -111.50110090 0 3839.16304004 0 161.22496561 0 -417.97506975 0 19059
0.13250000 0.13249300 11883.11061850 0 149.24848612 0 4144.16068234 0 99.93203921 0 -212.32409880 0 18957
0.13350000 0.13349100 11856.52795285 0 345.87233533 0 3950.51365230 0 -179.72078892 0 -349.90257501 0 19468
0.13450000 0.13450700 11641.55986743 0 39.60839151 0 4076.67146840 0 361.98670330 0 142.07336331 0 19953
0.13550000 0.13551000 11786.00699688 0 -298.19050266 0 3569.18421514 0 672.68973260 0 -47.58648657 0 19956
0.13650000 0.13649900 11924.96184003 0 -57.33782119 0 3091.75075246 0 273.67513358 0 -17.58871731 0 19723
0.13750000 0.13749600 11790.73036309 0 108.07775886 0 3415.60890588 0 -239.15281887 0 -2.83242696 0 20946
0.13850000 0.13851100 11734.92873437 0 207.41838868 0 3197.75187787 0 -40.15729060 0 409.17532866 0 20955
0.13950000 0.13949800 11691.86920986 0 99.42982455 0 3422.57312489 0 111.61973429 0 -107.59520658 0 20506
0.14050000 0.14048300 11619.37103082 0 149.20344937 0 3308.86082953 0 -15.45727085 0 303.84755754 0 21447
0.14150000 0.14148400 11286.31879015 0 213.08423122 0 3710.30301909 0 -152.20553306 0 81.21180108 0 21771
0.14250000 0.14249400 11239.41466523 0 110.44438502 0 3434.17283354 0 102.90765008 0 37.24055704 0 22470
0.14350000 0.14350900 11113.64130917 0 -127.88459091 0 3412.11581180 0 397.23729517 0 55.06203744 0 22519
0.14450000 0.14449900 10952.59649056 0 153.90264952 0 3454.24164765 0 116.64078241 0 17.76776584 0 22218
0.14550000 0.14550500 10789.96989349 0 273.17643398 0 3322.40480753 0 -327.94990670 0 339.87585715 0 23559
0.14650000 0.14650700 10638.72331362 0 248.11073781 0 3153.50601951 0 94.64593335 0 154.13991629 0 23044
0.14750000 0.14750500 10325.88268650 0 84.82429747 0 3550.22484286 0 187.27158411 0 162.13009439 0 23649
0.14850000 0.14849900 10064.84530368 0 89.10190972 0 2923.76368398 0 165.47929057 0 265.41912883 0 23640
0.14950000 0.14949500 9982.99925338 0 195.98235017 0 3348.19658395 0 616.17190975 0 627.86718418 0 24457
0.15050000 0.15050000 9910.05070686 0 -83.09257960 0 2293.05149550 0 368.02162748 0 1303.75891968 0 24591
0.15150000 0.15149900 9886.33501466 0 17.49567798 0 2508.85440843 0 589.56727496 0 1042.70615845 0 25020
0.15250000 0.15250500 9789.39616163 0 32.99512958 0 1875.67069113 0 54.11264083 0 1146.39393288 0 25297
0.15350000 0.15350100 9747.44607894 0 218.33595537 0 1946.27952368 0 -55.24745703 0 1350.98159721 0 25452
0.15450000 0.15450400 9457.69502339 0 153.09418498 0 2239.18315156 0 -362.94675495 0 1072.42491957 0 26061
0.15550000 0.15549900 9193.47211452 0 100.56024692 0 2043.39412987 0 5.56576210 0 693.10675765 0 26128
0.15650000 0.15649500 9172.46961174 0 187.82081274 0 2291.67842393 0 -45.46712314 0 971.75021341 0 26331
0.15750000 0.15749700 9118.28271520 0 -35.32946110 0 2325.58779949 0 129.06323554 0 848.12653821 0 27345
0.15850000 0.15849900 9296.60626649 0 -47.46367905 0 2022.43556539 0 322.52023248 0 398.60487446 0 26980
0.15950000 0.15949700 9020.37721978 0 95.38091110 0 2010.16579781 0 -175.42032875 0 326.91186459 0 27777
0.16050000 0.16050000 8905.40169857 0 256.07235602 0 1964.18437699 0 -43.04359689 0 704.32090780 0 28224
0.16150000 0.16150500 8763.29428309 0 171.05066578 0 2442.63940491 0 -234.51513233 0 665.25757079 0 28075
0.16250000 0.16249700 8670.96895054 0 22.14797400 0 2281.44080228 0 -84.71576989 0 101.05037855 0 28590
0.16350000 0.16349900 8655.39282662 0 67.09508748 0 2383.78406502 0 115.86417313 0 229.28757423 0 29163
0.16450000 0.16449100 8329.56843471 0 70.12397352 0 2204.64765537 0 44.12239176 0 367.62618287 0 28996
0.16550000 0.16550500 8467.86420351 0 41.84759663 0 2314.85587207 0 119.48688517 0 795.64774270 0 30777
0.16650000 0.16650700 8410.70048780 0 27.29358718 0 2282.61615155 0 252.50786221 0 286.86540833 0 29211
0.16750000 0.16749900 8236.52910495 0 156.73557079 0 2310.40712018 0 45.12363555 0 723.07377011 0 30922
0.16850000 0.16850800 8322.59323113 0 26.07517839 0 1993.69992351 0 -56.32449437 0 599.66209716 0 30867
0.16950000 0.16949900 8246.47014314 0 45.73921100 0 2294.06207618 0 339.34420384 0 633.63518324 0 30852
0.17050000 0.17049200 8234.66172761 0 -51.09408029 0 2063.03454565 0 -46.28173904 0 480.71675142 0 31257
0.17150000 0.17149500 8153.96905743 0 118.90689974 0 1948.04803987 0 -195.69235745 0 327.91475607 0 32608
0.17250000 0.17250900 8068.87157364 0 79.32553028 0 2133.84110051 0 23.51225792 0 304.46598898 0 32361
0.17350000 0.17350400 7930.07051450 0 102.08193976 0 1846.88012639 0 6.32168743 0 365.62699066 0 32508
0.17450000 0.17449800 7942.05468319 0 130.27153853 0 1921.56423537 0 142.40290049 0 78.13469277 0 32791
0.17550000 0.17549800 7775.64939316 0 29.26762472 0 1985.09900318 0 88.35649663 0 434.05648401 0 33633
0.17650000 0.17650100 7688.57468630 0 85.91023231 0 1985.36263292 0 174.92382607 0 290.13881096 0 33984
0.17750000 0.17750300 7566.62396151 0 78.03308547 0 1855.34923185 0 -3.13377773 0 600.28162705 0 34069
0.17850000 0.17849800 7662.77192531 0 -69.46566808 0 1679.54114769 0 211.41018236 0 709.36172816 0 34536
