### header ###
fiducial parameters:
Omega_m = 0.31
Omega_nu = 0
Omega_de = 0.69
Omega_k = 0
H_0 = 100
w_de = -1
zeff = 0
beta = 0
fgrowth = 0
b_1 = 2
gamma = 0.55
Lx = 3500 Ly = 3500 Lz = 3500
nx = 700 ny = 700 nz = 700
xoffset = -983.599254 yoffset = -42.9823471 zoffset = 800.977702
bins = 400 dk = 0.001
kx_ny = 0.628318531 ky_ny = 0.628318531 kz_ny = 0.628318531
############################
A(data) = 9.03617877 (not used)
A(ran) = 9.03267914 (used)
Ngal = 501917
weighted Ngal = 0
Nran = 25229228
weighted Nran = 0
SN(data) = 6761.86867
SN(ran) = 134.083899
SN(data+ran) = 6895.95257
############################
13 columns: k_central k_mean P_0(k) sigma^{lin}_{P_0(k)} P^img_1(k) sigma^{lin}_{P_1(k)} P_2(k) sigma^{lin}_{P_2(k)} P^img_3(k) sigma^{lin}_{P_3(k)} P_4(k) sigma^{lin}_{P_4(k)} N_modes
### header ###
0.00050000 0 0 0 0 0 0 0 0 0 0 0 0
0.00150000 0.00179520 18529.21641311 0 -18560.08306207 0 -17027.18595834 0 9473.29311646 0 -4076.88017528 0 3
0.00250000 0.00253879 22542.75954288 0 -16008.69638860 0 -8696.26642120 0 4609.62096090 0 -11374.41506226 0 6
0.00350000 0.00331552 28409.18037568 0 2808.93096221 0 3657.50017869 0 -32723.92048563 0 22136.55004883 0 7
0.00450000 0.00420575 34061.62173458 0 10716.06568916 0 4453.83775255 0 -23769.62645449 0 22140.06511205 0 24
0.00550000 0.00557378 40339.52465627 0 -14729.43306577 0 965.34401068 0 25666.22275639 0 -14699.99441126 0 45
0.00650000 0.00659388 55531.73776490 0 -26862.22301905 0 -31672.03781524 0 31035.59167988 0 35537.72859806 0 40
0.00750000 0.00754703 74370.82897053 0 -19339.10894954 0 -37888.20743902 0 -2772.74778013 0 -17865.85807493 0 57
0.00850000 0.00846663 88971.74253711 0 -4395.52065671 0 -53950.94792472 0 -35176.77554304 0 -2572.58689855 0 75
0.00950000 0.00948925 102905.56301081 0 2154.41520495 0 -14709.99037231 0 -43701.68263197 0 -47249.15034712 0 112
0.01050000 0.01054430 75970.95165846 0 15591.06293906 0 -10934.95526699 0 -22873.17548613 0 11083.87311748 0 105
0.01150000 0.01145670 80946.30396345 0 6684.68361352 0 20535.21905792 0 -11141.43227780 0 -1709.33130853 0 144
0.01250000 0.01249090 77217.04157208 0 -7890.62491436 0 18404.87105149 0 8035.29173526 0 -28478.93241157 0 169
0.01350000 0.01339930 90532.76014664 0 5360.25172824 0 27552.05417715 0 34.11511660 0 -40100.82989408 0 180
0.01450000 0.01448870 73260.50837401 0 11369.14246742 0 32930.54029588 0 -11690.44121542 0 -4394.68582920 0 267
0.01550000 0.01550050 65755.84838644 0 8990.20259890 0 46449.36361747 0 -1496.58210677 0 8234.66172761 0 238
0.01650000 0.01653350 59397.64823918 0 -4114.46938265 0 46516.36951021 0 13830.89502862 0 -8992.46542085 0 315
0.01750000 0.01747870 61527.11747980 0 2404.55589177 0 50564.73373507 0 11123.30773305 0 12431.89986466 0 297
0.01850000 0.01844180 63014.20891586 0 454.50316741 0 40939.06262776 0 7739.42227278 0 -885.85854502 0 388
0.01950000 0.01947590 60237.30896730 0 1498.94378988 0 40737.93510380 0 6397.57983996 0 19553.63765205 0 399
0.02050000 0.02045430 60268.39530770 0 1540.82796513 0 34658.63325438 0 5910.99622833 0 9625.69307645 0 462
0.02150000 0.02154770 64116.51077440 0 -1355.83677829 0 36072.01820842 0 7381.88541983 0 14732.94812900 0 571
0.02250000 0.02255340 56038.23640663 0 -159.10274618 0 28941.49276297 0 6010.59334792 0 5315.70928643 0 510
0.02350000 0.02348930 66995.67709369 0 3582.26684108 0 30994.39953270 0 625.61424834 0 16848.57680817 0 555
0.02450000 0.02439640 58953.98135262 0 -1506.06179291 0 36507.00728264 0 968.87005848 0 10008.34066232 0 592
0.02550000 0.02547300 58662.78033349 0 2179.26230813 0 32426.34841440 0 9042.56605640 0 10418.87807798 0 837
0.02650000 0.02652900 60427.34207295 0 -3092.98102459 0 32065.94458801 0 5707.72671271 0 16517.83132774 0 723
0.02750000 0.02749970 65562.30021755 0 -901.73235086 0 25346.90123145 0 2880.10000797 0 12329.08426530 0 826
0.02850000 0.02848090 65038.99517978 0 1329.19918978 0 24993.30784006 0 6072.76602873 0 26671.64068476 0 831
0.02950000 0.02946900 64308.30141167 0 91.85574207 0 26869.91221985 0 952.56236202 0 14920.67447442 0 996
0.03050000 0.03053250 62110.83766677 0 1179.23780490 0 25431.92182323 0 -1589.59946739 0 17261.15735432 0 1041
0.03150000 0.03150510 59141.37816086 0 1369.17204940 0 26531.91692152 0 4479.54165239 0 20359.68558807 0 1036
0.03250000 0.03246190 60853.32379766 0 -2642.69044076 0 29088.02696120 0 2560.71257559 0 16258.81510628 0 1059
0.03350000 0.03345080 60740.84177442 0 4567.78072394 0 29940.42979352 0 -2424.97621220 0 6564.12792944 0 1302
0.03450000 0.03451200 57170.19661113 0 4732.60423552 0 28503.42800842 0 -1013.00387420 0 17602.11848725 0 1339
0.03550000 0.03553350 54562.67877177 0 -2344.63504834 0 32509.72132029 0 4623.65924466 0 6672.53467625 0 1365
0.03650000 0.03647120 56560.22329569 0 394.40986619 0 32437.00344980 0 2925.90567563 0 6294.39076513 0 1308
0.03750000 0.03744890 54352.76358974 0 -71.24571807 0 22037.68889559 0 2996.72321506 0 3826.66259644 0 1579
0.03850000 0.03847530 50582.19920547 0 2740.43116759 0 22344.37816207 0 1588.70971701 0 6641.40439755 0 1662
0.03950000 0.03950240 48794.67970931 0 2831.05389139 0 22929.63618920 0 1320.07100996 0 4482.94686989 0 1683
0.04050000 0.04050350 47580.77459335 0 562.16516020 0 20485.67863558 0 3590.04391847 0 4629.23940753 0 1822
0.04150000 0.04152450 45418.35163498 0 1816.79338209 0 21107.51528941 0 1952.22217745 0 2883.72491692 0 1887
0.04250000 0.04250150 42230.73851760 0 1119.71240608 0 20240.94235846 0 3791.34719560 0 8278.21555790 0 1920
0.04350000 0.04349210 41295.95139093 0 2141.04698012 0 16916.02208382 0 306.83536129 0 6286.35005800 0 2005
0.04450000 0.04448520 40089.29609287 0 -1241.66313088 0 15139.81669741 0 2594.19355282 0 10583.94325016 0 2151
0.04550000 0.04548030 41441.71666909 0 -1278.19781928 0 13532.55403731 0 5954.73679635 0 6332.27655597 0 2274
0.04650000 0.04648670 40705.64046041 0 741.80686019 0 11023.56781401 0 503.82609522 0 11536.32766210 0 2311
0.04750000 0.04749250 40477.93027080 0 264.25366567 0 10293.24752136 0 1047.46028147 0 7798.98062532 0 2568
0.04850000 0.04851840 41617.90921329 0 725.34647818 0 10604.80295349 0 1229.66797762 0 8802.48723806 0 2493
0.04950000 0.04949480 38582.65211761 0 816.34377590 0 11285.22033289 0 -47.31264118 0 11091.67216401 0 2644
0.05050000 0.05050630 37856.57186999 0 754.44021712 0 10807.18271873 0 -2304.77203444 0 10564.53351041 0 2829
0.05150000 0.05149060 37429.49168802 0 1321.83952615 0 14467.34116398 0 1005.96276317 0 6585.94329059 0 2784
0.05250000 0.05249300 36279.07740158 0 1320.53236201 0 14564.22509415 0 -2726.30500725 0 4937.44454502 0 3055
0.05350000 0.05348950 34548.12845421 0 940.47713527 0 15566.56734220 0 -761.26712898 0 4522.34853174 0 3009
0.05450000 0.05448610 34427.29815582 0 240.35343265 0 16011.55237747 0 436.33029053 0 1216.92587342 0 3336
0.05550000 0.05550870 34024.71357071 0 -356.68554858 0 16018.25296674 0 2316.39371224 0 3246.90784017 0 3349
0.05650000 0.05647670 33863.89942812 0 467.00141410 0 14877.72479562 0 1720.05225137 0 1582.60229466 0 3324
0.05750000 0.05747970 32737.10197273 0 522.52623158 0 14149.00825058 0 863.61258863 0 2220.70710048 0 3639
0.05850000 0.05849280 31759.91439589 0 772.62298011 0 13455.88172069 0 197.01050616 0 2270.34638397 0 3846
0.05950000 0.05951020 31675.11349556 0 782.97593977 0 12873.47968243 0 1523.25264900 0 790.97380707 0 3787
0.06050000 0.06049470 31514.40919870 0 248.89723321 0 13829.79657136 0 -1158.96028391 0 2081.94997963 0 3930
0.06150000 0.06148310 30270.40635386 0 286.77643330 0 11862.34977632 0 1247.85842981 0 1015.73903277 0 4083
0.06250000 0.06249100 30761.52659397 0 -282.21893413 0 11894.20503680 0 1548.73685739 0 3016.97876690 0 4303
0.06350000 0.06350600 29858.37503633 0 -196.21742002 0 11320.04142798 0 217.96907065 0 -882.56756708 0 4470
0.06450000 0.06451750 30594.45124501 0 690.58469979 0 10801.41581812 0 -835.05379838 0 -69.30749024 0 4479
0.06550000 0.06550280 30171.98458353 0 732.36452160 0 11881.35308688 0 1.56791592 0 649.97034113 0 4636
0.06650000 0.06648880 29513.23976583 0 -176.68135768 0 12390.37818030 0 -220.48234085 0 416.26587026 0 4653
0.06750000 0.06749660 30452.86010444 0 -185.30205025 0 11530.72553009 0 243.95417554 0 -2850.36476999 0 5220
0.06850000 0.06852730 28999.38146047 0 763.92978937 0 11832.58158462 0 -1953.54032616 0 -2630.69528751 0 5029
0.06950000 0.06949320 28423.68001148 0 1203.93112406 0 13701.71645506 0 253.16254274 0 -1985.23081805 0 5040
0.07050000 0.07048030 27687.82349426 0 257.12797344 0 12657.63283121 0 963.73586925 0 -1371.16025704 0 5475
0.07150000 0.07148790 27361.36199714 0 549.28574884 0 12665.43187774 0 1269.97037442 0 -1851.17509427 0 5509
0.07250000 0.07249820 26272.57116288 0 -255.04749539 0 11205.58218168 0 2377.88534955 0 475.62869740 0 5916
0.07350000 0.07351270 26403.83680523 0 7.13252464 0 9736.58233666 0 2029.15812381 0 1430.44399526 0 5721
0.07450000 0.07449140 26825.20500945 0 -227.12800726 0 7703.52468959 0 1835.55503206 0 2782.78767947 0 6028
0.07550000 0.07549160 27314.34802649 0 -132.22239862 0 7574.79648351 0 181.81334999 0 718.28010264 0 6183
0.07650000 0.07648840 26202.81912699 0 942.77950168 0 7881.40885797 0 -1204.06293893 0 1233.63340832 0 6330
0.07750000 0.07749960 25509.69259710 0 518.69041883 0 8632.54491565 0 -378.87987748 0 2750.44909779 0 6583
0.07850000 0.07848650 24642.02120890 0 283.70185143 0 8773.87242648 0 570.92535683 0 1994.98511851 0 6549
0.07950000 0.07947320 24279.09093082 0 575.89258055 0 9382.04427202 0 53.35437579 0 342.33530295 0 6828
0.08050000 0.08048110 24335.88117106 0 746.42147913 0 8953.60200306 0 35.42491704 0 1616.70939252 0 7147
0.08150000 0.08149960 23680.87110804 0 -178.34112660 0 8767.07297606 0 771.95841347 0 1549.43987003 0 7386
0.08250000 0.08250610 22973.46463380 0 -140.52893240 0 8865.45080810 0 1489.23342772 0 2591.29362566 0 7227
0.08350000 0.08350160 23690.97691481 0 471.08547818 0 7986.11380381 0 -88.49039857 0 621.46317836 0 7798
0.08450000 0.08449610 22721.14900161 0 271.52105889 0 8375.48394810 0 -530.01551317 0 658.78436216 0 7371
0.08550000 0.08548940 22198.94242109 0 318.74703179 0 7476.92394181 0 -472.69032423 0 845.77693813 0 8256
0.08650000 0.08650700 21425.95804854 0 432.78227359 0 8555.34533955 0 686.53249096 0 266.31876532 0 8037
0.08750000 0.08749060 21595.66969492 0 207.60073259 0 7597.05122756 0 95.49569988 0 327.58521889 0 8155
0.08850000 0.08849210 21405.41689781 0 516.58687318 0 7955.97213665 0 225.76042798 0 -1936.26159349 0 8718
0.08950000 0.08949900 20835.20773511 0 380.84501751 0 8109.28381617 0 -927.81082463 0 -341.19730124 0 8571
0.09050000 0.09049190 19933.37432619 0 434.96380970 0 8896.55911765 0 -390.89150759 0 117.88533449 0 8932
0.09150000 0.09150830 19748.39412392 0 191.39409420 0 8505.66211777 0 921.17943816 0 -308.55884072 0 9285
0.09250000 0.09250820 19404.13761922 0 94.74754065 0 8228.20279893 0 1237.92837620 0 641.59240762 0 9204
0.09350000 0.09350330 19986.21012030 0 -30.65113164 0 7560.28586313 0 1809.79620936 0 582.96774375 0 9349
0.09450000 0.09448040 19569.12589939 0 -163.03742008 0 7394.26503313 0 -79.45921253 0 1916.56625485 0 9564
0.09550000 0.09549270 18984.52694661 0 351.89737339 0 6079.88403177 0 301.34307500 0 1625.84855691 0 10155
0.09650000 0.09649430 18542.17820876 0 621.73449730 0 6788.61963929 0 343.96651198 0 3233.16613987 0 9913
0.09750000 0.09749140 18031.39558373 0 416.52510617 0 7459.20582623 0 -282.71543681 0 2138.75120445 0 10476
0.09850000 0.09850240 17572.13060410 0 519.43627131 0 7462.02886139 0 -537.00719361 0 2411.46518793 0 10575
0.09950000 0.09950330 17165.15218996 0 243.87069279 0 7177.14397149 0 470.35720102 0 1398.33608960 0 10882
0.10050000 0.10051200 17105.94534375 0 346.62917238 0 7625.22665623 0 -159.58496892 0 1073.49262003 0 10875
0.10150000 0.10150300 16170.71883417 0 116.56718578 0 7353.40242313 0 261.74698621 0 2387.26617453 0 11118
0.10250000 0.10250800 16323.95362168 0 -211.53211111 0 7379.32601442 0 360.73446203 0 1546.17745198 0 11575
0.10350000 0.10349800 16092.06929449 0 409.79705546 0 7445.20049619 0 173.21462658 0 930.35375318 0 11364
0.10450000 0.10450100 15884.90025561 0 338.97072837 0 7086.00497278 0 332.49861821 0 2008.82567996 0 12093
0.10550000 0.10551000 15805.04241294 0 -144.76568205 0 6941.41504389 0 337.13081247 0 1563.39027721 0 12067
0.10650000 0.10649700 16110.63322215 0 -195.73080346 0 6526.41789177 0 365.63907369 0 744.55190488 0 12054
0.10750000 0.10749900 15743.08942358 0 313.97972729 0 6348.17123249 0 -420.03907094 0 721.57437595 0 12807
0.10850000 0.10850100 15250.87072621 0 643.19066293 0 6766.36489524 0 -294.97312136 0 618.30401529 0 12736
0.10950000 0.10950300 15310.73664678 0 -109.48685983 0 6948.04972573 0 450.72776982 0 707.70525461 0 12933
0.11050000 0.11050200 15220.66315161 0 -290.04104827 0 5818.67089578 0 966.92798605 0 33.47493571 0 13428
0.11150000 0.11150900 15377.85238525 0 38.68349049 0 6120.92239493 0 375.39227568 0 30.83149832 0 13453
0.11250000 0.11250000 15123.88906717 0 288.78111779 0 5023.19011859 0 -364.81413229 0 786.84800160 0 13668
0.11350000 0.11349100 14965.93091345 0 50.78848948 0 5580.27271705 0 284.00612409 0 532.54306332 0 13791
0.11450000 0.11448600 14774.14027618 0 141.75810608 0 5427.68601932 0 242.17357633 0 82.91869382 0 14205
0.11550000 0.11549300 14692.30521045 0 283.64473165 0 5275.03341416 0 -515.90802660 0 -495.21858414 0 14776
0.11650000 0.11649800 14256.43737042 0 322.54879236 0 5590.40049297 0 221.81696642 0 141.12209932 0 14553
0.11750000 0.11747300 14114.62653840 0 -29.65065677 0 5891.65239601 0 -356.21760578 0 -378.35811028 0 14568
0.11850000 0.11849100 14106.05857178 0 75.97490610 0 5353.59507726 0 477.60701892 0 -724.92906442 0 16015
0.11950000 0.11950300 14108.03579485 0 132.13122667 0 5258.23800268 0 320.58804616 0 -553.33685921 0 15270
0.12050000 0.12050700 14029.05671799 0 -2.46817854 0 5106.11265700 0 428.08636881 0 -392.61828240 0 15999
0.12150000 0.12150000 13814.30832402 0 142.64565954 0 4835.35392744 0 166.05378371 0 -14.83038129 0 15670
0.12250000 0.12250700 13815.51662701 0 36.20833675 0 4248.42624528 0 411.94234249 0 -544.42068165 0 16887
0.12350000 0.12352200 13633.83179651 0 -134.07329910 0 4318.36501890 0 278.82360275 0 -131.63801936 0 16407
0.12450000 0.12449800 13461.37400698 0 254.98598179 0 3731.17370700 0 148.88929060 0 -131.47215231 0 16306
0.12550000 0.12549900 13379.09955835 0 327.08432238 0 4364.87369921 0 -280.76897055 0 -108.69014878 0 17523
0.12650000 0.12650100 12901.81987969 0 213.43683600 0 4275.72290814 0 -226.01746698 0 -148.50373210 0 17154
0.12750000 0.12750600 12770.66408307 0 123.83348054 0 4579.31452515 0 91.48874750 0 -304.87022125 0 18007
0.12850000 0.12850300 12751.00169815 0 -114.48121544 0 4273.37220961 0 634.79405565 0 103.29276919 0 17496
0.12950000 0.12949900 12864.47233291 0 -24.02304054 0 4165.25106169 0 323.17491300 0 20.86179040 0 18405
0.13050000 0.13049000 13085.26224180 0 -128.53048377 0 3394.69427968 0 284.43671934 0 206.85158474 0 18100
0.13150000 0.13148800 12998.70380986 0 78.25914797 0 3347.68030904 0 59.47959315 0 -377.95717338 0 19059
0.13250000 0.13249300 12776.26621509 0 321.92377018 0 3739.51099758 0 -338.47642261 0 3.37276907 0 18957
0.13350000 0.13349100 12272.07433360 0 408.62280465 0 4066.46680047 0 -475.21018519 0 -28.84131346 0 19468
0.13450000 0.13450700 12126.52874690 0 89.93882431 0 3672.73578086 0 583.63340885 0 -129.87609392 0 19953
0.13550000 0.13551000 12062.26899730 0 -8.01048857 0 3853.97024388 0 138.08486501 0 -596.00643140 0 19956
0.13650000 0.13649900 11856.19841567 0 338.74774155 0 3894.37150184 0 -34.66280739 0 198.42641757 0 19723
0.13750000 0.13749600 11525.01355235 0 159.12032150 0 3724.55000973 0 -56.40896573 0 -265.79809658 0 20946
0.13850000 0.13851100 11146.92456410 0 37.88227577 0 4124.89374203 0 -103.75269325 0 -66.63878833 0 20955
0.13950000 0.13949800 11151.64793031 0 266.07930164 0 3917.87848716 0 54.77028719 0 -417.01172273 0 20506
0.14050000 0.14048300 10931.65989522 0 140.20598597 0 4000.03210550 0 209.95802186 0 -111.55822068 0 21447
0.14150000 0.14148400 10983.85858413 0 120.62598534 0 3511.54816280 0 299.65364773 0 -684.07194670 0 21771
0.14250000 0.14249400 10713.68203691 0 172.46547873 0 3678.96403352 0 -161.22057178 0 -419.86331778 0 22470
0.14350000 0.14350900 10514.39992114 0 148.95739495 0 3817.79804637 0 76.72174719 0 -121.51683418 0 22519
0.14450000 0.14449900 10189.17968073 0 44.43303547 0 3410.47911048 0 222.79459338 0 6.01718409 0 22218
0.14550000 0.14550500 10119.02121565 0 26.20589481 0 3378.18446709 0 453.80235168 0 -6.09371361 0 23559
0.14650000 0.14650700 10412.04567383 0 8.11128301 0 3514.30529052 0 88.10934374 0 122.59661767 0 23044
0.14750000 0.14750500 10253.64813721 0 -64.11508278 0 2888.98652718 0 90.49464368 0 -84.05812353 0 23649
0.14850000 0.14849900 10257.49273761 0 16.33845326 0 3106.78863233 0 -3.14057718 0 413.80642446 0 23640
0.14950000 0.14949500 10066.75661931 0 274.30125422 0 3246.09498180 0 -360.66525922 0 -91.73666930 0 24457
0.15050000 0.15050000 10126.80927761 0 326.15832291 0 3676.30576695 0 -384.04482350 0 -41.28749327 0 24591
0.15150000 0.15149900 10016.01887856 0 -8.52231473 0 3916.67018418 0 192.84295932 0 69.69941979 0 25020
0.15250000 0.15250500 9682.72497729 0 -143.20257737 0 3711.07193917 0 327.94990670 0 20.78193256 0 25297
0.15350000 0.15350100 9777.55479239 0 46.82745261 0 3369.70437706 0 375.94809505 0 422.74347271 0 25452
0.15450000 0.15450400 9763.32977089 0 96.56559725 0 3305.90597951 0 456.06956746 0 698.98130707 0 26061
0.15550000 0.15549900 9738.38380656 0 77.88347559 0 3080.68928787 0 72.27101808 0 1068.96807458 0 26128
0.15650000 0.15649500 9520.28511796 0 282.94830975 0 3126.24231037 0 -265.92222225 0 214.73740939 0 26331
0.15750000 0.15749700 9236.38883960 0 193.58661489 0 3087.88418291 0 -67.08553090 0 965.80206736 0 27345
0.15850000 0.15849900 8953.85464823 0 188.12069157 0 3407.28259986 0 217.70324399 0 594.28405042 0 26980
0.15950000 0.15949700 8911.10269174 0 38.66580533 0 3298.44745473 0 -91.78291435 0 767.13508765 0 27777
0.16050000 0.16050000 8807.82574033 0 61.11003326 0 3135.70002736 0 390.24341781 0 132.68045530 0 28224
0.16150000 0.16150500 8742.21488831 0 -99.07590163 0 2791.04807805 0 76.34376805 0 763.07738654 0 28075
0.16250000 0.16249700 8939.62962674 0 -10.96620638 0 2728.98524296 0 330.75866191 0 354.47764949 0 28590
0.16350000 0.16349900 8665.10318878 0 -109.18654161 0 2342.19647323 0 -71.00175071 0 493.10295546 0 29163
0.16450000 0.16449100 8894.54894086 0 295.43996569 0 2725.33836487 0 -7.77361725 0 161.17663349 0 28996
0.16550000 0.16550500 8450.32184110 0 346.67860295 0 2636.73680243 0 -320.24532749 0 180.67095445 0 30777
0.16650000 0.16650700 8437.17330772 0 50.60493727 0 2923.02771761 0 -10.05632128 0 56.89085893 0 29211
0.16750000 0.16749900 8389.89570733 0 -137.68063273 0 2501.24209963 0 467.75495577 0 4.40226518 0 30922
0.16850000 0.16850800 8363.02744280 0 -95.52458931 0 2322.08372083 0 149.53408501 0 -303.23132302 0 30867
0.16950000 0.16949900 8122.38841126 0 277.92396625 0 2180.09713565 0 17.50918900 0 -231.32960628 0 30852
0.17050000 0.17049200 8100.10071349 0 199.89066109 0 2293.88632302 0 -374.83096402 0 -8.98581975 0 31257
0.17150000 0.17149500 7877.28964325 0 105.90830577 0 2322.70984147 0 -118.19949326 0 -645.44909105 0 32608
0.17250000 0.17250900 7789.84146093 0 -2.92241258 0 2249.73932581 0 213.47198663 0 -930.85574815 0 32361
0.17350000 0.17350400 7697.61498954 0 21.05720595 0 2184.79853271 0 247.23856275 0 -528.43483317 0 32508
0.17450000 0.17449800 7630.68598880 0 102.77308907 0 2272.21376131 0 60.45700042 0 -452.93017662 0 32791
0.17550000 0.17549800 7851.35506739 0 44.84847201 0 2003.55308512 0 113.68812930 0 -503.49436112 0 33633
0.17650000 0.17650100 7703.67847360 0 -79.14461437 0 1882.86558617 0 150.05255683 0 -359.40752566 0 33984
0.17750000 0.17750300 7766.72992022 0 12.60062290 0 2012.19794374 0 -82.47085279 0 -349.25778060 0 34069
0.17850000 0.17849800 7535.85617370 0 208.33450204 0 2033.63982942 0 -159.10604155 0 -176.76703735 0 34536
