### header ###
fiducial parameters:
Omega_m = 0.31
Omega_nu = 0
Omega_de = 0.69
Omega_k = 0
H_0 = 100
w_de = -1
zeff = 0
beta = 0
fgrowth = 0
b_1 = 2
gamma = 0.55
Lx = 3500 Ly = 3500 Lz = 3500
nx = 700 ny = 700 nz = 700
xoffset = -983.599254 yoffset = -42.9823471 zoffset = 800.977702
bins = 400 dk = 0.001
kx_ny = 0.628318531 ky_ny = 0.628318531 kz_ny = 0.628318531
############################
A(data) = 9.06165021 (not used)
A(ran) = 9.05883751 (used)
Ngal = 502962
weighted Ngal = 0
Nran = 25229228
weighted Nran = 0
SN(data) = 6752.3077
SN(ran) = 134.472202
SN(data+ran) = 6886.7799
############################
13 columns: k_central k_mean P_0(k) sigma^{lin}_{P_0(k)} P^img_1(k) sigma^{lin}_{P_1(k)} P_2(k) sigma^{lin}_{P_2(k)} P^img_3(k) sigma^{lin}_{P_3(k)} P_4(k) sigma^{lin}_{P_4(k)} N_modes
### header ###
0.00050000 0 0 0 0 0 0 0 0 0 0 0 0
0.00150000 0.00179520 73722.40965106 0 -61324.67180712 0 63339.02272709 0 -203863.78099441 0 77129.60437434 0 3
0.00250000 0.00253879 55201.98089601 0 2316.94294086 0 -38811.02138158 0 8140.20538799 0 -30977.37344519 0 6
0.00350000 0.00331552 100717.54599834 0 -18831.18231337 0 -2235.09689056 0 -1141.25315291 0 45975.70884776 0 7
0.00450000 0.00420575 86389.04983178 0 -2074.82099203 0 3246.64421043 0 -46493.19206207 0 15878.85874069 0 24
0.00550000 0.00557378 88072.21588842 0 20654.73120760 0 57078.25573863 0 7699.37252115 0 18936.30467298 0 45
0.00650000 0.00659388 64000.84322512 0 -297.76979354 0 18540.75021432 0 11217.11598289 0 29750.94591649 0 40
0.00750000 0.00754703 91437.22985299 0 -3376.33905890 0 33374.53671962 0 61138.26361042 0 2979.62023555 0 57
0.00850000 0.00846663 102956.97081049 0 -14116.60376146 0 45605.19921459 0 -16752.90118098 0 2673.99647262 0 75
0.00950000 0.00948925 82351.78002523 0 16111.73167941 0 52666.08246988 0 11274.78498894 0 23046.95142437 0 112
0.01050000 0.01054430 71538.67662188 0 12879.41135162 0 60833.44172129 0 -19273.64089695 0 39203.50015991 0 105
0.01150000 0.01145670 74081.60517447 0 -335.63471368 0 49321.28011886 0 30458.57208218 0 47092.29065065 0 144
0.01250000 0.01249090 79597.50829619 0 -8759.72429700 0 51114.29190131 0 36684.51797556 0 9828.65502404 0 169
0.01350000 0.01339930 84286.71248544 0 -11748.11022147 0 12087.42366851 0 20013.45186030 0 4293.28723970 0 180
0.01450000 0.01448870 84413.25476157 0 4389.96246299 0 13346.69506924 0 6126.18400520 0 21568.42795492 0 267
0.01550000 0.01550050 82577.18345460 0 4584.40038225 0 12987.49954583 0 -21242.62553216 0 31341.84156344 0 238
0.01650000 0.01653350 83276.68103658 0 6866.44533603 0 25886.13389947 0 -6296.25814247 0 -18798.22859563 0 315
0.01750000 0.01747870 76943.30602336 0 9532.75260784 0 27172.97657737 0 -14389.68023583 0 -6099.76610814 0 297
0.01850000 0.01844180 59845.59910905 0 1582.28374205 0 33507.23035640 0 3374.10919067 0 5126.00571795 0 388
0.01950000 0.01947590 66121.85434485 0 -7121.47415765 0 25503.65108219 0 14348.15855148 0 -5253.22903758 0 399
0.02050000 0.02045430 73462.29497233 0 -36.63827292 0 29181.72536532 0 10295.98267994 0 -12026.23959923 0 462
0.02150000 0.02154770 69250.91969037 0 4216.12061732 0 22636.12840983 0 -3468.92802119 0 -620.94141116 0 571
0.02250000 0.02255340 68571.19433904 0 3708.58942577 0 38146.12520323 0 -5107.32095999 0 6976.18121611 0 510
0.02350000 0.02348930 59908.54070994 0 2036.63861773 0 34357.32642847 0 -1712.01154424 0 4188.78001616 0 555
0.02450000 0.02439640 60024.75748785 0 2320.07354405 0 33895.64484288 0 5320.14705375 0 4992.25756220 0 592
0.02550000 0.02547300 63561.35047614 0 -762.76432622 0 31847.02205646 0 10517.28886373 0 -6979.33378844 0 837
0.02650000 0.02652900 62560.98545115 0 4253.55604067 0 33475.92432455 0 7344.53787306 0 10567.49934500 0 723
0.02750000 0.02749970 57358.14264800 0 409.85856907 0 32316.06330568 0 -1115.54925307 0 9978.17702601 0 826
0.02850000 0.02848090 59094.47403593 0 -1327.91399479 0 24937.28651989 0 5450.90740576 0 2323.65451471 0 831
0.02950000 0.02946900 54473.15450524 0 -955.44910770 0 17190.96593553 0 3901.47852030 0 2697.81102598 0 996
0.03050000 0.03053250 56160.60454518 0 1711.13277843 0 18831.07246765 0 459.78894374 0 833.50607210 0 1041
0.03150000 0.03150510 53711.37439672 0 3862.26359618 0 18521.74690376 0 2.70080981 0 5915.06052018 0 1036
0.03250000 0.03246190 53312.52456629 0 154.36510003 0 15073.90926193 0 7029.67608458 0 5959.31736311 0 1059
0.03350000 0.03345080 50896.57767275 0 -1855.41513929 0 14238.53251711 0 1844.40859756 0 7183.98736021 0 1302
0.03450000 0.03451200 52676.73750528 0 742.62521085 0 14013.12908775 0 5006.15304651 0 3737.80838883 0 1339
0.03550000 0.03553350 51584.87099070 0 1900.51779431 0 12939.93634655 0 -2098.86622141 0 6404.44519783 0 1365
0.03650000 0.03647120 51584.10207062 0 716.67086275 0 15839.09458794 0 -2523.98016488 0 7428.16342412 0 1308
0.03750000 0.03744890 48625.84682874 0 764.10114870 0 12987.17000865 0 -2242.43458505 0 772.99206175 0 1579
0.03850000 0.03847530 45159.66495069 0 1451.97375752 0 18713.20800385 0 -886.80980901 0 2684.95907606 0 1662
0.03950000 0.03950240 46451.89006916 0 1632.64800734 0 19184.88555049 0 2966.68040905 0 223.45806157 0 1683
0.04050000 0.04050350 44015.62171635 0 -207.00427030 0 16002.98441086 0 -471.30187426 0 117.47341301 0 1822
0.04150000 0.04152450 44910.97422745 0 798.94640985 0 17960.87462775 0 2356.98170792 0 -5651.59554682 0 1887
0.04250000 0.04250150 42189.21683325 0 1021.99804222 0 12423.77128095 0 -644.79331207 0 -60.92373491 0 1920
0.04350000 0.04349210 42904.53219974 0 -125.92714007 0 15814.48914536 0 -35.45765106 0 -4148.10414389 0 2005
0.04450000 0.04448520 41154.57994181 0 1159.86101886 0 11411.32322613 0 532.19155699 0 -5039.05184139 0 2151
0.04550000 0.04548030 40996.95132527 0 837.84058444 0 12729.69162734 0 2643.23966939 0 -5218.24317391 0 2274
0.04650000 0.04648670 40093.47023045 0 422.69404213 0 13841.44021830 0 673.54652926 0 -4474.20315011 0 2311
0.04750000 0.04749250 37812.30404248 0 1354.62847530 0 13488.28620981 0 -1760.81600022 0 -2882.37381449 0 2568
0.04850000 0.04851840 36228.65821343 0 1056.53243996 0 13541.67123255 0 591.59502706 0 -1178.37002366 0 2493
0.04950000 0.04949480 36975.49930324 0 274.57806544 0 15310.62680105 0 1184.30169286 0 212.68549123 0 2644
0.05050000 0.05050630 35665.36933146 0 591.37094178 0 16161.82133038 0 1834.85201941 0 591.18200713 0 2829
0.05150000 0.05149060 35297.05661281 0 941.85020684 0 14775.01904199 0 1226.20783726 0 4646.49617105 0 2784
0.05250000 0.05249300 34911.71780665 0 295.29167396 0 14883.54661909 0 -595.61977445 0 948.05099806 0 3055
0.05350000 0.05348950 33887.95564207 0 824.33944628 0 18860.18158499 0 -962.73078086 0 5524.05367458 0 3009
0.05450000 0.05448610 32909.88929943 0 -349.47747205 0 13624.60475554 0 3226.46555060 0 3618.32919287 0 3336
0.05550000 0.05550870 33289.95551074 0 -551.26516882 0 15096.75717289 0 1854.17388259 0 3333.44430297 0 3349
0.05650000 0.05647670 34238.47335314 0 158.10534699 0 11908.04559826 0 1231.40354009 0 2000.36755907 0 3324
0.05750000 0.05747970 35648.12355251 0 -72.15985420 0 11958.68447786 0 1487.86035614 0 2383.26779011 0 3639
0.05850000 0.05849280 35018.26816069 0 -378.54484801 0 8195.19415833 0 227.38614472 0 2714.34280771 0 3846
0.05950000 0.05951020 35017.16970343 0 378.73378266 0 9840.19980982 0 228.71637646 0 -452.38204645 0 3787
0.06050000 0.06049470 33278.86109244 0 599.20953277 0 9953.01137023 0 -1821.04441168 0 558.73467818 0 3930
0.06150000 0.06148310 32385.48580440 0 1483.49948083 0 9929.72407636 0 -574.71832974 0 -700.02484146 0 4083
0.06250000 0.06249100 31884.25975751 0 770.31292450 0 12595.89953330 0 628.97442909 0 192.93852511 0 4303
0.06350000 0.06350600 31750.79720065 0 -283.49753838 0 10019.45704977 0 1515.91495452 0 -1004.26235133 0 4470
0.06450000 0.06451750 30851.81978059 0 -67.79689182 0 9836.43210142 0 2616.64601917 0 1267.12537012 0 4479
0.06550000 0.06550280 31010.43700866 0 815.82530407 0 10795.08870432 0 -909.82798085 0 1944.48903835 0 4636
0.06650000 0.06648880 29573.54506930 0 636.08144755 0 9505.01656207 0 -883.62757833 0 989.41889841 0 4653
0.06750000 0.06749660 30904.98511188 0 -102.29295340 0 11138.13690603 0 642.17678688 0 1295.64132054 0 5220
0.06850000 0.06852730 29322.32789436 0 310.48004247 0 9861.02655943 0 1490.41976155 0 2730.75375915 0 5029
0.06950000 0.06949320 28822.09045901 0 420.86730771 0 10525.51630860 0 -472.43987598 0 2581.41849491 0 5040
0.07050000 0.07048030 28910.51626829 0 385.71118316 0 10942.23803861 0 275.90829718 0 455.04580530 0 5475
0.07150000 0.07148790 28068.65862565 0 1124.17214255 0 10845.43100046 0 -646.70462770 0 64.92892976 0 5509
0.07250000 0.07249820 27166.27598810 0 992.53632010 0 12960.47749728 0 -680.30313985 0 1573.41919198 0 5916
0.07350000 0.07351270 26102.20044214 0 123.86204043 0 12073.69295278 0 -299.40319948 0 2168.70613388 0 5721
0.07450000 0.07449140 26147.12734400 0 -585.37006977 0 11832.25204745 0 2305.90344542 0 1038.98897909 0 6028
0.07550000 0.07549160 26156.79376787 0 139.94894697 0 10750.49133963 0 1362.42752184 0 -719.70480170 0 6183
0.07650000 0.07648840 26335.07338087 0 583.32584082 0 9000.82468059 0 -76.57598192 0 628.80087285 0 6330
0.07750000 0.07749960 25102.27480006 0 221.62583486 0 9505.08246951 0 22.11381198 0 312.63631407 0 6583
0.07850000 0.07848650 25166.09516676 0 460.59191599 0 9608.76585010 0 637.69617972 0 374.59040188 0 6549
0.07950000 0.07947320 23802.47032651 0 282.82638100 0 8272.95394763 0 -525.31521456 0 -849.25685072 0 6828
0.08050000 0.08048110 23687.13231441 0 639.58332929 0 8584.94876266 0 590.86125761 0 -847.42901785 0 7147
0.08150000 0.08149960 23229.29532922 0 235.94312676 0 8106.75736447 0 608.29487275 0 -2150.95506459 0 7386
0.08250000 0.08250610 23027.28903945 0 445.32555702 0 7572.95107531 0 556.64980630 0 -2022.98479402 0 7227
0.08350000 0.08350160 22095.68743882 0 550.05027510 0 8042.62942974 0 -1947.39995008 0 -1751.07268434 0 7798
0.08450000 0.08449610 21267.01128329 0 -57.62023455 0 7831.52791388 0 1520.34173727 0 -1705.86018359 0 7371
0.08550000 0.08548940 21529.65241371 0 -104.52501855 0 7706.56741619 0 421.69993831 0 -2156.87574921 0 8256
0.08650000 0.08650700 21012.93811948 0 701.87244657 0 7001.77527023 0 69.17281938 0 -3742.52077047 0 8037
0.08750000 0.08749060 21302.38160700 0 224.13141586 0 7243.16125270 0 -180.91481196 0 -3120.99168467 0 8155
0.08850000 0.08849210 20589.26315502 0 351.30640338 0 8184.38533891 0 -905.43744719 0 -3424.17687249 0 8718
0.08950000 0.08949900 20014.55031756 0 643.81788202 0 8000.00928813 0 -433.91148765 0 -3530.11209047 0 8571
0.09050000 0.09049190 19042.85502702 0 428.93987010 0 9088.70126124 0 -642.75018157 0 -2192.90514728 0 8932
0.09150000 0.09150830 19335.26434913 0 -395.95100172 0 7810.59131854 0 1720.83215602 0 -3481.53831051 0 9285
0.09250000 0.09250820 19437.64056559 0 175.20283422 0 8581.87308234 0 1069.85233268 0 -2325.06054000 0 9204
0.09350000 0.09350330 18815.03499168 0 720.00248362 0 7462.54513630 0 75.22334165 0 -1142.95576166 0 9349
0.09450000 0.09448040 18711.23078079 0 -153.66098893 0 7761.73193969 0 430.70618937 0 472.69142269 0 9564
0.09550000 0.09549270 18934.10775846 0 -81.29539368 0 7210.36131897 0 1110.39748853 0 -1006.12533484 0 10155
0.09650000 0.09649430 18181.00546228 0 150.11516890 0 7115.87202563 0 635.03132241 0 1341.02957445 0 9913
0.09750000 0.09749140 18622.69512578 0 292.24565198 0 7125.43958835 0 413.87892263 0 395.73680256 0 10476
0.09850000 0.09850240 17969.22290292 0 230.45743121 0 6476.94337686 0 -644.29351402 0 1359.92303929 0 10575
0.09950000 0.09950330 17305.53502755 0 437.55397192 0 6982.05796244 0 194.20284941 0 468.04055466 0 10882
0.10050000 0.10051200 16960.94898567 0 393.33996882 0 7248.44483211 0 -20.08902572 0 1165.69382690 0 10875
0.10150000 0.10150300 16692.26634033 0 170.08402339 0 6678.13680826 0 1019.60120849 0 1294.86141589 0 11118
0.10250000 0.10250800 16736.97355074 0 -263.58800058 0 5977.84833706 0 647.82944793 0 510.30040230 0 11575
0.10350000 0.10349800 17052.23078383 0 199.86759349 0 6137.71780641 0 -515.03365462 0 865.71174045 0 11364
0.10450000 0.10450100 15982.99248876 0 347.86493679 0 6215.90599404 0 -350.68247966 0 544.29216215 0 12093
0.10550000 0.10551000 16159.18503296 0 166.79194699 0 6642.71156169 0 -253.61400867 0 112.72478229 0 12067
0.10650000 0.10649700 16107.00831320 0 382.42679596 0 6133.88419058 0 351.39977225 0 -685.03749063 0 12054
0.10750000 0.10749900 15692.88992688 0 -169.90387640 0 6399.46918645 0 49.08621027 0 139.25911581 0 12807
0.10850000 0.10850100 15896.65374827 0 11.21579783 0 6203.96576364 0 409.35986947 0 -1025.18246982 0 12736
0.10950000 0.10950300 15622.58866236 0 429.09255566 0 6218.74001377 0 -731.05735746 0 -258.84046831 0 12933
0.11050000 0.11050200 15052.15980821 0 411.16902858 0 6191.77288808 0 176.76813581 0 -636.41647702 0 13428
0.11150000 0.11150900 15067.86774701 0 -25.86141861 0 6701.49000957 0 -102.34392181 0 -1591.71948990 0 13453
0.11250000 0.11250000 14724.81954529 0 193.62286398 0 5979.88048298 0 866.88928663 0 -885.99145835 0 13668
0.11350000 0.11349100 14626.06823778 0 -33.29522811 0 5552.49273299 0 396.57822082 0 -1145.91061169 0 13791
0.11450000 0.11448600 14613.65567077 0 -152.11765648 0 5150.28162335 0 781.94668532 0 -85.64089059 0 14205
0.11550000 0.11549300 14744.70162166 0 118.78277407 0 4717.17091104 0 372.05845790 0 -1222.50603630 0 14776
0.11650000 0.11649800 14032.02255259 0 288.81736688 0 4140.72251112 0 -16.20685808 0 -9.91488392 0 14553
0.11750000 0.11747300 14335.19675583 0 162.69030759 0 4587.80559975 0 173.00042741 0 -909.04148546 0 14568
0.11850000 0.11849100 14081.23343775 0 -122.44612902 0 3892.17458732 0 574.80291095 0 -252.70119069 0 16015
0.11950000 0.11950300 13834.62978330 0 208.04121395 0 3872.75386300 0 -258.43074375 0 -471.06460749 0 15270
0.12050000 0.12050700 13955.78961887 0 466.35112740 0 4279.82015372 0 -807.78679386 0 -581.58368761 0 15999
0.12150000 0.12150000 12992.77214066 0 190.98546810 0 4591.91382990 0 224.54223888 0 -420.38178960 0 15670
0.12250000 0.12250700 13228.50106826 0 98.15901935 0 4916.21136622 0 160.43187947 0 -1032.96174412 0 16887
0.12350000 0.12352200 13248.93237326 0 -1.16078372 0 4441.13958665 0 43.03799476 0 -807.35510016 0 16407
0.12450000 0.12449800 13124.47716591 0 86.79811531 0 4278.80957304 0 139.58755453 0 -974.88301351 0 16306
0.12550000 0.12549900 13069.22476583 0 -54.95471817 0 4580.62168928 0 264.98413975 0 -379.99371314 0 17523
0.12650000 0.12650100 12867.43816751 0 46.19814644 0 3967.37497121 0 628.37576989 0 180.91041813 0 17154
0.12750000 0.12750600 12814.27283622 0 -98.01698883 0 3751.62698114 0 475.85717651 0 -486.67917742 0 18007
0.12850000 0.12850300 13090.97421954 0 319.44455215 0 3660.35616756 0 262.52030012 0 138.04422209 0 17496
0.12950000 0.12949900 12727.05532992 0 124.20695601 0 3374.38380498 0 -4.29156266 0 501.21506231 0 18405
0.13050000 0.13049000 12685.86318274 0 -26.79895188 0 3426.48363273 0 209.03861314 0 341.12150768 0 18100
0.13150000 0.13148800 12519.66659959 0 201.07150264 0 3700.08736659 0 -446.90294164 0 49.00283736 0 19059
0.13250000 0.13249300 12009.76274036 0 340.43716881 0 3538.41642734 0 -116.64188087 0 426.01028459 0 18957
0.13350000 0.13349100 11913.86742172 0 120.09872586 0 3730.61349379 0 144.89969384 0 182.28019433 0 19468
0.13450000 0.13450700 12058.20470544 0 1.24200365 0 3694.25455855 0 269.28020609 0 -163.12090283 0 19953
0.13550000 0.13551000 11886.95521890 0 -3.87318226 0 3402.37249592 0 217.72960696 0 -46.22187312 0 19956
0.13650000 0.13649900 11795.12419212 0 255.91198126 0 4010.42351116 0 -179.84161922 0 29.97964472 0 19723
0.13750000 0.13749600 11517.21450581 0 97.59287448 0 3243.42573067 0 133.16157957 0 670.96735161 0 20946
0.13850000 0.13851100 11519.19172888 0 -99.29603246 0 3444.21273288 0 455.61480616 0 -149.54836495 0 20955
0.13950000 0.13949800 11172.62846394 0 148.11707514 0 3247.17146992 0 126.90476703 0 518.45534898 0 20506
0.14050000 0.14048300 11246.77432886 0 257.26088677 0 3112.44568721 0 338.58297296 0 942.39723856 0 21447
0.14150000 0.14148400 10895.97101890 0 53.90865732 0 2979.62023555 0 146.81430484 0 993.97529911 0 21771
0.14250000 0.14249400 11057.61998901 0 173.23659572 0 3008.55359973 0 345.44942928 0 1024.74967766 0 22470
0.14350000 0.14350900 10845.61773819 0 61.22877649 0 2907.61636228 0 38.73138323 0 1374.26889108 0 22519
0.14450000 0.14449900 10874.64996352 0 -152.45817823 0 2502.68107864 0 165.63527150 0 1167.09985220 0 22218
0.14550000 0.14550500 10805.11761908 0 50.09129866 0 2661.19944556 0 73.07025558 0 866.91894498 0 23559
0.14650000 0.14650700 10526.12046009 0 336.21250220 0 2875.58534863 0 -320.16953394 0 1486.48728457 0 23044
0.14750000 0.14750500 10522.95690318 0 40.88128378 0 2823.61733575 0 -50.17489125 0 767.88643241 0 23649
0.14850000 0.14849900 10386.79214147 0 183.18312620 0 3024.62402942 0 41.13733416 0 897.62631763 0 23640
0.14950000 0.14949500 10112.47441039 0 196.10537738 0 3103.55916799 0 -169.02950442 0 619.47057690 0 24457
0.15050000 0.15050000 9851.94231791 0 155.22738898 0 3300.64436924 0 -113.84740560 0 708.63235254 0 24591
0.15150000 0.15149900 9773.18293250 0 196.51729885 0 3294.73466919 0 -205.36537207 0 532.71222573 0 25020
0.15250000 0.15250500 9386.24037875 0 49.96486623 0 3250.67554857 0 85.96515518 0 428.09186110 0 25297
0.15350000 0.15350100 9581.01881976 0 96.43916482 0 3308.39947748 0 249.31794234 0 310.98972664 0 25452
0.15450000 0.15450400 9488.28705803 0 234.59422125 0 2950.40127249 0 27.75351124 0 82.37396886 0 26061
0.15550000 0.15549900 9238.26720151 0 -7.15016586 0 3331.14852730 0 -48.18525562 0 437.88680447 0 26128
0.15650000 0.15649500 8869.87759085 0 192.08502382 0 3031.85187818 0 153.50940182 0 223.35920041 0 26331
0.15750000 0.15749700 8954.08532425 0 -7.37383373 0 3199.63023978 0 156.94867150 0 487.60737380 0 27345
0.15850000 0.15849900 8866.93372539 0 -10.30933992 0 2871.48810306 0 323.26608495 0 88.14328607 0 26980
0.15950000 0.15949700 8832.51905950 0 108.46793087 0 2743.46290963 0 169.58752071 0 615.10970158 0 27777
0.16050000 0.16050000 9004.33974381 0 -84.14391304 0 2312.66994213 0 202.27321488 0 733.23999204 0 28224
0.16150000 0.16150500 9139.18635682 0 49.15376539 0 2739.09104974 0 84.46048842 0 478.50665542 0 28075
0.16250000 0.16249700 8798.44491535 0 161.54791204 0 2289.51446313 0 -266.82185874 0 629.55770990 0 28590
0.16350000 0.16349900 8791.28297403 0 45.64298614 0 2561.85497114 0 36.72636920 0 683.95331332 0 29163
0.16450000 0.16449100 8676.59305170 0 -148.27964682 0 2370.95408425 0 200.74416238 0 147.49095451 0 28996
0.16550000 0.16550500 8693.04794143 0 248.06679952 0 2474.48368083 0 5.79011101 0 193.38230184 0 30777
0.16650000 0.16650700 8547.61220045 0 263.32107546 0 2407.88421727 0 -39.30280070 0 590.12089742 0 29211
0.16750000 0.16749900 8358.27112287 0 -14.38308949 0 2698.68979178 0 -206.49348767 0 358.31895452 0 30922
0.16850000 0.16850800 8273.39333053 0 54.03574883 0 2595.05034948 0 294.40631741 0 434.15534516 0 30867
0.16950000 0.16949900 8330.35932394 0 40.97146712 0 2267.86387057 0 199.00859991 0 165.57046252 0 30852
0.17050000 0.17049200 8274.07437403 0 33.45637179 0 2263.42610325 0 286.84783302 0 744.26081371 0 31257
0.17150000 0.17149500 8242.33994385 0 82.81082531 0 2390.59450002 0 -162.36955807 0 677.97990275 0 32608
0.17250000 0.17250900 7971.27364626 0 234.99186278 0 2418.50629895 0 -121.79035004 0 494.73086912 0 32361
0.17350000 0.17350400 7853.74970421 0 33.70473297 0 2453.77776151 0 -26.03640285 0 919.16047372 0 32508
0.17450000 0.17449800 7626.27019062 0 67.42429512 0 2470.00197521 0 -110.17965682 0 363.19061246 0 32791
0.17550000 0.17549800 7767.36702543 0 123.28205499 0 2556.16496254 0 311.71031460 0 748.57006153 0 33633
0.17650000 0.17650100 7773.61724723 0 -122.28795118 0 2222.70629269 0 359.10984374 0 621.71802045 0 33984
0.17750000 0.17750300 7781.60303149 0 26.01531247 0 2172.74845659 0 -42.43043805 0 343.63917172 0 34069
0.17850000 0.17849800 7689.45345211 0 129.01819880 0 1982.13316859 0 -210.45342609 0 304.73950484 0 34536
