### header ###
fiducial parameters:
Omega_m = 0.31
Omega_nu = 0
Omega_de = 0.69
Omega_k = 0
H_0 = 100
w_de = -1
zeff = 0
beta = 0
fgrowth = 0
b_1 = 2
gamma = 0.55
Lx = 3500 Ly = 3500 Lz = 3500
nx = 700 ny = 700 nz = 700
xoffset = -983.599254 yoffset = -42.9823471 zoffset = 800.977702
bins = 400 dk = 0.001
kx_ny = 0.628318531 ky_ny = 0.628318531 kz_ny = 0.628318531
############################
A(data) = 9.05203071 (not used)
A(ran) = 9.05275954 (used)
Ngal = 502951
weighted Ngal = 0
Nran = 25229228
weighted Nran = 0
SN(data) = 6752.75172
SN(ran) = 134.381979
SN(data+ran) = 6887.1337
############################
13 columns: k_central k_mean P_0(k) sigma^{lin}_{P_0(k)} P^img_1(k) sigma^{lin}_{P_1(k)} P_2(k) sigma^{lin}_{P_2(k)} P^img_3(k) sigma^{lin}_{P_3(k)} P_4(k) sigma^{lin}_{P_4(k)} N_modes
### header ###
0.00050000 0 0 0 0 0 0 0 0 0 0 0 0
0.00150000 0.00179520 46042.60489478 0 -61143.64605098 0 -37429.60153375 0 -2150.41682053 0 22675.12364249 0 3
0.00250000 0.00253879 58482.19396025 0 -35605.28371944 0 -32202.70251664 0 -2584.02183861 0 26126.47634755 0 6
0.00350000 0.00331552 61947.27738103 0 26812.68259670 0 1882.53604899 0 -58423.97572557 0 53915.90713818 0 7
0.00450000 0.00420575 57661.97592560 0 38825.96040029 0 25445.10331033 0 -47765.97448707 0 54155.04128328 0 24
0.00550000 0.00557378 43070.17955427 0 -9980.75840057 0 18423.54482488 0 67430.33663074 0 -5246.15497284 0 45
0.00650000 0.00659388 66276.95650970 0 -19868.56534796 0 17365.40094812 0 20577.18012518 0 -26844.09847429 0 40
0.00750000 0.00754703 71177.72356686 0 -11781.06393922 0 -26165.03219731 0 -21259.10239103 0 -11629.03745469 0 57
0.00850000 0.00846663 87960.72247672 0 -9326.28658160 0 -13440.83285626 0 2433.20365707 0 4856.97156628 0 75
0.00950000 0.00948925 96829.88607035 0 996.85435559 0 23.27949483 0 -58639.82257679 0 -34696.20049261 0 112
0.01050000 0.01054430 95807.66174593 0 15270.31341968 0 15114.88171765 0 -29306.18057267 0 -7762.29215290 0 105
0.01150000 0.01145670 67497.45236921 0 981.61875342 0 32493.13461569 0 -5223.44986132 0 -2832.08644121 0 144
0.01250000 0.01249090 75978.75070499 0 -4386.34853861 0 36671.88571709 0 20310.58454863 0 -34905.01721738 0 169
0.01350000 0.01339930 80878.74884208 0 11315.64759894 0 35895.60597277 0 10156.45663901 0 -22527.93036990 0 180
0.01450000 0.01448870 76485.02965526 0 5988.42648045 0 31164.00133335 0 2440.67316642 0 6228.32954563 0 267
0.01550000 0.01550050 76358.70707058 0 -3253.14707740 0 56192.13026849 0 1546.52895830 0 17374.29845191 0 238
0.01650000 0.01653350 67691.22022954 0 -2110.32313061 0 31773.64511162 0 13043.74055744 0 -4468.35935750 0 315
0.01750000 0.01747870 79783.03772709 0 786.16695810 0 37169.37700930 0 11408.46723726 0 10672.54481260 0 297
0.01850000 0.01844180 70650.13454578 0 3565.02106213 0 36296.21333481 0 8396.26675943 0 28459.16018092 0 388
0.01950000 0.01947590 78755.43096210 0 -1664.47031411 0 30952.54831116 0 7354.53383410 0 20055.96215619 0 399
0.02050000 0.02045430 72486.42554420 0 634.71496672 0 34653.03112236 0 3659.87284637 0 28691.15435384 0 462
0.02150000 0.02154770 71204.74561541 0 4286.27908239 0 35119.76561134 0 -2787.68679884 0 7334.43206628 0 571
0.02250000 0.02255340 63564.86553936 0 6403.73120061 0 40575.80281250 0 -9359.45999080 0 29321.22943711 0 510
0.02350000 0.02348930 67454.94207332 0 2005.16781729 0 48894.52947407 0 1472.74558427 0 2470.07886722 0 555
0.02450000 0.02439640 65998.60744048 0 -3158.69073777 0 43441.45810752 0 15662.79219801 0 16846.37989365 0 592
0.02550000 0.02547300 72070.11024337 0 -3302.62159231 0 34637.87241220 0 16719.17854316 0 2181.94254384 0 837
0.02650000 0.02652900 70334.54777552 0 340.90291469 0 33137.92902622 0 -9591.87157747 0 8585.56389872 0 723
0.02750000 0.02749970 65797.80945370 0 4815.28511334 0 33946.39356821 0 2942.02004361 0 -7127.14219710 0 826
0.02850000 0.02848090 65766.50342184 0 2153.54742372 0 33957.92736942 0 -6568.23615959 0 5538.92678585 0 831
0.02950000 0.02946900 61809.09145796 0 2456.78753440 0 32957.45249871 0 1535.95081490 0 -7386.43303288 0 996
0.03050000 0.03053250 61525.68948536 0 1241.68510002 0 32403.39065770 0 4149.75182978 0 -3443.49873566 0 1041
0.03150000 0.03150510 55588.63785087 0 462.46149025 0 28353.26890124 0 5356.91241818 0 -3195.73071652 0 1036
0.03250000 0.03246190 55342.25388787 0 2286.35090623 0 31022.84957568 0 4508.13449482 0 -942.99809468 0 1059
0.03350000 0.03345080 52962.77577530 0 2118.81420522 0 22204.87409028 0 5720.28207917 0 5430.05868700 0 1302
0.03450000 0.03451200 51292.46166858 0 560.24285999 0 23133.07047341 0 5895.12352095 0 3025.03045860 0 1339
0.03550000 0.03553350 51899.79868660 0 1297.87118878 0 19015.72313274 0 632.68172234 0 5224.37256541 0 1365
0.03650000 0.03647120 49605.12147436 0 500.58125248 0 16294.73465862 0 4861.43130275 0 1299.69462782 0 1308
0.03750000 0.03744890 49552.61521742 0 63.39614250 0 21970.02392849 0 -4216.98839855 0 5909.75497163 0 1579
0.03850000 0.03847530 45786.33481646 0 2917.86496850 0 20600.35757333 0 -1555.72304555 0 6860.49169769 0 1662
0.03950000 0.03950240 43802.08162536 0 1273.57331423 0 22205.20362746 0 702.29535262 0 1892.13656543 0 1683
0.04050000 0.04050350 44771.58000139 0 -555.12954146 0 21660.03929025 0 2997.85462604 0 1562.50052683 0 1822
0.04150000 0.04152450 43943.45307449 0 214.43203827 0 20412.19184501 0 3851.87219052 0 4960.92956119 0 1887
0.04250000 0.04250150 44651.40877735 0 -286.56333259 0 15602.70658599 0 5759.43109585 0 11018.29521917 0 1920
0.04350000 0.04349210 44181.37891660 0 -387.41708729 0 19062.73710339 0 1156.22512534 0 7624.11721440 0 2005
0.04450000 0.04448520 42865.86650426 0 949.22195350 0 15074.12895338 0 -1045.05795544 0 11448.01169855 0 2151
0.04550000 0.04548030 43226.16048492 0 1490.92505189 0 19357.78272292 0 -915.95407698 0 4343.77233528 0 2274
0.04650000 0.04648670 40740.79109267 0 2079.36860508 0 19181.15079582 0 -2914.04233724 0 7951.94079851 0 2311
0.04750000 0.04749250 39519.30662162 0 1130.04888888 0 22535.18018780 0 1982.35286004 0 4162.38408825 0 2568
0.04850000 0.04851840 41210.71110770 0 -868.23269986 0 20460.19442719 0 2454.93114163 0 2029.88310560 0 2493
0.04950000 0.04949480 39580.60053663 0 -412.40259608 0 19443.68208051 0 437.29363755 0 2450.37254401 0 2644
0.05050000 0.05050630 39410.44950734 0 1026.29850239 0 18606.65764981 0 1488.72813738 0 3954.06166924 0 2829
0.05150000 0.05149060 38418.98198615 0 751.46669332 0 18720.45782175 0 653.74024644 0 4906.97334067 0 2784
0.05250000 0.05249300 38723.36449238 0 597.92543623 0 17912.32281694 0 1405.03667888 0 4151.80594485 0 3055
0.05350000 0.05348950 37390.05707246 0 406.19082028 0 18548.54926086 0 1466.11090243 0 5836.54279537 0 3009
0.05450000 0.05448610 36424.95252546 0 289.36989088 0 17262.25581158 0 3026.77700564 0 6475.19682982 0 3336
0.05550000 0.05550870 36388.04436159 0 639.57014781 0 15237.68923911 0 856.74173848 0 5803.00689528 0 3349
0.05650000 0.05647670 34406.20777646 0 2112.34429196 0 14777.43564796 0 972.55538258 0 5821.51590008 0 3324
0.05750000 0.05747970 33831.27524755 0 276.65524812 0 17083.31712423 0 977.87960491 0 9308.01923740 0 3639
0.05850000 0.05849280 33227.78282993 0 313.10865069 0 16114.91720546 0 -857.16244761 0 4058.11852531 0 3846
0.05950000 0.05951020 32082.64113833 0 744.09165129 0 15226.81451226 0 773.11399051 0 4888.13479870 0 3787
0.06050000 0.06049470 30943.10157874 0 -13.46906321 0 15309.96772670 0 -768.62130032 0 3305.97188694 0 3930
0.06150000 0.06148310 29963.27770448 0 1036.23514675 0 16233.22105216 0 553.53677843 0 2255.29751954 0 4083
0.06250000 0.06249100 30265.35345047 0 1554.52572714 0 16321.09763281 0 -287.55633795 0 2859.03159775 0 4303
0.06350000 0.06350600 29233.57254791 0 -744.02244848 0 14998.77478547 0 2402.31503897 0 559.08069222 0 4470
0.06450000 0.06451750 29997.76926239 0 -801.83095860 0 13404.14438384 0 1702.16936720 0 -235.95191442 0 4479
0.06550000 0.06550280 29640.11157914 0 -240.18646715 0 11530.17630146 0 1815.13471163 0 986.04224079 0 4636
0.06650000 0.06648880 29895.28320021 0 690.19255055 0 10852.40620404 0 683.61059466 0 922.07358237 0 4653
0.06750000 0.06749660 29801.36510464 0 774.49694819 0 10984.41879733 0 -1803.37023440 0 754.05246171 0 5220
0.06850000 0.06852730 28806.16282877 0 351.64912205 0 11094.63799861 0 190.09901309 0 -1178.29313166 0 5029
0.06950000 0.06949320 27523.05490554 0 284.91454824 0 12683.77611395 0 -510.58600118 0 1628.96817552 0 5040
0.07050000 0.07048030 27787.12403039 0 -16.49212743 0 11189.10532281 0 2007.11208664 0 463.86422017 0 5475
0.07150000 0.07148790 28115.89228775 0 -103.59341695 0 10913.24975157 0 216.31808939 0 -157.74065918 0 5509
0.07250000 0.07249820 27969.90731815 0 891.18057044 0 11079.03990554 0 -638.18059937 0 -1521.75874713 0 5916
0.07350000 0.07351270 27295.23487020 0 613.93874614 0 13218.72479866 0 -352.90795406 0 557.59667646 0 5721
0.07450000 0.07449140 26817.07642574 0 -330.49173680 0 12136.63455367 0 155.31416710 0 -868.74018711 0 6028
0.07550000 0.07549160 26482.48634491 0 121.08514048 0 11752.28435905 0 224.99040944 0 -1512.30103014 0 6183
0.07650000 0.07648840 26384.17442031 0 837.00795384 0 11796.55218656 0 963.93249310 0 -1908.32782541 0 6330
0.07750000 0.07749960 25866.58136027 0 -13.72478406 0 10401.23685441 0 552.64263423 0 -691.06911944 0 6583
0.07850000 0.07848650 26582.55580112 0 -502.34647329 0 10985.34150142 0 1948.61923764 0 -1867.01484793 0 6549
0.07950000 0.07947320 25581.86123896 0 279.84077417 0 8010.12607948 0 1263.25880057 0 -744.03782688 0 6828
0.08050000 0.08048110 25144.56540450 0 733.56184001 0 8858.43166622 0 221.64450863 0 971.17901563 0 7147
0.08150000 0.08149960 24413.32240776 0 427.79637609 0 8760.72389311 0 -1369.01826539 0 -1893.47668328 0 7386
0.08250000 0.08250610 23587.06285819 0 1104.18022045 0 10141.81420376 0 -621.43022464 0 -1395.63388475 0 7227
0.08350000 0.08350160 22876.58070363 0 214.87911038 0 9531.46741285 0 336.77271540 0 -137.51366723 0 7798
0.08450000 0.08449610 22941.06014468 0 17.00093283 0 10015.92001740 0 889.71632691 0 -858.77498287 0 7371
0.08550000 0.08548940 22198.06365528 0 205.87615469 0 8682.15124543 0 966.74234677 0 -143.23882646 0 8256
0.08650000 0.08650700 22002.31857188 0 62.25023189 0 8025.13100562 0 1770.55931610 0 779.40485522 0 8037
0.08750000 0.08749060 22415.00896376 0 199.71600639 0 8706.17450567 0 553.95638911 0 987.28459595 0 8155
0.08850000 0.08849210 21610.82840508 0 298.76170044 0 7114.08154030 0 -347.59142093 0 1154.64334689 0 8718
0.08950000 0.08949900 21037.21402489 0 503.07475045 0 7308.28878354 0 780.94269538 0 990.91280028 0 8571
0.09050000 0.09049190 20615.51628349 0 218.56882831 0 6907.51665291 0 -66.69404073 0 1072.64790640 0 8932
0.09150000 0.09150830 20137.46768475 0 301.19038944 0 6745.02187071 0 751.53150230 0 994.46191568 0 9285
0.09250000 0.09250820 19547.70598286 0 652.10574203 0 6637.97721091 0 -198.43630368 0 550.90157947 0 9204
0.09350000 0.09350330 19081.74041395 0 585.36457749 0 6631.54025137 0 608.79247389 0 870.83714202 0 9349
0.09450000 0.09448040 18257.89747035 0 -242.45478139 0 5680.17740468 0 751.48536709 0 696.31754822 0 9564
0.09550000 0.09549270 18327.75935197 0 100.66844496 0 5869.28780624 0 703.37074227 0 156.95526224 0 10155
0.09650000 0.09649430 17700.97964048 0 406.35888425 0 5132.79418380 0 -108.66071012 0 1554.32800483 0 9913
0.09750000 0.09749140 17795.00758178 0 93.03240948 0 4463.25153125 0 202.36878067 0 1039.61290282 0 10476
0.09850000 0.09850240 17892.98996920 0 -179.91411740 0 4931.69961356 0 554.52319305 0 530.68117826 0 10575
0.09950000 0.09950330 17767.32645887 0 740.02076869 0 4960.10571825 0 -882.97179935 0 295.53992530 0 10882
0.10050000 0.10051200 16696.87986082 0 441.63254372 0 5414.38370192 0 -1188.73946018 0 78.95117605 0 10875
0.10150000 0.10150300 16354.27104201 0 20.57696043 0 6467.61747474 0 332.48873209 0 413.96240539 0 11118
0.10250000 0.10250800 16323.07485588 0 287.74417414 0 6357.09070543 0 248.87855943 0 -583.58617519 0 11575
0.10350000 0.10349800 16715.77332566 0 -47.38964303 0 5457.77276362 0 626.53365707 0 -404.54642977 0 11364
0.10450000 0.10450100 16292.97712700 0 -37.49737635 0 5362.63538049 0 137.65426976 0 -815.92306677 0 12093
0.10550000 0.10551000 15774.39545544 0 353.92292857 0 5426.38983976 0 176.34742668 0 -547.45681751 0 12067
0.10650000 0.10649700 15640.49351567 0 226.78858397 0 5074.27936566 0 -524.85605942 0 -880.75621106 0 12054
0.10750000 0.10749900 15236.04155323 0 581.69792716 0 5461.77114804 0 278.71046165 0 -1075.86528771 0 12807
0.10850000 0.10850100 14751.73174811 0 84.03846115 0 4917.32080805 0 498.81053938 0 -962.31776093 0 12736
0.10950000 0.10950300 14600.47418367 0 -255.30673131 0 4853.64324079 0 679.55838583 0 -699.08895588 0 12933
0.11050000 0.11050200 14743.27362723 0 346.35016423 0 4807.91446514 0 0.73198116 0 -624.67067356 0 13428
0.11150000 0.11150900 14075.08207710 0 364.82951069 0 4711.92028535 0 -549.97228463 0 -601.07471319 0 13453
0.11250000 0.11250000 14005.65957839 0 156.67186027 0 5176.28210665 0 -299.21975712 0 117.73045201 0 13668
0.11350000 0.11349100 13845.72420161 0 199.45347510 0 5235.45599915 0 380.84282060 0 -276.32351403 0 13791
0.11450000 0.11448600 14146.81133606 0 15.54503758 0 5812.28885911 0 207.09104842 0 235.18519125 0 14205
0.11550000 0.11549300 14001.59528653 0 -116.97581188 0 5220.20941240 0 324.66112567 0 5.71324097 0 14776
0.11650000 0.11649800 13981.82305589 0 -209.38462717 0 5127.88407986 0 475.07946877 0 374.26855391 0 14553
0.11750000 0.11747300 14200.08651308 0 80.57952908 0 5311.27151910 0 -312.14640213 0 239.51530976 0 14568
0.11850000 0.11849100 13999.17868057 0 189.86174632 0 5111.94546504 0 0.42473278 0 507.95080222 0 16015
0.11950000 0.11950300 13944.69520056 0 146.03769555 0 5144.40487702 0 143.53870529 0 319.85537517 0 15270
0.12050000 0.12050700 13535.19033473 0 173.59908662 0 4721.31209490 0 -33.89817129 0 479.61609725 0 15999
0.12150000 0.12150000 13757.73777523 0 238.87600764 0 5379.59556056 0 435.15713818 0 311.78830506 0 15670
0.12250000 0.12250700 13590.55258054 0 -85.66769295 0 4546.55852971 0 113.18064205 0 -181.36737635 0 16887
0.12350000 0.12352200 13343.39969746 0 65.69092956 0 4429.43003227 0 710.50961599 0 -206.10243689 0 16407
0.12450000 0.12449800 13162.70347850 0 126.87071486 0 4149.65296863 0 -425.31276423 0 -226.34041341 0 16306
0.12550000 0.12549900 12884.79379219 0 291.58108534 0 4073.84843324 0 287.21142237 0 -170.51571709 0 17523
0.12650000 0.12650100 12889.29746695 0 -122.97778233 0 3961.28951800 0 228.45494363 0 -310.60197122 0 17154
0.12750000 0.12750600 13098.55357462 0 97.55497771 0 3895.90934200 0 487.81717914 0 -459.13975550 0 18007
0.12850000 0.12850300 12893.58145025 0 -48.70812128 0 3287.11137582 0 -165.90988581 0 108.19496425 0 17496
0.12950000 0.12949900 12828.66262630 0 -71.93642800 0 3581.38807528 0 377.11905049 0 -85.10583206 0 18405
0.13050000 0.13049000 12929.28131114 0 -16.20543008 0 2944.38172671 0 105.36467927 0 -61.84248456 0 18100
0.13150000 0.13148800 12954.76551953 0 256.97199251 0 3100.45053395 0 102.25901107 0 1.15510470 0 19059
0.13250000 0.13249300 12687.62071435 0 233.07505486 0 3569.12929228 0 -515.01937468 0 -237.36233354 0 18957
0.13350000 0.13349100 12219.78776812 0 244.55613012 0 3509.73570833 0 213.44013137 0 574.83916004 0 19468
0.13450000 0.13450700 12210.89026432 0 -52.99331289 0 3490.07332341 0 59.37743663 0 -287.73978031 0 19953
0.13550000 0.13551000 12113.89648843 0 146.08602767 0 3213.55867782 0 72.42117718 0 -424.63611456 0 19956
0.13650000 0.13649900 11873.22450317 0 174.96776436 0 3388.04861327 0 14.78128025 0 -110.83323889 0 19723
0.13750000 0.13749600 11506.22993323 0 372.31220153 0 3218.93013381 0 -156.65977724 0 -141.30773860 0 20946
0.13850000 0.13851100 11523.80524936 0 56.80924356 0 3671.91193792 0 42.92836872 0 -659.18969289 0 20955
0.13950000 0.13949800 11105.07334256 0 143.93744528 0 3376.55875035 0 88.40581736 0 -689.13144083 0 20506
0.14050000 0.14048300 11009.94694401 0 250.20549580 0 3204.25474484 0 118.31373282 0 -532.07292361 0 21447
0.14150000 0.14148400 10761.62969623 0 -159.34330832 0 2913.03175656 0 416.80740968 0 -309.80229434 0 21771
0.14250000 0.14249400 10935.89994024 0 62.43356441 0 3039.89258531 0 307.46807267 0 -423.08179754 0 22470
0.14350000 0.14350900 10707.58559913 0 317.13229962 0 2645.59036793 0 149.71642891 0 -143.35196756 0 22519
0.14450000 0.14449900 10558.01965886 0 148.66630377 0 2932.30968144 0 -43.26537541 0 -162.28827223 0 22218
0.14550000 0.14550500 10341.37093384 0 5.62383753 0 2641.91053611 0 -99.38324997 0 194.33576274 0 23559
0.14650000 0.14650700 10209.74280060 0 -6.85708648 0 3046.90074261 0 -144.52072608 0 46.57392867 0 23044
0.14750000 0.14750500 9998.91589905 0 267.23927250 0 3133.10766823 0 -138.21228605 0 323.47259492 0 23649
0.14850000 0.14849900 9837.84911129 0 234.61399348 0 3116.58687107 0 19.56473207 0 -45.67593986 0 23640
0.14950000 0.14949500 9984.49315525 0 156.08198872 0 3477.15546605 0 211.71006119 0 21.83842875 0 24457
0.15050000 0.15050000 9687.66803495 0 50.98445425 0 3480.20917723 0 -3.75203341 0 275.51834486 0 24591
0.15150000 0.15149900 9818.35149495 0 43.10522034 0 3442.71883101 0 91.86760541 0 380.30677345 0 25020
0.15250000 0.15250500 9472.02989061 0 -92.05357422 0 3305.84007207 0 222.71440600 0 678.47420852 0 25297
0.15350000 0.15350100 9668.26927978 0 53.40171930 0 2973.11736858 0 357.21830035 0 667.70383510 0 25452
0.15450000 0.15450400 9690.43614724 0 -26.64341033 0 2732.53325991 0 494.98461275 0 1299.29918321 0 26061
0.15550000 0.15549900 9640.23665055 0 11.33794628 0 2641.00980116 0 349.56315171 0 1027.61335573 0 26128
0.15650000 0.15649500 9534.60900061 0 105.15037026 0 2452.88801113 0 131.86649847 0 1590.55512521 0 26331
0.15750000 0.15749700 9293.59649360 0 203.12451926 0 2470.29855867 0 -119.91528350 0 1382.52928966 0 27345
0.15850000 0.15849900 9366.91851558 0 188.44144109 0 2496.01344309 0 -238.36083119 0 1642.00686318 0 26980
0.15950000 0.15949700 8934.17029416 0 133.05283231 0 2983.82732685 0 -196.45029296 0 1233.10614884 0 27777
0.16050000 0.16050000 9006.82225722 0 152.13523179 0 2865.73218703 0 -133.67895294 0 694.69952068 0 28224
0.16150000 0.16150500 8767.38054409 0 154.61664674 0 3072.84630305 0 82.76919378 0 619.15971349 0 28075
0.16250000 0.16249700 8475.13599056 0 84.77409797 0 2987.30943636 0 91.03321727 0 924.26061077 0 28590
0.16350000 0.16349900 8545.74482312 0 -34.54395432 0 2912.72418853 0 104.01928882 0 603.20022799 0 29163
0.16450000 0.16449100 8560.33233550 0 -17.55532421 0 2605.03532596 0 257.01593080 0 551.27066111 0 28996
0.16550000 0.16550500 8632.56688480 0 -9.98849154 0 2440.92581159 0 173.65620640 0 233.61879120 0 30777
0.16650000 0.16650700 8451.39832921 0 155.35590848 0 2383.23483639 0 -362.14048732 0 321.85896121 0 29211
0.16750000 0.16749900 8330.71083026 0 196.59199395 0 2728.47995263 0 -370.69197707 0 -226.34151187 0 30922
0.16850000 0.16850800 8184.83570638 0 240.22711007 0 2923.88451427 0 10.09989707 0 134.52256812 0 30867
0.16950000 0.16949900 8137.77779744 0 -125.13295547 0 2752.72290431 0 520.28208340 0 -73.25743269 0 30852
0.17050000 0.17049200 8244.52587379 0 -277.21875669 0 2510.15058800 0 306.62665441 0 74.85041541 0 31257
0.17150000 0.17149500 8229.72965452 0 157.10355397 0 2303.24517886 0 -44.49070448 0 -110.34332695 0 32608
0.17250000 0.17250900 8102.46239660 0 237.35354588 0 2362.71565481 0 -215.35584083 0 440.18367859 0 32361
0.17350000 0.17350400 8000.10814928 0 90.17850768 0 2366.03299573 0 328.91325372 0 492.04184575 0 32508
0.17450000 0.17449800 8006.60003168 0 0.67626411 0 2313.84529140 0 150.80390160 0 317.97371788 0 32791
0.17550000 0.17549800 7877.90477932 0 50.69863567 0 2201.80265107 0 117.89522060 0 252.86815619 0 33633
0.17650000 0.17650100 7731.76602569 0 122.74600785 0 2134.86266576 0 -78.92118816 0 573.03549322 0 33984
0.17750000 0.17750300 7591.39417268 0 198.47365123 0 2065.01176871 0 20.22292766 0 268.88805685 0 34069
0.17850000 0.17849800 7527.42002196 0 5.20240342 0 2006.74959574 0 291.38226458 0 545.14566344 0 34536
