### header ###
fiducial parameters:
Omega_m = 0.31
Omega_nu = 0
Omega_de = 0.69
Omega_k = 0
H_0 = 100
w_de = -1
zeff = 0
beta = 0
fgrowth = 0
b_1 = 2
gamma = 0.55
Lx = 3500 Ly = 3500 Lz = 3500
nx = 700 ny = 700 nz = 700
xoffset = -983.599254 yoffset = -42.9823471 zoffset = 800.977702
bins = 400 dk = 0.001
kx_ny = 0.628318531 ky_ny = 0.628318531 kz_ny = 0.628318531
############################
A(data) = 9.10758532 (not used)
A(ran) = 9.11325078 (used)
Ngal = 505587
weighted Ngal = 0
Nran = 25229228
weighted Nran = 0
SN(data) = 6715.71554
SN(ran) = 135.279929
SN(data+ran) = 6850.99547
############################
13 columns: k_central k_mean P_0(k) sigma^{lin}_{P_0(k)} P^img_1(k) sigma^{lin}_{P_1(k)} P_2(k) sigma^{lin}_{P_2(k)} P^img_3(k) sigma^{lin}_{P_3(k)} P_4(k) sigma^{lin}_{P_4(k)} N_modes
### header ###
0.00050000 0 0 0 0 0 0 0 0 0 0 0 0
0.00150000 0.00179520 -1643.94014795 0 1163.88137243 0 -7818.06082789 0 23242.36697059 0 11559.94449315 0 3
0.00250000 0.00253879 910.05426305 0 -9046.13604249 0 -7510.99808595 0 -3539.41602344 0 -18875.77967805 0 6
0.00350000 0.00331552 18177.27070761 0 -29517.52374913 0 -29933.50951279 0 10682.36502049 0 -35428.98132951 0 7
0.00450000 0.00420575 44173.25033289 0 -24975.73252393 0 -33812.27193699 0 -13582.09445965 0 -18868.74955160 0 24
0.00550000 0.00557378 58867.64261213 0 11765.35600043 0 -14436.47451503 0 -56425.00320721 0 13859.01553443 0 45
0.00650000 0.00659388 40908.63536171 0 2561.16294307 0 -3630.68683702 0 -19113.70552017 0 6318.30417964 0 40
0.00750000 0.00754703 61777.67558038 0 -23796.31896587 0 -3372.19787504 0 27762.51858781 0 -38978.97549635 0 57
0.00850000 0.00846663 67730.76469084 0 -9245.26437424 0 6614.92059306 0 -10362.59312807 0 -45715.15478613 0 75
0.00950000 0.00948925 92649.92666597 0 -1118.73477912 0 -8293.07768460 0 -11261.82319330 0 -10474.74561413 0 112
0.01050000 0.01054430 92374.21389418 0 1905.69152799 0 1006.66138199 0 -29685.14832673 0 -27091.69074027 0 105
0.01150000 0.01145670 84116.78114760 0 1676.37759078 0 16245.85331063 0 -5023.22307230 0 -30197.79832910 0 144
0.01250000 0.01249090 93103.15013067 0 -2280.34234502 0 16882.73882890 0 1728.15886593 0 -2615.20704017 0 169
0.01350000 0.01339930 90559.56250374 0 -3415.34527614 0 12043.48537818 0 3686.30172800 0 -8381.67924704 0 180
0.01450000 0.01448870 86908.29057770 0 6669.88739425 0 23054.64062517 0 -6720.81187274 0 -13708.85642724 0 267
0.01550000 0.01550050 86298.42710798 0 7899.48946444 0 22825.61228685 0 -2159.43515462 0 -4694.91616699 0 238
0.01650000 0.01653350 76214.58947831 0 1919.67488889 0 31074.03768391 0 4843.18592769 0 10231.61308461 0 315
0.01750000 0.01747870 91372.20118331 0 34.04767133 0 34692.57558366 0 8678.16384558 0 515.34122265 0 297
0.01850000 0.01844180 79409.56225932 0 -2277.81589333 0 33101.13070807 0 4937.56537531 0 4631.98555067 0 388
0.01950000 0.01947590 76014.99979451 0 7280.97015153 0 36288.96351690 0 -9460.92448773 0 8361.05021973 0 399
0.02050000 0.02045430 73878.72011889 0 4675.86891814 0 36414.07779860 0 3769.52084988 0 6476.17445678 0 462
0.02150000 0.02154770 72413.59782799 0 4012.26891935 0 54487.43444959 0 8275.45843018 0 14140.22059251 0 571
0.02250000 0.02255340 66034.52699283 0 -2503.60378274 0 41822.99118338 0 5245.64968250 0 15917.08505327 0 510
0.02350000 0.02348930 65208.81667189 0 1173.40499686 0 38395.58484655 0 13526.40267667 0 5395.09479247 0 555
0.02450000 0.02439640 64599.06304790 0 3833.26432457 0 35696.01628896 0 1770.52636238 0 26870.46144848 0 592
0.02550000 0.02547300 59699.94367662 0 -498.73145045 0 27789.65048209 0 10493.08985034 0 12100.60515561 0 837
0.02650000 0.02652900 63485.33723387 0 2554.27561606 0 27487.57473610 0 7268.49167707 0 17910.12590243 0 723
0.02750000 0.02749970 60447.00445787 0 -1042.30961538 0 15831.62507859 0 1530.35966746 0 10995.22761675 0 826
0.02850000 0.02848090 57618.25732673 0 2320.68868012 0 20020.48198676 0 745.89971194 0 12319.96707006 0 831
0.02950000 0.02946900 52388.61216647 0 3005.88434859 0 18639.72121328 0 -622.58799859 0 7918.20717612 0 996
0.03050000 0.03053250 54471.28712790 0 1992.06322220 0 18726.38949095 0 478.66703018 0 7446.34289174 0 1041
0.03150000 0.03150510 53822.75796269 0 -3660.09253782 0 16889.00003527 0 -985.98512102 0 -4849.73273295 0 1036
0.03250000 0.03246190 50810.01924081 0 1941.76486435 0 14068.93071646 0 1742.07631939 0 -6591.84200606 0 1059
0.03350000 0.03345080 53315.49040089 0 277.88112642 0 17736.13027274 0 -1547.88006073 0 4586.12496015 0 1302
0.03450000 0.03451200 53522.00036542 0 398.25446659 0 15549.43140897 0 148.08192451 0 -8018.27663233 0 1339
0.03550000 0.03553350 53023.52046168 0 1642.62199924 0 18180.23654220 0 -216.34774773 0 -7320.30590594 0 1365
0.03650000 0.03647120 50187.41366690 0 -230.45413584 0 17835.98003750 0 778.35473008 0 -1317.39077425 0 1308
0.03750000 0.03744890 50649.97401830 0 1262.80843310 0 20185.47026693 0 2329.63012220 0 -3002.30337793 0 1579
0.03850000 0.03847530 48459.76009131 0 1450.32607163 0 22720.27023580 0 -2867.54464150 0 2179.24033899 0 1662
0.03950000 0.03950240 47496.63276737 0 1177.98556362 0 19092.50529508 0 3386.53274226 0 5361.26230892 0 1683
0.04050000 0.04050350 48872.78002036 0 -798.32578149 0 21545.14066105 0 5211.80621438 0 3245.79839834 0 1822
0.04150000 0.04152450 48368.36844743 0 692.80248499 0 18117.07524986 0 2274.12507694 0 3423.44090613 0 1887
0.04250000 0.04250150 46785.27184701 0 1062.35536189 0 19578.90216899 0 1400.85155673 0 11075.85437949 0 1920
0.04350000 0.04349210 44977.65058302 0 -554.12335461 0 18749.34724764 0 447.75863985 0 8507.92493972 0 2005
0.04450000 0.04448520 44851.87722696 0 1880.96525511 0 19058.23342863 0 3435.16144507 0 5819.22012441 0 2151
0.04550000 0.04548030 42287.08937495 0 2752.74487346 0 16532.33096355 0 -1417.93256709 0 6918.12775002 0 2274
0.04650000 0.04648670 40717.94318170 0 2180.98688603 0 20221.27997354 0 -111.56151605 0 8560.88156413 0 2311
0.04750000 0.04749250 36269.30113198 0 953.96728886 0 19160.93918227 0 2374.18354859 0 9642.15895075 0 2568
0.04850000 0.04851840 37042.72488743 0 -1264.36824240 0 16946.99857850 0 1590.13771145 0 3500.04731531 0 2493
0.04950000 0.04949480 37490.78560303 0 526.29503843 0 15234.72340452 0 1976.23445311 0 4349.75892734 0 2644
0.05050000 0.05050630 36249.74859279 0 1292.95010026 0 14134.50861477 0 -811.80714742 0 3465.95120202 0 2829
0.05150000 0.05149060 34418.40065203 0 962.77362070 0 12812.18576743 0 -1175.97538684 0 4599.70189186 0 2784
0.05250000 0.05249300 35144.15136248 0 -972.38402325 0 15167.16828314 0 2223.24453675 0 -36.30170562 0 3055
0.05350000 0.05348950 35288.48864619 0 338.56539764 0 13856.70877419 0 566.90390481 0 1456.02706480 0 3009
0.05450000 0.05448610 34933.02787746 0 268.03894939 0 13201.47901971 0 1574.13318920 0 2079.35762050 0 3336
0.05550000 0.05550870 35564.97033807 0 -379.59497315 0 14033.45054702 0 279.98577053 0 -354.34363770 0 3349
0.05650000 0.05647670 35316.82884345 0 577.38977779 0 13702.59522087 0 -161.32382676 0 34.37193591 0 3324
0.05750000 0.05747970 34916.11163569 0 1450.35902535 0 13849.89833919 0 -1020.80621610 0 3759.37110481 0 3639
0.05850000 0.05849280 33332.13626946 0 28.29724758 0 14969.11643950 0 242.82605994 0 1734.25530372 0 3846
0.05950000 0.05951020 32984.80408443 0 629.64778339 0 17910.89482251 0 -408.20648935 0 1431.45457594 0 3787
0.06050000 0.06049470 32028.15765833 0 1492.27615432 0 17329.48139578 0 -1449.16170694 0 1514.17939205 0 3930
0.06150000 0.06148310 30790.85540276 0 444.09308798 0 17934.40180783 0 1411.10016294 0 1970.41262964 0 4083
0.06250000 0.06249100 32347.58902899 0 -581.91871707 0 15741.22204624 0 2993.71344217 0 369.17061377 0 4303
0.06350000 0.06350600 32622.86241788 0 -1150.96351507 0 15672.67831333 0 1944.52199207 0 2785.35806945 0 4470
0.06450000 0.06451750 32401.30358891 0 -492.11104856 0 11914.96587898 0 1537.54357793 0 901.88943025 0 4479
0.06550000 0.06550280 34000.43766531 0 158.69412008 0 12696.07883524 0 -1322.42170850 0 824.95897618 0 4636
0.06650000 0.06648880 31251.87791400 0 1594.65237078 0 12100.93469279 0 -1401.04927903 0 721.30415547 0 4653
0.06750000 0.06749660 30423.31160419 0 1722.61165678 0 14338.27243615 0 382.84201281 0 514.93259655 0 5220
0.06850000 0.06852730 30405.29690516 0 15.47045233 0 13498.72155376 0 809.37406460 0 -668.10367354 0 5029
0.06950000 0.06949320 29640.66080777 0 -4.56820912 0 12866.66924743 0 3638.55179099 0 1074.48013310 0 5040
0.07050000 0.07048030 28854.82448530 0 -202.91141855 0 12183.31898715 0 -139.81823056 0 945.24553823 0 5475
0.07150000 0.07148790 28687.41959916 0 676.00158123 0 11109.13763442 0 2134.74183546 0 3625.30439646 0 5509
0.07250000 0.07249820 29031.56625814 0 9.37019192 0 10858.64544127 0 -358.84950937 0 2386.31051672 0 5916
0.07350000 0.07351270 28169.49700195 0 84.73037937 0 9434.22099179 0 1074.28790308 0 1153.56685877 0 5721
0.07450000 0.07449140 27580.39437441 0 602.38517270 0 10294.59862379 0 -431.33890075 0 1551.04361763 0 6028
0.07550000 0.07549160 26684.82217186 0 900.08466497 0 10345.64393258 0 -822.93451945 0 1089.80031648 0 6183
0.07650000 0.07648840 26429.43085934 0 415.79023826 0 10276.56195561 0 -261.33836011 0 500.22535232 0 6330
0.07750000 0.07749960 25601.30393243 0 238.77604803 0 9687.26160577 0 1151.32600597 0 -1119.71240608 0 6583
0.07850000 0.07848650 25847.35835826 0 294.48320942 0 9059.43835988 0 540.34101139 0 -1885.44696072 0 6549
0.07950000 0.07947320 25088.98346724 0 148.29172985 0 9213.36517546 0 -723.26709859 0 -1788.01380193 0 6828
0.08050000 0.08048110 24168.69597637 0 269.31315981 0 9676.98004583 0 351.42723368 0 -1857.12873261 0 7147
0.08150000 0.08149960 24255.80363694 0 348.64703836 0 8375.23130294 0 506.37890988 0 -3136.18334855 0 7386
0.08250000 0.08250610 23661.53826029 0 64.36157659 0 8596.03219639 0 596.58971221 0 -1786.78352980 0 7227
0.08350000 0.08350160 23331.45185422 0 258.97228318 0 7394.88016920 0 859.73942834 0 -1032.76292335 0 7798
0.08450000 0.08449610 23485.34571609 0 -74.23275289 0 6554.13196839 0 1244.84865693 0 -2251.16732025 0 7371
0.08550000 0.08548940 22655.90064047 0 308.82466738 0 6376.28075373 0 683.72153884 0 -1201.75617869 0 8256
0.08650000 0.08650700 22498.71140683 0 963.13391468 0 6585.35012367 0 -380.14969407 0 -758.89775667 0 8037
0.08750000 0.08749060 21426.83681435 0 584.99329893 0 6255.53833191 0 35.92504463 0 1405.02569431 0 8155
0.08850000 0.08849210 20658.79549946 0 231.65914345 0 6811.01718278 0 941.76233026 0 -637.46770061 0 8718
0.08950000 0.08949900 20199.96990274 0 657.18061457 0 6864.58894326 0 -244.19144231 0 688.75027617 0 8571
0.09050000 0.09049190 19327.35545687 0 815.77916887 0 7368.22061154 0 -452.19091488 0 1111.61677609 0 8932
0.09150000 0.09150830 18662.12974135 0 -64.94628539 0 7421.26511254 0 561.47313212 0 2006.98027176 0 9285
0.09250000 0.09250820 18913.01737911 0 199.24696514 0 7222.52124082 0 296.71527457 0 614.47808866 0 9204
0.09350000 0.09350330 18998.25766234 0 -55.81766619 0 7119.93631748 0 -84.09634984 0 872.43100350 0 9349
0.09450000 0.09448040 18882.04088443 0 26.34814502 0 6966.54774596 0 703.39490833 0 1356.62766751 0 9564
0.09550000 0.09549270 19180.16218428 0 -204.50418158 0 6508.01873270 0 450.06869546 0 1555.62418440 0 10155
0.09650000 0.09649430 18532.51178489 0 -216.43891969 0 5903.60361098 0 515.83442996 0 1311.42615134 0 9913
0.09750000 0.09749140 18528.11795585 0 867.88229199 0 6626.43242512 0 -162.83750086 0 959.97255469 0 10476
0.09850000 0.09850240 17413.62322175 0 977.11837403 0 6648.56633887 0 -624.20382922 0 1710.45173493 0 10575
0.09950000 0.09950330 17425.92594304 0 246.67725109 0 7335.60741555 0 303.54767871 0 1569.48671499 0 10882
0.10050000 0.10051200 16473.01427161 0 28.68379469 0 7220.97241609 0 -28.89228188 0 1471.22971325 0 10875
0.10150000 0.10150300 16827.59627454 0 -83.48879313 0 7022.76678843 0 571.74151057 0 1243.60740022 0 11118
0.10250000 0.10250800 16256.17880886 0 190.48347313 0 6379.45529520 0 117.60632634 0 1166.06730237 0 11575
0.10350000 0.10349800 16597.46947896 0 288.53945719 0 6291.40296139 0 330.12155670 0 305.34805016 0 11364
0.10450000 0.10450100 16143.58693990 0 88.30673651 0 6468.90266973 0 69.74116116 0 523.39840664 0 12093
0.10550000 0.10551000 15865.89694504 0 181.85179600 0 6036.68170780 0 -275.79845146 0 87.31570837 0 12067
0.10650000 0.10649700 15797.46305786 0 -9.62846119 0 6076.97312003 0 138.31004874 0 -788.66814528 0 12054
0.10750000 0.10749900 15546.24588292 0 274.68571426 0 5737.34112039 0 171.63943887 0 -1039.84577575 0 12807
0.10850000 0.10850100 15423.65805292 0 -137.74654017 0 4827.41208147 0 730.49275043 0 84.35492668 0 12736
0.10950000 0.10950300 15327.32335138 0 -30.50679436 0 5224.52634943 0 422.45677536 0 -534.97944151 0 12933
0.11050000 0.11050200 14887.72075667 0 550.42265211 0 4525.76473381 0 -140.12689705 0 -83.64861866 0 13428
0.11150000 0.11150900 14700.10425698 0 311.14680602 0 4994.09198582 0 572.90257989 0 311.14131374 0 13453
0.11250000 0.11250000 14884.75492207 0 -234.57005519 0 4163.15300833 0 509.56882976 0 353.25726347 0 13668
0.11350000 0.11349100 14508.75300262 0 -36.16747414 0 4299.12004774 0 990.07577585 0 543.05529928 0 13791
0.11450000 0.11448600 14856.19503336 0 32.32693803 0 4063.99527164 0 -719.74214925 0 1046.18936642 0 14205
0.11550000 0.11549300 14504.13948213 0 406.26331846 0 4303.63470707 0 -479.23163721 0 518.80905222 0 14776
0.11650000 0.11649800 14070.68824807 0 173.05644873 0 4823.56748106 0 92.41749311 0 681.10501365 0 14553
0.11750000 0.11747300 14128.68679130 0 141.98219136 0 4767.38139231 0 -150.60178546 0 639.06266055 0 14568
0.11850000 0.11849100 13952.27455564 0 90.29615245 0 4968.26725568 0 603.89994526 0 318.44166068 0 16015
0.11950000 0.11950300 13688.31527652 0 88.13460826 0 4477.34473787 0 110.04125121 0 696.01876784 0 15270
0.12050000 0.12050700 13626.80167006 0 91.31068758 0 4508.34320170 0 174.96556745 0 936.91813375 0 15999
0.12150000 0.12150000 13516.29686989 0 270.80925859 0 4799.17074536 0 258.95031403 0 1245.63954615 0 15670
0.12250000 0.12250700 13373.16788916 0 -103.16754507 0 3729.17451479 0 544.19110408 0 1051.10056882 0 16887
0.12350000 0.12352200 13529.25866554 0 140.24333352 0 4221.83259506 0 -14.81588165 0 977.66760266 0 16407
0.12450000 0.12449800 13277.71195342 0 364.41319539 0 4137.63584622 0 -540.55081673 0 201.95356382 0 16306
0.12550000 0.12549900 12859.52927525 0 94.85661745 0 4781.09013889 0 -580.72908786 0 872.55952300 0 17523
0.12650000 0.12650100 12652.03069919 0 210.99935934 0 4660.16097934 0 228.23195681 0 56.32284668 0 17154
0.12750000 0.12750600 12488.47041345 0 116.73415128 0 4688.38034631 0 -129.95737975 0 -265.24117875 0 18007
0.12850000 0.12850300 12360.06075998 0 130.32316602 0 4865.95694666 0 185.30534562 0 -132.08948529 0 17496
0.12950000 0.12949900 12165.41413384 0 11.49491582 0 4759.28576232 0 255.15294729 0 403.96644434 0 18405
0.13050000 0.13049000 12178.26608376 0 111.32095391 0 4172.66564818 0 603.51218985 0 840.06496039 0 18100
0.13150000 0.13148800 12595.13061322 0 -183.59065384 0 3773.72794118 0 987.34501110 0 539.12941304 0 19059
0.13250000 0.13249300 12269.32819046 0 -68.00702669 0 3719.43119891 0 -159.55970440 0 467.08050302 0 18957
0.13350000 0.13349100 12267.57065884 0 412.40698991 0 3838.25132052 0 -368.54229622 0 228.70649034 0 19468
0.13450000 0.13450700 11902.22377479 0 115.95864045 0 3534.15441318 0 -206.15516283 0 613.96291220 0 19953
0.13550000 0.13551000 11947.91959673 0 -73.21525193 0 3833.91241435 0 302.94462568 0 -429.53852931 0 19956
0.13650000 0.13649900 12009.21351173 0 39.76041799 0 3624.49153809 0 -116.25083009 0 -937.62993406 0 19723
0.13750000 0.13749600 11434.06129137 0 342.31992455 0 3814.32692144 0 -549.37801925 0 18.70595819 0 20946
0.13850000 0.13851100 11375.18398234 0 309.82755886 0 3916.51640016 0 36.10881653 0 -523.52802460 0 20955
0.13950000 0.13949800 11135.93999151 0 -26.78302425 0 4214.79148403 0 586.64867402 0 -390.73992049 0 20506
0.14050000 0.14048300 10994.89807957 0 128.05265487 0 3919.24057416 0 294.04712189 0 -400.10976090 0 21447
0.14150000 0.14148400 11045.86649635 0 235.85964401 0 3821.70855421 0 125.75907611 0 211.25859526 0 21771
0.14250000 0.14249400 10749.94211101 0 116.30904832 0 3784.48183773 0 -31.55494227 0 663.56484815 0 22470
0.14350000 0.14350900 10546.20025877 0 -72.23092439 0 3908.91507593 0 255.20127941 0 719.45325499 0 22519
0.14450000 0.14449900 10512.86208098 0 115.24684015 0 3551.52102243 0 -82.39341156 0 447.60924966 0 22218
0.14550000 0.14550500 10499.93323905 0 186.23464046 0 3542.85419466 0 191.74230515 0 614.00025975 0 23559
0.14650000 0.14650700 10394.43740398 0 -31.93610694 0 3445.32217471 0 380.83622985 0 424.58119170 0 23044
0.14750000 0.14750500 10413.50662198 0 10.90884494 0 3071.37437032 0 330.26984843 0 268.10815219 0 23649
0.14850000 0.14849900 10298.77276137 0 78.80453200 0 2728.10647716 0 112.50399238 0 455.74222720 0 23640
0.14950000 0.14949500 10084.30996629 0 14.01279955 0 2706.91723665 0 150.16020564 0 394.49225049 0 24457
0.15050000 0.15050000 10096.55776472 0 221.84113248 0 2477.09800910 0 -123.97298461 0 -231.36036308 0 24591
0.15150000 0.15149900 9867.46351897 0 206.40231572 0 2474.65943399 0 -93.73926673 0 115.62800482 0 25020
0.15250000 0.15250500 9467.84476846 0 93.34338273 0 2588.17400704 0 118.56747644 0 134.07659447 0 25297
0.15350000 0.15350100 9460.11162936 0 95.98956627 0 2436.65281286 0 237.87201771 0 -85.72755887 0 25452
0.15450000 0.15450400 9466.18609800 0 99.96653077 0 2590.20615297 0 -78.04099436 0 -272.45804294 0 26061
0.15550000 0.15549900 9153.83977665 0 70.48690380 0 2123.68037087 0 179.80646858 0 224.25444308 0 26128
0.15650000 0.15649500 9215.48519797 0 -37.43476428 0 2367.40606730 0 371.37631595 0 420.30819297 0 26331
0.15750000 0.15749700 9067.56694359 0 41.14370521 0 1983.27556413 0 -106.61944700 0 140.66843648 0 27345
0.15850000 0.15849900 8987.79697751 0 367.85466198 0 2289.89892317 0 -347.91217045 0 239.84704386 0 26980
0.15950000 0.15949700 8814.63617533 0 70.42571973 0 2496.91417804 0 71.44201238 0 394.03639072 0 27777
0.16050000 0.16050000 8897.64659033 0 -112.60065662 0 2295.98437638 0 289.83124293 0 -32.58101120 0 28224
0.16150000 0.16150500 8764.76621582 0 62.78155567 0 2177.60363767 0 101.90036477 0 239.07372995 0 28075
0.16250000 0.16249700 8565.85757551 0 187.84168343 0 2333.00238598 0 -102.20474728 0 488.03247676 0 28590
0.16350000 0.16349900 8600.30519513 0 114.32413605 0 2379.19251368 0 -261.20874216 0 -6.27112544 0 29163
0.16450000 0.16449100 8411.86485249 0 160.93057906 0 2732.21470730 0 -41.01760232 0 268.06750928 0 28996
0.16550000 0.16550500 8354.55833734 0 114.60973494 0 2864.13942400 0 168.05627129 0 574.61287785 0 30777
0.16650000 0.16650700 8274.95313984 0 -136.25373676 0 2397.50379618 0 599.18866208 0 1018.45551757 0 29211
0.16750000 0.16749900 8646.31956967 0 -121.77716855 0 2440.17886066 0 374.00272725 0 866.06983752 0 30922
0.16850000 0.16850800 8335.67585707 0 100.02145363 0 2284.58239004 0 -148.18957332 0 1026.21941347 0 30867
0.16950000 0.16949900 8313.72868105 0 230.31353331 0 2453.07474887 0 -334.30997423 0 1216.20089163 0 30852
0.17050000 0.17049200 8131.54954479 0 100.41096658 0 2824.95745361 0 -170.96828149 0 1176.98596752 0 31257
0.17150000 0.17149500 8085.82076913 0 169.03279980 0 2768.38690481 0 82.16471275 0 910.54417499 0 32608
0.17250000 0.17250900 8161.66924281 0 -43.57382221 0 2760.26930568 0 133.46145841 0 853.90332493 0 32361
0.17350000 0.17350400 7952.35821227 0 11.77293536 0 2678.34636336 0 0.70320597 0 819.50843126 0 32508
0.17450000 0.17449800 7921.05218041 0 81.98544453 0 2391.25357438 0 -14.92792429 0 645.80608966 0 32791
0.17550000 0.17549800 7792.34594348 0 103.93877191 0 2541.56646558 0 213.19847077 0 740.00868566 0 33633
0.17650000 0.17650100 7694.28666405 0 54.45404135 0 2369.21852178 0 131.24257474 0 681.17311800 0 33984
0.17750000 0.17750300 7784.98627985 0 -39.63255756 0 2034.20004262 0 303.44552219 0 621.68946056 0 34069
0.17850000 0.17849800 7799.26622421 0 88.52785596 0 2022.39162710 0 -14.02433335 0 301.01134090 0 34536
