### header ###
fiducial parameters:
Omega_m = 0.31
Omega_nu = 0
Omega_de = 0.69
Omega_k = 0
H_0 = 100
w_de = -1
zeff = 0
beta = 0
fgrowth = 0
b_1 = 2
gamma = 0.55
Lx = 3500 Ly = 3500 Lz = 3500
nx = 700 ny = 700 nz = 700
xoffset = -983.599254 yoffset = -42.9823471 zoffset = 800.977702
bins = 400 dk = 0.001
kx_ny = 0.628318531 ky_ny = 0.628318531 kz_ny = 0.628318531
############################
A(data) = 8.99765711 (not used)
A(ran) = 8.97553463 (used)
Ngal = 498644
weighted Ngal = 0
Nran = 25229228
weighted Nran = 0
SN(data) = 6785.58837
SN(ran) = 133.235628
SN(data+ran) = 6918.824
############################
13 columns: k_central k_mean P_0(k) sigma^{lin}_{P_0(k)} P^img_1(k) sigma^{lin}_{P_1(k)} P_2(k) sigma^{lin}_{P_2(k)} P^img_3(k) sigma^{lin}_{P_3(k)} P_4(k) sigma^{lin}_{P_4(k)} N_modes
### header ###
0.00050000 0 0 0 0 0 0 0 0 0 0 0 0
0.00150000 0.00179520 43381.48234122 0 21529.87210516 0 26026.07735415 0 44937.44704737 0 7535.09823820 0 3
0.00250000 0.00253879 54269.61037530 0 9396.71966099 0 59707.41318597 0 -52349.83662526 0 -28452.02020874 0 6
0.00350000 0.00331552 53226.18582580 0 -29.79598266 0 -11950.88543132 0 40895.56372034 0 -8027.60253445 0 7
0.00450000 0.00420575 59973.12999671 0 -3059.22543305 0 26086.27281190 0 8708.03089843 0 -3292.57070839 0 24
0.00550000 0.00557378 64168.02841980 0 547.85775441 0 29270.59055751 0 6251.85850010 0 13818.92184451 0 45
0.00650000 0.00659388 66197.20851276 0 7350.82104857 0 55129.04333407 0 16994.67162350 0 50505.63673458 0 40
0.00750000 0.00754703 53267.26812726 0 1164.23287875 0 41911.74652984 0 17511.27607200 0 7741.01503581 0 57
0.00850000 0.00846663 56114.57918607 0 3847.31359290 0 38021.01092153 0 28599.87255569 0 18335.55839850 0 75
0.00950000 0.00948925 71553.61564060 0 -9007.26164012 0 23675.59851320 0 21065.77391360 0 19033.95752323 0 112
0.01050000 0.01054430 70677.92551441 0 -9141.71280852 0 21093.89441941 0 25908.76211899 0 31360.07595393 0 105
0.01150000 0.01145670 73085.19459561 0 6321.90711945 0 -13427.65136916 0 -4626.50424896 0 4662.03934126 0 144
0.01250000 0.01249090 73091.23611053 0 4010.28071171 0 15012.72519265 0 1830.51311325 0 31115.66921399 0 169
0.01350000 0.01339930 72514.65589574 0 -2433.19267249 0 4854.68677519 0 3467.67577991 0 16229.81583466 0 180
0.01450000 0.01448870 68621.17414428 0 -3154.51660019 0 -1292.87320825 0 9992.23727892 0 5672.30146613 0 267
0.01550000 0.01550050 81641.07817922 0 -1980.50745184 0 -9563.42153449 0 6789.14689877 0 4358.38181682 0 238
0.01650000 0.01653350 71796.59438609 0 1993.87567668 0 -11662.65024679 0 -8985.40234068 0 11271.48961717 0 315
0.01750000 0.01747870 73180.10130272 0 2466.94826404 0 4513.12149077 0 2790.15832767 0 13034.84305365 0 297
0.01850000 0.01844180 66842.22261473 0 3155.53816544 0 1015.61380864 0 -15003.93753458 0 213.35445170 0 388
0.01950000 0.01947590 64411.44654821 0 6338.35102460 0 12767.69824847 0 2935.98951326 0 2284.13202256 0 399
0.02050000 0.02045430 63926.03828584 0 -24.54843265 0 17563.01340886 0 2328.69643353 0 10070.88681860 0 462
0.02150000 0.02154770 62487.82819776 0 -2974.13893383 0 11402.53556806 0 8833.18911842 0 14078.26760315 0 571
0.02250000 0.02255340 62366.66836219 0 2687.47454318 0 19494.87018874 0 -4667.85018015 0 16499.81662871 0 510
0.02350000 0.02348930 60022.78026478 0 3246.14990467 0 19305.82569461 0 -1181.77524116 0 20017.84568934 0 555
0.02450000 0.02439640 59964.56203010 0 -805.08898283 0 22782.66260806 0 7832.31880310 0 24561.50429188 0 592
0.02550000 0.02547300 59722.35220468 0 -2195.54144470 0 22409.18714030 0 5661.61347701 0 18741.32850966 0 837
0.02650000 0.02652900 63635.27664961 0 3423.36401412 0 15041.39492708 0 3896.51349349 0 12864.80187009 0 723
0.02750000 0.02749970 62544.83812946 0 -478.09253703 0 16165.22654788 0 2933.10057067 0 24517.89553874 0 826
0.02850000 0.02848090 62449.60188518 0 -834.15416188 0 17456.90243772 0 2144.24349074 0 14696.58919376 0 831
0.02950000 0.02946900 63132.62260829 0 -151.57501859 0 10861.74309074 0 3979.37012447 0 11338.71520137 0 996
0.03050000 0.03053250 60329.13999408 0 693.09796999 0 9894.28784521 0 -3258.99087001 0 17587.94838862 0 1041
0.03150000 0.03150510 56694.45477264 0 -509.03278262 0 13581.87476820 0 772.76138573 0 12114.00633416 0 1036
0.03250000 0.03246190 57603.64784519 0 2512.57817854 0 8364.43346809 0 2610.63745797 0 3782.43870723 0 1059
0.03350000 0.03345080 58323.79642363 0 2385.49765835 0 11441.42095500 0 26.52126189 0 4587.79461518 0 1302
0.03450000 0.03451200 55961.89362719 0 1322.60844623 0 14945.27991700 0 -5099.82948149 0 -327.26446937 0 1339
0.03550000 0.03553350 52074.89277355 0 1649.77295599 0 16750.70426647 0 -7363.62906020 0 1779.52272732 0 1365
0.03650000 0.03647120 51731.51503466 0 2619.10656343 0 22935.01862976 0 -983.02477871 0 -6344.63420012 0 1308
0.03750000 0.03744890 50728.40386653 0 -270.98281484 0 21816.78914098 0 -2038.45107221 0 -4973.52886595 0 1579
0.03850000 0.03847530 50619.76644370 0 1661.03214289 0 24903.23434489 0 2704.73130670 0 -7591.06463550 0 1662
0.03950000 0.03950240 47067.35567089 0 665.36412114 0 20907.70591415 0 3955.44572539 0 -2764.59722727 0 1683
0.04050000 0.04050350 49027.22311086 0 204.18782589 0 21859.73881978 0 5196.92211853 0 3553.16870831 0 1822
0.04150000 0.04152450 47082.40453533 0 -373.01741109 0 18157.93785986 0 3334.57571395 0 2249.02532859 0 1887
0.04250000 0.04250150 45208.98568158 0 943.75603018 0 15696.95421874 0 4237.78219445 0 4113.84326201 0 1920
0.04350000 0.04349210 45387.92436893 0 1778.83069925 0 16735.43571058 0 -1045.26556387 0 4287.35557051 0 2005
0.04450000 0.04448520 43185.29787492 0 2439.23418741 0 14327.39770930 0 -4124.77291173 0 1062.60910552 0 2151
0.04550000 0.04548030 42391.22312302 0 260.67599039 0 17404.50602651 0 -73.18021115 0 -316.60613860 0 2274
0.04650000 0.04648670 38957.99496272 0 -202.04803115 0 16649.20681582 0 519.69001494 0 -2264.86508226 0 2311
0.04750000 0.04749250 40601.72640379 0 455.58624627 0 15836.56813625 0 2623.98371366 0 -4497.58930514 0 2568
0.04850000 0.04851840 41060.66184624 0 -33.31236404 0 13066.91800559 0 1902.83553912 0 -5956.08789877 0 2493
0.04950000 0.04949480 39197.67833644 0 804.70122742 0 11649.46875969 0 -274.82302141 0 -3576.44501761 0 2644
0.05050000 0.05050630 38457.86737309 0 699.11971268 0 12933.89483163 0 1949.90443263 0 -1286.67790932 0 2829
0.05150000 0.05149060 35972.82751801 0 1518.93571198 0 13031.65752760 0 794.12857631 0 -2148.12104486 0 2784
0.05250000 0.05249300 35604.84433654 0 893.62024401 0 12300.08499368 0 320.60452302 0 1725.11613933 0 3055
0.05350000 0.05348950 34550.21552300 0 212.74480793 0 12693.55238355 0 3110.66618645 0 2489.91700530 0 3009
0.05450000 0.05448610 33785.24988844 0 260.04547592 0 10367.74489261 0 2067.83480387 0 5461.92493206 0 3336
0.05550000 0.05550870 35659.98689090 0 -307.41974055 0 11905.07976366 0 1572.30975015 0 4242.11011604 0 3349
0.05650000 0.05647670 34065.24664354 0 606.71309430 0 10629.22165834 0 -1889.18171540 0 1687.65874682 0 3324
0.05750000 0.05747970 33659.80606956 0 1087.97358206 0 12183.97806150 0 -1226.81198875 0 5370.53328818 0 3639
0.05850000 0.05849280 32683.71694998 0 103.22433531 0 12750.01308662 0 -222.58478804 0 4158.41865755 0 3846
0.05950000 0.05951020 32755.11667176 0 -407.24533925 0 12241.31753037 0 1710.92407155 0 1305.74712732 0 3787
0.06050000 0.06049470 33185.82176267 0 1251.82386052 0 11511.06314517 0 1546.36418971 0 2330.43199599 0 3930
0.06150000 0.06148310 31271.21076175 0 711.97056415 0 12007.67567157 0 -1364.50360605 0 4092.58811407 0 4083
0.06250000 0.06249100 30823.69927478 0 -384.02505127 0 10826.22996758 0 2802.08757349 0 5334.37207524 0 4303
0.06350000 0.06350600 31839.22300993 0 -498.84019772 0 10051.96040004 0 2933.94638276 0 3898.86419202 0 4470
0.06450000 0.06451750 33025.00762008 0 -462.29782012 0 8535.24357173 0 -46.87413704 0 3706.48038783 0 4479
0.06550000 0.06550280 31924.57313888 0 477.25880797 0 8955.10688950 0 -892.74477357 0 2870.79607499 0 4636
0.06650000 0.06648880 31730.25604992 0 763.46953578 0 8670.38676820 0 -661.06915326 0 2831.71296574 0 4653
0.06750000 0.06749660 30411.77780298 0 531.78622627 0 9698.71851497 0 -911.25927066 0 4286.59763500 0 5220
0.06850000 0.06852730 30520.96445444 0 696.54273196 0 10831.23893268 0 1185.63082614 0 1454.24756404 0 5029
0.06950000 0.06949320 30719.45568098 0 -327.20844805 0 10053.19067217 0 2056.23509522 0 2305.76064598 0 5040
0.07050000 0.07048030 30830.29001833 0 224.13471124 0 8779.36471278 0 1237.29127099 0 3248.92900153 0 5475
0.07150000 0.07148790 29253.56447000 0 509.80829344 0 8419.05974754 0 -1510.91697399 0 2937.10993966 0 5509
0.07250000 0.07249820 27650.91533039 0 1153.38012104 0 10237.29210863 0 102.24725758 0 3640.00175457 0 5916
0.07350000 0.07351270 27137.82594511 0 1056.64338415 0 10343.46898721 0 -911.69755511 0 2779.32753910 0 5721
0.07450000 0.07449140 26392.19315829 0 1017.68110520 0 11252.70599805 0 281.90587381 0 2601.49829358 0 6028
0.07550000 0.07549160 25092.93791337 0 121.60580922 0 10521.33118644 0 869.23339442 0 3004.37946215 0 6183
0.07650000 0.07648840 24958.04736207 0 63.95536709 0 10121.36092961 0 878.18032879 0 1016.45852227 0 6330
0.07750000 0.07749960 24402.22798945 0 436.96080500 0 10195.24316479 0 661.94132832 0 3236.53840366 0 6583
0.07850000 0.07848650 24377.29300969 0 145.78065656 0 9295.39796350 0 926.12029891 0 2799.01189317 0 6549
0.07950000 0.07947320 23747.76715506 0 426.30796651 0 9445.55707069 0 -477.54550532 0 3680.19430565 0 6828
0.08050000 0.08048110 23618.03935287 0 140.09064796 0 7989.46409845 0 1498.50440697 0 2159.45712377 0 7147
0.08150000 0.08149960 23459.09258762 0 -594.33348100 0 8426.15578142 0 1351.38802639 0 3624.86501355 0 7386
0.08250000 0.08250610 23718.32850054 0 566.69300101 0 7648.71167241 0 -701.64836129 0 1738.13285784 0 7227
0.08350000 0.08350160 22663.80953273 0 243.49611887 0 6859.84360790 0 -483.21684014 0 1465.96810299 0 7798
0.08450000 0.08449610 22279.67902956 0 264.48873553 0 7700.84445388 0 631.23175876 0 2718.35217671 0 7371
0.08550000 0.08548940 22283.96301287 0 369.80332515 0 6886.61301128 0 59.73564354 0 578.94299636 0 8256
0.08650000 0.08650700 21730.23070904 0 810.11442479 0 7266.78906832 0 300.66642532 0 -31.15686136 0 8037
0.08750000 0.08749060 21049.95612908 0 430.10753017 0 7401.70158877 0 -598.48235406 0 1005.32236259 0 8155
0.08850000 0.08849210 20313.66022895 0 -96.85833611 0 7917.92157723 0 -265.51689152 0 331.76155339 0 8718
0.08950000 0.08949900 20712.18052220 0 537.53225618 0 8095.65196160 0 488.06652893 0 -235.26428018 0 8571
0.09050000 0.09049190 19935.13185780 0 424.74046800 0 9223.97627258 0 -1055.66795410 0 -36.09969933 0 8932
0.09150000 0.09150830 19534.30480431 0 273.59824157 0 9055.15437658 0 -485.16001103 0 68.14378462 0 9285
0.09250000 0.09250820 19259.69048977 0 68.95653315 0 9634.78830255 0 749.74431234 0 675.63359805 0 9204
0.09350000 0.09350330 19527.60421503 0 -124.57713610 0 8619.02290681 0 1425.42404559 0 888.63434651 0 9349
0.09450000 0.09448040 19282.86793792 0 -93.61536075 0 7586.87951335 0 2096.50453830 0 2107.19252742 0 9564
0.09550000 0.09549270 19219.15741695 0 353.77463684 0 7607.79413954 0 -94.16502876 0 864.66051686 0 10155
0.09650000 0.09649430 18857.54528757 0 354.40624976 0 7227.39839105 0 -473.49549341 0 2812.48996373 0 9913
0.09750000 0.09749140 18173.42610720 0 277.43405432 0 6918.64402493 0 761.09576964 0 2036.77043261 0 10476
0.09850000 0.09850240 18049.30043703 0 -141.49667325 0 6427.21621679 0 327.38529967 0 1452.67677016 0 10575
0.09950000 0.09950330 17792.04174718 0 306.39707684 0 5742.11940946 0 -28.45959956 0 89.61587787 0 10882
0.10050000 0.10051200 17564.11186612 0 728.27606369 0 6397.00864219 0 -280.10660082 0 572.72792519 0 10875
0.10150000 0.10150300 17129.34248335 0 15.07412895 0 6228.39545307 0 -119.29026132 0 730.76187246 0 11118
0.10250000 0.10250800 16818.69877075 0 -56.87877590 0 6265.20475579 0 562.21459077 0 -576.02439542 0 11575
0.10350000 0.10349800 16722.91329784 0 183.86526815 0 5641.54466291 0 -55.59544829 0 104.61860710 0 11364
0.10450000 0.10450100 16541.44815879 0 123.73352093 0 5894.33263172 0 460.69846635 0 -398.19075607 0 12093
0.10550000 0.10551000 16818.91846220 0 256.92915268 0 5575.36261310 0 -40.16981301 0 205.49828539 0 12067
0.10650000 0.10649700 16382.61123927 0 -156.80367514 0 5259.72091998 0 858.37514442 0 413.25170354 0 12054
0.10750000 0.10749900 16555.06902879 0 -308.86421184 0 4940.21265731 0 572.33028366 0 1108.10171286 0 12807
0.10850000 0.10850100 16413.91727112 0 111.36159683 0 3996.65984171 0 429.30345945 0 646.47065630 0 12736
0.10950000 0.10950300 16327.02930201 0 447.44887490 0 4491.99815770 0 -182.57677779 0 517.67324741 0 12933
0.11050000 0.11050200 15935.31944375 0 184.48260113 0 4052.40654756 0 219.86061404 0 1408.80438728 0 13428
0.11150000 0.11150900 16020.99910989 0 98.25875927 0 4590.54075832 0 656.86096351 0 849.46226223 0 13453
0.11250000 0.11250000 15691.13239527 0 343.28876385 0 4152.49797293 0 -371.35983909 0 1233.95196093 0 13668
0.11350000 0.11349100 15344.01990170 0 528.07673610 0 4677.30789714 0 -482.45890463 0 -44.62460642 0 13791
0.11450000 0.11448600 14604.31878407 0 133.12752740 0 4102.29847623 0 -196.95558330 0 196.94350027 0 14205
0.11550000 0.11549300 14374.74121712 0 243.51808801 0 4977.14279032 0 210.54789341 0 257.22683459 0 14776
0.11650000 0.11649800 14179.87489953 0 376.60387404 0 4871.96550786 0 -434.33549215 0 67.37651223 0 14553
0.11750000 0.11747300 13778.60846313 0 83.38498892 0 5237.60897537 0 119.09583438 0 -201.69762328 0 14568
0.11850000 0.11849100 13713.36010200 0 -13.97380432 0 4953.64678957 0 206.43636789 0 -318.97111707 0 16015
0.11950000 0.11950300 13511.90304086 0 -148.18627795 0 4479.40983752 0 413.56915769 0 -77.71661993 0 15270
0.12050000 0.12050700 13811.56218088 0 256.13057425 0 4316.57453357 0 562.82972684 0 -146.74949586 0 15999
0.12150000 0.12150000 13737.41631595 0 71.77319725 0 4224.11738616 0 2.08320222 0 674.30226785 0 15670
0.12250000 0.12250700 13507.17967465 0 46.82426708 0 4258.91651209 0 -173.46287792 0 -221.27323008 0 16887
0.12350000 0.12352200 13460.93462408 0 231.75141386 0 4403.34167239 0 -234.86224482 0 515.56201256 0 16407
0.12450000 0.12449800 13212.46359229 0 168.60330301 0 4859.45407969 0 119.36825178 0 204.66016251 0 16306
0.12550000 0.12549900 13029.46061309 0 -87.79199944 0 4925.72400607 0 45.67550048 0 1040.57515137 0 17523
0.12650000 0.12650100 13261.34494028 0 -32.11142072 0 4207.69545015 0 502.45961439 0 -233.79783974 0 17154
0.12750000 0.12750600 13106.79200406 0 301.58583405 0 4885.28979440 0 -164.82021621 0 302.19218246 0 18007
0.12850000 0.12850300 13034.84305365 0 284.43671934 0 4756.14417456 0 20.22424581 0 1009.76562220 0 17496
0.12950000 0.12949900 12748.14570928 0 -91.75677107 0 4673.40837388 0 410.60991383 0 896.65308450 0 18405
0.13050000 0.13049000 12726.06671839 0 121.93864177 0 4789.48235234 0 40.30733986 0 -50.31077042 0 18100
0.13150000 0.13148800 12309.09234320 0 383.89653177 0 4523.00760609 0 -176.85381547 0 431.18621519 0 19059
0.13250000 0.13249300 11862.13008487 0 329.84254856 0 4441.12860207 0 -23.97229182 0 910.05096768 0 18957
0.13350000 0.13349100 11860.04301608 0 -125.22522588 0 4416.98451154 0 598.65920568 0 668.83085225 0 19468
0.13450000 0.13450700 11616.51504195 0 15.38685973 0 4063.62179617 0 660.21345506 0 647.06052785 0 19953
0.13550000 0.13551000 11664.51762413 0 153.14032019 0 3582.54145540 0 22.66952151 0 656.74892087 0 19956
0.13650000 0.13649900 11643.31739905 0 30.30830313 0 3217.86463027 0 255.15184883 0 489.58569532 0 19723
0.13750000 0.13749600 11508.86623065 0 52.89807664 0 3099.45093784 0 59.30076431 0 452.52923972 0 20946
0.13850000 0.13851100 11350.02931112 0 57.22193395 0 3241.48146132 0 -79.80665456 0 178.77172185 0 20955
0.13950000 0.13949800 11280.49696668 0 110.40374210 0 2749.55934741 0 242.61186078 0 249.65956254 0 20506
0.14050000 0.14048300 11039.60528998 0 76.92935562 0 2766.34377431 0 441.15251790 0 123.18978459 0 21447
0.14150000 0.14148400 11095.62661014 0 220.16488671 0 2808.46961016 0 -394.88110435 0 -7.47581450 0 21771
0.14250000 0.14249400 10521.99026080 0 282.88130386 0 2946.72144067 0 227.67943281 0 685.98985308 0 22470
0.14350000 0.14350900 10575.18854581 0 -136.90622037 0 2599.77371569 0 590.80743320 0 773.96419642 0 22519
0.14450000 0.14449900 10707.83824430 0 -34.27296491 0 2696.56976928 0 144.90628458 0 524.18050821 0 22218
0.14550000 0.14550500 10598.19024079 0 88.98986708 0 2456.27125949 0 -13.10437540 0 755.22012177 0 23559
0.14650000 0.14650700 10452.39200892 0 258.77565933 0 2487.43449190 0 -294.74683916 0 466.24787242 0 23044
0.14750000 0.14750500 10354.64029752 0 222.12782983 0 2776.39465822 0 -89.35400566 0 767.13618611 0 23649
0.14850000 0.14849900 10379.26770925 0 -61.75779350 0 2947.41346874 0 229.86316584 0 758.40454936 0 23640
0.14950000 0.14949500 10209.11667996 0 -143.54968986 0 2822.59577050 0 186.17422531 0 725.68370456 0 24457
0.15050000 0.15050000 10231.29453201 0 112.71489617 0 2537.32642056 0 225.65497608 0 898.91590645 0 24591
0.15150000 0.15149900 10090.59314181 0 188.49965932 0 2648.79786312 0 -175.47195624 0 1002.06983065 0 25020
0.15250000 0.15250500 9887.63119423 0 185.92707243 0 2691.80246478 0 -297.08655312 0 978.25417883 0 25297
0.15350000 0.15350100 9867.16693551 0 58.96705299 0 2977.08279929 0 206.09364923 0 488.10607340 0 25452
0.15450000 0.15450400 9845.08794462 0 157.85709565 0 2785.81942150 0 -180.25024532 0 591.36544949 0 26061
0.15550000 0.15549900 9492.35134989 0 103.37152858 0 2885.38358738 0 -26.14987349 0 210.96091334 0 26128
0.15650000 0.15649500 9469.54737721 0 65.94357473 0 2733.18134969 0 421.88557759 0 345.64605313 0 26331
0.15750000 0.15749700 9287.76368556 0 91.60650212 0 2763.82830719 0 -270.29408214 0 148.71134052 0 27345
0.15850000 0.15849900 9083.07716008 0 316.94666035 0 2821.66208183 0 -253.76230040 0 -139.51725327 0 26980
0.15950000 0.15949700 9074.04784142 0 48.91803646 0 2793.23400799 0 334.59557311 0 592.00585007 0 27777
0.16050000 0.16050000 9033.77839833 0 -245.06142046 0 2604.51905104 0 600.16189521 0 441.12285955 0 28224
0.16150000 0.16150500 9237.70698830 0 -75.40162126 0 2422.25203820 0 105.12565498 0 272.65906061 0 28075
0.16250000 0.16249700 9090.00842538 0 193.06045386 0 2138.57545129 0 -385.91769313 0 -35.83508098 0 28590
0.16350000 0.16349900 9059.52623646 0 174.65690096 0 2307.70491532 0 -299.24502163 0 -361.77689797 0 29163
0.16450000 0.16449100 8665.12515793 0 79.88651240 0 2625.22497036 0 -226.52824960 0 -329.16040660 0 28996
0.16550000 0.16550500 8802.68496037 0 144.58333814 0 2513.69860494 0 253.98309031 0 -577.77094246 0 30777
0.16650000 0.16650700 8697.17814072 0 36.66441621 0 2378.13799472 0 -3.61646182 0 -708.22921872 0 29211
0.16750000 0.16749900 8642.36512354 0 73.13319718 0 2349.12773853 0 26.02322137 0 -924.52094514 0 30922
0.16850000 0.16850800 8369.01403485 0 208.12359824 0 2254.55056860 0 -134.89384667 0 -809.02914902 0 30867
0.16950000 0.16949900 8185.14327442 0 152.63942368 0 2325.08250915 0 153.26664277 0 -582.56351148 0 30852
0.17050000 0.17049200 8077.69218542 0 52.55821397 0 2338.39581112 0 175.34014137 0 -584.60993735 0 31257
0.17150000 0.17149500 7928.92811896 0 119.55498952 0 2153.90991461 0 376.35013041 0 -254.71795822 0 32608
0.17250000 0.17250900 8075.86874638 0 30.42298207 0 2184.85345557 0 237.92803903 0 27.44704166 0 32361
0.17350000 0.17350400 7695.47299788 0 40.79571396 0 2118.98995838 0 -200.54314470 0 437.66271919 0 32508
0.17450000 0.17449800 7864.26194017 0 22.10260772 0 2139.33338680 0 62.68983449 0 17.44668679 0 32791
0.17550000 0.17549800 7650.01883654 0 110.46196034 0 2296.79723475 0 54.45634811 0 503.18020235 0 33633
0.17650000 0.17650100 7727.69074927 0 19.34064679 0 2074.87591489 0 296.31653458 0 335.52926178 0 33984
0.17750000 0.17750300 7755.84420879 0 8.06676254 0 2140.00344572 0 350.02999605 0 747.24202670 0 34069
0.17850000 0.17849800 7733.56749560 0 -13.67689132 0 2004.62957323 0 -72.97842455 0 481.72183981 0 34536
