### header ###
fiducial parameters:
Omega_m = 0.31
Omega_nu = 0
Omega_de = 0.69
Omega_k = 0
H_0 = 100
w_de = -1
zeff = 0
beta = 0
fgrowth = 0
b_1 = 2
gamma = 0.55
Lx = 3500 Ly = 3500 Lz = 3500
nx = 700 ny = 700 nz = 700
xoffset = -983.599254 yoffset = -42.9823471 zoffset = 800.977702
bins = 400 dk = 0.001
kx_ny = 0.628318531 ky_ny = 0.628318531 kz_ny = 0.628318531
############################
A(data) = 9.02649364 (not used)
A(ran) = 9.02338907 (used)
Ngal = 501406
weighted Ngal = 0
Nran = 25229228
weighted Nran = 0
SN(data) = 6749.8005
SN(ran) = 133.945994
SN(data+ran) = 6883.7465
############################
13 columns: k_central k_mean P_0(k) sigma^{lin}_{P_0(k)} P^img_1(k) sigma^{lin}_{P_1(k)} P_2(k) sigma^{lin}_{P_2(k)} P^img_3(k) sigma^{lin}_{P_3(k)} P_4(k) sigma^{lin}_{P_4(k)} N_modes
### header ###
0.00050000 0 0 0 0 0 0 0 0 0 0 0 0
0.00150000 0.00179520 32659.77058175 0 -35794.21836784 0 6797.70388081 0 -72344.83440363 0 -12191.88695376 0 3
0.00250000 0.00253879 47412.49094140 0 -38655.04045092 0 -79035.20802575 0 59647.65711113 0 57267.30023275 0 6
0.00350000 0.00331552 68501.55214887 0 -19733.23541375 0 -18901.15404072 0 -7573.25864334 0 -28322.62194374 0 7
0.00450000 0.00420575 74876.66853790 0 -5440.74667612 0 -18068.74313050 0 -60164.48125108 0 -8032.65543784 0 24
0.00550000 0.00557378 67308.29802936 0 22843.07775726 0 4851.63306401 0 -27167.48429108 0 12265.81312723 0 45
0.00650000 0.00659388 62262.31492267 0 1980.72714330 0 10069.93116079 0 9857.53346535 0 30929.04132584 0 40
0.00750000 0.00754703 50995.65851743 0 -11528.85815275 0 9547.94427172 0 -2157.66663844 0 -35825.52439970 0 57
0.00850000 0.00846663 49085.11180836 0 5587.52253495 0 15544.37850558 0 2540.74262264 0 -5429.41059722 0 75
0.00950000 0.00948925 48284.33646718 0 10626.31074660 0 16514.53595597 0 412.47179889 0 10339.75620167 0 112
0.01050000 0.01054430 46273.93999334 0 -254.53231894 0 26695.91659016 0 9149.13837958 0 9245.19846681 0 105
0.01150000 0.01145670 48032.02083499 0 -5465.95627019 0 13508.16828618 0 2390.57253088 0 -2917.00817184 0 144
0.01250000 0.01249090 48188.55099427 0 306.08291806 0 19414.02373454 0 6145.63768324 0 2431.07264999 0 169
0.01350000 0.01339930 47173.90602493 0 -395.86312514 0 16144.90508861 0 -1645.31321952 0 -9583.61117889 0 180
0.01450000 0.01448870 55229.55217319 0 165.47599519 0 17637.59865669 0 -4768.37000384 0 -10051.77366231 0 267
0.01550000 0.01550050 55105.64619447 0 2609.40718584 0 22460.81463143 0 -5377.09107801 0 -16171.15821708 0 238
0.01650000 0.01653350 58633.67121615 0 -6251.61683950 0 15412.23409743 0 54.48501784 0 -21427.49588870 0 315
0.01750000 0.01747870 67038.40708103 0 -11352.33607137 0 23900.12317676 0 5404.98090780 0 -30746.25803808 0 297
0.01850000 0.01844180 70579.39389836 0 2590.07433810 0 14798.85556449 0 -12250.43472562 0 -25947.20812302 0 388
0.01950000 0.01947590 75036.05468606 0 -668.10587046 0 18179.02823922 0 -2589.22852601 0 -21641.36551686 0 399
0.02050000 0.02045430 77410.37004952 0 2055.94949633 0 19021.98433911 0 28.58844860 0 -31250.88930247 0 462
0.02150000 0.02154770 73361.56644176 0 201.01987515 0 23225.89011172 0 -2998.40385467 0 -17740.41425605 0 571
0.02250000 0.02255340 73191.85479538 0 -3363.48710898 0 20558.50635179 0 9237.26760540 0 -18789.00155466 0 510
0.02350000 0.02348930 69708.75667556 0 738.77292124 0 18996.39028500 0 2275.99245428 0 -22437.52733755 0 555
0.02450000 0.02439640 75230.26192930 0 8137.15167681 0 26558.60943290 0 -3460.04150197 0 -8939.83833362 0 592
0.02550000 0.02547300 68381.49077056 0 3966.30946767 0 25745.09198752 0 -8326.40487781 0 -15883.58210690 0 837
0.02650000 0.02652900 64163.08536214 0 -558.05253622 0 37097.20836744 0 6780.55696301 0 -6520.17865454 0 723
0.02750000 0.02749970 64527.00425176 0 1104.41089647 0 32841.45541225 0 -1115.56023764 0 -14205.46895364 0 826
0.02850000 0.02848090 60229.40007504 0 1275.31986127 0 30660.13898905 0 -2213.65500488 0 -7678.44691038 0 831
0.02950000 0.02946900 63619.78840227 0 419.64252787 0 33978.57836587 0 1618.17034068 0 -17064.64335084 0 996
0.03050000 0.03053250 60066.60870938 0 4246.92135883 0 30800.96120954 0 -214.47158274 0 -13573.19695586 0 1041
0.03150000 0.03150510 55762.74332629 0 1592.16985738 0 30813.48362228 0 1582.69017124 0 -6653.38856624 0 1036
0.03250000 0.03246190 56879.87435781 0 -1170.77968401 0 33476.80309035 0 9235.55401208 0 -9360.06414229 0 1059
0.03350000 0.03345080 53815.28845334 0 1201.49254895 0 27191.54050503 0 598.03857733 0 -6366.72417558 0 1302
0.03450000 0.03451200 50686.11326209 0 3095.39763056 0 22877.45946944 0 3422.85872378 0 -5619.87210120 0 1339
0.03550000 0.03553350 50957.87158775 0 650.69971674 0 21209.56196869 0 5441.46067334 0 -4952.51537860 0 1365
0.03650000 0.03647120 49548.55092557 0 -198.89436036 0 21417.60977338 0 3080.30482783 0 -433.34028988 0 1308
0.03750000 0.03744890 49516.36612790 0 1145.53713622 0 18731.22270288 0 -3.16396333 0 -4751.44277750 0 1579
0.03850000 0.03847530 47704.46088061 0 136.42509609 0 18863.47695676 0 -1208.59956741 0 -4807.72772740 0 1662
0.03950000 0.03950240 46888.41698354 0 209.49666981 0 17805.88230863 0 -1755.07106876 0 -9610.74307317 0 1683
0.04050000 0.04050350 45387.15544885 0 2561.14097392 0 19248.15668856 0 1900.23219542 0 -1533.57814723 0 1822
0.04150000 0.04152450 43934.11618779 0 -635.38612411 0 18791.19846918 0 1513.63016342 0 -2858.21873938 0 1887
0.04250000 0.04250150 43985.08460457 0 4.71270019 0 17723.38816855 0 6158.24797256 0 -2139.36634051 0 1920
0.04350000 0.04349210 43767.59006746 0 2916.92029526 0 19816.60831965 0 -726.52292590 0 -1331.97828664 0 2005
0.04450000 0.04448520 40756.38918574 0 1371.42388678 0 18429.47649407 0 -1181.10518224 0 5067.06250148 0 2151
0.04550000 0.04548030 41222.13506318 0 -39.05213275 0 18572.27593763 0 3806.25326059 0 1691.60220838 0 2274
0.04650000 0.04648670 38553.21346310 0 513.91212976 0 17909.46682807 0 1044.15831895 0 2086.32183952 0 2311
0.04750000 0.04749250 39797.32615366 0 140.03133127 0 16239.92164144 0 2199.10044621 0 738.16876975 0 2568
0.04850000 0.04851840 39038.29218829 0 -100.40876966 0 12787.03109622 0 987.95575334 0 4786.78014749 0 2493
0.04950000 0.04949480 38039.02562056 0 750.13865849 0 15345.99712477 0 1912.71066987 0 3551.37822298 0 2644
0.05050000 0.05050630 37652.36866570 0 241.60237855 0 12920.71334453 0 1104.43286562 0 2465.57519246 0 2829
0.05150000 0.05149060 35838.15665816 0 1986.71373535 0 16400.18655540 0 -2019.55760737 0 3153.90146413 0 2784
0.05250000 0.05249300 34292.62729597 0 1107.17900876 0 15736.27898858 0 -1148.44804795 0 3893.97605722 0 3055
0.05350000 0.05348950 33617.73515657 0 0.60305523 0 16002.10564505 0 2562.18450832 0 1910.51375536 0 3009
0.05450000 0.05448610 33908.60663853 0 -413.28355880 0 14265.00533704 0 4174.92847014 0 4556.26889187 0 3336
0.05550000 0.05550870 34984.32583142 0 -146.42545097 0 11206.35110176 0 2023.45713064 0 6948.55501607 0 3349
0.05650000 0.05647670 34649.29636769 0 317.31134816 0 12366.65150353 0 3271.26063759 0 8093.45504708 0 3324
0.05750000 0.05747970 34240.78011339 0 -134.90812662 0 10441.34152891 0 -1335.06495154 0 8139.22776103 0 3639
0.05850000 0.05849280 33349.49189414 0 485.10289125 0 8851.35760147 0 880.96272102 0 7328.26972106 0 3846
0.05950000 0.05951020 33149.57267316 0 622.10577586 0 9854.28203187 0 1289.55586733 0 7205.63795276 0 3787
0.06050000 0.06049470 31252.64683408 0 814.53681371 0 9701.66238042 0 191.49844764 0 8250.42458927 0 3930
0.06150000 0.06148310 32523.12249884 0 925.65235611 0 8765.09575299 0 768.25331714 0 5878.04251058 0 4083
0.06250000 0.06249100 31813.18957291 0 -1113.19855454 0 9641.74153699 0 568.82400810 0 5099.28025286 0 4303
0.06350000 0.06350600 31132.91499295 0 158.91271308 0 8382.10764537 0 -1281.77878994 0 2009.13324799 0 4470
0.06450000 0.06451750 30055.98749707 0 622.42872229 0 8346.38581534 0 -769.79225576 0 3676.20690580 0 4479
0.06550000 0.06550280 31878.76747122 0 281.58841967 0 8309.26894458 0 651.76192491 0 502.40688844 0 4636
0.06650000 0.06648880 30800.63167236 0 432.72954764 0 8533.18945666 0 -204.66675325 0 -1279.73565944 0 4653
0.06750000 0.06749660 29852.22367569 0 1436.82603193 0 10108.80556315 0 -1390.75673452 0 -1154.02821082 0 5220
0.06850000 0.06852730 28105.67663525 0 376.61376015 0 9731.45254126 0 145.40278726 0 -405.63060708 0 5029
0.06950000 0.06949320 27948.70709307 0 144.33179143 0 10530.58019656 0 1311.71175023 0 -378.17027409 0 5040
0.07050000 0.07048030 27363.33922021 0 278.68080330 0 9199.86513576 0 -181.97152784 0 1012.31184612 0 5475
0.07150000 0.07148790 26853.43536098 0 81.43731436 0 9656.71350942 0 2245.21368191 0 734.60976824 0 5509
0.07250000 0.07249820 26567.28724524 0 318.40651004 0 7982.89532405 0 821.44061758 0 166.27567208 0 5916
0.07350000 0.07351270 26396.91652450 0 906.20307190 0 8511.38508008 0 -501.84997061 0 3612.22177051 0 5721
0.07450000 0.07449140 25719.16839623 0 -317.16745026 0 8161.82302683 0 1773.00887578 0 3506.35245997 0 6028
0.07550000 0.07549160 25847.13866680 0 514.05053538 0 8767.74303498 0 1102.80714888 0 2582.00067725 0 6183
0.07650000 0.07648840 25616.68233405 0 330.42363245 0 8141.34778353 0 -608.45414905 0 4195.81014261 0 6330
0.07750000 0.07749960 24787.89633278 0 100.63713893 0 7944.82279548 0 842.69247015 0 5218.99012485 0 6583
0.07850000 0.07848650 25319.22010854 0 -820.96937941 0 6937.52650520 0 1535.65423144 0 5254.79983146 0 6549
0.07950000 0.07947320 25428.18706855 0 342.27378935 0 7493.53261555 0 28.91721686 0 2109.01596647 0 6828
0.08050000 0.08048110 24836.55798932 0 1009.78868980 0 6959.91306412 0 -1294.42203299 0 4490.61410155 0 7147
0.08150000 0.08149960 23908.14191475 0 497.72526361 0 8071.01356530 0 -620.52839124 0 3396.58362617 0 7386
0.08250000 0.08250610 23478.20574391 0 62.08941775 0 7279.17966620 0 -81.20916479 0 712.49782363 0 7227
0.08350000 0.08350160 23372.64400140 0 746.41488839 0 8177.69573421 0 500.57136636 0 679.12998750 0 7798
0.08450000 0.08449610 22699.28970217 0 -64.12815442 0 7492.89551034 0 -395.91365418 0 843.54706990 0 7371
0.08550000 0.08548940 22802.87422161 0 156.47743334 0 7284.29847702 0 931.77076304 0 -49.99024059 0 8256
0.08650000 0.08650700 21615.11238839 0 284.83106549 0 7042.85757168 0 -612.44045044 0 -414.41826515 0 8037
0.08750000 0.08749060 21729.24209751 0 570.99895347 0 6581.34075468 0 112.71269926 0 -561.42589846 0 8155
0.08850000 0.08849210 21089.39074465 0 345.54719198 0 7276.03807844 0 320.50456341 0 -656.28097807 0 8718
0.08950000 0.08949900 20195.46622798 0 401.12583387 0 6999.06208080 0 193.49873831 0 -109.08185864 0 8571
0.09050000 0.09049190 19848.79311731 0 664.91704904 0 6917.83116656 0 -358.13221678 0 -347.09821363 0 8932
0.09150000 0.09150830 19644.48006730 0 -60.08769909 0 7351.69981438 0 884.11199798 0 -188.24701416 0 9285
0.09250000 0.09250820 19487.40067938 0 -50.99653728 0 7003.60969385 0 -200.00929448 0 -642.76336305 0 9204
0.09350000 0.09350330 19272.98182260 0 199.44029362 0 6279.51765386 0 1190.80455983 0 635.44653926 0 9349
0.09450000 0.09448040 19205.31685549 0 227.79696773 0 6559.64622383 0 -33.58708820 0 1348.07068547 0 9564
0.09550000 0.09549270 19226.95646348 0 149.51870661 0 6290.84274819 0 1024.39377750 0 671.66047814 0 10155
0.09650000 0.09649430 18462.64990327 0 568.30993010 0 6791.43168987 0 -836.53012493 0 256.80502701 0 9913
0.09750000 0.09749140 17585.42193692 0 832.19890796 0 6458.65406352 0 -322.11709866 0 1176.67839949 0 10476
0.09850000 0.09850240 16839.02023002 0 276.21147139 0 6971.00748243 0 294.34919763 0 1506.19360778 0 10575
0.09950000 0.09950330 16591.86734694 0 -9.38092385 0 7178.80264195 0 214.31999563 0 1408.79340270 0 10882
0.10050000 0.10051200 16605.59806267 0 53.06482245 0 6122.16365163 0 952.25699091 0 668.74077875 0 10875
0.10150000 0.10150300 16890.97725833 0 -435.83159094 0 5754.47705362 0 724.59073958 0 799.89987075 0 11118
0.10250000 0.10250800 16658.98308541 0 126.55106380 0 4986.82019877 0 -155.99191523 0 -801.96826576 0 11575
0.10350000 0.10349800 16642.28653509 0 223.34162510 0 4713.68880153 0 -46.31205646 0 804.43210539 0 11364
0.10450000 0.10450100 16671.83503533 0 115.25452935 0 4906.80857209 0 569.80822580 0 259.28534350 0 12093
0.10550000 0.10551000 16521.56608242 0 67.08465213 0 4534.13497812 0 -41.48609434 0 -478.61320577 0 12067
0.10650000 0.10649700 16310.22290596 0 416.40757124 0 5380.19971205 0 -479.58204507 0 -4.05754733 0 12054
0.10750000 0.10749900 15518.12537712 0 309.81218046 0 4911.30126227 0 263.52978234 0 666.99313325 0 12807
0.10850000 0.10850100 15796.36460060 0 -270.58407485 0 5156.99319720 0 484.86013220 0 514.94248267 0 12736
0.10950000 0.10950300 15551.51847776 0 253.91608442 0 5083.49542206 0 672.26682655 0 655.52084565 0 12933
0.11050000 0.11050200 15724.52549592 0 188.85555948 0 4759.81302180 0 -249.92758611 0 766.48480095 0 13428
0.11150000 0.11150900 15155.63448193 0 153.28971037 0 5042.49001261 0 -243.70372729 0 1149.08515316 0 13453
0.11250000 0.11250000 14847.07783812 0 421.77683032 0 5578.66896945 0 77.89325186 0 1366.17326109 0 13668
0.11350000 0.11349100 14943.85192256 0 189.52891378 0 5061.77892206 0 -53.98994316 0 880.75621106 0 13791
0.11450000 0.11448600 14386.27501833 0 -114.75473130 0 5403.97032712 0 -60.55333512 0 475.17064072 0 14205
0.11550000 0.11549300 14336.95428744 0 312.75055362 0 5642.44539786 0 184.68361881 0 56.33471002 0 14776
0.11650000 0.11649800 14248.19894099 0 212.32080342 0 5283.56842705 0 -398.46317347 0 951.58693198 0 14553
0.11750000 0.11747300 14020.81828855 0 -125.40756979 0 5354.63861165 0 573.94611429 0 815.07945160 0 14568
0.11850000 0.11849100 13938.76353137 0 -49.31238262 0 5051.85985302 0 570.04878794 0 840.87891722 0 16015
0.11950000 0.11950300 14348.15855148 0 143.55078832 0 4509.63938126 0 603.96475424 0 473.06050433 0 15270
0.12050000 0.12050700 14111.00162945 0 51.09419013 0 4557.09273481 0 217.43961425 0 1084.23003973 0 15999
0.12150000 0.12150000 13812.99017531 0 441.63803600 0 4377.02263649 0 -231.10002871 0 1341.05154359 0 15670
0.12250000 0.12250700 13497.18371360 0 135.21349773 0 4539.44052668 0 169.61168677 0 750.55167842 0 16887
0.12350000 0.12352200 13180.49848608 0 164.26769221 0 4598.53752716 0 -21.92916132 0 1165.45216631 0 16407
0.12450000 0.12449800 13456.65064077 0 -133.73058043 0 4393.13700446 0 224.92779738 0 675.98949820 0 16306
0.12550000 0.12549900 12876.88489993 0 189.82000495 0 4317.72791369 0 -44.93030708 0 1078.06439914 0 17523
0.12650000 0.12650100 12996.61674107 0 127.94061223 0 3761.98543309 0 43.81504342 0 67.39101186 0 17154
0.12750000 0.12750600 12716.51014024 0 189.81121729 0 4107.84568538 0 51.31574896 0 -201.28899718 0 18007
0.12850000 0.12850300 12743.64203452 0 164.06996990 0 3759.64571913 0 163.52952893 0 245.72928247 0 17496
0.12950000 0.12949900 12481.55013273 0 -45.29158967 0 3802.32078360 0 102.52934140 0 -193.77115571 0 18405
0.13050000 0.13049000 12443.32382015 0 238.23121323 0 3687.64184586 0 -328.47606773 0 -1023.86761648 0 18100
0.13150000 0.13148800 12161.67937916 0 60.01201538 0 3615.63797258 0 -32.39009932 0 -849.57100950 0 19059
0.13250000 0.13249300 11869.48974850 0 -72.05802721 0 3534.51690407 0 294.82043580 0 -579.98433384 0 18957
0.13350000 0.13349100 12022.83438173 0 259.97187928 0 3073.76900715 0 -72.61208905 0 -1298.36549454 0 19468
0.13450000 0.13450700 11944.07499632 0 101.89498233 0 3682.44614302 0 -98.54358924 0 -1115.07691645 0 19953
0.13550000 0.13551000 11716.58449816 0 204.66235942 0 3424.72610112 0 198.70981954 0 -895.23717309 0 19956
0.13650000 0.13649900 11522.37725493 0 -24.26129592 0 3213.74541555 0 655.44395364 0 -407.22556702 0 19723
0.13750000 0.13749600 11772.16643543 0 -119.52642963 0 3231.16694767 0 394.28903589 0 -302.74910029 0 20946
0.13850000 0.13851100 11414.50875218 0 203.29258322 0 2917.33770902 0 233.85056568 0 53.68951510 0 20955
0.13950000 0.13949800 11342.01057314 0 299.67781379 0 3057.83039233 0 -259.63465290 0 273.85198520 0 20506
0.14050000 0.14048300 10865.95018204 0 209.66143840 0 3169.74121779 0 -163.67122992 0 377.63642386 0 21447
0.14150000 0.14148400 10720.56936392 0 181.72217804 0 3350.72303564 0 156.78939520 0 650.54922810 0 21771
0.14250000 0.14249400 10480.76515990 0 75.23366715 0 3283.99175721 0 -5.60942577 0 750.99765207 0 22470
0.14350000 0.14350900 10625.53084195 0 -46.79812380 0 3012.16752411 0 604.44368160 0 825.40934365 0 22519
0.14450000 0.14449900 10409.98057419 0 92.79008981 0 3087.62055317 0 147.72053207 0 668.76824018 0 22218
0.14550000 0.14550500 10389.65911491 0 209.86904682 0 2569.15971191 0 120.53261648 0 577.47875283 0 23559
0.14650000 0.14650700 10217.87138431 0 93.29812629 0 3045.27502587 0 -46.49934342 0 1088.89848307 0 23044
0.14750000 0.14750500 10234.39218147 0 34.25407145 0 2955.98143536 0 -325.80681659 0 174.00661426 0 23649
0.14850000 0.14849900 9979.71486617 0 197.73109412 0 3312.79330652 0 -313.95336432 0 683.80502159 0 23640
0.14950000 0.14949500 9840.80396131 0 38.04276038 0 3194.55536725 0 -135.41012158 0 176.18595346 0 24457
0.15050000 0.15050000 9942.41125769 0 178.71240515 0 3683.62149229 0 -252.38922883 0 13.58187477 0 24591
0.15150000 0.15149900 9739.92164672 0 210.82360618 0 3890.71363917 0 34.38808323 0 -260.13664787 0 25020
0.15250000 0.15250500 9534.00484911 0 48.66396330 0 3813.47012477 0 143.41348116 0 124.62327131 0 25297
0.15350000 0.15350100 9458.62871206 0 -105.76506695 0 3688.41076594 0 54.14625363 0 -109.40557399 0 25452
0.15450000 0.15450400 9502.92949328 0 195.89667050 0 3580.46537118 0 318.36586713 0 -131.30738372 0 26061
0.15550000 0.15549900 9373.44335169 0 134.68513979 0 3475.80436362 0 262.29291947 0 326.63065954 0 26128
0.15650000 0.15649500 9171.31623162 0 25.20135564 0 3452.83562236 0 -49.68025595 0 194.53568196 0 26331
0.15750000 0.15749700 9235.66385780 0 129.55973823 0 3138.01777218 0 235.98376968 0 74.67960531 0 27345
0.15850000 0.15849900 9073.85011911 0 139.37994611 0 3453.50568128 0 -190.25060019 0 -206.37265737 0 26980
0.15950000 0.15949700 8785.86757974 0 50.35361025 0 3018.20903903 0 -82.23743062 0 259.79612612 0 27777
0.16050000 0.16050000 8739.12822341 0 -17.21227601 0 2847.51976569 0 652.13649884 0 457.02961911 0 28224
0.16150000 0.16150500 8975.32948763 0 -103.36383938 0 2848.72806867 0 520.62919589 0 181.51127425 0 28075
0.16250000 0.16249700 8697.33192474 0 128.20753734 0 2416.50710674 0 191.83457556 0 714.13562340 0 28590
0.16350000 0.16349900 8762.12991840 0 138.26501200 0 2398.52536143 0 3.58122331 0 568.76249449 0 29163
0.16450000 0.16449100 8642.35413897 0 54.08353172 0 2234.17418646 0 33.04587831 0 1162.85980718 0 28996
0.16550000 0.16550500 8523.66583223 0 101.73164174 0 2565.56775667 0 143.67711091 0 870.41533443 0 30777
0.16650000 0.16650700 8399.61705407 0 -74.45013758 0 2082.86169916 0 267.12283603 0 1022.51102176 0 29211
0.16750000 0.16749900 8560.46415037 0 14.36683232 0 2120.49484482 0 -2.91798580 0 948.80234283 0 30922
0.16850000 0.16850800 8383.76631583 0 232.56756761 0 2264.43668393 0 -184.62210520 0 859.79105583 0 30867
0.16950000 0.16949900 8217.85533156 0 146.43094325 0 1946.93859804 0 35.71611806 0 911.00992086 0 30852
0.17050000 0.17049200 8254.32411253 0 -17.67066222 0 2232.61437716 0 270.03264931 0 912.05565217 0 31257
0.17150000 0.17149500 7917.61400920 0 147.80181791 0 1989.85532311 0 -62.38369445 0 837.42536760 0 32608
0.17250000 0.17250900 7930.66368142 0 293.85269495 0 2226.30923250 0 -239.49224216 0 487.04825906 0 32361
0.17350000 0.17350400 7549.35621341 0 1.92669403 0 2423.53723319 0 -140.30374867 0 1057.69021391 0 32508
0.17450000 0.17449800 7764.29134511 0 -71.86261167 0 2272.53231392 0 428.24344820 0 773.49515517 0 32791
0.17550000 0.17549800 7635.54116988 0 -85.47798938 0 2013.07670955 0 249.11033391 0 789.91489427 0 33633
0.17650000 0.17650100 7863.59188124 0 22.75607994 0 1661.10903490 0 318.56249097 0 778.24708127 0 33984
0.17750000 0.17750300 7790.32478212 0 22.03417383 0 1730.19101186 0 -302.35695105 0 807.89883650 0 34069
0.17850000 0.17849800 7719.27656667 0 248.06350415 0 2018.54702669 0 -64.51514091 0 727.74660729 0 34536
