### header ###
fiducial parameters:
Omega_m = 0.31
Omega_nu = 0
Omega_de = 0.69
Omega_k = 0
H_0 = 100
w_de = -1
zeff = 0
beta = 0
fgrowth = 0
b_1 = 2
gamma = 0.55
Lx = 3500 Ly = 3500 Lz = 3500
nx = 700 ny = 700 nz = 700
xoffset = -983.599254 yoffset = -42.9823471 zoffset = 800.977702
bins = 400 dk = 0.001
kx_ny = 0.628318531 ky_ny = 0.628318531 kz_ny = 0.628318531
############################
A(data) = 9.03935052 (not used)
A(ran) = 9.02485086 (used)
Ngal = 502361
weighted Ngal = 0
Nran = 25229228
weighted Nran = 0
SN(data) = 6741.18896
SN(ran) = 133.967693
SN(data+ran) = 6875.15666
############################
13 columns: k_central k_mean P_0(k) sigma^{lin}_{P_0(k)} P^img_1(k) sigma^{lin}_{P_1(k)} P_2(k) sigma^{lin}_{P_2(k)} P^img_3(k) sigma^{lin}_{P_3(k)} P_4(k) sigma^{lin}_{P_4(k)} N_modes
### header ###
0.00050000 0 0 0 0 0 0 0 0 0 0 0 0
0.00150000 0.00179520 36548.52896700 0 -27292.48872706 0 -46043.48366059 0 83024.47525011 0 61176.70961445 0 3
0.00250000 0.00253879 49887.09545253 0 -23456.78582738 0 -1658.46175290 0 -31168.94439101 0 -16018.25296674 0 6
0.00350000 0.00331552 67587.19632720 0 -7010.35422141 0 -804.62653233 0 -79001.48538792 0 -20460.08458146 0 7
0.00450000 0.00420575 86076.31905039 0 -2103.67746420 0 -21424.20051693 0 -33151.87943340 0 -31555.71119160 0 24
0.00550000 0.00557378 75997.75401556 0 8897.45985260 0 14564.33493988 0 -11851.25535801 0 24285.90136582 0 45
0.00650000 0.00659388 69089.44647342 0 4717.54438651 0 47995.55205402 0 -13459.83616682 0 -12803.61780081 0 40
0.00750000 0.00754703 60674.82449321 0 -3846.22612021 0 62489.80542083 0 305.80610684 0 -36626.51943233 0 57
0.00850000 0.00846663 69882.42276807 0 19518.26732834 0 55609.72823023 0 7167.34573275 0 8893.83494365 0 75
0.00950000 0.00948925 74219.24186891 0 -13030.77876180 0 47255.96078212 0 19541.66446794 0 849.00969784 0 112
0.01050000 0.01054430 85563.00997366 0 -5388.55897179 0 59401.05345668 0 13411.06466456 0 -19149.29553533 0 105
0.01150000 0.01145670 92692.76649904 0 6140.33213468 0 54590.14020323 0 12551.74155152 0 -4272.02110718 0 144
0.01250000 0.01249090 79164.93582793 0 7388.41025595 0 51192.83159527 0 3057.55577802 0 51924.95335782 0 169
0.01350000 0.01339930 75347.57716447 0 -878.37585418 0 44727.75155679 0 19273.09166832 0 10424.19461111 0 180
0.01450000 0.01448870 79647.59794716 0 6628.95887682 0 47369.98064551 0 23078.03776477 0 18579.41590981 0 267
0.01550000 0.01550050 79244.90351633 0 1126.25921134 0 58253.16562193 0 6514.96098257 0 28376.77588656 0 238
0.01650000 0.01653350 73853.56544768 0 -3054.11760680 0 39198.44725652 0 -5464.59418319 0 23076.17038743 0 315
0.01750000 0.01747870 72228.83731717 0 -779.62894050 0 43725.29946302 0 -998.88759997 0 7360.35565757 0 297
0.01850000 0.01844180 67682.32272575 0 4118.14921446 0 36475.04217643 0 4619.16655447 0 -1281.98749682 0 388
0.01950000 0.01947590 70084.20936639 0 5888.75246885 0 47525.63203899 0 7636.11236765 0 15400.70029622 0 399
0.02050000 0.02045430 71970.91955296 0 -3930.00545529 0 39863.56312632 0 5019.88376224 0 -6738.37620430 0 462
0.02150000 0.02154770 75939.53578087 0 819.67210139 0 34503.20155235 0 11390.34269250 0 -4498.79760812 0 571
0.02250000 0.02255340 79195.36309398 0 -4000.07604379 0 34518.36026252 0 -6171.34158308 0 -2175.93398264 0 510
0.02350000 0.02348930 78772.78658678 0 1345.47832634 0 30405.62644234 0 6320.62192446 0 -12554.70738612 0 555
0.02450000 0.02439640 70956.71396653 0 7519.03879308 0 40417.84465878 0 -7859.03328362 0 9561.90566347 0 592
0.02550000 0.02547300 64822.70894565 0 6352.88361413 0 44397.00607637 0 -6689.65962490 0 -1302.48470926 0 837
0.02650000 0.02652900 61354.87938172 0 476.67113334 0 49225.60449168 0 11396.82359032 0 2258.37319986 0 723
0.02750000 0.02749970 59821.76258654 0 1149.81013495 0 42672.53802682 0 4384.60199157 0 -12739.57774266 0 826
0.02850000 0.02848090 57870.57295892 0 595.99874220 0 37410.81791464 0 11116.27760659 0 9637.55641484 0 831
0.02950000 0.02946900 57939.11669183 0 -3161.98610955 0 31873.38503065 0 9273.50571035 0 7809.67959901 0 996
0.03050000 0.03053250 60313.43205528 0 -1930.11023284 0 23410.10139391 0 14365.18463898 0 8514.76832844 0 1041
0.03150000 0.03150510 62651.49832922 0 986.28170448 0 16307.03737991 0 2161.80782230 0 6658.22177817 0 1036
0.03250000 0.03246190 59797.81621832 0 4976.42879311 0 18316.44524221 0 -5839.56355283 0 2551.05713629 0 1059
0.03350000 0.03345080 53565.38942711 0 3790.45744522 0 15593.80908220 0 -3320.63629134 0 8758.01070368 0 1302
0.03450000 0.03451200 52047.65103355 0 -720.13869232 0 21409.15165249 0 2335.15536220 0 2949.72022899 0 1339
0.03550000 0.03553350 49982.00215963 0 -305.50842492 0 16851.76233422 0 2020.05191314 0 -479.27557550 0 1365
0.03650000 0.03647120 51468.54436706 0 1986.85653480 0 17264.45272610 0 1877.70283705 0 -1550.62620387 0 1308
0.03750000 0.03744890 47673.81392311 0 1263.43455373 0 11607.94707533 0 3313.10087455 0 1211.43358713 0 1579
0.03850000 0.03847530 48391.65574130 0 -1351.46491840 0 13998.51960621 0 3584.51867846 0 462.14952839 0 1662
0.03950000 0.03950240 46495.49882231 0 1682.25433711 0 13205.54331157 0 2040.57109472 0 3517.00749538 0 1683
0.04050000 0.04050350 47326.70142954 0 120.99177161 0 15072.59111322 0 -2936.95615565 0 8115.75372942 0 1822
0.04150000 0.04152450 45408.24582821 0 640.19297307 0 11536.43750783 0 540.08067702 0 -115.46543315 0 1887
0.04250000 0.04250150 46293.38268681 0 2047.94174292 0 14790.17775215 0 -2132.54492094 0 2942.32761164 0 1920
0.04350000 0.04349210 42382.32561923 0 2000.43346651 0 17380.55965828 0 -2080.59887720 0 4846.42637661 0 2005
0.04450000 0.04448520 40687.62576138 0 891.07072471 0 20046.40557805 0 1722.26015046 0 4266.47389803 0 2151
0.04550000 0.04548030 41242.23683101 0 540.69141926 0 19581.97784931 0 2705.52219593 0 1888.34688789 0 2274
0.04650000 0.04648670 38476.32145503 0 1269.24539263 0 21542.83390080 0 815.82310716 0 6115.62783095 0 2311
0.04750000 0.04749250 39559.18062009 0 196.46676982 0 17410.65738715 0 2334.40841127 0 5895.11253637 0 2568
0.04850000 0.04851840 37734.09388570 0 -180.33812190 0 16782.55952695 0 1053.71709401 0 4507.99169538 0 2493
0.04950000 0.04949480 38369.22187236 0 1554.21815911 0 18582.38174441 0 -2327.77372943 0 2452.23992135 0 2644
0.05050000 0.05050630 36184.61007738 0 958.38967778 0 17293.01261481 0 -989.77919239 0 1972.21409954 0 2829
0.05150000 0.05149060 35245.64881313 0 -277.30114099 0 16743.78398574 0 1301.99040349 0 -45.27994602 0 2784
0.05250000 0.05249300 35601.98834767 0 -690.57920750 0 15257.02208686 0 2326.92791734 0 -3718.96984686 0 3055
0.05350000 0.05348950 36207.56783408 0 635.25211232 0 15766.37671745 0 1070.23130043 0 -4433.04395665 0 3009
0.05450000 0.05448610 34503.31139808 0 1269.53099152 0 13647.12312934 0 -1736.24351135 0 -5227.90959778 0 3336
0.05550000 0.05550870 34201.67503500 0 472.13999715 0 13962.05082524 0 46.91873440 0 -3091.58598387 0 3349
0.05650000 0.05647670 34324.48255646 0 523.27867480 0 14320.25773712 0 837.38142931 0 -5278.51552367 0 3324
0.05750000 0.05747970 32983.59578145 0 -467.44519083 0 13536.28879199 0 2753.65659298 0 -2060.91452314 0 3639
0.05850000 0.05849280 33760.09521723 0 -1072.47984244 0 11297.63289991 0 3265.93311988 0 -1345.57718750 0 3846
0.05950000 0.05951020 34866.02198472 0 253.95562888 0 11230.84669862 0 -143.56177289 0 -4151.79496028 0 3787
0.06050000 0.06049470 33130.02013396 0 1656.49551441 0 11840.27078543 0 -4593.81416095 0 -1099.76442227 0 3930
0.06150000 0.06148310 31828.45812880 0 1917.58782010 0 14247.64971236 0 -603.23757554 0 -3524.14746755 0 4083
0.06250000 0.06249100 31336.45912288 0 -501.62698379 0 16272.98520491 0 -1023.48974718 0 -4371.37656618 0 4303
0.06350000 0.06350600 31750.46766347 0 657.36076156 0 16319.01056402 0 1179.43552720 0 -5786.02474607 0 4470
0.06450000 0.06451750 31479.91764079 0 -1431.52048337 0 13742.35937362 0 2469.15616312 0 -3449.58418887 0 4479
0.06550000 0.06550280 32522.24373303 0 -230.59583683 0 12698.16590403 0 44.34592781 0 -6377.80760932 0 4636
0.06650000 0.06648880 31822.85599678 0 1666.64525948 0 11795.67342075 0 170.82987587 0 -3152.03408679 0 4653
0.06750000 0.06749660 30548.75542307 0 650.31745362 0 13535.41002618 0 1300.54043991 0 -2352.66477090 0 5220
0.06850000 0.06852730 30622.68159654 0 185.79855293 0 13233.22443447 0 172.11067703 0 -3035.20217281 0 5029
0.06950000 0.06949320 29026.73304620 0 1052.55163086 0 12570.08578773 0 680.53601279 0 -2334.63908729 0 5040
0.07050000 0.07048030 28296.14912381 0 -366.91877639 0 12450.79332950 0 1518.84783539 0 -665.17079266 0 5475
0.07150000 0.07148790 28332.83759624 0 236.12107684 0 11345.41579064 0 1328.41928512 0 -539.96533901 0 5509
0.07250000 0.07249820 27700.34590700 0 662.28404699 0 11724.27369897 0 239.90416363 0 544.88313215 0 5916
0.07350000 0.07351270 27107.28883334 0 494.14429294 0 10074.10529837 0 1459.46523602 0 1308.98757623 0 5721
0.07450000 0.07449140 27143.53792285 0 248.19092519 0 10145.59289673 0 970.53531968 0 1162.60716201 0 6028
0.07550000 0.07549160 27028.41960220 0 -608.50248117 0 8820.09550791 0 1002.67068677 0 1507.51175649 0 6183
0.07650000 0.07648840 26236.65161054 0 661.93473758 0 9222.16381810 0 -138.16505239 0 1513.87182402 0 6330
0.07750000 0.07749960 25996.30916246 0 667.28751980 0 8708.04188301 0 -331.94279884 0 2717.97870124 0 6583
0.07850000 0.07848650 25428.84614291 0 568.95033068 0 9676.29900233 0 -434.11909607 0 768.18521279 0 6549
0.07950000 0.07947320 23995.35942104 0 131.37438962 0 9611.55593154 0 69.81135258 0 135.71329579 0 6828
0.08050000 0.08048110 24462.09391002 0 525.18010431 0 9807.30101494 0 58.79492474 0 1190.58486837 0 7147
0.08150000 0.08149960 22927.76881186 0 1156.28004820 0 10144.45050118 0 -307.41314980 0 1089.66740315 0 7386
0.08250000 0.08250610 22961.49144968 0 437.11788439 0 10923.78395668 0 410.81312843 0 1383.95728410 0 7227
0.08350000 0.08350160 22224.20693803 0 -172.51490930 0 10117.51632921 0 1148.92038457 0 668.29150973 0 7798
0.08450000 0.08449610 22408.08868304 0 45.77765700 0 9953.95604347 0 205.03803180 0 455.30394275 0 7371
0.08550000 0.08548940 22197.18488948 0 231.36146154 0 9770.67844995 0 347.60570088 0 1312.51362403 0 8256
0.08650000 0.08650700 21539.64837476 0 205.88823772 0 9102.19031637 0 -488.61026528 0 1425.46798388 0 8037
0.08750000 0.08749060 21145.19237336 0 321.47450117 0 9535.64155043 0 633.73953668 0 778.41075140 0 8155
0.08850000 0.08849210 21368.94811684 0 492.71190468 0 9234.38964739 0 361.21448785 0 353.10567637 0 8718
0.08950000 0.08949900 20623.09563857 0 200.96055846 0 9453.22430235 0 369.02671587 0 1805.87471695 0 8571
0.09050000 0.09049190 19843.41067674 0 203.27610636 0 9060.33909483 0 1033.22317695 0 1061.08444684 0 8932
0.09150000 0.09150830 19662.38492060 0 462.97666670 0 9407.72620272 0 406.14358662 0 2228.08873325 0 9285
0.09250000 0.09250820 18910.71061886 0 705.54239227 0 8478.13477888 0 -147.14054664 0 1922.23429430 0 9204
0.09350000 0.09350330 19075.25951613 0 -57.85936869 0 9214.46363272 0 630.05750795 0 2570.26915374 0 9349
0.09450000 0.09448040 18496.92176972 0 -22.04504856 0 7802.44076568 0 850.41682159 0 2525.57292790 0 9564
0.09550000 0.09549270 18790.31970337 0 -53.05262958 0 8362.90661250 0 495.50747840 0 1305.49448215 0 10155
0.09650000 0.09649430 18512.19032561 0 515.41152392 0 7579.59674172 0 -516.46823980 0 1456.59826258 0 9913
0.09750000 0.09749140 18143.10868688 0 18.61423700 0 7387.12506095 0 -263.06952875 0 1218.40879072 0 10476
0.09850000 0.09850240 18128.82874252 0 -264.34703454 0 7437.82984799 0 1133.64084411 0 1388.10945253 0 10575
0.09950000 0.09950330 18102.46576833 0 -119.22105851 0 6879.64879227 0 495.75353283 0 568.09792785 0 10882
0.10050000 0.10051200 17987.01791050 0 266.88337235 0 5904.15283961 0 329.61846328 0 245.69303338 0 10875
0.10150000 0.10150300 18096.53409913 0 470.67465517 0 6361.46256532 0 -122.36484318 0 -441.86102283 0 11118
0.10250000 0.10250800 16912.72671204 0 731.61757067 0 6986.12225430 0 -535.24636663 0 348.53060189 0 11575
0.10350000 0.10349800 16911.51840906 0 379.73667414 0 7350.43658853 0 -818.27596222 0 -308.94659614 0 11364
0.10450000 0.10450100 15880.72611803 0 396.08501351 0 7246.64336221 0 231.16044386 0 44.12140315 0 12093
0.10550000 0.10551000 15611.05486115 0 95.49668850 0 6681.43218004 0 780.97455064 0 -653.29427279 0 12067
0.10650000 0.10649700 15253.39717790 0 -54.22863792 0 6401.19376434 0 1032.66406220 0 48.51105805 0 12054
0.10750000 0.10749900 15223.40929476 0 462.79102742 0 6051.80746425 0 562.36507942 0 1107.67331453 0 12807
0.10850000 0.10850100 14669.89668238 0 182.37466165 0 6018.78783907 0 -334.31546651 0 1207.05074267 0 12736
0.10950000 0.10950300 14650.45398891 0 158.57988053 0 5265.57569717 0 843.35923371 0 714.04994374 0 12933
0.11050000 0.11050200 14394.95283067 0 134.88286210 0 5288.63231501 0 456.83848754 0 964.78489593 0 13428
0.11150000 0.11150900 14404.94879172 0 -50.01583464 0 5129.59767318 0 461.84855110 0 1402.03789056 0 13453
0.11250000 0.11250000 14425.81947963 0 -450.08077849 0 3880.79457013 0 429.91200477 0 848.94159349 0 13668
0.11350000 0.11349100 14596.73942899 0 78.49114215 0 4185.07821520 0 -78.12755279 0 996.15463831 0 13791
0.11450000 0.11448600 14409.12292930 0 321.66343581 0 3986.21351319 0 -361.26611534 0 670.26324051 0 14205
0.11550000 0.11549300 14584.32686198 0 148.33237277 0 4912.01525949 0 -380.39025621 0 68.71717931 0 14776
0.11650000 0.11649800 14538.74088576 0 51.85838685 0 4604.24950491 0 -536.99291367 0 -776.49833732 0 14553
0.11750000 0.11747300 14302.35288381 0 171.81189666 0 5371.79651403 0 -405.48561072 0 -1378.59681268 0 14568
0.11850000 0.11849100 14148.56886767 0 100.97041086 0 5194.86800346 0 -116.22556557 0 -1279.09855423 0 16015
0.11950000 0.11950300 13946.01334927 0 -139.49748104 0 5464.51729119 0 40.34018373 0 -949.30653471 0 15270
0.12050000 0.12050700 14056.40830372 0 312.94278364 0 5284.43620829 0 832.34390432 0 -1627.58411938 0 15999
0.12150000 0.12150000 13837.59561790 0 309.38268367 0 5101.45519823 0 -211.05757758 0 -866.82557611 0 15670
0.12250000 0.12250700 13301.65832165 0 266.91193224 0 5574.33006328 0 23.00806604 0 -659.27317564 0 16887
0.12350000 0.12352200 13220.04294737 0 -52.83590396 0 4954.21798735 0 778.76884847 0 -11.47239745 0 16407
0.12450000 0.12449800 13205.32362011 0 -66.54278317 0 4693.52112627 0 838.32829946 0 530.78333479 0 16306
0.12550000 0.12549900 13442.91992505 0 -78.83144420 0 4068.79552986 0 644.78232750 0 705.36663911 0 17523
0.12650000 0.12650100 13234.76227463 0 62.12709483 0 4042.33369451 0 157.52865693 0 1025.30330011 0 17154
0.12750000 0.12750600 13107.78061559 0 307.53947239 0 4350.20929482 0 -374.38059655 0 1177.37042756 0 18007
0.12850000 0.12850300 12679.05274774 0 169.66441272 0 4405.82418580 0 -458.44333360 0 923.53233361 0 17496
0.12950000 0.12949900 12604.35765419 0 241.72540577 0 4539.80301757 0 291.60085757 0 855.95414463 0 18405
0.13050000 0.13049000 12454.08870128 0 148.86292762 0 4673.96858708 0 -62.37007358 0 822.95099631 0 18100
0.13150000 0.13148800 12736.61190807 0 -27.22042993 0 4140.67857283 0 502.09822195 0 677.78547582 0 19059
0.13250000 0.13249300 12508.79187273 0 -134.05572378 0 4326.62541748 0 222.27722001 0 324.70067013 0 18957
0.13350000 0.13349100 12336.11439175 0 140.42897279 0 3873.36899906 0 -29.58452964 0 392.28654831 0 19468
0.13450000 0.13450700 12067.87112932 0 144.66023015 0 3703.15206234 0 109.91053479 0 642.79851369 0 19953
0.13550000 0.13551000 12017.01255826 0 171.55815303 0 3587.39663648 0 300.53790583 0 -296.68232085 0 19956
0.13650000 0.13649900 11982.41115463 0 188.83359033 0 3560.81397083 0 -399.81976819 0 -669.17027554 0 19723
0.13750000 0.13749600 11634.96912388 0 107.26347249 0 3160.48122310 0 -142.39081746 0 -195.66269911 0 20946
0.13850000 0.13851100 11384.74056048 0 22.05119992 0 3220.05056021 0 354.17337683 0 -795.42255896 0 20955
0.13950000 0.13949800 11362.55172387 0 183.09964344 0 3049.04273427 0 243.67626586 0 -1143.14249940 0 20506
0.14050000 0.14048300 11202.94588426 0 286.61825545 0 3087.11526283 0 -110.13132470 0 -765.40391901 0 21447
0.14150000 0.14148400 10938.29457706 0 53.08591283 0 3159.93199448 0 43.89072713 0 -319.96522089 0 21771
0.14250000 0.14249400 10940.21687726 0 -81.21213062 0 3007.19151273 0 452.43587085 0 -305.91046028 0 22470
0.14350000 0.14350900 10702.91715579 0 -41.70424795 0 2702.65522249 0 412.25540281 0 247.58237987 0 22519
0.14450000 0.14449900 10968.59002824 0 245.13062327 0 2740.89251964 0 -95.39244490 0 223.40972945 0 22218
0.14550000 0.14550500 10737.46363655 0 190.14295138 0 3209.12091049 0 -260.32668098 0 22.84153992 0 23559
0.14650000 0.14650700 10435.11327625 0 242.20762850 0 3347.58144788 0 -239.73390276 0 632.21268109 0 23044
0.14750000 0.14750500 10419.05383114 0 86.01502514 0 3496.08188461 0 -153.10077572 0 -124.14763931 0 23649
0.14850000 0.14849900 10328.13452388 0 -83.66663336 0 3577.36772171 0 23.81169737 0 421.69664294 0 23640
0.14950000 0.14949500 10277.39678313 0 170.15762003 0 3575.32459121 0 141.27258797 0 -627.05212889 0 24457
0.15050000 0.15050000 10068.23953661 0 180.46114911 0 3499.32233352 0 47.26046446 0 381.13171485 0 24591
0.15150000 0.15149900 9852.16200936 0 131.89725527 0 3456.40560845 0 20.00378544 0 -149.06394530 0 25020
0.15250000 0.15250500 9797.85428252 0 153.35012552 0 3580.97066152 0 161.64787165 0 -286.63473231 0 25297
0.15350000 0.15350100 9435.68193994 0 41.70644487 0 3259.11170031 0 181.33991492 0 -24.86687541 0 25452
0.15450000 0.15450400 9297.34223285 0 205.84320097 0 3197.37840240 0 141.98988056 0 203.61003737 0 26061
0.15550000 0.15549900 9102.15736265 0 173.31458619 0 3154.04426357 0 -49.74825046 0 -42.61596748 0 26128
0.15650000 0.15649500 9076.02506448 0 68.09391466 0 3269.44818311 0 239.26925534 0 -242.42182767 0 26331
0.15750000 0.15749700 9001.29701721 0 65.93918090 0 3009.06987464 0 98.49954110 0 -141.47031028 0 27345
0.15850000 0.15849900 8829.52027118 0 61.54117773 0 2618.01909075 0 96.97587104 0 112.29638396 0 26980
0.15950000 0.15949700 8768.96232254 0 -10.75926801 0 2886.92142754 0 80.58809705 0 -255.43085698 0 27777
0.16050000 0.16050000 8621.75806538 0 163.03851854 0 2653.55418305 0 -59.27538995 0 -392.21295167 0 28224
0.16150000 0.16150500 8498.82971362 0 235.26647709 0 2686.23328648 0 -143.80343349 0 -141.06497955 0 28075
0.16250000 0.16249700 8314.83812288 0 -10.97531259 0 2809.60102114 0 110.83873117 0 120.77537553 0 28590
0.16350000 0.16349900 8453.55130544 0 -31.51418951 0 2470.00197521 0 465.62065332 0 -429.40232061 0 29163
0.16450000 0.16449100 8413.18300120 0 36.97495007 0 2451.71266187 0 -16.61921893 0 -163.00117099 0 28996
0.16550000 0.16550500 8301.17331459 0 104.02994386 0 2234.50372364 0 11.92946551 0 91.78675895 0 30777
0.16650000 0.16650700 8442.62165572 0 -198.31437493 0 2278.40906025 0 527.80102333 0 217.67358564 0 29211
0.16750000 0.16749900 8455.17702218 0 36.55500986 0 1998.32442857 0 4.28427989 0 -295.74863218 0 30922
0.16850000 0.16850800 8415.28105457 0 252.98239575 0 2274.97088903 0 -318.41969153 0 63.39603266 0 30867
0.16950000 0.16949900 8238.36352857 0 32.44293512 0 2289.51446313 0 -439.14783340 0 -106.19796895 0 30852
0.17050000 0.17049200 8149.82787357 0 165.17831328 0 2743.96819996 0 94.95547861 0 -215.13175555 0 31257
0.17150000 0.17149500 8254.87334116 0 -32.40262174 0 2740.42018302 0 42.82324636 0 -183.00847149 0 32608
0.17250000 0.17250900 8176.80598383 0 -18.78812279 0 2693.08765977 0 132.21690633 0 -412.84966818 0 32361
0.17350000 0.17350400 8049.54971047 0 10.46354135 0 2598.38965954 0 204.14937988 0 235.56415901 0 32508
0.17450000 0.17449800 8100.52911182 0 57.47677603 0 2656.21244961 0 -121.35536096 0 -19.95248748 0 32791
0.17550000 0.17549800 8053.33938801 0 265.01929038 0 2671.76660439 0 189.64315333 0 391.21006020 0 33633
0.17650000 0.17650100 7916.82311997 0 79.36287783 0 2584.98848099 0 2.04662359 0 223.96005653 0 33984
0.17750000 0.17750300 7779.69171587 0 -43.64423332 0 2579.58407128 0 276.99247450 0 482.91366594 0 34069
0.17850000 0.17849800 7877.69607244 0 -70.74317388 0 2343.02031617 0 308.64891422 0 249.29377628 0 34536
