### header ###
fiducial parameters:
Omega_m = 0.31
Omega_nu = 0
Omega_de = 0.69
Omega_k = 0
H_0 = 100
w_de = -1
zeff = 0
beta = 0
fgrowth = 0
b_1 = 2
gamma = 0.55
Lx = 3500 Ly = 3500 Lz = 3500
nx = 700 ny = 700 nz = 700
xoffset = -983.599254 yoffset = -42.9823471 zoffset = 800.977702
bins = 400 dk = 0.001
kx_ny = 0.628318531 ky_ny = 0.628318531 kz_ny = 0.628318531
############################
A(data) = 9.00668751 (not used)
A(ran) = 9.01202172 (used)
Ngal = 500908
weighted Ngal = 0
Nran = 25229228
weighted Nran = 0
SN(data) = 6752.29959
SN(ran) = 133.777254
SN(data+ran) = 6886.07685
############################
13 columns: k_central k_mean P_0(k) sigma^{lin}_{P_0(k)} P^img_1(k) sigma^{lin}_{P_1(k)} P_2(k) sigma^{lin}_{P_2(k)} P^img_3(k) sigma^{lin}_{P_3(k)} P_4(k) sigma^{lin}_{P_4(k)} N_modes
### header ###
0.00050000 0 0 0 0 0 0 0 0 0 0 0 0
0.00150000 0.00179520 7089.34428285 0 5746.89769853 0 10206.78795058 0 4473.63195234 0 -11059.81690353 0 3
0.00250000 0.00253879 24107.51190710 0 -10810.26938362 0 -14232.05161929 0 -21340.27838240 0 2348.42472588 0 6
0.00350000 0.00331552 23455.24798722 0 -8826.25785313 0 -16237.50503547 0 284.85962538 0 -16568.68989879 0 7
0.00450000 0.00420575 49147.50418062 0 -15641.26243575 0 -17622.33010080 0 -17104.84688649 0 -14242.92634615 0 24
0.00550000 0.00557378 53431.92687025 0 2980.81755396 0 -6850.49573664 0 -26955.59188599 0 -1239.51015465 0 45
0.00650000 0.00659388 68343.15461225 0 -2289.53643227 0 3148.68379215 0 2490.37835735 0 21492.63440411 0 40
0.00750000 0.00754703 58433.64214944 0 -1871.03520150 0 14945.60945418 0 -11073.76731070 0 -8285.64112896 0 57
0.00850000 0.00846663 53619.43352421 0 5952.29822123 0 15992.21952973 0 26246.86726304 0 12314.47478377 0 75
0.00950000 0.00948925 62348.65366316 0 -5806.49998936 0 3214.29464418 0 4199.36914413 0 18530.86409900 0 112
0.01050000 0.01054430 67267.87480226 0 -8721.12450895 0 16109.75445635 0 7302.34612977 0 7538.54739399 0 105
0.01150000 0.01145670 67734.49944551 0 3866.64644064 0 2671.50297465 0 -1400.52201955 0 8563.44096954 0 144
0.01250000 0.01249090 70586.75356199 0 3911.58432707 0 12555.25661475 0 -7444.34369953 0 23176.12999792 0 169
0.01350000 0.01339930 67738.56373737 0 -797.02960193 0 1206.24886888 0 16741.91660840 0 8388.97300323 0 180
0.01450000 0.01448870 71132.02774492 0 -2346.24978051 0 11253.25522668 0 -3889.80191964 0 -4340.44400979 0 267
0.01550000 0.01550050 62057.12310685 0 7092.10141056 0 1526.44915962 0 -13411.28435601 0 8183.57248054 0 238
0.01650000 0.01653350 56874.93130015 0 4314.94881683 0 25386.99492137 0 -4603.22793966 0 1270.66240249 0 315
0.01750000 0.01747870 52399.15735615 0 -3582.44259424 0 10442.11044899 0 6959.80321839 0 4274.36082114 0 297
0.01850000 0.01844180 62040.53640225 0 -539.75992750 0 21128.27613158 0 2081.32385900 0 -13493.77849610 0 388
0.01950000 0.01947590 61821.39417925 0 3825.12475628 0 18690.57978433 0 2003.14665593 0 -2474.70337228 0 399
0.02050000 0.02045430 62584.93181938 0 -3268.11904983 0 16851.21310559 0 2493.95932801 0 -248.22278045 0 462
0.02150000 0.02154770 66833.76449384 0 -2724.14104646 0 14004.23158395 0 5757.53076479 0 -2168.21182811 0 571
0.02250000 0.02255340 69464.67947280 0 -382.01597295 0 16572.42465347 0 -5146.34914637 0 -12206.93581820 0 510
0.02350000 0.02348930 65431.25426666 0 2319.45840799 0 20048.27295539 0 -10930.34174651 0 -777.03877829 0 555
0.02450000 0.02439640 65395.11502287 0 4306.16115877 0 25099.41881119 0 984.99870640 0 8561.72737622 0 592
0.02550000 0.02547300 64341.80435804 0 1317.10517537 0 33847.64226070 0 3792.32482256 0 -1390.42719735 0 837
0.02650000 0.02652900 67782.39218197 0 -2606.96861073 0 27778.33637233 0 6716.59379687 0 759.94788181 0 723
0.02750000 0.02749970 67797.66073786 0 214.75168934 0 23009.60387759 0 500.03092539 0 -6131.02820170 0 826
0.02850000 0.02848090 64058.62207689 0 2947.00703956 0 27824.25188572 0 -5064.97543268 0 8641.02500569 0 831
0.02950000 0.02946900 64502.39880918 0 1627.33147421 0 33729.88764263 0 3494.75275133 0 -994.58713981 0 996
0.03050000 0.03053250 58936.18634504 0 915.17966461 0 28831.64703715 0 4707.10904256 0 2935.39634634 0 1041
0.03150000 0.03150510 57622.76100148 0 3654.73206640 0 29900.11641214 0 -1289.10549986 0 -1629.06703668 0 1036
0.03250000 0.03246190 55645.64778257 0 1609.06413001 0 25837.47224293 0 -601.53276987 0 2690.00099487 0 1059
0.03350000 0.03345080 53228.05320314 0 589.16853497 0 26664.50071258 0 7112.41188527 0 -1846.77028067 0 1302
0.03450000 0.03451200 54486.99506669 0 177.22619248 0 18154.20310519 0 1536.67579669 0 -7962.39811161 0 1339
0.03550000 0.03553350 51733.16272055 0 1468.19797122 0 21415.30301314 0 648.37977502 0 -2628.13588209 0 1365
0.03650000 0.03647120 46801.74870588 0 1295.50950567 0 16356.46795652 0 -522.66463719 0 -3850.14761262 0 1308
0.03750000 0.03744890 47767.73201868 0 -303.01163157 0 16059.99434255 0 3879.93777346 0 -4319.59529103 0 1579
0.03850000 0.03847530 47541.01044060 0 1372.10493028 0 15354.34539993 0 1473.29481290 0 -2118.57254462 0 1662
0.03950000 0.03950240 45761.83921960 0 1560.43542719 0 14601.79233238 0 2471.33110850 0 -4551.49060280 0 1683
0.04050000 0.04050350 45839.50014775 0 408.71946889 0 15886.98732440 0 621.03587849 0 3770.60832256 0 1822
0.04150000 0.04152450 44576.93337525 0 703.87713107 0 13957.54715048 0 1981.96840000 0 1725.20401591 0 1887
0.04250000 0.04250150 45294.77519344 0 221.23148870 0 19308.13245486 0 -2379.62091201 0 5502.43603574 0 1920
0.04350000 0.04349210 42656.28085940 0 1132.26777254 0 15953.66367997 0 1287.27107624 0 4939.34487607 0 2005
0.04450000 0.04448520 41556.28576111 0 524.54958985 0 19290.11775582 0 1614.35869399 0 8123.23422335 0 2151
0.04550000 0.04548030 41734.12599120 0 853.01796838 0 20814.77643011 0 -893.08309841 0 4543.84534028 0 2274
0.04650000 0.04648670 39983.95404182 0 2057.59718222 0 21153.21111134 0 774.67050444 0 6728.46811983 0 2311
0.04750000 0.04749250 38881.76202900 0 617.28245004 0 22006.16317229 0 2238.88656810 0 11030.92747764 0 2568
0.04850000 0.04851840 37403.67794246 0 -51.72964766 0 20193.70869636 0 3222.18156729 0 6133.89517515 0 2493
0.04950000 0.04949480 38857.37627787 0 366.49367343 0 19077.45643065 0 1013.04122174 0 7614.34094480 0 2644
0.05050000 0.05050630 37671.92120489 0 460.64134657 0 16689.84973437 0 2683.35532846 0 7368.11076582 0 2829
0.05150000 0.05149060 37228.03462688 0 -728.12227967 0 16076.47120142 0 1295.31178336 0 9738.12017682 0 2784
0.05250000 0.05249300 37253.51883527 0 -256.38431788 0 12337.87192336 0 4279.53455483 0 6418.59332731 0 3055
0.05350000 0.05348950 35876.49281647 0 3.88767091 0 15559.31752430 0 -3055.85316927 0 4594.48421988 0 3009
0.05450000 0.05448610 35198.85453393 0 3063.23480204 0 13035.72181946 0 -194.21273552 0 3726.10981904 0 3336
0.05550000 0.05550870 35432.71608419 0 1314.88629170 0 16184.44954990 0 -2640.41663424 0 3227.54203871 0 3349
0.05650000 0.05647670 32334.29769617 0 -923.89482450 0 14582.67917609 0 797.56784599 0 1294.02658837 0 3324
0.05750000 0.05747970 33739.33437505 0 -651.55431649 0 14139.89105533 0 3523.98269897 0 133.85360765 0 3639
0.05850000 0.05849280 33812.05224554 0 456.64406061 0 11277.53113209 0 1383.45199376 0 2391.31948181 0 3846
0.05950000 0.05951020 33660.79468109 0 275.07786350 0 11056.85106893 0 523.43795110 0 1753.26959885 0 3787
0.06050000 0.06049470 32968.65676274 0 -113.88804852 0 9231.68744253 0 2493.72865199 0 3288.60527769 0 3930
0.06150000 0.06148310 34494.08435711 0 106.47346203 0 9716.05217050 0 1564.75236421 0 -652.25952605 0 4083
0.06250000 0.06249100 32064.73628502 0 935.65820328 0 9372.61950875 0 -1016.53541428 0 4129.45233965 0 4303
0.06350000 0.06350600 32456.88552618 0 826.80987665 0 9737.73571678 0 -942.95525484 0 916.50550253 0 4470
0.06450000 0.06451750 30860.60743865 0 553.06663873 0 11216.78644571 0 -2141.49734760 0 1334.33996975 0 4479
0.06550000 0.06550280 29076.71285144 0 1091.70174600 0 11889.26197914 0 -221.44458941 0 -252.14097749 0 4636
0.06650000 0.06648880 29783.02086842 0 10.95342033 0 11853.45227253 0 835.27458829 0 -1335.29562756 0 4653
0.06750000 0.06749660 29212.81170573 0 -2.93099153 0 12036.01586883 0 146.43533708 0 -981.26065635 0 5220
0.06850000 0.06852730 28377.87434382 0 796.30681705 0 12367.53026933 0 -336.70241414 0 -1345.74195609 0 5029
0.06950000 0.06949320 28656.66279593 0 -289.18425161 0 11672.86589929 0 903.92047772 0 -1259.82062935 0 5040
0.07050000 0.07048030 28598.44456125 0 336.47283657 0 11593.77697670 0 -244.82635061 0 -2502.86781638 0 5475
0.07150000 0.07148790 28291.42575760 0 547.68969045 0 11845.98276317 0 487.97096315 0 -1861.46763878 0 5509
0.07250000 0.07249820 27808.43410120 0 -170.33557010 0 11864.10730793 0 -133.05502922 0 -2938.09855119 0 5916
0.07350000 0.07351270 27325.55229053 0 1167.04492933 0 12244.17351925 0 65.74200782 0 -2908.85761898 0 5721
0.07450000 0.07449140 26253.12846941 0 279.11359546 0 11251.27800362 0 388.75610668 0 42.43241527 0 6028
0.07550000 0.07549160 26658.01981476 0 -710.17568499 0 10211.35753277 0 3002.51208481 0 -582.39105369 0 6183
0.07650000 0.07648840 26997.99233615 0 107.18789863 0 9065.16132220 0 1768.47224731 0 -1452.18246440 0 6330
0.07750000 0.07749960 26132.07847956 0 1190.90342098 0 9622.15604408 0 -384.24364427 0 767.59424278 0 6583
0.07850000 0.07848650 24563.15197777 0 562.95495096 0 8696.87057269 0 -166.19878007 0 4129.25461734 0 6549
0.07950000 0.07947320 24889.28393771 0 -545.71576276 0 9690.30433237 0 1462.27728660 0 1003.26714906 0 6828
0.08050000 0.08048110 24442.98075373 0 790.47400901 0 8780.75975349 0 -58.08949549 0 1391.53663918 0 7147
0.08150000 0.08149960 23866.07100176 0 785.18823269 0 9207.57630571 0 59.32525991 0 1207.12763468 0 7386
0.08250000 0.08250610 23408.01432512 0 96.85580966 0 9977.37515221 0 -651.62351930 0 1248.17698242 0 7227
0.08350000 0.08350160 22666.22613870 0 503.05827359 0 9887.24673418 0 -718.42400054 0 1102.33481226 0 7798
0.08450000 0.08449610 22557.03948724 0 44.03978778 0 9955.34009962 0 903.71177084 0 1160.81667668 0 7371
0.08550000 0.08548940 22516.72610587 0 148.34116042 0 9012.46832752 0 1136.51880213 0 592.05747756 0 8256
0.08650000 0.08650700 22330.97698352 0 5.35719802 0 8601.12903807 0 973.65274138 0 273.00727156 0 8037
0.08750000 0.08749060 22169.17422939 0 225.07718756 0 8501.35616531 0 180.14039959 0 1268.93782460 0 8155
0.08850000 0.08849210 21070.05789690 0 750.48906636 0 7983.51046011 0 -477.47740097 0 1034.15686561 0 8718
0.08950000 0.08949900 20599.58865324 0 619.27065767 0 8422.37708845 0 82.48996595 0 993.15365308 0 8571
0.09050000 0.09049190 19977.31261651 0 475.40790749 0 8495.32563497 0 444.30069640 0 1880.25125789 0 8932
0.09150000 0.09150830 19614.82172133 0 -150.43701687 0 7908.39795280 0 939.12493438 0 1044.21214336 0 9285
0.09250000 0.09250820 19586.15198689 0 -163.19779484 0 7717.58494249 0 1010.67514481 0 1053.72698013 0 9204
0.09350000 0.09350330 18768.57024966 0 442.42782677 0 6686.84757432 0 198.17706777 0 629.05791184 0 9349
0.09450000 0.09448040 18797.45967555 0 878.23085782 0 7687.81675080 0 -484.30431283 0 2137.75160835 0 9564
0.09550000 0.09549270 17877.94110477 0 313.77980807 0 7112.88422189 0 -582.51078553 0 736.74956298 0 10155
0.09650000 0.09649430 17757.98957218 0 103.78334021 0 7646.04242127 0 945.95733853 0 1329.13328234 0 9913
0.09750000 0.09749140 17515.66990103 0 -113.80895960 0 6851.04496527 0 607.16565869 0 771.28176380 0 10476
0.09850000 0.09850240 17408.46047264 0 78.00837018 0 6426.35942013 0 289.48852427 0 1546.49600458 0 10575
0.09950000 0.09950330 17409.33923845 0 343.26020397 0 6215.81811746 0 680.04060857 0 762.10085804 0 10882
0.10050000 0.10051200 16976.32738729 0 7.42360483 0 5540.02524311 0 171.51751011 0 423.71231201 0 10875
0.10150000 0.10150300 17171.74293351 0 232.14246465 0 6258.36136707 0 -540.46513706 0 679.24752243 0 11118
0.10250000 0.10250800 16351.96428176 0 346.26009074 0 5970.23602826 0 -300.79933865 0 -227.07528132 0 11575
0.10350000 0.10349800 16333.29050838 0 -8.70671275 0 5562.36786374 0 351.92153945 0 -210.04370153 0 11364
0.10450000 0.10450100 15804.71287576 0 203.29807551 0 5760.58447597 0 639.01213152 0 -350.76815933 0 12093
0.10550000 0.10551000 15883.69195262 0 62.17257096 0 5057.58281534 0 600.23439339 0 773.39739248 0 12067
0.10650000 0.10649700 16042.41902642 0 26.45963843 0 5145.75597945 0 277.67132108 0 -679.81762174 0 12054
0.10750000 0.10749900 15865.56740786 0 180.37986327 0 4742.63315029 0 103.68744489 0 -190.03749949 0 12807
0.10850000 0.10850100 15814.15960818 0 204.09555548 0 4478.98143919 0 -155.36359768 0 -121.40589000 0 12736
0.10950000 0.10950300 14778.20456804 0 333.41473156 0 4988.63265324 0 -666.29671135 0 61.98341662 0 12933
0.11050000 0.11050200 15108.40081983 0 30.41869808 0 5065.30496986 0 520.34359701 0 -390.35985428 0 13428
0.11150000 0.11150900 14878.49371570 0 26.91220282 0 4531.11422066 0 39.27643772 0 -431.48279865 0 13453
0.11250000 0.11250000 14731.30044311 0 384.96533069 0 5311.87567060 0 158.82703341 0 198.30888264 0 13668
0.11350000 0.11349100 14127.47848832 0 420.03907094 0 5063.65728398 0 -23.08331036 0 803.31826973 0 13791
0.11450000 0.11448600 14441.85695560 0 -244.19693460 0 5133.89264106 0 767.40860351 0 697.37096873 0 14205
0.11550000 0.11549300 14403.30110583 0 -73.28423505 0 4987.60010342 0 634.78197262 0 611.12999093 0 14776
0.11650000 0.11649800 14472.50391310 0 50.47916391 0 4174.31333407 0 -96.29076325 0 907.66511851 0 14553
0.11750000 0.11747300 14298.39843768 0 -290.51118797 0 4688.00687084 0 -87.51639652 0 1110.62816455 0 14568
0.11850000 0.11849100 14230.62362486 0 465.16149819 0 4327.07578496 0 275.88742650 0 885.90468023 0 16015
0.11950000 0.11950300 13904.27197346 0 429.54951388 0 4442.20509019 0 -317.63319613 0 1157.66410435 0 15270
0.12050000 0.12050700 13608.45743385 0 252.71766755 0 4951.37298305 0 306.53548245 0 1004.21841304 0 15999
0.12150000 0.12150000 13544.96660433 0 38.59649268 0 4703.74776335 0 157.05192648 0 712.34184270 0 15670
0.12250000 0.12250700 13134.25343551 0 -43.34094927 0 4443.62210005 0 46.43365568 0 464.32337530 0 16887
0.12350000 0.12352200 13185.77108092 0 223.01867866 0 4551.96293942 0 -220.92062530 0 1483.62031113 0 16407
0.12450000 0.12449800 12940.26588373 0 -51.93000626 0 4427.77136181 0 539.51936536 0 1480.99499828 0 16306
0.12550000 0.12549900 13313.85119722 0 -72.14656287 0 4250.76595924 0 478.02553114 0 548.04668906 0 17523
0.12650000 0.12650100 12887.10055243 0 401.84861874 0 4121.09307992 0 -284.40156870 0 1185.93839417 0 17154
0.12750000 0.12750600 12907.97124034 0 56.29472618 0 3963.05803419 0 351.68097731 0 1550.76900332 0 18007
0.12850000 0.12850300 12761.10750492 0 -184.73304939 0 3984.62075016 0 599.33255998 0 1397.95162956 0 17496
0.12950000 0.12949900 12781.53880993 0 187.36165761 0 3704.47021105 0 376.45228694 0 1140.73687800 0 18405
0.13050000 0.13049000 12244.72274787 0 356.70532081 0 3447.31038235 0 -560.48122522 0 1805.76487122 0 18100
0.13150000 0.13148800 12145.20252029 0 372.18258357 0 4025.53828303 0 -152.04515830 0 1050.46566053 0 19059
0.13250000 0.13249300 11880.14478390 0 160.76581047 0 3870.68876335 0 -67.43637815 0 884.67770347 0 18957
0.13350000 0.13349100 11611.57198429 0 1.43168525 0 4101.58447901 0 152.56582704 0 660.63745956 0 19468
0.13450000 0.13450700 11563.78909356 0 11.39693344 0 3613.41908892 0 217.64832113 0 984.76803037 0 19953
0.13550000 0.13551000 11550.71745219 0 -122.89429958 0 3691.39856968 0 563.52834565 0 1003.44509913 0 19956
0.13650000 0.13649900 11838.29356237 0 155.26803189 0 3165.95154025 0 263.48804097 0 473.54272707 0 19723
0.13750000 0.13749600 11731.96289978 0 44.94359841 0 3609.65138053 0 -352.15001856 0 928.95431863 0 20946
0.13850000 0.13851100 11510.73360799 0 -56.76574465 0 3122.37574082 0 -56.52562189 0 918.99790204 0 20955
0.13950000 0.13949800 11493.70752049 0 280.63605722 0 3619.94392504 0 86.83084934 0 773.24800229 0 20506
0.14050000 0.14048300 11321.79895959 0 221.34353134 0 3368.86954954 0 -112.14699377 0 844.36981438 0 21447
0.14150000 0.14148400 11116.93668095 0 106.65723393 0 3564.94417012 0 486.83955218 0 1268.83896344 0 21771
0.14250000 0.14249400 10873.03523135 0 90.99356297 0 3263.31879161 0 440.39677930 0 967.52334988 0 22470
0.14350000 0.14350900 10650.58665201 0 126.44011961 0 3142.69720009 0 20.54202949 0 1255.27301631 0 22519
0.14450000 0.14449900 10439.62793558 0 182.73605409 0 2811.10590758 0 184.38044461 0 1160.19055604 0 22218
0.14550000 0.14550500 10265.33572243 0 120.56996402 0 2879.70456335 0 37.15817275 0 1283.75601301 0 23559
0.14650000 0.14650700 10040.29478396 0 95.97275987 0 2471.67163025 0 265.82336110 0 1036.70089262 0 23044
0.14750000 0.14750500 10103.08260084 0 87.27177008 0 2339.57116038 0 116.16844579 0 992.33420397 0 23649
0.14850000 0.14849900 9767.84443023 0 123.27875962 0 2491.61961405 0 -59.53231910 0 574.16910111 0 23640
0.14950000 0.14949500 9779.96041378 0 178.62123320 0 2122.55994447 0 48.59366203 0 486.70114656 0 24457
0.15050000 0.15050000 9629.10927852 0 -74.65994292 0 2142.16740652 0 13.70347399 0 581.03445898 0 24591
0.15150000 0.15149900 9611.61085440 0 28.51957533 0 2072.66801580 0 192.03010095 0 465.62065332 0 25020
0.15250000 0.15250500 9581.33737237 0 140.78157757 0 2300.04866823 0 -24.70254620 0 554.03108420 0 25297
0.15350000 0.15350100 9313.26986309 0 40.42597324 0 2226.57286224 0 -176.77252964 0 513.28710758 0 25452
0.15450000 0.15450400 9515.78144320 0 101.64343562 0 2335.71557541 0 -237.08003002 0 421.05404544 0 26061
0.15550000 0.15549900 9303.75722324 0 85.59750153 0 2417.18815024 0 200.03346054 0 651.22148394 0 26128
0.15650000 0.15649500 9246.58252295 0 205.79486885 0 2627.32302372 0 202.47093719 0 748.14715549 0 26331
0.15750000 0.15749700 9292.56394378 0 33.42209992 0 2827.15436812 0 -364.87125206 0 1030.87137996 0 27345
0.15850000 0.15849900 9194.62549464 0 134.21060626 0 2865.11705096 0 136.82493453 0 298.52992596 0 26980
0.15950000 0.15949700 8692.63052767 0 148.02480473 0 3104.51482580 0 -475.58805448 0 705.87522482 0 27777
0.16050000 0.16050000 8706.56995028 0 135.35739563 0 3389.88303689 0 77.00295225 0 767.32182538 0 28224
0.16150000 0.16150500 8640.65153022 0 58.75153568 0 3209.50537053 0 354.65559956 0 628.80856205 0 28075
0.16250000 0.16249700 8813.72445581 0 1.33417520 0 3185.00977368 0 -15.88149504 0 410.94164793 0 28590
0.16350000 0.16349900 8674.17644574 0 -68.19705980 0 2705.64302623 0 137.37965545 0 131.16458428 0 29163
0.16450000 0.16449100 8676.82372773 0 42.63672832 0 2657.53059832 0 196.41953616 0 388.23873331 0 28996
0.16550000 0.16550500 8611.66324318 0 38.53530861 0 2233.62495784 0 123.64234898 0 509.89507157 0 30777
0.16650000 0.16650700 8591.59442907 0 -30.24272523 0 2300.96038776 0 325.35425220 0 177.44808085 0 29211
0.16750000 0.16749900 8620.84634585 0 218.97965132 0 2094.19777806 0 -127.03218807 0 -357.23697412 0 30922
0.16850000 0.16850800 8253.41239301 0 235.37412590 0 1999.93916074 0 -109.58659975 0 -95.78942736 0 30867
0.16950000 0.16949900 8117.84079821 0 -96.24473789 0 2065.48410533 0 7.56503120 0 -56.58230229 0 30852
0.17050000 0.17049200 8107.70203772 0 61.89674835 0 1916.73102344 0 187.17601833 0 -343.15255515 0 31257
0.17150000 0.17149500 7900.39019939 0 159.08956470 0 1932.62569996 0 -61.79777735 0 -326.92394762 0 32608
0.17250000 0.17250900 7991.13375348 0 40.77769926 0 1921.72900396 0 273.40271618 0 -116.73524974 0 32361
0.17350000 0.17350400 7825.72805955 0 -9.83683853 0 1635.47104249 0 89.86830335 0 -365.09204197 0 32508
0.17450000 0.17449800 7971.16380053 0 133.55372882 0 1902.89046198 0 4.56691294 0 194.32258125 0 32791
0.17550000 0.17549800 7662.25565040 0 139.30744793 0 1671.09401137 0 -15.98211372 0 234.36134831 0 33633
0.17650000 0.17650100 7709.18174447 0 8.77531141 0 1844.50745871 0 150.61716386 0 -118.38842791 0 33984
0.17750000 0.17750300 7631.46589345 0 123.10080955 0 1924.42022424 0 -225.30346976 0 1.30197942 0 34069
0.17850000 0.17849800 7511.07497796 0 133.99860401 0 1852.88868759 0 46.02799541 0 -99.86602193 0 34536
