### header ###
fiducial parameters:
Omega_m = 0.31
Omega_nu = 0
Omega_de = 0.69
Omega_k = 0
H_0 = 100
w_de = -1
zeff = 0
beta = 0
fgrowth = 0
b_1 = 2
gamma = 0.55
Lx = 3500 Ly = 3500 Lz = 3500
nx = 700 ny = 700 nz = 700
xoffset = -983.599254 yoffset = -42.9823471 zoffset = 800.977702
bins = 400 dk = 0.001
kx_ny = 0.628318531 ky_ny = 0.628318531 kz_ny = 0.628318531
############################
A(data) = 9.01815309 (not used)
A(ran) = 9.00059666 (used)
Ngal = 500352
weighted Ngal = 0
Nran = 25229228
weighted Nran = 0
SN(data) = 6774.79084
SN(ran) = 133.607657
SN(data+ran) = 6908.3985
############################
13 columns: k_central k_mean P_0(k) sigma^{lin}_{P_0(k)} P^img_1(k) sigma^{lin}_{P_1(k)} P_2(k) sigma^{lin}_{P_2(k)} P^img_3(k) sigma^{lin}_{P_3(k)} P_4(k) sigma^{lin}_{P_4(k)} N_modes
### header ###
0.00050000 0 0 0 0 0 0 0 0 0 0 0 0
0.00150000 0.00179520 53316.14947524 0 -40216.82698054 0 -20327.06140750 0 -22098.10404479 0 122967.89621910 0 3
0.00250000 0.00253879 56553.52270642 0 -20427.02101799 0 -45855.53762372 0 76429.33787228 0 35666.02840581 0 6
0.00350000 0.00331552 84070.31640558 0 -12423.77128095 0 13196.86549923 0 -36513.81771764 0 -46521.20272215 0 7
0.00450000 0.00420575 84629.65084143 0 -6508.80962192 0 -18435.62785472 0 -26801.25864122 0 908.72512977 0 24
0.00550000 0.00557378 83295.02527279 0 9670.96050006 0 143.77377515 0 -22980.82429743 0 -8659.53401049 0 45
0.00650000 0.00659388 61019.84991799 0 15659.38698051 0 19545.06968544 0 -30367.72966693 0 21779.66128566 0 40
0.00750000 0.00754703 59232.11073038 0 9832.04925696 0 33395.29756180 0 -862.43833782 0 -34110.17354539 0 57
0.00850000 0.00846663 49696.84265542 0 2714.29886942 0 42395.50710632 0 557.78011882 0 -5176.18324550 0 75
0.00950000 0.00948925 50447.85788280 0 -3683.50066199 0 40064.47095884 0 20661.43179688 0 -16594.17410718 0 112
0.01050000 0.01054430 61585.22586875 0 -12610.39916911 0 26791.37252590 0 16863.95520978 0 -18357.74723512 0 105
0.01150000 0.01145670 70927.27531201 0 -6628.20094131 0 23089.46172026 0 -4437.81126115 0 -20399.88912372 0 144
0.01250000 0.01249090 71615.01940133 0 12237.58277570 0 33741.20175239 0 -29481.60419679 0 -26872.98790018 0 169
0.01350000 0.01339930 70068.83096478 0 11726.03123058 0 39627.61450728 0 -19190.04829961 0 -13149.96137430 0 180
0.01450000 0.01448870 62499.36199897 0 -1201.05316604 0 54433.50019822 0 13507.39936610 0 -17148.78517682 0 267
0.01550000 0.01550050 72314.84652048 0 -10494.44095276 0 46270.09539294 0 15527.79180099 0 -26751.60837315 0 238
0.01650000 0.01653350 72440.61987654 0 2343.48166822 0 32582.87857368 0 8364.15885377 0 -15264.05221331 0 315
0.01750000 0.01747870 68713.55439969 0 11160.43558837 0 47289.13419131 0 1585.62305212 0 5631.61460929 0 297
0.01850000 0.01844180 56205.09206414 0 1666.63427490 0 38712.59961125 0 310.45807332 0 8890.18806555 0 388
0.01950000 0.01947590 64353.55785070 0 -3976.03081441 0 37421.47295004 0 21277.88601014 0 -4736.40489763 0 399
0.02050000 0.02045430 68915.78038091 0 -2611.08782545 0 31578.77879402 0 8778.44200868 0 -932.18268451 0 462
0.02150000 0.02154770 65489.91188424 0 493.34791143 0 25046.80270853 0 -3986.27942062 0 -779.15550543 0 571
0.02250000 0.02255340 62393.47071929 0 5468.88915107 0 27047.53275849 0 -5581.19542115 0 4137.02071016 0 510
0.02350000 0.02348930 59812.31585412 0 1403.00453295 0 21685.96288154 0 -586.46742858 0 -6828.44969947 0 555
0.02450000 0.02439640 59741.13582380 0 -2725.06375055 0 29717.99219874 0 14893.10319724 0 7663.37607680 0 592
0.02550000 0.02547300 67633.77091494 0 -6010.76910108 0 15366.97765840 0 14975.26780015 0 923.00836949 0 837
0.02650000 0.02652900 73061.90730174 0 -2487.77501365 0 15937.62620400 0 790.91558883 0 1183.69754137 0 723
0.02750000 0.02749970 67110.90526007 0 7871.69849581 0 2899.31202541 0 -17324.86787529 0 -11771.72705252 0 826
0.02850000 0.02848090 64356.96306820 0 6847.90337751 0 28827.47289957 0 -6567.51117780 0 7826.71667109 0 831
0.02950000 0.02946900 54655.05902718 0 1704.94846407 0 26433.71484265 0 44.51014717 0 5637.73301622 0 996
0.03050000 0.03053250 59312.62764740 0 -1496.68096793 0 30249.75535741 0 9356.58203278 0 -8747.89391233 0 1041
0.03150000 0.03150510 56047.24375614 0 2090.59483825 0 25687.64267292 0 3835.13170191 0 1016.00376097 0 1036
0.03250000 0.03246190 53062.95507724 0 1671.54437885 0 21613.24501105 0 1005.29160579 0 8671.23258028 0 1059
0.03350000 0.03345080 54433.93958112 0 959.00261693 0 26924.83508276 0 2796.00212028 0 8973.61589430 0 1302
0.03450000 0.03451200 53275.72624814 0 717.15967623 0 21520.42537274 0 4059.70030376 0 6697.52457887 0 1339
0.03550000 0.03553350 52979.58217135 0 -625.37478466 0 24500.10053115 0 3274.31434876 0 11378.69904556 0 1365
0.03650000 0.03647120 51968.89164814 0 248.57648369 0 22176.64373875 0 -1801.40399590 0 5726.44442439 0 1308
0.03750000 0.03744890 52076.76015089 0 1374.75221227 0 23315.52422398 0 4646.26549503 0 11327.18140016 0 1579
0.03850000 0.03847530 52139.70175178 0 -927.66692673 0 18070.28097066 0 2173.06700919 0 3892.62495480 0 1662
0.03950000 0.03950240 51306.19238431 0 1882.04174322 0 20876.50972802 0 -4422.97110360 0 3607.57529631 0 1683
0.04050000 0.04050350 47081.96515243 0 3925.22716622 0 20935.16734560 0 -4309.93985173 0 -1273.51839136 0 1822
0.04150000 0.04152450 44506.08288210 0 3155.73588775 0 27379.59638763 0 -1347.74114830 0 673.18953065 0 1887
0.04250000 0.04250150 41071.75626455 0 478.31442540 0 24926.52163876 0 299.37683650 0 -4798.05031896 0 1920
0.04350000 0.04349210 42683.96198231 0 -78.69336813 0 24002.16985604 0 8374.83585832 0 -1595.66295146 0 2005
0.04450000 0.04448520 41904.82624911 0 -3384.89604094 0 16759.27223308 0 6712.29882899 0 -689.56862682 0 2151
0.04550000 0.04548030 43970.91450594 0 438.39648864 0 13908.88549395 0 2742.05688434 0 459.00025143 0 2274
0.04650000 0.04648670 42115.51035122 0 3424.04505762 0 12641.26581806 0 -3946.49329873 0 -3346.92237353 0 2311
0.04750000 0.04749250 38593.63669019 0 2254.94601322 0 16141.49987111 0 -2521.40977489 0 -406.89932522 0 2568
0.04850000 0.04851840 36374.97272021 0 -116.94615353 0 16431.60243298 0 1685.80235406 0 391.05517772 0 2493
0.04950000 0.04949480 36123.97523673 0 830.16895895 0 17242.37373521 0 2013.03277126 0 -2884.19725354 0 2644
0.05050000 0.05050630 34419.38926356 0 2033.91444373 0 18238.78431406 0 -1905.44986740 0 -3543.57917645 0 2829
0.05150000 0.05149060 33326.53413744 0 1430.75156329 0 18175.95255890 0 277.68450257 0 686.41605449 0 2784
0.05250000 0.05249300 32715.68205619 0 -1365.68993989 0 16993.02393761 0 4961.29205209 0 -1557.70026862 0 3055
0.05350000 0.05348950 32997.43634290 0 -209.70977052 0 15517.24661131 0 2474.09922079 0 1496.51619934 0 3009
0.05450000 0.05448610 33577.86115810 0 507.43562577 0 14573.67182657 0 -48.91023741 0 1589.65439025 0 3336
0.05550000 0.05550870 31745.19506863 0 176.44409092 0 13592.41995788 0 715.40653845 0 5265.00449939 0 3349
0.05650000 0.05647670 32932.29782750 0 310.46027024 0 15268.88542524 0 487.15261250 0 2766.06916000 0 3324
0.05750000 0.05747970 32040.35053389 0 765.38194987 0 12574.47961677 0 2939.51556106 0 3270.71140896 0 3639
0.05850000 0.05849280 33215.15057147 0 -360.75972655 0 13940.19152581 0 610.18092386 0 3884.80393912 0 3846
0.05950000 0.05951020 31439.93379659 0 -533.83484905 0 11359.03666064 0 -1716.67998758 0 2113.64047153 0 3787
0.06050000 0.06049470 31348.76184417 0 1064.46439982 0 11795.23403785 0 2672.07417242 0 4966.70744637 0 3930
0.06150000 0.06148310 31024.16772439 0 514.56021954 0 12049.52689310 0 -2184.55687211 0 13.09910280 0 4083
0.06250000 0.06249100 30933.43515487 0 525.54039830 0 12706.73387065 0 1004.69294658 0 2077.69895004 0 4303
0.06350000 0.06350600 30452.31087581 0 -125.33726852 0 12339.95899216 0 1593.77360497 0 -284.16430194 0 4470
0.06450000 0.06451750 29766.98339246 0 24.03984694 0 10256.40526493 0 -710.74907968 0 2514.93986164 0 4479
0.06550000 0.06550280 30109.26267409 0 309.60676895 0 11358.48743201 0 867.12655340 0 488.98374074 0 4636
0.06650000 0.06648880 28547.69583593 0 657.60132370 0 10350.18056105 0 1646.15903161 0 1942.95119819 0 4653
0.06750000 0.06749660 29436.23791203 0 -135.90223043 0 10196.20980718 0 1388.36209770 0 385.79576437 0 5220
0.06850000 0.06852730 28932.26572200 0 923.35987582 0 9246.09920176 0 580.01069681 0 1680.60665123 0 5029
0.06950000 0.06949320 27930.36285686 0 35.70370549 0 9033.49279945 0 -347.07844140 0 2124.03187719 0 5040
0.07050000 0.07048030 28599.98240141 0 -177.57330498 0 8182.00168666 0 536.28111337 0 170.14114317 0 5475
0.07150000 0.07148790 27574.35285949 0 888.57063599 0 9290.52081328 0 -1584.71133259 0 -1174.76708386 0 5509
0.07250000 0.07249820 26322.77065958 0 595.57803307 0 9038.41388796 0 -204.97871511 0 504.32918864 0 5916
0.07350000 0.07351270 26120.65452408 0 -6.79104723 0 8039.98214775 0 1949.57489545 0 -205.24783714 0 5721
0.07450000 0.07449140 26765.88831751 0 -358.43429253 0 8341.59654169 0 1955.94594755 0 -900.38564226 0 6028
0.07550000 0.07549160 26297.83567982 0 169.97857150 0 6250.79299656 0 797.25149030 0 916.27043267 0 6183
0.07650000 0.07648840 25560.88070533 0 257.32679421 0 7135.30373453 0 -1250.98903300 0 1423.21614650 0 6330
0.07750000 0.07749960 24968.37286030 0 1101.30226243 0 7971.37250741 0 -1563.59898409 0 -2175.28589286 0 6583
0.07850000 0.07848650 24689.03517955 0 700.10502884 0 8629.02985243 0 -613.01274668 0 -119.76589331 0 6549
0.07950000 0.07947320 23791.04637103 0 62.82999763 0 8730.31859620 0 799.40336806 0 -810.44615888 0 6828
0.08050000 0.08048110 24219.99393033 0 -156.13251776 0 8865.07733263 0 1438.16614978 0 436.26658001 0 7147
0.08150000 0.08149960 23935.82303765 0 23.75402836 0 7881.46378083 0 723.09244388 0 -520.86316729 0 7386
0.08250000 0.08250610 23679.99234223 0 403.37657279 0 6200.11017867 0 1164.15598674 0 1266.11478944 0 7227
0.08350000 0.08350160 22762.78053169 0 458.86184581 0 7893.39302665 0 758.77582792 0 1881.26183857 0 7798
0.08450000 0.08449610 22066.13893858 0 988.12491576 0 6446.58201825 0 -55.58753939 0 2383.12499067 0 7371
0.08550000 0.08548940 21187.81251498 0 332.62274388 0 6665.75719496 0 -16.53804294 0 2195.32175324 0 8256
0.08650000 0.08650700 20958.34479375 0 -92.40508054 0 7137.87412451 0 471.33922181 0 1223.70335471 0 8037
0.08750000 0.08749060 20519.51111913 0 464.28163392 0 6093.54884006 0 -296.32861761 0 932.71214091 0 8155
0.08850000 0.08849210 20022.67890127 0 431.85737258 0 6266.68767308 0 -666.50102440 0 -105.88886308 0 8718
0.08950000 0.08949900 19856.92170102 0 354.45128651 0 7161.40307898 0 -1129.04929277 0 -1333.12068219 0 8571
0.09050000 0.09049190 19134.35651662 0 147.91935284 0 6564.83094209 0 432.32751228 0 -1368.74365107 0 8932
0.09150000 0.09150830 19357.23349429 0 16.52771744 0 6886.98648675 0 253.38992339 0 -2103.80927907 0 9285
0.09250000 0.09250820 19153.24998146 0 259.93233482 0 6935.94472675 0 66.94503821 0 -1992.08519134 0 9204
0.09350000 0.09350330 19242.99393945 0 407.59464866 0 7539.48108266 0 254.83769006 0 -2352.36818744 0 9349
0.09450000 0.09448040 18425.30235649 0 -10.32045631 0 5875.80165778 0 97.27256435 0 -934.92443383 0 9564
0.09550000 0.09549270 18275.25309503 0 28.37051468 0 6617.76559736 0 972.04899378 0 -1473.08610602 0 10155
0.09650000 0.09649430 18273.71525487 0 124.75069235 0 5881.71135783 0 395.73680256 0 -1116.58180289 0 9913
0.09750000 0.09749140 17892.77027775 0 655.64167595 0 5940.29208340 0 309.48484019 0 -1295.67427426 0 10476
0.09850000 0.09850240 17277.08498457 0 445.26624033 0 6263.71085391 0 -364.56148712 0 -140.59264293 0 10575
0.09950000 0.09950330 16627.01797920 0 304.26057747 0 5876.62550072 0 -341.98709200 0 164.22485238 0 10882
0.10050000 0.10051200 16242.33824740 0 180.76212640 0 6626.39947140 0 257.09282281 0 -75.67414851 0 10875
0.10150000 0.10150300 15689.48470938 0 281.61588110 0 5647.19073321 0 701.62858906 0 -6.92069814 0 11118
0.10250000 0.10250800 16098.55019231 0 115.91689908 0 6519.53056476 0 471.02396457 0 -206.96802121 0 11575
0.10350000 0.10349800 15621.92958801 0 4.91963855 0 5653.63867732 0 161.70608988 0 624.65749207 0 11364
0.10450000 0.10450100 15806.90979028 0 24.11948509 0 6333.10039891 0 -51.95955476 0 352.96727076 0 12093
0.10550000 0.10551000 15780.98619899 0 123.04918206 0 5762.90222079 0 388.45183402 0 1126.09444275 0 12067
0.10650000 0.10649700 15577.11253188 0 -175.62354335 0 5351.98034509 0 250.85578250 0 -129.51030765 0 12054
0.10750000 0.10749900 15630.05817172 0 297.05689477 0 5455.13646620 0 -63.07484376 0 391.57364955 0 12807
0.10850000 0.10850100 15682.89396584 0 230.44205281 0 5385.23064629 0 6.43907956 0 -373.06684167 0 12736
0.10950000 0.10950300 15278.00262049 0 -213.63236139 0 5334.05352264 0 105.98629624 0 178.94417964 0 12933
0.11050000 0.11050200 15355.55370291 0 -28.30998969 0 4991.26895066 0 241.64741530 0 -44.90350472 0 13428
0.11150000 0.11150900 15448.37334122 0 239.02100400 0 4631.66699807 0 253.89960756 0 -1407.36540827 0 13453
0.11250000 0.11250000 15008.33136362 0 299.52952206 0 4956.93117677 0 -556.44000097 0 -723.86246242 0 13668
0.11350000 0.11349100 14741.95547852 0 465.63932709 0 5158.86057454 0 103.19478681 0 -1015.78516797 0 13791
0.11450000 0.11448600 14565.98262576 0 69.63966371 0 5364.32700467 0 150.10967661 0 -978.77045375 0 14205
0.11550000 0.11549300 14223.37380695 0 -169.02401214 0 4691.97230154 0 550.49624874 0 -1487.04749777 0 14776
0.11650000 0.11649800 14431.20192019 0 -39.40374892 0 3972.93316494 0 519.38244691 0 -880.34428959 0 14553
0.11750000 0.11747300 13882.52251975 0 13.46071493 0 3455.60373465 0 998.37681735 0 -92.75098473 0 14568
0.11850000 0.11849100 14239.52112865 0 16.96611173 0 3068.78201120 0 793.15973701 0 427.11093877 0 16015
0.11950000 0.11950300 14091.22939880 0 392.21185322 0 2549.56323442 0 203.78359361 0 664.10638758 0 15270
0.12050000 0.12050700 13616.58601756 0 521.96491992 0 3527.38791647 0 -639.01542689 0 400.16248685 0 15999
0.12150000 0.12150000 12952.78829647 0 239.85912689 0 3209.96672258 0 -691.92152227 0 1328.27648568 0 15670
0.12250000 0.12250700 12830.53000364 0 8.47594885 0 3768.54322292 0 437.32219744 0 627.42999819 0 16887
0.12350000 0.12352200 13059.99772486 0 -218.24478342 0 3679.43637014 0 411.74901401 0 867.16390095 0 16407
0.12450000 0.12449800 13098.44372890 0 14.73811088 0 3116.02665787 0 363.93207111 0 553.51810466 0 16306
0.12550000 0.12549900 13293.96912084 0 162.77598725 0 3331.66480221 0 -505.45840270 0 262.03588047 0 17523
0.12650000 0.12650100 12677.40506185 0 404.86498237 0 3612.62819970 0 -680.08564531 0 -18.25778762 0 17154
0.12750000 0.12750600 12517.79922225 0 170.14004471 0 4111.82210066 0 -145.62247871 0 265.24557258 0 18007
0.12850000 0.12850300 12528.34441193 0 -170.23451204 0 3961.66299347 0 256.12068814 0 40.07106170 0 17496
0.12950000 0.12949900 12543.61296781 0 143.18610051 0 3804.50671355 0 521.75072075 0 -655.07267509 0 18405
0.13050000 0.13049000 12500.88298047 0 170.80680827 0 3196.21403771 0 35.18336629 0 210.93784574 0 18100
0.13150000 0.13148800 12243.95382779 0 -94.34111146 0 3333.94959331 0 706.83637492 0 -349.14463950 0 19059
0.13250000 0.13249300 12154.75909843 0 187.14635998 0 3499.52005583 0 -507.41255816 0 284.72121977 0 18957
0.13350000 0.13349100 11843.23662003 0 264.46456947 0 3332.31289199 0 31.19157261 0 -19.43170890 0 19468
0.13450000 0.13450700 11759.42433123 0 -43.52263410 0 3452.28639373 0 -0.74529776 0 244.55722858 0 19953
0.13550000 0.13551000 11668.36222453 0 180.17335331 0 3018.42873048 0 703.66732573 0 125.34825310 0 19956
0.13650000 0.13649900 12016.79286681 0 -351.69415879 0 2992.07674086 0 452.05360773 0 1162.91473004 0 19723
0.13750000 0.13749600 11718.23218405 0 113.42340110 0 2895.92877706 0 93.19344332 0 641.18817535 0 20946
0.13850000 0.13851100 11731.41367115 0 480.87492927 0 3034.56506760 0 -683.10859969 0 218.82476885 0 20955
0.13950000 0.13949800 11255.45214120 0 360.11383368 0 3483.86703990 0 -389.88751766 0 976.32309097 0 20506
0.14050000 0.14048300 11133.30369409 0 -22.04977193 0 3913.82517988 0 54.43668572 0 682.06945912 0 21447
0.14150000 0.14148400 10943.22665015 0 0.99668519 0 4005.68916038 0 67.04093353 0 688.59868906 0 21771
0.14250000 0.14249400 10949.96019314 0 170.85843576 0 3896.08509516 0 296.17153822 0 586.70249843 0 22470
0.14350000 0.14350900 10936.00978596 0 227.92768415 0 3615.17662054 0 -279.49036630 0 494.83082873 0 22519
0.14450000 0.14449900 10535.35848563 0 49.16639765 0 3801.42004865 0 360.28409455 0 521.71557012 0 22218
0.14550000 0.14550500 10521.17740243 0 50.20114438 0 3649.61325558 0 216.64652811 0 613.36754837 0 23559
0.14650000 0.14650700 10415.62664449 0 105.48682772 0 3545.13898576 0 15.33336487 0 557.46266467 0 23044
0.14750000 0.14750500 10413.18806938 0 40.23440230 0 3131.66868922 0 171.96018839 0 223.17905342 0 23649
0.14850000 0.14849900 10073.84166862 0 24.52558474 0 3359.28001768 0 183.35119016 0 395.83126988 0 23640
0.14950000 0.14949500 10153.30406668 0 99.26758242 0 2924.29094346 0 -147.15702350 0 200.39155760 0 24457
0.15050000 0.15050000 9954.84579385 0 93.07766592 0 2779.85479859 0 142.76319447 0 9.32550668 0 24591
0.15150000 0.15149900 9762.75857312 0 240.58520713 0 3097.80325195 0 -185.75461464 0 45.95472831 0 25020
0.15250000 0.15250500 9627.85703725 0 262.25776884 0 3138.65487738 0 296.55709672 0 175.25995399 0 25297
0.15350000 0.15350100 9630.55924210 0 58.44748271 0 2923.74171483 0 144.71844839 0 7.37113152 0 25452
0.15450000 0.15450400 9475.74267614 0 -112.05032953 0 2774.18675914 0 226.89952815 0 354.80059592 0 26061
0.15550000 0.15549900 9506.73015539 0 3.15123221 0 2622.44587350 0 270.22707624 0 628.19342598 0 26128
0.15650000 0.15649500 9375.99177253 0 -93.82758269 0 2177.87825199 0 257.24440991 0 95.06730155 0 26331
0.15750000 0.15749700 9285.81941621 0 357.21500497 0 2456.71064239 0 11.75481081 0 593.61728687 0 27345
0.15850000 0.15849900 8957.05115885 0 262.62904739 0 2326.03816696 0 -265.88597316 0 695.60904329 0 26980
0.15950000 0.15949700 8898.53634071 0 63.65230274 0 2612.47188159 0 282.89118997 0 849.41173320 0 27777
0.16050000 0.16050000 8895.32884552 0 -111.05073343 0 2571.00512010 0 314.60804484 0 862.37133193 0 28224
0.16150000 0.16150500 8919.63770464 0 -10.19985669 0 2200.98979270 0 253.61510713 0 992.29136414 0 28075
0.16250000 0.16249700 9007.34951670 0 72.04089128 0 2345.41495300 0 -350.90546648 0 485.90366659 0 28590
0.16350000 0.16349900 8795.62188020 0 234.90947848 0 2395.81217200 0 -276.70907252 0 700.31703109 0 29163
0.16450000 0.16449100 8661.09381979 0 24.05192997 0 2476.66961077 0 -93.76068665 0 793.71555638 0 28996
0.16550000 0.16550500 8628.67834610 0 90.47333361 0 2713.18942759 0 34.53527650 0 145.76857353 0 30777
0.16650000 0.16650700 8393.86113803 0 196.88418358 0 2732.20372273 0 -156.47194105 0 329.00552413 0 29211
0.16750000 0.16749900 8318.55090842 0 228.65046902 0 2919.36985494 0 -94.81586469 0 68.16289778 0 30922
0.16850000 0.16850800 8125.92544363 0 122.10231190 0 2996.70124592 0 -0.38714906 0 267.93679286 0 30867
0.16950000 0.16949900 8062.79710500 0 -149.53957729 0 2761.88403784 0 358.96704430 0 71.07315044 0 30852
0.17050000 0.17049200 7998.94378459 0 -28.71180535 0 2663.36340636 0 50.30923258 0 68.40719467 0 31257
0.17150000 0.17149500 8060.45739104 0 104.25051408 0 2317.00884830 0 216.33786162 0 385.03782886 0 32608
0.17250000 0.17250900 7972.25127322 0 39.09662027 0 2425.96482373 0 122.35715398 0 71.88293313 0 32361
0.17350000 0.17350400 7954.80777196 0 186.44774117 0 2364.41826356 0 -50.10645737 0 171.16600379 0 32508
0.17450000 0.17449800 7883.38608103 0 -25.33448866 0 2366.68108551 0 -22.11447106 0 100.34802498 0 32791
0.17550000 0.17549800 7920.18439918 0 13.20872884 0 2310.39613561 0 146.51552446 0 172.37979906 0 33633
0.17650000 0.17650100 7987.71755141 0 41.40294113 0 2362.90239255 0 -54.34144948 0 -303.92554801 0 33984
0.17750000 0.17750300 7778.60424318 0 78.03780884 0 2228.00085667 0 -66.93778840 0 148.28404065 0 34069
0.17850000 0.17849800 7553.90382646 0 52.12003937 0 2441.85950026 0 52.19594276 0 172.19965207 0 34536
