### header ###
fiducial parameters:
Omega_m = 0.31
Omega_nu = 0
Omega_de = 0.69
Omega_k = 0
H_0 = 100
w_de = -1
zeff = 0
beta = 0
fgrowth = 0
b_1 = 2
gamma = 0.55
Lx = 3500 Ly = 3500 Lz = 3500
nx = 700 ny = 700 nz = 700
xoffset = -983.599254 yoffset = -42.9823471 zoffset = 800.977702
bins = 400 dk = 0.001
kx_ny = 0.628318531 ky_ny = 0.628318531 kz_ny = 0.628318531
############################
A(data) = 9.03553643 (not used)
A(ran) = 9.03189054 (used)
Ngal = 502114
weighted Ngal = 0
Nran = 25229228
weighted Nran = 0
SN(data) = 6740.36207
SN(ran) = 134.072193
SN(data+ran) = 6874.43427
############################
13 columns: k_central k_mean P_0(k) sigma^{lin}_{P_0(k)} P^img_1(k) sigma^{lin}_{P_1(k)} P_2(k) sigma^{lin}_{P_2(k)} P^img_3(k) sigma^{lin}_{P_3(k)} P_4(k) sigma^{lin}_{P_4(k)} N_modes
### header ###
0.00050000 0 0 0 0 0 0 0 0 0 0 0 0
0.00150000 0.00179520 156141.30541476 0 37358.53134915 0 -90445.43279462 0 246594.86679309 0 -77981.56782375 0 3
0.00250000 0.00253879 221492.92153020 0 71820.10137142 0 74491.54942320 0 -121866.14358920 0 94944.16449531 0 6
0.00350000 0.00331552 153386.37461136 0 52264.70618776 0 81013.09016475 0 -224754.24112961 0 -8993.88243072 0 7
0.00450000 0.00420575 120791.85239074 0 20749.63791471 0 52755.16735351 0 81232.56192492 0 -7837.54745965 0 24
0.00550000 0.00557378 96641.61049630 0 15428.82080203 0 53008.58144297 0 15444.30904937 0 41444.68250368 0 45
0.00650000 0.00659388 91979.64804705 0 6764.99182366 0 71924.12527376 0 51191.62329229 0 45921.55490493 0 40
0.00750000 0.00754703 69850.23797041 0 2279.81508554 0 40350.61907458 0 18121.79861607 0 14197.34036993 0 57
0.00850000 0.00846663 56264.62844753 0 8074.97899600 0 27737.69345378 0 28094.36252550 0 15847.88224601 0 75
0.00950000 0.00948925 68397.30855507 0 -4887.73935408 0 30487.79104524 0 -8048.84669783 0 12748.14570928 0 112
0.01050000 0.01054430 66377.24565736 0 -579.09458346 0 28294.28174648 0 6261.56886226 0 -5446.39274643 0 105
0.01150000 0.01145670 61447.03994568 0 3176.52968365 0 30834.24446446 0 -12167.17166545 0 11076.51345385 0 144
0.01250000 0.01249090 63055.95029167 0 3864.79004787 0 30000.62525126 0 9878.83255159 0 25636.01518179 0 169
0.01350000 0.01339930 60325.95446803 0 -2190.93890878 0 30167.26121732 0 14877.50510417 0 7893.01955119 0 180
0.01450000 0.01448870 73374.63808313 0 -10595.48803594 0 18377.51946576 0 17834.88158025 0 12248.67719400 0 267
0.01550000 0.01550050 81092.94800741 0 -5179.18203381 0 26836.40927348 0 19641.40438697 0 17877.39187614 0 238
0.01650000 0.01653350 87680.83556735 0 674.98550826 0 3368.35327463 0 -11428.12962218 0 12341.93621522 0 315
0.01750000 0.01747870 86661.68692325 0 9350.04621209 0 17968.23429138 0 -8984.63342060 0 23327.05802519 0 297
0.01850000 0.01844180 85136.69871178 0 379.88716278 0 31682.25346774 0 -10965.32761018 0 -3297.43687405 0 388
0.01950000 0.01947590 80197.59549631 0 6152.41516452 0 52499.00712092 0 -9382.08821031 0 4183.12296128 0 399
0.02050000 0.02045430 73754.26491154 0 1385.71481571 0 48700.21238511 0 -3332.82916691 0 -2341.58133716 0 462
0.02150000 0.02154770 74544.05568014 0 -1960.93294350 0 49559.97488105 0 10600.83752279 0 -1379.32179447 0 571
0.02250000 0.02255340 75912.51373232 0 4258.22448402 0 43248.56901299 0 11393.08883564 0 -1934.54800016 0 510
0.02350000 0.02348930 78324.39633401 0 1110.19976622 0 50888.11955186 0 758.64291459 0 3734.74369308 0 555
0.02450000 0.02439640 70281.38244422 0 4003.63504530 0 52332.81053776 0 -1009.55691532 0 8404.77980318 0 592
0.02550000 0.02547300 70468.77925246 0 -41.43919022 0 48651.99011148 0 4350.84640003 0 2693.88953357 0 837
0.02650000 0.02652900 66174.79998469 0 -778.30969334 0 39195.15188475 0 10157.69789571 0 12053.81087641 0 723
0.02750000 0.02749970 70493.60438650 0 2611.46130092 0 38378.44891333 0 8544.13009095 0 1842.43137450 0 826
0.02850000 0.02848090 71463.98152833 0 -953.58832110 0 33810.07502247 0 11432.63329694 0 10983.68283096 0 831
0.02950000 0.02946900 67553.47368937 0 2083.42191236 0 36707.25604080 0 -497.41220329 0 10218.02516833 0 996
0.03050000 0.03053250 65893.59492661 0 4517.57024267 0 34946.86843891 0 -1264.36824240 0 8552.92873358 0 1041
0.03150000 0.03150510 59811.65677977 0 2116.93584330 0 35136.24247022 0 -3598.78763824 0 9348.12391189 0 1036
0.03250000 0.03246190 58594.01690913 0 225.81974467 0 39301.59239306 0 6906.45114937 0 9816.61593249 0 1059
0.03350000 0.03345080 56457.51754206 0 998.51412450 0 29977.44780311 0 5764.48399924 0 8035.62127244 0 1302
0.03450000 0.03451200 54997.33830882 0 2900.44343639 0 34575.58988566 0 1205.96326999 0 3276.53323243 0 1339
0.03550000 0.03553350 51983.17159250 0 3371.25320179 0 27092.45966035 0 41.19709024 0 6309.73621303 0 1365
0.03650000 0.03647120 50749.27455443 0 1431.54245252 0 34631.39151438 0 3786.93139742 0 6864.16054493 0 1308
0.03750000 0.03744890 46140.69712793 0 -1245.59560786 0 24529.09980277 0 4465.90979782 0 4550.43608383 0 1579
0.03850000 0.03847530 49428.81908443 0 112.04813262 0 24262.39438049 0 5876.06528752 0 2016.32814303 0 1662
0.03950000 0.03950240 46165.52226197 0 1136.46387927 0 19173.79113219 0 -2223.13469102 0 2700.10680165 0 1683
0.04050000 0.04050350 47182.25430010 0 1080.12620341 0 20883.97923738 0 2882.93402769 0 5065.40383102 0 1822
0.04150000 0.04152450 45099.57933867 0 -757.31378130 0 15759.67612818 0 2215.46745936 0 -1322.16906333 0 1887
0.04250000 0.04250150 43648.84683785 0 148.78823253 0 16305.49953975 0 1881.03116255 0 362.95224723 0 1920
0.04350000 0.04349210 43243.40626388 0 3305.17001315 0 15945.20555908 0 -430.75012766 0 854.48331036 0 2005
0.04450000 0.04448520 42048.06507558 0 1700.87318764 0 17476.34513119 0 -793.70457181 0 2148.13202943 0 2151
0.04550000 0.04548030 39244.25292419 0 507.56963755 0 15899.18019996 0 2647.96303560 0 1101.47801559 0 2274
0.04650000 0.04648670 38992.15698345 0 -611.60891830 0 18525.26196698 0 1661.92189327 0 2628.00406722 0 2311
0.04750000 0.04749250 37080.29212566 0 1034.15906253 0 14785.12484876 0 2113.91508584 0 3615.78077203 0 2568
0.04850000 0.04851840 39369.58689734 0 -12.24593105 0 13757.84762095 0 2981.82813464 0 5877.08685277 0 2493
0.04950000 0.04949480 37621.50201675 0 -1825.17461097 0 11623.76485985 0 3055.82021555 0 5902.08773996 0 2644
0.05050000 0.05050630 39534.13579461 0 448.16287212 0 12514.83338765 0 -393.15213263 0 5067.27120835 0 2829
0.05150000 0.05149060 37007.13487227 0 1484.33430834 0 12021.73592447 0 -3147.80502635 0 4726.71650461 0 2784
0.05250000 0.05249300 37082.81857736 0 421.31218290 0 13009.02930808 0 -1232.85350367 0 4724.06922262 0 3055
0.05350000 0.05348950 36127.70999141 0 2161.57714627 0 16363.60792870 0 -638.71994189 0 1008.20361598 0 3009
0.05450000 0.05448610 35320.45375241 0 821.16051098 0 17269.06624658 0 1485.38882731 0 1850.49405077 0 3336
0.05550000 0.05550870 36330.70489271 0 -934.77724056 0 16795.41147687 0 348.01103161 0 3042.59479016 0 3349
0.05650000 0.05647670 35297.49599571 0 -446.71510545 0 15988.26508360 0 1826.58063626 0 2559.42738060 0 3324
0.05750000 0.05747970 35039.24869432 0 193.97876413 0 13345.81630343 0 490.94888078 0 3080.46959642 0 3639
0.05850000 0.05849280 34430.81321904 0 1370.50118268 0 14796.65864997 0 346.21505399 0 3129.49374385 0 3846
0.05950000 0.05951020 34015.37668402 0 1159.10308336 0 14765.02308094 0 1003.00571623 0 3009.59713413 0 3787
0.06050000 0.06049470 32903.84778451 0 145.06336397 0 14796.10942134 0 133.30767439 0 2268.73165181 0 3930
0.06150000 0.06148310 31411.48375361 0 1512.87222791 0 15104.11683652 0 -213.16441860 0 -98.42297863 0 4083
0.06250000 0.06249100 29530.48554478 0 406.37096728 0 14055.52953791 0 -313.26792699 0 2656.70675538 0 4303
0.06350000 0.06350600 29335.72907291 0 122.47468891 0 15284.26382686 0 1293.07093056 0 -1020.65572746 0 4470
0.06450000 0.06451750 29382.41350638 0 505.36173846 0 13041.10426002 0 629.10404705 0 -804.90114664 0 4479
0.06550000 0.06550280 29315.95684227 0 89.54557661 0 11945.06360786 0 1779.25909758 0 793.76388850 0 4636
0.06650000 0.06648880 29037.71761878 0 -1556.20636674 0 9545.72538806 0 1723.49042259 0 1.15302861 0 4653
0.06750000 0.06749660 30189.34020821 0 -153.78621305 0 10501.21843405 0 1888.20408844 0 -1142.94477709 0 5220
0.06850000 0.06852730 29468.20301824 0 1495.14312776 0 7934.21169837 0 -1036.71517257 0 -458.80033221 0 5029
0.06950000 0.06949320 28695.76787432 0 709.69016688 0 9409.20912002 0 -288.93050798 0 2987.88063413 0 5040
0.07050000 0.07048030 28090.07854219 0 166.93584489 0 10888.99581531 0 -733.77274381 0 370.25918491 0 5475
0.07150000 0.07148790 28099.85481179 0 153.23259060 0 10525.69206176 0 1021.28074964 0 -599.65770333 0 5509
0.07250000 0.07249820 28091.72622808 0 -323.56266841 0 10403.99398213 0 1229.87668450 0 2262.65718317 0 5916
0.07350000 0.07351270 28118.74827663 0 -79.31597370 0 8879.68681416 0 340.63818649 0 940.77481719 0 5721
0.07450000 0.07449140 27999.78535557 0 384.04592196 0 9950.63870255 0 -710.13614052 0 -571.56795433 0 6028
0.07550000 0.07549160 27712.42893684 0 1478.24885513 0 10735.78299695 0 -1060.40999408 0 -206.82082793 0 6183
0.07650000 0.07648840 25769.47773865 0 -36.95155294 0 10456.19267104 0 293.54512692 0 1451.53437462 0 6330
0.07750000 0.07749960 26656.15243742 0 -391.53849892 0 10087.39663119 0 1483.02714421 0 -784.40722958 0 6583
0.07850000 0.07848650 26328.26294587 0 274.32212490 0 8988.85149647 0 1532.45772082 0 -14.96208631 0 6549
0.07950000 0.07947320 26138.99876029 0 799.94820286 0 8530.43232894 0 -314.75633657 0 -1482.09345554 0 6828
0.08050000 0.08048110 24764.05981028 0 958.13483569 0 9280.96423513 0 -1043.24659943 0 -922.49978378 0 7147
0.08150000 0.08149960 23861.45748127 0 466.29730299 0 9260.52194556 0 276.78486608 0 -485.63564302 0 7386
0.08250000 0.08250610 22939.74199597 0 -169.27116502 0 8491.73367973 0 111.90203780 0 -412.73542863 0 7227
0.08350000 0.08350160 23112.41947695 0 520.29965872 0 8879.19250839 0 1521.24247222 0 -1147.11891467 0 7798
0.08450000 0.08449610 22366.34730723 0 474.32812401 0 8689.62075479 0 -505.82089360 0 -793.17731233 0 7371
0.08550000 0.08548940 22506.29076191 0 143.13996531 0 7807.88911368 0 1033.76801175 0 -133.68444523 0 8256
0.08650000 0.08650700 22375.68419392 0 -29.91285852 0 8006.97350715 0 -139.23824513 0 -2319.34856226 0 8037
0.08750000 0.08749060 21315.23355692 0 629.52915001 0 7993.73709719 0 -749.84866578 0 143.22344806 0 8155
0.08850000 0.08849210 20573.33552478 0 767.72386074 0 8472.96104519 0 -74.29953909 0 -895.83802921 0 8718
0.08950000 0.08949900 20100.01029225 0 -127.60558276 0 8211.78086293 0 1437.41919885 0 529.74748959 0 8571
0.09050000 0.09049190 20293.33876968 0 25.96928711 0 7691.95793466 0 1209.34651834 0 -1611.56861255 0 8932
0.09150000 0.09150830 20268.95301855 0 312.12223607 0 7055.77542904 0 -276.06647503 0 -294.05151572 0 9285
0.09250000 0.09250820 19737.62924279 0 386.00556971 0 6700.81995064 0 377.31896971 0 -69.19566729 0 9204
0.09350000 0.09350330 19047.35870177 0 -156.26982491 0 6388.75922818 0 499.51245356 0 616.12467609 0 9349
0.09450000 0.09448040 19417.09941486 0 32.11416686 0 5694.07288899 0 915.17527079 0 -726.90628748 0 9564
0.09550000 0.09549270 19047.79808468 0 437.72862662 0 5785.51945573 0 -899.49259651 0 -1711.52822304 0 10155
0.09650000 0.09649430 18851.72346410 0 951.48477545 0 6353.66351878 0 -698.96922404 0 -1736.25449592 0 9913
0.09750000 0.09749140 17561.91495160 0 361.17604185 0 6856.52626698 0 -1246.69406512 0 -1739.73660543 0 10476
0.09850000 0.09850240 17026.74657544 0 258.88220968 0 7167.74117736 0 171.97556679 0 -1878.04335880 0 10575
0.09950000 0.09950330 16568.25051589 0 -66.58792976 0 7394.08927997 0 861.85615548 0 -2042.10893488 0 10882
0.10050000 0.10051200 17339.58720255 0 184.59903760 0 7467.44425567 0 688.22741051 0 -1021.93982399 0 10875
0.10150000 0.10150300 16622.84384162 0 89.40222794 0 6789.76203483 0 -40.96531576 0 -1254.51508080 0 11118
0.10250000 0.10250800 16857.36446623 0 32.10581859 0 6928.38734081 0 232.08095104 0 -439.12915963 0 11575
0.10350000 0.10349800 16439.40147951 0 554.16509599 0 6916.30431097 0 130.72739829 0 -773.99934706 0 11364
0.10450000 0.10450100 16380.08478757 0 148.42464318 0 7303.51049446 0 -131.79180337 0 81.98797098 0 12093
0.10550000 0.10551000 16244.53516192 0 -101.48646608 0 6719.79030749 0 762.69622187 0 -293.08816870 0 12067
0.10650000 0.10649700 16400.84562975 0 -76.38353220 0 6950.43337798 0 707.20106273 0 -34.90578614 0 12054
0.10750000 0.10749900 15511.20509639 0 198.55603552 0 6339.03206810 0 985.47214148 0 2183.70007545 0 12807
0.10850000 0.10850100 15880.94580948 0 -90.69983550 0 5420.77672317 0 1185.70771815 0 2145.48474744 0 12736
0.10950000 0.10950300 16090.20191715 0 79.16449645 0 4680.26274717 0 826.75934762 0 2281.79230860 0 12933
0.11050000 0.11050200 15796.69413778 0 -44.71094516 0 5012.55705233 0 517.12401878 0 3023.42671101 0 13428
0.11150000 0.11150900 15587.32818438 0 489.65709504 0 4727.96874589 0 -597.59370214 0 2841.77483423 0 13453
0.11250000 0.11250000 14922.10246885 0 473.25602972 0 5365.77696825 0 -1233.40273230 0 3818.30333671 0 13668
0.11350000 0.11349100 14517.76035213 0 -44.96787431 0 5468.53764475 0 328.12016758 0 2335.06748562 0 13791
0.11450000 0.11448600 14615.41320238 0 208.53991354 0 6017.98596527 0 181.81444845 0 1764.10038742 0 14205
0.11550000 0.11549300 14548.07777246 0 382.21589217 0 5981.85770605 0 -642.36572153 0 1659.13181183 0 14776
0.11650000 0.11649800 14122.20589348 0 16.22619093 0 5920.12440814 0 613.97279832 0 2187.22612325 0 14553
0.11750000 0.11747300 14448.88708205 0 -166.67880589 0 5702.09162698 0 545.80363934 0 1230.75545030 0 14568
0.11850000 0.11849100 14522.04433544 0 -71.84240005 0 5301.40737293 0 383.54282854 0 1339.62354916 0 16015
0.11950000 0.11950300 14233.36976800 0 318.96232942 0 5186.78335804 0 -293.10135019 0 1058.73704368 0 15270
0.12050000 0.12050700 13953.92224153 0 170.70794711 0 5287.08349028 0 -409.82012307 0 1087.03989339 0 15999
0.12150000 0.12150000 13820.02030177 0 274.93506405 0 5534.14849678 0 -192.68697839 0 407.61332243 0 15670
0.12250000 0.12250700 13389.75459375 0 28.93896631 0 5150.78691369 0 252.12889446 0 245.31186872 0 16887
0.12350000 0.12352200 13447.75313698 0 -49.66026403 0 5001.53952603 0 536.52606933 0 -195.55175492 0 16407
0.12450000 0.12449800 13654.37294724 0 78.50531224 0 4496.23820271 0 816.99296414 0 39.61179672 0 16306
0.12550000 0.12549900 13607.57866804 0 -133.61743934 0 3714.71881727 0 520.80385060 0 438.21963702 0 17523
0.12650000 0.12650100 13453.57496045 0 73.70230788 0 3784.27313085 0 -6.97864176 0 -196.66998441 0 17154
0.12750000 0.12750600 13541.01215820 0 344.84637625 0 3593.17452166 0 -202.15238459 0 78.35317591 0 18007
0.12850000 0.12850300 13049.89191809 0 16.52650914 0 4015.41050711 0 -422.57540875 0 -68.18970013 0 17496
0.12950000 0.12949900 12904.45617711 0 68.66895704 0 3497.36707960 0 297.48639156 0 230.11361409 0 18405
0.13050000 0.13049000 12755.50537291 0 104.71845687 0 3738.91783067 0 412.37074082 0 -146.33757439 0 18100
0.13150000 0.13148800 12974.42790445 0 187.75820068 0 3309.86042564 0 321.02523215 0 308.10078405 0 19059
0.13250000 0.13249300 12671.47339266 0 25.23617674 0 3782.02129347 0 285.00901557 0 401.38726669 0 18957
0.13350000 0.13349100 12417.29038313 0 52.05424178 0 2997.36032027 0 -233.43644730 0 608.37506013 0 19468
0.13450000 0.13450700 12417.83961176 0 359.53714362 0 3672.84562659 0 -151.50032350 0 479.88521928 0 19953
0.13550000 0.13551000 12128.94535287 0 104.24677932 0 3466.33566206 0 -400.21081897 0 335.83682982 0 19956
0.13650000 0.13649900 11948.79836253 0 4.72056514 0 3801.48595609 0 519.28358575 0 597.73760004 0 19723
0.13750000 0.13749600 12080.72307924 0 35.35154009 0 3361.45496305 0 355.57390983 0 212.50314733 0 20946
0.13850000 0.13851100 11840.38063116 0 323.31441707 0 3825.65201577 0 -139.75342158 0 74.13290313 0 20955
0.13950000 0.13949800 11662.10101816 0 304.01562150 0 3521.97252218 0 -162.74962428 0 519.60213836 0 20506
0.14050000 0.14048300 11291.26184781 0 70.68956916 0 3986.18055947 0 -264.05484491 0 -74.62654982 0 21447
0.14150000 0.14148400 11008.07956667 0 147.62057246 0 3816.22725249 0 -18.88412795 0 426.55511939 0 21771
0.14250000 0.14249400 10913.51338131 0 -84.95094959 0 3574.92914660 0 781.85771028 0 342.06508247 0 22470
0.14350000 0.14350900 10968.83168883 0 -15.74440757 0 3408.73256344 0 457.52282641 0 305.94670936 0 22519
0.14450000 0.14449900 11090.68355248 0 237.05256859 0 2935.39634634 0 -22.38249463 0 504.38740688 0 22218
0.14550000 0.14550500 10756.69762314 0 175.50710688 0 3284.26637152 0 65.40478145 0 417.32258614 0 23559
0.14650000 0.14650700 10381.21197860 0 208.74642351 0 2861.00882082 0 -42.52853028 0 789.76220871 0 23044
0.14750000 0.14750500 10222.39702821 0 141.76249991 0 3024.59107570 0 349.81359997 0 608.55740404 0 23649
0.14850000 0.14849900 10227.69159220 0 131.95547351 0 2922.76408787 0 -83.06643632 0 1005.19823692 0 23640
0.14950000 0.14949500 9895.73780879 0 -118.35547419 0 2750.73469667 0 359.19881878 0 814.76529282 0 24457
0.15050000 0.15050000 10031.57303333 0 237.23710941 0 3066.37638980 0 -412.75849623 0 648.70491836 0 24591
0.15150000 0.15149900 9517.30829879 0 283.81718944 0 2983.13529878 0 -120.17671633 0 1039.39650674 0 25020
0.15250000 0.15250500 9868.36425392 0 -80.92543328 0 3417.17969976 0 172.56433988 0 951.30572692 0 25297
0.15350000 0.15350100 9744.90864268 0 52.40344134 0 3075.16404786 0 -101.68056348 0 187.57256140 0 25452
0.15450000 0.15450400 9696.48864674 0 17.44558833 0 3142.75212296 0 -108.48880156 0 396.80010918 0 26061
0.15550000 0.15549900 9407.97884789 0 179.67904754 0 3258.01324305 0 107.65704973 0 676.13119918 0 26128
0.15650000 0.15649500 9523.39375200 0 179.06610839 0 3224.54325040 0 25.94720812 0 329.61956173 0 26331
0.15750000 0.15749700 9365.23787597 0 81.01243109 0 3414.59832520 0 51.19118391 0 310.58988819 0 27345
0.15850000 0.15849900 9188.05672024 0 131.33154978 0 3427.73587401 0 -78.82562238 0 113.67604627 0 26980
0.15950000 0.15949700 9109.70376401 0 -81.37184631 0 3268.20692641 0 223.50309831 0 508.14632761 0 27777
0.16050000 0.16050000 8972.75909764 0 -10.49797799 0 2980.19143333 0 232.64665653 0 454.18571326 0 28224
0.16150000 0.16150500 9048.65150961 0 97.04068002 0 2715.30945010 0 441.27334819 0 847.55643889 0 28075
0.16250000 0.16249700 8951.87742517 0 223.05053392 0 2927.61926895 0 -33.32005324 0 569.17221905 0 28590
0.16350000 0.16349900 8902.00746565 0 155.91941705 0 3039.25548010 0 -22.55044874 0 903.39321823 0 29163
0.16450000 0.16449100 8641.28863543 0 15.24922304 0 2894.84130437 0 152.81188147 0 724.09203999 0 28996
0.16550000 0.16550500 8492.56850725 0 56.29549510 0 2853.51734232 0 -52.44847809 0 1119.19613117 0 30777
0.16650000 0.16650700 8377.20852600 0 159.87715855 0 3063.82796896 0 200.46625269 0 1203.08531197 0 29211
0.16750000 0.16749900 8445.99391950 0 -1.57611041 0 2581.00108115 0 283.40087414 0 1233.27091743 0 30922
0.16850000 0.16850800 8508.15561574 0 -87.07020318 0 2420.91192035 0 149.78123789 0 803.85651379 0 30867
0.16950000 0.16949900 8344.90289804 0 78.36394080 0 2528.94519168 0 -12.82031435 0 825.53346932 0 30852
0.17050000 0.17049200 8299.16313781 0 161.61381947 0 2589.71184720 0 -204.77550052 0 907.06206548 0 31257
0.17150000 0.17149500 8042.80518291 0 101.18395095 0 2410.26786952 0 -208.63657778 0 290.32115487 0 32608
0.17250000 0.17250900 8036.57693025 0 186.98159139 0 2551.19993573 0 16.28836361 0 -118.65425457 0 32361
0.17350000 0.17350400 7837.45958307 0 71.27065305 0 2427.37084903 0 73.23700139 0 99.01878185 0 32508
0.17450000 0.17449800 8012.22413284 0 -88.18096316 0 2358.36576407 0 327.07223935 0 -310.48333784 0 32791
0.17550000 0.17549800 7931.38866321 0 -133.08139219 0 1877.17557757 0 39.72493782 0 -155.69643023 0 33633
0.17650000 0.17650100 7902.54317562 0 68.48946912 0 1753.48929030 0 47.90635732 0 -332.65679605 0 33984
0.17750000 0.17750300 7953.23697808 0 129.66848549 0 1719.50302274 0 183.61811527 0 -230.36955463 0 34069
0.17850000 0.17849800 7794.67467287 0 107.50524293 0 1822.01105407 0 -42.14121425 0 -216.81239515 0 34536
