### header ###
fiducial parameters:
Omega_m = 0.31
Omega_nu = 0
Omega_de = 0.69
Omega_k = 0
H_0 = 100
w_de = -1
zeff = 0
beta = 0
fgrowth = 0
b_1 = 2
gamma = 0.55
Lx = 3500 Ly = 3500 Lz = 3500
nx = 700 ny = 700 nz = 700
xoffset = -983.599254 yoffset = -42.9823471 zoffset = 800.977702
bins = 400 dk = 0.001
kx_ny = 0.628318531 ky_ny = 0.628318531 kz_ny = 0.628318531
############################
A(data) = 8.97394333 (not used)
A(ran) = 8.97238024 (used)
Ngal = 497985
weighted Ngal = 0
Nran = 25229228
weighted Nran = 0
SN(data) = 6743.45431
SN(ran) = 133.188803
SN(data+ran) = 6876.64311
############################
13 columns: k_central k_mean P_0(k) sigma^{lin}_{P_0(k)} P^img_1(k) sigma^{lin}_{P_1(k)} P_2(k) sigma^{lin}_{P_2(k)} P^img_3(k) sigma^{lin}_{P_3(k)} P_4(k) sigma^{lin}_{P_4(k)} N_modes
### header ###
0.00050000 0 0 0 0 0 0 0 0 0 0 0 0
0.00150000 0.00179520 37261.20803608 0 -21546.78834693 0 -27186.37775592 0 2021.40301556 0 -19160.38995364 0 3
0.00250000 0.00253879 44206.64343354 0 908.76467423 0 -9580.59042143 0 27770.86686297 0 51319.37387141 0 6
0.00350000 0.00331552 45208.54629868 0 2467.78309155 0 32147.01073366 0 -54321.78709507 0 -2188.35753423 0 7
0.00450000 0.00420575 48836.64077657 0 -4291.73841497 0 10899.68380443 0 -5248.26401078 0 -2391.66000356 0 24
0.00550000 0.00557378 53234.86363814 0 9003.64771574 0 26155.36577344 0 -10039.31715700 0 -7108.79796089 0 45
0.00650000 0.00659388 46609.18914853 0 13283.09439399 0 49327.10194233 0 -10211.44540935 0 42073.65912969 0 40
0.00750000 0.00754703 31163.34225900 0 6329.02512248 0 29267.95426009 0 29783.35040560 0 -237.38540114 0 57
0.00850000 0.00846663 59859.76920768 0 -21803.27811671 0 48016.20305047 0 36779.31483693 0 3831.62762325 0 75
0.00950000 0.00948925 55324.56872602 0 -2711.12432795 0 14041.46928501 0 24942.99849763 0 15833.05307302 0 112
0.01050000 0.01054430 69044.62941729 0 -3317.60454931 0 7809.56975329 0 8053.47120288 0 38475.88207212 0 105
0.01150000 0.01145670 80733.64263828 0 -6109.52040859 0 19929.96910869 0 -6644.68878475 0 551.46069422 0 144
0.01250000 0.01249090 83096.20450907 0 -8572.30551962 0 5757.83833283 0 3600.34744755 0 1615.20450608 0 169
0.01350000 0.01339930 85885.07764175 0 5222.58208008 0 -6597.22444663 0 -6102.13877582 0 -10125.68885121 0 180
0.01450000 0.01448870 85378.46915430 0 6425.87609893 0 19493.77173148 0 -5515.02435591 0 9831.13753744 0 267
0.01550000 0.01550050 81128.09863967 0 -696.07259225 0 16858.02354059 0 6696.25036845 0 -1762.80420785 0 238
0.01650000 0.01653350 87759.15556985 0 -1241.63017716 0 16384.58846233 0 6016.16252622 0 -10989.18610183 0 315
0.01750000 0.01747870 75640.42586948 0 -334.16607633 0 9487.11170876 0 -10437.89237311 0 10000.72835352 0 297
0.01850000 0.01844180 78156.00283634 0 779.60916827 0 13182.91509205 0 -1342.96285922 0 -8461.48216684 0 388
0.01950000 0.01947590 80725.18451739 0 -887.56225223 0 11821.48716632 0 15182.43683903 0 -2576.07999263 0 399
0.02050000 0.02045430 86901.69983415 0 -693.37587968 0 5654.72615000 0 -303.96728939 0 -7895.31532686 0 462
0.02150000 0.02154770 78011.55570689 0 3557.18906188 0 12545.04096225 0 -12162.22860779 0 -3988.50928886 0 571
0.02250000 0.02255340 79735.25483636 0 4199.54489729 0 17887.82722009 0 -2501.78034369 0 -18589.96109949 0 510
0.02350000 0.02348930 68954.88545930 0 424.05173530 0 20027.40226748 0 -3046.08788424 0 -628.68443638 0 555
0.02450000 0.02439640 69524.76508482 0 1372.99468066 0 20886.39584334 0 2827.90131906 0 -2345.64562902 0 592
0.02550000 0.02547300 67336.41853517 0 6674.18236213 0 27502.84329199 0 -3197.89467732 0 -12338.09161482 0 837
0.02650000 0.02652900 65901.72351032 0 2451.20737153 0 24181.10854339 0 -861.03231253 0 -5665.95238318 0 723
0.02750000 0.02749970 63996.01001318 0 -2171.18864728 0 31187.50831868 0 8240.48355108 0 -11177.35183015 0 826
0.02850000 0.02848090 60288.82661270 0 -336.99130839 0 22286.59931029 0 4681.72369532 0 -1312.15113313 0 831
0.02950000 0.02946900 59625.02889161 0 2159.69878436 0 24405.52336123 0 -3932.67470643 0 -4093.78543248 0 996
0.03050000 0.03053250 54001.47695859 0 5664.53537332 0 27236.90678980 0 -1147.29466783 0 1964.44800673 0 1041
0.03150000 0.03150510 52575.34990036 0 2345.50282958 0 24471.54064244 0 5317.01645056 0 3120.40950233 0 1036
0.03250000 0.03246190 51586.40883086 0 -607.57318633 0 23685.15509134 0 8978.43812167 0 2701.09541318 0 1059
0.03350000 0.03345080 51127.25369696 0 777.93292250 0 17444.16033353 0 10874.80374754 0 6623.06016134 0 1302
0.03450000 0.03451200 50635.25469104 0 -466.99592181 0 18983.86787225 0 -4477.38867616 0 7467.69690084 0 1339
0.03550000 0.03553350 46940.15432040 0 1678.00330753 0 15294.47947936 0 -3296.71189226 0 6314.09708834 0 1365
0.03650000 0.03647120 44474.33746734 0 1789.15619748 0 19997.63407579 0 321.53601477 0 7699.82288863 0 1308
0.03750000 0.03744890 45834.44724436 0 807.58357927 0 15789.11478270 0 2900.19079122 0 878.00347717 0 1579
0.03850000 0.03847530 45762.82783113 0 -186.23134509 0 18167.82397519 0 44.11931608 0 -162.27399229 0 1662
0.03950000 0.03950240 45408.46551966 0 1230.73348116 0 19967.86588409 0 -1496.53816848 0 -1925.26603633 0 1683
0.04050000 0.04050350 41391.95655529 0 1557.17300913 0 18536.68592247 0 -442.71672103 0 2437.85013127 0 1822
0.04150000 0.04152450 42189.76606187 0 -34.88634344 0 20575.09305639 0 2000.97171056 0 4234.59666840 0 1887
0.04250000 0.04250150 41762.02680556 0 -332.24707150 0 18719.79874740 0 3383.66576881 0 1003.64501836 0 1920
0.04350000 0.04349210 44652.50723461 0 1653.23309636 0 21652.24024371 0 2448.76879641 0 1008.99230829 0 2005
0.04450000 0.04448520 43161.68104387 0 -71.50352599 0 18288.43458213 0 -2824.01278036 0 4554.66514427 0 2151
0.04550000 0.04548030 40824.71322719 0 -276.73653396 0 19879.22038336 0 2400.55750735 0 2171.02387869 0 2274
0.04650000 0.04648670 41764.66310298 0 -10.70055547 0 20831.36313471 0 -900.36916540 0 4084.00916288 0 2311
0.04750000 0.04749250 39420.22577694 0 1598.21137230 0 21005.46861013 0 2.34801830 0 3667.82567692 0 2568
0.04850000 0.04851840 40365.44824757 0 1873.36393089 0 20075.18515821 0 3904.25761716 0 2348.09518871 0 2493
0.04950000 0.04949480 38521.46804834 0 -486.79890926 0 20371.65877218 0 822.96747317 0 2231.63675020 0 2644
0.05050000 0.05050630 37228.91339269 0 1027.91872685 0 18705.84834022 0 3353.20554904 0 6044.89816809 0 2829
0.05150000 0.05149060 36858.62345097 0 -210.66103451 0 14845.43015223 0 2665.10995340 0 7041.23185494 0 2784
0.05250000 0.05249300 37452.88882762 0 -1036.95353779 0 15766.92594608 0 3008.52064601 0 4671.46410453 0 3055
0.05350000 0.05348950 37858.65893878 0 1215.61870929 0 11058.60860054 0 244.48582886 0 3110.97375448 0 3009
0.05450000 0.05448610 35846.61477905 0 577.99942157 0 13634.82040804 0 -2224.76040776 0 2504.71322457 0 3336
0.05550000 0.05550870 36315.87571973 0 516.26282829 0 11973.07426794 0 521.40580518 0 2942.94274770 0 3349
0.05650000 0.05647670 35046.93789513 0 -397.21312911 0 10362.13177602 0 956.69475823 0 68.15224274 0 3324
0.05750000 0.05747970 35956.02112196 0 575.34445038 0 13015.51020591 0 1004.50511039 0 259.53908712 0 3639
0.05850000 0.05849280 34557.68503236 0 1141.14330719 0 11306.20086652 0 -1107.28885449 0 1006.24067286 0 3846
0.05950000 0.05951020 33441.10322946 0 -359.72717672 0 11685.49815776 0 88.55421893 0 -535.57480535 0 3787
0.06050000 0.06049470 33149.68251888 0 1191.45264961 0 12634.56522879 0 1663.30594941 0 2994.29562452 0 3930
0.06150000 0.06148310 32927.90399846 0 768.21706805 0 12697.06744677 0 -249.92868457 0 1853.85532998 0 4083
0.06250000 0.06249100 31493.53851079 0 361.00248560 0 13529.25866554 0 1381.00243407 0 5361.82252212 0 4303
0.06350000 0.06350600 30419.02762088 0 629.57308830 0 13512.23257804 0 369.34307156 0 4985.35925062 0 4470
0.06450000 0.06451750 31717.40410000 0 270.92349815 0 13670.73996038 0 1394.19490574 0 4744.05016015 0 4479
0.06550000 0.06550280 30757.46230212 0 -23.64769770 0 14696.91873093 0 280.53939298 0 5202.78788029 0 4636
0.06650000 0.06648880 29986.01576973 0 588.78187802 0 12391.36679184 0 111.58458365 0 7718.88112206 0 4653
0.06750000 0.06749660 29760.50249463 0 152.46476897 0 13096.24681438 0 1355.50724111 0 5964.24943620 0 5220
0.06850000 0.06852730 30165.39383998 0 116.78577877 0 12705.63541339 0 900.03743131 0 3890.68068545 0 5029
0.06950000 0.06949320 29378.12952308 0 118.90030899 0 11378.80889129 0 331.51330205 0 5173.97534641 0 5040
0.07050000 0.07048030 29046.83481402 0 133.23078238 0 11767.44306922 0 976.52850248 0 2921.29215515 0 5475
0.07150000 0.07148790 28512.87474084 0 983.99251955 0 11330.14723475 0 -43.72782591 0 4017.01425471 0 5509
0.07250000 0.07249820 27777.34776080 0 -149.94930185 0 8665.88309344 0 1474.16259413 0 3128.76876206 0 5916
0.07350000 0.07351270 28023.07264944 0 -604.81825553 0 9769.43719325 0 1387.13182557 0 2055.41125228 0 5721
0.07450000 0.07449140 27334.77933150 0 736.52987152 0 7285.62761030 0 378.79859164 0 1628.69356121 0 6028
0.07550000 0.07549160 26779.94857041 0 833.22816241 0 7352.64448762 0 -26.16316482 0 3094.92529394 0 6183
0.07650000 0.07648840 26723.59771307 0 193.67778684 0 6677.85120938 0 778.47556038 0 2525.91344965 0 6330
0.07750000 0.07749960 26379.78059127 0 670.41153224 0 7586.37422301 0 -326.82838184 0 1240.35596674 0 6583
0.07850000 0.07848650 24575.23500761 0 202.48302022 0 6624.38929462 0 242.35042795 0 2273.04858883 0 6549
0.07950000 0.07947320 24357.85031623 0 564.72456561 0 8324.18599415 0 -771.70576830 0 2451.97629161 0 6828
0.08050000 0.08048110 23369.12893818 0 752.76287288 0 7670.15355808 0 610.12490254 0 2256.65960654 0 7147
0.08150000 0.08149960 23098.79860695 0 102.27054487 0 8102.27565886 0 436.73891663 0 2103.33694245 0 7386
0.08250000 0.08250610 23347.92871310 0 9.29861644 0 8529.32288711 0 -948.88692404 0 966.93237987 0 7227
0.08350000 0.08350160 22576.37233498 0 435.91617215 0 7609.84825461 0 424.57679787 0 1276.78080942 0 7798
0.08450000 0.08449610 23054.20124227 0 33.36882474 0 8257.75129918 0 -295.66295251 0 -33.14594776 0 7371
0.08550000 0.08548940 21824.91772469 0 451.13639592 0 7971.13084681 0 -214.41775833 0 195.89337513 0 8256
0.08650000 0.08650700 21847.10656131 0 712.65270610 0 7975.75535187 0 -60.22775239 0 -1656.20991552 0 8037
0.08750000 0.08749060 20851.79443971 0 425.04144529 0 8208.29875342 0 25.69027897 0 -1430.75156329 0 8155
0.08850000 0.08849210 20627.05008470 0 407.60123940 0 8278.96250883 0 -129.29610848 0 -2675.71006594 0 8718
0.08950000 0.08949900 19508.82059592 0 102.62886163 0 7856.77046167 0 -137.58396850 0 -2143.71623126 0 8571
0.09050000 0.09049190 20201.83728007 0 162.34978584 0 7215.79868240 0 928.66652283 0 -2766.95891038 0 8932
0.09150000 0.09150830 19394.58104107 0 2.00461859 0 6807.37030468 0 447.59387126 0 -2117.80362454 0 9285
0.09250000 0.09250820 19005.06809734 0 328.76276507 0 6543.03755009 0 800.89617148 0 -1418.84428661 0 9204
0.09350000 0.09350330 19156.87489041 0 202.04473577 0 6623.91695800 0 272.69530970 0 -1379.36573276 0 9349
0.09450000 0.09448040 18455.72962254 0 117.08675606 0 5997.30201510 0 1056.52035693 0 319.84878442 0 9564
0.09550000 0.09549270 18600.83582634 0 180.63360690 0 5121.39219746 0 1308.13077957 0 259.78624001 0 10155
0.09650000 0.09649430 18223.18622100 0 264.97095826 0 5891.86110289 0 699.39322854 0 1826.06436135 0 9913
0.09750000 0.09749140 18071.92865655 0 450.04672632 0 5639.46857869 0 -478.34518220 0 858.22685269 0 10476
0.09850000 0.09850240 17184.59488343 0 509.18327126 0 5720.83130780 0 -520.06239195 0 2723.82249385 0 10575
0.09950000 0.09950330 16816.50185623 0 112.19312897 0 6170.01244980 0 -231.73493701 0 1779.25909758 0 10882
0.10050000 0.10051200 16397.98964088 0 99.17454309 0 6034.18820983 0 163.78327256 0 1574.63847954 0 10875
0.10150000 0.10150300 16286.38638345 0 251.77519122 0 6006.59496350 0 532.19485237 0 1110.49634968 0 11118
0.10250000 0.10250800 16175.44220038 0 51.92726012 0 5857.86385075 0 -90.25375200 0 708.43353177 0 11575
0.10350000 0.10349800 16113.48921102 0 282.15082978 0 5831.73155258 0 -783.15718522 0 27.82403219 0 11364
0.10450000 0.10450100 15758.57767092 0 228.52524490 0 5882.59012363 0 448.92849683 0 437.27825915 0 12093
0.10550000 0.10551000 15762.97149995 0 -142.76868675 0 5607.87694795 0 497.90541060 0 106.33231027 0 12067
0.10650000 0.10649700 15754.73307052 0 26.12669604 0 5196.96605682 0 283.62386096 0 527.01562639 0 12054
0.10750000 0.10749900 15624.01665680 0 212.08024129 0 5280.49274673 0 656.78407150 0 909.87411606 0 12807
0.10850000 0.10850100 15959.81504061 0 -256.28106290 0 5463.00142017 0 385.96602525 0 1255.42680032 0 12736
0.10950000 0.10950300 15559.97659865 0 98.82523368 0 4816.19683286 0 840.24400892 0 2080.79659951 0 12933
0.11050000 0.11050200 15727.49133052 0 203.08717171 0 5092.00846581 0 -486.95159482 0 1665.07446560 0 13428
0.11150000 0.11150900 15208.03089314 0 501.32490804 0 5313.34760332 0 -1007.91362326 0 1473.20693632 0 13453
0.11250000 0.11250000 14843.78246635 0 450.55970586 0 6275.46434658 0 -892.83594553 0 1383.07851829 0 13668
0.11350000 0.11349100 14308.06486155 0 285.19245793 0 6643.75509608 0 394.84375681 0 209.33190123 0 13791
0.11450000 0.11448600 14276.31944679 0 0.10900947 0 6228.07690046 0 688.98205065 0 1170.02174850 0 14205
0.11550000 0.11549300 14305.31871841 0 -315.96463956 0 5355.60525404 0 1127.68720577 0 257.81890306 0 14776
0.11650000 0.11649800 14617.28057972 0 172.31169471 0 5089.19641523 0 396.10478574 0 625.81306910 0 14553
0.11750000 0.11747300 14298.17874623 0 271.84949761 0 4613.24586985 0 -361.44736079 0 904.44004800 0 14568
0.11850000 0.11849100 13627.57059014 0 25.50793507 0 4402.63865975 0 321.95452699 0 551.36842381 0 16015
0.11950000 0.11950300 14027.84841500 0 98.92903789 0 4463.53713014 0 -72.68370847 0 -183.63129676 0 15270
0.12050000 0.12050700 13357.67964182 0 487.26026131 0 4520.78872243 0 -209.49117753 0 62.62788150 0 15999
0.12150000 0.12150000 13126.01500608 0 -73.39539893 0 4368.65239218 0 390.62458248 0 1281.60303678 0 15670
0.12250000 0.12250700 13413.15173335 0 -42.07058345 0 4402.39699915 0 784.24795327 0 512.59178414 0 16887
0.12350000 0.12352200 13288.80637173 0 -75.60077156 0 3081.55706911 0 241.27393983 0 232.74771460 0 16407
0.12450000 0.12449800 13223.11862770 0 149.09030827 0 3661.11410307 0 40.17266900 0 826.57480680 0 16306
0.12550000 0.12549900 12846.34778816 0 297.00087345 0 3505.27597186 0 -202.08537869 0 819.27555832 0 17523
0.12650000 0.12650100 12729.47193589 0 99.42817687 0 3739.80758104 0 140.48609257 0 666.90305976 0 17154
0.12750000 0.12750600 12756.05460154 0 42.57268826 0 3516.54614333 0 72.75884294 0 188.04050419 0 18007
0.12850000 0.12850300 12539.32898451 0 165.87803055 0 3641.48467187 0 -50.67468931 0 -506.05266808 0 17496
0.12950000 0.12949900 12248.12796538 0 119.02553312 0 3605.32345893 0 26.49544814 0 772.61968474 0 18405
0.13050000 0.13049000 12415.31316006 0 -15.10895005 0 3340.01307737 0 136.11203577 0 330.50272137 0 18100
0.13150000 0.13148800 12233.95786675 0 125.28014875 0 3475.70550247 0 89.40442485 0 -532.41893765 0 19059
0.13250000 0.13249300 12191.99679948 0 63.86639206 0 3240.38300406 0 246.70471252 0 388.71326685 0 18957
0.13350000 0.13349100 12047.32997859 0 174.33285607 0 3114.19223425 0 415.56834990 0 643.05335577 0 19468
0.13450000 0.13450700 11961.87000391 0 58.41606683 0 3348.28446053 0 -1.49292424 0 1210.13740757 0 19953
0.13550000 0.13551000 11734.15981429 0 103.31122328 0 3174.39867656 0 -145.87841925 0 327.89388538 0 19956
0.13650000 0.13649900 11721.41771010 0 261.55915002 0 3569.35996830 0 107.58235463 0 871.37209070 0 19723
0.13750000 0.13749600 11262.04288475 0 -67.23590970 0 3272.27121826 0 -263.88128866 0 763.56949539 0 20946
0.13850000 0.13851100 11305.87132935 0 281.38630353 0 3394.47458823 0 -213.92784639 0 77.70991934 0 20955
0.13950000 0.13949800 11231.06639007 0 258.86792974 0 3704.23953503 0 -200.51238790 0 -106.95184017 0 20506
0.14050000 0.14048300 10955.68315545 0 129.15221058 0 4188.12094181 0 -111.15288995 0 -463.67199015 0 21447
0.14150000 0.14148400 10805.35927968 0 65.62238583 0 3573.90758135 0 -65.38764551 0 -496.28738305 0 21771
0.14250000 0.14249400 10735.59625921 0 23.09682138 0 3653.35899483 0 557.21990562 0 -360.64768391 0 22470
0.14350000 0.14350900 10708.26664263 0 84.43786020 0 3741.48822065 0 28.92962942 0 -643.18626910 0 22519
0.14450000 0.14449900 10550.57211865 0 39.86323359 0 3334.91623570 0 234.05817411 0 -209.99207404 0 22218
0.14550000 0.14550500 10433.88300412 0 225.47263218 0 3414.30174174 0 245.97753381 0 -205.19401273 0 23559
0.14650000 0.14650700 10356.83721204 0 70.59565107 0 3069.10056380 0 -21.76955548 0 335.39085617 0 23044
0.14750000 0.14750500 10055.61826271 0 25.32899638 0 3057.41297857 0 678.53901749 0 86.93190741 0 23649
0.14850000 0.14849900 10092.96580949 0 53.05405757 0 2930.66199556 0 -83.70046585 0 445.52767316 0 23640
0.14950000 0.14949500 9936.28186619 0 161.19091343 0 2839.29232083 0 -123.04478823 0 -72.18160366 0 24457
0.15050000 0.15050000 9822.83320057 0 211.76059022 0 2836.27156337 0 -216.40267060 0 -264.03836805 0 24591
0.15150000 0.15149900 9790.67037205 0 -69.84902967 0 2429.90828529 0 162.25092468 0 -210.23483309 0 25020
0.15250000 0.15250500 9784.37621196 0 -106.62790512 0 2341.79004404 0 641.45400200 0 -302.29873281 0 25297
0.15350000 0.15350100 9730.59574460 0 32.42448104 0 2147.85741512 0 101.36223056 0 -498.42058705 0 25452
0.15450000 0.15450400 9476.99491742 0 252.54520976 0 2145.68246975 0 -344.85406545 0 -107.93221327 0 26061
0.15550000 0.15549900 9453.36710179 0 185.65904886 0 2249.84917154 0 -56.96753125 0 -558.46994998 0 26128
0.15650000 0.15649500 9130.79414337 0 200.90343868 0 2353.78519730 0 -166.32290574 0 -470.00569470 0 26331
0.15750000 0.15749700 8890.83615533 0 203.47492713 0 2687.23288258 0 -42.53347334 0 -575.15771265 0 27345
0.15850000 0.15849900 8930.32569376 0 113.69472005 0 2766.68429606 0 -158.12621768 0 -731.21004302 0 26980
0.15950000 0.15949700 8770.89560732 0 -19.04318456 0 3052.08546087 0 -17.04058714 0 -642.88748872 0 27777
0.16050000 0.16050000 8754.50662502 0 -53.28978650 0 2541.65434216 0 138.57367849 0 -668.44529375 0 28224
0.16150000 0.16150500 8777.05795253 0 66.74171378 0 2525.88049593 0 292.14239700 0 -245.81496214 0 28075
0.16250000 0.16249700 8785.18653624 0 53.37096249 0 2687.17795972 0 179.61753394 0 55.72078226 0 28590
0.16350000 0.16349900 8703.23064021 0 -36.27226697 0 2395.82315657 0 55.10542650 0 -88.49534162 0 29163
0.16450000 0.16449100 8491.55792657 0 284.72451514 0 2753.74446956 0 6.54392730 0 221.03596331 0 28996
0.16550000 0.16550500 8704.95521811 0 102.60447588 0 2513.85238896 0 52.72023641 0 545.78935939 0 30777
0.16650000 0.16650700 8485.46148879 0 -60.43558050 0 2799.07780061 0 390.15993506 0 600.64082258 0 29211
0.16750000 0.16749900 8525.54419414 0 98.38222587 0 2438.15769930 0 113.87376858 0 510.76395126 0 30922
0.16850000 0.16850800 8410.96411754 0 2.20262649 0 2582.06658469 0 -120.67431746 0 1060.06178313 0 30867
0.16950000 0.16949900 8172.59889253 0 88.98020066 0 2445.77000810 0 187.08924021 0 848.37149417 0 30852
0.17050000 0.17049200 8305.89668080 0 16.29330666 0 2495.96950480 0 -52.26635387 0 453.77049642 0 31257
0.17150000 0.17149500 8232.72844284 0 99.60810417 0 2428.51324457 0 -195.93182113 0 612.89301483 0 32608
0.17250000 0.17250900 8096.15725193 0 139.95553772 0 2358.19001091 0 105.43146548 0 258.09900966 0 32361
0.17350000 0.17350400 8094.07018314 0 -26.50862963 0 2539.71007281 0 15.53899607 0 499.89142132 0 32508
0.17450000 0.17449800 8073.78167759 0 -33.25282766 0 2160.79724162 0 262.49942943 0 -275.47220965 0 32791
0.17550000 0.17549800 7964.93554788 0 268.63211631 0 2353.51058299 0 -164.05129613 0 242.78102319 0 33633
0.17650000 0.17650100 7903.39997228 0 9.99018316 0 2229.43983568 0 -48.80291814 0 304.82408605 0 33984
0.17750000 0.17750300 7843.35829855 0 23.33375861 0 2196.98042370 0 372.48685623 0 33.99966875 0 34069
0.17850000 0.17849800 7803.26460862 0 57.32013603 0 2164.61987288 0 -100.52817197 0 34.78616414 0 34536
