### header ###
fiducial parameters:
Omega_m = 0.31
Omega_nu = 0
Omega_de = 0.69
Omega_k = 0
H_0 = 100
w_de = -1
zeff = 0
beta = 0
fgrowth = 0
b_1 = 2
gamma = 0.55
Lx = 3500 Ly = 3500 Lz = 3500
nx = 700 ny = 700 nz = 700
xoffset = -983.599254 yoffset = -42.9823471 zoffset = 800.977702
bins = 400 dk = 0.001
kx_ny = 0.628318531 ky_ny = 0.628318531 kz_ny = 0.628318531
############################
A(data) = 9.05363678 (not used)
A(ran) = 9.06053011 (used)
Ngal = 503734
weighted Ngal = 0
Nran = 25229228
weighted Nran = 0
SN(data) = 6721.82838
SN(ran) = 134.497327
SN(data+ran) = 6856.32571
############################
13 columns: k_central k_mean P_0(k) sigma^{lin}_{P_0(k)} P^img_1(k) sigma^{lin}_{P_1(k)} P_2(k) sigma^{lin}_{P_2(k)} P^img_3(k) sigma^{lin}_{P_3(k)} P_4(k) sigma^{lin}_{P_4(k)} N_modes
### header ###
0.00050000 0 0 0 0 0 0 0 0 0 0 0 0
0.00150000 0.00179520 4674.57273857 0 -8564.18792048 0 -1937.98617138 0 -4003.82178304 0 -20003.23620780 0 3
0.00250000 0.00253879 8038.18067785 0 -13234.76227463 0 -22171.37114391 0 13647.56251224 0 23564.21494722 0 6
0.00350000 0.00331552 15040.62600700 0 -12365.66289200 0 -14071.67685960 0 6818.40980013 0 -36887.51287686 0 7
0.00450000 0.00420575 33535.68039939 0 -22740.26215790 0 -27427.04974118 0 -4768.39197299 0 -15342.04267864 0 24
0.00550000 0.00557378 49143.33004304 0 -4405.58252520 0 -27107.50852479 0 -23343.53488406 0 -7153.86766219 0 45
0.00650000 0.00659388 60597.27341079 0 11052.34739417 0 -22840.99068847 0 -20702.07471543 0 26609.79754113 0 40
0.00750000 0.00754703 54271.14821547 0 -13739.50338474 0 -18508.12603376 0 -12900.28203953 0 -13069.99368591 0 57
0.00850000 0.00846663 73689.89531622 0 -16701.38353558 0 -21861.05696849 0 6475.29569098 0 -35995.23604608 0 75
0.00950000 0.00948925 77140.91848410 0 4862.32105313 0 -8139.12889987 0 -19830.88826400 0 -9598.35247530 0 112
0.01050000 0.01054430 73518.20644677 0 3460.31611628 0 3916.70313789 0 -15480.77783034 0 20787.31499866 0 105
0.01150000 0.01145670 87012.86370867 0 -9176.70965676 0 -13079.44041833 0 15708.37817422 0 -30020.06794473 0 144
0.01250000 0.01249090 89053.02837421 0 180.34581110 0 21352.14172079 0 -18241.20092003 0 -22601.30731474 0 169
0.01350000 0.01339930 90519.68850527 0 19848.24388868 0 32224.01258745 0 -32589.24962578 0 -10862.00672048 0 180
0.01450000 0.01448870 68423.01245491 0 3059.15952561 0 41416.67184360 0 -7230.05665761 0 11666.16531002 0 267
0.01550000 0.01550050 67578.40866913 0 -3016.96778233 0 36038.07587915 0 22394.35796731 0 -7086.34549453 0 238
0.01650000 0.01653350 84340.97627399 0 -5466.96685087 0 35850.56922518 0 17465.47040434 0 -18923.45272306 0 315
0.01750000 0.01747870 78587.58669306 0 1386.98902613 0 32224.23227890 0 19910.41656949 0 21399.59507434 0 297
0.01850000 0.01844180 77452.33111678 0 5995.01722400 0 31957.96623953 0 -5446.21699327 0 19942.27182998 0 388
0.01950000 0.01947590 83560.30270063 0 -4005.89786725 0 20091.11278845 0 6882.47182742 0 8044.54074537 0 399
0.02050000 0.02045430 82906.61078632 0 -4899.87730679 0 16483.77915274 0 5231.36973815 0 -5155.43338789 0 462
0.02150000 0.02154770 71883.26266376 0 9217.71506621 0 29735.01828624 0 -19794.08994585 0 -7060.11433521 0 571
0.02250000 0.02255340 71823.39674319 0 6813.81824879 0 29844.42462915 0 -1903.08818429 0 9639.28099273 0 510
0.02350000 0.02348930 72515.42481582 0 -5858.74261656 0 28864.93029208 0 11049.05202240 0 -24278.21216501 0 555
0.02450000 0.02439640 68161.14024457 0 -664.33047286 0 32939.32795395 0 23.31003194 0 -8759.61445127 0 592
0.02550000 0.02547300 68882.71681744 0 5174.59048247 0 25261.11171959 0 -3449.60615802 0 -17267.74809787 0 837
0.02650000 0.02652900 67656.94836309 0 -1752.67643193 0 26029.15303448 0 1947.89425585 0 -3717.69563644 0 723
0.02750000 0.02749970 72348.56915831 0 -3425.01170001 0 24584.90143148 0 9327.94525206 0 -10464.34322389 0 826
0.02850000 0.02848090 70565.33364545 0 -28.66764737 0 16331.53297676 0 10001.92567193 0 -4888.85978049 0 831
0.02950000 0.02946900 68771.55294292 0 3386.41191196 0 16789.36996195 0 -743.20849165 0 -3295.25094410 0 996
0.03050000 0.03053250 65172.56758237 0 2682.49853180 0 18159.80523720 0 1247.81449152 0 -170.83756507 0 1041
0.03150000 0.03150510 62430.04934598 0 3024.64599856 0 19603.72730302 0 4419.35717922 0 7829.06736962 0 1036
0.03250000 0.03246190 56638.87283537 0 2220.04802612 0 18495.05439239 0 -608.32123573 0 -613.60261822 0 1059
0.03350000 0.03345080 58044.89812579 0 2609.78066131 0 18567.33287997 0 5107.95806520 0 10435.10229168 0 1302
0.03450000 0.03451200 52886.32315014 0 1447.32728332 0 15407.18119404 0 -3495.93908517 0 2414.18936193 0 1339
0.03550000 0.03553350 49087.30872288 0 1470.99903723 0 19885.92097263 0 278.70167399 0 11889.48167059 0 1365
0.03650000 0.03647120 46919.61316968 0 1914.35835576 0 17590.14530313 0 4596.57128867 0 2299.44451674 0 1308
0.03750000 0.03744890 47988.96131047 0 -456.84397983 0 16397.66010370 0 5628.05560778 0 3761.99641766 0 1579
0.03850000 0.03847530 47225.97289897 0 923.62240710 0 11912.65911874 0 1017.79534476 0 4640.31185669 0 1662
0.03950000 0.03950240 45902.77128582 0 1878.02138966 0 15276.46478033 0 1705.47572355 0 2740.98039622 0 1683
0.04050000 0.04050350 43063.14942782 0 976.70205873 0 14668.24899650 0 -6680.90492055 0 4836.60616872 0 1822
0.04150000 0.04152450 41588.90994168 0 1165.61693490 0 14166.91310388 0 2589.21754144 0 -39.21459458 0 1887
0.04250000 0.04250150 40248.24285812 0 384.93018005 0 15898.41127988 0 2551.11205915 0 4314.66321794 0 1920
0.04350000 0.04349210 39351.79188976 0 -176.11784911 0 16301.87463079 0 1423.47977624 0 2646.38125715 0 2005
0.04450000 0.04448520 40835.03872542 0 -242.09997969 0 12724.85841541 0 1639.59025721 0 2260.37239207 0 2151
0.04550000 0.04548030 40732.00343460 0 -386.23954111 0 10230.54758107 0 1998.03882968 0 3584.06831099 0 2274
0.04650000 0.04648670 41773.34091532 0 1715.84516007 0 15492.53132300 0 -2820.86020803 0 646.68265855 0 2311
0.04750000 0.04749250 40407.51916055 0 1646.94992084 0 14988.77882442 0 -4341.85003508 0 227.49708890 0 2568
0.04850000 0.04851840 37016.14222179 0 368.14245778 0 15783.18311350 0 868.76435317 0 2803.94396626 0 2493
0.04950000 0.04949480 38831.78222376 0 -1837.01598021 0 16325.38161612 0 6180.30499430 0 4010.09397398 0 2644
0.05050000 0.05050630 39918.70568068 0 -432.33959531 0 15531.63640139 0 1551.38413938 0 580.14251168 0 2829
0.05150000 0.05149060 39835.00323761 0 2160.14915184 0 14842.46431764 0 -562.70010888 0 4446.02772144 0 2784
0.05250000 0.05249300 37605.46454078 0 738.83333639 0 15024.36883958 0 -834.28597675 0 6562.57910471 0 3055
0.05350000 0.05348950 35760.93511292 0 798.97277282 0 16911.73810051 0 2437.01530375 0 6843.61939420 0 3009
0.05450000 0.05448610 35919.66218672 0 1423.22713107 0 17777.32241992 0 864.08931908 0 7291.59223321 0 3336
0.05550000 0.05550870 35321.33251821 0 -310.66787866 0 15989.36354085 0 2115.33209571 0 6879.19842479 0 3349
0.05650000 0.05647670 34670.16705559 0 -106.02276502 0 13284.85192560 0 1144.27391037 0 7548.87289221 0 3324
0.05750000 0.05747970 33867.63418280 0 1659.02196611 0 14927.81444659 0 -175.38847349 0 5940.11633024 0 3639
0.05850000 0.05849280 33281.71708131 0 428.88494724 0 15463.97143429 0 -1846.21006746 0 6092.81287369 0 3846
0.05950000 0.05951020 31484.97054418 0 820.73870339 0 15602.15735736 0 1501.31645756 0 4845.77828682 0 3787
0.06050000 0.06049470 31558.45733475 0 -152.22091146 0 15021.29315926 0 -214.66381276 0 3376.05346001 0 3930
0.06150000 0.06148310 31723.11607774 0 618.98176342 0 13782.45306354 0 2261.09737386 0 914.49862111 0 4083
0.06250000 0.06249100 31282.41502578 0 -636.19678557 0 12295.25178175 0 1713.49446154 0 3240.41595778 0 4303
0.06350000 0.06350600 32159.86268358 0 -287.83205072 0 10743.84567322 0 1313.23860582 0 429.89223254 0 4470
0.06450000 0.06451750 31996.96147219 0 390.45432160 0 10591.95100357 0 1200.55886028 0 692.82884797 0 4479
0.06550000 0.06550280 31351.61783304 0 332.33714499 0 10130.03874195 0 -2045.43726037 0 102.34930426 0 4636
0.06650000 0.06648880 30046.21122747 0 925.44255078 0 10527.53746995 0 -604.01198790 0 -338.85539036 0 4653
0.06750000 0.06749660 29557.28790188 0 895.33823116 0 11169.88232079 0 -268.38935725 0 -23.23621561 0 5220
0.06850000 0.06852730 28679.29101545 0 12.27580909 0 10923.37752749 0 1654.50730677 0 -476.29875633 0 5029
0.06950000 0.06949320 29364.28896162 0 -114.28019776 0 11917.05294777 0 1252.71361089 0 -135.80886157 0 5040
0.07050000 0.07048030 28459.48971810 0 378.29000593 0 8964.55362192 0 1245.62856158 0 -50.57264263 0 5475
0.07150000 0.07148790 27783.38927572 0 59.74640842 0 9228.65570050 0 1269.54197609 0 2149.72479246 0 5509
0.07250000 0.07249820 28981.25691571 0 -195.22551312 0 8270.59226453 0 4.11187702 0 1776.08455610 0 5916
0.07350000 0.07351270 28235.73397462 0 563.58326852 0 8524.32490658 0 784.96304895 0 1155.76377329 0 5721
0.07450000 0.07449140 27565.89473861 0 938.50979832 0 8730.56025680 0 -1253.64729956 0 3202.10176861 0 6028
0.07550000 0.07549160 25718.50932188 0 731.38250081 0 9358.02101179 0 495.98420885 0 2986.41968598 0 6183
0.07650000 0.07648840 27188.02544181 0 -373.35463747 0 9911.01734925 0 2016.95426367 0 4261.26721063 0 6330
0.07750000 0.07749960 25864.05490858 0 -51.57630302 0 8451.93657327 0 990.31414107 0 3057.18230255 0 6583
0.07850000 0.07848650 26129.11264497 0 836.40380235 0 9387.87708006 0 -978.51231629 0 3504.51803635 0 6549
0.07950000 0.07947320 25082.61241514 0 802.71411824 0 9419.22705021 0 -1134.24499560 0 1708.48549644 0 6828
0.08050000 0.08048110 24455.06378357 0 221.38746963 0 9880.04085457 0 206.89112920 0 2879.33108788 0 7147
0.08150000 0.08149960 23524.45079448 0 136.77879933 0 10238.17087444 0 811.29306943 0 2024.51164960 0 7386
0.08250000 0.08250610 24007.00306798 0 987.14069805 0 10394.78891031 0 62.23364519 0 2127.10755751 0 7227
0.08350000 0.08350160 23128.23726147 0 498.37774722 0 8652.14139314 0 552.24938653 0 1951.80476369 0 7798
0.08450000 0.08449610 22488.93513724 0 -538.66366716 0 10265.97282764 0 297.33809983 0 1246.89178743 0 7371
0.08550000 0.08548940 22251.11914085 0 390.95302120 0 8376.39566763 0 1385.49512426 0 2724.62436765 0 8256
0.08650000 0.08650700 22626.13244878 0 48.33849041 0 7712.85059171 0 316.11622666 0 2436.14752252 0 8037
0.08750000 0.08749060 21768.67671308 0 202.20511053 0 8137.07478480 0 -461.06205570 0 1549.91220665 0 8155
0.08850000 0.08849210 21022.71438908 0 888.70574624 0 7987.47589081 0 382.57838306 0 2247.21287412 0 8718
0.08950000 0.08949900 20823.67393390 0 153.98942765 0 8103.30820868 0 287.88038284 0 2168.77204132 0 8571
0.09050000 0.09049190 20444.59633412 0 168.30012881 0 7518.87402449 0 1212.42219867 0 1718.40456548 0 8932
0.09150000 0.09150830 19751.57964996 0 927.23633148 0 8233.39850177 0 -602.74436823 0 2352.17046513 0 9285
0.09250000 0.09250820 18986.50416967 0 260.92314327 0 7844.23706435 0 -159.97711816 0 3393.09053209 0 9204
0.09350000 0.09350330 18118.72293575 0 153.38966998 0 7777.85729224 0 1353.88152437 0 2744.71515090 0 9349
0.09450000 0.09448040 18312.71048753 0 13.49696402 0 6763.67367495 0 939.51159134 0 2121.58231751 0 9564
0.09550000 0.09549270 18364.55767012 0 -60.04936293 0 6780.76566989 0 607.83901299 0 2402.44685384 0 10155
0.09650000 0.09649430 17904.96315332 0 368.50494867 0 5490.53974363 0 219.86940170 0 2634.33118103 0 9913
0.09750000 0.09749140 17842.79047250 0 245.29429340 0 5726.32359409 0 -152.67786968 0 1878.80129431 0 10476
0.09850000 0.09850240 17115.83145907 0 177.31956135 0 5552.22910325 0 -55.66794646 0 2408.77396765 0 10575
0.09950000 0.09950330 16733.01910461 0 177.94897736 0 5427.68601932 0 717.19482687 0 2023.69879123 0 10882
0.10050000 0.10051200 16781.24137824 0 -47.53727569 0 4665.90591080 0 823.31019183 0 2141.23371785 0 10875
0.10150000 0.10150300 16885.92435494 0 157.53305076 0 4676.29731647 0 349.81469843 0 1652.80469802 0 11118
0.10250000 0.10250800 16550.01612541 0 656.68411189 0 5014.85282800 0 -850.97154250 0 1508.10492341 0 11575
0.10350000 0.10349800 16380.08478757 0 297.50506534 0 5224.60324144 0 -907.75519201 0 1790.62813020 0 11364
0.10450000 0.10450100 15743.30911503 0 147.82598397 0 6126.61240353 0 -261.29991411 0 584.00029357 0 12093
0.10550000 0.10551000 15203.08783548 0 224.92230509 0 6545.84960067 0 -548.55857014 0 1016.93195735 0 12067
0.10650000 0.10649700 15518.23522284 0 215.70844561 0 6162.74066275 0 329.96337886 0 -385.62550350 0 12054
0.10750000 0.10749900 15233.62494726 0 -170.13784780 0 6790.17944859 0 401.57839826 0 1197.54908739 0 12807
0.10850000 0.10850100 15131.79795943 0 144.52182454 0 6132.60998016 0 877.06978850 0 850.31356661 0 12736
0.10950000 0.10950300 15069.84497007 0 267.43260098 0 5715.63560497 0 307.88878180 0 1638.41490794 0 12933
0.11050000 0.11050200 14961.86662160 0 178.28180991 0 5822.43860418 0 519.17264157 0 1515.03618871 0 13428
0.11150000 0.11150900 14656.93488674 0 149.48355597 0 5586.02863308 0 -252.33210905 0 925.87753985 0 13453
0.11250000 0.11250000 14445.48186455 0 147.88749758 0 5976.11277459 0 -268.94407817 0 773.95870414 0 13668
0.11350000 0.11349100 14036.19669017 0 99.54988593 0 5566.49806303 0 -355.03346886 0 986.00709016 0 13791
0.11450000 0.11448600 14396.93005374 0 -237.78853495 0 5732.29920157 0 118.45653226 0 -90.88042187 0 14205
0.11550000 0.11549300 14361.44988430 0 -189.46740017 0 4629.20645381 0 814.69938538 0 -1098.06840426 0 14776
0.11650000 0.11649800 14564.88416851 0 185.71287326 0 4686.48001525 0 -64.39837491 0 -581.12563093 0 14553
0.11750000 0.11747300 14693.73320489 0 260.76606388 0 4590.20023657 0 16.54441399 0 -660.88351398 0 14568
0.11850000 0.11849100 14141.09935832 0 162.61451404 0 4923.92253617 0 -135.81764922 0 -390.57734882 0 16015
0.11950000 0.11950300 13934.91893097 0 152.95687782 0 4567.57201706 0 556.61245876 0 -711.82666625 0 15270
0.12050000 0.12050700 14070.02917372 0 108.84250480 0 4971.00241425 0 89.63960455 0 -53.64755403 0 15999
0.12150000 0.12150000 13689.41373377 0 177.66447693 0 4847.30514241 0 84.82385808 0 312.57150509 0 15670
0.12250000 0.12250700 13601.20761594 0 -79.66539295 0 4713.32631064 0 335.38426543 0 37.55669304 0 16887
0.12350000 0.12352200 13399.09148045 0 79.66418465 0 4263.90350805 0 126.16220993 0 387.82022110 0 16407
0.12450000 0.12449800 13321.65024375 0 419.62495255 0 4896.05467553 0 236.60769340 0 1060.54180896 0 16306
0.12550000 0.12549900 13102.83755793 0 266.90424304 0 4733.32921731 0 -229.28977115 0 508.78013745 0 17523
0.12650000 0.12650100 12749.24416654 0 226.23056768 0 5247.40721412 0 -106.55903185 0 562.11463116 0 17154
0.12750000 0.12750600 12455.84623289 0 91.94570572 0 5005.65874075 0 -41.82969177 0 1270.73929450 0 18007
0.12850000 0.12850300 12474.73969773 0 -124.17290383 0 4851.52321828 0 510.33774984 0 1636.33882372 0 17496
0.12950000 0.12949900 12635.33414887 0 -17.98328316 0 4890.33171321 0 592.60341082 0 680.83479316 0 18405
0.13050000 0.13049000 12580.19159451 0 61.56457487 0 4632.80939362 0 -155.60635673 0 1298.93669232 0 18100
0.13150000 0.13148800 12492.75439676 0 41.36855942 0 4195.97491120 0 237.11737757 0 465.42183256 0 19059
0.13250000 0.13249300 12230.66249497 0 314.28290150 0 4387.94130163 0 -228.89103116 0 940.14210581 0 18957
0.13350000 0.13349100 12200.56476610 0 105.87271576 0 4246.10850046 0 263.23649425 0 811.91259932 0 19468
0.13450000 0.13450700 12113.12756835 0 6.64819286 0 4341.44360590 0 311.68395162 0 89.24723562 0 19953
0.13550000 0.13551000 11894.64441971 0 166.93694335 0 3590.47231680 0 26.63066823 0 104.06212866 0 19956
0.13650000 0.13649900 11871.35712584 0 8.88082921 0 3853.27821581 0 90.64260587 0 94.83783383 0 19723
0.13750000 0.13749600 11570.92906574 0 -27.32489322 0 3266.99862343 0 158.85119947 0 214.53968709 0 20946
0.13850000 0.13851100 11407.47862572 0 263.63633270 0 3450.71559985 0 419.71941988 0 -259.10299959 0 20955
0.13950000 0.13949800 11084.09280893 0 313.34152363 0 3395.82569066 0 -155.47344340 0 680.91278363 0 20506
0.14050000 0.14048300 11042.79081602 0 70.32740780 0 3175.77174814 0 284.42683322 0 133.90303822 0 21447
0.14150000 0.14148400 11018.62475635 0 -21.17968393 0 3161.98610955 0 245.21300756 0 138.22656599 0 21771
0.14250000 0.14249400 10716.05470459 0 238.65961156 0 3254.76180957 0 -248.70610164 0 432.97779898 0 22470
0.14350000 0.14350900 10715.58236797 0 141.77018911 0 3069.75963815 0 -49.91268951 0 236.75159130 0 22519
0.14450000 0.14449900 10662.35112924 0 -92.66365738 0 3234.73693375 0 492.52626540 0 387.30943847 0 22218
0.14550000 0.14550500 10597.41033614 0 32.47940390 0 3318.07688593 0 -480.23562714 0 -126.47307333 0 23559
0.14650000 0.14650700 10467.53973451 0 306.67059270 0 3174.33276913 0 -177.01528869 0 326.11108925 0 23044
0.14750000 0.14750500 10263.58917539 0 -83.23043599 0 3574.73142429 0 50.58670288 0 -60.91417833 0 23649
0.14850000 0.14849900 10457.40097402 0 199.56222237 0 3223.75236117 0 268.66507002 0 -226.21409083 0 23640
0.14950000 0.14949500 10313.52504235 0 19.88108776 0 3056.94064195 0 284.50592214 0 -297.96422047 0 24457
0.15050000 0.15050000 10159.80693365 0 -9.92350681 0 2884.57072901 0 115.61482333 0 -210.49297055 0 24591
0.15150000 0.15149900 10000.65146151 0 245.31626254 0 3005.62071885 0 -316.19861095 0 -375.39776797 0 25020
0.15250000 0.15250500 9632.23988171 0 304.66480974 0 3149.71634197 0 -105.53790598 0 -10.15607218 0 25297
0.15350000 0.15350100 9567.47484177 0 42.23282559 0 3064.39916674 0 126.28194177 0 -481.10560529 0 25452
0.15450000 0.15450400 9602.08722997 0 45.05575089 0 3047.52686325 0 162.16963885 0 -437.71214976 0 26061
0.15550000 0.15549900 9222.80092331 0 41.78344672 0 2860.15202416 0 184.08495960 0 -192.82428555 0 26128
0.15650000 0.15649500 9325.56159981 0 25.97917323 0 2877.83718601 0 157.16177221 0 -305.76216855 0 26331
0.15750000 0.15749700 9144.51387452 0 83.90411982 0 2556.12102425 0 251.27868854 0 291.93149321 0 27345
0.15850000 0.15849900 9273.03337373 0 100.62472636 0 2637.61556823 0 240.71152972 0 -271.30026899 0 26980
0.15950000 0.15949700 9374.33310207 0 78.81277043 0 2670.66814713 0 69.09757506 0 106.52849474 0 27777
0.16050000 0.16050000 9200.24959580 0 -68.27318288 0 2347.06263888 0 154.06631965 0 -81.59197714 0 28224
0.16150000 0.16150500 9112.68058318 0 46.93499157 0 2367.64772790 0 -286.50291744 0 -157.35400223 0 28075
0.16250000 0.16249700 8957.73220235 0 139.84129816 0 2403.98469400 0 -270.81145551 0 -655.50656571 0 28590
0.16350000 0.16349900 8730.12087389 0 276.50695639 0 2824.11164152 0 -440.20784465 0 -300.52911817 0 29163
0.16450000 0.16449100 8518.88754315 0 204.60523964 0 3022.80059037 0 -80.95025841 0 -532.76824705 0 28996
0.16550000 0.16550500 8400.45188158 0 75.69249274 0 2873.08086609 0 277.96570763 0 -826.02118434 0 30777
0.16650000 0.16650700 8420.60857227 0 59.33426726 0 2906.69365818 0 390.02592327 0 -441.94670249 0 29211
0.16750000 0.16749900 8374.16579940 0 -73.86389095 0 2521.14614515 0 413.12428250 0 -43.22802786 0 30922
0.16850000 0.16850800 8373.70444735 0 -55.44133473 0 2508.44797925 0 228.14847406 0 238.46298771 0 30867
0.16950000 0.16949900 8290.47434090 0 160.44396249 0 2288.35009844 0 243.83114833 0 58.12387720 0 30852
0.17050000 0.17049200 8297.71317423 0 193.42953550 0 2293.67761614 0 -173.05425182 0 556.17746968 0 31257
0.17150000 0.17149500 8032.95202130 0 62.99619422 0 2437.90505413 0 -212.23951759 0 539.51497153 0 32608
0.17250000 0.17250900 7854.63945459 0 76.95725643 0 2336.90190925 0 437.42984625 0 185.71836555 0 32361
0.17350000 0.17350400 7973.62434479 0 -76.87750843 0 2162.24720520 0 41.73862967 0 368.43904124 0 32508
0.17450000 0.17449800 7858.50602414 0 87.61690535 0 2042.83391667 0 -94.71656415 0 112.54243838 0 32791
0.17550000 0.17549800 7842.19393385 0 156.01058900 0 2146.96766474 0 -36.31225081 0 169.05696586 0 33633
0.17650000 0.17650100 7626.52283579 0 47.09119219 0 1977.73933955 0 240.42153700 0 214.26067894 0 33984
0.17750000 0.17750300 7684.38956415 0 -118.38403408 0 1559.11727848 0 286.88847594 0 74.38412030 0 34069
0.17850000 0.17849800 7801.61692274 0 55.89785357 0 1566.63072612 0 111.13311772 0 -169.75119084 0 34536
