### header ###
fiducial parameters:
Omega_m = 0.31
Omega_nu = 0
Omega_de = 0.69
Omega_k = 0
H_0 = 100
w_de = -1
zeff = 0
beta = 0
fgrowth = 0
b_1 = 2
gamma = 0.55
Lx = 3500 Ly = 3500 Lz = 3500
nx = 700 ny = 700 nz = 700
xoffset = -983.599254 yoffset = -42.9823471 zoffset = 800.977702
bins = 400 dk = 0.001
kx_ny = 0.628318531 ky_ny = 0.628318531 kz_ny = 0.628318531
############################
A(data) = 9.04659795 (not used)
A(ran) = 9.04429653 (used)
Ngal = 502501
weighted Ngal = 0
Nran = 25229228
weighted Nran = 0
SN(data) = 6729.76865
SN(ran) = 134.256351
SN(data+ran) = 6864.025
############################
13 columns: k_central k_mean P_0(k) sigma^{lin}_{P_0(k)} P^img_1(k) sigma^{lin}_{P_1(k)} P_2(k) sigma^{lin}_{P_2(k)} P^img_3(k) sigma^{lin}_{P_3(k)} P_4(k) sigma^{lin}_{P_4(k)} N_modes
### header ###
0.00050000 0 0 0 0 0 0 0 0 0 0 0 0
0.00150000 0.00179520 16424.79199798 0 2781.84300623 0 11864.10730793 0 -10496.13257694 0 -19181.04095009 0 3
0.00250000 0.00253879 57733.04611020 0 -12552.18093443 0 17085.95342165 0 -91418.99546250 0 81026.27165184 0 6
0.00350000 0.00331552 49442.54980016 0 -927.74601565 0 -8697.99099909 0 -44116.02070974 0 -96362.93188991 0 7
0.00450000 0.00420575 65425.87182609 0 -14369.35877656 0 -25970.71510834 0 -24155.95387218 0 6035.44045110 0 24
0.00550000 0.00557378 70527.54671577 0 -7525.72839778 0 -8465.45858212 0 -42122.43063195 0 -38981.39210232 0 45
0.00650000 0.00659388 83259.10572045 0 3024.54713741 0 27998.57705259 0 -13671.72857192 0 28617.11833464 0 40
0.00750000 0.00754703 80943.77751176 0 2392.68156881 0 7884.50650744 0 1644.78596004 0 -1423.33697680 0 57
0.00850000 0.00846663 83487.80452160 0 -6295.29150009 0 23556.41590069 0 -19269.24706792 0 -12939.49696364 0 75
0.00950000 0.00948925 89319.62395076 0 -4345.10146857 0 18150.24865906 0 15010.30858668 0 -33369.48381623 0 112
0.01050000 0.01054430 90076.79053879 0 5666.22699750 0 31701.58631548 0 -1357.97876994 0 -14847.73691248 0 105
0.01150000 0.01145670 78928.10844308 0 13338.12710262 0 30834.68384736 0 -7877.44342727 0 11038.83636990 0 144
0.01250000 0.01249090 84228.05486785 0 5848.03265829 0 46441.12518803 0 3703.99787443 0 -16144.79524288 0 169
0.01350000 0.01339930 68212.21850708 0 11112.10346901 0 46800.97978580 0 -7487.94146810 0 -2069.69119663 0 180
0.01450000 0.01448870 57778.30254924 0 9443.56886305 0 50732.13862121 0 4330.27229558 0 -12374.34070433 0 267
0.01550000 0.01550050 59486.07404846 0 -6179.38229021 0 50762.12650435 0 20745.79331430 0 14365.84371333 0 238
0.01650000 0.01653350 57853.76656287 0 -6504.73434549 0 20819.17025915 0 22955.88931767 0 3689.76186836 0 315
0.01750000 0.01747870 67585.43879559 0 -10994.56854239 0 18414.64732109 0 24413.54209921 0 13888.01480604 0 297
0.01850000 0.01844180 71974.32477046 0 -2425.27279566 0 -4811.04506832 0 5095.66632848 0 -1434.33253395 0 388
0.01950000 0.01947590 72498.61841977 0 7111.35736630 0 1403.50982329 0 -6250.52936682 0 15910.16477254 0 399
0.02050000 0.02045430 71213.09389057 0 -3271.53525190 0 -5774.86442033 0 -5602.24186221 0 6463.35546058 0 462
0.02150000 0.02154770 72334.50890540 0 -2089.05699809 0 318.32192883 0 5203.65566152 0 -2395.97694059 0 571
0.02250000 0.02255340 74499.45831546 0 7240.93138447 0 8544.43765898 0 -18573.92362352 0 -6352.36733922 0 510
0.02350000 0.02348930 63084.62002611 0 6705.66414715 0 17182.17827746 0 -12010.31196899 0 -9314.77474954 0 555
0.02450000 0.02439640 65957.85467621 0 4173.74213630 0 29048.48249991 0 -8278.68789452 0 -10089.06628622 0 592
0.02550000 0.02547300 57580.47039705 0 -731.20125536 0 25966.43112504 0 4550.95235874 0 -13545.40598723 0 837
0.02650000 0.02652900 62947.20302311 0 -2567.59990260 0 21584.35558516 0 13684.58052184 0 2855.15404363 0 723
0.02750000 0.02749970 65167.29498753 0 -2456.09550633 0 15194.51986887 0 9644.79524817 0 -6173.07714555 0 826
0.02850000 0.02848090 64264.14342989 0 1915.67650447 0 12961.79564599 0 -1411.83612931 0 435.60530874 0 831
0.02950000 0.02946900 60645.60553014 0 4192.67953943 0 19663.26368641 0 -3914.53917710 0 2435.76306248 0 996
0.03050000 0.03053250 56227.39074648 0 3119.84928913 0 21594.02200903 0 -2315.65774587 0 4398.90390507 0 1041
0.03150000 0.03150510 53671.17086107 0 -136.97871855 0 21277.88601014 0 4820.04143327 0 8840.01053800 0 1036
0.03250000 0.03246190 56741.02936038 0 183.38414387 0 16851.43279704 0 5605.94366317 0 4489.46072143 0 1059
0.03350000 0.03345080 54144.82563078 0 -460.31180939 0 19473.66996366 0 2564.64505257 0 9570.14409291 0 1302
0.03450000 0.03451200 54147.68161965 0 2216.17047200 0 16472.35519726 0 1163.28820551 0 5053.52950806 0 1339
0.03550000 0.03553350 50607.35387668 0 1079.99878237 0 22703.02445685 0 -5036.53637427 0 8306.35803285 0 1365
0.03650000 0.03647120 50454.77816353 0 3930.53271477 0 23425.36994980 0 -788.81094472 0 3995.49547702 0 1308
0.03750000 0.03744890 47714.01745876 0 -108.94795670 0 21472.53263628 0 2580.18822278 0 7135.65524085 0 1579
0.03850000 0.03847530 46934.11280548 0 -356.73058532 0 21951.56984656 0 4185.18806093 0 649.21899636 0 1662
0.03950000 0.03950240 47617.35322004 0 2984.26670975 0 21629.83171565 0 -560.48452059 0 391.99765405 0 1683
0.04050000 0.04050350 44806.18140502 0 1421.07415485 0 21942.23295986 0 -4817.41612042 0 3022.36120747 0 1822
0.04150000 0.04152450 42930.34594531 0 -1643.57765706 0 19647.77543907 0 3257.89241276 0 -4108.98808093 0 1887
0.04250000 0.04250150 43647.30899769 0 -145.00294882 0 19506.62368140 0 5135.82592583 0 -1200.63575229 0 1920
0.04350000 0.04349210 43149.48816831 0 557.30009300 0 15441.56290622 0 3620.19657021 0 -412.91777253 0 2005
0.04450000 0.04448520 45418.79101789 0 949.79424973 0 15934.55052367 0 599.55774372 0 -919.60754582 0 2151
0.04550000 0.04548030 42342.34177503 0 1.27120065 0 13549.25058764 0 1315.28173632 0 37.01800960 0 2274
0.04650000 0.04648670 42108.48022477 0 -204.48550780 0 13129.31037785 0 218.36561372 0 296.75811440 0 2311
0.04750000 0.04749250 40989.92119881 0 1520.81407389 0 12350.72387328 0 -275.43376365 0 -1988.99852645 0 2568
0.04850000 0.04851840 39135.17611845 0 2367.79052734 0 17336.18198505 0 -3089.13642419 0 1281.42728362 0 2493
0.04950000 0.04949480 37796.81579514 0 584.18703131 0 14169.00017267 0 2817.66369741 0 1938.29373941 0 2644
0.05050000 0.05050630 36996.58968259 0 -950.22045115 0 14788.63991199 0 2841.59908107 0 1787.55244988 0 2829
0.05150000 0.05149060 38079.88823057 0 773.61598547 0 11770.51874954 0 2022.25981223 0 -2380.52164697 0 2784
0.05250000 0.05249300 37878.87055233 0 352.93651395 0 12091.04857746 0 1709.30933938 0 4142.58988846 0 3055
0.05350000 0.05348950 35541.90273565 0 -92.38816430 0 10119.37272197 0 1206.18296144 0 4285.66394633 0 3009
0.05450000 0.05448610 36259.85439956 0 512.21281638 0 11001.26913167 0 583.38515751 0 4190.47164034 0 3336
0.05550000 0.05550870 36034.89035310 0 398.93770701 0 11430.21669097 0 -2.98416785 0 4099.73907082 0 3349
0.05650000 0.05647670 35036.28285973 0 1545.89185309 0 10513.01586500 0 655.68451578 0 3415.12558468 0 3324
0.05750000 0.05747970 33008.09137831 0 530.41645006 0 12037.99309189 0 -1195.54989518 0 5147.26086589 0 3639
0.05850000 0.05849280 32469.07840174 0 790.54870411 0 11212.17292523 0 514.27352220 0 2583.47260998 0 3846
0.05950000 0.05951020 31608.43713999 0 823.37939464 0 12630.61078266 0 15.86589695 0 991.16544545 0 3787
0.06050000 0.06049470 31595.14580717 0 504.26108429 0 12626.98587371 0 -442.60907222 0 3452.25344001 0 3930
0.06150000 0.06148310 29942.84639948 0 228.16165554 0 12738.91866831 0 180.95215950 0 319.26440516 0 4083
0.06250000 0.06249100 30886.31133850 0 -107.30455479 0 11238.31620797 0 1271.84873633 0 763.48711110 0 4303
0.06350000 0.06350600 30304.78806604 0 37.84866298 0 10743.71385835 0 1838.23526777 0 1293.79591235 0 4470
0.06450000 0.06451750 29991.17851884 0 371.30711314 0 10777.45846532 0 568.34178536 0 3381.63362288 0 4479
0.06550000 0.06550280 29239.94360000 0 584.22218194 0 10811.74131635 0 573.17170192 0 2614.03169090 0 4636
0.06650000 0.06648880 29644.83494535 0 422.40954170 0 10374.23677501 0 663.69117074 0 3475.65057961 0 4653
0.06750000 0.06749660 28514.85196391 0 232.95532302 0 9887.83990110 0 829.93938138 0 4610.07132837 0 5220
0.06850000 0.06852730 28628.98167303 0 24.68453150 0 9304.58106618 0 347.69906975 0 3367.17792537 0 5029
0.06950000 0.06949320 27900.81435661 0 822.57971775 0 11420.55026710 0 -116.49029377 0 3946.03194669 0 5040
0.07050000 0.07048030 28028.56493573 0 214.96479005 0 10317.09502844 0 -1337.55844951 0 1712.68160317 0 5475
0.07150000 0.07148790 27806.01749523 0 -83.85216279 0 11205.80187313 0 1260.94105576 0 2830.33989417 0 5509
0.07250000 0.07249820 27591.59863845 0 -336.56950081 0 10607.75780351 0 -143.60900656 0 2241.86338727 0 5916
0.07350000 0.07351270 26894.73735389 0 970.95383190 0 10131.51067468 0 238.49044914 0 2095.70266450 0 5721
0.07450000 0.07449140 26586.29055580 0 684.66401517 0 11005.66296070 0 313.63591017 0 2494.64037151 0 6028
0.07550000 0.07549160 26205.56527013 0 219.16419214 0 10866.46645695 0 1192.95753605 0 3478.11112387 0 6183
0.07650000 0.07648840 26199.19421804 0 -415.72433083 0 10039.08648098 0 2316.61340369 0 2619.04065600 0 6330
0.07750000 0.07749960 25816.60155503 0 488.94309783 0 9942.30141196 0 -833.43027855 0 1968.91872777 0 6583
0.07850000 0.07848650 24618.40437785 0 1407.46426942 0 10674.74172711 0 -1886.09505051 0 3520.75323463 0 6549
0.07950000 0.07947320 23730.19183893 0 141.36705529 0 11018.73460207 0 -726.27796993 0 2286.12023020 0 6828
0.08050000 0.08048110 23621.55441610 0 -297.49298231 0 10295.85086507 0 1711.53920762 0 1292.28004133 0 7147
0.08150000 0.08149960 24436.17031873 0 284.80689943 0 9848.43823925 0 275.01634989 0 -1782.63136136 0 7386
0.08250000 0.08250610 23642.20541255 0 357.04254718 0 9842.96792211 0 -577.29421201 0 980.66748943 0 7227
0.08350000 0.08350160 22881.52376129 0 320.36286242 0 8910.31180252 0 1007.50499716 0 -397.00002841 0 7798
0.08450000 0.08449610 22650.18866273 0 -76.18877573 0 8623.55953528 0 654.53223412 0 -543.44085777 0 7371
0.08550000 0.08548940 22600.75808611 0 459.15513390 0 8620.51680868 0 161.42818020 0 -1924.18954822 0 8256
0.08650000 0.08650700 22092.94129568 0 637.36334717 0 7716.90389899 0 -621.07322604 0 -981.39796351 0 8037
0.08750000 0.08749060 20903.20223939 0 337.97223073 0 8190.30602353 0 262.79381598 0 -465.96337199 0 8155
0.08850000 0.08849210 20448.33108880 0 302.73372188 0 8272.60244131 0 604.21849787 0 -1482.02754810 0 8718
0.08950000 0.08949900 20746.34254293 0 267.04045174 0 8246.73377288 0 1688.61440464 0 -23.85991964 0 8571
0.09050000 0.09049190 20085.73034789 0 -68.94895379 0 6947.34671309 0 591.99706241 0 918.07849332 0 8932
0.09150000 0.09150830 19630.96904302 0 20.23632884 0 7294.96449700 0 1296.45417891 0 1953.46343415 0 9285
0.09250000 0.09250820 19777.72293271 0 457.74251787 0 6235.50247153 0 127.18707055 0 943.71099344 0 9204
0.09350000 0.09350330 19626.35552254 0 -34.12038920 0 5861.17020710 0 584.62861113 0 1647.51013404 0 9349
0.09450000 0.09448040 19360.52886607 0 563.33391872 0 6441.10071653 0 -463.82687262 0 1436.80406278 0 9564
0.09550000 0.09549270 18212.42133987 0 499.54760420 0 6505.39341985 0 -978.62765430 0 1677.98133838 0 10155
0.09650000 0.09649430 18062.04254123 0 76.60542057 0 6987.76994019 0 735.76534527 0 726.51413824 0 9913
0.09750000 0.09749140 18091.59104147 0 -244.90543953 0 5507.51090827 0 150.23709765 0 -32.61242707 0 10476
0.09850000 0.09850240 18410.47318351 0 -4.93944374 0 5366.46899632 0 341.78607433 0 -1089.88270078 0 10575
0.09950000 0.09950330 18027.11160042 0 323.10131636 0 5177.86388510 0 -29.76072219 0 -665.69475678 0 10882
0.10050000 0.10051200 17585.75147410 0 316.46114224 0 5605.71298715 0 -755.58371112 0 -698.19261476 0 10875
0.10150000 0.10150300 17713.06267032 0 481.05837163 0 5163.79264763 0 45.14538501 0 -1791.18834340 0 11118
0.10250000 0.10250800 16853.41002010 0 472.52006336 0 6261.44803196 0 -107.08541257 0 -1815.15668078 0 11575
0.10350000 0.10349800 16276.17073095 0 40.28460179 0 5999.02659299 0 -356.82395419 0 -1214.04791541 0 11364
0.10450000 0.10450100 16247.83053369 0 -35.81168384 0 6052.01617113 0 1024.45529111 0 -1511.79573980 0 12093
0.10550000 0.10551000 16171.15821708 0 75.68842845 0 5746.44733106 0 402.69552929 0 -1199.31760358 0 12067
0.10650000 0.10649700 16392.82689177 0 233.33209386 0 5390.78884002 0 332.56452564 0 -1032.72008352 0 12054
0.10750000 0.10749900 15979.69711698 0 457.56896162 0 5196.10926016 0 315.80426480 0 -839.32350174 0 12807
0.10850000 0.10850100 15577.66176051 0 -191.45121398 0 5224.21878140 0 284.81239172 0 -164.42587006 0 12736
0.10950000 0.10950300 15533.39393300 0 -310.50970081 0 4339.79592001 0 601.43610563 0 -33.60653089 0 12933
0.11050000 0.11050200 15375.43577928 0 151.19385392 0 4281.05042584 0 357.91142688 0 -255.30782976 0 13428
0.11150000 0.11150900 15458.03976510 0 354.66658413 0 4068.78454528 0 -174.69864233 0 -353.14741775 0 13453
0.11250000 0.11250000 15245.81782282 0 362.42938158 0 4033.45815986 0 -67.69045131 0 195.18267328 0 13668
0.11350000 0.11349100 15374.77670493 0 -6.75307356 0 4752.54123475 0 -20.86321840 0 -408.51735276 0 13791
0.11450000 0.11448600 14712.29713255 0 397.31967947 0 4343.43181353 0 77.92269051 0 -292.10285254 0 14205
0.11550000 0.11549300 14566.97123730 0 225.01457550 0 4344.77193139 0 -317.37725559 0 -732.97746075 0 14776
0.11650000 0.11649800 13880.32560524 0 204.48221243 0 5001.67134090 0 -138.52534637 0 -561.72358038 0 14553
0.11750000 0.11747300 13571.32957852 0 500.47140675 0 5211.60849207 0 22.80704836 0 -103.28343231 0 14568
0.11850000 0.11849100 13222.02017044 0 -9.46978904 0 5168.80161272 0 -50.37777631 0 -140.38832988 0 16015
0.11950000 0.11950300 13421.60985424 0 122.67570659 0 5308.11894677 0 240.79061864 0 -640.25338822 0 15270
0.12050000 0.12050700 13080.09949269 0 41.42611858 0 4797.40222918 0 17.33892813 0 -497.06399234 0 15999
0.12150000 0.12150000 13321.76008948 0 -8.22801606 0 5123.89668001 0 34.73772218 0 225.04972613 0 15670
0.12250000 0.12250700 13458.29832666 0 -190.78554888 0 4700.44140700 0 567.82331353 0 -416.01432354 0 16887
0.12350000 0.12352200 13797.39208225 0 38.26662596 0 4189.37318308 0 217.99543362 0 -1159.11406793 0 16407
0.12450000 0.12449800 13542.98938126 0 215.46348964 0 4697.11308151 0 -321.76559234 0 -302.43384305 0 16306
0.12550000 0.12549900 12993.76075220 0 405.90851677 0 4764.84395604 0 85.12022185 0 -7.45313136 0 17523
0.12650000 0.12650100 12640.27720653 0 38.75467052 0 4847.00855895 0 -18.35928508 0 357.12822685 0 17154
0.12750000 0.12750600 12868.75631622 0 114.80086650 0 4909.55471523 0 689.40056286 0 6.86403971 0 18007
0.12850000 0.12850300 12482.09936136 0 -181.99569390 0 4187.40694459 0 705.04369268 0 425.22598611 0 17496
0.12950000 0.12949900 12884.24456356 0 106.97919175 0 3775.03510531 0 56.00088886 0 500.81742079 0 18405
0.13050000 0.13049000 12665.43187774 0 117.25921385 0 3945.53764092 0 -154.07400885 0 407.78358331 0 18100
0.13150000 0.13148800 12215.83332199 0 378.91612657 0 4137.99833712 0 -280.66571557 0 470.94707257 0 19059
0.13250000 0.13249300 12218.35977368 0 226.31624735 0 4283.33521694 0 -362.38983712 0 284.43891625 0 18957
0.13350000 0.13349100 12016.90271254 0 -124.17949457 0 4256.91731988 0 829.44178025 0 -66.25784335 0 19468
0.13450000 0.13450700 12053.59118496 0 -18.97024700 0 4022.91297018 0 -38.23125564 0 -144.67780547 0 19953
0.13550000 0.13551000 11673.41512792 0 259.77964926 0 3691.46447711 0 -187.09692941 0 71.16640946 0 19956
0.13650000 0.13649900 11913.09850164 0 -73.52358889 0 4295.31938563 0 399.13982314 0 691.67546784 0 19723
0.13750000 0.13749600 11843.12677430 0 -180.20740548 0 3189.51344844 0 370.46679334 0 -261.66679883 0 20946
0.13850000 0.13851100 11791.82882035 0 179.81965007 0 3398.81349440 0 473.48450883 0 170.61018442 0 20955
0.13950000 0.13949800 11813.35858261 0 309.34094229 0 3317.63750303 0 -443.51639792 0 94.42448437 0 20506
0.14050000 0.14048300 11562.36109912 0 42.53039766 0 3450.48492382 0 -342.05629481 0 -170.75298386 0 21447
0.14150000 0.14148400 11223.15749781 0 224.93219121 0 3501.74992406 0 335.07889431 0 522.41309048 0 21771
0.14250000 0.14249400 11257.75890144 0 -149.43192848 0 3409.33671493 0 143.74960909 0 -35.75928743 0 22470
0.14350000 0.14350900 11282.47418975 0 159.17853973 0 3422.95758494 0 126.09410558 0 -7.43718176 0 22519
0.14450000 0.14449900 10992.48147360 0 296.66035170 0 3329.59970257 0 -20.18865579 0 134.09197287 0 22218
0.14550000 0.14550500 10731.76264338 0 47.36207175 0 3390.12469749 0 80.49373957 0 891.92642292 0 23559
0.14650000 0.14650700 10646.52236015 0 47.33911400 0 3024.10775451 0 506.56894299 0 186.28077566 0 23044
0.14750000 0.14750500 10607.13168288 0 233.35845683 0 3020.90025931 0 220.77123511 0 450.64648398 0 23649
0.14850000 0.14849900 10380.27828993 0 130.46596546 0 2744.38561372 0 239.55046040 0 795.34566695 0 23640
0.14950000 0.14949500 10207.30422549 0 65.60019699 0 2833.72314253 0 -110.11594630 0 647.96565663 0 24457
0.15050000 0.15050000 9925.64879993 0 148.37521260 0 2629.76159884 0 -87.96368831 0 627.09606718 0 24591
0.15150000 0.15149900 9721.00621274 0 244.51109337 0 2638.51630318 0 161.92578134 0 713.25575914 0 25020
0.15250000 0.15250500 9665.70987436 0 -36.01401967 0 2678.48916281 0 116.39802336 0 647.91732451 0 25297
0.15350000 0.15350100 9787.86930604 0 19.56616006 0 2464.09227516 0 146.16621505 0 191.56874890 0 25452
0.15450000 0.15450400 9701.71730329 0 87.61833335 0 2350.27013408 0 -27.49833962 0 258.84925596 0 26061
0.15550000 0.15549900 9577.64655598 0 -43.96970620 0 2363.46260575 0 -99.30767611 0 81.20927463 0 26128
0.15650000 0.15649500 9504.01696597 0 222.31786293 0 2885.52638682 0 -336.03125675 0 -27.06851329 0 26331
0.15750000 0.15749700 9242.50724652 0 392.85335226 0 2801.67015973 0 -458.37083542 0 -63.91044019 0 27345
0.15850000 0.15849900 8880.45573424 0 -36.50678759 0 3023.10815840 0 182.02315533 0 -115.88833919 0 26980
0.15950000 0.15949700 9206.77443192 0 -132.55303425 0 3001.46855042 0 529.21473782 0 -608.20040543 0 27777
0.16050000 0.16050000 9072.08160292 0 126.95529607 0 2590.98605762 0 -94.79411523 0 -294.58866132 0 28224
0.16150000 0.16150500 9044.44441831 0 219.22460729 0 2779.12981680 0 146.93293822 0 -95.14287541 0 28075
0.16250000 0.16249700 8743.14857697 0 5.18125812 0 2437.88308499 0 -178.26313614 0 -141.63507886 0 28590
0.16350000 0.16349900 8780.85861465 0 54.36078233 0 2440.71710471 0 562.03664070 0 -420.36421429 0 29163
0.16450000 0.16449100 8712.69934178 0 34.83449626 0 2278.12346136 0 4.16625066 0 -128.37669976 0 28996
0.16550000 0.16550500 8716.36818902 0 68.41894816 0 2253.61687993 0 206.79446496 0 107.39913196 0 30777
0.16650000 0.16650700 8579.03906261 0 -87.67940757 0 2030.35544222 0 119.54070957 0 -45.06717485 0 29211
0.16750000 0.16749900 8559.26683196 0 162.67053536 0 2009.04537141 0 22.90272399 0 -144.01323883 0 30922
0.16850000 0.16850800 8448.28969517 0 167.80582304 0 2014.25205881 0 -98.85851693 0 110.92880467 0 30867
0.16950000 0.16949900 8386.78707329 0 -62.87778052 0 2153.74514602 0 167.91347185 0 89.97584232 0 30852
0.17050000 0.17049200 8482.91306795 0 -71.39851348 0 1706.50827337 0 448.97902586 0 221.07660623 0 31257
0.17150000 0.17149500 8597.80071258 0 46.76692761 0 1816.60664436 0 -96.14115337 0 -117.75022424 0 32608
0.17250000 0.17250900 8344.65025287 0 167.28844967 0 1580.91067048 0 -233.40129667 0 -41.30287167 0 32361
0.17350000 0.17350400 8092.62021956 0 152.95577937 0 1774.30505535 0 74.36599576 0 173.53537610 0 32508
0.17450000 0.17449800 8191.16282019 0 87.46520841 0 1842.36546706 0 92.15386337 0 22.30065956 0 32791
0.17550000 0.17549800 8068.39923702 0 14.76831845 0 1743.48234468 0 330.90255981 0 325.43663650 0 33633
0.17650000 0.17650100 8024.02156379 0 -37.80066040 0 1294.67467815 0 331.59129251 0 398.62684361 0 33984
0.17750000 0.17750300 7883.26525073 0 6.19471675 0 1325.78298771 0 -27.30896559 0 502.63976138 0 34069
0.17850000 0.17849800 7913.01147329 0 277.04410199 0 1467.51692772 0 -171.81409357 0 546.87902899 0 34536
