### header ###
fiducial parameters:
Omega_m = 0.31
Omega_nu = 0
Omega_de = 0.69
Omega_k = 0
H_0 = 100
w_de = -1
zeff = 0
beta = 0
fgrowth = 0
b_1 = 2
gamma = 0.55
Lx = 3500 Ly = 3500 Lz = 3500
nx = 700 ny = 700 nz = 700
xoffset = -983.599254 yoffset = -42.9823471 zoffset = 800.977702
bins = 400 dk = 0.001
kx_ny = 0.628318531 ky_ny = 0.628318531 kz_ny = 0.628318531
############################
A(data) = 9.1468096 (not used)
A(ran) = 9.15296919 (used)
Ngal = 508398
weighted Ngal = 0
Nran = 25229228
weighted Nran = 0
SN(data) = 6693.53192
SN(ran) = 135.869522
SN(data+ran) = 6829.40144
############################
13 columns: k_central k_mean P_0(k) sigma^{lin}_{P_0(k)} P^img_1(k) sigma^{lin}_{P_1(k)} P_2(k) sigma^{lin}_{P_2(k)} P^img_3(k) sigma^{lin}_{P_3(k)} P_4(k) sigma^{lin}_{P_4(k)} N_modes
### header ###
0.00050000 0 0 0 0 0 0 0 0 0 0 0 0
0.00150000 0.00179520 17070.24548286 0 -22844.28606024 0 -20025.97427305 0 -22199.60149544 0 -50914.59237178 0 3
0.00250000 0.00253879 24760.98412996 0 -17708.44914984 0 -16699.51615824 0 46225.93741116 0 17065.63196237 0 6
0.00350000 0.00331552 53881.08604310 0 -43336.44559364 0 -12382.57913377 0 -38212.03263872 0 13243.76962415 0 7
0.00450000 0.00420575 43639.94933406 0 -12748.14570928 0 -21618.29791444 0 -24204.28599154 0 -42915.40692660 0 24
0.00550000 0.00557378 77357.86379258 0 -4904.30408954 0 -34420.37787509 0 -37794.39918918 0 -25270.66829773 0 45
0.00650000 0.00659388 65035.91949946 0 -6997.42537949 0 20287.07756331 0 -21342.47529692 0 -26259.38967578 0 40
0.00750000 0.00754703 63454.58043065 0 25813.63572043 0 26831.79575300 0 -39501.95099695 0 -12206.71612674 0 57
0.00850000 0.00846663 63846.83951753 0 8059.26007263 0 56817.92136845 0 -9184.55264158 0 -21037.76325351 0 75
0.00950000 0.00948925 68943.46150382 0 -10448.78906912 0 41739.50843177 0 28916.00855458 0 -47561.22205415 0 112
0.01050000 0.01054430 83274.81365924 0 -7344.53787306 0 51327.61230084 0 -4929.86518993 0 -40477.05150499 0 105
0.01150000 0.01145670 70935.18420427 0 6196.89169890 0 45468.22159450 0 -14587.40254230 0 -14575.97858681 0 144
0.01250000 0.01249090 76209.20703775 0 8997.21075621 0 63842.44568849 0 4306.29297364 0 -21022.71438908 0 169
0.01350000 0.01339930 70210.20241390 0 -1900.61665546 0 48470.08558953 0 -2116.32070724 0 1913.34777508 0 180
0.01450000 0.01448870 73752.50737993 0 -5037.38218636 0 43140.59066452 0 25983.89659544 0 -22355.80211755 0 267
0.01550000 0.01550050 76810.17300367 0 3836.59265006 0 40434.87074628 0 18895.66175443 0 4869.10951899 0 238
0.01650000 0.01653350 84041.75651687 0 6758.54387956 0 40817.57325501 0 -8041.66278736 0 1526.43817505 0 315
0.01750000 0.01747870 71316.34887284 0 5746.91966768 0 43780.66170883 0 -7800.38665061 0 10383.66153828 0 297
0.01850000 0.01844180 61321.70597253 0 -666.54166732 0 57803.12768327 0 9566.10177020 0 4257.74116283 0 388
0.01950000 0.01947590 66179.41350517 0 992.92407552 0 48357.49372057 0 10855.66862210 0 5711.94478858 0 399
0.02050000 0.02045430 62595.25731761 0 1446.60230153 0 40428.71938563 0 8762.72308531 0 17758.09941790 0 462
0.02150000 0.02154770 64444.51011168 0 1163.72758841 0 43628.96476148 0 19042.52548984 0 16765.86297663 0 571
0.02250000 0.02255340 64785.58109033 0 1651.91494765 0 42017.85750098 0 4207.95907989 0 27539.53176441 0 510
0.02350000 0.02348930 63838.27155091 0 1620.10362545 0 32679.32312095 0 9086.89979134 0 21818.54667260 0 555
0.02450000 0.02439640 62298.45416646 0 -1542.80518819 0 31059.09866520 0 3731.07484584 0 38397.34237817 0 592
0.02550000 0.02547300 60340.12456666 0 -1098.67694959 0 23964.38292636 0 10376.21399807 0 24797.34306520 0 837
0.02650000 0.02652900 60604.74292014 0 1752.02834215 0 19349.43444776 0 66.60891029 0 30834.24446446 0 723
0.02750000 0.02749970 56902.17304015 0 3306.10370181 0 18067.75451897 0 9886.48879868 0 24144.31022524 0 826
0.02850000 0.02848090 59620.96459976 0 -3691.77204515 0 10365.91046899 0 7630.15872932 0 21932.89607317 0 831
0.02950000 0.02946900 55815.79881185 0 1324.55271558 0 13840.34176104 0 1679.67296256 0 15280.41922645 0 996
0.03050000 0.03053250 55965.73822759 0 2129.27151831 0 7497.53099997 0 -3367.14497165 0 16270.34890749 0 1041
0.03150000 0.03150510 55447.81563038 0 -420.96616886 0 12041.94753802 0 -3119.75042797 0 12284.59674635 0 1036
0.03250000 0.03246190 51854.10286467 0 973.48687433 0 7440.09266994 0 -82.90891755 0 -468.32505509 0 1059
0.03350000 0.03345080 52356.75690599 0 1706.12381333 0 9353.75899763 0 -975.66511508 0 5134.55171542 0 1302
0.03450000 0.03451200 49050.94978763 0 1542.95897221 0 13319.78286641 0 1264.69777958 0 6336.04426436 0 1339
0.03550000 0.03553350 51608.70751320 0 572.65213164 0 9245.06665193 0 4659.17236781 0 7863.71271154 0 1365
0.03650000 0.03647120 49984.96799422 0 156.98821596 0 13188.40737834 0 -3593.18550623 0 -1083.19089916 0 1308
0.03750000 0.03744890 45484.91814483 0 2979.88386529 0 10798.23029207 0 -2977.55513591 0 3441.00523769 0 1579
0.03850000 0.03847530 42960.55351991 0 1941.31449687 0 16529.58482041 0 -244.56491778 0 8452.66155506 0 1662
0.03950000 0.03950240 42642.11076077 0 -1481.76391836 0 15204.18629274 0 5422.07290273 0 7093.18888325 0 1683
0.04050000 0.04050350 46702.66786119 0 -1291.21453779 0 10970.21574498 0 4586.81698822 0 -1989.35003277 0 1822
0.04150000 0.04152450 46723.75824055 0 -253.16693657 0 9341.93959753 0 -2047.42546801 0 -2403.06198990 0 1887
0.04250000 0.04250150 46099.50498075 0 -672.63371128 0 6519.61844134 0 -608.99239311 0 6397.63476283 0 1920
0.04350000 0.04349210 46151.13247188 0 556.48174234 0 7184.34985110 0 3888.00044974 0 -928.91916800 0 2005
0.04450000 0.04448520 46452.98852642 0 1296.77273152 0 7589.07642786 0 -4829.61998056 0 -2967.08683824 0 2151
0.04550000 0.04548030 43414.98528760 0 1866.08115926 0 7646.30605101 0 439.89478434 0 -5541.42028383 0 2274
0.04650000 0.04648670 43533.06944285 0 1557.77716062 0 13752.68487184 0 -2229.48377397 0 -1242.39909724 0 2311
0.04750000 0.04749250 38788.72269924 0 1811.99312387 0 12164.97475093 0 -5359.03244069 0 -3939.49612600 0 2568
0.04850000 0.04851840 37338.31973560 0 2204.70257823 0 16115.24674264 0 -135.74405259 0 -6818.93705961 0 2493
0.04950000 0.04949480 35364.39204273 0 261.87880108 0 15400.70029622 0 5112.08826449 0 -1995.56730085 0 2644
0.05050000 0.05050630 36742.07713588 0 -240.89716900 0 15099.83285322 0 2047.85386634 0 -4394.43318403 0 2829
0.05150000 0.05149060 35390.20578830 0 770.96430965 0 14681.86986650 0 -1630.75866085 0 -2080.12654058 0 2784
0.05250000 0.05249300 34601.95285986 0 447.36099832 0 12557.12399209 0 719.11163478 0 -3783.40534962 0 3055
0.05350000 0.05348950 34204.86056104 0 420.87829228 0 14552.36175576 0 -1052.45936045 0 558.68744452 0 3009
0.05450000 0.05448610 33881.36489852 0 479.82150875 0 13969.41048887 0 909.43912698 0 -6700.51238261 0 3336
0.05550000 0.05550870 33508.87804229 0 1012.21298497 0 13833.53132604 0 -421.50770829 0 -6346.69929977 0 3349
0.05650000 0.05647670 32939.10826250 0 -204.81614344 0 14567.95984883 0 76.65353300 0 -3475.44187273 0 3324
0.05750000 0.05747970 32502.03211948 0 -865.15811799 0 14538.41134859 0 -49.72979637 0 -4090.57793728 0 3639
0.05850000 0.05849280 33736.47838618 0 712.82845926 0 14006.75803565 0 1533.75390039 0 -8094.38873575 0 3846
0.05950000 0.05951020 32982.16778702 0 560.60644935 0 12260.10114949 0 494.71549072 0 -3114.36798741 0 3787
0.06050000 0.06049470 32727.65524031 0 -797.93802608 0 11739.98163776 0 2447.75821574 0 -1005.02907450 0 3930
0.06150000 0.06148310 33755.48169674 0 202.91361547 0 11355.96098032 0 2139.88261543 0 -3162.66715305 0 4083
0.06250000 0.06249100 32661.08873046 0 1044.04298094 0 11851.03566656 0 -620.96118340 0 1103.40031580 0 4303
0.06350000 0.06350600 31775.95187186 0 71.48737867 0 10049.89530040 0 37.26549202 0 2833.66821966 0 4470
0.06450000 0.06451750 31279.99841981 0 131.11295679 0 13384.59184464 0 1520.92391961 0 1146.16325686 0 4479
0.06550000 0.06550280 31585.36953757 0 10.74133021 0 11185.26072240 0 1244.15662885 0 2537.60103488 0 4636
0.06650000 0.06648880 32335.72569060 0 -118.82890927 0 10371.01829524 0 1922.24527887 0 1534.10540671 0 4653
0.06750000 0.06749660 32002.01437558 0 175.11935146 0 9905.37127894 0 303.32688880 0 3676.20690580 0 5220
0.06850000 0.06852730 31306.80077691 0 450.51137374 0 9254.83193696 0 -85.96878008 0 3692.62884181 0 5029
0.06950000 0.06949320 30246.89936854 0 927.36045715 0 10322.63125302 0 517.96214167 0 4038.69780098 0 5040
0.07050000 0.07048030 29165.24850645 0 738.52796528 0 10915.43568152 0 -604.24486084 0 4144.86369498 0 5475
0.07150000 0.07148790 28643.81084601 0 655.72515870 0 10591.18208349 0 1782.97188311 0 5126.91743747 0 5509
0.07250000 0.07249820 28574.60803875 0 413.50434871 0 11338.71520137 0 -496.30605683 0 3991.85958350 0 5916
0.07350000 0.07351270 27137.16687076 0 852.33582642 0 10602.78179213 0 -893.56312423 0 2781.31574674 0 5721
0.07450000 0.07449140 26515.65975410 0 777.51660720 0 12108.73373932 0 -1026.11945386 0 2888.59108257 0 6028
0.07550000 0.07549160 25286.81561943 0 178.70910978 0 12343.69374683 0 178.65089155 0 3233.06727872 0 6183
0.07650000 0.07648840 26131.30955948 0 -246.65638040 0 12241.20768465 0 1130.54319464 0 405.65147777 0 6330
0.07750000 0.07749960 24956.61936763 0 157.97902441 0 10934.57080695 0 571.99964803 0 -182.81294610 0 6583
0.07850000 0.07848650 25522.32485557 0 761.55931861 0 11193.05976894 0 -197.51030421 0 734.02538897 0 6549
0.07950000 0.07947320 24835.56937779 0 -94.08154601 0 10889.97344227 0 1189.24475052 0 1891.65324423 0 6828
0.08050000 0.08048110 24761.20382141 0 15.46572897 0 10371.98493763 0 464.04436716 0 -169.54797625 0 7147
0.08150000 0.08149960 24310.83634558 0 885.23352284 0 10089.15416280 0 405.59216108 0 661.93473758 0 7386
0.08250000 0.08250610 23931.20951717 0 309.88248172 0 10018.77600627 0 242.18565936 0 2229.62657342 0 7227
0.08350000 0.08350160 23137.35445671 0 -3.23556078 0 9775.27000129 0 867.58461008 0 1412.79178712 0 7798
0.08450000 0.08449610 22866.47489686 0 668.93191032 0 10534.65547298 0 -7.41263124 0 446.07031104 0 7371
0.08550000 0.08548940 22820.01015484 0 180.35789413 0 8552.67608841 0 473.25163589 0 2330.62971830 0 8256
0.08650000 0.08650700 21942.12311414 0 199.04594746 0 9972.28929511 0 230.06198660 0 1420.73363310 0 8037
0.08750000 0.08749060 22063.50264116 0 192.48596071 0 8973.17651140 0 700.83001063 0 2227.24292117 0 8155
0.08850000 0.08849210 20934.17873407 0 275.68970419 0 8747.05908481 0 417.84874717 0 1237.00567210 0 8718
0.08950000 0.08949900 20817.19303608 0 372.35504136 0 8763.17345279 0 732.52709327 0 2246.79546036 0 8571
0.09050000 0.09049190 20929.12583068 0 287.60467007 0 8202.37806880 0 501.88182587 0 2266.54572186 0 8932
0.09150000 0.09150830 20390.22269984 0 -152.65150671 0 7429.45960368 0 1238.77418829 0 1962.80032084 0 9285
0.09250000 0.09250820 20074.74577531 0 295.19171435 0 6493.16759057 0 111.02437045 0 1554.44883513 0 9204
0.09350000 0.09350330 19661.17661762 0 556.07311624 0 6655.44268131 0 -152.92831793 0 1577.34068439 0 9349
0.09450000 0.09448040 19370.08544421 0 618.60169720 0 6404.64292013 0 -144.88870926 0 1190.91440555 0 9564
0.09550000 0.09549270 18367.74319617 0 -186.33020624 0 6114.52937369 0 190.94702210 0 1353.57395634 0 10155
0.09650000 0.09649430 18375.21270552 0 400.59308210 0 4889.90331488 0 666.61965779 0 -926.17302485 0 9913
0.09750000 0.09749140 17907.59945073 0 630.10693853 0 5908.61257608 0 -762.81155988 0 -110.84312500 0 10476
0.09850000 0.09850240 17546.53654999 0 -3.62252530 0 5528.98574767 0 428.52135789 0 52.01843207 0 10575
0.09950000 0.09950330 17045.85973173 0 291.74914930 0 5753.08201290 0 554.13653610 0 -836.19180010 0 10882
0.10050000 0.10051200 16573.41326500 0 244.74506477 0 4937.12599241 0 6.80981986 0 -158.51177618 0 10875
0.10150000 0.10150300 16738.73108235 0 202.98501519 0 5346.49904337 0 643.31149323 0 623.44149988 0 11118
0.10250000 0.10250800 16370.19867225 0 -38.56441773 0 5223.99908994 0 301.91097740 0 631.92598375 0 11575
0.10350000 0.10349800 16066.36539465 0 283.02739867 0 4930.88675518 0 289.49731192 0 1675.86131587 0 11364
0.10450000 0.10450100 16170.93852562 0 -2.42522886 0 5178.22637600 0 211.20257394 0 1458.57548564 0 12093
0.10550000 0.10551000 16125.02301223 0 259.69836343 0 5545.57245226 0 -169.70835101 0 1383.37510175 0 12067
0.10650000 0.10649700 15871.82861423 0 -17.65605274 0 5246.75912433 0 -358.96814276 0 828.07420096 0 12054
0.10750000 0.10749900 15581.61620664 0 288.07261286 0 5596.90335994 0 271.39473631 0 1226.99872648 0 12807
0.10850000 0.10850100 15593.04016212 0 162.86276538 0 6103.88532286 0 -794.72284169 0 445.72978929 0 12736
0.10950000 0.10950300 15291.07426186 0 353.04416276 0 5664.49143503 0 229.55559780 0 135.36398638 0 12933
0.11050000 0.11050200 15339.95560985 0 0.54406698 0 5935.01948856 0 -167.56745781 0 -377.57271334 0 13428
0.11150000 0.11150900 14835.43419118 0 -42.87311632 0 5321.69587848 0 531.16449946 0 -161.28538075 0 13453
0.11250000 0.11250000 14966.91952498 0 19.09129699 0 5120.00814132 0 833.39842329 0 128.65021562 0 13668
0.11350000 0.11349100 15020.85377636 0 281.88939695 0 4904.96316389 0 365.08435277 0 459.66262115 0 13791
0.11450000 0.11448600 14437.79266374 0 268.62113173 0 5307.06442781 0 -100.62055222 0 274.76150781 0 14205
0.11550000 0.11549300 14256.32752470 0 205.36427361 0 5259.18267592 0 -642.39867524 0 -244.06621818 0 14776
0.11650000 0.11649800 13830.67533717 0 435.27687002 0 5357.75823027 0 -61.91432366 0 166.36904095 0 14553
0.11750000 0.11747300 14072.44577968 0 -116.15855968 0 5304.04367035 0 289.24246984 0 213.62906602 0 14568
0.11850000 0.11849100 13949.08902960 0 -294.18772442 0 5286.32555477 0 232.40938976 0 -654.46083440 0 16015
0.11950000 0.11950300 14132.86092888 0 99.71091977 0 4898.63605009 0 390.60371179 0 -425.95755864 0 15270
0.12050000 0.12050700 13984.89873621 0 15.61391085 0 4524.90793715 0 -198.95697242 0 -618.63245401 0 15999
0.12150000 0.12150000 14023.78412315 0 230.97919841 0 4926.07551239 0 363.01376084 0 145.45551321 0 15670
0.12250000 0.12250700 13695.34540297 0 180.72807422 0 4416.22657603 0 -659.53021464 0 -692.76623590 0 16887
0.12350000 0.12352200 13392.28104545 0 246.97822838 0 5098.32459504 0 725.40799178 0 -103.40074754 0 16407
0.12450000 0.12449800 13375.69434085 0 116.98789491 0 4896.76867275 0 -153.02717909 0 -654.51905263 0 16306
0.12550000 0.12549900 13063.51278809 0 167.76847549 0 5140.54929204 0 -23.30333135 0 112.47762940 0 17523
0.12650000 0.12650100 13064.83093680 0 -35.91779481 0 4564.19975327 0 428.19401762 0 -640.08752117 0 17154
0.12750000 0.12750600 13173.24866818 0 70.60037443 0 4559.44343335 0 283.64583011 0 95.98638074 0 18007
0.12850000 0.12850300 12874.02891106 0 136.27021362 0 4846.31653088 0 -274.88563348 0 -26.21149694 0 17496
0.12950000 0.12949900 12856.56344066 0 4.60309612 0 4407.53777912 0 600.10367698 0 266.29899309 0 18405
0.13050000 0.13049000 12627.20556516 0 10.05347627 0 4282.30266712 0 524.08164706 0 981.95927517 0 18100
0.13150000 0.13148800 12829.32170065 0 299.54380201 0 4179.87152780 0 -144.00774654 0 244.34083250 0 19059
0.13250000 0.13249300 12295.14193602 0 356.00340662 0 4752.62911133 0 -332.21192086 0 1059.89811300 0 18957
0.13350000 0.13349100 11910.13266705 0 352.52349402 0 5165.35245693 0 -108.83042177 0 820.25648065 0 19468
0.13450000 0.13450700 11696.92211324 0 -130.10786840 0 4622.54980283 0 245.66667041 0 661.09551624 0 19953
0.13550000 0.13551000 11780.40486486 0 -149.73510269 0 4848.95282830 0 623.82815684 0 903.52503311 0 19956
0.13650000 0.13649900 11902.55331197 0 27.41463717 0 4174.59893296 0 171.18028374 0 542.24353936 0 19723
0.13750000 0.13749600 11865.20576519 0 213.96409548 0 4193.65716639 0 -1.61754422 0 1300.01318043 0 20946
0.13850000 0.13851100 11883.44015567 0 86.36180809 0 3983.28063231 0 23.25203339 0 471.00968463 0 20955
0.13950000 0.13949800 11741.40963220 0 -5.15120433 0 4002.76726407 0 368.46210884 0 1291.58801326 0 20506
0.14050000 0.14048300 11591.90959937 0 -83.87259410 0 3736.62205500 0 299.40869176 0 544.18011951 0 21447
0.14150000 0.14148400 11437.13697169 0 323.37812759 0 3753.36254361 0 -122.48787040 0 981.02778341 0 21771
0.14250000 0.14249400 11116.60714377 0 202.23257197 0 3933.91596313 0 -326.98655969 0 525.82929255 0 22470
0.14350000 0.14350900 11031.58655199 0 231.35267388 0 3806.08849200 0 71.41729709 0 551.47607262 0 22519
0.14450000 0.14449900 10911.31646680 0 39.63859908 0 3832.18783645 0 291.48661802 0 458.35545702 0 22218
0.14550000 0.14550500 10705.71822179 0 79.64573057 0 3582.13502621 0 90.92710630 0 346.94772498 0 23559
0.14650000 0.14650700 10695.12909382 0 128.83475643 0 3636.01435472 0 -221.71261298 0 99.03569809 0 23044
0.14750000 0.14750500 10321.69756435 0 180.08547673 0 3719.95845839 0 -205.94865287 0 -783.42520879 0 23649
0.14850000 0.14849900 10195.95716201 0 101.43780442 0 3871.45768343 0 -103.57397425 0 -360.06220619 0 23640
0.14950000 0.14949500 10178.74433678 0 115.42149486 0 3640.60590606 0 284.81458863 0 -390.11819368 0 24457
0.15050000 0.15050000 10121.83326623 0 -24.81261162 0 3798.59701350 0 8.22891680 0 -747.08934115 0 24591
0.15150000 0.15149900 10008.61527664 0 251.49069079 0 3702.27329653 0 198.02108684 0 -713.94778721 0 25020
0.15250000 0.15250500 9898.40705993 0 35.89198106 0 3306.02680981 0 99.46739179 0 -436.35225968 0 25297
0.15350000 0.15350100 9704.99070592 0 -119.15295416 0 3253.07018539 0 475.40900595 0 40.36061504 0 25452
0.15450000 0.15450400 9978.13308772 0 138.42978058 0 3191.47968693 0 398.86740574 0 -96.15158871 0 26061
0.15550000 0.15549900 9730.40900687 0 -64.49844436 0 3207.08876457 0 -183.27100278 0 -74.63555717 0 26128
0.15650000 0.15649500 9558.54438426 0 183.98390154 0 2739.75012409 0 298.14656437 0 117.74363350 0 26331
0.15750000 0.15749700 9485.98029779 0 -1.41370351 0 2682.13604090 0 171.32857547 0 542.93886281 0 27345
0.15850000 0.15849900 9439.39472547 0 236.34076829 0 2841.88467995 0 6.05321349 0 -194.41375320 0 26980
0.15950000 0.15949700 9454.47654363 0 243.66528129 0 2667.36179078 0 -52.31820106 0 140.76729763 0 27777
0.16050000 0.16050000 9076.91481486 0 56.45169572 0 2858.01003250 0 -148.55096576 0 309.22230891 0 28224
0.16150000 0.16150500 8978.14153821 0 -50.77860336 0 2870.64229097 0 171.65591573 0 23.13801353 0 28075
0.16250000 0.16249700 8771.93914171 0 155.91941705 0 2752.52518201 0 80.33182697 0 68.21551388 0 28590
0.16350000 0.16349900 8654.99738201 0 267.28430925 0 2661.89147364 0 -169.49415184 0 60.41657719 0 29163
0.16450000 0.16449100 8359.24874983 0 168.49455574 0 2694.48270049 0 162.39262567 0 150.89836892 0 28996
0.16550000 0.16550500 8433.81202851 0 -5.68998663 0 2825.66046625 0 347.63535923 0 240.60497936 0 30777
0.16650000 0.16650700 8373.86921594 0 -14.65924165 0 2501.49474480 0 378.54924184 0 632.88713385 0 29211
0.16750000 0.16749900 8373.44081760 0 97.05452058 0 2184.24930408 0 43.38994046 0 568.64495956 0 30922
0.16850000 0.16850800 8307.68716613 0 110.54104926 0 2398.90982147 0 31.87843793 0 975.35205476 0 30867
0.16950000 0.16949900 8265.05603994 0 -48.05355060 0 2248.09163993 0 15.52801149 0 572.97178270 0 30852
0.17050000 0.17049200 8226.81874279 0 27.71451601 0 2420.14300027 0 24.89192024 0 892.15490203 0 31257
0.17150000 0.17149500 8159.23066770 0 60.54147178 0 2530.75764616 0 -296.41539574 0 431.77718520 0 32608
0.17250000 0.17250900 8115.94046715 0 47.05659079 0 2511.58956701 0 215.33057631 0 626.86758807 0 32361
0.17350000 0.17350400 8079.49365533 0 146.01572641 0 2604.33231331 0 -16.59571195 0 572.86413389 0 32508
0.17450000 0.17449800 8034.09441685 0 50.94787563 0 2631.82669848 0 -303.44222682 0 365.85437131 0 32791
0.17550000 0.17549800 7977.24925374 0 13.86549643 0 2796.99073181 0 272.10433970 0 413.08254112 0 33633
0.17650000 0.17650100 7945.94322188 0 -1.13587071 0 2289.82203116 0 272.43167996 0 164.44674074 0 33984
0.17750000 0.17750300 7890.51506864 0 78.67348605 0 2227.74821150 0 69.84859028 0 582.92710083 0 34069
0.17850000 0.17849800 7755.38285674 0 193.07143843 0 2224.31004029 0 -80.58018816 0 86.71979531 0 34536
