### header ###
fiducial parameters:
Omega_m = 0.31
Omega_nu = 0
Omega_de = 0.69
Omega_k = 0
H_0 = 100
w_de = -1
zeff = 0
beta = 0
fgrowth = 0
b_1 = 2
gamma = 0.55
Lx = 3500 Ly = 3500 Lz = 3500
nx = 700 ny = 700 nz = 700
xoffset = -983.599254 yoffset = -42.9823471 zoffset = 800.977702
bins = 400 dk = 0.001
kx_ny = 0.628318531 ky_ny = 0.628318531 kz_ny = 0.628318531
############################
A(data) = 9.04167649 (not used)
A(ran) = 9.03714145 (used)
Ngal = 502431
weighted Ngal = 0
Nran = 25229228
weighted Nran = 0
SN(data) = 6731.80741
SN(ran) = 134.150139
SN(data+ran) = 6865.95755
############################
13 columns: k_central k_mean P_0(k) sigma^{lin}_{P_0(k)} P^img_1(k) sigma^{lin}_{P_1(k)} P_2(k) sigma^{lin}_{P_2(k)} P^img_3(k) sigma^{lin}_{P_3(k)} P_4(k) sigma^{lin}_{P_4(k)} N_modes
### header ###
0.00050000 0 0 0 0 0 0 0 0 0 0 0 0
0.00150000 0.00179520 2160.28096671 0 7914.62620545 0 -5577.52657390 0 17760.51602387 0 -8361.70929409 0 3
0.00250000 0.00253879 9726.00419326 0 3075.98789081 0 9420.92965896 0 -13775.20324563 0 30440.33769169 0 6
0.00350000 0.00331552 14273.68314937 0 -12426.73711555 0 3674.32854389 0 -26313.32392716 0 -63152.28499321 0 7
0.00450000 0.00420575 29935.26704440 0 -13699.40969482 0 -8446.25754925 0 12997.93488978 0 1644.09393197 0 24
0.00550000 0.00557378 55041.71598205 0 -6544.50948281 0 3789.24914223 0 -12999.25303849 0 9159.91424528 0 45
0.00650000 0.00659388 71722.11898399 0 1181.90705603 0 -8120.05968187 0 -6384.28850714 0 14545.44147504 0 40
0.00750000 0.00754703 80035.24351355 0 1210.54383675 0 53358.76961686 0 -18951.90276604 0 4928.61294866 0 57
0.00850000 0.00846663 83935.20616283 0 5900.75860668 0 35968.65338043 0 -7483.21810189 0 -387.75321521 0 75
0.00950000 0.00948925 68895.56876736 0 -7891.91010936 0 56574.06385714 0 4368.32285500 0 15487.03903671 0 112
0.01050000 0.01054430 69092.85169092 0 3601.85233400 0 45068.82253544 0 42826.21219724 0 1584.62345601 0 105
0.01150000 0.01145670 79482.82935844 0 6154.86472421 0 53880.42696875 0 22671.16919636 0 49616.87496702 0 144
0.01250000 0.01249090 84658.32057586 0 -2330.61873373 0 46282.61780568 0 13719.40161692 0 34094.24591515 0 169
0.01350000 0.01339930 87893.05750962 0 -6200.16510153 0 53927.22124794 0 -15617.31606752 0 4082.63609131 0 180
0.01450000 0.01448870 78077.68283383 0 9215.73784314 0 36211.41243448 0 -1649.66311027 0 1351.35507267 0 267
0.01550000 0.01550050 84805.29415700 0 4655.28382912 0 54341.99870861 0 6683.88173972 0 37150.48354446 0 238
0.01650000 0.01653350 78027.59318286 0 1015.76429728 0 50958.31097066 0 9595.74913159 0 -9960.07445040 0 315
0.01750000 0.01747870 74028.65953462 0 2599.75174654 0 55704.19555443 0 5094.50196378 0 2779.00898650 0 297
0.01850000 0.01844180 74969.70786767 0 1876.36271920 0 46207.04394632 0 18667.62202764 0 10858.59051841 0 388
0.01950000 0.01947590 69010.79693374 0 -2952.22471153 0 38171.82910307 0 8100.41926610 0 18381.14437472 0 399
0.02050000 0.02045430 72801.02370293 0 1973.98261573 0 24759.99551843 0 12449.36533507 0 -3966.17765280 0 462
0.02150000 0.02154770 64712.86321984 0 4618.59535670 0 31485.19023563 0 -5611.50185690 0 17094.52138826 0 571
0.02250000 0.02255340 64578.30220572 0 2831.88871891 0 29856.61750472 0 6114.62823484 0 8736.37109569 0 510
0.02350000 0.02348930 56897.55951966 0 947.93126622 0 29173.48693589 0 4108.91118892 0 17932.31473904 0 555
0.02450000 0.02439640 58298.97128959 0 -330.08860298 0 21108.39405521 0 10543.67380707 0 12209.90165279 0 592
0.02550000 0.02547300 56933.03968910 0 910.43213234 0 21092.13688779 0 3797.10311163 0 6338.26314802 0 837
0.02650000 0.02652900 58253.49515911 0 1508.98368922 0 17853.44550791 0 2755.39215545 0 14441.52741842 0 723
0.02750000 0.02749970 57920.11338126 0 -1997.58846221 0 20154.71346370 0 274.39352462 0 11923.09446269 0 826
0.02850000 0.02848090 60185.90116762 0 -2529.29669801 0 14183.28011703 0 11163.07188579 0 16736.86370502 0 831
0.02950000 0.02946900 64580.60896596 0 -643.46308033 0 14251.82384994 0 -597.28393720 0 11369.69169605 0 996
0.03050000 0.03053250 59103.48138545 0 1940.06225560 0 15979.69711698 0 -3367.32072481 0 9005.63592338 0 1041
0.03150000 0.03150510 59267.59089981 0 3842.72204156 0 21519.98598984 0 -4471.87442073 0 13718.63269684 0 1036
0.03250000 0.03246190 55911.25474759 0 4074.40864644 0 21834.47430284 0 1373.63178587 0 1519.30918744 0 1059
0.03350000 0.03345080 57391.75544010 0 -2307.67196161 0 25895.58063189 0 968.94804894 0 7138.03889310 0 1302
0.03450000 0.03451200 56708.84456272 0 -28.95291672 0 23636.05405191 0 3216.77715758 0 188.00974739 0 1339
0.03550000 0.03553350 57461.72716744 0 -551.54088160 0 16196.31288829 0 845.01021496 0 -1536.24739836 0 1365
0.03650000 0.03647120 54051.89614674 0 2326.65330303 0 19249.58468300 0 -3992.85917960 0 -9590.01518471 0 1308
0.03750000 0.03744890 53895.03645028 0 1474.11865584 0 18977.16728298 0 3724.19850341 0 -585.02844957 0 1579
0.03850000 0.03847530 52745.28123819 0 1144.33981781 0 17862.45285743 0 -180.05032610 0 -8861.59522312 0 1662
0.03950000 0.03950240 49572.49729380 0 2123.24098797 0 16505.30891500 0 -293.85049804 0 -7461.46864818 0 1683
0.04050000 0.04050350 49162.77273651 0 1592.35659511 0 19041.09749540 0 1387.19773301 0 -8930.39160120 0 1822
0.04150000 0.04152450 42808.30734393 0 2049.94093513 0 15825.14418076 0 -4273.67977764 0 -9501.05113137 0 1887
0.04250000 0.04250150 42933.31177991 0 2641.32835376 0 18231.86403334 0 2496.02442766 0 -4148.44466564 0 1920
0.04350000 0.04349210 40828.22829042 0 -1518.89177369 0 18799.65659007 0 1206.15000772 0 263.47925331 0 2005
0.04450000 0.04448520 39699.56345768 0 1751.70978955 0 19165.00347412 0 2171.46326160 0 -6928.44226367 0 2151
0.04550000 0.04548030 39176.47811136 0 1224.86771940 0 15947.29262787 0 2497.56226782 0 232.21935666 0 2274
0.04650000 0.04648670 37842.07223418 0 -1326.31024719 0 13895.04493250 0 3588.11063370 0 1656.78111330 0 2311
0.04750000 0.04749250 39637.39077687 0 281.46429400 0 18352.03525738 0 2951.76335949 0 3654.80895841 0 2568
0.04850000 0.04851840 40090.94377876 0 1037.37424692 0 11824.67269236 0 -2529.19783685 0 289.37428471 0 2493
0.04950000 0.04949480 39286.98291153 0 -112.67205634 0 13812.88032959 0 4133.70336924 0 6422.41595857 0 2644
0.05050000 0.05050630 38273.21670800 0 -2346.51341025 0 13004.85517050 0 -777.81648603 0 1449.67798185 0 2829
0.05150000 0.05149060 38582.87180906 0 1845.83659200 0 13514.09995537 0 988.07987901 0 1373.25831040 0 2784
0.05250000 0.05249300 39029.94391313 0 1670.29213757 0 12267.57065884 0 -2173.09996291 0 801.85512466 0 3055
0.05350000 0.05348950 37807.25113910 0 -124.73311703 0 13751.58641458 0 116.17174116 0 1982.45172119 0 3009
0.05450000 0.05448610 36148.91021649 0 759.39206244 0 12526.14749741 0 932.95489997 0 -4416.38036005 0 3336
0.05550000 0.05550870 36030.82606124 0 1000.70334982 0 12750.45246952 0 984.83174090 0 1372.24772972 0 3349
0.05650000 0.05647670 34795.94041165 0 243.87069279 0 12908.19093179 0 1461.94774942 0 -2345.05246210 0 3324
0.05750000 0.05747970 33911.35278167 0 611.30684255 0 11180.31766474 0 1625.70575747 0 229.40510916 0 3639
0.05850000 0.05849280 32568.59862933 0 1018.29404435 0 11705.59992558 0 -400.38327676 0 3345.80194712 0 3846
0.05950000 0.05951020 32062.53937051 0 487.40855304 0 11084.53219183 0 359.80077336 0 245.61394446 0 3787
0.06050000 0.06049470 31167.95577948 0 758.94938416 0 12831.62846090 0 205.65866015 0 2464.30098204 0 3930
0.06150000 0.06148310 30176.15872111 0 819.47987137 0 11158.12882813 0 -143.23003880 0 1123.48011447 0 4083
0.06250000 0.06249100 30769.65517768 0 -581.61664132 0 13039.78611131 0 1465.05638346 0 3349.27307206 0 4303
0.06350000 0.06350600 30233.49818999 0 285.95588572 0 12066.88251778 0 334.25395291 0 2348.86410879 0 4470
0.06450000 0.06451750 30887.19010430 0 -199.03715980 0 10367.11877197 0 1350.37744571 0 3171.70745628 0 4479
0.06550000 0.06550280 30716.27015494 0 214.41885679 0 11879.92509245 0 591.42806155 0 2772.16559778 0 4636
0.06650000 0.06648880 30839.51705930 0 638.25529447 0 12712.88523129 0 -1373.08255724 0 2666.06561122 0 4653
0.06750000 0.06749660 30036.10542070 0 175.74327519 0 12786.70155904 0 -18.82854602 0 2289.07508023 0 5220
0.06850000 0.06852730 29805.20970504 0 252.64297246 0 13425.67414610 0 -1302.67144699 0 1700.30198987 0 5029
0.06950000 0.06949320 29112.52255806 0 971.53601424 0 14728.22476279 0 394.98875317 0 2000.97171056 0 5040
0.07050000 0.07048030 28689.17713077 0 423.67935829 0 13299.57125286 0 675.50837392 0 -218.11846083 0 5475
0.07150000 0.07148790 28429.06245205 0 -10.87366135 0 15192.65249153 0 -251.90371072 0 54.05958535 0 5509
0.07250000 0.07249820 28380.84017842 0 251.25122711 0 12986.84047147 0 1415.08756279 0 -717.64519434 0 5916
0.07350000 0.07351270 27967.16117500 0 412.86284967 0 13768.06327346 0 546.61539925 0 1594.37775646 0 5721
0.07450000 0.07449140 27609.06410885 0 -581.90553558 0 11540.83133686 0 1451.35862146 0 397.36032239 0 6028
0.07550000 0.07549160 28483.43608633 0 143.90009773 0 11207.33971329 0 1497.36201143 0 468.18555102 0 6183
0.07650000 0.07648840 26832.12529017 0 665.27075227 0 10265.79707448 0 -61.54425341 0 440.75267945 0 6330
0.07750000 0.07749960 26479.95989322 0 604.47773378 0 10099.57852218 0 159.81234957 0 967.22566796 0 6583
0.07850000 0.07848650 26057.60307746 0 253.35587122 0 10616.32577013 0 685.36373244 0 1169.50547359 0 6549
0.07950000 0.07947320 26043.98220746 0 108.51033132 0 9335.82119060 0 1177.68898016 0 -399.03986353 0 6828
0.08050000 0.08048110 24799.43013400 0 459.82629128 0 8128.50681819 0 1023.04597045 0 1939.65582641 0 7147
0.08150000 0.08149960 25163.12933216 0 505.21564365 0 8180.12332475 0 604.27781456 0 1231.43649380 0 7386
0.08250000 0.08250610 23208.64433277 0 815.80882721 0 8468.39146300 0 -140.23893969 0 1331.40708887 0 7227
0.08350000 0.08350160 22977.19938848 0 575.91454970 0 8456.92356922 0 515.02486696 0 2148.49452033 0 7798
0.08450000 0.08449610 21857.98128816 0 -98.49327990 0 7275.31309665 0 1385.70383114 0 3122.49657112 0 7371
0.08550000 0.08548940 21881.59811921 0 68.51769947 0 7092.40897860 0 452.89832136 0 2681.94930317 0 8256
0.08650000 0.08650700 21030.51343561 0 654.17194014 0 6484.41288622 0 231.06927191 0 2288.54782074 0 8037
0.08750000 0.08749060 21159.80185489 0 295.01815810 0 7230.58391710 0 357.27761704 0 4067.66411888 0 8155
0.08850000 0.08849210 20799.39802850 0 125.45700037 0 6086.61757476 0 51.85443240 0 2262.31666142 0 8718
0.08950000 0.08949900 20892.65704971 0 149.69116439 0 6419.69178457 0 -239.29671677 0 1132.50943314 0 8571
0.09050000 0.09049190 20313.77007468 0 315.85699075 0 6159.73088986 0 230.61121523 0 1073.35091904 0 8932
0.09150000 0.09150830 20083.09405047 0 147.27895226 0 6040.63615393 0 -370.39539361 0 1158.65271588 0 9285
0.09250000 0.09250820 19473.12073503 0 459.18479225 0 6830.35003052 0 -272.19221628 0 259.21943606 0 9204
0.09350000 0.09350330 19470.92382051 0 569.91587461 0 6836.79797463 0 -833.38194643 0 -414.36883457 0 9349
0.09450000 0.09448040 18344.12636512 0 266.22429800 0 7378.08475772 0 79.90211049 0 -480.47838620 0 9564
0.09550000 0.09549270 18667.95156482 0 17.19579915 0 7123.11085896 0 706.50683774 0 -323.25070655 0 10155
0.09650000 0.09649430 18233.29202777 0 -125.52949855 0 7296.70005946 0 430.56338993 0 103.94744972 0 9913
0.09750000 0.09749140 18239.22369697 0 215.72162710 0 6148.20807322 0 -1.84332112 0 -659.09302865 0 10476
0.09850000 0.09850240 17865.08915484 0 602.70042994 0 7398.21947926 0 281.90038153 0 676.50357620 0 10575
0.09950000 0.09950330 17737.00903855 0 520.03493052 0 7185.21763234 0 -428.72017865 0 385.22346814 0 10882
0.10050000 0.10051200 17021.58382632 0 167.51473187 0 7748.53946802 0 513.38706719 0 782.91003233 0 10875
0.10150000 0.10150300 16319.88932983 0 245.20751528 0 7981.18173072 0 -40.32788101 0 1156.70844653 0 11118
0.10250000 0.10250800 16316.92349523 0 424.67895440 0 7733.20500470 0 -474.36876693 0 669.74806406 0 11575
0.10350000 0.10349800 16139.96203095 0 219.21691809 0 8501.90539394 0 207.86875616 0 1004.34144026 0 11364
0.10450000 0.10450100 15680.69705132 0 -151.04116837 0 7590.59229888 0 633.12769599 0 890.22271571 0 12093
0.10550000 0.10551000 16062.52079425 0 -32.98348594 0 7553.61822757 0 287.08839516 0 843.64593105 0 12067
0.10650000 0.10649700 15554.92369526 0 162.38383801 0 7060.37796495 0 1122.35968807 0 703.66622727 0 12054
0.10750000 0.10749900 15788.34586262 0 133.90303822 0 6990.25245359 0 -399.81757127 0 37.96685698 0 12807
0.10850000 0.10850100 15326.22489412 0 409.11051968 0 6400.08432251 0 -280.52181767 0 155.99191523 0 12736
0.10950000 0.10950300 15257.35162403 0 192.70455371 0 6925.79498168 0 417.81799036 0 -77.77725477 0 12933
0.11050000 0.11050200 15048.97428217 0 -188.21625735 0 6221.82667866 0 230.64526740 0 76.20008984 0 13428
0.11150000 0.11150900 14917.15941119 0 -151.94739560 0 5405.01386151 0 951.78355583 0 -542.35338509 0 13453
0.11250000 0.11250000 14824.77915578 0 152.47355663 0 5454.81791360 0 46.95707056 0 -580.46985195 0 13668
0.11350000 0.11349100 14541.70672036 0 490.36340306 0 5150.69903711 0 -394.95140562 0 -691.19873739 0 13791
0.11450000 0.11448600 14259.18351357 0 212.61958380 0 5409.64935114 0 274.09364579 0 -118.06438302 0 14205
0.11550000 0.11549300 14073.65408267 0 198.57141392 0 5471.85498567 0 358.52766140 0 -565.50886409 0 14776
0.11650000 0.11649800 13930.30541048 0 -36.73581593 0 5066.46933456 0 317.73645112 0 432.80204582 0 14553
0.11750000 0.11747300 13739.83292192 0 -52.83074121 0 4652.83426943 0 559.30038367 0 -87.18565104 0 14568
0.11850000 0.11849100 13937.33553693 0 67.26556804 0 4410.10816910 0 525.31082073 0 470.12762345 0 16015
0.11950000 0.11950300 14057.83629815 0 -40.12960947 0 4018.63997145 0 269.56031269 0 780.28362103 0 15270
0.12050000 0.12050700 13796.95269934 0 -70.37167563 0 4167.66766766 0 21.69354224 0 212.19997313 0 15999
0.12150000 0.12150000 13655.14186732 0 292.91571091 0 4027.03218490 0 -680.80843019 0 -152.20443460 0 15670
0.12250000 0.12250700 13135.46173850 0 646.49811773 0 4795.71060500 0 -332.29100979 0 -217.27484566 0 16887
0.12350000 0.12352200 12986.40108857 0 240.64342537 0 5094.53491750 0 -687.33766013 0 -410.16723556 0 16407
0.12450000 0.12449800 12763.19457371 0 -127.70114854 0 4868.86785839 0 633.42427945 0 -465.75905894 0 16306
0.12550000 0.12549900 12951.25045631 0 -45.59201773 0 4692.15903927 0 849.70502129 0 -492.89315013 0 17523
0.12650000 0.12650100 12679.27243919 0 -60.75654971 0 4212.68244610 0 290.76383314 0 -41.33890107 0 17154
0.12750000 0.12750600 12634.01600016 0 341.71577306 0 4114.89778098 0 -139.62929591 0 26.77939934 0 18007
0.12850000 0.12850300 12298.43730780 0 405.33182671 0 4463.48220728 0 -204.00438352 0 58.13585039 0 17496
0.12950000 0.12949900 12189.58019352 0 39.72230152 0 4454.89227152 0 -39.16307693 0 41.51531331 0 18405
0.13050000 0.13049000 11989.77081826 0 15.95047815 0 4540.03369359 0 318.83490837 0 42.02565655 0 18100
0.13150000 0.13148800 11813.90781123 0 -43.93466542 0 4526.54463847 0 145.28635079 0 369.48477255 0 19059
0.13250000 0.13249300 12070.61727246 0 -21.61807822 0 4041.79545045 0 334.32315571 0 46.41608036 0 18957
0.13350000 0.13349100 12093.35533770 0 -108.50088459 0 3669.79191541 0 103.30968544 0 -99.68873093 0 19468
0.13450000 0.13450700 12398.61660974 0 83.76944896 0 3926.50137664 0 -1.78214804 0 -218.62045580 0 19953
0.13550000 0.13551000 12146.74036045 0 51.79006281 0 3682.03971384 0 -118.15885034 0 -1051.24336827 0 19956
0.13650000 0.13649900 12134.21794771 0 176.44189400 0 3726.43935621 0 -226.66885213 0 -278.74561228 0 19723
0.13750000 0.13749600 11745.91330696 0 40.63336197 0 3935.99204735 0 124.88799951 0 -683.04269225 0 20946
0.13850000 0.13851100 11697.80087905 0 231.47460263 0 3607.09197512 0 466.92342363 0 -753.79871808 0 20955
0.13950000 0.13949800 11587.40592461 0 194.67189066 0 3799.45381016 0 -30.56391413 0 -459.63296281 0 20506
0.14050000 0.14048300 11192.62038603 0 142.31172853 0 3527.36594732 0 52.34884801 0 -483.31240592 0 21447
0.14150000 0.14148400 11109.79670877 0 94.92296427 0 3627.46835725 0 -7.98024804 0 -528.95989574 0 21771
0.14250000 0.14249400 11035.43115239 0 91.03848987 0 3352.66730499 0 27.80546827 0 -444.41713287 0 22470
0.14350000 0.14350900 10720.51444106 0 102.82131134 0 3198.15830706 0 333.17416942 0 -434.08614236 0 22519
0.14450000 0.14449900 10777.08498985 0 13.94546412 0 3254.28947295 0 255.94493497 0 -186.58944215 0 22218
0.14550000 0.14550500 10792.60619091 0 84.47235176 0 3149.70535740 0 336.49700263 0 -910.75727569 0 23559
0.14650000 0.14650700 10681.07982549 0 201.20880980 0 3072.78039561 0 -266.10346770 0 64.92178979 0 23044
0.14750000 0.14750500 10193.52957147 0 194.70704129 0 3210.45004378 0 -130.65929394 0 -80.84788219 0 23649
0.14850000 0.14849900 10101.75346755 0 154.80228602 0 3211.58145475 0 -163.63388237 0 -287.23888380 0 23640
0.14950000 0.14949500 9928.94417170 0 209.16823109 0 3548.13777407 0 292.41701132 0 -203.87147020 0 24457
0.15050000 0.15050000 9766.83384955 0 72.48829292 0 3419.35464513 0 168.04199135 0 316.06240225 0 24591
0.15150000 0.15149900 9865.50826505 0 -4.31665143 0 3331.90646281 0 253.77987572 0 140.97710297 0 25020
0.15250000 0.15250500 9626.67070341 0 88.27905539 0 3236.93384827 0 119.91088967 0 177.22948786 0 25297
0.15350000 0.15350100 9563.03707445 0 101.00622057 0 3200.51999016 0 83.64565283 0 663.84275784 0 25452
0.15450000 0.15450400 9390.06301001 0 108.02733967 0 3048.21889132 0 74.85393047 0 375.12205520 0 26061
0.15550000 0.15549900 9259.61022603 0 138.56269391 0 3038.10209998 0 210.81811390 0 676.87815012 0 26128
0.15650000 0.15649500 9284.35846806 0 -45.65913347 0 3074.27429749 0 -117.45803461 0 93.47519760 0 26331
0.15750000 0.15749700 9312.40208186 0 34.33942158 0 2642.28401158 0 412.42676214 0 493.68074398 0 27345
0.15850000 0.15849900 9271.72620959 0 -141.91848084 0 2558.44975364 0 18.27657124 0 328.77594656 0 26980
0.15950000 0.15949700 9282.19450726 0 89.16430209 0 2267.77599399 0 177.49531451 0 291.87766880 0 27777
0.16050000 0.16050000 9203.88548933 0 181.23775839 0 2341.48247601 0 -302.90178585 0 -264.92372460 0 28224
0.16150000 0.16150500 9048.90415478 0 151.54755716 0 2266.05141610 0 -131.40294950 0 -148.78274024 0 28075
0.16250000 0.16249700 8974.13216922 0 57.34573008 0 2613.74609201 0 184.27059888 0 -102.82328856 0 28590
0.16350000 0.16349900 8844.26156759 0 234.28116093 0 2440.20082980 0 -136.51407113 0 -500.95582640 0 29163
0.16450000 0.16449100 8441.98455051 0 235.72673068 0 2650.37964157 0 -74.74716043 0 -88.33145180 0 28996
0.16550000 0.16550500 8230.66334319 0 106.29869748 0 2709.46565749 0 77.92345943 0 -266.24187331 0 30777
0.16650000 0.16650700 8330.16160163 0 35.87693220 0 2539.00706017 0 522.48998249 0 524.31891382 0 29211
0.16750000 0.16749900 8254.41198911 0 -60.05891951 0 2397.43788874 0 117.59644023 0 115.29956610 0 30922
0.16850000 0.16850800 8263.63903008 0 76.80215427 0 2489.36777667 0 -103.52674059 0 416.52181080 0 30867
0.16950000 0.16949900 8076.14336069 0 8.11022849 0 2543.65353437 0 34.50034556 0 565.47591037 0 30852
0.17050000 0.17049200 8146.84006982 0 81.62987392 0 2362.69368567 0 134.60385395 0 420.76295427 0 31257
0.17150000 0.17149500 8022.58258478 0 81.97874394 0 2798.23198852 0 -127.87470479 0 558.40953483 0 32608
0.17250000 0.17250900 8114.69921045 0 72.51081130 0 2367.51591303 0 74.51022320 0 490.38207683 0 32361
0.17350000 0.17350400 8258.50923469 0 -123.08433269 0 2635.34176171 0 332.97205329 0 704.88551483 0 32508
0.17450000 0.17449800 8148.82827746 0 10.35512362 0 2266.90821276 0 204.93038299 0 412.16093548 0 32791
0.17550000 0.17549800 8187.36215808 0 118.78057715 0 2444.73745828 0 158.75453523 0 1002.55644721 0 33633
0.17650000 0.17650100 7881.36491968 0 108.48440773 0 2143.62835468 0 -342.20348808 0 726.35156657 0 33984
0.17750000 0.17750300 7890.65786808 0 134.38416250 0 2354.21359563 0 148.36642494 0 794.33069245 0 34069
0.17850000 0.17849800 7752.75754390 0 55.23251801 0 2229.31900538 0 -79.41813023 0 394.77125863 0 34536
