### header ###
fiducial parameters:
Omega_m = 0.31
Omega_nu = 0
Omega_de = 0.69
Omega_k = 0
H_0 = 100
w_de = -1
zeff = 0
beta = 0
fgrowth = 0
b_1 = 2
gamma = 0.55
Lx = 3500 Ly = 3500 Lz = 3500
nx = 700 ny = 700 nz = 700
xoffset = -983.599254 yoffset = -42.9823471 zoffset = 800.977702
bins = 400 dk = 0.001
kx_ny = 0.628318531 ky_ny = 0.628318531 kz_ny = 0.628318531
############################
A(data) = 9.15605769 (not used)
A(ran) = 9.17645403 (used)
Ngal = 509433
weighted Ngal = 0
Nran = 25229228
weighted Nran = 0
SN(data) = 6681.59745
SN(ran) = 136.218138
SN(data+ran) = 6817.81559
############################
13 columns: k_central k_mean P_0(k) sigma^{lin}_{P_0(k)} P^img_1(k) sigma^{lin}_{P_1(k)} P_2(k) sigma^{lin}_{P_2(k)} P^img_3(k) sigma^{lin}_{P_3(k)} P_4(k) sigma^{lin}_{P_4(k)} N_modes
### header ###
0.00050000 0 0 0 0 0 0 0 0 0 0 0 0
0.00150000 0.00179520 73722.95887969 0 -60364.83985497 0 -34731.35112487 0 73023.90068061 0 -132505.80059149 0 3
0.00250000 0.00253879 73261.71667699 0 -26495.33829483 0 49293.92853313 0 6483.14966037 0 124678.19417002 0 6
0.00350000 0.00331552 63598.47833146 0 42394.07911189 0 40174.42653038 0 -70104.75051712 0 46411.24715061 0 7
0.00450000 0.00420575 81445.44294155 0 29799.27803585 0 18621.15728562 0 7053.60048367 0 65626.34027570 0 24
0.00550000 0.00557378 73558.73951959 0 -2102.12863946 0 55740.99387257 0 58509.98492888 0 -12877.98335719 0 45
0.00650000 0.00659388 74905.00873516 0 1067.41156065 0 64891.80190719 0 43496.82035333 0 10231.55816175 0 40
0.00750000 0.00754703 80712.66210465 0 -14275.00129808 0 35618.02582363 0 8896.25154961 0 10954.49682162 0 57
0.00850000 0.00846663 72522.67463372 0 3735.00732283 0 51069.36499946 0 24188.68789847 0 45674.40202185 0 75
0.00950000 0.00948925 84652.16921522 0 11890.58012785 0 53387.76888847 0 21698.48529428 0 59988.28870688 0 112
0.01050000 0.01054430 75895.48764482 0 -2540.97329866 0 46750.12121475 0 7681.92901989 0 50712.36639056 0 105
0.01150000 0.01145670 75646.24769295 0 4598.95494092 0 56153.90395591 0 21161.12000360 0 3029.77579396 0 144
0.01250000 0.01249090 69930.42535025 0 8476.38823184 0 48961.97474972 0 12437.94137958 0 50908.00162824 0 169
0.01350000 0.01339930 71687.18804318 0 919.03305268 0 42378.81055600 0 29794.11528673 0 39847.96503326 0 180
0.01450000 0.01448870 71713.88055456 0 -9221.03240713 0 40573.60589798 0 10020.42369216 0 23510.28069585 0 267
0.01550000 0.01550050 75838.91709603 0 732.72481558 0 17966.58660550 0 5530.91903244 0 21973.09960882 0 238
0.01650000 0.01653350 74811.09063959 0 864.56934490 0 27895.65160750 0 -5739.30735888 0 15224.94713492 0 315
0.01750000 0.01747870 74140.59232923 0 -2022.66624141 0 10622.61993022 0 19396.55826414 0 23864.97254450 0 297
0.01850000 0.01844180 81894.27257722 0 -6012.61450928 0 10969.67750092 0 11394.73652153 0 -614.65054645 0 388
0.01950000 0.01947590 84634.92343627 0 1032.10384900 0 3714.68586355 0 10028.64015245 0 13637.34685974 0 399
0.02050000 0.02045430 87979.17655866 0 824.52069173 0 7139.77445557 0 -14832.24866514 0 -8415.89619063 0 462
0.02150000 0.02154770 78289.79493038 0 9860.55422281 0 12847.22655396 0 -20057.28030490 0 -7098.28572493 0 571
0.02250000 0.02255340 71031.18936863 0 1550.86786447 0 19128.20515597 0 -13080.31918414 0 -2574.30049187 0 510
0.02350000 0.02348930 71010.31868072 0 -5229.17282363 0 23254.77953761 0 11132.86431119 0 -18411.24210359 0 555
0.02450000 0.02439640 71443.22068615 0 3738.29171003 0 24350.49065260 0 -298.10701991 0 -26483.91433934 0 592
0.02550000 0.02547300 70242.60690301 0 8359.51237957 0 30189.88943684 0 -10745.21874480 0 -18696.40160780 0 837
0.02650000 0.02652900 61614.77436900 0 3609.39873536 0 40420.48095620 0 -2002.60841188 0 -10706.83864820 0 723
0.02750000 0.02749970 65068.98306293 0 -3039.95849274 0 37185.63417672 0 7513.70029081 0 -20480.51588646 0 826
0.02850000 0.02848090 58732.53236938 0 976.05946123 0 36203.28385077 0 7805.23084712 0 -7070.50574087 0 831
0.02950000 0.02946900 58613.67929405 0 1685.04441855 0 32441.06774166 0 3743.20181397 0 -2353.90602760 0 996
0.03050000 0.03053250 53872.95745939 0 5492.33022896 0 34756.17625890 0 434.37833199 0 371.20385816 0 1041
0.03150000 0.03150510 53529.90925768 0 3208.93417276 0 37586.57107594 0 -894.28700756 0 372.56814207 0 1036
0.03250000 0.03246190 52330.50377752 0 -3490.23809200 0 36247.33198682 0 6584.46037329 0 1028.86889237 0 1059
0.03350000 0.03345080 51558.94739941 0 -2525.21043701 0 28299.66418704 0 10402.78567914 0 -90.64831785 0 1302
0.03450000 0.03451200 55263.82403964 0 1816.43089120 0 24148.26467137 0 -4412.21720704 0 -1052.54833549 0 1339
0.03550000 0.03553350 54760.95030687 0 1774.37096278 0 23543.45410504 0 2239.58958075 0 467.24197623 0 1365
0.03650000 0.03647120 53367.11789202 0 1322.92699883 0 26946.25499929 0 612.71836013 0 -6028.81675383 0 1308
0.03750000 0.03744890 47956.00759272 0 2435.31269500 0 25719.38808768 0 -2300.14752939 0 1921.61915824 0 1579
0.03850000 0.03847530 46143.44327108 0 1581.16331565 0 27761.52997628 0 3479.09973540 0 -2344.08581971 0 1662
0.03950000 0.03950240 45961.31905768 0 747.52542868 0 25472.01551315 0 5076.73990992 0 -860.30513383 0 1683
0.04050000 0.04050350 43040.52120830 0 860.28316468 0 23030.47456550 0 3408.98520861 0 2898.30144473 0 1822
0.04150000 0.04152450 43125.76149153 0 236.14304598 0 19012.97698960 0 5080.58451032 0 7530.49570229 0 1887
0.04250000 0.04250150 42723.61628933 0 -1296.64091665 0 16286.16669200 0 6823.55058009 0 3123.02383060 0 1920
0.04350000 0.04349210 42648.59165860 0 420.36311583 0 17100.67274891 0 -2507.01998481 0 7225.05867709 0 2005
0.04450000 0.04448520 39459.88008396 0 1808.39018407 0 12994.09028937 0 -3307.29003565 0 1673.96098482 0 2151
0.04550000 0.04548030 39946.71634076 0 854.27680039 0 17837.62772339 0 383.05511351 0 2167.26715487 0 2274
0.04650000 0.04648670 39910.68694270 0 639.17799856 0 15807.23932746 0 1514.28923777 0 368.15344235 0 2311
0.04750000 0.04749250 39409.68058726 0 737.91392767 0 17876.84264751 0 -102.22089460 0 -867.60987459 0 2568
0.04850000 0.04851840 38303.09474542 0 1433.11324640 0 18191.00142333 0 1134.21204189 0 1463.09014497 0 2493
0.04950000 0.04949480 37753.75627063 0 -527.30452065 0 18298.86992608 0 207.11411602 0 1369.63340145 0 2644
0.05050000 0.05050630 35851.88737389 0 752.61018733 0 18887.64301644 0 578.39486619 0 2737.19071868 0 2829
0.05150000 0.05149060 36509.97311724 0 1445.49285970 0 19935.35154925 0 828.38396591 0 4855.17009638 0 2784
0.05250000 0.05249300 34981.90922545 0 158.79957198 0 18093.67811026 0 780.14741233 0 3996.59393428 0 3055
0.05350000 0.05348950 35617.91597791 0 17.37319999 0 17722.72909419 0 3492.32516079 0 7380.19379565 0 3009
0.05450000 0.05448610 36286.10752803 0 -1004.78741390 0 16733.78802469 0 1421.49156861 0 2713.61782592 0 3336
0.05550000 0.05550870 34120.82858080 0 1401.10420190 0 16909.76087745 0 -145.93993286 0 4903.17267856 0 3349
0.05650000 0.05647670 35119.54591989 0 1739.35214539 0 17393.41160820 0 -1545.81496108 0 4026.15341909 0 3324
0.05750000 0.05747970 32854.74674507 0 -115.58406653 0 16546.61090791 0 1595.72885889 0 6515.97156324 0 3639
0.05850000 0.05849280 33108.71006315 0 -90.61129984 0 16663.70645162 0 2070.78965389 0 2152.75653449 0 3846
0.05950000 0.05951020 32837.83050330 0 -238.93971816 0 14703.50947448 0 1207.28141870 0 1811.18026550 0 3787
0.06050000 0.06049470 32576.83705876 0 743.46772757 0 13498.61170804 0 -99.10643874 0 1452.16049525 0 3930
0.06150000 0.06148310 31544.94631047 0 575.57292949 0 12041.50815512 0 255.07715374 0 1560.51231920 0 4083
0.06250000 0.06249100 31122.36980327 0 245.16028161 0 13019.13511486 0 1869.84886766 0 -885.95520926 0 4303
0.06350000 0.06350600 30216.58194821 0 873.09007785 0 11736.46657454 0 -661.41406884 0 -677.88543543 0 4470
0.06450000 0.06451750 30070.37728715 0 557.29789609 0 11983.72930334 0 767.95673368 0 -1177.23861269 0 4479
0.06550000 0.06550280 28999.93068910 0 -276.85516734 0 11218.65382305 0 1317.95098745 0 -453.18282179 0 4636
0.06650000 0.06648880 28850.54050199 0 239.17149264 0 10710.06811254 0 -672.72048940 0 -2378.32473245 0 4653
0.06750000 0.06749660 28699.94201190 0 456.77258011 0 9842.26490946 0 2122.26336101 0 -1038.06188117 0 5220
0.06850000 0.06852730 29360.44436122 0 -890.68077239 0 10743.13167601 0 213.28085507 0 -2468.42019676 0 5029
0.06950000 0.06949320 28832.63564869 0 851.42959918 0 7828.43026441 0 -1740.83506269 0 -3127.76916596 0 5040
0.07050000 0.07048030 28197.72735349 0 1378.78355041 0 11399.24019629 0 -1136.91424674 0 -2519.43255183 0 5475
0.07150000 0.07148790 27694.63392926 0 -417.12706075 0 10077.68626903 0 464.01690572 0 -3131.64672008 0 5509
0.07250000 0.07249820 27740.32975120 0 -397.21203066 0 10890.73137778 0 1795.77989474 0 -2448.90061128 0 5916
0.07350000 0.07351270 27454.95055554 0 526.25549397 0 10450.85416876 0 -823.57601849 0 -2492.35558042 0 5721
0.07450000 0.07449140 26130.43079368 0 1041.02661731 0 9815.19892262 0 -354.98293982 0 -2952.04895837 0 6028
0.07550000 0.07549160 26461.83534846 0 1073.98802425 0 11700.65686792 0 778.66998732 0 -1811.88327815 0 6183
0.07650000 0.07648840 25370.95744540 0 137.37636007 0 10909.14152143 0 786.83921395 0 -221.57860120 0 6330
0.07750000 0.07749960 25264.62678282 0 -491.35750688 0 10347.84084709 0 1978.74992023 0 -801.61785790 0 6583
0.07850000 0.07848650 24931.90407933 0 240.43801386 0 9712.41627698 0 301.59901554 0 829.05951712 0 6549
0.07950000 0.07947320 24241.41384686 0 659.86524411 0 9432.52936761 0 -88.26038162 0 -200.24326587 0 6828
0.08050000 0.08048110 24668.93341173 0 275.41948370 0 10000.32192434 0 90.44631156 0 349.53569028 0 7147
0.08150000 0.08149960 23248.62817696 0 264.92482306 0 9763.20894060 0 -403.66327013 0 -396.29921268 0 7386
0.08250000 0.08250610 23356.71637116 0 603.49131916 0 9176.06156698 0 823.84733743 0 -532.48484508 0 7227
0.08350000 0.08350160 23217.54183656 0 -465.81288334 0 9333.30572348 0 821.03638531 0 899.53323943 0 7798
0.08450000 0.08449610 22921.17806831 0 290.08608501 0 9342.51079530 0 1271.56313744 0 277.26379344 0 7371
0.08550000 0.08548940 22847.14204911 0 327.20295577 0 8325.84466461 0 -470.10675276 0 721.55020989 0 8256
0.08650000 0.08650700 22073.49860221 0 645.08879707 0 9076.48641653 0 775.77335553 0 1348.86157470 0 8037
0.08750000 0.08749060 21565.13258314 0 246.24775430 0 9094.45717727 0 -9.17371087 0 2846.91561420 0 8155
0.08850000 0.08849210 21077.85694344 0 461.88480019 0 8778.04656407 0 -234.35146219 0 822.75876629 0 8718
0.08950000 0.08949900 20814.00751003 0 560.99200784 0 10128.30317948 0 120.30413737 0 898.45016057 0 8571
0.09050000 0.09049190 19613.72326407 0 530.64822455 0 8025.92189485 0 614.46820254 0 1707.26620888 0 8932
0.09150000 0.09150830 20187.33764427 0 -214.21674065 0 8831.15697250 0 487.10757575 0 1609.07511458 0 9285
0.09250000 0.09250820 19259.91018122 0 -145.00514573 0 7528.36469520 0 1212.40022952 0 1202.31639189 0 9204
0.09350000 0.09350330 19180.38187574 0 678.46542086 0 7466.18102982 0 61.40969240 0 808.09216498 0 9349
0.09450000 0.09448040 18266.46543697 0 535.23867743 0 6648.37960114 0 799.64722558 0 2619.75465321 0 9564
0.09550000 0.09549270 18523.17489819 0 32.60913170 0 6368.98699753 0 656.45453432 0 1420.23932733 0 10155
0.09650000 0.09649430 17707.57038403 0 232.24791654 0 5492.84650387 0 231.82940433 0 1357.86892422 0 9913
0.09750000 0.09749140 17235.23376303 0 509.72041686 0 6321.46773655 0 -327.75108594 0 1203.38189543 0 10476
0.09850000 0.09850240 16662.93753154 0 31.42993784 0 5237.07073132 0 -120.98408241 0 1503.70010981 0 10575
0.09950000 0.09950330 16373.38419830 0 461.04667730 0 6416.73693454 0 533.47455507 0 910.72102660 0 10882
0.10050000 0.10051200 16657.77478243 0 95.25909219 0 5575.86790344 0 -263.94390073 0 973.51982805 0 10875
0.10150000 0.10150300 15957.61812609 0 212.69867272 0 5637.38150990 0 462.65921255 0 1114.87919414 0 11118
0.10250000 0.10250800 16181.48371530 0 161.36556813 0 6035.55029683 0 84.40205050 0 909.10080215 0 11575
0.10350000 0.10349800 15377.63269380 0 304.17270089 0 6195.89210280 0 377.58369791 0 1795.49429586 0 11364
0.10450000 0.10450100 15677.07214237 0 138.58136769 0 5667.51219249 0 -134.63351230 0 1271.91464377 0 12093
0.10550000 0.10551000 15251.74949202 0 -129.56632897 0 5819.79132218 0 19.48981729 0 665.29052450 0 12067
0.10650000 0.10649700 15209.01950468 0 482.37761879 0 6128.44682715 0 203.07508868 0 1029.76303658 0 12054
0.10750000 0.10749900 15059.51947184 0 -46.57337944 0 5553.45937538 0 -733.48275109 0 508.29242243 0 12807
0.10850000 0.10850100 14872.56204651 0 12.86666925 0 6271.89436049 0 850.91661964 0 -230.47940036 0 12736
0.10950000 0.10950300 14742.50470715 0 223.84801389 0 5337.70040073 0 214.95270702 0 -71.52428683 0 12933
0.11050000 0.11050200 14588.06161665 0 58.02391759 0 5002.78078273 0 473.07588273 0 969.18751263 0 13428
0.11150000 0.11150900 14906.94375869 0 -101.01720514 0 4750.73976485 0 639.18458931 0 212.95681018 0 13453
0.11250000 0.11250000 14693.29382198 0 -90.02241690 0 4372.66176117 0 1062.34218040 0 876.83471865 0 13668
0.11350000 0.11349100 14575.97858681 0 139.76550461 0 4319.73809048 0 -360.22587632 0 1442.75770112 0 13791
0.11450000 0.11448600 14109.68348074 0 310.73158918 0 3996.05569022 0 -136.34710562 0 1923.21192126 0 14205
0.11550000 0.11549300 14306.08763849 0 -115.68512460 0 3999.44992315 0 743.75332645 0 1598.21137230 0 14776
0.11650000 0.11649800 14476.78789640 0 58.46615648 0 4518.95429881 0 -179.24845230 0 1293.49932889 0 14553
0.11750000 0.11747300 14323.22357172 0 307.11876326 0 4298.25226651 0 -403.54683366 0 1827.98666155 0 14568
0.11850000 0.11849100 13956.44869323 0 -110.47404337 0 4456.90244830 0 70.31060141 0 1280.12011948 0 16015
0.11950000 0.11950300 14131.21324299 0 69.64449693 0 4309.35766939 0 101.32773901 0 1201.08611976 0 15270
0.12050000 0.12050700 13992.58793702 0 366.14216711 0 4580.75350415 0 -2.48880756 0 631.64368023 0 15999
0.12150000 0.12150000 13593.84795232 0 245.27342271 0 4305.68882214 0 -143.38382282 0 482.95101348 0 15670
0.12250000 0.12250700 13530.35712280 0 180.49080746 0 4838.70422208 0 205.03034260 0 677.28457931 0 16887
0.12350000 0.12352200 13334.06281077 0 -149.69775514 0 4046.40897093 0 470.93279262 0 908.12317519 0 16407
0.12450000 0.12449800 13400.08009198 0 -242.64481449 0 3492.32516079 0 384.01736207 0 457.10431420 0 16306
0.12550000 0.12549900 13409.41697867 0 244.28371272 0 3597.56835069 0 450.62451483 0 -9.52425055 0 17523
0.12650000 0.12650100 13199.17225947 0 342.77578432 0 3283.22283713 0 -512.69284220 0 220.54165754 0 17154
0.12750000 0.12750600 12884.13471783 0 118.48289523 0 3494.55502902 0 -199.83134440 0 306.11147795 0 18007
0.12850000 0.12850300 12676.30660460 0 -7.27047988 0 3483.40568785 0 476.74363152 0 301.20466938 0 17496
0.12950000 0.12949900 12544.60157935 0 174.38228664 0 3212.28446740 0 17.77029229 0 -319.42148455 0 18405
0.13050000 0.13049000 12784.94402743 0 3.82387252 0 2959.45256029 0 116.62869938 0 8.02585599 0 18100
0.13150000 0.13148800 12245.27197650 0 80.39454888 0 3210.84548839 0 294.31844083 0 -450.27850080 0 19059
0.13250000 0.13249300 12374.23085861 0 316.07997757 0 3401.16419293 0 -467.49132603 0 115.67743540 0 18957
0.13350000 0.13349100 12161.23999626 0 142.96640906 0 3469.07082063 0 -317.38824017 0 116.24753471 0 19468
0.13450000 0.13450700 11925.95045156 0 205.57188203 0 3446.48653940 0 378.43610074 0 -418.71433148 0 19953
0.13550000 0.13551000 11789.19252293 0 81.17335508 0 3363.72876958 0 13.37887987 0 107.61684619 0 19956
0.13650000 0.13649900 11543.46763428 0 10.59475207 0 3572.38072576 0 284.96837265 0 280.84915793 0 19723
0.13750000 0.13749600 11800.72632414 0 123.00744068 0 3634.67423687 0 257.42565536 0 444.56871997 0 20946
0.13850000 0.13851100 11438.89450331 0 337.10005566 0 3549.49986107 0 -463.06124791 0 271.12341737 0 20955
0.13950000 0.13949800 11062.78273812 0 176.77912038 0 4377.83549486 0 -531.23589918 0 456.81761685 0 20506
0.14050000 0.14048300 10956.00170806 0 -5.95735112 0 3965.07919554 0 431.81453275 0 612.84358426 0 21447
0.14150000 0.14148400 11043.88927328 0 -101.74866783 0 3990.99180226 0 294.53483691 0 692.41802495 0 21771
0.14250000 0.14249400 11117.37606385 0 198.63732136 0 3983.58820034 0 279.24980416 0 502.64195829 0 22470
0.14350000 0.14350900 10935.06511272 0 121.95182326 0 3687.69676872 0 -350.35294248 0 523.77188211 0 22519
0.14450000 0.14449900 10680.28893627 0 102.27900299 0 3993.99059058 0 105.49682368 0 478.00685736 0 22218
0.14550000 0.14550500 10503.58011715 0 199.90713795 0 3911.88091053 0 31.53736696 0 223.87437687 0 23559
0.14650000 0.14650700 10712.93508598 0 50.60900156 0 3779.79142524 0 112.62042885 0 235.28185549 0 23044
0.14750000 0.14750500 10301.65071939 0 -53.42324906 0 3785.31666525 0 297.08545466 0 363.01705621 0 23649
0.14850000 0.14849900 10283.65798950 0 180.10964279 0 3408.04053537 0 106.05923380 0 28.09952527 0 23640
0.14950000 0.14949500 10270.88293159 0 74.48484883 0 3486.22872300 0 -37.84613653 0 38.93240091 0 24457
0.15050000 0.15050000 10096.00853609 0 158.71389231 0 3468.12614739 0 -50.33043280 0 -68.33118143 0 24591
0.15150000 0.15149900 9765.76834601 0 157.48142327 0 3465.18228194 0 343.26240088 0 314.63440782 0 25020
0.15250000 0.15250500 9735.37403368 0 7.74072944 0 3341.55091753 0 112.74016069 0 537.52127161 0 25297
0.15350000 0.15350100 9743.70033969 0 30.10344085 0 2994.43842396 0 520.37655073 0 392.74790036 0 25452
0.15450000 0.15450400 9886.10433864 0 21.14497268 0 2776.43859652 0 346.87193143 0 342.91968222 0 26061
0.15550000 0.15549900 9441.85526973 0 133.27911450 0 2856.51613063 0 -134.23367386 0 961.30498334 0 26128
0.15650000 0.15649500 9447.36952516 0 249.95944137 0 3024.40433797 0 68.47354149 0 902.53532312 0 26331
0.15750000 0.15749700 9139.16438768 0 60.37549489 0 3017.56094925 0 -192.63864627 0 1151.33699054 0 27345
0.15850000 0.15849900 9134.12246886 0 19.20839254 0 3081.52411539 0 107.23194677 0 280.95460983 0 26980
0.15950000 0.15949700 9011.45774685 0 249.91550308 0 2892.69931272 0 112.97523054 0 556.02588258 0 27777
0.16050000 0.16050000 8815.43804913 0 106.58330776 0 2970.81060834 0 -239.70753978 0 320.67921811 0 28224
0.16150000 0.16150500 8535.93559980 0 193.23401011 0 3053.37065586 0 29.34913025 0 555.67547472 0 28075
0.16250000 0.16249700 8664.51002187 0 -32.02936596 0 2799.50619894 0 308.53906849 0 196.18776167 0 28590
0.16350000 0.16349900 8357.26054219 0 41.14227722 0 2593.73220077 0 216.46088883 0 185.25921041 0 29163
0.16450000 0.16449100 8475.71817291 0 74.22550308 0 2443.80376961 0 77.30799383 0 329.18676957 0 28996
0.16550000 0.16550500 8216.26256854 0 94.78203220 0 2430.43554478 0 -43.16113182 0 245.22618905 0 30777
0.16650000 0.16650700 8163.26200583 0 183.64447824 0 2612.51581988 0 -13.84231898 0 330.72241282 0 29211
0.16750000 0.16749900 8185.25312014 0 17.98668837 0 2460.02798331 0 -78.47686220 0 86.16320702 0 30922
0.16850000 0.16850800 8025.54841938 0 118.52573507 0 2792.82757881 0 -19.75377656 0 240.01400936 0 30867
0.16950000 0.16949900 7903.25717283 0 47.31890238 0 2493.00367020 0 74.32304608 0 15.86886278 0 30852
0.17050000 0.17049200 8019.97924108 0 -83.46286954 0 2778.21809727 0 272.75572485 0 456.73633102 0 31257
0.17150000 0.17149500 8069.71738573 0 2.98272887 0 2266.23815383 0 238.92324130 0 159.25213637 0 32608
0.17250000 0.17250900 8038.15870870 0 30.77514746 0 2398.71209916 0 -197.86949974 0 401.58828437 0 32361
0.17350000 0.17350400 7915.88943130 0 169.37881383 0 2323.33596211 0 15.77428561 0 198.61425376 0 32508
0.17450000 0.17449800 7804.61571105 0 76.03916585 0 2563.18410442 0 -234.49096627 0 90.26429719 0 32791
0.17550000 0.17549800 7535.08725362 0 239.39228255 0 2774.84583349 0 -309.77483291 0 28.84394976 0 33633
0.17650000 0.17650100 7447.05688896 0 245.75125162 0 2879.35305703 0 -118.89811208 0 -289.38307237 0 33984
0.17750000 0.17750300 7346.02079035 0 -83.17760019 0 2846.68493817 0 357.79499041 0 18.50329282 0 34069
0.17850000 0.17849800 7345.02119425 0 -89.84259945 0 2613.65821543 0 545.79595014 0 68.65544601 0 34536
