### header ###
fiducial parameters:
Omega_m = 0.31
Omega_nu = 0
Omega_de = 0.69
Omega_k = 0
H_0 = 100
w_de = -1
zeff = 0
beta = 0
fgrowth = 0
b_1 = 2
gamma = 0.55
Lx = 3500 Ly = 3500 Lz = 3500
nx = 700 ny = 700 nz = 700
xoffset = -983.599254 yoffset = -42.9823471 zoffset = 800.977702
bins = 400 dk = 0.001
kx_ny = 0.628318531 ky_ny = 0.628318531 kz_ny = 0.628318531
############################
A(data) = 9.13703765 (not used)
A(ran) = 9.1346968 (used)
Ngal = 507075
weighted Ngal = 0
Nran = 25229228
weighted Nran = 0
SN(data) = 6716.47567
SN(ran) = 135.598281
SN(data+ran) = 6852.07395
############################
13 columns: k_central k_mean P_0(k) sigma^{lin}_{P_0(k)} P^img_1(k) sigma^{lin}_{P_1(k)} P_2(k) sigma^{lin}_{P_2(k)} P^img_3(k) sigma^{lin}_{P_3(k)} P_4(k) sigma^{lin}_{P_4(k)} N_modes
### header ###
0.00050000 0 0 0 0 0 0 0 0 0 0 0 0
0.00150000 0.00179520 98862.25168935 0 -36240.30186037 0 -30368.49858701 0 -9302.62581226 0 -137794.87228940 0 3
0.00250000 0.00253879 109392.61219445 0 20677.79881002 0 17670.33268298 0 -16330.32467378 0 125563.55072008 0 6
0.00350000 0.00331552 63640.32955300 0 40078.53121174 0 29371.97816243 0 -60489.40490804 0 88895.28991194 0 7
0.00450000 0.00420575 39821.60205906 0 8200.31296915 0 20373.63599525 0 22795.62440371 0 6185.54463543 0 24
0.00550000 0.00557378 48452.40042768 0 -719.02265974 0 34208.04608709 0 13658.98646772 0 -22978.84707436 0 45
0.00650000 0.00659388 48755.13524802 0 734.85252729 0 11355.96098032 0 -2037.37458410 0 19020.00711605 0 40
0.00750000 0.00754703 58333.35300177 0 -13771.68818241 0 13667.66428006 0 -11049.16186812 0 -35187.86996135 0 57
0.00850000 0.00846663 62096.77741387 0 6174.50513998 0 39219.53763588 0 -30123.65246417 0 -17895.73611235 0 75
0.00950000 0.00948925 50020.99739229 0 10435.03638424 0 30782.17759042 0 2715.78178672 0 -6595.84039048 0 112
0.01050000 0.01054430 54101.10703191 0 -4689.64357215 0 39748.66449712 0 10072.76518051 0 -14577.07704407 0 105
0.01150000 0.01145670 60755.67094741 0 1267.39998444 0 47379.42737793 0 13533.54264884 0 -8704.91127982 0 144
0.01250000 0.01249090 59915.79052784 0 -4044.83817706 0 28892.72126071 0 26147.45688118 0 14978.23363474 0 169
0.01350000 0.01339930 64698.25373831 0 -7966.79194064 0 23238.52237019 0 6996.35987594 0 1590.26952632 0 180
0.01450000 0.01448870 72186.87624991 0 -4966.75138466 0 10322.43353071 0 18948.05816564 0 12300.63422231 0 267
0.01550000 0.01550050 78679.96694847 0 3378.83255688 0 7437.48932624 0 2827.80245791 0 27765.26473096 0 238
0.01650000 0.01653350 71278.34225171 0 3576.11548044 0 10525.61516975 0 -13436.43902722 0 20248.63155927 0 315
0.01750000 0.01747870 71508.02966438 0 6648.02809482 0 12863.26402993 0 6966.76743741 0 18890.49900531 0 297
0.01850000 0.01844180 70704.17864288 0 1300.55142449 0 29882.32140456 0 -14322.23496018 0 -13421.60985424 0 388
0.01950000 0.01947590 65497.16170215 0 -3472.31126954 0 27228.33882318 0 -1525.37267151 0 -897.84161525 0 399
0.02050000 0.02045430 70605.75687255 0 -927.03751072 0 30821.61220599 0 735.23698733 0 -11777.43903026 0 462
0.02150000 0.02154770 68038.55241457 0 4088.53480678 0 29797.63034996 0 -7029.22571711 0 -15504.06512421 0 571
0.02250000 0.02255340 69337.14858513 0 2219.38895177 0 30679.47183679 0 1596.44285611 0 -6560.43711305 0 510
0.02350000 0.02348930 72987.76143682 0 -2821.77192756 0 33752.62570787 0 11750.96621034 0 -22820.77907492 0 555
0.02450000 0.02439640 67777.99835294 0 -630.68802242 0 29343.08873654 0 2145.71542347 0 -9143.05292637 0 592
0.02550000 0.02547300 66252.79045002 0 2054.22491844 0 24861.82250626 0 2342.05367379 0 -4225.60030345 0 837
0.02650000 0.02652900 69071.10223721 0 -200.96165692 0 29452.82461663 0 8662.71953653 0 -2001.78456893 0 723
0.02750000 0.02749970 64954.52381663 0 327.08761775 0 19682.92607133 0 230.37175155 0 -391.62637550 0 826
0.02850000 0.02848090 66871.44157780 0 3202.81576583 0 24960.57381376 0 5803.18264844 0 416.05936029 0 831
0.02950000 0.02946900 62706.64088358 0 3958.32368340 0 24972.65684360 0 -5192.30859805 0 7035.46495433 0 996
0.03050000 0.03053250 57194.25282509 0 1872.95750170 0 27906.19679718 0 2540.59982319 0 1023.51391324 0 1041
0.03150000 0.03150510 59160.27162570 0 1374.25790651 0 30203.40046111 0 -3284.44212468 0 3501.94764637 0 1036
0.03250000 0.03246190 55682.99532935 0 -1599.46361357 0 24740.66267069 0 6446.34035765 0 -2697.90988713 0 1059
0.03350000 0.03345080 55633.45490700 0 -121.00055927 0 27294.13641294 0 1410.71570290 0 2243.59894974 0 1302
0.03450000 0.03451200 53705.88211043 0 2237.91992571 0 24277.88262783 0 1565.58719173 0 2985.94734936 0 1339
0.03550000 0.03553350 53730.48755301 0 962.76702995 0 22030.76861487 0 3584.60655504 0 2991.42865108 0 1365
0.03650000 0.03647120 53215.09140749 0 3233.83619880 0 25500.24586469 0 875.42210261 0 -5543.22175373 0 1308
0.03750000 0.03744890 50580.88105676 0 2239.96305621 0 21116.85217610 0 651.28080063 0 291.05162894 0 1579
0.03850000 0.03847530 48248.63660629 0 -954.60329561 0 20335.29983694 0 354.22280740 0 -2499.41866059 0 1662
0.03950000 0.03950240 49144.31865457 0 -2331.67325270 0 15514.39062244 0 7194.36778130 0 -4653.73500438 0 1683
0.04050000 0.04050350 48073.32282789 0 -377.50570745 0 13167.97607334 0 -1005.85401590 0 -7769.62984738 0 1822
0.04150000 0.04152450 47493.00785842 0 4753.39803141 0 13088.00838494 0 -4919.55067628 0 -8988.47802101 0 1887
0.04250000 0.04250150 45616.62317008 0 2937.87885974 0 17848.06306734 0 -2609.49506242 0 -6674.74257534 0 1920
0.04350000 0.04349210 43614.90450858 0 -1958.00006262 0 16736.64401356 0 3498.23486084 0 -10275.10100746 0 2005
0.04450000 0.04448520 45100.56795020 0 -1079.63189764 0 17574.54721007 0 801.43221862 0 -9963.63345192 0 2151
0.04550000 0.04548030 42048.06507558 0 603.50889448 0 12800.76181194 0 132.88586680 0 -11076.18391667 0 2274
0.04650000 0.04648670 42806.87934949 0 1509.75260930 0 16658.65354824 0 1857.07380975 0 -5554.60177093 0 2311
0.04750000 0.04749250 40877.32932986 0 445.86929336 0 16229.70598893 0 2179.98728992 0 -769.06507705 0 2568
0.04850000 0.04851840 43429.48492341 0 301.23322927 0 12876.55536275 0 3508.48346705 0 -4863.06800407 0 2493
0.04950000 0.04949480 42263.47254390 0 76.81632436 0 14014.00785355 0 -42.61706594 0 -2888.29449911 0 2644
0.05050000 0.05050630 40843.38700058 0 147.01751943 0 11895.30349406 0 -713.94339338 0 424.16487640 0 2829
0.05150000 0.05149060 40497.81234717 0 1610.76673876 0 16079.10749884 0 -1907.03164585 0 -1154.57743945 0 2784
0.05250000 0.05249300 37282.73779834 0 2569.47826451 0 16173.35513159 0 -726.00225716 0 1170.34030111 0 3055
0.05350000 0.05348950 36080.91571221 0 892.92821594 0 14800.06386747 0 3038.29982228 0 3886.85805419 0 3009
0.05450000 0.05448610 35767.85539364 0 -950.44124106 0 16610.43127460 0 3590.17573334 0 1737.51772177 0 3336
0.05550000 0.05550870 37154.65768204 0 138.07607735 0 15929.05823738 0 218.48534556 0 1477.28221275 0 3349
0.05650000 0.05647670 35727.54201227 0 1286.18360355 0 14404.50940882 0 -821.15831406 0 2370.89916138 0 3324
0.05750000 0.05747970 34768.58882592 0 50.06910982 0 16032.75260255 0 -1580.29553441 0 4950.17566464 0 3639
0.05850000 0.05849280 34355.01966823 0 654.57507395 0 16432.26150733 0 1027.72320145 0 2813.64334385 0 3846
0.05950000 0.05951020 35868.47407849 0 -120.78196628 0 15986.50755198 0 2998.51370039 0 -201.26373266 0 3787
0.06050000 0.06049470 34716.85148906 0 -119.16284028 0 15444.08935792 0 -6.50611840 0 3507.25319492 0 3930
0.06150000 0.06148310 33164.62153759 0 979.49433708 0 14429.00500568 0 31.75881594 0 719.28848640 0 4083
0.06250000 0.06249100 33385.74098365 0 790.62669457 0 15087.42028620 0 848.52637665 0 2743.86933881 0 4303
0.06350000 0.06350600 32735.45428684 0 -224.05672077 0 12474.30031482 0 1778.24851690 0 1687.83449999 0 4470
0.06450000 0.06451750 32074.62240034 0 701.45503281 0 12103.68083593 0 1517.50771754 0 -729.54917565 0 4479
0.06550000 0.06550280 31025.37602737 0 516.92629648 0 10695.55749216 0 1655.64970232 0 3246.78700988 0 4636
0.06650000 0.06648880 30735.16361978 0 86.59468103 0 9032.21858903 0 522.06378107 0 356.02537576 0 4653
0.06750000 0.06749660 29927.13846069 0 29.44184004 0 8090.23656731 0 1074.23517714 0 947.50067098 0 5220
0.06850000 0.06852730 28794.95856473 0 894.44957924 0 7451.37382598 0 834.11571588 0 111.42311044 0 5029
0.06950000 0.06949320 28602.06947020 0 77.60073269 0 7093.50743585 0 -775.85793674 0 1569.68443730 0 5040
0.07050000 0.07048030 28663.36338521 0 154.80228602 0 6763.33315320 0 742.42858700 0 1138.16648802 0 5475
0.07150000 0.07148790 27978.14574758 0 -97.03189236 0 6395.81132378 0 1443.33988347 0 506.59530596 0 5509
0.07250000 0.07249820 28367.87838277 0 312.21340802 0 6391.61521705 0 -720.14857843 0 296.60762576 0 5916
0.07350000 0.07351270 28182.89818050 0 485.31159813 0 7932.89354966 0 -757.44010389 0 -275.66443967 0 5721
0.07450000 0.07449140 26972.06874486 0 871.22379897 0 8018.47435464 0 -1208.63252113 0 -648.10625916 0 6028
0.07550000 0.07549160 27532.28194651 0 363.73874263 0 9065.94122685 0 -1105.09193997 0 -1228.09718374 0 6183
0.07650000 0.07648840 25644.91268558 0 624.39386233 0 10616.98484448 0 -668.72540035 0 -330.26984843 0 6330
0.07750000 0.07749960 25818.79846954 0 171.28353872 0 9920.98035658 0 742.80316092 0 -135.86158752 0 6583
0.07850000 0.07848650 24998.58043490 0 -0.92799866 0 9115.54755663 0 3159.38276585 0 1034.79177391 0 6549
0.07950000 0.07947320 25317.02319403 0 700.15885325 0 8990.20259890 0 1112.42963446 0 1495.65940268 0 6828
0.08050000 0.08048110 24879.28797666 0 582.72278778 0 8365.72964765 0 -1204.94170474 0 2144.38629018 0 7147
0.08150000 0.08149960 23244.23434793 0 332.14052114 0 9169.31703941 0 1654.60616793 0 3432.79976197 0 7386
0.08250000 0.08250610 23312.88792656 0 184.94285472 0 8903.62219782 0 -115.69720763 0 2892.12811494 0 7227
0.08350000 0.08350160 22846.48297476 0 79.59586061 0 8281.23631536 0 473.98870071 0 3278.07107259 0 7798
0.08450000 0.08449610 22356.46119190 0 455.82680841 0 7526.93670077 0 887.36233301 0 2639.61476044 0 7371
0.08550000 0.08548940 22531.00605022 0 286.51609893 0 7883.62774163 0 -808.15917087 0 2049.95191970 0 8256
0.08650000 0.08650700 21151.23388828 0 870.17367383 0 7614.51669796 0 -28.30768293 0 2262.42650714 0 8037
0.08750000 0.08749060 20684.71909075 0 251.28088546 0 8357.17266561 0 369.99555517 0 1337.55844951 0 8155
0.08850000 0.08849210 19943.48013296 0 389.87653309 0 7156.82251221 0 518.61901911 0 1746.81067018 0 8718
0.08950000 0.08949900 19968.52495845 0 477.74212917 0 7580.57436868 0 526.49056382 0 334.11335038 0 8571
0.09050000 0.09049190 18909.17277870 0 197.58939314 0 7010.94738833 0 194.32587662 0 2720.42826092 0 8932
0.09150000 0.09150830 19383.59646849 0 -439.30820816 0 5988.73404849 0 1261.10582435 0 1719.43711530 0 9285
0.09250000 0.09250820 19180.60156719 0 -132.93090355 0 5601.61574157 0 675.55011530 0 788.37815256 0 9204
0.09350000 0.09350330 19227.94507501 0 557.21001950 0 5421.66647355 0 -301.49685901 0 1172.99856767 0 9349
0.09450000 0.09448040 18823.82264974 0 437.66052227 0 5368.08372849 0 -384.08217105 0 1655.19933485 0 9564
0.09550000 0.09549270 18117.18509559 0 164.50386052 0 6383.56352535 0 22.96687389 0 1298.89275403 0 10155
0.09650000 0.09649430 17768.31507040 0 231.75910306 0 5569.96918797 0 119.33859344 0 725.34208435 0 9913
0.09750000 0.09749140 17890.79305469 0 549.72952558 0 5917.78469418 0 352.42573133 0 1506.80874385 0 10476
0.09850000 0.09850240 17225.45749343 0 164.00625938 0 5711.87888115 0 -72.62274409 0 1382.23270620 0 10575
0.09950000 0.09950330 16567.04221291 0 415.89459170 0 6283.14256281 0 193.84914617 0 1310.96479929 0 10882
0.10050000 0.10051200 16310.00321450 0 221.44568787 0 5919.63010238 0 -77.27053644 0 1941.75387978 0 10875
0.10150000 0.10150300 16398.31917806 0 -87.67105930 0 5283.78811851 0 1120.48132616 0 1186.57549938 0 11118
0.10250000 0.10250800 16332.08220539 0 -294.67104561 0 5302.54976847 0 1071.75266373 0 1406.76125677 0 11575
0.10350000 0.10349800 16052.74452465 0 356.86899094 0 4498.98434586 0 -508.96248136 0 1685.90121521 0 11364
0.10450000 0.10450100 15591.50232196 0 534.11275874 0 5116.89950728 0 -502.38711621 0 1298.69503172 0 12093
0.10550000 0.10551000 15380.92806557 0 172.48085713 0 5345.15892552 0 177.30637986 0 1551.68072284 0 12067
0.10650000 0.10649700 15291.73333621 0 26.30640365 0 5354.92421054 0 80.18672077 0 628.68883021 0 12054
0.10750000 0.10749900 15053.47795692 0 65.45014773 0 4778.73944036 0 58.86940014 0 907.29054459 0 12807
0.10850000 0.10850100 15180.78915314 0 77.26943798 0 4794.94168492 0 97.06231963 0 1156.34595564 0 12736
0.10950000 0.10950300 14987.24098426 0 -93.31767883 0 4155.84826756 0 1163.93629529 0 1071.78232208 0 12933
0.11050000 0.11050200 15086.98090330 0 22.46993183 0 4664.45594722 0 -83.87621901 0 710.00762103 0 13428
0.11150000 0.11150900 14818.73764086 0 280.48007629 0 3746.04681827 0 118.86076453 0 558.97853569 0 13453
0.11250000 0.11250000 14741.62594134 0 232.40060210 0 4187.51679031 0 140.20049368 0 1085.40648745 0 13668
0.11350000 0.11349100 14536.21443407 0 153.21501528 0 3958.11497653 0 -533.86890123 0 403.97303508 0 13791
0.11450000 0.11448600 14112.97885251 0 281.10070464 0 4568.64850517 0 271.24424767 0 597.71233553 0 14205
0.11550000 0.11549300 14148.78855912 0 -170.77385455 0 4209.39805890 0 -59.35261149 0 311.31706690 0 14776
0.11650000 0.11649800 13953.26316718 0 64.71956381 0 3685.46690048 0 319.77738470 0 292.16656306 0 14553
0.11750000 0.11747300 14122.86496783 0 105.09753447 0 3869.87590498 0 451.17044809 0 465.87879078 0 14568
0.11850000 0.11849100 13991.48947976 0 5.17495297 0 3533.22072451 0 -402.78889816 0 202.28310100 0 16015
0.11950000 0.11950300 14136.59568356 0 220.43730411 0 3602.92882211 0 427.07908351 0 424.90194122 0 15270
0.12050000 0.12050700 13827.37996539 0 -44.62900025 0 3846.44581166 0 -169.34146629 0 571.66352011 0 15999
0.12150000 0.12150000 13683.70175603 0 170.28284416 0 4081.07628200 0 67.46504788 0 577.97635397 0 15670
0.12250000 0.12250700 13461.04446981 0 409.17862403 0 4316.37681127 0 -369.57923987 0 514.00330171 0 16887
0.12350000 0.12352200 13417.54556238 0 160.16385589 0 4495.06285345 0 -347.41566777 0 861.56835967 0 16407
0.12450000 0.12449800 12989.03738599 0 241.58590170 0 5402.75103956 0 -51.66472883 0 173.42443191 0 16306
0.12550000 0.12549900 12890.17623275 0 257.16532099 0 5162.46351434 0 -143.52112998 0 537.73107695 0 17523
0.12650000 0.12650100 12581.50974322 0 -124.61118828 0 5110.58337804 0 411.82370910 0 721.99728200 0 17154
0.12750000 0.12750600 12844.15087364 0 -93.63568221 0 5016.85202021 0 640.18528387 0 849.51279127 0 18007
0.12850000 0.12850300 12728.92270726 0 28.42093387 0 4491.16333018 0 396.62325757 0 674.26272339 0 17496
0.12950000 0.12949900 12761.54688783 0 322.71685632 0 4854.23640771 0 -220.12863762 0 752.07414018 0 18405
0.13050000 0.13049000 12508.79187273 0 -5.30741593 0 4043.06966087 0 99.67467068 0 532.24208603 0 18100
0.13150000 0.13148800 12697.50682968 0 4.10014550 0 4391.30258084 0 331.51659742 0 452.86866301 0 19059
0.13250000 0.13249300 12463.64527942 0 58.11344186 0 4265.60611680 0 -83.36071302 0 31.12489625 0 18957
0.13350000 0.13349100 12291.73671852 0 166.01423925 0 4015.59724484 0 -317.00048475 0 -267.59736957 0 19468
0.13450000 0.13450700 12050.95488754 0 320.87803887 0 4266.14436085 0 -115.79057649 0 -847.32686132 0 19953
0.13550000 0.13551000 11851.69474091 0 122.45931051 0 4348.61653179 0 -217.80210514 0 -676.28168783 0 19956
0.13650000 0.13649900 11596.19358267 0 14.20151451 0 4489.42776771 0 448.90652768 0 -355.96276370 0 19723
0.13750000 0.13749600 11813.24873688 0 -120.05918140 0 3907.97040269 0 582.86009494 0 -138.07717580 0 20946
0.13850000 0.13851100 11669.24099034 0 -2.76760700 0 3652.12872270 0 214.97028233 0 -293.85379341 0 20955
0.13950000 0.13949800 11993.50557294 0 323.21006363 0 3894.75596188 0 -45.26775314 0 -225.32983273 0 20506
0.14050000 0.14048300 11623.43532267 0 131.89176298 0 3714.54306411 0 -321.21306834 0 100.26937544 0 21447
0.14150000 0.14148400 11486.67739404 0 38.31407932 0 4137.21843246 0 109.98083606 0 163.27798222 0 21771
0.14250000 0.14249400 11314.98852459 0 97.50686528 0 4259.81724704 0 -38.72775832 0 183.97072005 0 22470
0.14350000 0.14350900 11364.96832984 0 66.50719315 0 3972.98808780 0 48.69208380 0 -364.09244587 0 22519
0.14450000 0.14449900 11260.06566168 0 175.35222440 0 4313.71854470 0 -122.80093072 0 -438.86992371 0 22218
0.14550000 0.14550500 10811.86214665 0 267.30737685 0 4324.82394758 0 58.67024984 0 277.70097943 0 23559
0.14650000 0.14650700 10793.77055561 0 20.04926157 0 4519.76715718 0 -55.98792706 0 -163.93266275 0 23044
0.14750000 0.14750500 10498.02192343 0 144.64265484 0 4045.39839026 0 230.57496614 0 -610.29516342 0 23649
0.14850000 0.14849900 10437.42003649 0 107.78139509 0 4105.70369373 0 211.62767689 0 -442.45418975 0 23640
0.14950000 0.14949500 10304.28701681 0 106.29957625 0 3662.16862204 0 150.25137760 0 -172.05026188 0 24457
0.15050000 0.15050000 10135.27838307 0 247.26822109 0 3656.47861344 0 345.93055356 0 -186.76080149 0 24591
0.15150000 0.15149900 9792.95516315 0 159.38395124 0 3437.28146758 0 265.87498859 0 334.36929092 0 25020
0.15250000 0.15250500 9880.67795978 0 -52.75747411 0 3226.70721120 0 249.66505483 0 85.16536845 0 25297
0.15350000 0.15350100 9570.62741410 0 121.74311638 0 3177.35352659 0 255.56047493 0 316.84120845 0 25452
0.15450000 0.15450400 9285.62169390 0 120.86325211 0 3079.54689232 0 106.61911746 0 603.42651018 0 26061
0.15550000 0.15549900 9344.37817264 0 55.49263269 0 2895.91779248 0 147.43713010 0 747.93075941 0 26128
0.15650000 0.15649500 9257.16066635 0 49.91235997 0 2948.41306485 0 216.18627452 0 382.01926832 0 26331
0.15750000 0.15749700 9295.28811778 0 143.54749295 0 2840.30290150 0 -33.99549461 0 347.62217774 0 27345
0.15850000 0.15849900 9017.60910749 0 175.15340364 0 2711.10235880 0 -212.27576668 0 408.89302514 0 26980
0.15950000 0.15949700 8836.82501195 0 -22.90492090 0 2635.42963829 0 8.56652763 0 330.86081844 0 27777
0.16050000 0.16050000 8978.91045829 0 59.32635836 0 2854.78056817 0 169.80391679 0 -177.76443654 0 28224
0.16150000 0.16150500 8817.50314878 0 105.14806350 0 2582.16544584 0 5.40068594 0 72.11404853 0 28075
0.16250000 0.16249700 8659.39121104 0 156.68943559 0 2650.45653358 0 -169.21184833 0 39.74438051 0 28590
0.16350000 0.16349900 8506.39808413 0 67.60312396 0 2509.35969877 0 75.93799794 0 -127.69895163 0 29163
0.16450000 0.16449100 8541.19721007 0 7.37477840 0 2481.97515933 0 512.00410950 0 382.60474604 0 28996
0.16550000 0.16550500 8503.04778949 0 58.04863288 0 2481.97515933 0 210.86095373 0 202.79608054 0 30777
0.16650000 0.16650700 8432.58175638 0 124.18169149 0 2341.19687712 0 -91.10187085 0 448.27052093 0 29211
0.16750000 0.16749900 8218.80000480 0 103.32253739 0 2529.49442031 0 -38.76389757 0 199.40074915 0 30922
0.16850000 0.16850800 8188.98787482 0 130.26604624 0 2768.73841114 0 -161.31503910 0 179.90642819 0 30867
0.16950000 0.16949900 7997.40594443 0 -2.18322774 0 2514.48949417 0 -96.29900168 0 109.89735330 0 30852
0.17050000 0.17049200 8133.60365986 0 25.44532300 0 2480.49224203 0 137.25662823 0 -79.65484777 0 31257
0.17150000 0.17149500 7995.68136653 0 14.94637837 0 2207.21804535 0 223.99301025 0 199.43480133 0 32608
0.17250000 0.17250900 7987.82739714 0 138.55830008 0 2338.84617859 0 374.41464872 0 94.31101373 0 32361
0.17350000 0.17350400 7954.90663311 0 -96.11731685 0 1832.19375285 0 34.37731835 0 305.80940221 0 32508
0.17450000 0.17449800 7972.80050185 0 86.18253987 0 2132.01766146 0 199.78301228 0 -131.69184376 0 32791
0.17550000 0.17549800 7837.73419739 0 159.31914226 0 1895.99215040 0 -144.44053870 0 598.76136221 0 33633
0.17650000 0.17650100 7696.98886890 0 60.28641001 0 1988.52618983 0 54.12461402 0 358.33213601 0 33984
0.17750000 0.17750300 7548.94978422 0 96.79165976 0 2191.36730712 0 -65.81681276 0 571.04069484 0 34069
0.17850000 0.17849800 7649.64536107 0 32.87188268 0 2023.07267060 0 101.53578681 0 92.99583086 0 34536
