### header ###
fiducial parameters:
Omega_m = 0.31
Omega_nu = 0
Omega_de = 0.69
Omega_k = 0
H_0 = 100
w_de = -1
zeff = 0
beta = 0
fgrowth = 0
b_1 = 2
gamma = 0.55
Lx = 3500 Ly = 3500 Lz = 3500
nx = 700 ny = 700 nz = 700
xoffset = -983.599254 yoffset = -42.9823471 zoffset = 800.977702
bins = 400 dk = 0.001
kx_ny = 0.628318531 ky_ny = 0.628318531 kz_ny = 0.628318531
############################
A(data) = 9.0498374 (not used)
A(ran) = 9.02688967 (used)
Ngal = 501884
weighted Ngal = 0
Nran = 25229228
weighted Nran = 0
SN(data) = 6750.13419
SN(ran) = 133.997958
SN(data+ran) = 6884.13215
############################
13 columns: k_central k_mean P_0(k) sigma^{lin}_{P_0(k)} P^img_1(k) sigma^{lin}_{P_1(k)} P_2(k) sigma^{lin}_{P_2(k)} P^img_3(k) sigma^{lin}_{P_3(k)} P_4(k) sigma^{lin}_{P_4(k)} N_modes
### header ###
0.00050000 0 0 0 0 0 0 0 0 0 0 0 0
0.00150000 0.00179520 17615.08028289 0 -7665.30936158 0 7213.57979874 0 -41870.00515403 0 15283.71459823 0 3
0.00250000 0.00253879 46210.55900955 0 -32093.51586518 0 -6243.22462605 0 -43675.20981205 0 -81851.98197278 0 6
0.00350000 0.00331552 63972.06364495 0 -37787.36906272 0 -41292.65601916 0 -18033.48265252 0 5280.66849989 0 7
0.00450000 0.00420575 79038.94278043 0 -917.50400017 0 -23659.45119150 0 -25285.05808782 0 30261.50885007 0 24
0.00550000 0.00557378 77906.76288447 0 9034.73405615 0 20168.00479652 0 -47502.67428229 0 6693.28453385 0 45
0.00650000 0.00659388 67103.54559644 0 9985.08632217 0 15719.03320963 0 19994.77808692 0 -8748.99236959 0 40
0.00750000 0.00754703 69808.60644032 0 10837.15961730 0 60350.99929351 0 19519.03624842 0 -6720.65808873 0 57
0.00850000 0.00846663 53263.64321830 0 1554.51474257 0 38543.21750205 0 -898.43148680 0 29192.38040073 0 75
0.00950000 0.00948925 57821.36207376 0 -2827.93427278 0 50293.52463803 0 24581.49621398 0 5571.06764523 0 112
0.01050000 0.01054430 59707.74272315 0 -1654.47435306 0 24085.43291621 0 10726.38020282 0 8834.41939055 0 105
0.01150000 0.01145670 72297.49089580 0 -903.84907800 0 42794.13724530 0 2208.29453346 0 279.82210039 0 144
0.01250000 0.01249090 80849.63972473 0 -1046.38049798 0 38205.55174090 0 -6321.41281368 0 -3264.05475797 0 169
0.01350000 0.01339930 71562.73283584 0 2135.15924922 0 40582.06401887 0 -4674.29812426 0 -18189.35373745 0 180
0.01450000 0.01448870 69917.02417170 0 5057.29721645 0 48366.06168719 0 -752.94741370 0 -3192.73192820 0 267
0.01550000 0.01550050 73051.47195779 0 3244.08480502 0 50734.66507290 0 2562.81062895 0 312.67366161 0 238
0.01650000 0.01653350 68454.75786967 0 376.15240810 0 42486.56921302 0 24088.94797943 0 -485.59719702 0 315
0.01750000 0.01747870 71102.03986178 0 -5914.14880066 0 42081.23848477 0 17348.59455207 0 1140.79180086 0 297
0.01850000 0.01844180 82472.93986081 0 -3754.29623228 0 33020.72363678 0 1643.23713531 0 -9090.16220939 0 388
0.01950000 0.01947590 78584.95039564 0 5393.15052312 0 26586.62009298 0 2152.37207445 0 19325.48807953 0 399
0.02050000 0.02045430 71333.04542316 0 -2472.81402579 0 18785.04710853 0 9372.97101507 0 22977.52892565 0 462
0.02150000 0.02154770 79091.33919164 0 -3423.78142788 0 15705.30249390 0 18777.79729063 0 19049.55561629 0 571
0.02250000 0.02255340 83751.98349218 0 -672.76882152 0 9188.51807229 0 8404.77980318 0 5366.82050265 0 510
0.02350000 0.02348930 75362.07680027 0 6638.31773266 0 12352.48140490 0 -11986.03606358 0 12676.63614177 0 555
0.02450000 0.02439640 75528.05369198 0 7131.57996442 0 17613.76213418 0 -10400.74254864 0 14032.57178121 0 592
0.02550000 0.02547300 63923.18229697 0 -1538.43332831 0 21025.02114932 0 -9373.35547511 0 1004.01849382 0 837
0.02650000 0.02652900 65889.86017193 0 2217.01628409 0 20137.90706765 0 6500.75793022 0 -10509.78640066 0 723
0.02750000 0.02749970 62763.54096955 0 596.44691277 0 15149.70281274 0 5283.49153505 0 -1156.91715341 0 826
0.02850000 0.02848090 65089.63405938 0 1610.77772333 0 15283.05552387 0 2668.85569265 0 -14376.27905728 0 831
0.02950000 0.02946900 63454.80012210 0 3290.63742362 0 20032.01578797 0 -1107.31082363 0 -19686.11159738 0 996
0.03050000 0.03053250 59274.84071772 0 830.33702291 0 13099.21264898 0 -3259.40828377 0 -9464.13198292 0 1041
0.03150000 0.03150510 54929.89303317 0 402.97893126 0 14671.76405972 0 -687.00702450 0 -12181.78114698 0 1036
0.03250000 0.03246190 53500.03122025 0 1070.95518376 0 16872.85271357 0 1928.07808691 0 -14322.56449736 0 1059
0.03350000 0.03345080 53106.12444749 0 1845.57296225 0 8558.97024850 0 -495.27790083 0 -13542.98938126 0 1302
0.03450000 0.03451200 52923.56085119 0 1812.44349135 0 15943.77756464 0 4875.79912369 0 -11621.45809961 0 1339
0.03550000 0.03553350 52129.92548218 0 -1908.48160943 0 8056.22833060 0 1795.85678675 0 -1198.13126974 0 1365
0.03650000 0.03647120 52733.96712843 0 -1434.85979344 0 11999.65693359 0 822.12385799 0 -12615.67176395 0 1308
0.03750000 0.03744890 50199.38685101 0 4141.37060090 0 11719.00110413 0 -498.87644681 0 -2203.57116725 0 1579
0.03850000 0.03847530 49154.75399853 0 2350.14930378 0 15988.04539215 0 -1550.86786447 0 -44.71193377 0 1662
0.03950000 0.03950240 46178.70374906 0 1171.35088178 0 16489.82066766 0 -2729.99582364 0 856.81972895 0 1683
0.04050000 0.04050350 43859.09155706 0 1000.03658626 0 19355.14642550 0 3182.63710600 0 -876.32613294 0 1822
0.04150000 0.04152450 43184.74864629 0 1141.70352039 0 19653.48741681 0 -890.52149608 0 -645.78631743 0 1887
0.04250000 0.04250150 40883.04130760 0 1967.32596475 0 20491.17092187 0 1908.50357857 0 3215.59082374 0 1920
0.04350000 0.04349210 40491.44129507 0 728.73521882 0 19629.54104859 0 214.11019030 0 -492.15059302 0 2005
0.04450000 0.04448520 38849.24769416 0 102.46189612 0 17985.48007034 0 1613.33712874 0 3088.59818013 0 2151
0.04550000 0.04548030 38030.67734540 0 369.93843539 0 16058.78603957 0 2136.40050592 0 -298.21357027 0 2274
0.04650000 0.04648670 38902.63271691 0 -427.19112615 0 15448.59303268 0 4642.67353980 0 1479.25943581 0 2311
0.04750000 0.04749250 38357.79791687 0 -273.48619893 0 11673.52497365 0 3027.15048111 0 1905.54872855 0 2568
0.04850000 0.04851840 39298.62655847 0 421.15400505 0 10193.13412686 0 137.84979515 0 2330.84940975 0 2493
0.04950000 0.04949480 36715.71416169 0 1235.27010963 0 10615.26026659 0 -1554.94314090 0 4286.88323389 0 2644
0.05050000 0.05050630 36746.03158201 0 1029.80367950 0 11352.99514572 0 -1386.48373579 0 -3160.48122310 0 2829
0.05150000 0.05149060 33769.10256674 0 1464.16663308 0 14221.39658389 0 -1782.20296303 0 653.64907448 0 2784
0.05250000 0.05249300 32384.16765569 0 1794.73636035 0 17375.39690917 0 -2096.84506005 0 -606.61752852 0 3055
0.05350000 0.05348950 32946.24823467 0 -1231.28270979 0 13590.99196344 0 3415.90548934 0 676.72436610 0 3009
0.05450000 0.05448610 34198.37966322 0 -628.64708883 0 15690.58316664 0 2114.02493157 0 -2231.69167306 0 3336
0.05550000 0.05550870 33384.86221785 0 -367.16922465 0 9840.78199217 0 1169.83501077 0 -83.92092622 0 3349
0.05650000 0.05647670 34516.27319373 0 -481.26817696 0 12235.49570691 0 1715.72432977 0 272.76231560 0 3324
0.05750000 0.05747970 34470.13798888 0 1078.85418991 0 11930.23443487 0 -1511.10371173 0 -2200.98979270 0 3639
0.05850000 0.05849280 34686.42422301 0 1098.09916107 0 12494.62177410 0 -698.31234660 0 -941.39215017 0 3846
0.05950000 0.05951020 32115.81454752 0 -349.81250151 0 12712.33600266 0 -563.83261831 0 -902.88023870 0 3787
0.06050000 0.06049470 32786.31285789 0 707.74260216 0 13989.51225670 0 -1161.48673561 0 -4079.21988924 0 3930
0.06150000 0.06148310 31227.38231715 0 1787.73918761 0 15056.99302015 0 -1777.60042712 0 -4985.83158724 0 4083
0.06250000 0.06249100 30050.82474796 0 1196.01124723 0 17489.96600119 0 -657.38822299 0 -2586.89979662 0 4303
0.06350000 0.06350600 29519.28128075 0 -872.34202846 0 15550.52986623 0 3155.49422715 0 -2245.33451221 0 4470
0.06450000 0.06451750 30687.05119187 0 -480.30043612 0 14405.49802035 0 3473.20101992 0 -1570.74994084 0 4479
0.06550000 0.06550280 30020.28763618 0 612.00326446 0 14122.09604775 0 -381.59086999 0 -2508.96425416 0 4636
0.06650000 0.06648880 29874.85189520 0 1156.52170880 0 13078.23211535 0 147.15372813 0 -814.39401427 0 4653
0.06750000 0.06749660 28902.38768458 0 250.15167139 0 14436.58436076 0 -635.38173028 0 73.86564848 0 5220
0.06850000 0.06852730 28721.80131134 0 -83.22351571 0 15295.13855371 0 713.36340795 0 -262.08750796 0 5029
0.06950000 0.06949320 28750.80058296 0 -147.90836827 0 12634.78492024 0 167.18849006 0 -1705.79427616 0 5040
0.07050000 0.07048030 27976.05867879 0 -400.53376541 0 12323.37228756 0 2138.78415817 0 -207.17453117 0 5475
0.07150000 0.07148790 29039.58499612 0 477.28517095 0 11879.37586382 0 391.51982515 0 -1495.63743353 0 5509
0.07250000 0.07249820 28078.76443243 0 1159.20194451 0 11957.80571205 0 -1340.04096292 0 -1641.45763455 0 5916
0.07350000 0.07351270 27088.94459712 0 -79.35507878 0 11116.16776087 0 1411.56151499 0 -1470.40587031 0 5721
0.07450000 0.07449140 27628.72649377 0 -84.62492748 0 10963.53712485 0 2073.10739870 0 -1259.62290705 0 6028
0.07550000 0.07549160 27237.01663552 0 598.22201969 0 11410.00507742 0 -851.04733606 0 -2676.46800145 0 6183
0.07650000 0.07648840 25225.41185870 0 1350.45433772 0 10454.35824741 0 -593.23282683 0 -1597.80494311 0 6330
0.07750000 0.07749960 24790.64247593 0 4.24622933 0 10452.99616041 0 -160.88993614 0 -1226.54835901 0 6583
0.07850000 0.07848650 24167.70736484 0 450.38724807 0 11049.49140530 0 1862.73086463 0 -1823.84547769 0 6549
0.07950000 0.07947320 24744.39742536 0 201.55372538 0 10621.97184043 0 959.07291819 0 -2169.39816195 0 6828
0.08050000 0.08048110 23528.84462351 0 -143.32889996 0 9046.79511684 0 517.77101011 0 523.66972558 0 7147
0.08150000 0.08149960 23341.33796955 0 459.86583575 0 8259.67359938 0 702.50845332 0 -1752.16015702 0 7386
0.08250000 0.08250610 23476.88759520 0 536.36898995 0 9415.22866579 0 -278.24142040 0 -27.20790752 0 7227
0.08350000 0.08350160 22643.59791918 0 227.17194555 0 8327.10789046 0 900.55370622 0 -653.73914798 0 7798
0.08450000 0.08449610 22432.58427989 0 -73.74284096 0 8151.91494236 0 421.34513662 0 -125.82168818 0 7371
0.08550000 0.08548940 21448.36657660 0 691.81607037 0 7425.73583358 0 -10.71665886 0 -112.90492928 0 8256
0.08650000 0.08650700 21882.47688502 0 114.14289061 0 7154.88922744 0 915.09728032 0 -193.35813578 0 8037
0.08750000 0.08749060 21595.55984919 0 -444.88178029 0 6333.64962754 0 1577.21985409 0 119.34628264 0 8155
0.08850000 0.08849210 20920.55786407 0 304.11008883 0 5984.99929381 0 144.78325737 0 -958.37539783 0 8718
0.08950000 0.08949900 20530.60553743 0 1149.23893718 0 5708.96796941 0 -848.59338254 0 208.66294076 0 8571
0.09050000 0.09049190 19701.05061609 0 526.42795176 0 6162.71869360 0 405.96783346 0 1344.43479195 0 8932
0.09150000 0.09150830 19200.81318074 0 -147.23830934 0 6241.79663161 0 912.90036580 0 416.34276226 0 9285
0.09250000 0.09250820 18858.75359055 0 354.48863406 0 6490.68507716 0 -66.04946601 0 109.40194908 0 9204
0.09350000 0.09350330 18709.47324917 0 317.84080456 0 5711.00011534 0 552.08681485 0 1598.76060092 0 9349
0.09450000 0.09448040 17774.57627677 0 61.65223176 0 5991.86465167 0 143.36075522 0 2590.26107583 0 9564
0.09550000 0.09549270 18341.92945060 0 -21.55052310 0 5558.42440218 0 360.79048335 0 1438.04531949 0 10155
0.09650000 0.09649430 18504.72081626 0 167.99585614 0 5957.88936868 0 619.31459597 0 1986.84555022 0 9913
0.09750000 0.09749140 17662.64348217 0 270.60384708 0 5364.26109724 0 -549.16382009 0 1922.97026066 0 10476
0.09850000 0.09850240 17736.89919282 0 162.04002089 0 5776.81967425 0 515.60704931 0 2241.21529749 0 10575
0.09950000 0.09950330 17697.57442298 0 -52.39630137 0 5013.55664843 0 375.25496852 0 1816.10135402 0 10882
0.10050000 0.10051200 17687.79815338 0 -83.95519808 0 4703.19853472 0 927.86574749 0 1585.45828353 0 10875
0.10150000 0.10150300 17630.78822168 0 269.46035308 0 4544.33964605 0 -493.85100486 0 2073.21724443 0 11118
0.10250000 0.10250800 17030.04194721 0 237.36343200 0 4817.52596614 0 -571.88321156 0 762.21070376 0 11575
0.10350000 0.10349800 16688.09220275 0 713.43480767 0 5231.69927532 0 -471.13930259 0 1055.32523544 0 11364
0.10450000 0.10450100 16296.71188168 0 112.31066390 0 5383.17653122 0 38.52750956 0 479.94233905 0 12093
0.10550000 0.10551000 16127.76915538 0 -14.21930952 0 5544.32021099 0 358.80227571 0 430.92917620 0 12067
0.10650000 0.10649700 15979.69711698 0 418.76046669 0 5430.12459443 0 185.19549989 0 -227.51466422 0 12054
0.10750000 0.10749900 15932.02407198 0 -78.74290855 0 5035.80040791 0 394.13854725 0 794.90298868 0 12807
0.10850000 0.10850100 15828.11001536 0 -67.82061849 0 5191.19915622 0 364.73174799 0 390.42905709 0 12736
0.10950000 0.10950300 15800.42889246 0 181.94077104 0 4441.09564835 0 -56.19256965 0 739.89883993 0 12933
0.11050000 0.11050200 15170.46365492 0 190.85585014 0 5342.03930690 0 291.10215798 0 1264.17052010 0 13428
0.11150000 0.11150900 15219.01546573 0 545.56637257 0 4976.58257712 0 -425.06121752 0 658.06267575 0 13453
0.11250000 0.11250000 14939.78763071 0 202.08757561 0 5223.70250649 0 332.86220756 0 1233.40273230 0 13668
0.11350000 0.11349100 14436.25482358 0 -236.71094838 0 4825.81931844 0 844.01171732 0 961.43679821 0 13791
0.11450000 0.11448600 14603.22032682 0 0.99322066 0 4578.56757421 0 549.78225153 0 1248.67128818 0 14205
0.11550000 0.11549300 14600.47418367 0 403.08108779 0 4185.41873695 0 -245.78420534 0 737.92051841 0 14776
0.11650000 0.11649800 14217.11260058 0 118.31153590 0 4271.73550830 0 -495.97761811 0 900.54711548 0 14553
0.11750000 0.11747300 13766.19589612 0 55.17298162 0 4272.02110718 0 753.09680389 0 839.12468098 0 14568
0.11850000 0.11849100 13867.91303822 0 3.49369823 0 4166.94268587 0 -50.28627482 0 402.85041176 0 16015
0.11950000 0.11950300 13876.15146766 0 100.70359559 0 3313.28761228 0 386.63608418 0 857.99617667 0 15270
0.12050000 0.12050700 14071.01778525 0 -305.32717947 0 3112.63242494 0 588.37764575 0 159.61902109 0 15999
0.12150000 0.12150000 14064.53688743 0 256.69188591 0 2934.10016678 0 64.77437683 0 123.65772738 0 15670
0.12250000 0.12250700 13591.76088353 0 585.06469866 0 3490.31498400 0 -755.34314898 0 314.95625580 0 16887
0.12350000 0.12352200 13197.19503640 0 318.07477595 0 3385.09376325 0 -457.14825249 0 668.79020933 0 16407
0.12450000 0.12449800 12856.78313211 0 -327.85434092 0 3948.69021325 0 553.70923622 0 -118.83330310 0 16306
0.12550000 0.12549900 12953.66706227 0 244.48912423 0 3569.56867518 0 102.40576496 0 -673.37516992 0 17523
0.12650000 0.12650100 12591.39585854 0 472.94736323 0 4005.00811688 0 -208.62998704 0 167.66412205 0 17154
0.12750000 0.12750600 12247.79842820 0 217.21772588 0 3967.30906378 0 -224.44667310 0 171.46807954 0 18007
0.12850000 0.12850300 11975.27118245 0 -34.78166047 0 4156.47438820 0 -53.12897236 0 -133.97993023 0 17496
0.12950000 0.12949900 12000.09631649 0 54.75556787 0 3860.38523427 0 336.56181161 0 -15.85183669 0 18405
0.13050000 0.13049000 11928.03752035 0 -73.29489009 0 3795.52133318 0 561.94986257 0 -84.08152067 0 18100
0.13150000 0.13148800 12247.35904529 0 -0.72050228 0 3297.94216439 0 173.32666922 0 -353.19245449 0 19059
0.13250000 0.13249300 12100.82484706 0 131.53256746 0 3159.73427217 0 -45.94484220 0 260.40247453 0 18957
0.13350000 0.13349100 12106.75651625 0 90.60185311 0 3368.30933634 0 -9.99458798 0 -177.36899193 0 19468
0.13450000 0.13450700 11867.95190833 0 103.30968544 0 3460.55777688 0 -446.97763674 0 101.22942708 0 19953
0.13550000 0.13551000 11832.69143035 0 64.68199657 0 3465.57772655 0 338.12052246 0 -267.55562819 0 19956
0.13650000 0.13649900 11654.41181735 0 70.34663081 0 3604.68635372 0 436.30063219 0 488.33565096 0 19723
0.13750000 0.13749600 11744.59515825 0 15.45155887 0 3066.04685262 0 437.24969926 0 731.21773222 0 20946
0.13850000 0.13851100 11605.96985227 0 162.94295276 0 3345.51634824 0 227.04672143 0 475.61222054 0 20955
0.13950000 0.13949800 11440.87172637 0 253.53821512 0 3260.16621928 0 -713.68415747 0 696.94476731 0 20506
0.14050000 0.14048300 11165.26880031 0 191.12497217 0 3695.68255298 0 129.87719237 0 579.57680619 0 21447
0.14150000 0.14148400 10992.37162788 0 -46.53910758 0 3300.83110698 0 303.93104030 0 883.81980835 0 21771
0.14250000 0.14249400 11118.25482966 0 23.36506465 0 3062.83935743 0 287.71451579 0 206.57367505 0 22470
0.14350000 0.14350900 10752.21591753 0 274.83620290 0 3143.77368821 0 -50.23838208 0 525.41297725 0 22519
0.14450000 0.14449900 10380.22336706 0 151.19605084 0 3190.54599826 0 -145.48736847 0 969.49178529 0 22218
0.14550000 0.14550500 10350.44419079 0 188.20307587 0 3159.42670414 0 65.91106040 0 488.71352026 0 23559
0.14650000 0.14650700 10322.18088554 0 175.12264684 0 3139.19312144 0 -12.03283034 0 205.12041610 0 23044
0.14750000 0.14750500 10225.49467768 0 -146.28155307 0 2735.72977053 0 312.19363579 0 -111.18474521 0 23649
0.14850000 0.14849900 10100.39138055 0 69.29024446 0 2801.57129858 0 24.25129996 0 676.40251813 0 23640
0.14950000 0.14949500 9866.41998457 0 189.78814969 0 2772.22052064 0 -80.89522570 0 -29.07473563 0 24457
0.15050000 0.15050000 10162.60799965 0 163.15934884 0 2924.47768119 0 -25.74772828 0 -10.57125607 0 24591
0.15150000 0.15149900 9803.85185915 0 4.65527284 0 2667.73526625 0 318.58336166 0 -120.01194774 0 25020
0.15250000 0.15250500 9749.55511688 0 94.78181251 0 2885.30669537 0 -23.66955700 0 460.17560069 0 25297
0.15350000 0.15350100 9524.04184178 0 79.19766985 0 2501.65951339 0 141.53402080 0 433.47759703 0 25452
0.15450000 0.15450400 9597.83620038 0 -10.97882765 0 2602.72856571 0 221.65878858 0 325.50693776 0 26061
0.15550000 0.15549900 9349.78258235 0 116.74513585 0 2330.84940975 0 379.50709657 0 904.11380620 0 26128
0.15650000 0.15649500 9492.81270193 0 -2.33458416 0 2094.82389870 0 304.43852755 0 964.35210377 0 26331
0.15750000 0.15749700 9229.69923489 0 128.03837492 0 2129.37037947 0 -5.68228644 0 1027.53756218 0 27345
0.15850000 0.15849900 9030.70271801 0 322.42686361 0 2199.61672112 0 -317.23665306 0 313.79298956 0 26980
0.15950000 0.15949700 8788.54781545 0 315.20560559 0 2425.74513228 0 -482.22273632 0 866.76186559 0 27777
0.16050000 0.16050000 8570.53700343 0 33.06707853 0 2767.93653734 0 67.93826327 0 185.80074984 0 28224
0.16150000 0.16150500 8619.60508915 0 -19.19740796 0 2759.85189192 0 84.54441056 0 452.45893845 0 28075
0.16250000 0.16249700 8431.20868481 0 9.74829189 0 2408.80692136 0 180.19422400 0 30.63707139 0 28590
0.16350000 0.16349900 8626.31666300 0 -129.26095785 0 2252.13396264 0 228.40990688 0 470.59007396 0 29163
0.16450000 0.16449100 8560.21150521 0 53.49794415 0 2152.17435214 0 351.37780310 0 389.79964108 0 28996
0.16550000 0.16550500 8623.99891819 0 72.36911031 0 1893.87212789 0 -37.90380553 0 147.49205296 0 30777
0.16650000 0.16650700 8588.01345841 0 244.45617051 0 2290.29436778 0 -319.58515468 0 40.47111984 0 29211
0.16750000 0.16749900 8116.85218668 0 182.63719294 0 2355.74045122 0 -430.83141350 0 70.11298895 0 30922
0.16850000 0.16850800 8111.31596210 0 -116.92967667 0 2155.43677020 0 395.08102358 0 289.10626114 0 30867
0.16950000 0.16949900 8226.41231360 0 8.51806370 0 2184.72164070 0 229.21397760 0 -401.73328073 0 30852
0.17050000 0.17049200 8260.25578173 0 185.33500396 0 1983.14374926 0 282.30241688 0 156.54443923 0 31257
0.17150000 0.17149500 8131.78022082 0 9.42236864 0 1945.21402014 0 -109.15128113 0 341.28517782 0 32608
0.17250000 0.17250900 7976.48033366 0 12.49670884 0 1916.40148626 0 74.93104217 0 -455.55988329 0 32361
0.17350000 0.17350400 7979.10564651 0 81.91448419 0 2054.49953275 0 -315.11663056 0 188.66113254 0 32508
0.17450000 0.17449800 7820.30168070 0 93.47102347 0 2041.07638506 0 88.48128137 0 32.14448428 0 32791
0.17550000 0.17549800 7937.23245583 0 -36.53117334 0 1931.77988787 0 302.16142565 0 42.72130953 0 33633
0.17650000 0.17650100 8039.96017861 0 -139.49967795 0 1702.91631814 0 62.58646966 0 -173.84294413 0 33984
0.17750000 0.17750300 7972.43801095 0 152.02099224 0 1671.42354855 0 302.73921417 0 23.67856435 0 34069
0.17850000 0.17849800 8097.35457035 0 81.75641619 0 1616.87416111 0 47.86769163 0 365.70388266 0 34536
