### header ###
fiducial parameters:
Omega_m = 0.31
Omega_nu = 0
Omega_de = 0.69
Omega_k = 0
H_0 = 100
w_de = -1
zeff = 0
beta = 0
fgrowth = 0
b_1 = 2
gamma = 0.55
Lx = 3500 Ly = 3500 Lz = 3500
nx = 700 ny = 700 nz = 700
xoffset = -983.599254 yoffset = -42.9823471 zoffset = 800.977702
bins = 400 dk = 0.001
kx_ny = 0.628318531 ky_ny = 0.628318531 kz_ny = 0.628318531
############################
A(data) = 9.05841172 (not used)
A(ran) = 9.05145162 (used)
Ngal = 502672
weighted Ngal = 0
Nran = 25229228
weighted Nran = 0
SN(data) = 6772.51034
SN(ran) = 134.362563
SN(data+ran) = 6906.87291
############################
13 columns: k_central k_mean P_0(k) sigma^{lin}_{P_0(k)} P^img_1(k) sigma^{lin}_{P_1(k)} P_2(k) sigma^{lin}_{P_2(k)} P^img_3(k) sigma^{lin}_{P_3(k)} P_4(k) sigma^{lin}_{P_4(k)} N_modes
### header ###
0.00050000 0 0 0 0 0 0 0 0 0 0 0 0
0.00150000 0.00179520 53198.17516572 0 -41169.73865197 0 37837.45871369 0 -110022.57743199 0 142165.63371952 0 3
0.00250000 0.00253879 55690.68453015 0 -7822.14708889 0 -43336.66528509 0 28878.99054498 0 33065.54069291 0 6
0.00350000 0.00331552 85075.95402541 0 -12266.80173876 0 1459.99249550 0 -39221.84439612 0 -74382.36277174 0 7
0.00450000 0.00420575 76058.49870193 0 773.25569149 0 2829.24143691 0 -46156.29522100 0 24415.18978510 0 24
0.00550000 0.00557378 67391.89062670 0 6931.82551203 0 25099.41881119 0 -10340.01983142 0 1927.27621311 0 45
0.00650000 0.00659388 67352.67570259 0 7705.68865038 0 23262.35889269 0 -5681.96789001 0 -1897.42014484 0 40
0.00750000 0.00754703 62238.47840016 0 -3849.48853827 0 9467.87772217 0 42357.83002237 0 -10797.46137199 0 57
0.00850000 0.00846663 80057.98157880 0 -8865.62656126 0 26403.72695950 0 12534.05638967 0 17793.14020444 0 75
0.00950000 0.00948925 82824.33633768 0 2499.62736747 0 15292.39241057 0 2158.07306762 0 -4384.59100700 0 112
0.01050000 0.01054430 77271.74474354 0 4363.81918025 0 7369.26414594 0 -8944.45185410 0 4400.36485322 0 105
0.01150000 0.01145670 78910.75281840 0 -4179.89349694 0 10578.46194844 0 12741.88450291 0 11896.29210559 0 144
0.01250000 0.01249090 79116.71355430 0 -3069.62782328 0 9592.79428157 0 -2236.75556102 0 -13061.75525648 0 169
0.01350000 0.01339930 78150.40070432 0 14373.20337696 0 16111.51198796 0 -7551.48722049 0 9444.83208890 0 180
0.01450000 0.01448870 65722.23559434 0 2820.72839316 0 17249.84324456 0 624.37189318 0 2784.90770198 0 267
0.01550000 0.01550050 64967.37576655 0 -5211.95999840 0 12720.90396928 0 18174.63441019 0 9175.98467497 0 238
0.01650000 0.01653350 69750.05866846 0 -7490.27019749 0 2273.61978660 0 6337.06582961 0 -7186.82137993 0 315
0.01750000 0.01747870 76219.42269025 0 1159.32277481 0 8218.47046763 0 -1298.76093916 0 7699.11987598 0 297
0.01850000 0.01844180 80891.16140909 0 2768.01342935 0 4724.40974437 0 -14322.45465164 0 -22221.79033206 0 388
0.01950000 0.01947590 70231.73217616 0 1930.16515570 0 7349.89834448 0 -14779.85225392 0 3020.53776842 0 399
0.02050000 0.02045430 66446.00908172 0 3505.70437019 0 22741.03107798 0 5485.38797909 0 -10249.55089164 0 462
0.02150000 0.02154770 69262.78302876 0 -917.75884226 0 21345.11159434 0 -911.41415313 0 -12980.35957365 0 571
0.02250000 0.02255340 78992.36819268 0 -213.50054652 0 25643.26499969 0 4061.16125191 0 -24704.19388972 0 510
0.02350000 0.02348930 75476.64589230 0 2497.28765351 0 29557.83713051 0 -17495.45828748 0 -17092.98354810 0 555
0.02450000 0.02439640 67331.03609460 0 3644.45050647 0 35643.72972347 0 -7755.10824243 0 -6037.59342733 0 592
0.02550000 0.02547300 72986.88267101 0 -42.49909163 0 36682.65059822 0 3909.09082910 0 -21087.63321303 0 837
0.02650000 0.02652900 77807.57219406 0 -2177.66954511 0 36081.46494084 0 4094.51041427 0 -19930.51833731 0 723
0.02750000 0.02749970 71155.53473025 0 -2886.28432233 0 27819.19898233 0 5313.62221764 0 -12145.97144037 0 826
0.02850000 0.02848090 77370.93543395 0 3618.25230086 0 36127.38045423 0 5806.03863731 0 -9001.26406349 0 831
0.02950000 0.02946900 71491.66265124 0 3765.99480208 0 32769.50646184 0 -409.09514128 0 -4859.48703341 0 996
0.03050000 0.03053250 68391.15719443 0 1059.60152954 0 29622.09688011 0 11974.61210810 0 5766.14266970 0 1041
0.03150000 0.03150510 66165.02371509 0 1150.75480819 0 29543.55718615 0 11239.63435668 0 14583.11855899 0 1036
0.03250000 0.03246190 62458.82892615 0 2241.75354155 0 22639.75331878 0 8841.80102333 0 18941.90680499 0 1059
0.03350000 0.03345080 63421.18733000 0 -335.08218968 0 20641.98910341 0 5623.82654733 0 25575.70987832 0 1302
0.03450000 0.03451200 59505.51674193 0 1294.99323076 0 16973.58124414 0 2721.90019365 0 26712.94267767 0 1339
0.03550000 0.03553350 57223.91117106 0 2890.41452162 0 18115.20787252 0 375.39117722 0 28925.67497845 0 1365
0.03650000 0.03647120 56205.20190986 0 2210.95280003 0 23443.16495738 0 -6471.33026027 0 16254.31143152 0 1308
0.03750000 0.03744890 54092.20952811 0 4297.31857784 0 26903.96439485 0 -3719.36529147 0 17897.60348969 0 1579
0.03850000 0.03847530 52048.96918226 0 -796.47048719 0 25432.14151468 0 3931.88381720 0 15083.90522297 0 1662
0.03950000 0.03950240 50487.84172700 0 -630.54851834 0 27842.70596766 0 -1279.18643082 0 8339.71817978 0 1683
0.04050000 0.04050350 47308.46703905 0 4746.68645757 0 31259.89665199 0 -621.38079407 0 13421.50000851 0 1822
0.04150000 0.04152450 47374.48432027 0 1290.68727831 0 33593.56909689 0 -911.47346983 0 10963.96552318 0 1887
0.04250000 0.04250150 43694.21312262 0 800.47765926 0 32352.75177810 0 3237.21944716 0 12066.77267206 0 1920
0.04350000 0.04349210 44873.29714350 0 449.93578213 0 31148.84262319 0 8307.73110442 0 14995.80895087 0 2005
0.04450000 0.04448520 42651.55749319 0 -202.27431334 0 27408.26612206 0 5178.18243771 0 18805.47841353 0 2151
0.04550000 0.04548030 43083.69057854 0 1175.94243312 0 26204.24712142 0 2089.74902617 0 14453.50060253 0 2274
0.04650000 0.04648670 40120.71197045 0 1333.27446621 0 25570.65697493 0 929.88910576 0 17655.39366427 0 2311
0.04750000 0.04749250 40267.24616869 0 -429.78458373 0 19792.99148860 0 5853.23934569 0 17959.66632477 0 2568
0.04850000 0.04851840 40979.26616341 0 -1057.69131237 0 17070.35532858 0 4383.26187371 0 16269.79967886 0 2493
0.04950000 0.04949480 41662.39673224 0 -582.10325789 0 14388.25224140 0 421.94489428 0 11495.13551492 0 2644
0.05050000 0.05050630 41378.99475965 0 1494.09959337 0 15347.09558202 0 -1446.23981063 0 10498.21964573 0 2829
0.05150000 0.05149060 39207.12506886 0 1238.12609851 0 16198.18026563 0 -3697.81356007 0 5929.04388108 0 2784
0.05250000 0.05249300 38577.81890568 0 1031.10754827 0 17156.91376053 0 495.10654150 0 4438.79987269 0 3055
0.05350000 0.05348950 37266.15109374 0 -431.91119698 0 16936.67308027 0 759.03067000 0 4478.60796372 0 3009
0.05450000 0.05448610 38320.34052437 0 960.09997573 0 17441.41419038 0 -836.97829549 0 -2570.70853664 0 3336
0.05550000 0.05550870 35948.11222970 0 546.59562702 0 16755.09809550 0 -697.85978221 0 1040.41038279 0 3349
0.05650000 0.05647670 36167.14460698 0 1446.55836324 0 21252.29195603 0 340.24384034 0 1972.59855959 0 3324
0.05750000 0.05747970 34293.17652460 0 1029.76743041 0 18666.63341611 0 201.14290237 0 1132.01512737 0 3639
0.05850000 0.05849280 34113.02953426 0 543.89342216 0 19435.11411390 0 3036.59721353 0 3492.24826878 0 3846
0.05950000 0.05951020 33815.34761731 0 -611.00256989 0 17905.18284477 0 3515.71131581 0 2763.16923284 0 3787
0.06050000 0.06049470 33356.74171204 0 -405.60094874 0 14283.34957325 0 3616.63756869 0 7370.79100152 0 3930
0.06150000 0.06148310 34773.53188358 0 33.27259989 0 14038.28375896 0 2859.19636634 0 6838.18203077 0 4083
0.06250000 0.06249100 32539.37966626 0 116.40241719 0 12044.14445254 0 1308.07585670 0 10383.70547657 0 4303
0.06350000 0.06350600 33213.50288558 0 1390.91051854 0 12374.78008724 0 -1249.25347053 0 8308.29131762 0 4470
0.06450000 0.06451750 31187.28862722 0 581.87587724 0 11769.74982946 0 -2.97218368 0 7887.04394370 0 4479
0.06550000 0.06550280 30386.29359459 0 771.54429508 0 11915.18557043 0 1338.95349023 0 6136.48753428 0 4636
0.06650000 0.06648880 30435.39463403 0 -426.94177635 0 11754.70096502 0 322.44443892 0 6889.23832413 0 4653
0.06750000 0.06749660 30337.96147523 0 540.74634212 0 11946.82113947 0 965.07818402 0 4778.35498032 0 5220
0.06850000 0.06852730 28797.15547925 0 937.54864822 0 11900.68593463 0 -2177.69151425 0 3290.63742362 0 5029
0.06950000 0.06949320 28522.43131899 0 547.88521584 0 12347.42850151 0 1018.96190636 0 4745.88458377 0 5040
0.07050000 0.07048030 28207.17408591 0 -215.68537801 0 12124.44167811 0 -611.09593876 0 1506.55609868 0 5475
0.07150000 0.07148790 27904.43926556 0 514.50529668 0 10947.36783401 0 1335.94371734 0 810.42968202 0 5509
0.07250000 0.07249820 27624.00312756 0 582.20651287 0 12159.59231037 0 -1805.84176323 0 471.61383612 0 5916
0.07350000 0.07351270 27050.27890164 0 151.92213109 0 13297.59402980 0 -555.12954146 0 45.83400786 0 5721
0.07450000 0.07449140 26497.20567217 0 478.57256285 0 12665.21218629 0 1891.66422881 0 1983.38540986 0 6028
0.07550000 0.07549160 26699.54149912 0 -598.55595070 0 11937.92363568 0 1005.98692923 0 488.56522853 0 6183
0.07650000 0.07648840 27167.04490818 0 509.16240058 0 11678.79756848 0 488.14122403 0 -551.26626728 0 6330
0.07750000 0.07749960 25985.21474415 0 1103.22456263 0 11335.20013814 0 -691.76554134 0 1855.33824728 0 6583
0.07850000 0.07848650 26431.29823668 0 -922.86007776 0 11236.44883063 0 2071.60251226 0 3298.45843930 0 6549
0.07950000 0.07947320 25948.63611746 0 213.25998438 0 11949.56728261 0 38.33132510 0 48.30147240 0 6828
0.08050000 0.08048110 25426.53938266 0 1141.62662838 0 11266.65640523 0 -619.51561364 0 1709.88053716 0 7147
0.08150000 0.08149960 24691.23209407 0 599.84004724 0 11002.91681755 0 764.64927887 0 2928.28932788 0 7386
0.08250000 0.08250610 23803.67862950 0 -32.97250136 0 11632.66236364 0 1017.71625583 0 3030.48979118 0 7227
0.08350000 0.08350160 23518.51912528 0 1001.83036697 0 11175.92383571 0 1001.92483429 0 2905.28763289 0 7798
0.08450000 0.08449610 22528.15006135 0 497.73624818 0 11497.22258371 0 -290.42660676 0 4882.64251241 0 7371
0.08550000 0.08548940 21605.66565597 0 399.24637350 0 10263.29259193 0 1742.95508520 0 3740.54354741 0 8256
0.08650000 0.08650700 21607.64287903 0 -305.67868579 0 10402.88454030 0 572.80921103 0 4343.28901409 0 8037
0.08750000 0.08749060 21135.85548667 0 249.26961022 0 8985.56710927 0 1224.56015137 0 4649.45102108 0 8155
0.08850000 0.08849210 21228.01605062 0 -111.95256683 0 8042.62942974 0 775.21973307 0 3757.87720294 0 8718
0.08950000 0.08949900 20976.13980133 0 287.70792505 0 7292.13047727 0 -1216.65125911 0 1798.53702246 0 8571
0.09050000 0.09049190 20799.28818277 0 463.08102014 0 8052.57046793 0 -6.00108071 0 1543.44229340 0 8932
0.09150000 0.09150830 19867.68658215 0 279.51672928 0 7460.96335785 0 173.69794777 0 1136.54077127 0 9285
0.09250000 0.09250820 20179.31890628 0 -204.97102591 0 6613.14109230 0 776.91904645 0 1112.57243390 0 9204
0.09350000 0.09350330 19741.25415174 0 365.29635502 0 7422.91279842 0 797.42614500 0 -785.03115330 0 9349
0.09450000 0.09448040 18916.42259661 0 571.55696975 0 5706.32068742 0 -1178.22722422 0 478.64176566 0 9564
0.09550000 0.09549270 18794.71353240 0 604.09986448 0 7418.78259913 0 -69.32858062 0 -120.91378115 0 10155
0.09650000 0.09649430 17757.66003500 0 346.79174405 0 7105.93098744 0 388.66603319 0 85.44338798 0 9913
0.09750000 0.09749140 17547.74485297 0 485.65980908 0 7881.04636707 0 -384.78078987 0 -608.03893221 0 10476
0.09850000 0.09850240 16581.43200299 0 458.11709179 0 7189.42472363 0 215.31519791 0 687.09270416 0 10575
0.09950000 0.09950330 16681.28176775 0 -34.55065491 0 7279.66298739 0 1619.25781336 0 140.35537616 0 10882
0.10050000 0.10051200 16780.69214961 0 -212.10880117 0 6703.64298580 0 671.42101446 0 1547.21000180 0 10875
0.10150000 0.10150300 16963.47543737 0 -15.57667315 0 5748.67719929 0 625.96905003 0 1205.99622371 0 11118
0.10250000 0.10250800 16603.84053106 0 160.80315802 0 6137.26743893 0 -496.53124057 0 740.29318609 0 11575
0.10350000 0.10349800 16222.78570821 0 569.27876940 0 6065.86771715 0 -545.69818744 0 1772.44866258 0 11364
0.10450000 0.10450100 15748.25217269 0 82.97658251 0 6622.67570130 0 173.34863836 0 1499.63581795 0 12093
0.10550000 0.10551000 15839.75366230 0 101.70088494 0 7020.65775049 0 673.14559236 0 893.08309841 0 12067
0.10650000 0.10649700 15420.14298969 0 337.69102567 0 6594.73094865 0 -329.09340071 0 -70.81644097 0 12054
0.10750000 0.10749900 14994.49080216 0 311.76084363 0 6625.41085987 0 -30.08103232 0 1872.27645820 0 12807
0.10850000 0.10850100 14978.45332619 0 -49.22736202 0 6813.90612537 0 813.95463136 0 572.51811985 0 12736
0.10950000 0.10950300 14971.64289119 0 148.58611639 0 6503.44915050 0 253.33829590 0 1354.59552159 0 12933
0.11050000 0.11050200 14705.70638900 0 233.09153172 0 6022.09419541 0 328.49144613 0 1018.98936779 0 13428
0.11150000 0.11150900 14757.33388013 0 -5.39813752 0 5978.61725714 0 -271.12561428 0 677.92607834 0 13453
0.11250000 0.11250000 14182.18165977 0 169.56115774 0 6225.03417386 0 86.59775671 0 1035.88364042 0 13668
0.11350000 0.11349100 14285.65633349 0 187.23533502 0 5190.25448297 0 594.67180584 0 694.07889233 0 13791
0.11450000 0.11448600 14597.06896617 0 -398.13803013 0 5194.34074398 0 570.35745443 0 645.62923804 0 14205
0.11550000 0.11549300 14622.33348311 0 -78.51377037 0 4268.39619823 0 180.18543634 0 -260.94840779 0 14776
0.11650000 0.11649800 14304.76948978 0 279.13336769 0 4386.76595237 0 -378.02088390 0 -235.27636321 0 14553
0.11750000 0.11747300 14173.94323034 0 277.13417548 0 4315.20146200 0 -64.14012761 0 374.52559290 0 14568
0.11850000 0.11849100 14280.05420147 0 16.82946365 0 4551.46863365 0 88.60299044 0 -222.82644864 0 16015
0.11950000 0.11950300 13980.39506145 0 110.90683552 0 4368.91602192 0 694.28979612 0 -68.91094717 0 15270
0.12050000 0.12050700 13628.88873885 0 189.93094913 0 4600.47081194 0 -242.16808404 0 -387.15126063 0 15999
0.12150000 0.12150000 13623.72598974 0 350.74289481 0 4223.53520381 0 308.23918966 0 110.27082877 0 15670
0.12250000 0.12250700 13313.85119722 0 40.19222154 0 4670.02512552 0 119.16064336 0 664.16570427 0 16887
0.12350000 0.12352200 13107.23138696 0 -78.26760609 0 3791.43507218 0 750.54289077 0 1051.20711918 0 16407
0.12450000 0.12449800 13335.05142230 0 -41.90416717 0 3631.56560283 0 574.59969636 0 374.83975168 0 16306
0.12550000 0.12549900 13279.24979359 0 94.14569591 0 3471.22379686 0 -156.68174639 0 930.69647184 0 17523
0.12650000 0.12650100 12883.14610630 0 263.36391530 0 3494.84062791 0 287.91773039 0 1132.93783147 0 17154
0.12750000 0.12750600 12655.65560814 0 49.12048213 0 3394.62837225 0 224.61473706 0 1814.19003839 0 18007
0.12850000 0.12850300 12953.22767937 0 -1.03161833 0 3335.03706599 0 699.91499574 0 1001.11307438 0 17496
0.12950000 0.12949900 12905.66448009 0 61.39727983 0 2884.82337418 0 -171.27804643 0 954.86143306 0 18405
0.13050000 0.13049000 12370.82564111 0 221.58738885 0 2917.28278615 0 -330.96846725 0 1510.67531339 0 18100
0.13150000 0.13148800 12345.67096990 0 41.72984201 0 3618.48297688 0 -645.36780521 0 835.56348255 0 19059
0.13250000 0.13249300 12080.17385061 0 446.48442943 0 3604.32386283 0 -200.44318509 0 530.44171458 0 18957
0.13350000 0.13349100 11858.72486737 0 175.88827154 0 4184.52898657 0 -202.13590773 0 389.13177907 0 19468
0.13450000 0.13450700 12087.86305141 0 -5.81337633 0 3674.53725077 0 526.60480338 0 -146.81979712 0 19953
0.13550000 0.13551000 11846.53199180 0 -106.64097676 0 3671.93390706 0 303.02151769 0 377.55513802 0 19956
0.13650000 0.13649900 11813.46842833 0 -41.94700701 0 3269.27242995 0 325.91007157 0 -100.37098273 0 19723
0.13750000 0.13749600 11799.62786688 0 179.64389691 0 3238.74630275 0 -155.33393933 0 720.36936834 0 20946
0.13850000 0.13851100 11454.71228782 0 194.60049094 0 3341.41910266 0 -314.90462830 0 148.77395258 0 20955
0.13950000 0.13949800 11271.48961717 0 391.20676483 0 3571.72165140 0 -15.09115504 0 439.30051896 0 20506
0.14050000 0.14048300 11151.53808458 0 172.12056315 0 3791.54491790 0 6.49718794 0 429.78678065 0 21447
0.14150000 0.14148400 10922.64156113 0 -82.50128006 0 3574.18219566 0 480.10381227 0 391.73512277 0 21771
0.14250000 0.14249400 11118.03513821 0 -162.30145372 0 3370.37443599 0 820.43772610 0 622.06952677 0 22470
0.14350000 0.14350900 11161.86358281 0 84.62866223 0 3070.83612627 0 -37.65214897 0 516.67035594 0 22519
0.14450000 0.14449900 10656.82588923 0 418.92193991 0 2906.93531878 0 -359.50199298 0 1118.93250143 0 22218
0.14550000 0.14550500 10506.90844264 0 180.48311826 0 3281.34447522 0 3.37706404 0 1253.12004008 0 23559
0.14650000 0.14650700 10603.83631110 0 -24.41837531 0 3074.64777295 0 286.89177131 0 955.75008499 0 23044
0.14750000 0.14750500 10444.26342521 0 -122.13965945 0 2760.60982743 0 670.27642200 0 678.15785283 0 23649
0.14850000 0.14849900 10264.23726518 0 39.59323280 0 2638.64811805 0 1.14137398 0 1367.56830180 0 23640
0.14950000 0.14949500 10435.45379800 0 196.08230978 0 2503.55984445 0 -80.92971726 0 648.21061260 0 24457
0.15050000 0.15050000 10140.60590077 0 111.83722882 0 2691.52785046 0 -177.95556810 0 1149.94194982 0 24591
0.15150000 0.15149900 10077.69725360 0 119.50995277 0 2770.00163698 0 -94.51565632 0 306.84414894 0 25020
0.15250000 0.15250500 9720.50092240 0 160.56698971 0 2582.22036870 0 -150.18766708 0 617.81520181 0 25297
0.15350000 0.15350100 9769.87657615 0 78.59362821 0 2886.73468980 0 8.82513743 0 97.65790315 0 25452
0.15450000 0.15450400 9722.84063636 0 152.18026854 0 2918.99637948 0 171.07043801 0 26.00421805 0 26061
0.15550000 0.15549900 9674.71722388 0 66.04606079 0 2637.56064537 0 76.61629530 0 316.49409596 0 26128
0.15650000 0.15649500 9543.33075124 0 -82.47656477 0 2367.06554555 0 279.45411721 0 201.24835426 0 26331
0.15750000 0.15749700 9439.12011116 0 -95.95617317 0 2191.12564652 0 103.52981627 0 298.06637699 0 27345
0.15850000 0.15849900 9517.06663819 0 300.97509181 0 2252.82599071 0 27.03248389 0 -88.07935586 0 26980
0.15950000 0.15949700 9185.37648453 0 261.65142043 0 2261.80038651 0 -271.10144822 0 259.85983664 0 27777
0.16050000 0.16050000 8998.10050659 0 209.76689030 0 2714.01327054 0 -313.57549502 0 -327.60169575 0 28224
0.16150000 0.16150500 8880.21407364 0 184.30355260 0 2858.10889366 0 -84.90129932 0 -319.70928035 0 28075
0.16250000 0.16249700 8596.21893413 0 51.03399468 0 3073.05500993 0 -239.86022534 0 -22.65809755 0 28590
0.16350000 0.16349900 8481.16652091 0 57.19040822 0 2904.09031448 0 203.51996387 0 -366.93305634 0 29163
0.16450000 0.16449100 8376.29680648 0 115.29956610 0 3030.85228207 0 407.72206970 0 145.23911713 0 28996
0.16550000 0.16550500 8449.27830671 0 -5.13876979 0 2958.07948872 0 307.28243339 0 182.16046249 0 30777
0.16650000 0.16650700 8408.67932645 0 102.06700074 0 2624.19242054 0 -57.21457428 0 394.94920870 0 29211
0.16750000 0.16749900 8111.10725522 0 108.77835490 0 2738.66265141 0 177.06691618 0 740.40962256 0 30922
0.16850000 0.16850800 8168.52361610 0 40.34600555 0 2715.67194100 0 51.78830527 0 509.58530662 0 30867
0.16950000 0.16949900 8076.14336069 0 115.28308924 0 2678.36833251 0 -106.05374151 0 203.01687045 0 30852
0.17050000 0.17049200 8005.06219152 0 -35.58660995 0 2612.23022100 0 261.02310288 0 462.25607874 0 31257
0.17150000 0.17149500 7835.74598975 0 51.93604778 0 2281.34194113 0 145.36653817 0 386.64377338 0 32608
0.17250000 0.17250900 7867.79897254 0 130.19354806 0 2372.82146159 0 -52.73627389 0 187.76479142 0 32361
0.17350000 0.17350400 7847.63129728 0 141.26270185 0 2329.65209134 0 -57.47095421 0 149.01451472 0 32508
0.17450000 0.17449800 7616.81247363 0 51.37967917 0 2374.99640696 0 -3.99912039 0 321.43166133 0 32791
0.17550000 0.17549800 7676.60150219 0 15.79350861 0 2055.07073053 0 73.34893418 0 169.78414456 0 33633
0.17650000 0.17650100 7614.50571339 0 -49.79702196 0 2264.83212854 0 104.09156731 0 215.55905542 0 33984
0.17750000 0.17750300 7618.64689725 0 4.99534423 0 2137.10351856 0 171.44501194 0 45.16955107 0 34069
0.17850000 0.17849800 7775.27591769 0 -32.00563928 0 1946.78481402 0 151.36741017 0 15.09313226 0 34536
