### header ###
fiducial parameters:
Omega_m = 0.31
Omega_nu = 0
Omega_de = 0.69
Omega_k = 0
H_0 = 100
w_de = -1
zeff = 0
beta = 0
fgrowth = 0
b_1 = 2
gamma = 0.55
Lx = 3500 Ly = 3500 Lz = 3500
nx = 700 ny = 700 nz = 700
xoffset = -983.599254 yoffset = -42.9823471 zoffset = 800.977702
bins = 400 dk = 0.001
kx_ny = 0.628318531 ky_ny = 0.628318531 kz_ny = 0.628318531
############################
A(data) = 9.08107971 (not used)
A(ran) = 9.07580199 (used)
Ngal = 504176
weighted Ngal = 0
Nran = 25229228
weighted Nran = 0
SN(data) = 6753.09718
SN(ran) = 134.724028
SN(data+ran) = 6887.82121
############################
13 columns: k_central k_mean P_0(k) sigma^{lin}_{P_0(k)} P^img_1(k) sigma^{lin}_{P_1(k)} P_2(k) sigma^{lin}_{P_2(k)} P^img_3(k) sigma^{lin}_{P_3(k)} P_4(k) sigma^{lin}_{P_4(k)} N_modes
### header ###
0.00050000 0 0 0 0 0 0 0 0 0 0 0 0
0.00150000 0.00179520 6962.32967009 0 -6166.38754084 0 -747.06737200 0 -4518.84445309 0 -13100.64064341 0 3
0.00250000 0.00253879 9883.95136241 0 -1285.81012808 0 10718.38343398 0 -4536.28795434 0 -8736.12943510 0 6
0.00350000 0.00331552 26366.48925845 0 4443.03991770 0 13844.29620717 0 -26288.05941022 0 -21287.55243401 0 7
0.00450000 0.00420575 41622.74242523 0 7219.77509768 0 2407.02742060 0 9011.40282398 0 41685.13479749 0 24
0.00550000 0.00557378 49261.08466111 0 -19530.13066672 0 5690.28321145 0 -8340.95943648 0 -3990.27780504 0 45
0.00650000 0.00659388 51360.67586431 0 -3688.66341111 0 5103.58620531 0 -3000.91932179 0 -7077.72260505 0 40
0.00750000 0.00754703 69716.88525927 0 8265.55034571 0 -1240.92716451 0 18751.54416216 0 11376.72182250 0 57
0.00850000 0.00846663 53172.58111160 0 -10430.51074034 0 -5681.79213684 0 -11814.23734841 0 21358.51277289 0 75
0.00950000 0.00948925 71385.88121728 0 -5061.95467522 0 -1667.41417956 0 35341.76382321 0 102.04876635 0 112
0.01050000 0.01054430 87864.71731236 0 -10715.11003135 0 -28899.09231280 0 3744.22337922 0 -8444.24737246 0 105
0.01150000 0.01145670 84400.51265738 0 2088.26610887 0 -10222.97921056 0 -32327.48726117 0 7428.35016185 0 144
0.01250000 0.01249090 68846.90711083 0 8935.78502633 0 -16447.96944613 0 -15124.65798725 0 22190.15476302 0 169
0.01350000 0.01339930 76862.02018626 0 -3976.62398133 0 -18029.74789784 0 16206.08915788 0 -2821.58518982 0 180
0.01450000 0.01448870 84308.24224770 0 -4040.57616289 0 2690.00099487 0 1233.19402542 0 -22642.93884483 0 267
0.01550000 0.01550050 83634.33871983 0 6782.46827864 0 -9309.17261752 0 -12211.21980150 0 3503.34268709 0 238
0.01650000 0.01653350 73069.48665682 0 -2184.46899553 0 5411.95611138 0 -10690.84511052 0 -4265.38642534 0 315
0.01750000 0.01747870 73109.36065529 0 4383.29482743 0 2836.72193084 0 -10716.73574809 0 -4640.05921152 0 297
0.01850000 0.01844180 80861.50306312 0 800.39417651 0 19763.11345118 0 2560.48189957 0 -22782.33307088 0 388
0.01950000 0.01947590 76977.90742699 0 1585.41434524 0 20987.23421964 0 -11812.58966252 0 -14550.93376133 0 399
0.02050000 0.02045430 73300.71190966 0 5687.53706830 0 28161.14872679 0 -657.13447936 0 -10634.90068236 0 462
0.02150000 0.02154770 72623.84254720 0 -1468.74719985 0 28424.33908584 0 -2864.37010003 0 -14260.61150800 0 571
0.02250000 0.02255340 72662.28855123 0 2714.99089750 0 35242.68297853 0 3692.04665946 0 -13123.37870866 0 510
0.02350000 0.02348930 69841.01092944 0 1521.89056200 0 32444.25326771 0 2987.28746721 0 -10599.91481869 0 555
0.02450000 0.02439640 68394.23287475 0 3279.56497446 0 44589.45578799 0 751.57983442 0 2167.54176919 0 592
0.02550000 0.02547300 64064.33405464 0 4072.88179086 0 36159.67509762 0 2195.59636756 0 -1860.33622780 0 837
0.02650000 0.02652900 61146.50203985 0 -590.23733389 0 44565.28972832 0 1268.83896344 0 -6613.27290717 0 723
0.02750000 0.02749970 60568.82336780 0 3359.70841601 0 32987.00099895 0 2322.13864370 0 -9695.06065230 0 826
0.02850000 0.02848090 58518.11351259 0 -1004.79839848 0 36642.88644547 0 3096.81464042 0 5591.38910450 0 831
0.02950000 0.02946900 56341.41060987 0 2501.64852882 0 33172.20089267 0 2427.61250962 0 -7288.67033691 0 996
0.03050000 0.03053250 55356.42398650 0 457.66452740 0 31749.58889766 0 5028.39680599 0 -8222.32605260 0 1041
0.03150000 0.03150510 55144.97096431 0 868.44140674 0 26666.91731855 0 6392.75761260 0 -3691.77204515 0 1036
0.03250000 0.03246190 54125.49278304 0 253.75351274 0 26920.00187082 0 949.04180651 0 -3222.60996562 0 1059
0.03350000 0.03345080 51052.66844913 0 1856.57950398 0 26231.37901570 0 -1550.10992896 0 -1562.62135713 0 1302
0.03450000 0.03451200 51533.79272819 0 2233.14163664 0 24091.03504822 0 2667.38375993 0 -3947.62470971 0 1339
0.03550000 0.03553350 48584.76452728 0 -763.16086929 0 19420.28494091 0 4934.78627845 0 3709.41326871 0 1365
0.03650000 0.03647120 50175.00109988 0 -1613.30417502 0 19170.93514332 0 5787.95803084 0 -1601.55068236 0 1308
0.03750000 0.03744890 47988.41208184 0 1100.45645034 0 15859.52589294 0 1963.20675003 0 -3029.73185567 0 1579
0.03850000 0.03847530 46518.67627046 0 3042.61675931 0 16215.20635313 0 -388.25630863 0 6488.56505465 0 1662
0.03950000 0.03950240 44352.29886596 0 1207.30338784 0 17595.30805225 0 -465.64372092 0 2482.07402048 0 1683
0.04050000 0.04050350 43397.30012574 0 712.29570749 0 17619.36426620 0 117.26470613 0 -223.07360152 0 1822
0.04150000 0.04152450 42917.16445821 0 1622.15774052 0 18895.88144588 0 1429.85082834 0 -505.56714997 0 1887
0.04250000 0.04250150 39512.27649517 0 78.97578149 0 16553.20165146 0 -244.90324262 0 359.90512680 0 1920
0.04350000 0.04349210 39485.58398380 0 1275.16607725 0 16578.79570557 0 2204.42796391 0 2991.21994420 0 2005
0.04450000 0.04448520 39704.94589825 0 -1458.20201017 0 16722.80345211 0 4224.94122910 0 7799.58477681 0 2151
0.04550000 0.04548030 40749.46890501 0 410.76809168 0 16713.35671969 0 1591.31306071 0 2652.25800348 0 2274
0.04650000 0.04648670 40562.62132540 0 797.45690180 0 14543.24456052 0 1765.01210694 0 4617.01357825 0 2311
0.04750000 0.04749250 39497.99655082 0 801.53217823 0 15736.49868003 0 -1487.70657213 0 4599.41629297 0 2568
0.04850000 0.04851840 39175.26980838 0 359.51297756 0 17427.35393748 0 -411.45462747 0 5882.54618534 0 2493
0.04950000 0.04949480 39185.04607797 0 610.14577323 0 19302.75001429 0 -969.52473900 0 2409.83947119 0 2644
0.05050000 0.05050630 36357.28755836 0 969.21277714 0 16968.85787793 0 -573.15412661 0 3054.44714398 0 2829
0.05150000 0.05149060 36846.10103823 0 477.46971177 0 17905.95176485 0 854.43607670 0 1626.80421472 0 2784
0.05250000 0.05249300 36491.95841821 0 -897.49450276 0 17464.04240990 0 2254.89109035 0 1952.03543971 0 3055
0.05350000 0.05348950 37050.30424252 0 1026.33694839 0 15191.44418855 0 3636.11321588 0 2099.03099000 0 3009
0.05450000 0.05448610 35626.92332743 0 392.72373430 0 13947.33149798 0 1004.02178920 0 522.67342485 0 3336
0.05550000 0.05550870 35970.30106632 0 127.40456508 0 14487.99216044 0 -493.09966009 0 880.25201918 0 3349
0.05650000 0.05647670 33306.43236962 0 1545.97972967 0 12576.89622273 0 -1698.84104171 0 195.66379756 0 3324
0.05750000 0.05747970 33815.56730876 0 660.65833025 0 14474.81067334 0 645.71711462 0 700.16434554 0 3639
0.05850000 0.05849280 32458.09382916 0 -304.79552616 0 12330.29256828 0 1782.59840765 0 -1304.38504032 0 3846
0.05950000 0.05951020 33312.69357599 0 -1031.91052052 0 11506.33977896 0 1191.91400166 0 -3932.74061386 0 3787
0.06050000 0.06049470 32928.78276427 0 623.29650353 0 11849.16828922 0 -700.77728469 0 -3221.86301469 0 3930
0.06150000 0.06148310 33777.45084190 0 666.46807069 0 11612.34090437 0 15.88325257 0 -1438.38584124 0 4083
0.06250000 0.06249100 31252.42714263 0 826.31007860 0 11142.20119789 0 422.55014423 0 49.25965667 0 4303
0.06350000 0.06350600 32020.13892034 0 -501.51713806 0 9125.82911656 0 3364.05830675 0 -1572.36467301 0 4470
0.06450000 0.06451750 32641.64603699 0 -319.85537517 0 10052.60848982 0 2037.57230640 0 -1388.82344975 0 4479
0.06550000 0.06550280 31307.78938844 0 1188.16826241 0 9029.76902934 0 399.28481950 0 1999.07137951 0 4636
0.06650000 0.06648880 31070.41277496 0 511.50650837 0 9149.83040765 0 -955.69186675 0 3888.40687892 0 4653
0.06750000 0.06749660 29920.54771714 0 -441.36232323 0 8595.50493691 0 1283.17383066 0 2519.71815072 0 5220
0.06850000 0.06852730 30211.85858200 0 622.74837335 0 9546.85679903 0 -115.69720763 0 2016.53684991 0 5029
0.06950000 0.06949320 29581.12442438 0 1068.93402241 0 9116.86570534 0 -1219.04589593 0 3305.47758118 0 5040
0.07050000 0.07048030 28637.87917682 0 401.43669727 0 11171.63985240 0 -826.18046065 0 895.47334140 0 5475
0.07150000 0.07148790 27795.69199701 0 922.29876610 0 10462.56372313 0 -270.40173095 0 -346.62038472 0 5509
0.07250000 0.07249820 27714.40615991 0 369.13656160 0 12437.28230523 0 -232.09852636 0 94.20347477 0 5916
0.07350000 0.07351270 26949.00114244 0 94.43986277 0 11736.13703736 0 -209.76579184 0 730.32688339 0 5721
0.07450000 0.07449140 26699.43165339 0 -23.54707901 0 10959.65957073 0 2126.73408205 0 1605.41725191 0 6028
0.07550000 0.07549160 26727.99154210 0 -216.32358167 0 10371.02927981 0 1081.30484805 0 644.21003126 0 6183
0.07650000 0.07648840 26686.68954920 0 457.56676470 0 9379.35305174 0 715.47024897 0 -1.35358494 0 6330
0.07750000 0.07749960 26508.62962765 0 1446.85494670 0 11391.77068693 0 -1432.22349602 0 -119.49677128 0 6583
0.07850000 0.07848650 24864.34895795 0 211.93194956 0 10829.50337021 0 -907.83537939 0 1978.77188938 0 6549
0.07950000 0.07947320 24804.26334593 0 -595.10789337 0 10734.24515679 0 955.63584543 0 -2959.60634431 0 6828
0.08050000 0.08048110 24514.27062978 0 660.88461244 0 10209.42424800 0 856.32871855 0 -753.63285103 0 7147
0.08150000 0.08149960 23913.96373821 0 370.24160960 0 9339.14951609 0 445.46286418 0 -648.42041793 0 7386
0.08250000 0.08250610 23532.90891537 0 472.33112871 0 8856.70708832 0 1853.66859225 0 -439.23131615 0 7227
0.08350000 0.08350160 23245.88203382 0 122.05397978 0 7497.81659886 0 1028.86889237 0 249.15207529 0 7798
0.08450000 0.08449610 22854.17217557 0 194.37091337 0 7037.37626996 0 990.74144094 0 592.46280829 0 7371
0.08550000 0.08548940 21915.65029422 0 629.15018225 0 7052.52399555 0 -504.94981699 0 2133.42368675 0 8256
0.08650000 0.08650700 21114.43557013 0 210.93015654 0 6192.19030184 0 709.24309477 0 1646.70826024 0 8037
0.08750000 0.08749060 21089.28089892 0 -213.51592492 0 6032.41969364 0 734.52189166 0 1377.75100059 0 8155
0.08850000 0.08849210 21028.64605827 0 580.13152711 0 5767.29604982 0 -106.65338933 0 -753.15392367 0 8718
0.08950000 0.08949900 20549.71869373 0 678.05679476 0 6297.79598263 0 -1048.89926048 0 162.12130673 0 8571
0.09050000 0.09049190 19843.52052247 0 203.13111000 0 6794.50737019 0 -99.05349310 0 -30.82523711 0 8932
0.09150000 0.09150830 19271.99321106 0 -243.64990288 0 6075.97352393 0 1196.59342958 0 195.34194959 0 9285
0.09250000 0.09250820 19983.13443998 0 104.27885427 0 5770.97588163 0 465.33505443 0 -386.66574252 0 9204
0.09350000 0.09350330 19111.72829710 0 123.34137169 0 4988.84136012 0 -12.43706261 0 -826.92960850 0 9349
0.09450000 0.09448040 19625.91613963 0 628.24395502 0 6016.94243087 0 -970.18601027 0 -323.03760584 0 9564
0.09550000 0.09549270 18285.13921036 0 643.40815747 0 5868.51888616 0 -538.02436503 0 -864.61438165 0 10155
0.09650000 0.09649430 18211.76226551 0 11.51490775 0 6786.10417217 0 313.82704173 0 -599.43251959 0 9913
0.09750000 0.09749140 17860.14609718 0 -35.35670284 0 5955.85722275 0 672.22178980 0 -956.49044518 0 10476
0.09850000 0.09850240 17791.27282710 0 427.24714747 0 6190.85018398 0 234.33498534 0 -920.34680756 0 10575
0.09950000 0.09950330 17226.99533359 0 351.50632260 0 6006.55102521 0 33.19406019 0 -523.18530593 0 10882
0.10050000 0.10051200 17100.89244036 0 142.52592770 0 5999.56483705 0 309.33105618 0 -719.08527181 0 10875
0.10150000 0.10150300 16471.03704855 0 306.84305049 0 5613.97338573 0 33.92310627 0 -648.74885665 0 11118
0.10250000 0.10250800 16485.53668435 0 379.30717735 0 5721.38053643 0 671.42211292 0 51.49117259 0 11575
0.10350000 0.10349800 15480.99752179 0 -149.63184770 0 5280.69046904 0 457.69308729 0 585.66116095 0 11364
0.10450000 0.10450100 15994.52628997 0 98.36003703 0 4766.24998134 0 558.02727170 0 -140.44105582 0 12093
0.10550000 0.10551000 15861.17357883 0 338.98390986 0 4833.98085587 0 403.81815261 0 656.75331469 0 12067
0.10650000 0.10649700 15783.29295923 0 37.46112726 0 4594.18763642 0 -175.38627658 0 703.79254986 0 12054
0.10750000 0.10749900 15600.83920865 0 -84.05285094 0 4521.98604084 0 -26.54367041 0 375.42413094 0 12807
0.10850000 0.10850100 15244.38982839 0 185.24822584 0 4902.85412596 0 100.98875510 0 654.54212023 0 12736
0.10950000 0.10950300 15017.66825031 0 462.29452474 0 4910.49938847 0 248.63799729 0 1574.50666466 0 12933
0.11050000 0.11050200 14969.22628523 0 66.85617302 0 5177.92979254 0 261.61846671 0 1597.96971170 0 13428
0.11150000 0.11150900 15238.12862202 0 -142.59513051 0 5289.47812710 0 278.40618899 0 1123.37026875 0 13453
0.11250000 0.11250000 14875.85741828 0 115.58296807 0 4646.35337161 0 371.37741440 0 2051.87421990 0 13668
0.11350000 0.11349100 14890.02751691 0 -72.59110852 0 4550.37017639 0 82.12538798 0 1990.40455174 0 13791
0.11450000 0.11448600 14824.22992715 0 234.09112782 0 4417.28109500 0 149.13204965 0 2007.41965467 0 14205
0.11550000 0.11549300 14224.69195566 0 492.74485840 0 4697.01422035 0 -77.66828781 0 1270.79421736 0 14776
0.11650000 0.11649800 14347.38963140 0 91.10615484 0 4197.77638111 0 43.16805210 0 1277.90123582 0 14553
0.11750000 0.11747300 14268.95978316 0 -184.59903760 0 4690.85187514 0 227.18073321 0 717.43319209 0 14568
0.11850000 0.11849100 13897.57138419 0 166.56017251 0 3978.20575978 0 -310.86230559 0 362.77210024 0 16015
0.11950000 0.11950300 13773.22602257 0 203.75942755 0 4270.71394305 0 91.38692051 0 700.83110909 0 15270
0.12050000 0.12050700 13708.19735289 0 -108.20045653 0 3844.23791257 0 218.74787684 0 -222.26294007 0 15999
0.12150000 0.12150000 13759.05592394 0 167.98597003 0 3956.44532149 0 -142.79285281 0 -428.15776853 0 15670
0.12250000 0.12250700 13481.47577481 0 281.60929035 0 3794.77438224 0 -256.39090862 0 -1342.36969230 0 16887
0.12350000 0.12352200 13211.47498076 0 250.19451123 0 4154.93654804 0 -513.27722147 0 -964.59486283 0 16407
0.12450000 0.12449800 13283.97315980 0 66.73468365 0 4144.83074126 0 531.35672948 0 -930.17800002 0 16306
0.12550000 0.12549900 13422.48862005 0 -285.54725962 0 3909.50824285 0 293.40781976 0 -611.91099405 0 17523
0.12650000 0.12650100 13319.78286641 0 -104.86707814 0 3675.00958739 0 249.16965061 0 -1695.00742588 0 17154
0.12750000 0.12750600 13166.98746180 0 353.95917766 0 3349.39390236 0 -191.58852113 0 -1042.26348018 0 18007
0.12850000 0.12850300 12960.14796010 0 216.73001086 0 4006.05165127 0 2.22992316 0 -214.37821387 0 17496
0.12950000 0.12949900 12879.85073453 0 4.77362063 0 3640.19947688 0 417.01831348 0 -545.18081407 0 18405
0.13050000 0.13049000 12921.48226461 0 118.81792470 0 3736.65500871 0 489.37698844 0 -311.71470843 0 18100
0.13150000 0.13148800 12812.07592170 0 -48.04663032 0 3035.01543508 0 508.17049367 0 150.57322557 0 19059
0.13250000 0.13249300 12560.96859249 0 124.46948729 0 3282.11339530 0 516.52645804 0 576.57801788 0 18957
0.13350000 0.13349100 12279.10446005 0 355.25316031 0 2888.98652718 0 -415.57164527 0 1238.08216022 0 19468
0.13450000 0.13450700 11773.92396704 0 205.41699956 0 2769.92474497 0 107.33135715 0 1068.06953655 0 19953
0.13550000 0.13551000 11945.72268221 0 87.42533441 0 3102.09821983 0 303.23791377 0 772.95361575 0 19956
0.13650000 0.13649900 11879.37586382 0 81.86823914 0 3150.75987637 0 -303.82558840 0 431.60802278 0 19723
0.13750000 0.13749600 11521.05910622 0 154.13881783 0 2871.96043968 0 -212.75579250 0 85.25335487 0 20946
0.13850000 0.13851100 11413.30044919 0 110.22359511 0 3077.91019101 0 -261.25048353 0 128.12185767 0 20955
0.13950000 0.13949800 11178.34044168 0 52.02765911 0 2986.32082483 0 -118.34668653 0 -479.55678056 0 20506
0.14050000 0.14048300 11554.34236114 0 -34.00823671 0 2996.81109164 0 663.78453960 0 -665.82437473 0 21447
0.14150000 0.14148400 11194.26807192 0 171.02540126 0 2727.50232567 0 -91.28399507 0 -806.23906758 0 21771
0.14250000 0.14249400 10865.38996884 0 161.95434122 0 2752.58010487 0 257.55637177 0 183.03593292 0 22470
0.14350000 0.14350900 11023.89735118 0 209.60102325 0 2884.53777529 0 -244.00470458 0 -379.30498043 0 22519
0.14450000 0.14449900 10317.86394852 0 328.94181361 0 2926.27915110 0 -318.07916978 0 -116.90111678 0 22218
0.14550000 0.14550500 10279.68157423 0 102.22660658 0 3086.62095707 0 197.51579650 0 -183.77739157 0 23559
0.14650000 0.14650700 10078.31238966 0 -78.40689047 0 3167.42347298 0 190.61858338 0 11.37672182 0 23044
0.14750000 0.14750500 10215.46576292 0 114.94696132 0 2724.25089218 0 220.19893888 0 -539.53254685 0 23649
0.14850000 0.14849900 9919.81599189 0 213.84436364 0 3316.28640060 0 -414.19857370 0 -183.87625273 0 23640
0.14950000 0.14949500 9988.39267851 0 56.78947133 0 2891.93039264 0 -4.51816341 0 -344.50036221 0 24457
0.15050000 0.15050000 10203.89900799 0 -237.50952681 0 2935.67096065 0 225.54622881 0 -666.86131838 0 24591
0.15150000 0.15149900 9961.18389223 0 81.50135442 0 2721.03241241 0 -9.69592843 0 -964.66296718 0 25020
0.15250000 0.15250500 10022.38993065 0 261.27135422 0 2871.36727276 0 -184.76380619 0 -843.90846234 0 25297
0.15350000 0.15350100 9880.41433004 0 88.06617437 0 3083.53429217 0 -212.32519725 0 -741.52345822 0 25452
0.15450000 0.15450400 9568.37557672 0 234.93144763 0 3081.12867078 0 313.41512026 0 -677.90520766 0 26061
0.15550000 0.15549900 9682.80186930 0 -82.52566581 0 3118.82772388 0 188.26898330 0 -701.11780644 0 26128
0.15650000 0.15649500 9497.53606814 0 53.43258594 0 2918.82062631 0 261.83046896 0 -589.37943877 0 26331
0.15750000 0.15749700 9232.32454774 0 284.40706099 0 3283.15692969 0 -54.28421986 0 -63.38405947 0 27345
0.15850000 0.15849900 8969.06828126 0 136.66895360 0 2957.92570470 0 -132.31357057 0 70.16593459 0 26980
0.15950000 0.15949700 9166.20840537 0 71.11763795 0 3248.39075747 0 268.34102513 0 -362.09984440 0 27777
0.16050000 0.16050000 8879.34629241 0 209.54610039 0 3284.77166186 0 -206.02005259 0 -183.51595874 0 28224
0.16150000 0.16150500 8569.83399079 0 180.84780606 0 3380.75485708 0 -281.50933074 0 411.95881935 0 28075
0.16250000 0.16249700 8446.04884237 0 17.97350689 0 3133.62394314 0 562.42549457 0 494.69571849 0 28590
0.16350000 0.16349900 8652.95425151 0 -255.61649625 0 2769.05696374 0 915.14671090 0 260.44092053 0 29163
0.16450000 0.16449100 8729.51672240 0 -34.28175257 0 2471.83639883 0 234.56236599 0 434.26738780 0 28996
0.16550000 0.16550500 8624.29550164 0 137.15227479 0 2177.32902336 0 4.30104235 0 805.62063615 0 30777
0.16650000 0.16650700 8487.57052672 0 170.14114317 0 2227.60541206 0 -139.53263167 0 532.79131466 0 29211
0.16750000 0.16749900 8400.22120556 0 191.06126165 0 2403.58924939 0 -208.70578059 0 446.16038454 0 30922
0.16850000 0.16850800 8042.89305949 0 78.88471938 0 2337.05569326 0 30.79755599 0 286.47325909 0 30867
0.16950000 0.16949900 8132.39535688 0 124.12017788 0 2328.04834374 0 37.01240747 0 172.88179403 0 30852
0.17050000 0.17049200 7956.51038071 0 3.34532961 0 2154.31634380 0 164.01394858 0 76.07717248 0 31257
0.17150000 0.17149500 7989.68378990 0 28.80846959 0 2150.99900288 0 96.58240365 0 273.09734506 0 32608
0.17250000 0.17250900 7827.60642147 0 25.51529473 0 1751.55600553 0 -9.51117891 0 303.48726356 0 32361
0.17350000 0.17350400 7905.67377880 0 63.44766015 0 2078.88528388 0 96.60898632 0 90.62601917 0 32508
0.17450000 0.17449800 7858.14353324 0 -48.30828284 0 1801.01953586 0 286.00751321 0 162.24872777 0 32791
0.17550000 0.17549800 7956.96074818 0 85.17942870 0 1826.54768254 0 151.41354538 0 168.67470273 0 33633
0.17650000 0.17650100 7980.08327347 0 53.08712114 0 1596.55270184 0 -281.21933803 0 171.10229327 0 33984
0.17750000 0.17750300 7701.63534310 0 121.08843585 0 1860.59985755 0 -105.13652970 0 9.53141249 0 34069
0.17850000 0.17849800 7532.69261680 0 108.11225041 0 1946.62004543 0 -234.40968043 0 -128.54805909 0 34536
