### header ###
fiducial parameters:
Omega_m = 0.31
Omega_nu = 0
Omega_de = 0.69
Omega_k = 0
H_0 = 100
w_de = -1
zeff = 0
beta = 0
fgrowth = 0
b_1 = 2
gamma = 0.55
Lx = 3500 Ly = 3500 Lz = 3500
nx = 700 ny = 700 nz = 700
xoffset = -983.599254 yoffset = -42.9823471 zoffset = 800.977702
bins = 400 dk = 0.001
kx_ny = 0.628318531 ky_ny = 0.628318531 kz_ny = 0.628318531
############################
A(data) = 9.05985133 (not used)
A(ran) = 9.03727609 (used)
Ngal = 501883
weighted Ngal = 0
Nran = 25229228
weighted Nran = 0
SN(data) = 6778.66501
SN(ran) = 134.152137
SN(data+ran) = 6912.81715
############################
13 columns: k_central k_mean P_0(k) sigma^{lin}_{P_0(k)} P^img_1(k) sigma^{lin}_{P_1(k)} P_2(k) sigma^{lin}_{P_2(k)} P^img_3(k) sigma^{lin}_{P_3(k)} P_4(k) sigma^{lin}_{P_4(k)} N_modes
### header ###
0.00050000 0 0 0 0 0 0 0 0 0 0 0 0
0.00150000 0.00179520 8033.25958933 0 9352.79235524 0 21851.72008179 0 11879.15617237 0 -34.73277912 0 3
0.00250000 0.00253879 25226.51031596 0 -25827.58612761 0 -14249.95647260 0 70414.62530964 0 -3494.47813701 0 6
0.00350000 0.00331552 43169.04070750 0 -14688.24091859 0 6693.18567270 0 64644.64902411 0 10512.66435868 0 7
0.00450000 0.00420575 65309.98458536 0 -5407.05699201 0 14234.68791671 0 -17754.03512605 0 7687.63001306 0 24
0.00550000 0.00557378 67444.28703792 0 9790.31886573 0 22410.61513473 0 13729.72711515 0 23354.40961092 0 45
0.00650000 0.00659388 62716.52699890 0 2796.59528720 0 4666.74073832 0 18860.40127644 0 23129.44556445 0 40
0.00750000 0.00754703 62036.47211039 0 -13327.91145012 0 20411.86230783 0 19220.25587421 0 19406.44437946 0 57
0.00850000 0.00846663 66101.42303985 0 -21.49296394 0 15007.78213499 0 15340.94422138 0 31642.26962354 0 75
0.00950000 0.00948925 70455.81745682 0 -5345.98276846 0 3730.27297204 0 9878.38218411 0 22982.58182904 0 112
0.01050000 0.01054430 74139.82340915 0 1496.82376737 0 9062.68979337 0 -8079.91106909 0 28349.97352946 0 105
0.01150000 0.01145670 71390.16520059 0 2103.52368018 0 -3934.90457466 0 19828.69134949 0 16539.80047291 0 144
0.01250000 0.01249090 92744.39399017 0 -3163.13948967 0 9443.22834130 0 926.63877073 0 11452.95475621 0 169
0.01350000 0.01339930 70633.76753263 0 -1796.39503081 0 -924.01345788 0 -8063.95048513 0 15158.49047080 0 180
0.01450000 0.01448870 73235.35370280 0 2417.49571827 0 5110.18793343 0 2964.45054082 0 11741.95886083 0 267
0.01550000 0.01550050 86699.69354438 0 1357.34166473 0 3722.91330841 0 7622.98580342 0 11054.76400014 0 238
0.01650000 0.01653350 79281.81168020 0 -3245.34803087 0 7809.66861444 0 -4805.45392088 0 -11968.90013036 0 315
0.01750000 0.01747870 81971.05473956 0 4087.32650380 0 8754.47367131 0 -9662.79896263 0 -6983.78254034 0 297
0.01850000 0.01844180 69629.00867862 0 8313.23437529 0 12554.81723185 0 -7864.51458534 0 6285.85575224 0 388
0.01950000 0.01947590 66793.45111247 0 -588.43256861 0 13220.37248455 0 3387.26870862 0 7605.09193468 0 399
0.02050000 0.02045430 69484.23201200 0 -63.62495115 0 13387.44783351 0 11815.77518857 0 -20677.68896430 0 462
0.02150000 0.02154770 66452.16044237 0 4845.63548738 0 18838.65182273 0 -12849.75300566 0 -9684.59235463 0 571
0.02250000 0.02255340 60913.18971823 0 4517.77894955 0 21335.33532474 0 -7279.78381769 0 -1824.58144405 0 510
0.02350000 0.02348930 58162.98228103 0 -2003.49816226 0 21225.05021603 0 6361.74816420 0 -5882.86473795 0 555
0.02450000 0.02439640 59286.04498175 0 -2181.32740778 0 23390.65870044 0 8428.71518683 0 -11887.50444753 0 592
0.02550000 0.02547300 64433.30584764 0 -928.66103054 0 14879.70201869 0 4753.71658402 0 -4301.67945315 0 837
0.02650000 0.02652900 60533.89242699 0 -825.09079105 0 21880.27997050 0 4066.02741756 0 -3545.17193948 0 723
0.02750000 0.02749970 66128.66477985 0 1954.29826166 0 10663.04315731 0 -3928.02823223 0 5004.00007029 0 826
0.02850000 0.02848090 59163.67684320 0 469.06321837 0 18766.15364369 0 -1047.15820572 0 4567.62693992 0 831
0.02950000 0.02946900 64196.69815424 0 3968.62721249 0 23388.46178592 0 1823.19738791 0 -816.80512795 0 996
0.03050000 0.03053250 58436.27844686 0 705.67969943 0 22986.97565807 0 -974.98187466 0 9905.21749493 0 1041
0.03150000 0.03150510 58209.66671451 0 -150.83246149 0 27879.83382298 0 3527.39890104 0 5848.30727261 0 1036
0.03250000 0.03246190 56279.89700342 0 4139.56913100 0 20902.32347359 0 2237.84303371 0 9084.77976883 0 1059
0.03350000 0.03345080 56531.99294416 0 -1099.21519364 0 27640.26029498 0 2144.95748796 0 9565.26694268 0 1302
0.03450000 0.03451200 53373.70863557 0 1469.17559818 0 23060.24275719 0 163.00117099 0 4800.99418441 0 1339
0.03550000 0.03553350 54959.00215051 0 2937.41750769 0 27572.15594498 0 -562.58367241 0 3368.38622835 0 1365
0.03650000 0.03647120 48858.50007601 0 941.75573952 0 26052.98955698 0 -3760.26085519 0 472.93747712 0 1308
0.03750000 0.03744890 49003.93581699 0 1821.75840890 0 25885.03544221 0 1615.99539530 0 -1184.78501405 0 1579
0.03850000 0.03847530 45861.57913864 0 54.66132023 0 26186.89149674 0 2348.56752533 0 8.03006308 0 1662
0.03950000 0.03950240 48415.05288090 0 9.97097115 0 23824.65916313 0 5123.16071365 0 -407.92857967 0 1683
0.04050000 0.04050350 45912.98693832 0 1068.58800837 0 20556.19959155 0 -1191.63938734 0 -6613.65736721 0 1822
0.04150000 0.04152450 46998.04301791 0 1097.85969739 0 24104.32638105 0 -812.11801083 0 -3582.80508514 0 1887
0.04250000 0.04250150 41773.89014395 0 2330.92630176 0 23690.64737763 0 -2231.39508960 0 -1642.56707638 0 1920
0.04350000 0.04349210 40715.19703856 0 825.95417845 0 26189.08841126 0 4862.91422005 0 783.15279139 0 2005
0.04450000 0.04448520 41602.53081168 0 -215.56784308 0 21670.58447993 0 4905.61125367 0 -512.99711486 0 2151
0.04550000 0.04548030 42126.71461526 0 1033.61093236 0 22599.87932031 0 1363.38317965 0 -3268.29480299 0 2274
0.04650000 0.04648670 40277.79135837 0 556.89256536 0 19109.31169113 0 1072.51279615 0 285.79001868 0 2311
0.04750000 0.04749250 37834.05349619 0 322.81352056 0 18949.81569725 0 -179.91631431 0 2179.62479903 0 2568
0.04850000 0.04851840 37566.24961666 0 158.96214365 0 18830.52323902 0 1330.36355447 0 466.55324353 0 2493
0.04950000 0.04949480 36181.42455133 0 871.47314877 0 16446.87098887 0 3074.58186552 0 2077.84174949 0 2644
0.05050000 0.05050630 37234.95490761 0 633.70987833 0 15676.19337656 0 836.40160543 0 -1152.69907754 0 2829
0.05150000 0.05149060 35973.26690092 0 1401.12617104 0 15226.59482081 0 1164.85899939 0 1254.15258990 0 2784
0.05250000 0.05249300 33973.85499966 0 651.58177792 0 16217.95249627 0 -1155.75278872 0 -2845.03725229 0 3055
0.05350000 0.05348950 33427.26266801 0 689.64332192 0 15294.47947936 0 -695.23666628 0 904.68939780 0 3009
0.05450000 0.05448610 32557.06482812 0 -818.13535969 0 15826.24263802 0 2645.53544506 0 -1091.48534992 0 3336
0.05550000 0.05550870 34212.54976185 0 -579.41752989 0 13803.54344289 0 1181.26995083 0 -1410.10056684 0 3349
0.05650000 0.05647670 34408.07515380 0 663.65272473 0 14366.39294196 0 -42.29972163 0 -1864.31264308 0 3324
0.05750000 0.05747970 33985.60849232 0 408.60083551 0 13661.18338224 0 -1169.93387192 0 -385.75621991 0 3639
0.05850000 0.05849280 32329.90386714 0 810.63838890 0 15153.65725887 0 1761.60688944 0 1392.78888045 0 3846
0.05950000 0.05951020 32773.68059942 0 804.60016935 0 14886.84199087 0 -44.65613214 0 -618.36992272 0 3787
0.06050000 0.06049470 31938.08416316 0 -182.05940442 0 14338.05274470 0 1924.50810082 0 -94.79202817 0 3930
0.06150000 0.06148310 32642.08541990 0 531.10078894 0 13569.13266401 0 769.73623444 0 -1444.05388069 0 4083
0.06250000 0.06249100 30933.76469205 0 84.03879068 0 12946.30739865 0 321.04610283 0 2739.10203431 0 4303
0.06350000 0.06350600 31386.21923667 0 -283.50412912 0 11708.12637728 0 2631.80472934 0 931.59171451 0 4470
0.06450000 0.06451750 31303.28571368 0 593.62936990 0 10978.03676066 0 9.80011710 0 505.22992359 0 4479
0.06550000 0.06550280 32067.04304526 0 -563.80735380 0 9457.92569942 0 1133.68478240 0 1723.21580827 0 4636
0.06650000 0.06648880 31440.92240813 0 -725.85067006 0 8304.61148581 0 1330.17681674 0 -886.07713802 0 4653
0.06750000 0.06749660 30948.15448213 0 676.67493553 0 8024.26322439 0 -1838.01557632 0 -1066.51412107 0 5220
0.06850000 0.06852730 30135.29611111 0 1914.20457174 0 10196.79198953 0 -1015.28427146 0 -478.52093536 0 5029
0.06950000 0.06949320 29692.17845318 0 416.42844193 0 10555.31745401 0 21.76054813 0 -788.31993433 0 5040
0.07050000 0.07048030 29111.09456362 0 -709.83406478 0 9360.22891088 0 3328.88570535 0 -424.87557825 0 5475
0.07150000 0.07148790 29033.32378975 0 -500.23633690 0 7534.94445418 0 2126.15189970 0 -1288.73202439 0 5509
0.07250000 0.07249820 28959.94684490 0 1462.99128382 0 7605.10291926 0 -1621.66343476 0 -500.62958460 0 5916
0.07350000 0.07351270 27733.51931620 0 1201.56944096 0 8314.26692511 0 -1141.31906035 0 781.12613775 0 5721
0.07450000 0.07449140 26690.75384105 0 -17.17712537 0 7955.32404687 0 900.54491856 0 306.26636043 0 6028
0.07550000 0.07549160 26601.66895742 0 -331.55943725 0 8113.06250914 0 989.86157668 0 -716.28420580 0 6183
0.07650000 0.07648840 26406.14356547 0 283.09330611 0 5828.24944307 0 742.10783748 0 -1724.24835809 0 6330
0.07750000 0.07749960 25312.51951927 0 360.33901742 0 7472.45322077 0 -304.73401255 0 -571.48117620 0 6583
0.07850000 0.07848650 25268.91076612 0 832.38015341 0 6438.64017227 0 -466.27313693 0 -825.99482137 0 6549
0.07950000 0.07947320 25052.18514909 0 153.54015863 0 8575.93042857 0 -456.15744404 0 -1641.85307916 0 6828
0.08050000 0.08048110 23543.01472214 0 710.22182019 0 7333.30065530 0 -438.97647407 0 -871.70272634 0 7147
0.08150000 0.08149960 23805.32631538 0 860.86864240 0 9602.48267459 0 350.70005498 0 -469.76623101 0 7386
0.08250000 0.08250610 23329.91401406 0 -255.65384380 0 8929.55677368 0 227.70250041 0 -1313.38140526 0 7227
0.08350000 0.08350160 22872.40656605 0 270.53134891 0 8463.30560589 0 765.15237230 0 -159.79697117 0 7798
0.08450000 0.08449610 22259.46741601 0 381.91930871 0 9135.90196962 0 -589.75950498 0 -214.93513170 0 7371
0.08550000 0.08548940 21774.82807372 0 579.39336383 0 8517.16296526 0 370.71065085 0 646.08180243 0 8256
0.08650000 0.08650700 21650.92209500 0 269.97223416 0 9225.08571441 0 637.64565069 0 -373.06684167 0 8037
0.08750000 0.08749060 21605.00658161 0 12.96926516 0 7968.46159568 0 538.45386182 0 318.78657625 0 8155
0.08850000 0.08849210 21048.52813464 0 -85.01037613 0 8307.53338212 0 463.37650514 0 -609.00667305 0 8718
0.08950000 0.08949900 21080.05385795 0 491.40144517 0 7376.74463986 0 363.04012381 0 -595.49784569 0 8571
0.09050000 0.09049190 20263.79026943 0 507.07533179 0 7641.95616027 0 -1136.35403354 0 -1072.40295043 0 8932
0.09150000 0.09150830 19734.44371674 0 386.17912596 0 7772.61765112 0 816.98088111 0 -1176.84316807 0 9285
0.09250000 0.09250820 19240.57733348 0 47.03747763 0 6978.36714606 0 135.56390560 0 -1634.80098356 0 9204
0.09350000 0.09350330 18840.07981717 0 765.83451426 0 7911.83612402 0 -193.76895879 0 -1554.05339052 0 9349
0.09450000 0.09448040 18198.47093269 0 612.42177667 0 7211.75635969 0 -267.82584868 0 -1017.30543282 0 9564
0.09550000 0.09549270 18030.95620082 0 -371.03249882 0 7631.90527636 0 731.15951399 0 -791.67462280 0 10155
0.09650000 0.09649430 17959.99586195 0 -274.64836671 0 6148.98797787 0 1153.03959929 0 -2866.70981399 0 9913
0.09750000 0.09749140 18037.87648155 0 358.01028803 0 5623.47504101 0 280.86893016 0 -934.07093254 0 10476
0.09850000 0.09850240 18132.12411430 0 156.73117696 0 5838.99235506 0 -253.54810124 0 -1485.18012043 0 10575
0.09950000 0.09950330 17473.70883377 0 321.65135278 0 6339.22979041 0 77.61984585 0 -1602.49535560 0 10882
0.10050000 0.10051200 16987.31195987 0 13.13996541 0 5249.26360688 0 457.16802472 0 -1090.64393166 0 10875
0.10150000 0.10150300 17209.63970892 0 135.90332889 0 5440.96636757 0 1064.83018609 0 -389.28995691 0 11118
0.10250000 0.10250800 16921.18483293 0 327.99494345 0 4575.66764705 0 532.24757831 0 -638.40029083 0 11575
0.10350000 0.10349800 16568.03082444 0 86.91246472 0 4695.12487387 0 414.81920205 0 1202.59100621 0 11364
0.10450000 0.10450100 15849.42008617 0 278.54459460 0 4683.87667155 0 367.51084485 0 160.54062673 0 12093
0.10550000 0.10551000 15936.63759246 0 446.88316941 0 4494.73331627 0 -56.71818145 0 1190.50797637 0 12067
0.10650000 0.10649700 15442.77120921 0 183.12930179 0 4097.91563177 0 -576.74937721 0 837.98887617 0 12054
0.10750000 0.10749900 14805.66599949 0 102.46771795 0 4601.29465488 0 78.11975375 0 740.09216841 0 12807
0.10850000 0.10850100 14601.68248665 0 395.95759247 0 4327.58107530 0 473.39223842 0 19.92678358 0 12736
0.10950000 0.10950300 14656.60534956 0 51.07474744 0 4354.58115470 0 257.68489127 0 1043.83427406 0 12933
0.11050000 0.11050200 14781.17040263 0 -160.78777962 0 4166.69004070 0 856.89112867 0 110.83982963 0 13428
0.11150000 0.11150900 14880.03155586 0 -205.22147417 0 3687.00474065 0 -299.03082247 0 -41.36119975 0 13453
0.11250000 0.11250000 14385.06671535 0 311.14460911 0 3519.13850246 0 -44.86494887 0 807.13431025 0 13668
0.11350000 0.11349100 14420.87642196 0 391.27157380 0 4396.92668201 0 -626.31945790 0 443.38348459 0 13791
0.11450000 0.11448600 14151.97408517 0 14.68208956 0 3921.26173552 0 133.68664214 0 432.80973502 0 14205
0.11550000 0.11549300 14074.42300275 0 111.55931914 0 4831.27865102 0 400.51069780 0 -275.76330083 0 14776
0.11650000 0.11649800 14154.28084542 0 242.47784899 0 4561.05816552 0 -355.06971795 0 308.77963063 0 14553
0.11750000 0.11747300 13875.38254758 0 129.47735393 0 4786.87900864 0 -91.25862070 0 315.74275119 0 14568
0.11850000 0.11849100 13636.02871103 0 0.52932898 0 4665.96083367 0 40.74551446 0 21.37542901 0 16015
0.11950000 0.11950300 13831.44425725 0 46.86095555 0 4895.85695322 0 195.67148676 0 -108.15267364 0 15270
0.12050000 0.12050700 13500.03970247 0 -48.83664078 0 4295.89058340 0 411.09213657 0 29.00267683 0 15999
0.12150000 0.12150000 13639.10439135 0 80.69541633 0 4779.09094668 0 165.51883503 0 781.95766989 0 15670
0.12250000 0.12250700 13482.90376924 0 395.25567828 0 3964.58488978 0 -216.18517606 0 -549.54168939 0 16887
0.12350000 0.12352200 13226.41399947 0 -106.95370754 0 4218.17473239 0 417.50163467 0 82.56795641 0 16407
0.12450000 0.12449800 13344.05877182 0 -15.13289642 0 4005.74408324 0 31.33129637 0 13.04088457 0 16306
0.12550000 0.12549900 13177.86218866 0 160.12431143 0 3870.57891763 0 229.75222165 0 377.87698600 0 17523
0.12650000 0.12650100 12888.52854687 0 178.49930445 0 3855.38725375 0 133.47354144 0 25.77914416 0 17154
0.12750000 0.12750600 12890.06638703 0 116.38484187 0 3830.75984202 0 -15.69157178 0 130.23748635 0 18007
0.12850000 0.12850300 12934.99328889 0 146.86263696 0 3811.43797885 0 -82.92045135 0 -538.53954149 0 17496
0.12950000 0.12949900 12604.46749991 0 62.05086190 0 3727.96621180 0 434.02023492 0 502.04439754 0 18405
0.13050000 0.13049000 12695.52960661 0 -235.32030150 0 3924.75482960 0 102.17552832 0 95.20230195 0 18100
0.13150000 0.13148800 12573.38115951 0 187.84937263 0 3243.74428327 0 116.07288001 0 8.96967243 0 19059
0.13250000 0.13249300 12559.32090660 0 250.77229975 0 3691.85992173 0 -135.43648456 0 -99.08930280 0 18957
0.13350000 0.13349100 12501.32236338 0 165.60231778 0 3673.91113013 0 -223.77112188 0 251.55769669 0 19468
0.13450000 0.13450700 12181.45160981 0 88.68010214 0 3916.82396819 0 5.54827466 0 354.00091904 0 19953
0.13550000 0.13551000 12033.26972568 0 -3.55622242 0 3703.64636811 0 232.76528991 0 -565.98229917 0 19956
0.13650000 0.13649900 12066.88251778 0 256.16902025 0 4120.51089757 0 -339.05640804 0 -788.71757586 0 19723
0.13750000 0.13749600 11639.36295292 0 267.53695442 0 3954.41317557 0 -112.59296742 0 -199.32934943 0 20946
0.13850000 0.13851100 11482.72294791 0 141.53731617 0 4072.14582449 0 -117.05929463 0 -982.87758543 0 20955
0.13950000 0.13949800 11147.91317563 0 84.48267726 0 4049.73729643 0 10.32026957 0 -679.01355103 0 20506
0.14050000 0.14048300 11193.05976894 0 241.93411265 0 3877.07080002 0 439.78603707 0 -820.69806047 0 21447
0.14150000 0.14148400 10969.83128494 0 187.46161722 0 4005.49143807 0 -41.10339183 0 -700.47520894 0 21771
0.14250000 0.14249400 10538.84059514 0 199.91702407 0 4127.65086975 0 62.31855593 0 -142.54350302 0 22470
0.14350000 0.14350900 10695.33780070 0 -62.23661102 0 3877.72987438 0 525.80952032 0 266.09138467 0 22519
0.14450000 0.14449900 10730.35661809 0 -218.10527935 0 3383.57789223 0 619.01142176 0 -168.96689236 0 22218
0.14550000 0.14550500 10429.93954257 0 204.06150330 0 2952.36751098 0 166.71725190 0 457.18450158 0 23559
0.14650000 0.14650700 10451.74391914 0 54.43130328 0 3308.67409180 0 231.99856675 0 1156.92813798 0 23044
0.14750000 0.14750500 10325.90465565 0 124.25418967 0 3112.81916267 0 91.69921191 0 795.97947679 0 23649
0.14850000 0.14849900 10389.72502235 0 175.93989904 0 2882.43972193 0 -17.63045868 0 708.06115476 0 23640
0.14950000 0.14949500 9857.03915959 0 2.16636642 0 2803.53753707 0 -62.54516767 0 543.80774250 0 24457
0.15050000 0.15050000 10037.20811907 0 168.30671955 0 3152.74808401 0 5.19593351 0 372.53848372 0 24591
0.15150000 0.15149900 9779.00475597 0 254.08195146 0 2845.72928036 0 -262.48075566 0 343.27009008 0 25020
0.15250000 0.15250500 9443.43704818 0 114.48121544 0 3362.52046659 0 -108.04469529 0 -409.80804004 0 25297
0.15350000 0.15350100 9515.92424265 0 86.14530217 0 2830.58155477 0 -128.59309584 0 37.91775594 0 25452
0.15450000 0.15450400 9244.75908390 0 149.58790941 0 3288.60527769 0 178.75304807 0 -538.76582368 0 26061
0.15550000 0.15549900 9166.62581913 0 42.52765151 0 3172.15782376 0 -50.41501401 0 -230.55958774 0 26128
0.15650000 0.15649500 9017.97159839 0 81.27661006 0 3217.87561484 0 99.43905160 0 -380.77691316 0 26331
0.15750000 0.15749700 8874.91950966 0 195.64072996 0 3358.97244965 0 -100.41140596 0 -425.56870478 0 27345
0.15850000 0.15849900 8731.80151350 0 285.75816342 0 3370.66003488 0 -206.73295135 0 -360.65427465 0 26980
0.15950000 0.15949700 8547.33758614 0 -2.53762300 0 3296.36038594 0 441.63693755 0 182.02974607 0 27777
0.16050000 0.16050000 8632.19340933 0 -210.94992877 0 3027.15048111 0 581.92201244 0 -12.43486570 0 28224
0.16150000 0.16150500 8683.03001124 0 69.71875264 0 2707.47744985 0 313.27561619 0 268.80786947 0 28075
0.16250000 0.16249700 8634.30244727 0 229.93236864 0 2639.29620784 0 143.37064133 0 602.73448211 0 28590
0.16350000 0.16349900 8440.67738638 0 34.19607290 0 2395.48263482 0 -2.21624736 0 1172.36146246 0 29163
0.16450000 0.16449100 8497.01725914 0 -127.36392217 0 2498.43004905 0 295.75192755 0 607.37985786 0 28996
0.16550000 0.16550500 8283.99344307 0 129.41034804 0 2392.75846082 0 34.04931901 0 581.19153836 0 30777
0.16650000 0.16650700 8377.62593976 0 120.32281114 0 2249.22305090 0 -6.24054439 0 1013.35977435 0 29211
0.16750000 0.16749900 8286.06952729 0 82.12824397 0 2725.88759350 0 -416.21534122 0 353.06063962 0 30922
0.16850000 0.16850800 8049.69250991 0 220.60976189 0 2645.32673818 0 -179.67135834 0 512.68075917 0 30867
0.16950000 0.16949900 8076.38502129 0 40.12884055 0 2998.50271582 0 43.94499091 0 334.98662390 0 30852
0.17050000 0.17049200 8089.40173980 0 -15.92763024 0 2978.03845710 0 151.14662026 0 617.19677037 0 31257
0.17150000 0.17149500 8008.46740902 0 -31.88975204 0 2764.86085701 0 238.66620230 0 554.66379558 0 32608
0.17250000 0.17250900 8090.08278330 0 -22.06811616 0 2501.86822027 0 398.68176647 0 701.69559495 0 32361
0.17350000 0.17350400 8183.02325191 0 -44.60900833 0 2447.18701796 0 284.22691400 0 1066.19337155 0 32508
0.17450000 0.17449800 7928.06033772 0 100.91834399 0 2345.89827419 0 -85.90276280 0 1190.85948269 0 32791
0.17550000 0.17549800 7970.77934049 0 200.73537472 0 2365.39589052 0 -202.79168671 0 1157.49933576 0 33633
0.17650000 0.17650100 7880.24449327 0 118.01934627 0 2268.46802206 0 333.55423563 0 829.84601252 0 33984
0.17750000 0.17750300 7786.49116629 0 -11.85531965 0 2350.10536549 0 121.75519941 0 1285.96391210 0 34069
0.17850000 0.17849800 7592.96496656 0 40.43234429 0 2131.21578766 0 34.51495505 0 986.91990814 0 34536
