### header ###
fiducial parameters:
Omega_m = 0.31
Omega_nu = 0
Omega_de = 0.69
Omega_k = 0
H_0 = 100
w_de = -1
zeff = 0
beta = 0
fgrowth = 0
b_1 = 2
gamma = 0.55
Lx = 3500 Ly = 3500 Lz = 3500
nx = 700 ny = 700 nz = 700
xoffset = -983.599254 yoffset = -42.9823471 zoffset = 800.977702
bins = 400 dk = 0.001
kx_ny = 0.628318531 ky_ny = 0.628318531 kz_ny = 0.628318531
############################
A(data) = 9.07571922 (not used)
A(ran) = 9.06845456 (used)
Ngal = 503552
weighted Ngal = 0
Nran = 25229228
weighted Nran = 0
SN(data) = 6711.11026
SN(ran) = 134.61496
SN(data+ran) = 6845.72522
############################
13 columns: k_central k_mean P_0(k) sigma^{lin}_{P_0(k)} P^img_1(k) sigma^{lin}_{P_1(k)} P_2(k) sigma^{lin}_{P_2(k)} P^img_3(k) sigma^{lin}_{P_3(k)} P_4(k) sigma^{lin}_{P_4(k)} N_modes
### header ###
0.00050000 0 0 0 0 0 0 0 0 0 0 0 0
0.00150000 0.00179520 35839.03542397 0 -21611.26778799 0 -34927.97497407 0 43142.89742476 0 -13469.50259069 0 3
0.00250000 0.00253879 44378.33230298 0 3159.16307439 0 11955.16941463 0 -34419.49910928 0 17686.37015895 0 6
0.00350000 0.00331552 33852.80500981 0 17011.47801955 0 -10203.95393085 0 -32349.56625206 0 39495.79963630 0 7
0.00450000 0.00420575 43586.67415704 0 -12682.67765669 0 -25082.61241514 0 -3696.87987140 0 -55.83403320 0 24
0.00550000 0.00557378 53628.66056518 0 -9863.05870536 0 -19768.71558319 0 -26137.35107440 0 -26124.05974158 0 45
0.00650000 0.00659388 76450.53809736 0 -4082.32852328 0 -22483.11331377 0 -28800.67054248 0 -19384.03585139 0 40
0.00750000 0.00754703 79818.62774225 0 -14291.25846550 0 -22293.95897392 0 -5524.72373350 0 -12175.73963206 0 57
0.00850000 0.00846663 70815.67205458 0 5603.17555088 0 -5222.79078696 0 -33305.33391236 0 -49485.82901613 0 75
0.00950000 0.00948925 78668.43314726 0 -2475.12078604 0 -4838.01219401 0 -11069.48332740 0 -19528.48298084 0 112
0.01050000 0.01054430 80471.66058221 0 5083.20982317 0 16236.73611539 0 -9081.94574910 0 -17244.35095827 0 105
0.01150000 0.01145670 80282.39639663 0 1859.72109174 0 2549.34354297 0 -5656.67041935 0 -27021.71901293 0 144
0.01250000 0.01249090 84720.82279385 0 1818.27629939 0 25571.64558646 0 -3481.83489397 0 -26802.68663565 0 169
0.01350000 0.01339930 77508.02289976 0 2530.58189300 0 21279.75338748 0 -13053.51682704 0 -22623.38630563 0 180
0.01450000 0.01448870 75396.12897528 0 283.37231425 0 35724.90571485 0 6597.96041299 0 -482.50064601 0 267
0.01550000 0.01550050 76383.86174179 0 560.40653013 0 26848.71199477 0 11822.80531503 0 -1421.32680002 0 238
0.01650000 0.01653350 82121.43353820 0 1.28115267 0 24713.20123923 0 6382.04765433 0 9353.95671993 0 315
0.01750000 0.01747870 80260.42725147 0 -1844.80404217 0 21682.99704694 0 4427.52970122 0 17662.09425354 0 297
0.01850000 0.01844180 85092.10134710 0 -1985.70315467 0 27619.93883571 0 15427.06327042 0 3921.79997957 0 388
0.01950000 0.01947590 76120.01230839 0 7198.75062576 0 23706.57500788 0 -6884.60283450 0 12640.82643516 0 399
0.02050000 0.02045430 78591.76083064 0 8097.34358577 0 33469.00404382 0 -7468.18022203 0 19180.49172146 0 462
0.02150000 0.02154770 73352.00986361 0 -4894.92326455 0 25722.57361373 0 11488.10538847 0 19916.56793014 0 571
0.02250000 0.02255340 76960.88133949 0 -2127.92041589 0 34801.32285221 0 10872.20040384 0 5159.34389573 0 510
0.02350000 0.02348930 78630.42652613 0 2648.41340308 0 15465.17973727 0 4465.36056919 0 6454.23826534 0 555
0.02450000 0.02439640 72686.78414809 0 164.70377974 0 19277.59534308 0 -9369.49989014 0 6778.48087879 0 592
0.02550000 0.02547300 69158.42958923 0 6045.19475155 0 23932.19812870 0 -2410.00423977 0 2172.73747202 0 837
0.02650000 0.02652900 61716.71120255 0 1977.60752468 0 25226.62016168 0 -1470.92214522 0 2463.65289226 0 723
0.02750000 0.02749970 60751.38696410 0 3428.63660896 0 26821.25056332 0 3631.04932792 0 -6928.16764936 0 826
0.02850000 0.02848090 58408.92686113 0 4058.52495449 0 27917.18136976 0 3458.63547668 0 -3902.66485414 0 831
0.02950000 0.02946900 55528.88177603 0 1982.44073662 0 28433.23658963 0 -2777.19653202 0 -1099.44586967 0 996
0.03050000 0.03053250 51009.60892461 0 1980.90289646 0 24442.43152510 0 9869.89110951 0 5668.40194287 0 1041
0.03150000 0.03150510 50590.87701781 0 -2578.24395343 0 24127.83336637 0 8630.61163088 0 8933.09380605 0 1036
0.03250000 0.03246190 52228.89648114 0 -418.90436459 0 19706.65274811 0 3976.64595047 0 4758.37404279 0 1059
0.03350000 0.03345080 53523.53820558 0 1705.01437150 0 18617.42253094 0 256.98407554 0 7205.76976764 0 1302
0.03450000 0.03451200 48958.34984077 0 998.76457276 0 19216.41127380 0 -867.63953294 0 9257.63300297 0 1339
0.03550000 0.03553350 47886.14571111 0 -1079.37705556 0 18079.94739454 0 553.08641096 0 5599.58359565 0 1365
0.03650000 0.03647120 48150.54437314 0 2492.27868841 0 18664.21681014 0 -1925.81526496 0 2910.32955171 0 1308
0.03750000 0.03744890 47016.82663702 0 519.61202447 0 19073.61183024 0 444.40944367 0 4926.44898786 0 1579
0.03850000 0.03847530 44880.21742422 0 1451.81997350 0 15788.56555407 0 4009.78640595 0 1094.77413095 0 1662
0.03950000 0.03950240 44137.33078055 0 1424.30361919 0 18124.32506776 0 1734.09053513 0 5951.46339372 0 1683
0.04050000 0.04050350 42995.92384362 0 1768.40633987 0 18016.56641074 0 3747.79336531 0 4253.88557785 0 1822
0.04150000 0.04152450 41413.37647183 0 1100.09395945 0 16496.96063984 0 -1031.24705234 0 5140.59323033 0 1887
0.04250000 0.04250150 39341.13685435 0 431.52783540 0 19403.47854486 0 904.73443455 0 6319.96285010 0 1920
0.04350000 0.04349210 38573.31523092 0 -101.65090513 0 14790.17775215 0 925.87863831 0 7496.20186669 0 2005
0.04450000 0.04448520 39347.61775218 0 -699.59973850 0 16303.85185386 0 2386.69497676 0 5123.89668001 0 2151
0.04550000 0.04548030 39591.91464639 0 7.45352680 0 18128.27951389 0 227.04781988 0 6759.99384314 0 2274
0.04650000 0.04648670 41489.60940554 0 1522.86818896 0 16260.57263789 0 1694.83167272 0 6749.09714714 0 2311
0.04750000 0.04749250 39223.82161919 0 821.14952640 0 17376.16582925 0 91.85057932 0 6513.68677215 0 2568
0.04850000 0.04851840 38206.76004388 0 -41.87989127 0 18200.66784721 0 -2650.22585756 0 5963.24984010 0 2493
0.04950000 0.04949480 35978.86903293 0 137.47961506 0 17780.61779169 0 4407.40596425 0 9664.97390800 0 2644
0.05050000 0.05050630 38781.25318988 0 -559.99460865 0 15617.97514188 0 2878.71595182 0 5271.17782918 0 2829
0.05150000 0.05149060 38218.18399936 0 613.70697166 0 15283.27521533 0 679.70667756 0 6988.75855172 0 2784
0.05250000 0.05249300 37476.39581295 0 619.80340945 0 13944.58535484 0 -35.96184295 0 4348.55062436 0 3055
0.05350000 0.05348950 35772.35906840 0 1336.60279170 0 13666.45597708 0 112.17555366 0 5446.43668472 0 3009
0.05450000 0.05448610 35426.23518636 0 532.00262235 0 13021.44187510 0 1986.57093591 0 4725.85970795 0 3336
0.05550000 0.05550870 35146.45812272 0 -282.54737285 0 14343.21549381 0 -1533.42436321 0 -570.14874755 0 3349
0.05650000 0.05647670 33660.13560674 0 750.48577099 0 11186.02964249 0 2150.52666626 0 3014.84775982 0 3324
0.05750000 0.05747970 34026.91048523 0 266.96795356 0 11522.59694638 0 124.42335209 0 2606.05689121 0 3639
0.05850000 0.05849280 32704.91717506 0 175.18086507 0 9402.61837647 0 978.14653002 0 971.75131187 0 3846
0.05950000 0.05951020 33245.24830034 0 379.24126991 0 9932.05280574 0 1118.22948878 0 758.91862736 0 3787
0.06050000 0.06049470 32668.66808554 0 -725.61120638 0 10140.56196248 0 -130.89436379 0 877.76730886 0 3930
0.06150000 0.06148310 32186.99457785 0 1008.86928108 0 8184.44026177 0 -58.29413808 0 -3321.70179488 0 4083
0.06250000 0.06249100 31691.70020016 0 1318.66498467 0 9818.99958474 0 -378.26144604 0 693.78889961 0 4303
0.06350000 0.06350600 30746.47772953 0 502.80013614 0 10529.47075473 0 381.65348205 0 -1311.98636454 0 4470
0.06450000 0.06451750 31385.88969949 0 -379.51149040 0 10230.22902846 0 -460.93902849 0 -162.71117828 0 4479
0.06550000 0.06550280 29680.97418914 0 333.36749790 0 10153.85329531 0 562.57927858 0 -1882.97543189 0 4636
0.06650000 0.06648880 29121.09052467 0 951.54738752 0 11021.59059094 0 190.50104845 0 -208.38503107 0 4653
0.06750000 0.06749660 29307.38887565 0 630.73964991 0 11019.61336788 0 -226.92479267 0 1622.37743197 0 5220
0.06850000 0.06852730 28901.17938159 0 -416.48336479 0 10563.79754404 0 2761.96092985 0 2985.96931850 0 5029
0.06950000 0.06949320 29887.15461650 0 -855.79376987 0 9917.64104652 0 2013.61495360 0 2065.50607448 0 5040
0.07050000 0.07048030 29928.34676368 0 -99.13422971 0 8455.78117367 0 1971.62093263 0 4952.69113176 0 5475
0.07150000 0.07148790 29896.27181174 0 189.36414519 0 8263.61706094 0 -612.04500583 0 5171.31707984 0 5509
0.07250000 0.07249820 29464.57810929 0 817.93544047 0 8306.41295571 0 -1403.03748667 0 3031.01705066 0 5916
0.07350000 0.07351270 28376.44634938 0 1097.10395879 0 10393.37190044 0 -501.12938265 0 2508.44797925 0 5721
0.07450000 0.07449140 27211.20288996 0 474.10074335 0 10748.23950226 0 -160.55270976 0 4725.81576966 0 6028
0.07550000 0.07549160 27083.23261938 0 430.18881600 0 9872.95580526 0 1243.46460078 0 2752.93161119 0 6183
0.07650000 0.07648840 26629.67961750 0 124.37721688 0 10433.26786806 0 1048.39946242 0 3616.82430642 0 6330
0.07750000 0.07749960 25941.71583673 0 201.51198400 0 8825.45597933 0 1670.46789074 0 3789.22717309 0 6583
0.07850000 0.07848650 25880.31207600 0 285.55824420 0 7589.16430444 0 373.10638613 0 3688.15812077 0 6549
0.07950000 0.07947320 24988.36478239 0 575.65201841 0 8111.31596210 0 -865.98855168 0 3720.30996471 0 6828
0.08050000 0.08048110 24385.86097631 0 903.04940111 0 9051.69423621 0 -821.03528685 0 3123.10072261 0 7147
0.08150000 0.08149960 23254.77953761 0 569.80383197 0 8945.68212623 0 28.13390699 0 1064.73352185 0 7386
0.08250000 0.08250610 23400.43497004 0 99.09820031 0 8719.42190020 0 577.63033993 0 986.44207924 0 7227
0.08350000 0.08350160 22643.26838200 0 -213.51262955 0 8832.99139612 0 -1008.37167994 0 -229.65995124 0 7798
0.08450000 0.08449610 22680.94546596 0 634.25251622 0 8896.16367303 0 83.19836103 0 -1312.96399150 0 7371
0.08550000 0.08548940 21914.44199123 0 87.85636904 0 8198.59937583 0 728.48916439 0 19.68523283 0 8256
0.08650000 0.08650700 22034.83290672 0 132.11255289 0 7683.37898347 0 678.26110781 0 -1760.96978423 0 8037
0.08750000 0.08749060 22153.79582778 0 39.96352274 0 7453.61467879 0 544.13508276 0 -1216.89291971 0 8155
0.08850000 0.08849210 21175.07041078 0 472.91990180 0 6667.86623290 0 722.44215719 0 -863.13585818 0 8718
0.08950000 0.08949900 21079.83416650 0 403.46444937 0 6803.63555000 0 -770.30084147 0 -1071.37808981 0 8571
0.09050000 0.09049190 20677.57911857 0 546.64286068 0 7358.33449622 0 513.18055723 0 -920.85978710 0 8932
0.09150000 0.09150830 19717.85701214 0 318.51415885 0 7529.94647366 0 -90.51123038 0 238.06205081 0 9285
0.09250000 0.09250820 19234.53581856 0 252.75501510 0 7506.25275060 0 217.66260107 0 40.78747553 0 9204
0.09350000 0.09350330 18964.97440741 0 510.05874170 0 7173.20050993 0 449.27560932 0 -117.71397515 0 9349
0.09450000 0.09448040 18784.16834273 0 509.19535429 0 8725.40849226 0 235.99804962 0 688.22631205 0 9564
0.09550000 0.09549270 18058.08809510 0 40.78132417 0 7456.77823569 0 473.75143395 0 2573.38877235 0 10155
0.09650000 0.09649430 18613.46808481 0 -549.64164900 0 7466.82911960 0 783.28131089 0 1016.49147599 0 9913
0.09750000 0.09749140 18365.98566455 0 -2.17480257 0 7005.43313290 0 191.86313545 0 1258.64528009 0 10476
0.09850000 0.09850240 18105.98083155 0 771.89030912 0 6956.58473863 0 239.20115099 0 1204.48035269 0 10575
0.09950000 0.09950330 17725.47523734 0 386.47790633 0 6566.91801088 0 -1078.41590546 0 815.97359580 0 10882
0.10050000 0.10051200 17451.62984288 0 374.43551941 0 7654.03919011 0 -217.44730345 0 -16.03352152 0 10875
0.10150000 0.10150300 16559.79239500 0 212.62068226 0 7268.99696741 0 57.86991388 0 -1208.56661369 0 11118
0.10250000 0.10250800 16358.55502531 0 198.38797156 0 7252.45420111 0 574.73810197 0 -8.13471310 0 11575
0.10350000 0.10349800 16535.07710670 0 65.06997167 0 7030.65371154 0 14.28609572 0 -1375.89460782 0 11364
0.10450000 0.10450100 16072.51675530 0 165.53970572 0 6527.38453416 0 -53.59944160 0 -986.41132243 0 12093
0.10550000 0.10551000 15943.33818174 0 137.26541589 0 6604.92463201 0 919.20990429 0 -751.93243920 0 12067
0.10650000 0.10649700 15817.12544278 0 -68.39588056 0 6369.93167078 0 -198.00460998 0 -763.80456524 0 12054
0.10750000 0.10749900 15957.39843464 0 35.02200292 0 5666.55653467 0 800.63693557 0 -679.43096479 0 12807
0.10850000 0.10850100 15560.85536446 0 269.53504817 0 5964.83161855 0 755.65730776 0 -609.77339622 0 12736
0.10950000 0.10950300 15432.33586525 0 212.04728757 0 5837.08103943 0 -236.75049285 0 190.66801395 0 12933
0.11050000 0.11050200 15233.07571863 0 289.55662862 0 5482.90546569 0 77.06765138 0 -219.47944938 0 13428
0.11150000 0.11150900 15015.36149007 0 54.44580292 0 5347.81719208 0 70.68045197 0 59.99312192 0 13453
0.11250000 0.11250000 14585.20562778 0 -10.38812127 0 5502.04059112 0 919.66466560 0 356.53945376 0 13668
0.11350000 0.11349100 14901.89085530 0 134.69941974 0 4816.29569402 0 -60.65549165 0 -201.85799804 0 13791
0.11450000 0.11448600 14345.41240833 0 494.33652296 0 5354.55073507 0 -41.04143884 0 384.49628944 0 14205
0.11550000 0.11549300 13997.97037758 0 118.22256086 0 4657.45877449 0 184.94175627 0 793.09932186 0 14776
0.11650000 0.11649800 14077.82822025 0 -179.59995862 0 4895.31870917 0 329.19555723 0 530.01221779 0 14553
0.11750000 0.11747300 14019.71983129 0 18.51317894 0 4282.20380597 0 522.92497156 0 330.50052446 0 14568
0.11850000 0.11849100 13820.02030177 0 55.67420767 0 4442.98499484 0 350.27055819 0 1010.65427412 0 16015
0.11950000 0.11950300 13906.90827088 0 75.29518075 0 3707.44703022 0 434.52222989 0 1022.61757212 0 15270
0.12050000 0.12050700 13906.68857943 0 205.32692606 0 3810.17475300 0 -174.18676125 0 850.91552118 0 15999
0.12150000 0.12150000 13776.30170289 0 247.31765167 0 3830.41932027 0 277.06607113 0 1269.28933092 0 15670
0.12250000 0.12250700 13248.93237326 0 -98.59719395 0 3891.44960553 0 171.99973285 0 1839.75113879 0 16887
0.12350000 0.12352200 13605.05221635 0 -141.56148223 0 3477.52894152 0 750.23312582 0 1746.86559304 0 16407
0.12450000 0.12449800 13340.54370859 0 103.79377555 0 3281.97059585 0 -66.74226300 0 1055.50318551 0 16306
0.12550000 0.12549900 13275.07565600 0 240.43142312 0 3139.11622943 0 -178.02477091 0 2102.37030006 0 17523
0.12650000 0.12650100 13209.38791197 0 266.84602480 0 3719.63990578 0 -394.05506450 0 860.30403537 0 17154
0.12750000 0.12750600 12778.90251251 0 262.61806282 0 4330.31623387 0 -242.81068154 0 388.63747330 0 18007
0.12850000 0.12850300 12727.27502137 0 140.27738569 0 3980.92993378 0 -443.99422682 0 259.27765430 0 17496
0.12950000 0.12949900 12601.83120249 0 -325.01592737 0 3926.88583668 0 720.63299808 0 356.52517382 0 18405
0.13050000 0.13049000 12950.81107340 0 10.51589382 0 3536.54905000 0 190.32529529 0 -482.91146902 0 18100
0.13150000 0.13148800 12623.47081048 0 360.53893664 0 3327.35884976 0 -286.85771913 0 15.58260482 0 19059
0.13250000 0.13249300 12501.43220910 0 221.37538660 0 3787.41471861 0 113.12132536 0 142.75330835 0 18957
0.13350000 0.13349100 12036.56509746 0 124.39808757 0 3511.06484161 0 58.52646179 0 -373.70614379 0 19468
0.13450000 0.13450700 11964.94568423 0 233.35845683 0 3863.44993002 0 196.31518272 0 318.34499644 0 19953
0.13550000 0.13551000 11644.41585630 0 102.44454050 0 3710.70944828 0 61.15144510 0 407.05860152 0 19956
0.13650000 0.13649900 11748.43975865 0 44.80815863 0 3706.62318728 0 152.43840600 0 565.09913953 0 19723
0.13750000 0.13749600 11478.98819323 0 263.53417617 0 3720.45276416 0 -81.75334051 0 618.10958835 0 20946
0.13850000 0.13851100 11215.90767991 0 204.41630500 0 3950.08525397 0 -154.19703607 0 790.64317143 0 20955
0.13950000 0.13949800 11278.95912652 0 35.47182116 0 4341.76215850 0 391.48357606 0 987.89753510 0 20506
0.14050000 0.14048300 11127.15233345 0 0.96195857 0 3760.91992955 0 133.07260454 0 1002.93211960 0 21447
0.14150000 0.14148400 10944.76449031 0 200.34981623 0 4171.21568460 0 -209.12758818 0 921.78908194 0 21771
0.14250000 0.14249400 10647.65377113 0 130.15729897 0 4062.04001772 0 -191.20186418 0 936.15580442 0 22470
0.14350000 0.14350900 10741.87943473 0 193.02750014 0 4248.63495216 0 119.73953034 0 580.10736105 0 22519
0.14450000 0.14449900 10586.65643958 0 -77.60380837 0 3845.20455496 0 488.03906750 0 880.81333084 0 22218
0.14550000 0.14550500 10512.66435868 0 13.29506758 0 3737.65460482 0 668.74297567 0 628.98651212 0 23559
0.14650000 0.14650700 10621.89494843 0 115.10953299 0 3248.92900153 0 49.24746379 0 1014.90859908 0 23044
0.14750000 0.14750500 10292.83010761 0 66.76423215 0 2882.94501226 0 32.04046038 0 709.07393236 0 23649
0.14850000 0.14849900 10260.51349507 0 76.30718943 0 2887.95397736 0 313.99181032 0 1147.20679125 0 23640
0.14950000 0.14949500 10109.39873007 0 23.55663559 0 2711.97014004 0 280.51083310 0 692.64760252 0 24457
0.15050000 0.15050000 10131.25802951 0 159.53004606 0 2695.03192911 0 -4.38969883 0 1136.47486384 0 24591
0.15150000 0.15149900 9949.28760012 0 138.51326334 0 2510.98541551 0 34.72443084 0 1256.75593360 0 25020
0.15250000 0.15250500 9742.44809842 0 -56.22607260 0 2576.01408520 0 249.59365511 0 1385.58300084 0 25297
0.15350000 0.15350100 9699.67417279 0 118.86845373 0 2528.98912998 0 187.66812718 0 1210.43399103 0 25452
0.15450000 0.15450400 9357.85624320 0 369.69018405 0 2877.92506259 0 -606.73176807 0 1226.44949785 0 26061
0.15550000 0.15549900 9310.29304392 0 180.77860326 0 2737.50927129 0 146.49685069 0 1366.20621480 0 26128
0.15650000 0.15649500 9357.75738205 0 5.11936005 0 3014.00194773 0 219.61126425 0 881.89860661 0 26331
0.15750000 0.15749700 9212.59625538 0 -125.13405393 0 2541.68729588 0 94.21281165 0 1205.51290251 0 27345
0.15850000 0.15849900 9088.23990919 0 -52.82272247 0 2240.45736198 0 265.02368421 0 866.76296405 0 26980
0.15950000 0.15949700 9170.21777437 0 122.09572116 0 2191.61995228 0 312.20242345 0 1009.37896524 0 27777
0.16050000 0.16050000 8989.34580224 0 261.83046896 0 2044.16304995 0 -271.73635652 0 546.59013473 0 28224
0.16150000 0.16150500 8897.36099144 0 144.08463855 0 2125.81137795 0 -79.67418061 0 687.39038608 0 28075
0.16250000 0.16249700 8754.15511870 0 -40.17003270 0 1999.92817617 0 78.68392139 0 294.17564139 0 28590
0.16350000 0.16349900 8679.25131827 0 85.13977439 0 2091.25391261 0 130.31987065 0 219.50691081 0 29163
0.16450000 0.16449100 8606.95086154 0 165.18490402 0 2204.44993306 0 -480.88481538 0 101.65485958 0 28996
0.16550000 0.16550500 8393.09221795 0 161.07667388 0 2480.88768664 0 -214.50233954 0 -162.63318781 0 30777
0.16650000 0.16650700 8440.93003154 0 -62.99289885 0 2432.34686040 0 26.65769028 0 -171.62955275 0 29211
0.16750000 0.16749900 8190.64654528 0 138.72856096 0 2580.81434341 0 -11.49941950 0 -102.98179594 0 30922
0.16850000 0.16850800 8184.62699950 0 87.38084689 0 2481.74448330 0 258.06825285 0 194.68287523 0 30867
0.16950000 0.16949900 8171.11597523 0 -15.98354172 0 2335.97920515 0 399.96037072 0 9.28747809 0 30852
0.17050000 0.17049200 8298.03172683 0 -79.08672567 0 2175.36278486 0 390.38841417 0 431.01156049 0 31257
0.17150000 0.17149500 8193.82108675 0 98.27369829 0 1903.26393745 0 63.80476860 0 555.54146293 0 32608
0.17250000 0.17250900 8039.81737916 0 126.05785649 0 2065.39622875 0 -416.28015020 0 176.77143118 0 32361
0.17350000 0.17350400 7895.22745028 0 201.54823309 0 2083.63061924 0 46.77977956 0 274.14966711 0 32508
0.17450000 0.17449800 7929.51030130 0 -6.61653533 0 1959.13147360 0 115.63020173 0 288.00780388 0 32791
0.17550000 0.17549800 7843.16057624 0 -84.88383385 0 1802.22783885 0 206.85158474 0 -206.27489468 0 33633
0.17650000 0.17650100 7827.63937518 0 171.70424785 0 1906.99869213 0 -253.86994921 0 -279.50025242 0 33984
0.17750000 0.17750300 7407.57833510 0 177.14161128 0 1894.91566229 0 -201.29778484 0 -202.15348304 0 34069
0.17850000 0.17849800 7434.98484369 0 20.61068307 0 1979.24422600 0 257.84856140 0 -51.32222986 0 34536
