### header ###
fiducial parameters:
Omega_m = 0.31
Omega_nu = 0
Omega_de = 0.69
Omega_k = 0
H_0 = 100
w_de = -1
zeff = 0
beta = 0
fgrowth = 0
b_1 = 2
gamma = 0.55
Lx = 3500 Ly = 3500 Lz = 3500
nx = 700 ny = 700 nz = 700
xoffset = -983.599254 yoffset = -42.9823471 zoffset = 800.977702
bins = 400 dk = 0.001
kx_ny = 0.628318531 ky_ny = 0.628318531 kz_ny = 0.628318531
############################
A(data) = 9.01986718 (not used)
A(ran) = 9.01671484 (used)
Ngal = 501860
weighted Ngal = 0
Nran = 25229228
weighted Nran = 0
SN(data) = 6756.20037
SN(ran) = 133.84692
SN(data+ran) = 6890.04729
############################
13 columns: k_central k_mean P_0(k) sigma^{lin}_{P_0(k)} P^img_1(k) sigma^{lin}_{P_1(k)} P_2(k) sigma^{lin}_{P_2(k)} P^img_3(k) sigma^{lin}_{P_3(k)} P_4(k) sigma^{lin}_{P_4(k)} N_modes
### header ###
0.00050000 0 0 0 0 0 0 0 0 0 0 0 0
0.00150000 0.00179520 22609.43589845 0 -8168.56755439 0 11893.54596245 0 -26345.50872482 0 1794.69242206 0 3
0.00250000 0.00253879 42929.46717950 0 -24283.37491412 0 -41741.92503773 0 22446.64453280 0 97150.52574400 0 6
0.00350000 0.00331552 41719.18697249 0 -12231.21172360 0 -32493.57399860 0 31442.02086539 0 -10733.94857333 0 7
0.00450000 0.00420575 69180.94796303 0 -27192.41927084 0 -35300.57167603 0 -6625.30101415 0 -9501.63331372 0 24
0.00550000 0.00557378 73761.95411235 0 -2555.02256699 0 -25401.38471145 0 -17488.20846958 0 -27401.89506997 0 45
0.00650000 0.00659388 75551.89021448 0 19146.87892936 0 -29300.24890347 0 -29292.88923985 0 51210.62660285 0 40
0.00750000 0.00754703 77534.60556541 0 2059.42062127 0 -1631.19804376 0 -31918.42177824 0 -25254.85051322 0 57
0.00850000 0.00846663 63583.86884993 0 8478.96960639 0 -4663.40142826 0 -13979.73598710 0 -8285.78392841 0 75
0.00950000 0.00948925 57841.57368730 0 2910.06592197 0 7721.22083601 0 -2361.90279644 0 -15147.94528112 0 112
0.01050000 0.01054430 52832.71843594 0 -10202.96531932 0 3896.52447806 0 23398.56759270 0 26990.41298107 0 105
0.01150000 0.01145670 60005.31479438 0 -11891.78843084 0 -1181.83016403 0 16955.12716221 0 -23672.30314142 0 144
0.01250000 0.01249090 66853.64657022 0 5105.75016611 0 -21499.11530193 0 -1376.09233013 0 4457.25395462 0 169
0.01350000 0.01339930 74902.15274629 0 -4428.61717390 0 -21346.75928023 0 -1169.36267415 0 5202.50228140 0 180
0.01450000 0.01448870 68053.49143328 0 1505.12810424 0 -11615.08704751 0 -6617.05160014 0 2060.85960028 0 267
0.01550000 0.01550050 74112.36197769 0 1456.98272262 0 -16509.26336113 0 -13923.27528403 0 -15442.88105493 0 238
0.01650000 0.01653350 66341.65564220 0 5327.15521106 0 4462.37276544 0 -6278.78168750 0 -1349.56458734 0 315
0.01750000 0.01747870 67343.66835307 0 251.61261955 0 5127.58749640 0 -12375.43916159 0 -16585.93567775 0 297
0.01850000 0.01844180 60008.72001188 0 3637.33250343 0 3156.64760727 0 -11056.85106893 0 -3555.56334514 0 388
0.01950000 0.01947590 65377.75939819 0 -7896.27098467 0 7562.61459251 0 21082.03108102 0 522.27248795 0 399
0.02050000 0.02045430 72351.75468436 0 -7510.97611681 0 -5211.16910917 0 14487.00354890 0 5001.61641804 0 462
0.02150000 0.02154770 74023.05740261 0 2052.78593943 0 -4659.08449123 0 -93.42444888 0 5250.55978645 0 571
0.02250000 0.02255340 78465.76778313 0 2200.82502411 0 -5659.35065506 0 -2483.67776808 0 9809.10248484 0 510
0.02350000 0.02348930 73224.25928449 0 2990.91237617 0 14476.78789640 0 -18572.05624618 0 -2847.00349078 0 555
0.02450000 0.02439640 65115.99703357 0 8946.16544742 0 15414.65070340 0 -13796.18377926 0 2627.78437577 0 592
0.02550000 0.02547300 59464.98366910 0 6211.58905702 0 36243.15784924 0 -3708.01822799 0 3079.09652485 0 837
0.02650000 0.02652900 56696.76153288 0 -1066.93592865 0 32171.06694761 0 4626.57015639 0 7090.73932356 0 723
0.02750000 0.02749970 55107.07418891 0 1494.51700713 0 44365.70004451 0 547.02072998 0 -4924.43881108 0 826
0.02850000 0.02848090 55435.51290909 0 2441.17845676 0 34889.52897004 0 2709.22399689 0 4899.04247927 0 831
0.02950000 0.02946900 55944.75769396 0 -2060.68384711 0 36432.75157199 0 7922.44722113 0 4274.21802170 0 996
0.03050000 0.03053250 55296.66791166 0 -763.82323902 0 31647.98160129 0 2695.48229659 0 2018.79967186 0 1041
0.03150000 0.03150510 54666.92236557 0 766.93077460 0 28848.45343320 0 -271.86267910 0 1464.19958680 0 1036
0.03250000 0.03246190 58709.57461268 0 502.91876952 0 24123.65922879 0 3020.74647530 0 -8734.77833267 0 1059
0.03350000 0.03345080 54951.64248688 0 89.20373671 0 23660.87918594 0 6305.10072340 0 1880.40504191 0 1302
0.03450000 0.03451200 55477.69366780 0 1427.90655899 0 19114.91382315 0 2593.86401564 0 -2542.60999998 0 1339
0.03550000 0.03553350 50780.36089484 0 1591.03844640 0 18209.78504245 0 2679.80731152 0 1075.60055951 0 1365
0.03650000 0.03647120 51475.57449351 0 2301.36681694 0 18338.30454165 0 -957.91184887 0 854.67773729 0 1308
0.03750000 0.03744890 47475.76207947 0 361.86367609 0 16537.38386694 0 4422.02643035 0 4353.44974373 0 1579
0.03850000 0.03847530 46114.00461656 0 -811.87854715 0 14122.20589348 0 4491.95421941 0 5815.00204854 0 1662
0.03950000 0.03950240 47002.98607557 0 261.64592814 0 13329.77882746 0 2230.73601525 0 2904.06834534 0 1683
0.04050000 0.04050350 46848.54298507 0 1661.15297319 0 8420.09229736 0 -721.40741045 0 3276.54421700 0 1822
0.04150000 0.04152450 43848.98575029 0 1212.44416781 0 11865.86483954 0 1100.90681782 0 6416.68201168 0 1887
0.04250000 0.04250150 44572.97892912 0 -143.29155241 0 10057.15610287 0 1997.34680161 0 8363.22516510 0 1920
0.04350000 0.04349210 42016.75904372 0 172.75766836 0 9992.23727892 0 755.19705417 0 3583.82665039 0 2005
0.04450000 0.04448520 41545.41103425 0 1928.36368580 0 12022.06546165 0 -524.45072870 0 5412.54927830 0 2151
0.04550000 0.04548030 41329.34449158 0 1995.13890252 0 11953.52172874 0 -2970.64583975 0 1267.11438555 0 2274
0.04650000 0.04648670 40089.40593860 0 -224.13251432 0 12867.98739614 0 -208.62229784 0 3254.87165530 0 2311
0.04750000 0.04749250 36879.93352178 0 851.29558740 0 13922.17682677 0 2277.73900132 0 2241.63271125 0 2568
0.04850000 0.04851840 37427.95384786 0 1667.22744182 0 13753.78332910 0 1371.43487135 0 6451.43719933 0 2493
0.04950000 0.04949480 36759.32291484 0 329.70524140 0 13757.18854660 0 2810.52372524 0 7412.57631562 0 2644
0.05050000 0.05050630 35077.58485263 0 -482.40617868 0 12667.51894653 0 451.97781418 0 6337.50521252 0 2829
0.05150000 0.05149060 35302.10951620 0 1256.79987189 0 15220.00407726 0 -1442.24142621 0 3657.98349989 0 2784
0.05250000 0.05249300 33129.25121388 0 2104.31456941 0 15605.89211204 0 -2265.87566293 0 5734.66088468 0 3055
0.05350000 0.05348950 32227.74734213 0 -232.52362932 0 18092.68949873 0 -1503.83192468 0 6009.62670554 0 3009
0.05450000 0.05448610 33068.94591041 0 99.38907179 0 17226.44610497 0 908.58562569 0 -1584.29391883 0 3336
0.05550000 0.05550870 32736.55274410 0 950.05568256 0 17800.71955952 0 2313.99907541 0 4730.17664498 0 3349
0.05650000 0.05647670 32906.15454475 0 -822.39298002 0 16922.17344446 0 777.28153734 0 4019.12329264 0 3324
0.05750000 0.05747970 33333.89380107 0 -203.54962222 0 15339.40638122 0 3096.26541179 0 2177.74643711 0 3639
0.05850000 0.05849280 33041.59432468 0 455.84548218 0 15227.14404944 0 -48.01235845 0 3058.54438955 0 3846
0.05950000 0.05951020 32325.40019238 0 502.13447104 0 15300.41114855 0 436.74111355 0 4142.02967526 0 3787
0.06050000 0.06049470 32510.92962328 0 -106.15106483 0 16072.73644675 0 -629.43578114 0 3901.76411918 0 3930
0.06150000 0.06148310 32493.35430715 0 -34.69642018 0 13732.14372111 0 1994.97413393 0 1926.22169415 0 4083
0.06250000 0.06249100 32695.69013409 0 -1215.21228010 0 11843.67600293 0 1468.48357011 0 1916.29164053 0 4303
0.06350000 0.06350600 33025.99623161 0 764.43837508 0 12911.70599501 0 48.29707857 0 -91.58046868 0 4470
0.06450000 0.06451750 32355.49792125 0 1607.55924356 0 11003.02666328 0 -2440.90384245 0 -131.44359242 0 4479
0.06550000 0.06550280 30830.29001833 0 267.71710141 0 13579.01877933 0 148.02700165 0 -422.12394281 0 4636
0.06650000 0.06648880 31181.57664948 0 -215.71833172 0 14147.25071896 0 1711.55019219 0 -1277.65957523 0 4653
0.06750000 0.06749660 30189.66974539 0 641.55506007 0 13278.92025641 0 1293.07093056 0 176.19803649 0 5220
0.06850000 0.06852730 29833.22036512 0 1049.73518645 0 12414.43439426 0 -1923.22290583 0 -561.70930043 0 5029
0.06950000 0.06949320 28433.23658963 0 981.61216267 0 14222.49504115 0 1241.55328515 0 117.93366661 0 5040
0.07050000 0.07048030 28076.34782646 0 285.62195472 0 13049.67222664 0 534.17207543 0 286.72041198 0 5475
0.07150000 0.07148790 27294.24625867 0 -256.55238184 0 12474.95938918 0 1370.98450388 0 2058.13542628 0 5509
0.07250000 0.07249820 27696.50130660 0 -106.95469616 0 11793.47650623 0 2011.96726772 0 201.85799804 0 5916
0.07350000 0.07351270 27060.71424559 0 458.91127639 0 10629.38642693 0 -71.72706204 0 1074.38017349 0 5721
0.07450000 0.07449140 26843.65909138 0 613.50705244 0 11264.56933644 0 -243.57410933 0 413.67680650 0 6028
0.07550000 0.07549160 25348.54891734 0 560.64819072 0 10001.74991877 0 -186.45982420 0 -268.56511041 0 6183
0.07650000 0.07648840 25757.28486309 0 46.03293847 0 10483.18176587 0 1026.94878909 0 457.42396526 0 6330
0.07750000 0.07749960 25352.83290064 0 -669.54155409 0 7681.26994554 0 2937.94476718 0 -576.06943217 0 6583
0.07850000 0.07848650 25771.45496172 0 327.64563404 0 8088.67675801 0 764.53174395 0 441.38429238 0 6549
0.07950000 0.07947320 24876.10245061 0 1054.82214201 0 7471.09113377 0 -1245.98006790 0 -121.20816769 0 6828
0.08050000 0.08048110 23542.68518496 0 838.62048909 0 8096.47580454 0 -365.91039263 0 1632.25256272 0 7147
0.08150000 0.08149960 23014.76662670 0 376.61705552 0 7752.46096044 0 72.85320042 0 -1578.69178682 0 7386
0.08250000 0.08250610 22646.01452515 0 186.82890584 0 8224.63281285 0 805.41852001 0 302.76887252 0 7227
0.08350000 0.08350160 22187.40861988 0 321.09004113 0 8565.72576064 0 122.41866759 0 952.12297912 0 7798
0.08450000 0.08449610 21566.01134895 0 -128.60847424 0 6954.51963898 0 1090.00682645 0 1034.27220363 0 7371
0.08550000 0.08548940 21815.91037518 0 371.73441301 0 7793.90575279 0 -404.90232992 0 -409.93765799 0 8256
0.08650000 0.08650700 21844.90964679 0 236.70435764 0 6993.38305678 0 -274.09474425 0 -513.14430814 0 8037
0.08750000 0.08749060 21152.66188272 0 256.47658829 0 8328.84345292 0 -364.14077799 0 -817.30382754 0 8155
0.08850000 0.08849210 21037.65340779 0 -24.82370604 0 7616.75755077 0 244.19363923 0 -631.59644657 0 8718
0.08950000 0.08949900 21050.61520343 0 347.56286105 0 7637.40854722 0 346.43364698 0 -1564.03836699 0 8571
0.09050000 0.09049190 20631.77345091 0 148.96508415 0 7217.03993910 0 555.73369295 0 -1163.51888153 0 8932
0.09150000 0.09150830 20601.78556776 0 205.32363069 0 7373.13071548 0 636.48787674 0 -516.72857417 0 9285
0.09250000 0.09250820 20449.75908324 0 234.12737691 0 6673.65510265 0 573.79672410 0 292.51697093 0 9204
0.09350000 0.09350330 19438.73902285 0 186.00616135 0 6445.32977697 0 541.84809475 0 -445.17177300 0 9349
0.09450000 0.09448040 19005.72717169 0 518.82443062 0 6842.76259754 0 -271.55401261 0 672.60075756 0 9564
0.09550000 0.09549270 18355.87985778 0 698.64627760 0 6919.89626621 0 -152.31318187 0 323.90978091 0 10155
0.09650000 0.09649430 17874.20635009 0 305.63584596 0 6966.31706993 0 33.04840476 0 1200.97627404 0 9913
0.09750000 0.09749140 17868.60421807 0 270.11173823 0 7406.72153844 0 521.81552973 0 -304.76916318 0 10476
0.09850000 0.09850240 17149.44425117 0 207.29426301 0 6474.47184803 0 460.29643099 0 1514.90437384 0 10575
0.09950000 0.09950330 16744.00367719 0 31.20859870 0 6548.66165125 0 810.55600461 0 1758.86074630 0 10882
0.10050000 0.10051200 16938.21092043 0 -20.25928659 0 5296.22265467 0 1182.88468299 0 1601.61658980 0 10875
0.10150000 0.10150300 16570.66712186 0 313.60954720 0 5481.31270266 0 -92.53799387 0 2063.85838859 0 11118
0.10250000 0.10250800 16454.99957258 0 428.50158565 0 5395.63303653 0 -284.47186997 0 1665.44794107 0 11575
0.10350000 0.10349800 15815.25806544 0 243.10946191 0 5593.08072868 0 -439.17419637 0 1698.96187201 0 11364
0.10450000 0.10450100 15428.49126485 0 136.89303888 0 5714.80077745 0 -96.79627328 0 1434.99160831 0 12093
0.10550000 0.10551000 15191.77372572 0 247.16167074 0 5748.80901416 0 582.83592888 0 853.06959587 0 12067
0.10650000 0.10649700 15049.08412789 0 200.57719688 0 5784.12441501 0 117.96112804 0 785.67375080 0 12054
0.10750000 0.10749900 15012.17596402 0 129.19505042 0 5322.35495284 0 216.74648772 0 978.25308038 0 12807
0.10850000 0.10850100 14667.80961359 0 106.34779852 0 5213.22322424 0 209.03641622 0 473.18353154 0 12736
0.10950000 0.10950300 14754.25819981 0 149.87790213 0 4875.64533967 0 680.36465346 0 1222.08862254 0 12933
0.11050000 0.11050200 14709.11160650 0 -98.56610761 0 4969.65131182 0 368.36983843 0 1074.45706550 0 13428
0.11150000 0.11150900 14554.99805318 0 76.41231178 0 4346.54044757 0 -76.69241839 0 514.83922769 0 13453
0.11250000 0.11250000 14296.42121462 0 165.14865493 0 4137.60289250 0 147.52500668 0 1045.13704437 0 13668
0.11350000 0.11349100 14103.64196582 0 -149.14852651 0 4490.00995006 0 -368.75979076 0 -23.11571485 0 13791
0.11450000 0.11448600 14054.76061783 0 231.63058357 0 3939.03477395 0 116.32332826 0 -155.86778956 0 14205
0.11550000 0.11549300 14151.20516509 0 360.75643117 0 4373.10114408 0 -485.13364806 0 -644.55494684 0 14776
0.11650000 0.11649800 13741.26091636 0 232.91687701 0 4076.96805186 0 -388.14975828 0 -1287.75439743 0 14553
0.11750000 0.11747300 13801.12683693 0 247.09246793 0 5050.32201286 0 -245.64799664 0 -1686.20878324 0 14568
0.11850000 0.11849100 13114.70089632 0 -14.78490516 0 4565.10048823 0 146.01023412 0 -1581.56974483 0 16015
0.11950000 0.11950300 13253.32620229 0 -328.35413897 0 4532.56418424 0 550.26447426 0 -1364.65739007 0 15270
0.12050000 0.12050700 13653.93356434 0 -77.57041527 0 3654.21579149 0 1119.08628544 0 -1414.35159643 0 15999
0.12150000 0.12150000 13802.77452281 0 272.72386959 0 3499.75073185 0 393.29053825 0 -504.77296537 0 15670
0.12250000 0.12250700 13545.84537014 0 -28.95236749 0 2976.47864779 0 -306.13344710 0 -585.38325126 0 16887
0.12350000 0.12352200 13504.54337723 0 127.03328653 0 3687.89449102 0 573.83297319 0 45.61519518 0 16407
0.12450000 0.12449800 13497.73294223 0 -105.36017560 0 3270.05233460 0 -257.02911229 0 -570.82759413 0 16306
0.12550000 0.12549900 13156.88165503 0 510.19604886 0 3372.78005738 0 -292.63011202 0 -600.13333532 0 17523
0.12650000 0.12650100 12515.16292483 0 355.67936173 0 4009.53376078 0 -568.20777357 0 90.60756509 0 17154
0.12750000 0.12750600 12360.60998861 0 111.38795980 0 3992.32093554 0 199.88626726 0 86.17660820 0 18007
0.12850000 0.12850300 12625.55787927 0 -220.29340620 0 3788.32643814 0 926.84967453 0 52.60511809 0 17496
0.12950000 0.12949900 12470.12617724 0 -3.49827880 0 3536.38428141 0 470.01008853 0 -265.22030806 0 18405
0.13050000 0.13049000 12604.24780846 0 163.32192051 0 3200.28931414 0 -130.07821005 0 424.52736729 0 18100
0.13150000 0.13148800 12171.12611158 0 125.02640512 0 2985.05759898 0 -2.33446333 0 -13.79387702 0 19059
0.13250000 0.13249300 12199.02692594 0 206.58905345 0 3486.60219847 0 -229.02284603 0 291.29768337 0 18957
0.13350000 0.13349100 12042.49676665 0 15.21615948 0 3406.22808089 0 53.52683358 0 -149.41215625 0 19468
0.13450000 0.13450700 11696.48273034 0 98.91728440 0 3170.33438471 0 430.34479693 0 -162.81882709 0 19953
0.13550000 0.13551000 11999.10770496 0 20.84718092 0 3421.29891448 0 -284.71682594 0 -267.89944531 0 19956
0.13650000 0.13649900 11699.11902776 0 95.28051211 0 3120.15685716 0 -158.04053801 0 -630.17614133 0 19723
0.13750000 0.13749600 11434.94005718 0 253.87434304 0 3168.26928506 0 -91.93494084 0 -106.78234821 0 20946
0.13850000 0.13851100 11561.26264186 0 79.21535502 0 3105.37162246 0 440.07712824 0 -26.01476324 0 20955
0.13950000 0.13949800 11508.20715630 0 -106.11602404 0 3150.75987637 0 315.74934194 0 -401.04015420 0 20506
0.14050000 0.14048300 11126.27356764 0 319.08206126 0 2750.50402065 0 -65.31273073 0 -630.30905466 0 21447
0.14150000 0.14148400 11102.21735369 0 274.44075829 0 2833.36065163 0 413.53400706 0 477.55539143 0 21771
0.14250000 0.14249400 10840.69664967 0 -123.31720563 0 2858.33956968 0 -83.18287279 0 332.18775480 0 22470
0.14350000 0.14350900 10731.91642740 0 98.58170571 0 2634.14444330 0 253.88422916 0 110.41252976 0 22519
0.14450000 0.14449900 10542.58633439 0 282.00693188 0 2651.33529939 0 -190.00234885 0 345.98327951 0 22218
0.14550000 0.14550500 10311.19631296 0 131.16678119 0 2880.51742172 0 -166.13177418 0 289.10406423 0 23559
0.14650000 0.14650700 10312.44855424 0 145.51043607 0 3010.51983822 0 251.35448209 0 237.59300956 0 23044
0.14750000 0.14750500 10150.50300067 0 28.94171245 0 2725.05276598 0 -14.79193528 0 277.80533287 0 23649
0.14850000 0.14849900 9985.17419875 0 3.57409432 0 2917.10703299 0 305.56444624 0 473.95794391 0 23640
0.14950000 0.14949500 10038.57020607 0 131.31067909 0 2839.49004313 0 -96.63480006 0 449.67215239 0 24457
0.15050000 0.15050000 9879.63442539 0 180.49629974 0 2791.82798270 0 77.19869734 0 582.34491849 0 24591
0.15150000 0.15149900 9717.49114951 0 96.67489375 0 2739.73913952 0 160.89323151 0 727.52581738 0 25020
0.15250000 0.15250500 9825.76608145 0 -102.15542655 0 2579.48521013 0 450.52455522 0 621.62245466 0 25297
0.15350000 0.15350100 9718.42483818 0 40.51055445 0 2414.65071398 0 -114.51966145 0 490.63362355 0 25452
0.15450000 0.15450400 9435.98950797 0 228.65596131 0 2582.23135328 0 -196.56892634 0 428.95085467 0 26061
0.15550000 0.15549900 9352.85826268 0 238.32677901 0 2510.60095547 0 -201.28020952 0 782.69693163 0 26128
0.15650000 0.15649500 9359.58082109 0 -100.31056758 0 2406.40129997 0 251.79935728 0 428.84650123 0 26331
0.15750000 0.15749700 9337.98515140 0 4.55740030 0 2343.51462194 0 383.83172280 0 -1.11690036 0 27345
0.15850000 0.15849900 9221.64754319 0 89.99089118 0 2140.26707547 0 -151.06643288 0 -52.37081716 0 26980
0.15950000 0.15949700 9072.90544587 0 197.90904420 0 2215.14890675 0 85.01136474 0 166.54259719 0 27777
0.16050000 0.16050000 8908.55427090 0 154.02347982 0 2469.93606778 0 -118.06657993 0 154.48702878 0 28224
0.16150000 0.16150500 8757.72510479 0 151.75955941 0 2268.84149753 0 -270.03704314 0 -140.87494644 0 28075
0.16250000 0.16249700 8614.66203149 0 94.48193368 0 2542.42326224 0 316.06679608 0 160.30555688 0 28590
0.16350000 0.16349900 8642.13444752 0 -35.88813646 0 2289.02015736 0 235.14125296 0 112.71819154 0 29163
0.16450000 0.16449100 8568.94424041 0 -83.94926642 0 2050.31441060 0 257.71235270 0 255.99546401 0 28996
0.16550000 0.16550500 8508.43023006 0 122.81630912 0 1901.14391494 0 240.22381470 0 578.64641290 0 30777
0.16650000 0.16650700 8610.88333852 0 54.24039141 0 1858.50180418 0 94.64285767 0 588.77089345 0 29211
0.16750000 0.16749900 8462.63554697 0 48.31937725 0 1750.72117801 0 -181.49369893 0 123.72143790 0 30922
0.16850000 0.16850800 8257.05927111 0 104.30148249 0 1883.81025941 0 -125.77665143 0 244.98782382 0 30867
0.16950000 0.16949900 8237.22113302 0 75.09910613 0 1769.24116739 0 3.89924865 0 183.35668244 0 30852
0.17050000 0.17049200 8208.35367628 0 -104.68528346 0 1608.27324078 0 373.79182346 0 306.80680140 0 31257
0.17150000 0.17149500 8374.80290460 0 149.71533045 0 1667.50205614 0 26.38538272 0 -19.16994653 0 32608
0.17250000 0.17250900 8134.91082400 0 158.42719497 0 1644.06097825 0 241.17837405 0 587.89102918 0 32361
0.17350000 0.17350400 8095.39931643 0 -36.98604449 0 1653.60657182 0 46.15343923 0 543.92967125 0 32508
0.17450000 0.17449800 8012.14724083 0 70.58971940 0 1584.19505768 0 -286.65120917 0 198.19793846 0 32791
0.17550000 0.17549800 7976.38147251 0 216.85084116 0 1869.85985223 0 -215.37012077 0 207.37225348 0 33633
0.17650000 0.17650100 7728.30588533 0 55.51119661 0 2027.96080540 0 -203.21678967 0 279.43544344 0 33984
0.17750000 0.17750300 7875.40029677 0 -17.22205228 0 1894.94861601 0 150.27664211 0 98.99307795 0 34069
0.17850000 0.17849800 7701.41565165 0 52.75857257 0 2059.68425101 0 189.55967058 0 452.58855641 0 34536
