### header ###
fiducial parameters:
Omega_m = 0.31
Omega_nu = 0
Omega_de = 0.69
Omega_k = 0
H_0 = 100
w_de = -1
zeff = 0
beta = 0
fgrowth = 0
b_1 = 2
gamma = 0.55
Lx = 3500 Ly = 3500 Lz = 3500
nx = 700 ny = 700 nz = 700
xoffset = -983.599254 yoffset = -42.9823471 zoffset = 800.977702
bins = 400 dk = 0.001
kx_ny = 0.628318531 ky_ny = 0.628318531 kz_ny = 0.628318531
############################
A(data) = 9.03297194 (not used)
A(ran) = 9.02517784 (used)
Ngal = 501456
weighted Ngal = 0
Nran = 25229228
weighted Nran = 0
SN(data) = 6764.10583
SN(ran) = 133.972547
SN(data+ran) = 6898.07837
############################
13 columns: k_central k_mean P_0(k) sigma^{lin}_{P_0(k)} P^img_1(k) sigma^{lin}_{P_1(k)} P_2(k) sigma^{lin}_{P_2(k)} P^img_3(k) sigma^{lin}_{P_3(k)} P_4(k) sigma^{lin}_{P_4(k)} N_modes
### header ###
0.00050000 0 0 0 0 0 0 0 0 0 0 0 0
0.00150000 0.00179520 29430.96531719 0 21494.94116435 0 29784.55870859 0 34006.91856313 0 -42476.90278915 0 3
0.00250000 0.00253879 58565.56686614 0 17442.73233909 0 25431.26274887 0 -14106.16841751 0 27149.35974632 0 6
0.00350000 0.00331552 67527.22056090 0 -720.97791366 0 -14411.20999809 0 11502.38533283 0 31325.25485885 0 7
0.00450000 0.00420575 95976.82416368 0 -34660.72032317 0 -43285.58702259 0 33147.26591291 0 -4636.03885796 0 24
0.00550000 0.00557378 111082.58868609 0 -13870.76902709 0 -39914.09216020 0 -46919.28363250 0 -45337.72487224 0 45
0.00650000 0.00659388 111515.38084580 0 36411.99072981 0 3051.42638652 0 -91714.91984784 0 34243.74594798 0 40
0.00750000 0.00754703 73872.78844969 0 12946.19755292 0 10819.96876121 0 -5958.10906013 0 -24275.68571332 0 57
0.00850000 0.00846663 75522.89094286 0 -2446.68172762 0 30183.51838474 0 11558.51649872 0 -3750.24292500 0 75
0.00950000 0.00948925 84193.89284712 0 -222.76823041 0 8619.02290681 0 7734.66595285 0 -42434.39249326 0 112
0.01050000 0.01054430 82379.13161096 0 -7354.72057184 0 13523.54668779 0 2755.31526344 0 -6790.84950752 0 105
0.01150000 0.01145670 72411.73045065 0 8632.55590023 0 14432.84960608 0 -5451.98389387 0 -13696.66355168 0 144
0.01250000 0.01249090 79213.26794729 0 3216.46958955 0 13180.16894890 0 -18971.56515096 0 -7779.24134839 0 169
0.01350000 0.01339930 78581.32548669 0 -6283.35126969 0 3654.02905376 0 18105.21191147 0 -29777.96796504 0 180
0.01450000 0.01448870 81316.15452226 0 2625.06020177 0 19778.82138997 0 -14839.60832877 0 -29624.73317753 0 267
0.01550000 0.01550050 71459.80739075 0 6929.04641517 0 17675.16589491 0 -13642.28991740 0 -18956.84582370 0 238
0.01650000 0.01653350 69599.78971555 0 2700.17270908 0 24939.59328013 0 -5296.65105300 0 -14320.47742857 0 315
0.01750000 0.01747870 72104.71164700 0 -4552.69890578 0 25917.65962278 0 11658.58595493 0 -19374.25958180 0 297
0.01850000 0.01844180 75738.51810264 0 157.46824178 0 21200.88415635 0 13541.34169538 0 -19384.36538857 0 388
0.01950000 0.01947590 74274.60411472 0 -290.97363848 0 14546.10054939 0 984.34292742 0 -2275.84965484 0 399
0.02050000 0.02045430 71994.20684683 0 1067.98605379 0 14598.05757770 0 3202.48622866 0 -5032.07663780 0 462
0.02150000 0.02154770 73864.87955744 0 3517.58967772 0 24159.24924395 0 -5677.89261358 0 5182.05999183 0 571
0.02250000 0.02255340 67395.62538138 0 2415.79310952 0 28361.61717640 0 -1378.94831900 0 -12260.32084094 0 510
0.02350000 0.02348930 66481.37940543 0 3473.19003535 0 26672.51945057 0 -2056.70743184 0 -6933.04479959 0 555
0.02450000 0.02439640 65078.64948680 0 359.88425611 0 36135.28934649 0 -4615.43179979 0 -547.99835694 0 592
0.02550000 0.02547300 65396.87255448 0 -1330.00106358 0 30382.55883991 0 5845.16568485 0 -7187.44750057 0 837
0.02650000 0.02652900 66231.80991639 0 822.18427314 0 27392.00895464 0 6794.96872224 0 -791.94594174 0 723
0.02750000 0.02749970 66052.65153758 0 520.80055523 0 20584.64963453 0 9456.25604438 0 -3006.18093205 0 826
0.02850000 0.02848090 66231.80991639 0 2110.36706890 0 24304.13575630 0 1430.05953522 0 2968.73452412 0 831
0.02950000 0.02946900 62588.77641978 0 3566.02065823 0 20049.48125837 0 96.49968982 0 2420.17595398 0 996
0.03050000 0.03053250 59067.89137029 0 197.14671486 0 25638.43178776 0 2316.34977395 0 1101.73066076 0 1041
0.03150000 0.03150510 57653.84734189 0 627.92100858 0 17454.70552321 0 -1468.02221806 0 7001.58853249 0 1036
0.03250000 0.03246190 57343.97254937 0 1064.85215524 0 21691.23547638 0 3571.75460512 0 -9746.86389660 0 1059
0.03350000 0.03345080 56449.49880407 0 1989.63563166 0 17876.29341888 0 293.56929298 0 -1252.17536684 0 1302
0.03450000 0.03451200 51045.74816841 0 1056.97511824 0 17421.09273111 0 417.61148040 0 -3908.21206329 0 1339
0.03550000 0.03553350 50519.36745031 0 2035.77083650 0 18857.76497902 0 -2449.69150051 0 -6157.06163872 0 1365
0.03650000 0.03647120 47940.95872829 0 1385.79170772 0 17690.65414225 0 3405.53605282 0 -4637.56571354 0 1308
0.03750000 0.03744890 46754.84458096 0 774.01252854 0 18249.32950374 0 4053.28531337 0 267.61055106 0 1579
0.03850000 0.03847530 45201.07678932 0 230.82870977 0 12892.48299300 0 3722.36407978 0 -3803.56204031 0 1662
0.03950000 0.03950240 46059.19159938 0 -563.10653807 0 12188.92111916 0 3183.98820843 0 3316.92350581 0 1683
0.04050000 0.04050350 45882.55967227 0 -458.98816840 0 8457.53870529 0 4536.96899784 0 1966.65590582 0 1822
0.04150000 0.04152450 47857.80551385 0 281.79383117 0 8275.85387479 0 -1698.43461253 0 3264.03278883 0 1887
0.04250000 0.04250150 43460.02203518 0 2522.66201617 0 8337.68603385 0 -666.86571221 0 2874.67362911 0 1920
0.04350000 0.04349210 44552.32793267 0 1522.22009918 0 11613.76889880 0 276.78596453 0 6240.52242119 0 2005
0.04450000 0.04448520 42913.64939499 0 -1612.63411609 0 11092.66077554 0 4029.33894514 0 7615.20872603 0 2151
0.04550000 0.04548030 43564.70501188 0 -836.42027921 0 8513.41722601 0 540.27620241 0 1811.39995695 0 2274
0.04650000 0.04648670 40761.11255195 0 2889.50280209 0 10391.44960024 0 -1667.50205614 0 9836.72868488 0 2311
0.04750000 0.04749250 40627.54014936 0 1619.01615276 0 11808.08598777 0 -2445.59425494 0 7816.85252491 0 2568
0.04850000 0.04851840 38973.81274723 0 8.36872844 0 14346.95024849 0 1957.17621968 0 6426.41434299 0 2493
0.04950000 0.04949480 38602.97357689 0 1344.21510050 0 13714.34871353 0 1981.27637192 0 2612.14234442 0 2644
0.05050000 0.05050630 38324.62450768 0 823.85392817 0 16266.28461563 0 -3447.44219722 0 7072.77954739 0 2829
0.05150000 0.05149060 35393.94054298 0 1052.98222610 0 14313.77683930 0 -656.35896854 0 4382.38310791 0 2784
0.05250000 0.05249300 35101.20168368 0 319.74772636 0 16452.03373798 0 1427.36831494 0 1456.93878433 0 3055
0.05350000 0.05348950 34592.83566462 0 185.89851254 0 16016.71512658 0 -390.88271994 0 814.02822800 0 3009
0.05450000 0.05448610 36108.70668084 0 96.78122441 0 14084.19927235 0 848.70212981 0 -1656.55043727 0 3336
0.05550000 0.05550870 35292.33324660 0 1451.72111235 0 16460.38201314 0 -1770.82294584 0 -1471.16380582 0 3349
0.05650000 0.05647670 33043.24201057 0 78.33186584 0 12711.89661976 0 1129.24701508 0 -2231.74659592 0 3324
0.05750000 0.05747970 33241.51354566 0 -606.59336246 0 14919.90555434 0 2667.72428168 0 656.84448665 0 3639
0.05850000 0.05849280 33325.76521736 0 -865.40087705 0 8745.34549149 0 3395.80372151 0 -4217.38384316 0 3846
0.05950000 0.05951020 31978.50739026 0 1093.98324172 0 10101.13833149 0 1139.74826647 0 -1713.25280094 0 3787
0.06050000 0.06049470 33139.90624928 0 1334.70246064 0 7679.61127508 0 -1030.22109326 0 -2351.40154505 0 3930
0.06150000 0.06148310 30776.13607550 0 1089.27305700 0 8389.39041699 0 -1354.69438274 0 -1544.23318263 0 4083
0.06250000 0.06249100 30437.59154855 0 -264.01969428 0 9134.50692890 0 599.39407359 0 -3163.18342796 0 4303
0.06350000 0.06350600 29522.68649825 0 -67.32422566 0 7693.26509880 0 1957.71446374 0 -2565.17231206 0 4470
0.06450000 0.06451750 30347.29836193 0 84.01001110 0 6809.71001864 0 -125.79532520 0 -4725.50820163 0 4479
0.06550000 0.06550280 28838.78700933 0 779.80029984 0 7296.15083083 0 -910.28823444 0 -3972.77938092 0 4636
0.06650000 0.06648880 29235.33007952 0 751.31071239 0 8103.58282300 0 326.30112236 0 -2832.51483954 0 4653
0.06750000 0.06749660 28344.04186027 0 278.95212225 0 8361.31384947 0 -250.35927982 0 -1616.62151594 0 5220
0.06850000 0.06852730 27661.57036579 0 -39.53534410 0 8900.93097753 0 145.34017520 0 -2705.24758162 0 5029
0.06950000 0.06949320 27355.54017367 0 748.10870948 0 9819.98819627 0 -269.24615391 0 -1662.80065907 0 5040
0.07050000 0.07048030 27071.36928099 0 342.72745220 0 9845.49437380 0 48.43361681 0 -983.09178460 0 5475
0.07150000 0.07148790 26864.63962501 0 -154.41892443 0 9749.01687282 0 1343.56701071 0 -965.38355514 0 5509
0.07250000 0.07249820 26782.91440501 0 366.90010262 0 9599.34108683 0 943.09256200 0 1069.01201287 0 5916
0.07350000 0.07351270 26979.97763712 0 25.10941477 0 9040.47898761 0 570.07075708 0 725.12568827 0 5721
0.07450000 0.07449140 26470.51316080 0 525.94572902 0 9859.91711760 0 332.35911414 0 1683.59445497 0 6028
0.07550000 0.07549160 25838.24116301 0 600.11136618 0 8797.54418040 0 216.04127816 0 2838.40257045 0 6183
0.07650000 0.07648840 25675.55964308 0 -635.36964725 0 8897.65757490 0 1977.61850925 0 2716.97910513 0 6330
0.07750000 0.07749960 25570.21759203 0 417.90367003 0 8683.04099581 0 -893.95966730 0 1629.11097497 0 6583
0.07850000 0.07848650 24985.83833070 0 1365.30547985 0 8830.25623755 0 -293.73845540 0 2875.56337949 0 6549
0.07950000 0.07947320 23622.87256481 0 470.19792472 0 9094.41323898 0 51.22391794 0 2197.85918951 0 6828
0.08050000 0.08048110 23591.45668723 0 -217.00462517 0 9538.46458558 0 1456.24675625 0 3804.78132786 0 7147
0.08150000 0.08149960 23179.09583252 0 163.33620046 0 8562.62811117 0 325.91666232 0 1187.57509549 0 7386
0.08250000 0.08250610 23356.38683398 0 156.73886616 0 8620.02250291 0 639.61188918 0 3053.72216219 0 7227
0.08350000 0.08350160 22528.47959853 0 354.39965902 0 7187.29371655 0 -219.11805694 0 2085.24535141 0 7798
0.08450000 0.08449610 22631.29519789 0 174.57561512 0 8031.43615028 0 639.05057752 0 1568.02576684 0 7371
0.08550000 0.08548940 22620.20077958 0 284.45868848 0 7150.18783037 0 54.74601129 0 1051.35541091 0 8256
0.08650000 0.08650700 22050.43099979 0 -41.12404283 0 7413.07062139 0 -234.58872896 0 554.39796892 0 8037
0.08750000 0.08749060 21877.97321026 0 339.40352053 0 6874.58490431 0 189.81561112 0 1248.81408763 0 8155
0.08850000 0.08849210 21442.65459886 0 -311.98712583 0 6134.23569690 0 798.47627014 0 95.88059931 0 8718
0.08950000 0.08949900 22002.97764624 0 138.40231915 0 5791.69278552 0 1568.81665607 0 428.13689784 0 8571
0.09050000 0.09049190 20948.56852415 0 504.54888009 0 5536.49919531 0 -680.02083634 0 220.84922558 0 8932
0.09150000 0.09150830 20375.06398968 0 603.76483502 0 6467.35384500 0 -522.79755052 0 1670.47887531 0 9285
0.09250000 0.09250820 19752.67810722 0 925.06797685 0 6600.53080298 0 -460.87641642 0 222.86489465 0 9204
0.09350000 0.09350330 19689.73650633 0 371.48396476 0 6925.52036737 0 -108.82470979 0 -145.46100549 0 9349
0.09450000 0.09448040 18534.37916223 0 163.65255615 0 8095.52014672 0 25.00857640 0 330.50381983 0 9564
0.09550000 0.09549270 18276.35155229 0 86.38388708 0 6882.09835195 0 850.72878345 0 2306.09018315 0 10155
0.09650000 0.09649430 18453.86224520 0 -229.08765501 0 7045.90029829 0 516.45286140 0 614.46820254 0 9913
0.09750000 0.09749140 17906.17145630 0 700.04131832 0 6330.98037640 0 293.03544275 0 346.28645371 0 10476
0.09850000 0.09850240 17767.98553323 0 425.82684223 0 6919.12734613 0 91.22039439 0 1991.88746904 0 10575
0.09950000 0.09950330 17436.58097845 0 -136.41740689 0 6158.00631196 0 577.94340025 0 1454.53316293 0 10882
0.10050000 0.10051200 17458.98950651 0 137.16325937 0 6005.93588915 0 592.04978836 0 1019.86154286 0 10875
0.10150000 0.10150300 17186.46226077 0 397.26146123 0 6078.67572878 0 -388.35516978 0 834.88134059 0 11118
0.10250000 0.10250800 16416.99295145 0 261.99633601 0 5676.72824888 0 -68.47727624 0 1159.25686737 0 11575
0.10350000 0.10349800 15666.96633559 0 460.56774993 0 6024.69753912 0 14.86289562 0 1368.30426817 0 11364
0.10450000 0.10450100 15632.58462341 0 207.76879655 0 5958.86699564 0 234.93254608 0 919.64928720 0 12093
0.10550000 0.10551000 15553.05631792 0 156.19732673 0 6238.47929069 0 497.43636935 0 218.87529788 0 12067
0.10650000 0.10649700 15316.99785315 0 117.56678188 0 5473.33790297 0 -280.11209311 0 404.84740706 0 12054
0.10750000 0.10749900 14970.43458821 0 260.25308434 0 6562.96356475 0 -418.92853065 0 768.46202402 0 12807
0.10850000 0.10850100 14543.13471480 0 287.69254665 0 6011.53802116 0 -10.35701297 0 625.47694118 0 12736
0.10950000 0.10950300 14592.89482859 0 -109.32725399 0 6079.43366429 0 574.54367504 0 414.36114537 0 12933
0.11050000 0.11050200 14859.81994232 0 -177.33164438 0 5659.88889912 0 1266.43334205 0 338.81255053 0 13428
0.11150000 0.11150900 14615.96243101 0 48.21172844 0 5046.89482622 0 488.35102936 0 1085.18899291 0 13453
0.11250000 0.11250000 14645.62077698 0 120.10971043 0 4757.69299929 0 278.92246390 0 1587.27073800 0 13668
0.11350000 0.11349100 14678.13511182 0 52.36829071 0 5027.14456471 0 -480.03790483 0 339.96263528 0 13791
0.11450000 0.11448600 14039.60190767 0 694.80497257 0 4971.01339882 0 -420.09619072 0 750.34187309 0 14205
0.11550000 0.11549300 13728.29912071 0 336.62112830 0 5928.40677587 0 -345.13636896 0 1368.10654586 0 14776
0.11650000 0.11649800 13399.20132617 0 -13.89284802 0 6225.56143334 0 280.12966843 0 786.24714548 0 14553
0.11750000 0.11747300 13676.67162958 0 -17.24896448 0 5288.96185219 0 875.61433263 0 895.57769484 0 14568
0.11850000 0.11849100 13719.51146265 0 -235.07314861 0 5047.91639147 0 510.81777566 0 1399.48946973 0 16015
0.11950000 0.11950300 13633.72195079 0 -242.37129864 0 4025.56025218 0 682.93614190 0 1779.24811301 0 15270
0.12050000 0.12050700 13973.80431790 0 50.42984318 0 4601.31662403 0 236.22982411 0 1658.63750607 0 15999
0.12150000 0.12150000 13872.96594161 0 143.28276475 0 3936.48635311 0 -328.36072972 0 2369.09769148 0 15670
0.12250000 0.12250700 13762.13160426 0 244.83953209 0 4526.05033270 0 138.32213177 0 1237.52194701 0 16887
0.12350000 0.12352200 13411.39420174 0 133.56691030 0 4105.81353945 0 -168.08263427 0 1850.69177308 0 16407
0.12450000 0.12449800 13275.73473036 0 201.98981291 0 4876.06275343 0 -123.13815709 0 1426.37970341 0 16306
0.12550000 0.12549900 13025.17662978 0 104.03400815 0 4423.78396197 0 546.37593557 0 2062.81485420 0 17523
0.12650000 0.12650100 13248.05360745 0 161.67313617 0 4443.74293035 0 157.15627992 0 1473.09709059 0 17154
0.12750000 0.12750600 12942.79233542 0 4.00291006 0 3906.67422313 0 112.16127371 0 1388.05452967 0 18007
0.12850000 0.12850300 12593.15339016 0 348.86013907 0 4161.26366185 0 -97.03859295 0 1607.37250583 0 17496
0.12950000 0.12949900 12423.99097240 0 76.78424941 0 4360.95220680 0 -366.28386810 0 1224.52719765 0 18405
0.13050000 0.13049000 12348.08757587 0 40.96740283 0 4417.87426192 0 288.90963729 0 1331.17641284 0 18100
0.13150000 0.13148800 12511.42817015 0 -112.30187624 0 4123.81725392 0 270.02935394 0 624.53885868 0 19059
0.13250000 0.13249300 12310.41049191 0 370.62277427 0 4343.65150499 0 -277.17042457 0 436.59721565 0 18957
0.13350000 0.13349100 12060.07208278 0 200.24765970 0 4484.92409295 0 -380.80437459 0 535.34852315 0 19468
0.13450000 0.13450700 11624.31408848 0 212.29114508 0 4733.87844594 0 70.69055777 0 642.12406093 0 19953
0.13550000 0.13551000 11516.66527718 0 151.87709434 0 4788.70244769 0 -127.61546888 0 26.80598201 0 19956
0.13650000 0.13649900 11409.56569452 0 116.57817035 0 4652.73540828 0 228.28138739 0 96.30053952 0 19723
0.13750000 0.13749600 11323.11710830 0 -38.99699020 0 4311.43375360 0 514.46904759 0 416.28454403 0 20946
0.13850000 0.13851100 11607.50769243 0 -85.14559622 0 3933.76217911 0 690.04645573 0 526.19727574 0 20955
0.13950000 0.13949800 11374.41506226 0 -157.06840334 0 3093.20071604 0 532.37280244 0 739.57479504 0 20506
0.14050000 0.14048300 11333.88198943 0 302.27346829 0 3758.34953956 0 -33.07410866 0 590.29445366 0 21447
0.14150000 0.14148400 11131.65600821 0 210.17331949 0 3082.71044923 0 -518.42569063 0 702.36235851 0 21771
0.14250000 0.14249400 10725.22682270 0 390.53121361 0 3956.59910551 0 -332.00321398 0 182.88105045 0 22470
0.14350000 0.14350900 10519.49676282 0 134.17216025 0 3876.40074109 0 -229.24693132 0 516.40562774 0 22519
0.14450000 0.14449900 10616.41364671 0 -150.48534899 0 3693.91403680 0 575.41914547 0 90.74992515 0 22218
0.14550000 0.14550500 10596.50960119 0 -1.51444302 0 3620.39429251 0 464.66389705 0 213.48516812 0 23559
0.14650000 0.14650700 10684.92442590 0 -24.52371736 0 3333.57611784 0 326.17040594 0 573.52210979 0 23044
0.14750000 0.14750500 10590.24839482 0 107.85290466 0 3313.86979463 0 -257.36633867 0 120.92476572 0 23649
0.14850000 0.14849900 10153.86427988 0 264.34593608 0 3321.13059711 0 -252.57596656 0 274.27708816 0 23640
0.14950000 0.14949500 10305.01199860 0 42.78436098 0 3119.34399879 0 306.69475876 0 243.24237524 0 24457
0.15050000 0.15050000 10009.16450527 0 107.16911501 0 3386.97212516 0 395.59180620 0 168.80871452 0 24591
0.15150000 0.15149900 10197.19841871 0 51.05464567 0 2972.09580333 0 184.39911838 0 111.01777971 0 25020
0.15250000 0.15250500 9868.07865503 0 58.60500148 0 2805.60263672 0 -23.50379980 0 296.69110851 0 25297
0.15350000 0.15350100 9676.46377092 0 53.38073876 0 2283.36310248 0 500.02103927 0 570.72653607 0 25452
0.15450000 0.15450400 9503.21509217 0 199.54354860 0 2433.53319424 0 33.79260955 0 410.63298144 0 26061
0.15550000 0.15549900 9251.66838006 0 278.88511635 0 2411.54207994 0 -70.18878250 0 725.59143415 0 26128
0.15650000 0.15649500 9006.58059662 0 248.95215607 0 2733.95026977 0 -294.43048347 0 496.09185766 0 26331
0.15750000 0.15749700 8687.23710254 0 127.23759958 0 2610.06626020 0 208.31582826 0 915.32136560 0 27345
0.15850000 0.15849900 8907.53270565 0 -174.60856884 0 2554.71499896 0 385.13888693 0 711.41474477 0 26980
0.15950000 0.15949700 8992.60822030 0 -68.19574165 0 2269.81912449 0 214.41446296 0 334.35281406 0 27777
0.16050000 0.16050000 8898.66815558 0 155.29219795 0 2194.43200287 0 -173.10587931 0 439.32798039 0 28224
0.16150000 0.16150500 8907.00544617 0 221.44898324 0 2316.10811335 0 -533.31527877 0 441.00093079 0 28075
0.16250000 0.16249700 8666.01490831 0 -6.63797721 0 2279.32077977 0 112.15358451 0 520.12390556 0 28590
0.16350000 0.16349900 8537.71510056 0 13.77608201 0 2755.24935601 0 303.90577578 0 -133.54164579 0 29163
0.16450000 0.16449100 8626.89884535 0 9.96577544 0 2288.64668190 0 87.34196150 0 96.46322104 0 28996
0.16550000 0.16550500 8608.78528516 0 119.45283299 0 2268.84149753 0 279.22234273 0 220.50211308 0 30777
0.16650000 0.16650700 8524.34687573 0 -10.35998978 0 1951.98051685 0 85.06112485 0 574.53708429 0 29211
0.16750000 0.16749900 8468.47933958 0 79.78149989 0 1922.84943036 0 22.50925660 0 228.18142777 0 30922
0.16850000 0.16850800 8364.85088185 0 113.86498092 0 2026.18130464 0 -72.71512435 0 271.65836605 0 30867
0.16950000 0.16949900 8069.15717253 0 127.88129553 0 1958.58224497 0 133.46585224 0 250.27909244 0 30852
0.17050000 0.17049200 8199.63192565 0 125.43173585 0 1923.06912182 0 -19.36580146 0 459.00903908 0 31257
0.17150000 0.17149500 7928.71941208 0 102.07337179 0 2144.66090450 0 -194.01721013 0 377.81327548 0 32608
0.17250000 0.17250900 8056.00863915 0 66.30353918 0 2307.78180733 0 -77.66762874 0 35.79839251 0 32361
0.17350000 0.17350400 7645.95454469 0 83.60105546 0 2411.62995652 0 36.30708806 0 348.17470174 0 32508
0.17450000 0.17449800 7862.81197659 0 -76.09606594 0 2166.83875654 0 180.99280242 0 440.57802475 0 32791
0.17550000 0.17549800 7738.41169210 0 40.56382963 0 2198.66106331 0 53.72345743 0 575.25327843 0 33633
0.17650000 0.17650100 7970.90017079 0 90.16192098 0 2190.79610934 0 143.35086910 0 487.33715331 0 33984
0.17750000 0.17750300 7847.45554412 0 -127.76376061 0 2095.82349480 0 117.93915889 0 599.78292746 0 34069
0.17850000 0.17849800 8018.55124665 0 82.84751379 0 2033.48604540 0 55.73297513 0 178.48282759 0 34536
