### header ###
fiducial parameters:
Omega_m = 0.31
Omega_nu = 0
Omega_de = 0.69
Omega_k = 0
H_0 = 100
w_de = -1
zeff = 0
beta = 0
fgrowth = 0
b_1 = 2
gamma = 0.55
Lx = 3500 Ly = 3500 Lz = 3500
nx = 700 ny = 700 nz = 700
xoffset = -983.599254 yoffset = -42.9823471 zoffset = 800.977702
bins = 400 dk = 0.001
kx_ny = 0.628318531 ky_ny = 0.628318531 kz_ny = 0.628318531
############################
A(data) = 8.99507154 (not used)
A(ran) = 8.98901773 (used)
Ngal = 499115
weighted Ngal = 0
Nran = 25229228
weighted Nran = 0
SN(data) = 6780.75978
SN(ran) = 133.435775
SN(data+ran) = 6914.19556
############################
13 columns: k_central k_mean P_0(k) sigma^{lin}_{P_0(k)} P^img_1(k) sigma^{lin}_{P_1(k)} P_2(k) sigma^{lin}_{P_2(k)} P^img_3(k) sigma^{lin}_{P_3(k)} P_4(k) sigma^{lin}_{P_4(k)} N_modes
### header ###
0.00050000 0 0 0 0 0 0 0 0 0 0 0 0
0.00150000 0.00179520 36526.99920474 0 17233.25653997 0 32029.58565276 0 10677.97119145 0 -99104.35166904 0 3
0.00250000 0.00253879 47918.98958313 0 21442.21521596 0 24646.08550076 0 13691.17126539 0 31746.07383444 0 6
0.00350000 0.00331552 41259.48260996 0 9781.19068591 0 28577.02464472 0 9520.37299454 0 29764.45694076 0 7
0.00450000 0.00420575 38533.00184955 0 -8895.26293808 0 25689.61989599 0 27859.29267225 0 13495.20649054 0 24
0.00550000 0.00557378 54525.99029935 0 -2297.06086449 0 23026.62996509 0 24931.57454215 0 -5436.75927627 0 45
0.00650000 0.00659388 71145.31907775 0 -4719.74130103 0 18519.76968069 0 4939.04829261 0 47650.85616642 0 40
0.00750000 0.00754703 56356.23978286 0 4828.90598334 0 48338.92979291 0 -1065.78145008 0 8241.48314719 0 57
0.00850000 0.00846663 64966.05761784 0 5096.46820228 0 27317.53355254 0 6051.08248246 0 18469.46033827 0 75
0.00950000 0.00948925 60946.47297315 0 991.47191502 0 23978.55302499 0 24116.73894806 0 28177.73543139 0 112
0.01050000 0.01054430 62015.16203959 0 -3829.24397100 0 42282.36600874 0 11508.75638492 0 27802.94181491 0 105
0.01150000 0.01145670 61409.25301600 0 2604.98040309 0 28254.29790228 0 15270.31341968 0 22866.47489686 0 144
0.01250000 0.01249090 65445.31451956 0 -5282.00861775 0 18466.38465795 0 834.37824716 0 8250.25982068 0 169
0.01350000 0.01339930 59798.25560122 0 5106.67287020 0 15415.74916066 0 -1286.06277325 0 15428.60111058 0 180
0.01450000 0.01448870 64356.30399385 0 4964.87302275 0 32029.03642413 0 -3836.09834429 0 6797.37434363 0 267
0.01550000 0.01550050 63613.96657880 0 -3646.94400444 0 24821.94850779 0 -773.34686344 0 -1134.46468706 0 238
0.01650000 0.01653350 66051.11369742 0 -6967.12992831 0 15654.66361430 0 18973.21283685 0 -3017.83556356 0 315
0.01750000 0.01747870 75300.45334809 0 -8375.97825387 0 4929.22808472 0 2189.06054687 0 -5868.00261124 0 297
0.01850000 0.01844180 73852.57683614 0 -271.09925131 0 7123.02298238 0 10083.28840104 0 -6382.83854356 0 388
0.01950000 0.01947590 76487.44626123 0 4970.60696964 0 4313.19128522 0 -18468.36188101 0 154.12124252 0 399
0.02050000 0.02045430 71876.23253731 0 3212.93255718 0 20664.17794002 0 -236.32978372 0 -2000.70808082 0 462
0.02150000 0.02154770 72567.60153558 0 4951.63661279 0 19419.84555801 0 -7122.23209315 0 -19544.19091963 0 571
0.02250000 0.02255340 64574.01822241 0 4445.66523055 0 21496.25931306 0 -3777.74829474 0 -5610.22764648 0 510
0.02350000 0.02348930 67367.61472130 0 -1202.71183650 0 29134.82124040 0 -5823.74576831 0 -10324.83915211 0 555
0.02450000 0.02439640 62628.54057253 0 -1328.83669888 0 25248.04007822 0 5119.17331380 0 -12017.78147834 0 592
0.02550000 0.02547300 66417.22950156 0 -348.12746808 0 24738.35591044 0 2202.39581799 0 -19411.16774567 0 837
0.02650000 0.02652900 58217.90514394 0 4220.29475490 0 24320.39292372 0 -2460.48933536 0 5694.83082450 0 723
0.02750000 0.02749970 61770.31591675 0 2442.59546662 0 27105.53130172 0 6642.06347191 0 -16995.87992648 0 826
0.02850000 0.02848090 60664.05961208 0 1028.91942141 0 22773.54541282 0 5388.44912606 0 -4314.72912538 0 831
0.02950000 0.02946900 60314.42066682 0 720.64508111 0 20245.55587895 0 4163.10907004 0 -4949.53855943 0 996
0.03050000 0.03053250 55518.77596925 0 -3424.50640967 0 17101.44166899 0 2496.88122432 0 6005.07909249 0 1041
0.03150000 0.03150510 57715.14125689 0 2109.05990476 0 16620.64692710 0 -1062.39490635 0 -9120.10615425 0 1036
0.03250000 0.03246190 55522.29103248 0 8350.32927689 0 22934.35955541 0 -5562.04931114 0 -3053.01914954 0 1059
0.03350000 0.03345080 49886.98560680 0 400.61505124 0 20138.23660483 0 -303.72453033 0 6888.45841948 0 1302
0.03450000 0.03451200 52470.77676938 0 -6378.53259111 0 20320.14112678 0 10576.40783337 0 -1081.35647554 0 1339
0.03550000 0.03553350 53141.71446265 0 -312.63301869 0 12458.92191321 0 6712.21095241 0 5255.60170526 0 1365
0.03650000 0.03647120 54929.67334172 0 2029.74030615 0 11526.44154678 0 1252.31816628 0 -520.52923628 0 1308
0.03750000 0.03744890 55390.03677860 0 3806.16538401 0 13261.12524883 0 -6328.47589385 0 927.44833373 0 1579
0.03850000 0.03847530 51878.70830725 0 865.67768828 0 19158.96195920 0 -476.39871594 0 7491.45653133 0 1662
0.03950000 0.03950240 48354.74757743 0 -1541.26734803 0 16886.03420067 0 -386.45374027 0 -183.62031218 0 1683
0.04050000 0.04050350 47800.13650780 0 1703.10305587 0 16408.75452201 0 89.14222310 0 -5111.23146782 0 1822
0.04150000 0.04152450 48314.10465888 0 1978.56318250 0 19706.98228528 0 486.23979451 0 2384.30033993 0 1887
0.04250000 0.04250150 45463.71791974 0 476.37015605 0 19449.61374970 0 2001.47700090 0 -1708.39761986 0 1920
0.04350000 0.04349210 46647.30561538 0 1163.12343692 0 19480.80993583 0 2868.59916047 0 1395.32631672 0 2005
0.04450000 0.04448520 46224.39957100 0 39.00797477 0 17402.85834062 0 -2647.93008189 0 -1693.56844687 0 2151
0.04550000 0.04548030 41860.11903871 0 1047.04726154 0 16667.44120630 0 1666.37064516 0 3302.32500885 0 2274
0.04650000 0.04648670 42686.59827973 0 1629.64921902 0 18445.84350722 0 523.23583497 0 289.70711726 0 2311
0.04750000 0.04749250 40046.78579698 0 1485.58654962 0 21120.47708505 0 1167.44037395 0 4374.74882996 0 2568
0.04850000 0.04851840 39296.31979822 0 1232.82054995 0 21415.85224176 0 233.31451854 0 3034.03780812 0 2493
0.04950000 0.04949480 38276.51207977 0 488.32686330 0 21528.77364790 0 -1391.44876260 0 2608.29774401 0 2644
0.05050000 0.05050630 37629.74044618 0 232.76528991 0 21424.63989983 0 1488.81601396 0 2381.04890645 0 2829
0.05150000 0.05149060 37886.99913604 0 256.63037230 0 21451.55210265 0 1156.19217162 0 608.12241496 0 2784
0.05250000 0.05249300 35934.16182253 0 1100.01706744 0 20055.41292756 0 -490.36450152 0 2433.26956450 0 3055
0.05350000 0.05348950 35403.16758394 0 905.64835099 0 21445.62043346 0 2563.38182673 0 3662.73981981 0 3009
0.05450000 0.05448610 36665.84420217 0 -658.70197787 0 19884.60282392 0 2684.92612234 0 886.55936075 0 3336
0.05550000 0.05550870 35118.99669126 0 247.58897061 0 18030.84635510 0 1742.09828854 0 1378.68468926 0 3349
0.05650000 0.05647670 35537.28921516 0 401.04235112 0 17197.44683335 0 134.14250191 0 2057.31158333 0 3324
0.05750000 0.05747970 34119.40058636 0 726.57784876 0 15616.98653035 0 -423.70901664 0 3813.98639969 0 3639
0.05850000 0.05849280 32861.99656298 0 1225.46088632 0 17775.78457976 0 158.63809876 0 482.17769957 0 3846
0.05950000 0.05951020 32489.94908965 0 1115.46137649 0 16367.01314620 0 943.11233423 0 680.61620017 0 3787
0.06050000 0.06049470 30677.49461372 0 82.35881015 0 17227.54456222 0 525.11199996 0 1640.87545220 0 3930
0.06150000 0.06148310 30544.69113122 0 675.27330407 0 16164.56747353 0 2071.31691337 0 2578.26592258 0 4083
0.06250000 0.06249100 30771.19301784 0 -942.96184559 0 14018.84106549 0 2305.90344542 0 2542.02781763 0 4303
0.06350000 0.06350600 31210.68576682 0 -200.89684794 0 13082.40625293 0 2743.24321817 0 1050.63372449 0 4470
0.06450000 0.06451750 30861.81574164 0 903.28117559 0 12734.41499355 0 -1085.96120837 0 2243.30236628 0 4479
0.06550000 0.06550280 30202.96107821 0 258.17919704 0 11093.42969562 0 -109.78783712 0 1844.56238158 0 4636
0.06650000 0.06648880 30748.89433550 0 62.91666591 0 11661.99117243 0 2290.38224436 0 2590.89818104 0 4653
0.06750000 0.06749660 29898.13918908 0 -844.56204440 0 9281.13998829 0 670.97174544 0 624.90794032 0 5220
0.06850000 0.06852730 29930.43383247 0 214.02560909 0 9045.77355159 0 2526.90206118 0 1864.93876372 0 5029
0.06950000 0.06949320 30211.52904482 0 982.50081459 0 9745.26014900 0 -826.10027327 0 3087.30200057 0 5040
0.07050000 0.07048030 28813.30280094 0 483.50683286 0 8205.33291882 0 26.19567915 0 2215.95078055 0 5475
0.07150000 0.07148790 28406.21454108 0 473.75363086 0 8883.92685918 0 -1139.96795792 0 1951.57408766 0 5509
0.07250000 0.07249820 27840.06967024 0 932.14973080 0 10602.85868414 0 480.15763668 0 1018.89929430 0 5916
0.07350000 0.07351270 27471.09787723 0 -221.01509262 0 9811.17856906 0 -1035.59145079 0 1023.80610287 0 5721
0.07450000 0.07449140 26666.47793565 0 255.42756161 0 10380.21238249 0 668.63532686 0 -795.46869417 0 6028
0.07550000 0.07549160 26274.87792312 0 605.64209847 0 10523.04477977 0 -946.12540249 0 -725.29485069 0 6183
0.07650000 0.07648840 25885.58467084 0 606.77570636 0 10485.16997351 0 622.87908977 0 -1557.86503720 0 6330
0.07750000 0.07749960 25935.23493891 0 237.29093382 0 10745.71305056 0 579.18136158 0 -1363.26234935 0 6583
0.07850000 0.07848650 25577.35756421 0 -494.03884105 0 8976.97717351 0 668.53097342 0 -1017.40978626 0 6549
0.07950000 0.07947320 24760.21520988 0 563.16036247 0 9062.04170358 0 1130.94962383 0 211.74850719 0 6828
0.08050000 0.08048110 24525.36504809 0 620.65471382 0 9116.15170812 0 156.01058900 0 11.10397489 0 7147
0.08150000 0.08149960 23272.02531656 0 937.26085242 0 8694.80547304 0 365.77308547 0 912.13913492 0 7386
0.08250000 0.08250610 23224.35227156 0 -6.97919099 0 9538.16800212 0 1393.97521429 0 1996.84151127 0 7227
0.08350000 0.08350160 22894.48555694 0 -23.74798685 0 7331.85069172 0 359.28230153 0 103.56990996 0 7798
0.08450000 0.08449610 22001.11026890 0 1046.47496531 0 7884.75915261 0 373.22831488 0 1481.36847375 0 7371
0.08550000 0.08548940 21914.66168268 0 -271.01467010 0 6856.21869895 0 1207.56701758 0 2629.04760162 0 8256
0.08650000 0.08650700 21553.70862766 0 -175.97395121 0 6070.36040734 0 1079.70219891 0 1432.19054230 0 8037
0.08750000 0.08749060 21586.22296250 0 251.46432782 0 4785.69267480 0 385.39482747 0 686.73900093 0 8155
0.08850000 0.08849210 21209.67181441 0 593.92815027 0 5638.35913686 0 -1198.76837495 0 392.75119573 0 8718
0.08950000 0.08949900 20335.62937411 0 827.28111482 0 5824.22908951 0 -1127.55539090 0 -580.71810329 0 8571
0.09050000 0.09049190 19864.06167320 0 -190.60210652 0 6664.43904625 0 -16.64646067 0 -1384.93491106 0 8932
0.09150000 0.09150830 19711.15642287 0 194.59280174 0 6217.96010911 0 176.44299246 0 -1587.87488950 0 9285
0.09250000 0.09250820 19593.18211334 0 474.15346930 0 6199.25338201 0 421.21112483 0 -2256.47286880 0 9204
0.09350000 0.09350330 19164.45424549 0 290.27501966 0 5662.32747423 0 259.33916790 0 -914.35582167 0 9349
0.09450000 0.09448040 18677.17860578 0 85.29992946 0 6767.32055305 0 201.22528666 0 71.38840767 0 9564
0.09550000 0.09549270 18533.93977932 0 81.57945473 0 6048.24846273 0 278.88511635 0 -1385.11066422 0 10155
0.09650000 0.09649430 18684.42842369 0 105.42388612 0 5610.23863105 0 -292.53674316 0 -1243.99186026 0 9913
0.09750000 0.09749140 18080.49662317 0 452.85438307 0 6273.42121608 0 -22.60482238 0 -1327.21098214 0 10476
0.09850000 0.09850240 17848.72214170 0 192.39698568 0 6033.95753380 0 -210.08104908 0 -538.70540853 0 10575
0.09950000 0.09950330 17388.79808772 0 275.52054177 0 6513.91744817 0 760.99690849 0 -877.70909063 0 10882
0.10050000 0.10051200 17036.30315358 0 345.70756674 0 6251.56191664 0 -167.63666062 0 -661.61838189 0 10875
0.10150000 0.10150300 16955.12716221 0 452.95873651 0 6534.37072232 0 402.48901932 0 -248.53584077 0 11118
0.10250000 0.10250800 16681.83099638 0 -78.92272600 0 6316.67846290 0 78.79574434 0 -416.69756396 0 11575
0.10350000 0.10349800 16155.88966119 0 269.37357496 0 6220.10210077 0 131.81816635 0 -191.33477751 0 11364
0.10450000 0.10450100 15911.26322980 0 85.65099640 0 5799.68955436 0 399.19145064 0 520.85987192 0 12093
0.10550000 0.10551000 16188.51384175 0 -15.14146438 0 5989.09653938 0 899.23555751 0 323.09692254 0 12067
0.10650000 0.10649700 15735.40022277 0 266.54175214 0 5871.51767447 0 -272.30645583 0 -299.22854477 0 12054
0.10750000 0.10749900 15649.17132801 0 484.48885364 0 5737.48391983 0 -344.03461633 0 296.57577050 0 12807
0.10850000 0.10850100 15475.17569832 0 -129.42572644 0 6272.53146570 0 -105.96037265 0 -444.18975222 0 12736
0.10950000 0.10950300 15015.91071870 0 109.71984261 0 5748.51243070 0 118.72455583 0 -43.93686233 0 12933
0.11050000 0.11050200 14799.84417602 0 34.25967358 0 5962.78848805 0 168.19907074 0 171.64163578 0 13428
0.11150000 0.11150900 14802.70016489 0 369.35295768 0 5720.15026430 0 228.68781657 0 129.97934890 0 13453
0.11250000 0.11250000 14784.13623723 0 104.59345243 0 5409.44064426 0 842.31569931 0 161.52484444 0 13668
0.11350000 0.11349100 14717.56972739 0 99.07930684 0 5839.39878424 0 261.25048353 0 582.64040349 0 13791
0.11450000 0.11448600 14453.06121963 0 79.65067363 0 5312.28209978 0 -329.86341925 0 597.58491448 0 14205
0.11550000 0.11549300 13979.95567855 0 325.95400986 0 5798.12974505 0 -14.64507155 0 1392.30555926 0 14776
0.11650000 0.11649800 14010.60263605 0 95.74043616 0 5162.32071490 0 413.77456919 0 1377.53130914 0 14553
0.11750000 0.11747300 13909.43472258 0 -122.50654417 0 5441.71331851 0 522.63058502 0 790.65415600 0 14568
0.11850000 0.11849100 14024.99242613 0 1.17103233 0 5000.84749795 0 149.51980506 0 835.32511732 0 16015
0.11950000 0.11950300 13969.08095169 0 388.71656222 0 5475.42497176 0 20.29707352 0 1220.41896750 0 15270
0.12050000 0.12050700 13781.13491483 0 -5.79937100 0 4741.71044619 0 -125.17689377 0 1613.72158878 0 15999
0.12150000 0.12150000 13583.30276264 0 48.24907599 0 5394.56753299 0 380.96694627 0 734.24727734 0 15670
0.12250000 0.12250700 13562.54192046 0 225.94387034 0 4994.89385962 0 188.14266072 0 1042.43483951 0 16887
0.12350000 0.12352200 13340.76340004 0 0.19597356 0 5262.59887800 0 -252.05969165 0 563.76780934 0 16407
0.12450000 0.12449800 13186.97938390 0 115.87735462 0 4900.73410345 0 183.73894557 0 1224.95559598 0 16306
0.12550000 0.12549900 13313.74135149 0 75.42710547 0 5099.77455862 0 451.62301248 0 746.55219555 0 17523
0.12650000 0.12650100 13082.73579011 0 189.12907533 0 4407.79042429 0 193.10219524 0 1267.76247533 0 17154
0.12750000 0.12750600 13191.59290439 0 -138.94935087 0 4379.10970528 0 954.40996713 0 1878.51569543 0 18007
0.12850000 0.12850300 12978.93157921 0 -57.12043650 0 4147.28030095 0 18.74594203 0 1451.23779116 0 17496
0.12950000 0.12949900 12909.50908050 0 406.15127582 0 3806.22030687 0 -261.44491047 0 1096.46465667 0 18405
0.13050000 0.13049000 12550.09386564 0 244.39136153 0 4031.33813735 0 83.87742731 0 2008.39728163 0 18100
0.13150000 0.13148800 12360.50014288 0 -0.70001825 0 3765.76412605 0 168.54178940 0 1162.56322372 0 19059
0.13250000 0.13249300 12201.22384045 0 137.05011827 0 4137.85553767 0 163.88652754 0 974.55896862 0 18957
0.13350000 0.13349100 11985.81637213 0 239.02649628 0 3640.48507576 0 2.52155257 0 791.35826711 0 19468
0.13450000 0.13450700 12013.49749504 0 -134.16007722 0 3576.12646501 0 194.83336388 0 587.26600700 0 19953
0.13550000 0.13551000 11815.00626849 0 -26.75677112 0 3114.52177142 0 77.19089829 0 451.36157965 0 19956
0.13650000 0.13649900 11998.33878488 0 252.75281818 0 3294.82254577 0 93.71235453 0 423.44099307 0 19723
0.13750000 0.13749600 11705.38023413 0 24.09059567 0 2869.74155602 0 39.05652658 0 423.79140093 0 20946
0.13850000 0.13851100 11624.09439703 0 26.77786150 0 2875.83799380 0 352.28622726 0 -71.83613885 0 20955
0.13950000 0.13949800 11596.74281130 0 266.53845677 0 3104.66860982 0 162.62659707 0 446.49541400 0 20506
0.14050000 0.14048300 11152.19715893 0 107.32180057 0 2709.34482719 0 -204.23505955 0 629.37536599 0 21447
0.14150000 0.14148400 11136.92860305 0 96.50726917 0 3205.55092441 0 190.03859794 0 700.86845664 0 21771
0.14250000 0.14249400 10915.57848096 0 100.08362631 0 2662.56153256 0 105.15718070 0 579.74926398 0 22470
0.14350000 0.14350900 10996.43591973 0 124.81220596 0 3003.29198947 0 138.86476966 0 783.66796784 0 22519
0.14450000 0.14449900 10887.73258947 0 40.46881308 0 2787.76369085 0 -39.52172323 0 809.88265031 0 22218
0.14550000 0.14550500 10963.87764660 0 -27.45330287 0 2993.65851931 0 -214.23102060 0 400.88746864 0 23559
0.14650000 0.14650700 10819.70513147 0 123.28315345 0 3031.35757241 0 -45.85597701 0 812.98798898 0 23044
0.14750000 0.14750500 10586.38182527 0 210.50175821 0 3411.78627462 0 -388.36066207 0 223.16367502 0 23649
0.14850000 0.14849900 10381.76120722 0 468.75345342 0 4129.05689504 0 -479.85116710 0 130.91743140 0 23640
0.14950000 0.14949500 10035.78012463 0 233.97688827 0 3991.55201546 0 15.66422019 0 108.15157518 0 24457
0.15050000 0.15050000 9879.42571851 0 138.56379237 0 4567.76973936 0 -203.37277060 0 244.40673993 0 24591
0.15150000 0.15149900 9679.29779065 0 31.42312740 0 4386.72201408 0 306.39378147 0 65.11522811 0 25020
0.15250000 0.15250500 9706.79217582 0 23.06134121 0 4416.60005150 0 487.47226356 0 343.18001659 0 25297
0.15350000 0.15350100 9608.05185288 0 -24.66025560 0 3908.62947705 0 97.42349237 0 659.63237117 0 25452
0.15450000 0.15450400 9562.42193838 0 54.93824131 0 3938.83705165 0 121.32460416 0 268.05982007 0 26061
0.15550000 0.15549900 9428.59689062 0 87.47256807 0 3469.98254016 0 128.31628461 0 421.43960394 0 26128
0.15650000 0.15649500 9581.21654207 0 62.55131903 0 3413.08245418 0 388.65834399 0 12.41926761 0 26331
0.15750000 0.15749700 9340.13812763 0 40.68389101 0 3095.37566141 0 -208.82441397 0 11.70691807 0 27345
0.15850000 0.15849900 9339.65480643 0 53.70851841 0 3152.08900965 0 365.06128517 0 -65.73552693 0 26980
0.15950000 0.15949700 9231.08329104 0 42.61102442 0 2936.61563390 0 59.55780331 0 -314.54872815 0 27777
0.16050000 0.16050000 9143.45935556 0 143.07625479 0 2634.18838159 0 -154.88247340 0 -379.00180623 0 28224
0.16150000 0.16150500 8903.08395376 0 97.76225659 0 2579.63899415 0 175.88168080 0 -645.67757016 0 28075
0.16250000 0.16249700 8894.93340090 0 34.36787162 0 2543.64254980 0 286.95767874 0 -129.53337525 0 28590
0.16350000 0.16349900 8791.64546492 0 105.55372377 0 2344.61307920 0 180.47323214 0 -574.00543098 0 29163
0.16450000 0.16449100 8886.68398690 0 -86.07533044 0 2057.08090731 0 36.71758154 0 -563.36577398 0 28996
0.16550000 0.16550500 8561.34291618 0 246.19063452 0 2373.93090342 0 -27.61565485 0 -552.96118683 0 30777
0.16650000 0.16650700 8479.10142126 0 170.36852382 0 2339.09882376 0 -162.44754853 0 390.43564783 0 29211
0.16750000 0.16749900 8237.94611481 0 -23.12615019 0 2029.42175355 0 750.29683634 0 -61.83984826 0 30922
0.16850000 0.16850800 8575.91944400 0 -68.42553891 0 1901.05603836 0 159.25653020 0 221.46106627 0 30867
0.16950000 0.16949900 8333.92931003 0 59.16576391 0 1869.42046933 0 135.78359705 0 130.77463195 0 30852
0.17050000 0.17049200 8253.84079134 0 193.45919385 0 1947.81736384 0 -278.46880105 0 560.48561905 0 31257
0.17150000 0.17149500 8131.69234423 0 186.36535687 0 1907.05361499 0 -106.43886063 0 266.35391595 0 32608
0.17250000 0.17250900 7886.26403905 0 59.48651343 0 1964.54686788 0 116.41450022 0 350.13434949 0 32361
0.17350000 0.17350400 7972.86640928 0 76.70636879 0 2106.52246850 0 -81.23102408 0 -11.08848664 0 32508
0.17450000 0.17449800 7790.96188733 0 93.58724024 0 2215.47844393 0 25.76673160 0 133.30328056 0 32791
0.17550000 0.17549800 7598.10574652 0 71.59733424 0 2174.45106534 0 -151.75516558 0 71.36138562 0 33633
0.17650000 0.17650100 7618.63591268 0 176.03656327 0 2162.15932862 0 54.59025005 0 10.71205632 0 33984
0.17750000 0.17750300 7609.70545517 0 -22.22849092 0 2086.20100922 0 49.95607857 0 4.13073753 0 34069
0.17850000 0.17849800 7481.30678627 0 -33.80930610 0 2078.81937645 0 216.72451857 0 62.66050568 0 34536
