### header ###
fiducial parameters:
Omega_m = 0.31
Omega_nu = 0
Omega_de = 0.69
Omega_k = 0
H_0 = 100
w_de = -1
zeff = 0
beta = 0
fgrowth = 0
b_1 = 2
gamma = 0.55
Lx = 3500 Ly = 3500 Lz = 3500
nx = 700 ny = 700 nz = 700
xoffset = -983.599254 yoffset = -42.9823471 zoffset = 800.977702
bins = 400 dk = 0.001
kx_ny = 0.628318531 ky_ny = 0.628318531 kz_ny = 0.628318531
############################
A(data) = 9.10192898 (not used)
A(ran) = 9.11882867 (used)
Ngal = 506668
weighted Ngal = 0
Nran = 25229228
weighted Nran = 0
SN(data) = 6673.84512
SN(ran) = 135.362729
SN(data+ran) = 6809.20785
############################
13 columns: k_central k_mean P_0(k) sigma^{lin}_{P_0(k)} P^img_1(k) sigma^{lin}_{P_1(k)} P_2(k) sigma^{lin}_{P_2(k)} P^img_3(k) sigma^{lin}_{P_3(k)} P_4(k) sigma^{lin}_{P_4(k)} N_modes
### header ###
0.00050000 0 0 0 0 0 0 0 0 0 0 0 0
0.00150000 0.00179520 34514.29597066 0 -11964.39645560 0 -1560.54527291 0 25381.50263508 0 34728.16559882 0 3
0.00250000 0.00253879 49115.75876586 0 -29872.21559779 0 -8204.89353592 0 -15389.60587791 0 -64284.79442634 0 6
0.00350000 0.00331552 81798.37725859 0 -28478.82256584 0 -50980.60965300 0 18089.50397268 0 -7499.34345444 0 7
0.00450000 0.00420575 98748.89090031 0 3141.86237258 0 -16475.87026048 0 -43487.81300381 0 234.79523893 0 24
0.00550000 0.00557378 67901.24525730 0 13971.93694057 0 11566.86477388 0 -39915.52015463 0 16506.73690944 0 45
0.00650000 0.00659388 60224.01763447 0 8320.61600806 0 35839.47480687 0 12505.16696378 0 7090.37683267 0 40
0.00750000 0.00754703 43316.67336299 0 -11078.93005982 0 19332.73789744 0 25270.33876056 0 -9389.96414885 0 57
0.00850000 0.00846663 56157.74855631 0 -7149.97912349 0 2585.74641650 0 23576.29797706 0 -7452.69197469 0 75
0.00950000 0.00948925 76495.46499922 0 -521.87264951 0 -13562.87145764 0 3483.81211704 0 5422.67705422 0 112
0.01050000 0.01054430 73395.83830821 0 -2239.21610528 0 -3927.59983389 0 -3020.44989184 0 11581.47425541 0 105
0.01150000 0.01145670 73292.80301740 0 454.48119827 0 4655.40465942 0 -23434.92652794 0 -5727.24629819 0 144
0.01250000 0.01249090 77407.84359782 0 5409.48458255 0 -3332.45569144 0 -317.19710860 0 -6432.86228709 0 169
0.01350000 0.01339930 69358.56850167 0 -548.19498079 0 15776.37267850 0 588.24363396 0 -4777.27849221 0 180
0.01450000 0.01448870 76368.15380300 0 -4910.52135762 0 5091.65695948 0 -131.22499943 0 -12170.68672868 0 267
0.01550000 0.01550050 85803.46226747 0 -422.16019190 0 9918.75048835 0 15153.21787596 0 13034.40367075 0 238
0.01650000 0.01653350 76845.65317311 0 -2691.14339042 0 11933.52980665 0 -5463.34194192 0 -1046.01251480 0 315
0.01750000 0.01747870 81747.62853326 0 2782.97441720 0 14393.74452769 0 -3443.18018306 0 4593.78120724 0 297
0.01850000 0.01844180 86167.27131136 0 7371.24136900 0 20089.57494829 0 -2740.20049157 0 -13424.02646021 0 388
0.01950000 0.01947590 63092.08953546 0 4160.74738693 0 37299.10481148 0 -6399.17260299 0 26407.24202273 0 399
0.02050000 0.02045430 75216.75090502 0 2387.01352936 0 33052.57889726 0 5221.30786966 0 2097.54807270 0 462
0.02150000 0.02154770 70449.11686754 0 -1053.65558040 0 33151.76958767 0 8563.44096954 0 7450.70376705 0 571
0.02250000 0.02255340 66801.14031328 0 2169.37619281 0 42739.98330247 0 5091.79975893 0 16135.34851046 0 510
0.02350000 0.02348930 66749.84235932 0 4358.84316887 0 33932.55300675 0 -7278.89406731 0 21909.27924212 0 555
0.02450000 0.02439640 64519.97412531 0 -180.33043270 0 34543.40508800 0 10385.92436023 0 5094.35916434 0 592
0.02550000 0.02547300 64055.54639657 0 1301.75972747 0 34999.59438730 0 4933.88554350 0 15742.75988640 0 837
0.02650000 0.02652900 65044.15792889 0 -485.80260853 0 27357.84693392 0 5233.83028241 0 6717.23090208 0 723
0.02750000 0.02749970 65517.81269860 0 -1594.05920386 0 26996.12495881 0 1143.84551204 0 -4340.26825663 0 826
0.02850000 0.02848090 63270.25930273 0 3520.34680544 0 28823.62829917 0 -2990.63776185 0 2100.32716956 0 831
0.02950000 0.02946900 62435.65147800 0 3119.43187537 0 23886.28261531 0 2272.56526764 0 39.13726319 0 996
0.03050000 0.03053250 57629.24189931 0 -2321.90796767 0 23193.70531405 0 2946.00744345 0 3155.57111916 0 1041
0.03150000 0.03150510 62033.72596725 0 -1602.46240188 0 17376.38552070 0 10291.11651428 0 -4293.96828320 0 1036
0.03250000 0.03246190 60236.32035576 0 2530.96635304 0 16407.32652757 0 -3376.84434924 0 -8329.10708267 0 1059
0.03350000 0.03345080 56659.96321473 0 4311.31292331 0 22640.52223886 0 -2919.58954640 0 -3962.42092898 0 1302
0.03450000 0.03451200 53370.41326379 0 -196.94350027 0 18175.84271317 0 -361.94606038 0 -3268.52547901 0 1339
0.03550000 0.03553350 57178.87442347 0 -1868.16822805 0 18144.42683559 0 3939.24348083 0 -5598.80369099 0 1365
0.03650000 0.03647120 54406.58799539 0 1740.11008090 0 16566.82252146 0 193.63714392 0 -8305.18268358 0 1308
0.03750000 0.03744890 53765.74803100 0 1699.86260696 0 17416.80874780 0 -1313.63405043 0 -3924.02984781 0 1579
0.03850000 0.03847530 49818.22218244 0 1681.17784900 0 17373.74922328 0 1325.23375908 0 -6841.67512485 0 1662
0.03950000 0.03950240 48270.60575145 0 1463.50755873 0 18174.41471874 0 4864.28729162 0 740.08447921 0 1683
0.04050000 0.04050350 48482.27846510 0 188.55677910 0 16851.43279704 0 3212.49317428 0 2338.37384197 0 1822
0.04150000 0.04152450 48268.73837412 0 704.49995633 0 12721.67288936 0 1657.87957056 0 -4335.99525790 0 1887
0.04250000 0.04250150 44573.85769493 0 2407.13726633 0 13404.14438384 0 -3064.78362678 0 2470.85877187 0 1920
0.04350000 0.04349210 42317.18710382 0 1084.83638813 0 16499.81662871 0 -892.73708437 0 569.25460334 0 2005
0.04450000 0.04448520 40448.71130773 0 943.60334463 0 17363.53357078 0 -876.46783392 0 -561.09636128 0 2151
0.04550000 0.04548030 40937.63463333 0 1571.50787635 0 16870.76564478 0 -1125.20469237 0 -8376.73618938 0 2274
0.04650000 0.04648670 37726.18499345 0 761.85260670 0 15616.76683890 0 99.85899181 0 -1513.21274966 0 2311
0.04750000 0.04749250 38836.50558997 0 172.59399823 0 20368.14370896 0 958.81258382 0 -6710.07994533 0 2568
0.04850000 0.04851840 38936.90458336 0 1210.20331500 0 15972.88668198 0 -28.32240225 0 -6668.58023012 0 2493
0.04950000 0.04949480 36867.19141758 0 -288.80418539 0 16457.30633282 0 1810.19165397 0 -4576.38164427 0 2644
0.05050000 0.05050630 37492.54313464 0 -1063.38571480 0 14967.13921644 0 2369.89956528 0 -5358.94456411 0 2829
0.05150000 0.05149060 36829.95371653 0 1947.67456440 0 14277.63759550 0 864.24310310 0 -4460.09895892 0 2784
0.05250000 0.05249300 35611.10554291 0 728.01353240 0 12688.27978871 0 804.18495251 0 -4106.73624355 0 3055
0.05350000 0.05348950 34497.26988316 0 810.52085397 0 14447.12955043 0 631.19660813 0 -2465.04793298 0 3009
0.05450000 0.05448610 33713.08124658 0 1266.98257068 0 15163.32368274 0 -1089.23131562 0 -2885.17488050 0 3336
0.05550000 0.05550870 31820.32954509 0 -26.90912714 0 14647.26846287 0 647.03965716 0 -701.88452960 0 3349
0.05650000 0.05647670 31212.11376126 0 -24.21219488 0 14388.03254995 0 2748.32907528 0 -2473.59393045 0 3324
0.05750000 0.05747970 33028.96206621 0 338.07438725 0 13504.54337723 0 -498.10642827 0 -2216.00570342 0 3639
0.05850000 0.05849280 32337.70291367 0 395.35124406 0 13501.79723408 0 1282.80035519 0 1541.94839153 0 3846
0.05950000 0.05951020 32727.43554885 0 -547.80063463 0 13764.43836450 0 -600.06413252 0 -1965.35972625 0 3787
0.06050000 0.06049470 32989.63729637 0 288.19673853 0 12859.19973808 0 611.25082123 0 889.82068035 0 3930
0.06150000 0.06148310 32775.21843958 0 -361.28039529 0 13679.30792700 0 316.02175934 0 -5192.90176497 0 4083
0.06250000 0.06249100 32506.20625707 0 1487.86035614 0 15146.18774951 0 271.18932480 0 1078.83771305 0 4303
0.06350000 0.06350600 31505.84123208 0 413.53730243 0 13173.68805108 0 1138.10058058 0 1361.27414172 0 4470
0.06450000 0.06451750 32444.03357626 0 -1059.73444287 0 14757.55357158 0 112.54573375 0 1570.23366593 0 4479
0.06550000 0.06550280 30597.08754243 0 908.62407170 0 13874.61362749 0 359.57668808 0 -2152.17435214 0 4636
0.06650000 0.06648880 30229.65358958 0 1633.28511255 0 13894.60554959 0 -643.08191566 0 431.62449964 0 4653
0.06750000 0.06749660 29883.41986182 0 -188.06686717 0 14222.05565824 0 1357.12197328 0 2013.83464506 0 5220
0.06850000 0.06852730 29543.22764897 0 -293.76152300 0 13155.23396914 0 2932.19983572 0 -433.13377991 0 5029
0.06950000 0.06949320 29551.46607841 0 536.42501127 0 11239.41466523 0 1071.18695824 0 2275.16861134 0 5040
0.07050000 0.07048030 28881.40715095 0 407.09155524 0 10616.38069299 0 2400.21698560 0 2669.03144581 0 5475
0.07150000 0.07148790 28070.52600299 0 -63.43283098 0 8563.17733980 0 1686.54930499 0 5172.51439826 0 5509
0.07250000 0.07249820 27836.11522411 0 164.83010233 0 8050.85687461 0 933.27894486 0 3543.79886790 0 5916
0.07350000 0.07351270 27880.93228024 0 398.94319930 0 7339.63875368 0 460.66002034 0 4124.37746712 0 5721
0.07450000 0.07449140 26655.05398016 0 236.36932818 0 7188.75466471 0 -300.30613134 0 2374.43619376 0 6028
0.07550000 0.07549160 26453.59691902 0 316.11732512 0 6595.65365275 0 -161.05580319 0 3692.42013493 0 6183
0.07650000 0.07648840 25662.59784744 0 466.48074535 0 5858.98427715 0 -195.70224357 0 149.08591445 0 6330
0.07750000 0.07749960 26161.07775118 0 873.65468489 0 7764.99435775 0 -1799.03132823 0 -444.11615558 0 6583
0.07850000 0.07848650 24053.68750145 0 741.88155529 0 8218.28372989 0 -1745.04215399 0 -2878.34247635 0 6549
0.07950000 0.07947320 23900.01333103 0 390.66302848 0 9019.32270082 0 341.04900951 0 -1514.68468239 0 6828
0.08050000 0.08048110 23794.56143425 0 0.97346271 0 8931.31430529 0 804.67266753 0 -1444.11978812 0 7147
0.08150000 0.08149960 23953.61804523 0 -639.76567320 0 7024.85385722 0 1669.54518664 0 -2882.49464479 0 7386
0.08250000 0.08250610 24372.67948921 0 210.05358764 0 7209.52649146 0 1826.26208366 0 -940.35630497 0 7227
0.08350000 0.08350160 23892.65366741 0 209.74601961 0 6643.81001895 0 -464.13993294 0 -966.06569710 0 7798
0.08450000 0.08449610 22774.64387008 0 821.86462208 0 6252.85809620 0 -179.01118553 0 257.45641216 0 7371
0.08550000 0.08548940 22608.00790402 0 251.64886864 0 6781.39179053 0 404.05981320 0 384.18981986 0 8256
0.08650000 0.08650700 21825.35710760 0 730.36532939 0 6998.31512986 0 600.05754177 0 1614.50149343 0 8037
0.08750000 0.08749060 21220.98592417 0 555.55354596 0 7097.79141916 0 -457.85016668 0 1936.26159349 0 8155
0.08850000 0.08849210 20748.20992027 0 392.37003106 0 7495.58673062 0 502.21246150 0 2137.49896318 0 8718
0.08950000 0.08949900 19831.76702981 0 189.86284478 0 6266.52290450 0 867.30340502 0 2363.64934348 0 8571
0.09050000 0.09049190 19689.51681488 0 -99.93884965 0 6427.83135285 0 965.78009821 0 2598.90593446 0 8932
0.09150000 0.09150830 19852.96725489 0 313.00649416 0 5720.36995575 0 348.31420581 0 2052.09391136 0 9285
0.09250000 0.09250820 18947.06955411 0 658.48997562 0 6314.25087236 0 -267.97194349 0 2405.05019754 0 9204
0.09350000 0.09350330 18269.32142584 0 682.37922407 0 5943.24693343 0 -921.58586734 0 1715.41676174 0 9349
0.09450000 0.09448040 18161.12338591 0 -12.52428012 0 6695.25077234 0 295.09834548 0 2043.28428415 0 9564
0.09550000 0.09549270 17977.68102380 0 -250.43617182 0 5910.34813854 0 1215.91529275 0 656.74342858 0 10155
0.09650000 0.09649430 18129.04843397 0 276.37623998 0 6350.42306987 0 -604.92480588 0 779.12584708 0 9913
0.09750000 0.09749140 17378.36274377 0 565.33201247 0 5732.69464619 0 -397.61186910 0 870.21651367 0 10476
0.09850000 0.09850240 17143.40273625 0 53.69017417 0 5937.18344936 0 259.10629496 0 290.54853552 0 10575
0.09950000 0.09950330 16940.07829777 0 233.68469864 0 7116.36633140 0 10.29277518 0 986.54203885 0 10882
0.10050000 0.10051200 16607.02605710 0 281.19407351 0 5822.43860418 0 -42.43032820 0 497.10243834 0 10875
0.10150000 0.10150300 17008.29249350 0 -280.72393380 0 6809.53426548 0 -49.93235189 0 -736.62104348 0 11118
0.10250000 0.10250800 16375.36142136 0 511.22090948 0 5819.67049189 0 -46.38850909 0 -569.48747628 0 11575
0.10350000 0.10349800 16355.47934499 0 99.08820435 0 6630.78231586 0 431.32352235 0 443.26265429 0 11364
0.10450000 0.10450100 15959.92488634 0 -34.27131723 0 5897.88064867 0 263.01899972 0 -408.47670984 0 12093
0.10550000 0.10551000 15880.17688940 0 565.74283549 0 6267.81908406 0 -354.14371848 0 -838.28106580 0 12067
0.10650000 0.10649700 15034.03526346 0 205.44885482 0 5724.12667957 0 323.66482494 0 -215.35474237 0 12054
0.10750000 0.10749900 15142.12345766 0 293.23975580 0 5694.67704048 0 226.88634667 0 -48.04014942 0 12807
0.10850000 0.10850100 14863.22515982 0 -121.00605156 0 5094.27128776 0 831.06090624 0 63.26971007 0 12736
0.10950000 0.10950300 14883.65646482 0 89.21823635 0 5038.78821165 0 -30.82787341 0 -356.99970735 0 12933
0.11050000 0.11050200 14669.23760803 0 248.02725506 0 5005.14246583 0 620.53498198 0 308.07112570 0 13428
0.11150000 0.11150900 14601.46279520 0 -247.44617117 0 3943.76912473 0 881.93265878 0 703.10491562 0 13453
0.11250000 0.11250000 14650.01460601 0 -104.71505165 0 3918.57051523 0 863.50933365 0 916.80757827 0 13668
0.11350000 0.11349100 14468.32977552 0 267.25794628 0 3565.03204670 0 11.34003335 0 690.19914129 0 13791
0.11450000 0.11448600 14399.01712253 0 234.46570175 0 3168.54389938 0 -266.70322536 0 1436.02415813 0 14205
0.11550000 0.11549300 14160.76174324 0 138.48909728 0 3671.84603048 0 -482.27326535 0 246.67615263 0 14776
0.11650000 0.11649800 13780.91522338 0 358.11244455 0 3647.07581931 0 -71.45145912 0 488.77503387 0 14553
0.11750000 0.11747300 13935.90754250 0 32.54168643 0 4596.01107547 0 -7.53797620 0 190.72293682 0 14568
0.11850000 0.11849100 13444.67745666 0 -73.22349036 0 3610.93657552 0 111.80647202 0 -34.61667219 0 16015
0.11950000 0.11950300 13715.55701652 0 137.32143721 0 3770.89392145 0 333.05224067 0 -562.13769876 0 15270
0.12050000 0.12050700 13426.55291190 0 218.22720810 0 3878.59765561 0 -320.89451573 0 -276.01484754 0 15999
0.12150000 0.12150000 13433.91257553 0 429.55390771 0 4555.06058889 0 -648.08429001 0 -344.16752966 0 15670
0.12250000 0.12250700 12910.16815485 0 14.97405950 0 4230.25776223 0 -137.73775251 0 -420.56633042 0 16887
0.12350000 0.12352200 13137.32911583 0 -233.06187337 0 4830.46579265 0 918.70681087 0 -274.87355045 0 16407
0.12450000 0.12449800 13151.27952301 0 -117.92378049 0 3847.42343862 0 -221.65988703 0 -938.10886142 0 16306
0.12550000 0.12549900 13261.56463173 0 164.22595083 0 4118.84124254 0 383.75373233 0 246.66626651 0 17523
0.12650000 0.12650100 13357.02056746 0 -42.50689067 0 3845.14963210 0 409.71357271 0 323.24631272 0 17154
0.12750000 0.12750600 13273.20827867 0 -61.78536478 0 3751.80273430 0 531.60498082 0 -192.22342943 0 18007
0.12850000 0.12850300 13159.84748963 0 435.89200609 0 3884.57326309 0 -385.21028665 0 408.81064085 0 17496
0.12950000 0.12949900 13011.11637688 0 212.75469404 0 4147.08257864 0 -303.80581617 0 541.13629445 0 18405
0.13050000 0.13049000 12471.22463450 0 77.39894609 0 3925.88624057 0 -24.40365598 0 -120.51833653 0 18100
0.13150000 0.13148800 12305.24774280 0 286.93021731 0 4100.49700633 0 -60.30848900 0 239.99972942 0 19059
0.13250000 0.13249300 12266.14266441 0 79.78292788 0 3546.10562814 0 528.58751873 0 34.62183494 0 18957
0.13350000 0.13349100 12262.51775546 0 -154.25195893 0 3659.79595436 0 593.22843300 0 492.16706988 0 19468
0.13450000 0.13450700 11839.28217390 0 26.57212046 0 3131.82247324 0 256.94123571 0 112.55452141 0 19953
0.13550000 0.13551000 12233.73817529 0 -9.79723915 0 2850.76021460 0 315.28469452 0 420.13024289 0 19956
0.13650000 0.13649900 11927.70798318 0 274.51984721 0 2937.90082889 0 -161.83460938 0 -262.45768806 0 19723
0.13750000 0.13749600 11611.35229283 0 263.04426423 0 2780.48091923 0 -621.13583810 0 295.91010540 0 20946
0.13850000 0.13851100 11436.91728024 0 287.84742912 0 3489.93052396 0 46.45167038 0 -20.41241154 0 20955
0.13950000 0.13949800 11281.15604104 0 159.73985139 0 3923.89803293 0 -553.15341685 0 -566.71606862 0 20506
0.14050000 0.14048300 11169.33309216 0 31.70696876 0 3724.29736456 0 -26.90517270 0 -774.60240009 0 21447
0.14150000 0.14148400 10956.49601383 0 86.36697084 0 3759.28322823 0 -46.35094185 0 -665.82107936 0 21771
0.14250000 0.14249400 10913.27172072 0 -106.60527690 0 3545.06209375 0 592.61439539 0 -517.11632958 0 22470
0.14350000 0.14350900 10933.02198222 0 96.53165492 0 3539.59177660 0 213.16551706 0 12.59886537 0 22519
0.14450000 0.14449900 11129.78863087 0 128.47336400 0 3184.99878911 0 460.02071822 0 -341.67403169 0 22218
0.14550000 0.14550500 11009.06817820 0 -65.28889421 0 3446.90395316 0 22.11633844 0 -49.67421444 0 23559
0.14650000 0.14650700 10656.80392009 0 225.75603415 0 3078.67911109 0 -297.08984849 0 -278.37103836 0 23044
0.14750000 0.14750500 10685.17707107 0 239.68666910 0 3581.00361524 0 -488.95518086 0 -229.39192767 0 23649
0.14850000 0.14849900 10301.77154969 0 417.45440101 0 3859.91289765 0 -304.09471043 0 -797.86442945 0 23640
0.14950000 0.14949500 9924.45148152 0 75.14655949 0 3765.42360430 0 340.30096011 0 -109.53892670 0 24457
0.15050000 0.15050000 10014.59088412 0 -337.57458920 0 3448.22210187 0 856.26610649 0 -445.67266951 0 24591
0.15150000 0.15149900 9984.64693926 0 122.47468891 0 2974.34764071 0 490.40734135 0 -277.20118138 0 25020
0.15250000 0.15250500 9952.94546279 0 249.79137741 0 2739.69520123 0 -257.22244077 0 -241.79021475 0 25297
0.15350000 0.15350100 9557.83038704 0 300.88501832 0 2797.27633070 0 52.82557846 0 -149.46817757 0 25452
0.15450000 0.15450400 9353.19878443 0 164.57196487 0 2676.23732543 0 64.40749210 0 -51.24918245 0 26061
0.15550000 0.15549900 9170.56928069 0 10.52470345 0 2923.78565312 0 77.37961325 0 -237.83686707 0 26128
0.15650000 0.15649500 9111.47228020 0 -122.90748107 0 2227.52852005 0 385.81333969 0 -202.23147351 0 26331
0.15750000 0.15749700 9054.02296560 0 203.70670161 0 2316.45961967 0 262.91025245 0 -293.58686830 0 27345
0.15850000 0.15849900 8923.33950560 0 244.53745635 0 2405.37973472 0 -777.55944703 0 -423.84632379 0 26980
0.15950000 0.15949700 8562.96863292 0 159.72996528 0 2517.40040590 0 -169.77425845 0 -505.69786638 0 27777
0.16050000 0.16050000 8667.82736278 0 -65.62084799 0 2600.28999060 0 370.76557371 0 -664.01301871 0 28224
0.16150000 0.16150500 8686.90756536 0 -72.69765887 0 2498.50694106 0 460.31949859 0 -299.54380201 0 28075
0.16250000 0.16249700 8807.45226487 0 71.82998749 0 2064.51746295 0 161.70279451 0 -280.96998823 0 28590
0.16350000 0.16349900 8657.31512682 0 49.09697515 0 2165.69636099 0 105.98344025 0 106.10899391 0 29163
0.16450000 0.16449100 8547.61220045 0 79.90540587 0 2152.64668877 0 131.83903704 0 544.12299973 0 28996
0.16550000 0.16550500 8551.25907855 0 77.19331490 0 1936.25060891 0 168.29134115 0 216.11597325 0 30777
0.16650000 0.16650700 8458.92276143 0 115.71258603 0 2257.65920264 0 -269.38675644 0 454.30324819 0 29211
0.16750000 0.16749900 8445.38976801 0 37.05151255 0 1940.62246880 0 158.87975936 0 490.96535764 0 30922
0.16850000 0.16850800 8282.90597039 0 52.66652185 0 2251.20027397 0 -81.34636210 0 464.32667067 0 30867
0.16950000 0.16949900 8303.84256573 0 1.17101036 0 1924.79369971 0 148.96288723 0 247.99649825 0 30852
0.17050000 0.17049200 8297.77908166 0 37.78264570 0 1947.13632034 0 135.03335074 0 -61.60411933 0 31257
0.17150000 0.17149500 8291.68264388 0 266.05074175 0 2150.19712908 0 -208.04780469 0 -183.46323280 0 32608
0.17250000 0.17250900 8051.39511866 0 91.11955601 0 2095.64774164 0 -387.83559950 0 80.80317498 0 32361
0.17350000 0.17350400 7906.05823884 0 -116.32003289 0 2061.61753578 0 368.79384293 0 99.85591613 0 32508
0.17450000 0.17449800 7976.19473477 0 -27.08279324 0 2070.32830184 0 251.18861505 0 -346.21944782 0 32791
0.17550000 0.17549800 7880.02480182 0 174.28562240 0 1962.02041619 0 -135.59356394 0 298.01804488 0 33633
0.17650000 0.17650100 7931.53146266 0 51.88156430 0 1899.46327534 0 -47.56627496 0 -26.91308159 0 33984
0.17750000 0.17750300 7764.51103656 0 88.40680597 0 2148.53845862 0 -6.09142882 0 -148.95300112 0 34069
0.17850000 0.17849800 7814.49084180 0 149.35613493 0 2236.76654559 0 59.59624931 0 334.79988616 0 34536
