### header ###
fiducial parameters:
Omega_m = 0.31
Omega_nu = 0
Omega_de = 0.69
Omega_k = 0
H_0 = 100
w_de = -1
zeff = 0
beta = 0
fgrowth = 0
b_1 = 2
gamma = 0.55
Lx = 3500 Ly = 3500 Lz = 3500
nx = 700 ny = 700 nz = 700
xoffset = -983.599254 yoffset = -42.9823471 zoffset = 800.977702
bins = 400 dk = 0.001
kx_ny = 0.628318531 ky_ny = 0.628318531 kz_ny = 0.628318531
############################
A(data) = 9.08022224 (not used)
A(ran) = 9.08193767 (used)
Ngal = 504439
weighted Ngal = 0
Nran = 25229228
weighted Nran = 0
SN(data) = 6726.37113
SN(ran) = 134.815108
SN(data+ran) = 6861.18624
############################
13 columns: k_central k_mean P_0(k) sigma^{lin}_{P_0(k)} P^img_1(k) sigma^{lin}_{P_1(k)} P_2(k) sigma^{lin}_{P_2(k)} P^img_3(k) sigma^{lin}_{P_3(k)} P_4(k) sigma^{lin}_{P_4(k)} N_modes
### header ###
0.00050000 0 0 0 0 0 0 0 0 0 0 0 0
0.00150000 0.00179520 16916.68115817 0 -5533.13791610 0 -1962.94312029 0 1356.75948238 0 15860.73419593 0 3
0.00250000 0.00253879 29425.91241381 0 -4473.76376721 0 1683.57248582 0 -19371.40359292 0 -7652.68808768 0 6
0.00350000 0.00331552 26216.76953417 0 5194.42862056 0 14756.78465150 0 -37135.98390865 0 16662.93753154 0 7
0.00450000 0.00420575 30354.21864265 0 7432.23870054 0 11839.50186535 0 13161.49517551 0 6700.33662945 0 24
0.00550000 0.00557378 42069.04560921 0 -14995.80895087 0 297.88732846 0 7210.77873273 0 -2892.88605045 0 45
0.00650000 0.00659388 53280.99884298 0 -15584.80173268 0 -9649.73830583 0 25890.41788277 0 2008.15562103 0 40
0.00750000 0.00754703 65620.95783514 0 -10868.68534061 0 -16352.51351039 0 12727.82425000 0 27396.62247513 0 57
0.00850000 0.00846663 74082.15440309 0 -4868.36256805 0 -52071.48755605 0 259.44571826 0 14270.05824042 0 75
0.00950000 0.00948925 86754.83609874 0 467.41004020 0 -5254.20666454 0 -15149.15358411 0 -20006.86111676 0 112
0.01050000 0.01054430 66780.81885400 0 4614.50909570 0 -33691.66133004 0 -15207.37181879 0 21105.31837489 0 105
0.01150000 0.01145670 78513.33098241 0 -1450.34804078 0 -7935.70560024 0 -8512.94488939 0 -333.98592934 0 144
0.01250000 0.01249090 73416.92868757 0 67.66925108 0 -9218.42906342 0 -15691.79146963 0 -2179.96532078 0 169
0.01350000 0.01339930 76105.73236403 0 3266.81188569 0 4054.47164721 0 -7185.51421580 0 -23535.43536706 0 180
0.01450000 0.01448870 72942.72468923 0 -5821.68066867 0 6081.36694906 0 -1812.78401310 0 -770.25360781 0 267
0.01550000 0.01550050 79446.14088602 0 458.16981774 0 5305.33984991 0 3057.46790144 0 -18774.17238168 0 238
0.01650000 0.01653350 80006.46393339 0 6566.26992109 0 26447.33571265 0 -11397.70235613 0 2253.14454331 0 315
0.01750000 0.01747870 73745.03787057 0 8398.00232190 0 31268.79415578 0 -16250.46683111 0 -15543.71943123 0 297
0.01850000 0.01844180 71107.09276516 0 3698.46164985 0 48366.17153291 0 5259.98454972 0 19040.21872960 0 388
0.01950000 0.01947590 74793.29563201 0 -3808.56002083 0 49330.72685128 0 17008.18264777 0 18994.74259911 0 399
0.02050000 0.02045430 68828.78256607 0 -2196.79368597 0 43168.38163315 0 11351.78684274 0 12214.18563610 0 462
0.02150000 0.02154770 76330.47671904 0 5841.14533128 0 46704.09585563 0 8326.50373896 0 23419.21858915 0 571
0.02250000 0.02255340 65745.19335103 0 4295.61596909 0 47292.31971736 0 -4381.01003633 0 36276.77064134 0 510
0.02350000 0.02348930 63391.74867548 0 1575.87973624 0 43969.48651150 0 17061.45782479 0 37413.34436633 0 555
0.02450000 0.02439640 69020.46335761 0 -1884.77690180 0 42047.51584695 0 9247.19765902 0 36891.35747726 0 592
0.02550000 0.02547300 68155.97749546 0 271.81764235 0 38461.93166494 0 5525.67939132 0 28302.95955881 0 837
0.02650000 0.02652900 63719.96770421 0 -1698.74218056 0 28487.28068673 0 9928.50478880 0 32475.99868247 0 723
0.02750000 0.02749970 66089.99908436 0 -1105.61919946 0 27432.32233602 0 3213.62458525 0 16874.72009091 0 826
0.02850000 0.02848090 65365.23698544 0 4854.01671626 0 22562.97115643 0 -5185.92656138 0 5683.34096158 0 831
0.02950000 0.02946900 64327.30472223 0 4449.61967668 0 31044.70887512 0 -1000.72312205 0 9493.30700770 0 996
0.03050000 0.03053250 58960.13271326 0 1071.19354899 0 32264.65550600 0 -3834.92299503 0 8894.63681744 0 1041
0.03150000 0.03150510 54945.82066341 0 1803.29334239 0 26023.44105673 0 4473.69785978 0 4121.03815705 0 1036
0.03250000 0.03246190 52332.48100058 0 1138.34224118 0 30854.34623228 0 5481.69716270 0 6276.84840272 0 1059
0.03350000 0.03345080 52621.15556802 0 -1554.70148030 0 21241.96645780 0 8426.82584035 0 8290.71600149 0 1302
0.03450000 0.03451200 52406.29732833 0 1138.05664229 0 22711.70226919 0 4650.04418800 0 7605.89380848 0 1339
0.03550000 0.03553350 53337.34970033 0 2812.78654719 0 19034.61659758 0 -1613.68863506 0 8231.52013985 0 1365
0.03650000 0.03647120 49304.25403136 0 604.92919971 0 17996.13510574 0 2203.59313640 0 12383.01851667 0 1308
0.03750000 0.03744890 50542.98428136 0 -1376.42186731 0 16923.60143890 0 4924.23010420 0 6759.24689220 0 1579
0.03850000 0.03847530 48643.53199059 0 438.69966284 0 18206.37982495 0 1007.86529114 0 7283.36478835 0 1662
0.03950000 0.03950240 47685.89695295 0 2418.42940694 0 15529.32964115 0 -389.62608483 0 9701.88207187 0 1683
0.04050000 0.04050350 45313.22927538 0 565.73075246 0 15145.41882943 0 388.26180092 0 14782.92793425 0 1822
0.04150000 0.04152450 44798.60204994 0 1101.73066076 0 17161.63712674 0 5256.49145564 0 6152.65682512 0 1887
0.04250000 0.04250150 44631.19716380 0 2654.01553510 0 17404.94540941 0 -2168.62924187 0 9170.45943496 0 1920
0.04350000 0.04349210 42889.59318103 0 2033.28832310 0 20529.17754300 0 -4474.40087242 0 9726.89394364 0 2005
0.04450000 0.04448520 38304.41289413 0 1381.28803296 0 20861.02148068 0 -3125.58323601 0 3334.48783737 0 2151
0.04550000 0.04548030 38868.80023336 0 -108.80724432 0 22293.95897392 0 3422.71592434 0 4525.78670296 0 2274
0.04650000 0.04648670 38372.62708986 0 -951.58253815 0 19720.38346383 0 6190.86116855 0 4707.02116598 0 2311
0.04750000 0.04749250 38688.10401439 0 -176.70222837 0 16519.91839653 0 5385.26360001 0 5074.09262793 0 2568
0.04850000 0.04851840 38817.06289650 0 759.23937688 0 14155.37930267 0 -1080.16684633 0 5155.97163195 0 2493
0.04950000 0.04949480 37643.14162473 0 796.36283837 0 12702.55973307 0 1990.32765973 0 6280.29755851 0 2644
0.05050000 0.05050630 36600.70568676 0 -149.50772203 0 13561.44346320 0 -2520.00374960 0 4345.90334236 0 2829
0.05150000 0.05149060 34776.71740963 0 2222.64038525 0 13670.73996038 0 944.82263218 0 5452.17063160 0 2784
0.05250000 0.05249300 35259.37952885 0 -483.63315544 0 14229.19563042 0 834.04102079 0 3146.02552559 0 3055
0.05350000 0.05348950 34385.66662573 0 -247.35280230 0 12589.19894403 0 2779.04194022 0 3696.70411823 0 3009
0.05450000 0.05448610 36022.36794035 0 346.98836790 0 12511.53801588 0 1860.91841015 0 3595.64605049 0 3336
0.05550000 0.05550870 34572.95358825 0 776.84984364 0 11494.91582347 0 -1125.56718327 0 5645.52107818 0 3349
0.05650000 0.05647670 35301.45044184 0 -1095.13662184 0 11861.36116479 0 2637.41784593 0 5103.71802018 0 3324
0.05750000 0.05747970 34158.61551048 0 375.11985828 0 11240.40327676 0 -1661.08706575 0 1890.10441950 0 3639
0.05850000 0.05849280 33869.17202296 0 1560.95170210 0 13701.71645506 0 -2152.10844471 0 3985.62034627 0 3846
0.05950000 0.05951020 32855.18612798 0 1369.69930889 0 13775.42293709 0 -793.51893253 0 1175.33828163 0 3787
0.06050000 0.06049470 32539.37966626 0 -144.75140211 0 14743.05393578 0 1446.77805469 0 2327.61994541 0 3930
0.06150000 0.06148310 33165.61014912 0 -792.00635689 0 12928.51239106 0 1642.81972155 0 -1231.38157094 0 4083
0.06250000 0.06249100 32044.63451720 0 569.53361148 0 12718.15782613 0 -1666.30473773 0 -2402.87525217 0 4303
0.06350000 0.06350600 31546.04476773 0 1168.94526039 0 13457.19986940 0 -433.72584837 0 -1598.36515631 0 4470
0.06450000 0.06451750 29834.31882238 0 617.33956982 0 13946.45273218 0 163.90300440 0 -2119.35244927 0 4479
0.06550000 0.06550280 30733.18639671 0 228.91629568 0 12831.84815235 0 2236.22830154 0 -2192.80628612 0 4636
0.06650000 0.06648880 30071.36589869 0 173.89127625 0 12981.12849373 0 -101.17373530 0 -4482.86997788 0 4653
0.06750000 0.06749660 28601.95962448 0 621.64002998 0 11275.99329193 0 120.10971043 0 -2498.08952730 0 5220
0.06850000 0.06852730 28249.57453607 0 262.91244936 0 11340.03335008 0 1465.94613384 0 -353.01340596 0 5029
0.06950000 0.06949320 29126.58281096 0 -520.49518411 0 11105.62257119 0 1717.86632142 0 -1237.62080817 0 5040
0.07050000 0.07048030 28551.43059060 0 -310.70852158 0 8480.51843113 0 1481.75293379 0 -797.76007601 0 5475
0.07150000 0.07148790 28825.38583078 0 785.17175583 0 9385.36161294 0 757.33684891 0 -883.43205294 0 5509
0.07250000 0.07249820 27463.73821360 0 811.08216563 0 9120.88605890 0 -973.66921824 0 187.11780009 0 5916
0.07350000 0.07351270 27397.50124093 0 698.89452895 0 11735.36811728 0 -1789.30998149 0 251.78617580 0 5721
0.07450000 0.07449140 25824.51044729 0 20.48644756 0 10899.48608213 0 -746.63567830 0 -2402.01845551 0 6028
0.07550000 0.07549160 26224.23904352 0 272.43497533 0 11377.93012548 0 351.96547774 0 -603.21011410 0 6183
0.07650000 0.07648840 26222.15197473 0 155.39764985 0 10565.39030707 0 1187.83872523 0 -2137.77357749 0 6330
0.07750000 0.07749960 25998.61592270 0 603.94608047 0 11452.51537331 0 -192.74959046 0 -1516.44221400 0 6583
0.07850000 0.07848650 25405.00962040 0 458.45431817 0 10864.41234188 0 922.27789542 0 -76.28049691 0 6549
0.07950000 0.07947320 24584.13251140 0 -10.96561321 0 11325.42386854 0 447.30827237 0 -427.28119964 0 6828
0.08050000 0.08048110 24535.69054632 0 315.89214138 0 10743.96650352 0 297.68081850 0 -1084.87153877 0 7147
0.08150000 0.08149960 23800.82264063 0 808.20530607 0 11031.47670627 0 3.85598042 0 -907.83208401 0 7386
0.08250000 0.08250610 23199.41729180 0 809.33561859 0 10938.10783932 0 -224.30936594 0 929.06196744 0 7227
0.08350000 0.08350160 22537.48694805 0 -434.06417321 0 10192.11256161 0 1102.37875055 0 1026.00960813 0 7798
0.08450000 0.08449610 22989.72180122 0 -309.44859110 0 9702.98052913 0 2386.66202304 0 -26.93801657 0 7371
0.08550000 0.08548940 22632.83303805 0 367.06267429 0 8120.01574358 0 646.63432643 0 319.09304583 0 8256
0.08650000 0.08650700 22996.86177340 0 186.89701019 0 8075.76988522 0 412.86944041 0 381.14819171 0 8037
0.08750000 0.08749060 22088.76715810 0 411.23823139 0 7707.68784259 0 -634.26899308 0 804.12893119 0 8155
0.08850000 0.08849210 21562.38644000 0 7.83976634 0 7678.72152470 0 971.96111720 0 853.15966936 0 8718
0.08950000 0.08949900 21038.75186505 0 542.05130934 0 7492.53301944 0 -476.15595688 0 252.91648831 0 8571
0.09050000 0.09049190 21063.35730763 0 663.73071520 0 8578.62164885 0 -27.08762645 0 -694.84561549 0 8932
0.09150000 0.09150830 20264.99857242 0 605.79698095 0 8217.80040870 0 -942.61802847 0 296.52194609 0 9285
0.09250000 0.09250820 19856.04293521 0 10.92215824 0 8828.54264422 0 365.36226246 0 -328.17399198 0 9204
0.09350000 0.09350330 19477.07518116 0 -223.85130926 0 7712.60893111 0 923.88383993 0 -1005.52557718 0 9349
0.09450000 0.09448040 19840.11530497 0 358.56391049 0 7571.30338942 0 924.55280040 0 -771.82550014 0 9564
0.09550000 0.09549270 19280.78086913 0 400.73038925 0 7596.28230747 0 -547.26129212 0 -939.09527604 0 10155
0.09650000 0.09649430 18396.63262206 0 461.54537689 0 7641.18724019 0 -23.30827441 0 -96.12961957 0 9913
0.09750000 0.09749140 18195.39525237 0 156.04573963 0 6984.81509016 0 674.68233406 0 -290.88356498 0 10476
0.09850000 0.09850240 17509.84807756 0 58.52810947 0 7147.07919633 0 -22.40039948 0 -116.11132601 0 10575
0.09950000 0.09950330 17552.68791063 0 493.77960513 0 6690.62626729 0 1600.72683942 0 -898.12501722 0 10882
0.10050000 0.10051200 17258.52105690 0 264.97645055 0 6097.42639418 0 -160.55161131 0 280.25489255 0 10875
0.10150000 0.10150300 16436.54549064 0 289.01728610 0 6004.47494099 0 85.23852570 0 49.75517074 0 11118
0.10250000 0.10250800 15930.70592327 0 543.26180924 0 6383.93700082 0 -191.68408692 0 -145.51702681 0 11575
0.10350000 0.10349800 15760.00566536 0 212.87662280 0 6168.25491818 0 -82.06365469 0 202.06450801 0 11364
0.10450000 0.10450100 15536.35976760 0 201.03195818 0 6723.17355585 0 177.75125505 0 -637.04369611 0 12093
0.10550000 0.10551000 14849.60428981 0 -132.36519806 0 5799.96416868 0 244.52207795 0 289.05792902 0 12067
0.10650000 0.10649700 15121.91184411 0 212.54159333 0 5930.20824577 0 621.21712394 0 -626.92580631 0 12054
0.10750000 0.10749900 15151.46034435 0 -14.33464753 0 5091.86566636 0 806.99700309 0 443.55813929 0 12807
0.10850000 0.10850100 15531.19701849 0 -284.79921023 0 5290.82922953 0 823.27174583 0 668.40025700 0 12736
0.10950000 0.10950300 15372.03056178 0 -94.02091117 0 4431.94549939 0 27.92069643 0 440.16390636 0 12933
0.11050000 0.11050200 15708.48801995 0 378.57670327 0 4981.02034445 0 -434.29045541 0 492.17475908 0 13428
0.11150000 0.11150900 15041.17523563 0 106.01924995 0 5078.04707406 0 -461.40916819 0 676.42009344 0 13453
0.11250000 0.11250000 15183.42545056 0 -39.55698371 0 5513.42060832 0 -92.08455072 0 -279.53100922 0 13668
0.11350000 0.11349100 14858.94117651 0 212.48007973 0 5233.90717441 0 -306.91005638 0 -380.74286099 0 13791
0.11450000 0.11448600 15115.76048346 0 212.07804437 0 5631.59264015 0 830.44467172 0 90.98400639 0 14205
0.11550000 0.11549300 14915.62157103 0 -171.40656593 0 4969.02519119 0 185.09663874 0 -296.51535535 0 14776
0.11650000 0.11649800 14735.47458069 0 258.94262483 0 5504.14962906 0 -311.30168850 0 69.58638854 0 14553
0.11750000 0.11747300 14191.95792937 0 438.90068052 0 5243.30996854 0 -298.05649088 0 41.24761927 0 14568
0.11850000 0.11849100 14542.91502334 0 239.92613278 0 6083.99226191 0 412.68160422 0 -131.63362553 0 16015
0.11950000 0.11950300 13960.84252226 0 -63.94548098 0 5193.63773133 0 2.52696797 0 483.36952570 0 15270
0.12050000 0.12050700 13843.41744136 0 88.99393137 0 5743.19589757 0 828.05662564 0 480.59482266 0 15999
0.12150000 0.12150000 14147.79994759 0 -124.75069235 0 4755.38623905 0 559.28830064 0 787.02924705 0 15670
0.12250000 0.12250700 13969.63018032 0 123.84995740 0 4422.18021437 0 351.50522415 0 324.69627630 0 16887
0.12350000 0.12352200 13635.58932812 0 150.21512851 0 4308.53382644 0 328.58701191 0 1604.42864038 0 16407
0.12450000 0.12449800 13495.42618199 0 3.73513914 0 4192.10834165 0 395.72691644 0 1795.09885124 0 16306
0.12550000 0.12549900 13182.58555487 0 164.96740948 0 3543.88674448 0 504.50054797 0 1477.76553394 0 17523
0.12650000 0.12650100 13409.96620730 0 119.72744731 0 3166.31403114 0 273.43457144 0 1041.81091579 0 17154
0.12750000 0.12750600 13138.86695600 0 309.42112967 0 3360.72998126 0 -428.83551666 0 1237.79656133 0 18007
0.12850000 0.12850300 12776.26621509 0 142.84557876 0 3540.06411322 0 -155.81396515 0 571.19557732 0 17496
0.12950000 0.12949900 12516.04169063 0 -30.49723778 0 3745.60743537 0 -318.08905590 0 409.91019656 0 18405
0.13050000 0.13049000 12683.99580540 0 -33.26798637 0 3539.28420857 0 -91.15679371 0 -136.31744728 0 18100
0.13150000 0.13148800 12647.19748726 0 20.82411332 0 3625.79870222 0 -301.28046293 0 -894.74176887 0 19059
0.13250000 0.13249300 12799.00428033 0 213.92455102 0 3770.69619914 0 8.86882307 0 -956.07303142 0 18957
0.13350000 0.13349100 12403.12028450 0 253.04500781 0 4252.50152171 0 -608.98580237 0 -1188.13530869 0 19468
0.13450000 0.13450700 12032.06142270 0 206.26500856 0 4417.80835448 0 -86.23867103 0 -734.32416935 0 19953
0.13550000 0.13551000 12062.15915157 0 209.60651554 0 4664.32413235 0 466.81247945 0 -753.50872536 0 19956
0.13650000 0.13649900 11945.83252794 0 9.82226200 0 4178.75110139 0 971.46351606 0 -44.42216075 0 19723
0.13750000 0.13749600 11703.40301107 0 63.98865035 0 4131.17691754 0 578.34982944 0 638.96709477 0 20946
0.13850000 0.13851100 11639.80233582 0 82.97680221 0 3534.79151839 0 -41.98523332 0 753.44831021 0 20955
0.13950000 0.13949800 11323.66633693 0 204.00548198 0 3497.64169392 0 -55.93443220 0 1190.56289923 0 20506
0.14050000 0.14048300 11188.77578563 0 69.67261743 0 3178.19933868 0 333.25875063 0 888.45749490 0 21447
0.14150000 0.14148400 11288.07632177 0 39.45032351 0 3327.19408117 0 565.01565678 0 1080.89182812 0 21771
0.14250000 0.14249400 11071.02116756 0 4.15165216 0 2852.89122168 0 -37.08380719 0 860.63576946 0 22470
0.14350000 0.14350900 11179.76843611 0 95.00183350 0 2669.86627333 0 323.44623194 0 826.05303960 0 22519
0.14450000 0.14449900 10958.49520604 0 -40.51483843 0 2733.69762460 0 225.49899515 0 869.85731814 0 22218
0.14550000 0.14550500 10884.67887829 0 162.86496229 0 2607.30913248 0 -503.04179673 0 576.95478872 0 23559
0.14650000 0.14650700 10605.18741353 0 307.89866791 0 2829.66983524 0 -152.56582704 0 507.69376322 0 23044
0.14750000 0.14750500 10508.96255772 0 37.46618016 0 2637.96707455 0 -16.14512478 0 182.74923558 0 23649
0.14850000 0.14849900 10432.69667028 0 167.73552177 0 2791.94881300 0 374.87380386 0 440.78123934 0 23640
0.14950000 0.14949500 10239.12653226 0 65.12137947 0 2749.03208792 0 70.19680124 0 981.27603475 0 24457
0.15050000 0.15050000 10120.76776269 0 146.66821002 0 2769.26567062 0 66.03123162 0 765.41710050 0 24591
0.15150000 0.15149900 9908.88634217 0 257.42235999 0 2663.30848350 0 -35.38361504 0 403.52596298 0 25020
0.15250000 0.15250500 9478.37897356 0 170.13125705 0 3008.02634025 0 -247.57578912 0 599.00961355 0 25297
0.15350000 0.15350100 9634.92011742 0 84.96435077 0 3151.46288901 0 -32.09900815 0 711.64542080 0 25452
0.15450000 0.15450400 9546.83482989 0 -98.48152640 0 2942.89880941 0 325.68269092 0 571.79094115 0 26061
0.15550000 0.15549900 9445.52411697 0 43.67949380 0 2793.81619034 0 69.12459711 0 604.00100333 0 26128
0.15650000 0.15649500 9499.13981574 0 175.15669901 0 2958.28819560 0 -104.17362207 0 216.42573820 0 26331
0.15750000 0.15749700 9350.01325838 0 120.17781478 0 3029.61102537 0 -296.22316572 0 67.86730293 0 27345
0.15850000 0.15849900 9404.70544526 0 10.18186396 0 3063.81698439 0 59.32976358 0 191.89828608 0 26980
0.15950000 0.15949700 9177.86303688 0 16.52442207 0 3129.64752787 0 -40.76660484 0 262.16110460 0 27777
0.16050000 0.16050000 9201.65562109 0 -11.29455722 0 2800.27511902 0 321.55249163 0 -142.62259194 0 28224
0.16150000 0.16150500 9282.85358161 0 179.37807025 0 2943.82151351 0 7.08802613 0 -154.21570984 0 28075
0.16250000 0.16249700 9150.18191398 0 191.30731608 0 3073.02205621 0 -256.62597847 0 92.23284245 0 28590
0.16350000 0.16349900 8858.54151194 0 97.81948621 0 2889.70052440 0 130.53187290 0 144.98317659 0 29163
0.16450000 0.16449100 8801.34484251 0 -140.42018514 0 3058.37962096 0 378.38776862 0 587.78667574 0 28996
0.16550000 0.16550500 8899.59085968 0 54.05541121 0 2662.28691825 0 407.69790364 0 251.95533821 0 30777
0.16650000 0.16650700 8980.10777670 0 168.21335068 0 2688.27641698 0 265.69154623 0 669.95237711 0 29211
0.16750000 0.16749900 8775.89358784 0 -7.82781513 0 2397.16327443 0 -154.84292894 0 808.58207691 0 30922
0.16850000 0.16850800 8569.98777480 0 69.54926068 0 2622.25913576 0 -55.20165136 0 425.07549747 0 30867
0.16950000 0.16949900 8422.71761020 0 200.02906671 0 2630.33279661 0 -137.88055196 0 202.46983873 0 30852
0.17050000 0.17049200 8310.38937099 0 265.96176671 0 2652.99396985 0 -189.55198138 0 449.04822867 0 31257
0.17150000 0.17149500 8161.63628909 0 56.27275703 0 2636.33037324 0 302.22623463 0 78.19609653 0 32608
0.17250000 0.17250900 8146.43364064 0 -45.53050412 0 2587.98726931 0 3.38303965 0 -424.78001246 0 32361
0.17350000 0.17350400 7934.64009670 0 131.27992229 0 2445.56130122 0 -160.91849603 0 -182.51746110 0 32508
0.17450000 0.17449800 7751.71400950 0 138.30565491 0 2434.32408347 0 101.31686428 0 -173.57382210 0 32791
0.17550000 0.17549800 7852.03611089 0 -118.25880995 0 2221.17943710 0 398.54775468 0 -200.25534890 0 33633
0.17650000 0.17650100 7755.40482589 0 162.63538472 0 2064.67124696 0 238.07413384 0 149.41325471 0 33984
0.17750000 0.17750300 7750.52767566 0 38.10251645 0 2032.14592755 0 108.84327372 0 240.51600433 0 34069
0.17850000 0.17849800 7654.48955758 0 29.34385766 0 1898.32087979 0 -25.40402101 0 133.01987859 0 34536
