### header ###
fiducial parameters:
Omega_m = 0.31
Omega_nu = 0
Omega_de = 0.69
Omega_k = 0
H_0 = 100
w_de = -1
zeff = 0
beta = 0
fgrowth = 0
b_1 = 2
gamma = 0.55
Lx = 3500 Ly = 3500 Lz = 3500
nx = 700 ny = 700 nz = 700
xoffset = -983.599254 yoffset = -42.9823471 zoffset = 800.977702
bins = 400 dk = 0.001
kx_ny = 0.628318531 ky_ny = 0.628318531 kz_ny = 0.628318531
############################
A(data) = 9.08443507 (not used)
A(ran) = 9.09230484 (used)
Ngal = 505057
weighted Ngal = 0
Nran = 25229228
weighted Nran = 0
SN(data) = 6721.29575
SN(ran) = 134.969001
SN(data+ran) = 6856.26475
############################
13 columns: k_central k_mean P_0(k) sigma^{lin}_{P_0(k)} P^img_1(k) sigma^{lin}_{P_1(k)} P_2(k) sigma^{lin}_{P_2(k)} P^img_3(k) sigma^{lin}_{P_3(k)} P_4(k) sigma^{lin}_{P_4(k)} N_modes
### header ###
0.00050000 0 0 0 0 0 0 0 0 0 0 0 0
0.00150000 0.00179520 8896.13071932 0 -11166.80664047 0 7748.71522119 0 -17497.10597337 0 -9192.85697846 0 3
0.00250000 0.00253879 20702.40425261 0 -4467.19499281 0 5549.63674412 0 -15455.07393050 0 40357.86889248 0 6
0.00350000 0.00331552 24353.34664147 0 409.03692304 0 -6494.79330731 0 -15486.48980808 0 -19648.21482197 0 7
0.00450000 0.00420575 34695.76110970 0 -10157.69789571 0 -16629.76412235 0 -13892.62832653 0 4360.97417595 0 24
0.00550000 0.00557378 49635.98812332 0 -7882.57322266 0 -16365.47530604 0 -1727.31305384 0 -27657.61591966 0 45
0.00650000 0.00659388 57802.79814609 0 -8688.36851351 0 -26558.60943290 0 -26649.78138532 0 36814.35562347 0 40
0.00750000 0.00754703 52616.43220181 0 2353.59845957 0 -8522.66623612 0 -13017.15789179 0 -4911.70769146 0 57
0.00850000 0.00846663 57897.26547029 0 4631.88668952 0 2319.08493252 0 -6181.01899152 0 -8723.73883722 0 75
0.00950000 0.00948925 69467.97484458 0 -13634.38102514 0 -17251.16139327 0 23520.93573125 0 -14241.16881453 0 112
0.01050000 0.01054430 93936.43980670 0 -13402.60654367 0 -24204.17614581 0 -1077.99739324 0 -4133.64844638 0 105
0.01150000 0.01145670 80591.61211480 0 -1845.91348400 0 -20963.06815996 0 -14039.38221621 0 17405.05525514 0 144
0.01250000 0.01249090 79016.97363526 0 627.71230170 0 -10631.57235687 0 -18964.42517879 0 11080.24820853 0 169
0.01350000 0.01339930 81190.71070339 0 2436.42213683 0 -11129.89847659 0 7221.52164472 0 -14580.70195302 0 180
0.01450000 0.01448870 87175.98461151 0 2213.51220544 0 5018.71939754 0 -4940.10281158 0 -9387.52557374 0 267
0.01550000 0.01550050 89044.78994477 0 12765.28164250 0 18113.45034091 0 -13350.75936109 0 29092.64048169 0 238
0.01650000 0.01653350 79651.77208474 0 187.10901244 0 16512.11935000 0 -5359.74643791 0 -8431.16474652 0 315
0.01750000 0.01747870 87256.94091143 0 -8182.92439075 0 18392.89786738 0 13396.67487448 0 -531.16779483 0 297
0.01850000 0.01844180 76498.10129664 0 -1770.97672985 0 20901.66439923 0 3570.05199637 0 -808.72597481 0 388
0.01950000 0.01947590 73127.70489150 0 10072.55647363 0 26510.16746781 0 -16266.94368999 0 20661.54164260 0 399
0.02050000 0.02045430 75965.45937217 0 7764.25839139 0 22496.51449232 0 8798.28014676 0 4694.34496922 0 462
0.02150000 0.02154770 74542.95722288 0 -4308.10542811 0 33206.25306767 0 5338.18372193 0 1993.90863039 0 571
0.02250000 0.02255340 68562.18698952 0 -675.47102637 0 26433.71484265 0 3182.48332198 0 -3557.72730594 0 510
0.02350000 0.02348930 70247.00073204 0 5895.79357987 0 24958.59659070 0 -267.65888318 0 -5568.62907011 0 555
0.02450000 0.02439640 64688.03808580 0 6055.36646576 0 23625.39901650 0 -13774.98355418 0 862.68329379 0 592
0.02550000 0.02547300 59968.51647623 0 825.80039443 0 32427.44687166 0 1244.62896547 0 -13786.29766394 0 837
0.02650000 0.02652900 57933.51455981 0 1771.48202019 0 27895.43191605 0 364.74053565 0 -15195.94786330 0 723
0.02750000 0.02749970 59326.13867167 0 -423.17187104 0 26663.29240960 0 5497.97629927 0 -21534.37577992 0 826
0.02850000 0.02848090 55133.98639173 0 71.35787056 0 21653.33870097 0 3617.84587167 0 -15863.15080190 0 831
0.02950000 0.02946900 57436.68234196 0 -399.10467251 0 13027.37354430 0 1651.20095043 0 -22385.13092634 0 996
0.03050000 0.03053250 51221.50132971 0 5182.19180670 0 17408.02108974 0 -850.53435652 0 -18265.69651689 0 1041
0.03150000 0.03150510 50009.35374536 0 3717.30019182 0 18967.06147621 0 -2346.46947196 0 -13264.75015778 0 1036
0.03250000 0.03246190 47736.31614110 0 -495.86887084 0 17378.80212667 0 5081.92462818 0 -9402.44262331 0 1059
0.03350000 0.03345080 46363.02487698 0 -2183.61219887 0 12855.79452058 0 6222.38689186 0 -15233.95448444 0 1302
0.03450000 0.03451200 48835.65216504 0 -578.65520056 0 12098.95746972 0 -3198.94919628 0 -12216.05301344 0 1339
0.03550000 0.03553350 44360.20775822 0 3075.91099880 0 11025.76472852 0 -1608.48194766 0 -3630.59896044 0 1365
0.03650000 0.03647120 41558.48267562 0 1336.78952943 0 14051.90462896 0 189.84636792 0 -2322.85264091 0 1308
0.03750000 0.03744890 45700.43545887 0 236.08922158 0 12544.93111652 0 4966.75138466 0 -5544.63876359 0 1579
0.03850000 0.03847530 45581.03315491 0 1145.16366075 0 16137.32573353 0 1523.86778506 0 -2859.94331728 0 1662
0.03950000 0.03950240 42397.81386657 0 1097.48512346 0 16756.63593566 0 -2536.35977818 0 2108.04932409 0 1683
0.04050000 0.04050350 44260.46783918 0 -1062.32021126 0 15764.17980294 0 2234.67947680 0 3191.20507261 0 1822
0.04150000 0.04152450 45199.97833207 0 -797.10649394 0 14145.16365017 0 1570.18972764 0 643.59269828 0 1887
0.04250000 0.04250150 42811.60271570 0 -803.04145850 0 13719.95084555 0 1050.87099125 0 7010.11256082 0 1920
0.04350000 0.04349210 42108.37037905 0 271.71548583 0 10715.09904678 0 4171.72097494 0 5271.29865948 0 2005
0.04450000 0.04448520 42102.43870985 0 1453.48962854 0 12817.23867081 0 3006.47751551 0 4823.29286675 0 2151
0.04550000 0.04548030 44529.80955888 0 1756.66383178 0 10693.88783712 0 -1712.36305056 0 2304.50840470 0 2274
0.04650000 0.04648670 40321.40011151 0 765.11832012 0 12617.97852419 0 -1998.68691947 0 2430.02911559 0 2311
0.04750000 0.04749250 38453.47354406 0 428.36757387 0 10622.78469880 0 -430.07567491 0 2375.54563559 0 2568
0.04850000 0.04851840 37833.94365047 0 893.07431075 0 11734.92873437 0 -128.78862123 0 -1949.69572575 0 2493
0.04950000 0.04949480 37149.05555002 0 195.54077035 0 9317.53187725 0 2564.35945369 0 3494.26943013 0 2644
0.05050000 0.05050630 38891.31860715 0 -1541.17947145 0 8130.14351950 0 5204.99577938 0 -2428.16173825 0 2829
0.05150000 0.05149060 38632.41223141 0 814.07875703 0 3080.11809010 0 -834.99118631 0 -4099.50839479 0 2784
0.05250000 0.05249300 37305.36601785 0 2055.82866603 0 7701.52549738 0 -2569.33546507 0 -973.49456353 0 3055
0.05350000 0.05348950 35446.11726274 0 371.07973249 0 9904.16297596 0 -2844.24636306 0 65.94632087 0 3009
0.05450000 0.05448610 34730.47235906 0 272.33831109 0 9944.79490994 0 -1950.61842985 0 -6645.93004145 0 3336
0.05550000 0.05550870 34289.33192420 0 1685.91219978 0 13123.04917148 0 -2278.79352029 0 -4818.42670110 0 3349
0.05650000 0.05647670 32807.18354579 0 -95.08663440 0 9939.84086770 0 2245.12580533 0 -6273.25644749 0 3324
0.05750000 0.05747970 34168.39178007 0 -847.69813988 0 13015.83974309 0 1966.94150471 0 -5225.66874498 0 3639
0.05850000 0.05849280 34325.25147654 0 738.80367805 0 10466.19961666 0 711.55974113 0 -4101.65038645 0 3846
0.05950000 0.05951020 33723.40674480 0 521.67712412 0 10632.09961635 0 301.45621609 0 -3756.36133192 0 3787
0.06050000 0.06049470 33451.75826487 0 294.13060464 0 12284.04751772 0 -2006.06855224 0 -2477.01013252 0 3930
0.06150000 0.06148310 31852.40449702 0 89.11882596 0 10618.92911383 0 668.31018351 0 -4156.44143448 0 4083
0.06250000 0.06249100 32315.07469415 0 -264.97645055 0 10368.60168927 0 3463.69936464 0 -1317.98394117 0 4303
0.06350000 0.06350600 33523.81706100 0 -818.99984555 0 8600.92033119 0 2241.92929471 0 -1875.41804596 0 4470
0.06450000 0.06451750 32770.27538192 0 474.47312036 0 7085.59854360 0 1873.86922122 0 364.49118585 0 4479
0.06550000 0.06550280 32034.63855615 0 1164.10106388 0 8186.75800658 0 -888.21253893 0 -687.19046686 0 4636
0.06650000 0.06648880 31370.62114361 0 1445.71255115 0 8600.27224141 0 -2062.60614732 0 535.13542245 0 4653
0.06750000 0.06749660 31290.87314667 0 -294.79517128 0 8367.57505585 0 138.98779687 0 -1931.46133527 0 5220
0.06850000 0.06852730 30477.24585557 0 -423.81446853 0 8414.58902649 0 506.09331100 0 -3192.16073043 0 5029
0.06950000 0.06949320 29684.81878955 0 1198.99905097 0 8517.50348701 0 -1930.70339976 0 -3548.73094099 0 5040
0.07050000 0.07048030 28473.33027955 0 1365.65698618 0 10544.65143403 0 -2277.14583440 0 -2541.80812618 0 5475
0.07150000 0.07148790 27978.03590186 0 261.94800389 0 10251.73682158 0 1290.87401604 0 -3912.55096946 0 5509
0.07250000 0.07249820 28057.45436162 0 113.84960252 0 12059.63269988 0 1036.74263400 0 -4217.41679688 0 5916
0.07350000 0.07351270 27218.34286213 0 475.09155180 0 10560.66694086 0 -512.49402144 0 -4211.57300427 0 5721
0.07450000 0.07449140 26428.55209353 0 1058.88423695 0 11419.12227266 0 236.34406366 0 479.60071885 0 6028
0.07550000 0.07549160 26471.39192660 0 -639.53609563 0 11075.30515087 0 1711.71496078 0 -551.39039295 0 6183
0.07650000 0.07648840 26788.73622848 0 -529.11697513 0 10226.82381096 0 2751.85512308 0 -343.86655237 0 6330
0.07750000 0.07749960 26638.13773839 0 516.86368441 0 9634.31596593 0 -105.47024102 0 582.05602423 0 6583
0.07850000 0.07848650 26139.87752610 0 922.68432460 0 9992.05054118 0 -549.01552836 0 2205.15294570 0 6549
0.07950000 0.07947320 25569.33882622 0 305.72921483 0 8791.76629522 0 1148.66773940 0 1733.77198252 0 6828
0.08050000 0.08048110 25238.81303725 0 -0.29691849 0 9380.44052443 0 1464.72684629 0 2809.49117541 0 7147
0.08150000 0.08149960 24184.95314379 0 633.06837929 0 8619.71493488 0 -563.15706710 0 1234.00688379 0 7386
0.08250000 0.08250610 23298.71782793 0 1023.18547452 0 8822.41325272 0 321.57116540 0 2822.01358816 0 7227
0.08350000 0.08350160 22593.61811394 0 222.11904217 0 8799.27974287 0 -188.79624278 0 1627.10079818 0 7798
0.08450000 0.08449610 22285.39100730 0 408.12959735 0 8177.83853365 0 911.51630966 0 1801.99716282 0 7371
0.08550000 0.08548940 22103.37663963 0 -70.06861127 0 8292.51747140 0 -195.25297455 0 230.11910638 0 8256
0.08650000 0.08650700 21666.08080517 0 58.82886707 0 6939.82228087 0 600.38707895 0 -803.59288405 0 8037
0.08750000 0.08749060 21807.78179147 0 237.13495289 0 7867.94177198 0 339.85608492 0 -669.85131904 0 8155
0.08850000 0.08849210 21086.20521860 0 344.75190892 0 6752.39251891 0 -257.89689352 0 -124.84845505 0 8718
0.08950000 0.08949900 21024.03253779 0 233.01573817 0 5987.21817747 0 810.26711035 0 -1001.87760063 0 8571
0.09050000 0.09049190 20807.52661221 0 -97.69074702 0 6559.56933182 0 -481.94702355 0 -1318.31347835 0 8932
0.09150000 0.09150830 20051.23878998 0 1093.73169501 0 6360.71561438 0 212.80082925 0 -1206.67726721 0 9285
0.09250000 0.09250820 19482.23793027 0 -56.94402426 0 6600.54178755 0 -155.97214300 0 -893.60266869 0 9204
0.09350000 0.09350330 18964.09564161 0 68.06711230 0 6938.81170019 0 74.66752228 0 -1283.50336784 0 9349
0.09450000 0.09448040 19246.50900267 0 612.65684652 0 6676.56601438 0 541.33291830 0 -1278.16486557 0 9564
0.09550000 0.09549270 18408.60580617 0 92.17715066 0 5782.81725088 0 477.23903574 0 -302.93693648 0 10155
0.09650000 0.09649430 18912.02876757 0 -102.72299941 0 6194.94742955 0 52.67256337 0 -1282.85527806 0 9913
0.09750000 0.09749140 17845.86615283 0 420.32576828 0 5574.76944618 0 815.90219608 0 -407.66714684 0 10476
0.09850000 0.09850240 18077.75048002 0 67.42099974 0 5847.19783077 0 469.20601781 0 675.64018879 0 10575
0.09950000 0.09950330 17238.41928908 0 386.92497843 0 5386.85636304 0 -228.61312148 0 -32.00662790 0 10882
0.10050000 0.10051200 16803.75975204 0 953.75418815 0 6009.90131985 0 -1111.18837776 0 -712.15840034 0 10875
0.10150000 0.10150300 16139.85218522 0 367.97219690 0 6625.46578274 0 37.53406482 0 161.76650503 0 11118
0.10250000 0.10250800 15964.31871537 0 -127.06074796 0 6402.69865079 0 872.26293954 0 -796.00254439 0 11575
0.10350000 0.10349800 15649.06148228 0 -176.81866484 0 5871.14419900 0 708.25448324 0 568.44174497 0 11364
0.10450000 0.10450100 15776.37267850 0 133.61634088 0 5864.80610062 0 72.41436675 0 -464.06633630 0 12093
0.10550000 0.10551000 15706.07141398 0 264.82486345 0 4975.55002730 0 436.11828828 0 1312.11817941 0 12067
0.10650000 0.10649700 15685.31057180 0 -126.50822396 0 5010.77755157 0 714.21361387 0 790.82221996 0 12054
0.10750000 0.10749900 16013.09021763 0 148.04238005 0 5447.11772822 0 -33.27523618 0 1608.66868539 0 12807
0.10850000 0.10850100 15405.64335388 0 166.59642160 0 5210.02671362 0 267.65448935 0 1716.32848126 0 12736
0.10950000 0.10950300 15447.38472969 0 276.78925990 0 5964.88654141 0 -436.33029053 0 2021.53483043 0 12933
0.11050000 0.11050200 14994.60064789 0 440.12655882 0 6079.35677228 0 -612.98198987 0 853.45076054 0 13428
0.11150000 0.11150900 14742.83424432 0 24.03237743 0 7249.91676484 0 -303.23791377 0 1729.71867524 0 13453
0.11250000 0.11250000 14522.48371834 0 197.21372075 0 6660.35278525 0 266.22979028 0 1285.91997381 0 13668
0.11350000 0.11349100 14711.30852102 0 -7.39683542 0 6721.75654598 0 278.44463499 0 1082.98438920 0 13791
0.11450000 0.11448600 14584.76624488 0 -159.57947663 0 5938.69932038 0 811.70059707 0 760.21920075 0 14205
0.11550000 0.11549300 14917.26925692 0 -200.45636658 0 5599.81427167 0 551.63205355 0 346.12717741 0 14776
0.11650000 0.11649800 14705.81623472 0 210.85326453 0 5227.20658514 0 -230.49258185 0 328.02240488 0 14553
0.11750000 0.11747300 14634.41651295 0 231.32411399 0 5298.07904743 0 -779.07312113 0 -687.37610614 0 14568
0.11850000 0.11849100 14303.01195817 0 200.65738426 0 4875.33777164 0 367.91397867 0 -468.21960319 0 16015
0.11950000 0.11950300 14244.13464913 0 -184.60343143 0 5314.17144627 0 32.14470397 0 -1176.31590859 0 15270
0.12050000 0.12050700 14147.69010187 0 316.63360003 0 4869.58185561 0 -123.47208810 0 -1434.88176258 0 15999
0.12150000 0.12150000 13842.42882983 0 382.57948152 0 4919.53969171 0 49.62522324 0 -929.09821653 0 15670
0.12250000 0.12250700 13456.43094932 0 243.13143106 0 5213.40996198 0 240.64452383 0 -563.24933751 0 16887
0.12350000 0.12352200 13402.27700650 0 -220.88327775 0 5004.16483887 0 706.53979146 0 39.62190253 0 16407
0.12450000 0.12449800 13637.45670546 0 -68.72387990 0 4123.39984016 0 596.90936327 0 -464.90116382 0 16306
0.12550000 0.12549900 13643.27852893 0 15.04754629 0 4160.53868005 0 367.20767065 0 -257.58712858 0 17523
0.12650000 0.12650100 13239.37579512 0 285.36052189 0 4173.91788946 0 -739.32874062 0 -565.88783184 0 17154
0.12750000 0.12750600 13016.71850889 0 419.17019125 0 4393.90592455 0 -200.36519463 0 26.76962307 0 18007
0.12850000 0.12850300 12784.94402743 0 11.00258728 0 4327.66895188 0 559.14000891 0 -179.15508343 0 17496
0.12950000 0.12949900 13146.22661963 0 -271.77919635 0 3812.05311491 0 337.76681922 0 -914.94239785 0 18405
0.13050000 0.13049000 12921.70195606 0 158.46783789 0 3727.58175176 0 507.10499013 0 -557.88447226 0 18100
0.13150000 0.13148800 12669.71586105 0 66.26959685 0 3181.04434298 0 -59.90238935 0 -150.17558405 0 19059
0.13250000 0.13249300 12625.22834209 0 -130.10567148 0 2918.24942854 0 668.67596977 0 168.46270048 0 18957
0.13350000 0.13349100 12609.95978620 0 368.29953717 0 3003.07229801 0 -9.13128845 0 -312.93619290 0 19468
0.13450000 0.13450700 12487.04241902 0 354.19754289 0 2963.11042296 0 -63.78444715 0 406.93447585 0 19953
0.13550000 0.13551000 12071.49603827 0 154.30248796 0 3350.84386594 0 -290.89894339 0 -440.72631648 0 19956
0.13650000 0.13649900 11681.87324881 0 123.14474784 0 3390.38832723 0 -65.66379767 0 109.14381163 0 19723
0.13750000 0.13749600 11497.00289226 0 138.66704735 0 3739.11555297 0 -71.00581501 0 204.22297652 0 20946
0.13850000 0.13851100 11382.10426306 0 99.69685951 0 3427.87867345 0 -70.09310687 0 -556.11266070 0 20955
0.13950000 0.13949800 11583.45147848 0 165.77148020 0 3439.77496556 0 44.55628238 0 -391.22983243 0 20506
0.14050000 0.14048300 11114.41022925 0 216.73440469 0 3584.76033906 0 9.78936321 0 -657.87813493 0 21447
0.14150000 0.14148400 11119.79266982 0 212.88211508 0 3499.25642609 0 60.80213569 0 -434.31462146 0 21771
0.14250000 0.14249400 10835.01762565 0 -11.71548604 0 3694.05683624 0 -65.49155957 0 -751.76217832 0 22470
0.14350000 0.14350900 10672.20429085 0 261.48335647 0 3856.78229446 0 -25.91875808 0 -524.05638254 0 22519
0.14450000 0.14449900 10492.71637487 0 -32.38361843 0 3711.35753806 0 -17.35232931 0 -1127.41259146 0 22218
0.14550000 0.14550500 10197.97832337 0 94.33089581 0 3589.63748928 0 25.55143397 0 -793.80123605 0 23559
0.14650000 0.14650700 10290.42448621 0 142.90819083 0 3287.45189757 0 406.28309069 0 -626.08878188 0 23044
0.14750000 0.14750500 10053.84974653 0 51.56323138 0 3039.70584757 0 309.74846994 0 -519.12321099 0 23649
0.14850000 0.14849900 10199.84570070 0 52.62785616 0 2832.73453099 0 816.66782079 0 -117.11861132 0 23640
0.14950000 0.14949500 10188.34485321 0 65.66896042 0 2682.60837753 0 -60.73512980 0 291.55252545 0 24457
0.15050000 0.15050000 9919.76106903 0 -51.92934719 0 2368.57043200 0 340.99298819 0 633.13318827 0 24591
0.15150000 0.15149900 9705.90242544 0 245.63042132 0 2725.16261171 0 -253.59643336 0 100.70117899 0 25020
0.15250000 0.15250500 9511.35466045 0 291.59206992 0 2701.63365724 0 -175.31048303 0 829.00898809 0 25297
0.15350000 0.15350100 9487.41927680 0 133.64929460 0 3148.54099271 0 -89.27854165 0 194.90476360 0 25452
0.15450000 0.15450400 9180.09290512 0 62.83153547 0 3311.28842007 0 5.16899934 0 479.73692755 0 26061
0.15550000 0.15549900 9141.61394736 0 190.48237468 0 3366.88134191 0 -374.84304705 0 236.80651417 0 26128
0.15650000 0.15649500 9018.69658018 0 -22.81902154 0 3305.32379716 0 152.30219730 0 628.00229442 0 26331
0.15750000 0.15749700 9188.71579459 0 -58.94442477 0 3286.15571801 0 417.19406664 0 -30.14672007 0 27345
0.15850000 0.15849900 9147.05131079 0 87.19191224 0 2869.97223205 0 350.32108722 0 216.87720413 0 26980
0.15950000 0.15949700 9163.89066056 0 54.71283788 0 2771.59440001 0 -88.18755390 0 205.93547138 0 27777
0.16050000 0.16050000 8869.97645200 0 0.37635452 0 2418.57220639 0 95.24997500 0 58.65135638 0 28224
0.16150000 0.16150500 8983.98533082 0 62.10194016 0 2578.34281458 0 361.23865391 0 76.58652711 0 28075
0.16250000 0.16249700 8613.03631475 0 99.57086647 0 2212.60048591 0 42.22854160 0 172.81149276 0 28590
0.16350000 0.16349900 8511.46197209 0 162.04771009 0 2178.80095608 0 -85.37143903 0 -48.03564574 0 29163
0.16450000 0.16449100 8413.67730697 0 90.02779935 0 1982.51762863 0 188.88631628 0 39.87773322 0 28996
0.16550000 0.16550500 8468.54524701 0 91.89319946 0 1997.93996853 0 185.29985333 0 -323.57035761 0 30777
0.16650000 0.16650700 8285.13583862 0 132.53545894 0 2209.86532734 0 -440.05625755 0 -15.81525807 0 29211
0.16750000 0.16749900 8101.24310904 0 72.58374886 0 2012.00022143 0 68.90435643 0 169.82478748 0 30922
0.16850000 0.16850800 8031.01873653 0 -49.42892893 0 2176.53813413 0 560.45925607 0 69.37932934 0 30867
0.16950000 0.16949900 8385.97421492 0 -121.95951246 0 1867.26749310 0 215.90946329 0 207.03063327 0 30852
0.17050000 0.17049200 8259.48686165 0 99.02383475 0 1863.43387727 0 -45.38627668 0 337.32633786 0 31257
0.17150000 0.17149500 8076.36305214 0 238.87930301 0 1960.27386915 0 -378.92271731 0 607.96204020 0 32608
0.17250000 0.17250900 8074.69339711 0 145.42255949 0 2317.19558603 0 -13.52761098 0 281.38410662 0 32361
0.17350000 0.17350400 7993.28672971 0 -23.48380788 0 2293.51284755 0 124.72432937 0 287.66728213 0 32508
0.17450000 0.17449800 7971.24069254 0 10.01366818 0 2378.77509993 0 16.21872142 0 341.47630938 0 32791
0.17550000 0.17549800 7857.87990350 0 -17.38231719 0 2141.02501097 0 -120.75889867 0 320.05419593 0 33633
0.17650000 0.17650100 7870.97351402 0 103.18061671 0 2102.76574467 0 202.42480199 0 222.44638243 0 33984
0.17750000 0.17750300 7804.36306588 0 61.10585912 0 2127.96435418 0 -2.01291194 0 258.76687167 0 34069
0.17850000 0.17849800 7815.86391338 0 -19.35251013 0 1998.65396575 0 378.56352179 0 70.85071284 0 34536
