### header ###
fiducial parameters:
Omega_m = 0.31
Omega_nu = 0
Omega_de = 0.69
Omega_k = 0
H_0 = 100
w_de = -1
zeff = 0
beta = 0
fgrowth = 0
b_1 = 2
gamma = 0.55
Lx = 3500 Ly = 3500 Lz = 3500
nx = 700 ny = 700 nz = 700
xoffset = -983.599254 yoffset = -42.9823471 zoffset = 800.977702
bins = 400 dk = 0.001
kx_ny = 0.628318531 ky_ny = 0.628318531 kz_ny = 0.628318531
############################
A(data) = 9.07873076 (not used)
A(ran) = 9.0720321 (used)
Ngal = 503501
weighted Ngal = 0
Nran = 25229228
weighted Nran = 0
SN(data) = 6746.22755
SN(ran) = 134.668066
SN(data+ran) = 6880.89562
############################
13 columns: k_central k_mean P_0(k) sigma^{lin}_{P_0(k)} P^img_1(k) sigma^{lin}_{P_1(k)} P_2(k) sigma^{lin}_{P_2(k)} P^img_3(k) sigma^{lin}_{P_3(k)} P_4(k) sigma^{lin}_{P_4(k)} N_modes
### header ###
0.00050000 0 0 0 0 0 0 0 0 0 0 0 0
0.00150000 0.00179520 47370.63971987 0 -21615.88130847 0 -13035.39228228 0 2904.50772824 0 -141617.50354771 0 3
0.00250000 0.00253879 51927.58965524 0 -8301.04149972 0 19085.36532291 0 -66165.24340654 0 37358.53134915 0 6
0.00350000 0.00331552 51063.32348454 0 3057.64365460 0 -11363.54033540 0 -16215.31619885 0 -44835.51021382 0 7
0.00450000 0.00420575 47635.36791908 0 1467.27526713 0 8182.26531640 0 6131.37970803 0 14577.73611843 0 24
0.00550000 0.00557378 63317.16342765 0 -7209.72421376 0 13499.60031957 0 8503.13566607 0 -21045.34260860 0 45
0.00650000 0.00659388 74591.61887942 0 -13477.08194578 0 -12559.87013523 0 7170.19073704 0 41978.42288541 0 40
0.00750000 0.00754703 71599.97053689 0 3265.26306096 0 1082.56038469 0 26683.61386887 0 6823.78125612 0 57
0.00850000 0.00846663 93864.93023919 0 -6176.95469967 0 -20017.62599789 0 12040.29985214 0 23044.09543550 0 75
0.00950000 0.00948925 91939.77404858 0 -2189.60977550 0 -14608.93230456 0 2711.94817089 0 14014.66692791 0 112
0.01050000 0.01054430 85980.75326893 0 1920.49873183 0 -10642.84252834 0 -13072.08075470 0 24635.32061963 0 105
0.01150000 0.01145670 84651.07075796 0 845.80000573 0 -2132.52295180 0 -16326.48007338 0 -4266.26519115 0 144
0.01250000 0.01249090 81855.27734456 0 1652.35433055 0 -9804.77456324 0 -6933.65993565 0 -7244.97370718 0 169
0.01350000 0.01339930 73135.50393803 0 7263.60354228 0 -4729.06720315 0 -9406.45199230 0 7640.16567494 0 180
0.01450000 0.01448870 66015.19414508 0 5268.64039292 0 9730.80445148 0 -14125.06188235 0 -22670.94950491 0 267
0.01550000 0.01550050 63531.25274726 0 3204.00209967 0 17426.80470885 0 -1709.81462972 0 -3292.83433814 0 238
0.01650000 0.01653350 68465.96213371 0 -1783.20255914 0 13360.86516787 0 2201.30834530 0 -29572.11707486 0 315
0.01750000 0.01747870 62767.71510713 0 -687.19156532 0 11775.13227002 0 -9627.69226866 0 -19078.33519645 0 297
0.01850000 0.01844180 72252.01476532 0 -105.79505483 0 15871.16953988 0 -3483.57045644 0 -38532.12308374 0 388
0.01950000 0.01947590 76020.71177225 0 -5651.23305592 0 15982.22356868 0 7579.35508113 0 -6609.69193651 0 399
0.02050000 0.02045430 74760.01237709 0 -1698.61036569 0 9223.63575083 0 752.39818507 0 -26805.43277880 0 462
0.02150000 0.02154770 76499.41944535 0 3175.45319553 0 18088.29566970 0 -5785.98080778 0 -11311.03407846 0 571
0.02250000 0.02255340 68726.18665816 0 4231.33425034 0 22107.55077721 0 3932.14744694 0 3342.17703817 0 510
0.02350000 0.02348930 74443.21730384 0 -3947.61372514 0 21039.96016803 0 14949.34420885 0 4636.59907116 0 555
0.02450000 0.02439640 71247.58544848 0 -2517.87274252 0 13055.16451293 0 6291.28213109 0 8634.21457069 0 592
0.02550000 0.02547300 73271.60279232 0 5962.63470403 0 18246.36366914 0 -517.95445247 0 9322.94727154 0 837
0.02650000 0.02652900 71768.91326319 0 3127.52750536 0 20725.47185503 0 -4221.85456420 0 16730.71234437 0 723
0.02750000 0.02749970 67450.32855283 0 -1899.00192329 0 25563.29731130 0 2339.14276205 0 2723.99824701 0 826
0.02850000 0.02848090 65757.49607232 0 2218.92759972 0 27125.74291527 0 799.95259669 0 8531.93721538 0 831
0.02950000 0.02946900 63865.73298237 0 4144.97354071 0 24650.80886697 0 -1462.21137917 0 16679.19469896 0 996
0.03050000 0.03053250 58577.64989598 0 3710.46778768 0 27894.55315024 0 513.66607534 0 9669.42265990 0 1041
0.03150000 0.03150510 56475.86177827 0 27.64827903 0 32378.78521512 0 7027.74279981 0 21121.35585086 0 1036
0.03250000 0.03246190 55816.12834903 0 554.41883961 0 26617.92612484 0 5326.36432183 0 7675.17350775 0 1059
0.03350000 0.03345080 56549.67810601 0 177.24376780 0 27470.43880287 0 2721.99905480 0 14008.40572154 0 1302
0.03450000 0.03451200 53507.17119243 0 3549.23623133 0 25239.25242015 0 -3399.61536820 0 7141.42214145 0 1339
0.03550000 0.03553350 53095.13987491 0 385.91549621 0 31074.69675827 0 -2325.10447829 0 9176.13845899 0 1365
0.03650000 0.03647120 50325.48974425 0 249.24434570 0 28365.79131398 0 -1711.16573215 0 1095.92860953 0 1308
0.03750000 0.03744890 48324.10061993 0 2841.23659017 0 33868.07356570 0 180.08767364 0 248.69951090 0 1579
0.03850000 0.03847530 47487.62541786 0 1162.07990253 0 31254.40436570 0 331.41883472 0 -315.17375033 0 1662
0.03950000 0.03950240 47735.65706674 0 -1482.91729848 0 28721.03239126 0 9447.71004691 0 -783.78440431 0 1683
0.04050000 0.04050350 51497.10425577 0 -24.19890355 0 23939.99717523 0 6716.45099743 0 1750.69920887 0 1822
0.04150000 0.04152450 47267.16504615 0 -1829.73320859 0 15086.21198322 0 1438.94605444 0 -205.37855355 0 1887
0.04250000 0.04250150 49364.99871773 0 2145.47376287 0 19942.60136715 0 4049.49563583 0 -405.95025815 0 1920
0.04350000 0.04349210 45993.17431816 0 2368.88898460 0 19366.68022671 0 -3579.22411448 0 345.02103095 0 2005
0.04450000 0.04448520 42505.46267786 0 3343.61601718 0 20158.33837265 0 -7836.69066299 0 -4250.18377689 0 2151
0.04550000 0.04548030 39414.51379920 0 362.52384890 0 19455.21588172 0 1991.68974673 0 -3818.05069154 0 2274
0.04650000 0.04648670 39652.21994986 0 -584.18922822 0 18743.19588700 0 4414.46904442 0 -7721.62726520 0 2311
0.04750000 0.04749250 39095.30211998 0 1065.77595779 0 17156.25468617 0 1430.26824210 0 -6115.74866124 0 2568
0.04850000 0.04851840 39104.74885240 0 90.15093640 0 13996.10300024 0 4661.11663716 0 -3923.15108200 0 2493
0.04950000 0.04949480 39456.14532928 0 -589.94734117 0 13397.77333174 0 -718.41740979 0 -2819.78371992 0 2644
0.05050000 0.05050630 37891.17327362 0 1673.47766362 0 13352.29720125 0 -1413.73646036 0 -6323.17034530 0 2829
0.05150000 0.05149060 37314.04383019 0 1453.19304508 0 15950.91753682 0 -1771.20740588 0 -2491.71847521 0 2784
0.05250000 0.05249300 35629.55962484 0 -1267.05946269 0 13771.02910805 0 2501.45080651 0 -3529.06855607 0 3055
0.05350000 0.05348950 36957.26491275 0 -242.39107087 0 16877.79577123 0 1765.26475211 0 -2364.03380352 0 3009
0.05450000 0.05448610 37449.04422722 0 1084.26189499 0 13927.01003871 0 838.33598866 0 -743.20739320 0 3336
0.05550000 0.05550870 36399.02893417 0 319.21058076 0 13978.85722129 0 1803.89749388 0 -229.43257059 0 3349
0.05650000 0.05647670 36956.82552985 0 -610.94764703 0 13133.48451543 0 798.98265893 0 -837.48248737 0 3324
0.05750000 0.05747970 35755.44282663 0 818.50773670 0 11978.67639995 0 188.68090477 0 2334.32053469 0 3639
0.05850000 0.05849280 35930.53691357 0 -19.42401970 0 11764.03785172 0 320.95822625 0 -814.65654555 0 3846
0.05950000 0.05951020 35247.73588192 0 1662.82262822 0 13473.78657400 0 594.62017835 0 -293.98450982 0 3787
0.06050000 0.06049470 33712.97140085 0 777.73410173 0 13249.59144762 0 -1436.78209364 0 296.16384902 0 3930
0.06150000 0.06148310 33398.04370494 0 -16.12238671 0 13088.22807640 0 -1054.03125279 0 -2255.79182530 0 4083
0.06250000 0.06249100 31865.36629267 0 320.02014376 0 13225.86477084 0 -338.92349471 0 -4415.09516505 0 4303
0.06350000 0.06350600 31520.89009652 0 648.47643925 0 14221.17689244 0 2426.44814493 0 -910.21573627 0 4470
0.06450000 0.06451750 32448.09786811 0 -111.52087313 0 13390.30382238 0 718.58657221 0 -331.04426080 0 4479
0.06550000 0.06550280 31949.06873574 0 197.13792720 0 12250.10518844 0 2010.90176418 0 -2128.78819712 0 4636
0.06650000 0.06648880 31220.24234497 0 774.80341777 0 13892.84801798 0 -1465.34198235 0 -1535.10500282 0 4653
0.06750000 0.06749660 30274.47064571 0 1216.98079629 0 13342.74062311 0 -381.85779510 0 -611.02783441 0 5220
0.06850000 0.06852730 29461.28273752 0 375.80529561 0 14600.47418367 0 -361.20679865 0 132.65519078 0 5029
0.06950000 0.06949320 28320.64472067 0 306.97047153 0 15157.83139645 0 1823.05458846 0 2499.67130576 0 5040
0.07050000 0.07048030 28641.94346868 0 572.74440205 0 12657.85252266 0 2729.22690356 0 260.95280161 0 5475
0.07150000 0.07148790 28934.57248224 0 -415.35744610 0 12237.58277570 0 1029.43569632 0 916.67356649 0 5509
0.07250000 0.07249820 27661.79005724 0 494.67594626 0 11293.23907088 0 561.05901374 0 208.11810596 0 5916
0.07350000 0.07351270 27041.49124357 0 865.69416514 0 10938.28359249 0 -1839.70720050 0 2588.00923845 0 5721
0.07450000 0.07449140 24730.99624681 0 777.09919344 0 11367.49478153 0 1769.13132166 0 2003.58603884 0 6028
0.07550000 0.07549160 25606.79621872 0 203.45185952 0 10848.04532873 0 856.00467366 0 215.64583355 0 6183
0.07650000 0.07648840 24619.94221802 0 362.81823545 0 9528.68831598 0 817.86623766 0 534.79160532 0 6330
0.07750000 0.07749960 24364.66075123 0 355.79579820 0 8999.30880957 0 1701.69703058 0 778.27124733 0 6583
0.07850000 0.07848650 24161.11662129 0 12.48045168 0 8457.56067443 0 -629.58626979 0 695.98581413 0 6549
0.07950000 0.07947320 24012.38550854 0 -56.13523018 0 7771.80479275 0 1221.50644019 0 778.14931858 0 6828
0.08050000 0.08048110 23463.15687947 0 -185.80514367 0 7572.34692382 0 -187.56157683 0 689.62354969 0 7147
0.08150000 0.08149960 24116.07987371 0 156.60814975 0 6926.32224117 0 291.88425955 0 -1276.03385848 0 7386
0.08250000 0.08250610 23248.95771414 0 386.52404154 0 7745.10129681 0 -1010.29947243 0 144.19887810 0 7227
0.08350000 0.08350160 22744.10675830 0 743.17773485 0 7531.76991270 0 -122.67680505 0 -1487.70657213 0 7798
0.08450000 0.08449610 22840.66115129 0 441.00971845 0 8338.24624705 0 -635.06757150 0 -1361.49383317 0 7371
0.08550000 0.08548940 22078.00227697 0 -168.49235883 0 8660.98397407 0 537.56301299 0 -271.21788469 0 8256
0.08650000 0.08650700 21459.57084064 0 240.76205875 0 7791.77474570 0 509.25137561 0 -889.30989773 0 8037
0.08750000 0.08749060 21492.74424983 0 597.56404380 0 7938.71537313 0 315.47912145 0 -566.53372471 0 8155
0.08850000 0.08849210 21398.05723418 0 279.23113039 0 8216.84475089 0 719.09076409 0 -705.69837320 0 8718
0.08950000 0.08949900 21386.30374152 0 -149.18367714 0 7998.37258681 0 493.67964552 0 -1041.70875926 0 8571
0.09050000 0.09049190 20658.46596228 0 76.90551909 0 6375.06146617 0 -386.67013635 0 -1186.13611648 0 8932
0.09150000 0.09150830 20407.57832452 0 557.49342148 0 6811.41262739 0 -476.45913109 0 -1214.10283827 0 9285
0.09250000 0.09250820 19748.28427819 0 271.42878848 0 6401.81988498 0 815.25410630 0 -1239.08175632 0 9204
0.09350000 0.09350330 19921.07160490 0 32.44271543 0 6383.40974133 0 1372.85188122 0 -2318.39290445 0 9349
0.09450000 0.09448040 19035.93474629 0 409.56418252 0 5048.01525262 0 -332.33165270 0 -1184.03806312 0 9564
0.09550000 0.09549270 18476.27077327 0 655.36816009 0 5750.73131437 0 417.38519820 0 -1495.76924840 0 10155
0.09650000 0.09649430 17836.08988323 0 254.18081262 0 5217.57311498 0 330.30170369 0 -378.55583258 0 9913
0.09750000 0.09749140 17647.26508056 0 398.56862537 0 5049.12469445 0 351.48655037 0 -1703.76213023 0 10476
0.09850000 0.09850240 16906.24581422 0 131.18215960 0 5405.16764553 0 -219.98913354 0 -177.78091340 0 10575
0.09950000 0.09950330 16829.24396042 0 -272.96003790 0 4532.70698368 0 999.04687627 0 410.06507903 0 10882
0.10050000 0.10051200 17008.07280205 0 252.53642210 0 4663.15976766 0 835.30534509 0 -288.69214275 0 10875
0.10150000 0.10150300 16887.35234938 0 319.87844277 0 4431.31937876 0 -466.31268139 0 128.98085125 0 11118
0.10250000 0.10250800 16583.29938033 0 273.40820846 0 5145.36053484 0 -434.80892723 0 575.42134239 0 11575
0.10350000 0.10349800 16103.82278715 0 42.93913360 0 4803.38882123 0 -118.30824053 0 745.74043563 0 11364
0.10450000 0.10450100 15888.52516456 0 424.47244443 0 5822.96586366 0 -3.16131605 0 417.22482344 0 12093
0.10550000 0.10551000 15664.98911253 0 152.77673083 0 5656.20906730 0 282.67699081 0 1571.39803062 0 12067
0.10650000 0.10649700 15728.80947923 0 -96.16466035 0 5371.90635975 0 862.26148620 0 867.87350434 0 12054
0.10750000 0.10749900 15740.56297189 0 217.60108746 0 5341.79764631 0 204.66345788 0 1573.89152860 0 12807
0.10850000 0.10850100 15315.13047581 0 129.46527090 0 4910.82892565 0 76.82324465 0 808.37886232 0 12736
0.10950000 0.10950300 15258.55992702 0 418.05525713 0 5288.70920702 0 -281.26437477 0 2131.81993915 0 12933
0.11050000 0.11050200 14796.65864997 0 112.98951049 0 5278.41666251 0 323.18370066 0 784.19522733 0 13428
0.11150000 0.11150900 14678.35480327 0 39.24875660 0 4987.11678223 0 -536.43709430 0 916.78670758 0 13453
0.11250000 0.11250000 14606.18616141 0 26.67010284 0 4904.43590441 0 894.56711417 0 388.90549687 0 13668
0.11350000 0.11349100 14567.30077447 0 -14.99613849 0 4818.43768567 0 146.09481533 0 80.60995635 0 13791
0.11450000 0.11448600 14592.45544569 0 200.18834301 0 4027.52649067 0 -367.14945242 0 275.76549774 0 14205
0.11550000 0.11549300 14405.16848317 0 81.61328721 0 4589.27753248 0 534.69823646 0 208.17632419 0 14776
0.11650000 0.11649800 14137.47444937 0 87.48014743 0 4326.77920150 0 -56.29670340 0 82.84454795 0 14553
0.11750000 0.11747300 14157.90575437 0 274.21337763 0 4423.65214710 0 -844.97067050 0 -954.69776293 0 14568
0.11850000 0.11849100 13837.37592644 0 188.46341024 0 5066.76591802 0 -75.14941548 0 10.73821059 0 16015
0.11950000 0.11950300 13559.02685723 0 149.67908137 0 5031.67020862 0 181.76391942 0 -668.54745027 0 15270
0.12050000 0.12050700 13668.65289159 0 -93.41928613 0 4905.71011483 0 303.10390198 0 84.04109744 0 15999
0.12150000 0.12150000 13806.39943176 0 -133.44937538 0 4814.36240924 0 768.14676678 0 -19.15204168 0 15670
0.12250000 0.12250700 13695.89463160 0 349.80810768 0 5370.99464023 0 -67.56555672 0 351.52939021 0 16887
0.12350000 0.12352200 13205.32362011 0 305.12616179 0 4768.93021704 0 -122.26708049 0 973.49126816 0 16407
0.12450000 0.12449800 13195.21781334 0 42.53204534 0 5075.01533202 0 316.79397479 0 1343.88556332 0 16306
0.12550000 0.12549900 13291.22297770 0 -60.30662162 0 4644.93636175 0 491.36080225 0 1142.39554846 0 17523
0.12650000 0.12650100 13087.67884777 0 30.30500776 0 4220.67921494 0 282.46059473 0 1018.67630748 0 17154
0.12750000 0.12750600 13030.00984172 0 -24.59687462 0 3863.42796087 0 559.57170261 0 1300.16696445 0 18007
0.12850000 0.12850300 12852.16961162 0 165.40020164 0 3672.21950595 0 266.26603937 0 1383.25427145 0 17496
0.12950000 0.12949900 12815.70083065 0 109.40535430 0 3517.38097084 0 -406.00957484 0 199.57101003 0 18405
0.13050000 0.13049000 12534.27608112 0 436.42695477 0 3761.37029702 0 -167.31041882 0 467.80658327 0 18100
0.13150000 0.13148800 12222.86344844 0 -9.42913513 0 3190.09563078 0 212.63825757 0 -134.84661301 0 19059
0.13250000 0.13249300 11906.72744955 0 57.51906664 0 3779.27515033 0 -190.09022543 0 -42.18899714 0 18957
0.13350000 0.13349100 11964.61614705 0 307.19235990 0 3092.31096566 0 173.48484706 0 -692.74206984 0 19468
0.13450000 0.13450700 11738.88318050 0 -88.27169573 0 2974.45748644 0 427.62721368 0 -205.02265340 0 19953
0.13550000 0.13551000 11858.28548446 0 51.03992634 0 2864.64471434 0 161.94225819 0 -760.29609276 0 19956
0.13650000 0.13649900 11475.69282146 0 251.54341674 0 2776.19693592 0 147.03289783 0 -182.65806363 0 19723
0.13750000 0.13749600 11509.74499646 0 54.96130891 0 2578.80416663 0 454.48339518 0 287.56622406 0 20946
0.13850000 0.13851100 11244.90695152 0 -116.68252379 0 2461.98323723 0 -66.79960247 0 52.14321682 0 20955
0.13950000 0.13949800 11257.86874717 0 330.92013513 0 2275.64094796 0 179.28579984 0 23.72107464 0 20506
0.14050000 0.14048300 11094.08876998 0 284.81019480 0 2543.89519497 0 -286.10307900 0 666.06054304 0 21447
0.14150000 0.14148400 10716.96642412 0 49.67146829 0 2857.37292729 0 138.72087176 0 602.87728155 0 21771
0.14250000 0.14249400 10594.15890266 0 101.97495002 0 2642.91013222 0 -69.78059578 0 308.24468195 0 22470
0.14350000 0.14350900 10562.84188623 0 73.72823147 0 2741.97999233 0 199.82585211 0 468.69084136 0 22519
0.14450000 0.14449900 10732.60845547 0 0.39400673 0 2768.15622879 0 -12.88688086 0 586.83760867 0 22218
0.14550000 0.14550500 10518.68390445 0 6.99048313 0 2682.80609983 0 -8.39706863 0 481.31870600 0 23559
0.14650000 0.14650700 10479.83147123 0 98.78140524 0 2691.58277332 0 -69.18215627 0 265.10716696 0 23044
0.14750000 0.14750500 10267.34589922 0 242.78871239 0 3223.58759258 0 -386.03852343 0 354.25576112 0 23649
0.14850000 0.14849900 10280.31867944 0 291.88096417 0 3042.04556153 0 -186.96401608 0 182.87336125 0 23640
0.14950000 0.14949500 10043.57917116 0 -57.71393295 0 3413.46691422 0 62.24869405 0 -596.68417953 0 24457
0.15050000 0.15050000 9912.54420484 0 58.19978060 0 3085.86302156 0 281.73121911 0 249.67933477 0 24591
0.15150000 0.15149900 9994.78569976 0 -9.09860935 0 2937.03304765 0 279.58153825 0 106.95425677 0 25020
0.15250000 0.15250500 9998.87196076 0 -42.22085240 0 2616.41534315 0 358.50679071 0 528.13934817 0 25297
0.15350000 0.15350100 9787.68256831 0 142.12059697 0 2588.48157508 0 206.32871908 0 448.77361435 0 25452
0.15450000 0.15450400 9779.54300002 0 128.38658587 0 2508.17336493 0 -237.89069148 0 189.14225682 0 26061
0.15550000 0.15549900 9605.56933948 0 142.01624353 0 2596.57720507 0 125.02750358 0 666.21981934 0 26128
0.15650000 0.15649500 9448.09450696 0 121.97598932 0 2714.51856087 0 -243.20502769 0 725.93964510 0 26331
0.15750000 0.15749700 9351.81472828 0 185.77987915 0 2985.99128765 0 -150.58530860 0 459.16392156 0 27345
0.15850000 0.15849900 9339.55594528 0 81.70380009 0 2746.08822247 0 284.22801246 0 228.82841910 0 26980
0.15950000 0.15949700 9238.56378497 0 -79.30081499 0 2749.35064053 0 365.22385684 0 479.71495840 0 27777
0.16050000 0.16050000 9145.07408773 0 -28.08952931 0 2762.90560309 0 94.45699870 0 329.24718472 0 28224
0.16150000 0.16150500 9293.42074044 0 191.69177612 0 2580.47382166 0 81.05109679 0 421.33305359 0 28075
0.16250000 0.16249700 8892.45088750 0 238.95509656 0 2571.94979334 0 -436.63236628 0 209.56257725 0 28590
0.16350000 0.16349900 8777.73899603 0 82.27796370 0 2572.07062364 0 22.35942703 0 206.69011152 0 29163
0.16450000 0.16449100 8675.93397735 0 -3.34241870 0 2575.58568687 0 242.30319429 0 -127.70224700 0 28996
0.16550000 0.16550500 8511.08849662 0 145.88061617 0 2378.90691480 0 55.53382483 0 -237.03279636 0 30777
0.16650000 0.16650700 8348.06645494 0 205.85418555 0 2721.79034792 0 -232.35666381 0 80.82140937 0 29211
0.16750000 0.16749900 8272.89902477 0 199.00310763 0 2616.93161806 0 -160.78997653 0 -135.97802398 0 30922
0.16850000 0.16850800 8004.15047199 0 -38.13843600 0 2737.47631757 0 284.01491175 0 -294.50408011 0 30867
0.16950000 0.16949900 8155.07849926 0 -30.87961075 0 2424.25123041 0 165.54190263 0 -353.12984243 0 30852
0.17050000 0.17049200 8195.41384978 0 76.01214381 0 2502.30760318 0 -54.80950212 0 -186.57406375 0 31257
0.17150000 0.17149500 7989.37622187 0 27.66991864 0 2333.33192316 0 199.12064255 0 275.86985118 0 32608
0.17250000 0.17250900 8135.46005263 0 -68.80593466 0 2325.56583034 0 193.34605275 0 90.14555396 0 32361
0.17350000 0.17350400 7905.26734962 0 98.70319508 0 2225.93575703 0 311.87837856 0 35.16864696 0 32508
0.17450000 0.17449800 7941.90089917 0 224.74435501 0 2222.49758581 0 -226.64578453 0 212.85685057 0 32791
0.17550000 0.17549800 7766.05986129 0 98.34542755 0 2236.96426790 0 -175.73997981 0 147.95999576 0 33633
0.17650000 0.17650100 7578.66305305 0 82.52852180 0 2405.28087356 0 46.15343923 0 153.44349439 0 33984
0.17750000 0.17750300 7668.45094933 0 18.40421198 0 2072.81081524 0 8.43653620 0 -272.00438009 0 34069
0.17850000 0.17849800 7541.10679940 0 68.75134133 0 2325.14841658 0 62.87151932 0 -157.04204037 0 34536
