### header ###
fiducial parameters:
Omega_m = 0.31
Omega_nu = 0
Omega_de = 0.69
Omega_k = 0
H_0 = 100
w_de = -1
zeff = 0
beta = 0
fgrowth = 0
b_1 = 2
gamma = 0.55
Lx = 3500 Ly = 3500 Lz = 3500
nx = 700 ny = 700 nz = 700
xoffset = -983.599254 yoffset = -42.9823471 zoffset = 800.977702
bins = 400 dk = 0.001
kx_ny = 0.628318531 ky_ny = 0.628318531 kz_ny = 0.628318531
############################
A(data) = 9.0345567 (not used)
A(ran) = 9.03954571 (used)
Ngal = 502486
weighted Ngal = 0
Nran = 25229228
weighted Nran = 0
SN(data) = 6747.91177
SN(ran) = 134.185828
SN(data+ran) = 6882.0976
############################
13 columns: k_central k_mean P_0(k) sigma^{lin}_{P_0(k)} P^img_1(k) sigma^{lin}_{P_1(k)} P_2(k) sigma^{lin}_{P_2(k)} P^img_3(k) sigma^{lin}_{P_3(k)} P_4(k) sigma^{lin}_{P_4(k)} N_modes
### header ###
0.00050000 0 0 0 0 0 0 0 0 0 0 0 0
0.00150000 0.00179520 123760.98235948 0 -84940.07486258 0 -27946.40033282 0 -60478.20064400 0 -71346.55644744 0 3
0.00250000 0.00253879 126593.90362821 0 -23862.33624708 0 -39735.92239293 0 -62649.96048906 0 64727.36285565 0 6
0.00350000 0.00331552 89076.53535953 0 29573.76476075 0 8247.76632270 0 -52909.17106110 0 34399.39734146 0 7
0.00450000 0.00420575 60701.18746741 0 17858.82794847 0 15557.12060978 0 -11796.33249510 0 19375.02850188 0 24
0.00550000 0.00557378 62513.64194333 0 3470.21321618 0 30790.52586559 0 12604.79703709 0 -22922.49621702 0 45
0.00650000 0.00659388 75459.94934197 0 909.55007117 0 13981.49351871 0 -23093.41616639 0 -26404.71557103 0 40
0.00750000 0.00754703 53492.56171090 0 4117.78672357 0 17104.95673222 0 4439.00857956 0 -2100.51390729 0 57
0.00850000 0.00846663 70786.12355434 0 4624.61490247 0 37504.18678158 0 -15445.95673526 0 -18844.36380047 0 75
0.00950000 0.00948925 72052.31523579 0 -16511.57012137 0 18569.41994876 0 961.32585403 0 -25300.65618088 0 112
0.01050000 0.01054430 86300.40433105 0 -4678.85672188 0 25901.18276390 0 -126.54996534 0 -37279.77196374 0 105
0.01150000 0.01145670 82565.64965339 0 3745.99189541 0 18144.64652704 0 -1740.58241752 0 -12856.23390348 0 144
0.01250000 0.01249090 94134.82118751 0 3645.01071967 0 42854.66224022 0 -20196.67453096 0 -21162.21846086 0 169
0.01350000 0.01339930 91962.40226810 0 3460.07445569 0 48349.36513686 0 -2122.87849707 0 -20677.57911857 0 180
0.01450000 0.01448870 81899.65501779 0 4850.62248333 0 43921.26423787 0 -4374.63898424 0 -30529.53242105 0 267
0.01550000 0.01550050 79782.04911555 0 5462.25446923 0 71458.04985914 0 -112.16786446 0 -11000.82974876 0 238
0.01650000 0.01653350 76739.76189343 0 1989.88827683 0 45274.89311707 0 10589.68818162 0 -23684.49601699 0 315
0.01750000 0.01747870 82145.05036925 0 -2218.48821682 0 55486.04194296 0 11770.84828672 0 -26057.93261464 0 297
0.01850000 0.01844180 79761.61781055 0 -2221.00368394 0 51714.37910143 0 -2398.06400938 0 -31058.54943657 0 388
0.01950000 0.01947590 80608.96773948 0 6406.51029747 0 51946.37327435 0 -6934.40688659 0 -19483.22654180 0 399
0.02050000 0.02045430 73363.10428192 0 3052.66764322 0 38521.46804834 0 1221.47348647 0 -19766.07928577 0 462
0.02150000 0.02154770 72519.48910767 0 -3014.30951576 0 39029.72422167 0 17823.45762476 0 -22069.76384753 0 571
0.02250000 0.02255340 73771.51069049 0 5291.66405705 0 37888.97635910 0 4172.19331156 0 -20765.56554495 0 510
0.02350000 0.02348930 69543.10932103 0 8149.87181186 0 40845.36422364 0 -5884.06205636 0 -3561.73667493 0 555
0.02450000 0.02439640 59094.58388166 0 2375.89714191 0 31475.74350321 0 5616.81839003 0 4122.74076580 0 592
0.02550000 0.02547300 59666.33088452 0 -5120.91986084 0 33861.37297643 0 14852.78981586 0 -6988.51689112 0 837
0.02650000 0.02652900 68416.09217419 0 -2056.33395637 0 21704.96619211 0 3914.79182226 0 -18237.35631963 0 723
0.02750000 0.02749970 61529.42424004 0 4424.75060435 0 24240.20554388 0 -11637.60542130 0 -8742.05011972 0 826
0.02850000 0.02848090 60803.01445523 0 2620.32585099 0 23355.17853100 0 -4374.80375283 0 -12360.82968006 0 831
0.02950000 0.02946900 58790.97029551 0 2167.46487718 0 28317.34934890 0 -447.85200871 0 -18292.16933681 0 996
0.03050000 0.03053250 56623.60427949 0 1321.08159064 0 29452.60492518 0 4020.08993503 0 -14111.11147517 0 1041
0.03150000 0.03150510 53092.06419458 0 2878.71595182 0 29129.98802846 0 2209.88729649 0 -16970.39571809 0 1036
0.03250000 0.03246190 51416.14795585 0 1947.83933299 0 27192.08973366 0 5045.11532546 0 1449.46927497 0 1059
0.03350000 0.03345080 51775.67301644 0 -2083.24615920 0 24293.48072090 0 10971.33617138 0 -5007.06476604 0 1302
0.03450000 0.03451200 51857.50808217 0 7.01463820 0 19139.18972855 0 2310.96733338 0 1632.51619247 0 1339
0.03550000 0.03553350 48143.51424669 0 3604.74127658 0 21537.56130597 0 -1984.31909853 0 759.74137185 0 1365
0.03650000 0.03647120 47149.08089090 0 2758.87426496 0 25399.73702557 0 -5906.76716788 0 7031.58740021 0 1308
0.03750000 0.03744890 44288.25880781 0 644.36711065 0 24910.92354570 0 3372.10999846 0 3052.88733467 0 1579
0.03850000 0.03847530 46582.49663715 0 -1259.62290705 0 20697.35134922 0 6423.59130784 0 -749.18409914 0 1662
0.03950000 0.03950240 46688.49776256 0 -1683.40771724 0 16641.62746073 0 5683.02240897 0 5127.70832670 0 1683
0.04050000 0.04050350 48286.09399879 0 -91.31727832 0 13526.51252239 0 4915.77198331 0 5288.97283676 0 1822
0.04150000 0.04152450 45309.05513780 0 995.18689747 0 13349.00182948 0 902.20358902 0 7650.85366406 0 1887
0.04250000 0.04250150 44271.78194894 0 1938.99675206 0 11574.77366614 0 -60.83684694 0 10478.53529167 0 1920
0.04350000 0.04349210 43287.12486275 0 1286.97449278 0 12425.19927539 0 -990.76341009 0 9073.22399847 0 2005
0.04450000 0.04448520 40070.73216521 0 1535.02811081 0 11387.92608653 0 334.79878771 0 6954.56357727 0 2151
0.04550000 0.04548030 39357.83340468 0 1403.57573073 0 14036.52622734 0 -319.15565789 0 2239.72139562 0 2274
0.04650000 0.04648670 38315.72700389 0 411.74571864 0 14912.98527361 0 893.49062605 0 6095.95446145 0 2311
0.04750000 0.04749250 37620.18386804 0 -540.29817156 0 13676.12240095 0 1151.32600597 0 4045.37642111 0 2568
0.04850000 0.04851840 38870.99714787 0 -974.00534616 0 14135.38738058 0 518.86287662 0 2323.85223702 0 2493
0.04950000 0.04949480 39213.93550386 0 310.98313589 0 13712.37149047 0 -1382.78193483 0 1200.64673686 0 2644
0.05050000 0.05050630 38937.01442909 0 1364.25096089 0 12644.78088129 0 -1914.85266152 0 -1486.11380910 0 2829
0.05150000 0.05149060 38323.08666752 0 984.99211566 0 17338.04936239 0 -3407.17275414 0 -1760.94781509 0 2784
0.05250000 0.05249300 38892.30721868 0 -403.33812679 0 17006.97434479 0 369.51772626 0 -6141.61732967 0 3055
0.05350000 0.05348950 37741.78308651 0 64.75680151 0 17981.08624130 0 2935.41831548 0 -1891.66422881 0 3009
0.05450000 0.05448610 36397.71078546 0 1563.96147499 0 16855.05770599 0 561.88065977 0 -1809.93900880 0 3336
0.05550000 0.05550870 36356.62848400 0 952.61398951 0 16515.41472178 0 1649.56424911 0 1430.54285641 0 3349
0.05650000 0.05647670 35176.77554304 0 694.27002389 0 15953.22429706 0 1669.86373924 0 -179.47253758 0 3324
0.05750000 0.05747970 33697.81269069 0 -247.78449600 0 16020.99910989 0 2329.56421476 0 3850.61994924 0 3639
0.05850000 0.05849280 32913.62405411 0 483.58811869 0 13148.20384269 0 2214.34703296 0 5721.68810446 0 3846
0.05950000 0.05951020 33393.64987591 0 328.11577375 0 13301.87801310 0 2183.24970798 0 8514.19713066 0 3787
0.06050000 0.06049470 33366.62782736 0 -476.25371958 0 10988.19749030 0 699.26251213 0 2466.57478857 0 3930
0.06150000 0.06148310 32572.00384683 0 883.18160469 0 10911.51418910 0 1759.02551489 0 5926.67121340 0 4083
0.06250000 0.06249100 32250.92479028 0 54.26312948 0 9973.69532040 0 -734.62185127 0 5296.21167009 0 4303
0.06350000 0.06350600 31573.61604491 0 392.16242264 0 10866.36759580 0 -628.07039877 0 3241.49244589 0 4470
0.06450000 0.06451750 31602.61531652 0 1169.98879478 0 11666.60469292 0 -169.49744722 0 4047.13395272 0 4479
0.06550000 0.06550280 30350.37404225 0 480.53001369 0 10921.59802673 0 -840.91736322 0 -219.52997841 0 4636
0.06650000 0.06648880 30146.82991232 0 -155.90623556 0 11324.87463991 0 13.91679439 0 1429.52129116 0 4653
0.06750000 0.06749660 30195.38172313 0 -66.37329121 0 11562.69063630 0 2072.31650948 0 -177.42391479 0 5220
0.06850000 0.06852730 29766.43416383 0 608.17184554 0 9959.39340690 0 -852.69062811 0 -480.00055729 0 5029
0.06950000 0.06949320 28857.46078272 0 643.67398412 0 10819.47445545 0 582.67884949 0 -1792.78110643 0 5040
0.07050000 0.07048030 28133.35775816 0 904.03361882 0 10736.05761126 0 358.54743363 0 977.23041667 0 5475
0.07150000 0.07148790 27815.57407338 0 70.66078958 0 9424.58752163 0 291.47892882 0 -355.26304643 0 5509
0.07250000 0.07249820 27081.80462495 0 -66.89297134 0 9825.96380375 0 1015.89611216 0 1421.66732177 0 5916
0.07350000 0.07351270 26987.55699220 0 115.87845308 0 8565.82462179 0 2066.37385571 0 1801.85436338 0 5721
0.07450000 0.07449140 26972.83766494 0 -31.99311687 0 7731.21679706 0 1934.71276875 0 4396.35548423 0 6028
0.07550000 0.07549160 27102.12608422 0 764.94146851 0 9200.37042610 0 -1397.76489183 0 1235.10534105 0 6183
0.07650000 0.07648840 25486.29545751 0 795.35445461 0 8508.83665924 0 -2246.14737058 0 1608.19634877 0 6330
0.07750000 0.07749960 24597.97307285 0 747.63856977 0 10309.06530588 0 -284.47736225 0 2087.37635849 0 6583
0.07850000 0.07848650 23910.66836644 0 422.32386203 0 10975.89476900 0 1050.74027484 0 3016.67119887 0 6549
0.07950000 0.07947320 24554.47416543 0 -65.88206113 0 9971.01508469 0 606.41431393 0 439.59051168 0 6828
0.08050000 0.08048110 24436.60970163 0 -136.32513648 0 9542.21032483 0 2056.83924671 0 1994.27112129 0 7147
0.08150000 0.08149960 23480.18296698 0 154.00041222 0 8346.64944508 0 124.17400229 0 2488.48901087 0 7386
0.08250000 0.08250610 22808.80589080 0 448.08048782 0 8436.94263170 0 -174.64481793 0 2463.29040137 0 7227
0.08350000 0.08350160 22996.20269904 0 839.12138560 0 7944.57015031 0 1391.50368546 0 2876.38722243 0 7798
0.08450000 0.08449610 22658.20740071 0 -243.25885210 0 7782.49278187 0 619.05316314 0 1211.15897282 0 7371
0.08550000 0.08548940 22101.61910802 0 109.46763683 0 7095.41875148 0 -857.54361228 0 2058.93730007 0 8256
0.08650000 0.08650700 21651.69101509 0 624.45427748 0 7626.65465066 0 -1168.63769236 0 -365.84118982 0 8037
0.08750000 0.08749060 20923.41385294 0 324.48537251 0 7899.12697354 0 -450.78269268 0 -525.30422998 0 8155
0.08850000 0.08849210 20895.84257576 0 501.48088897 0 8423.22290054 0 211.19818011 0 -1827.87681583 0 8718
0.08950000 0.08949900 20829.71544882 0 -6.51915709 0 7387.69625873 0 786.97322573 0 -832.48230994 0 8571
0.09050000 0.09049190 20891.44874673 0 -357.86309476 0 7369.69254427 0 1084.46620804 0 -1722.82036366 0 8932
0.09150000 0.09150830 20263.90011516 0 395.03269146 0 6667.24011226 0 174.97874893 0 -875.91311301 0 9285
0.09250000 0.09250820 19934.69247490 0 702.42936440 0 6916.58990986 0 -745.94694560 0 -1526.16356073 0 9204
0.09350000 0.09350330 19002.87118282 0 420.25986085 0 7391.51888999 0 -494.92968988 0 -1814.96994304 0 9349
0.09450000 0.09448040 18543.05697457 0 737.16587828 0 8256.98237910 0 96.32898956 0 -1016.33659352 0 9564
0.09550000 0.09549270 17882.33493380 0 82.55115002 0 7278.50960727 0 411.06577360 0 -1326.85947582 0 10155
0.09650000 0.09649430 18017.88455945 0 -207.79515952 0 7269.67801091 0 947.28647181 0 -701.31552874 0 9913
0.09750000 0.09749140 17582.78563950 0 265.41363654 0 6310.50513311 0 801.99902257 0 -729.57553862 0 10476
0.09850000 0.09850240 17487.00016660 0 315.57139186 0 6899.34413091 0 310.23179113 0 1074.98762036 0 10575
0.09950000 0.09950330 17423.72902853 0 195.44520457 0 5873.49489753 0 351.40636299 0 -553.12046313 0 10882
0.10050000 0.10051200 17460.85688385 0 -15.60347551 0 6034.42987042 0 429.26391499 0 -116.05640315 0 10875
0.10150000 0.10150300 17087.38141609 0 -82.46744757 0 5692.39224939 0 -426.63201140 0 -908.82948321 0 11118
0.10250000 0.10250800 16665.46398324 0 184.92747632 0 5154.54363751 0 56.30549106 0 -531.21063466 0 11575
0.10350000 0.10349800 16564.07637831 0 292.22917513 0 5537.33402283 0 -48.13176075 0 -745.25601598 0 11364
0.10450000 0.10450100 16314.83642644 0 295.57946976 0 5228.08535095 0 271.17614332 0 -1673.69735507 0 12093
0.10550000 0.10551000 15866.22648222 0 153.78840997 0 4607.58881497 0 716.96854467 0 -1220.79244297 0 12067
0.10650000 0.10649700 15738.03652019 0 456.42217224 0 5341.49007827 0 -301.45401918 0 -959.80668764 0 12054
0.10750000 0.10749900 15296.78623960 0 381.55022707 0 4819.44826635 0 2.97330411 0 -689.91024703 0 12807
0.10850000 0.10850100 14867.94852603 0 -125.02750358 0 5054.34236643 0 504.15673085 0 -1010.66196332 0 12736
0.10950000 0.10950300 15106.31375104 0 115.01067184 0 4951.70252023 0 -23.90341855 0 -962.60775365 0 12933
0.11050000 0.11050200 15097.74578443 0 93.33228831 0 4828.68629189 0 154.72209864 0 -855.42688514 0 13428
0.11150000 0.11150900 14687.91138142 0 47.31736454 0 5097.33598351 0 -490.72809087 0 -868.43701291 0 13453
0.11250000 0.11250000 14853.88827312 0 -137.70809417 0 4972.39745497 0 140.27079495 0 -1016.52772508 0 13668
0.11350000 0.11349100 14786.22330602 0 121.80133461 0 4831.52031161 0 193.70195290 0 -1237.55490073 0 13791
0.11450000 0.11448600 14946.81775716 0 353.32866319 0 4987.90767145 0 -256.11629431 0 -1278.62621761 0 14205
0.11550000 0.11549300 14665.39300763 0 -123.41716524 0 5197.81186891 0 123.78185305 0 -1877.74677535 0 14776
0.11650000 0.11649800 14589.48961109 0 94.39658355 0 4845.77828682 0 137.20609920 0 -1280.96593157 0 14553
0.11750000 0.11747300 14426.36870826 0 236.76257588 0 4746.88417987 0 -130.62194639 0 -1564.75236421 0 14568
0.11850000 0.11849100 14293.23568857 0 50.29363448 0 4817.67975016 0 440.98774931 0 -1277.14330032 0 16015
0.11950000 0.11950300 14195.47299260 0 182.41091074 0 4403.87991645 0 392.67100835 0 -2020.51326518 0 15270
0.12050000 0.12050700 13957.87668766 0 238.14882894 0 4830.90517555 0 -387.01285501 0 -1264.67581044 0 15999
0.12150000 0.12150000 13846.82265886 0 161.48200460 0 4134.80182650 0 418.60668267 0 -1038.09044106 0 15670
0.12250000 0.12250700 13401.83762359 0 -11.66572593 0 4647.89121177 0 -118.55978724 0 -1348.47711466 0 16887
0.12350000 0.12352200 13184.01354931 0 93.64974246 0 3899.99560300 0 559.58488410 0 -461.49814323 0 16407
0.12450000 0.12449800 13540.68262102 0 184.42987518 0 4452.33286611 0 561.33362805 0 -633.90650218 0 16306
0.12550000 0.12549900 13209.16822052 0 -7.92190898 0 3837.78996847 0 -154.69353875 0 -655.51535336 0 17523
0.12650000 0.12650100 13038.46796260 0 262.75317306 0 4303.87636767 0 128.13833453 0 -301.64624920 0 17154
0.12750000 0.12750600 12896.76697630 0 209.57685719 0 4121.43360167 0 -150.33486035 0 -370.33607692 0 18007
0.12850000 0.12850300 12777.91390097 0 -18.72704857 0 3940.52867582 0 351.98744688 0 26.55718144 0 17496
0.12950000 0.12949900 12734.19530210 0 192.89788219 0 3995.42956958 0 264.01639891 0 -580.47754115 0 18405
0.13050000 0.13049000 12080.28369633 0 226.05371607 0 3914.33047022 0 -75.69677673 0 513.89235753 0 18100
0.13150000 0.13148800 12358.41307409 0 -143.91218076 0 3545.61132238 0 753.88549620 0 281.89488924 0 19059
0.13250000 0.13249300 12200.89430328 0 -51.62265792 0 3387.06000174 0 439.69047129 0 43.18661602 0 18957
0.13350000 0.13349100 12137.29362803 0 332.53926113 0 3124.75939307 0 -136.40312694 0 33.51975277 0 19468
0.13450000 0.13450700 11997.13048189 0 187.07935409 0 3674.63611192 0 -452.83351238 0 285.43192161 0 19953
0.13550000 0.13551000 11825.44161245 0 103.43249296 0 3305.59841148 0 152.21432072 0 59.08052363 0 19956
0.13650000 0.13649900 11603.00401767 0 -48.90990788 0 3548.56617240 0 143.32230921 0 -211.43544687 0 19723
0.13750000 0.13749600 11660.89271518 0 33.16451169 0 2970.68977804 0 16.93107095 0 133.59327328 0 20946
0.13850000 0.13851100 11542.03963985 0 222.51009295 0 3430.96533835 0 162.04990701 0 -426.07838894 0 20955
0.13950000 0.13949800 11217.33567434 0 343.35686820 0 3295.26192868 0 -228.88883425 0 4.99980396 0 20506
0.14050000 0.14048300 10932.43979987 0 179.00898861 0 3493.83004723 0 3.82251043 0 -349.17649476 0 21447
0.14150000 0.14148400 11015.98845893 0 -155.59756907 0 3057.29214827 0 402.59886505 0 85.30146730 0 21771
0.14250000 0.14249400 11050.80955401 0 -29.32529373 0 2661.67178219 0 461.84745264 0 -197.91893031 0 22470
0.14350000 0.14350900 10770.18667827 0 114.85249400 0 2601.36647871 0 -67.76349872 0 -155.18784451 0 22519
0.14450000 0.14449900 10615.83146436 0 410.56817246 0 3066.95857215 0 -460.95770226 0 -283.14053977 0 22218
0.14550000 0.14550500 10423.67833619 0 147.15592504 0 2632.15623566 0 -123.26338122 0 -552.23620504 0 23559
0.14650000 0.14650700 10422.54692522 0 -199.93020555 0 2952.80689388 0 793.10920798 0 -187.06068032 0 23044
0.14750000 0.14750500 10502.51461361 0 -93.47475822 0 2250.87073679 0 105.27328763 0 -624.61135686 0 23649
0.14850000 0.14849900 10355.55201705 0 165.94064261 0 2218.53215511 0 209.92946197 0 -148.58172256 0 23640
0.14950000 0.14949500 10238.28072017 0 109.50696160 0 1999.80734587 0 -14.36452556 0 58.61400883 0 24457
0.15050000 0.15050000 10217.24526367 0 81.35295284 0 2254.67139890 0 200.86718959 0 12.41037010 0 24591
0.15150000 0.15149900 10070.70008087 0 122.53290714 0 2204.20827246 0 -202.34022078 0 97.23939094 0 25020
0.15250000 0.15250500 9948.04634342 0 135.23656534 0 2460.40145878 0 -275.00316840 0 -752.96059519 0 25297
0.15350000 0.15350100 9620.76100336 0 418.46388323 0 3044.65988981 0 -590.37244413 0 -401.83324034 0 25452
0.15450000 0.15450400 9403.24449711 0 120.03171997 0 3262.24230350 0 30.80941933 0 262.30060867 0 26061
0.15550000 0.15549900 9325.17713977 0 -78.95403203 0 3038.05816169 0 64.38673126 0 -338.68622794 0 26128
0.15650000 0.15649500 9413.35030388 0 55.14826634 0 2857.31800443 0 455.23803532 0 -652.30895663 0 26331
0.15750000 0.15749700 9418.80963645 0 77.14322524 0 2808.18401128 0 126.62795580 0 -108.94202503 0 27345
0.15850000 0.15849900 9208.37817951 0 63.68965028 0 2711.87127888 0 61.60807378 0 -87.98873314 0 26980
0.15950000 0.15949700 9037.99647420 0 149.91415122 0 2587.88840816 0 158.14049762 0 28.66314369 0 27777
0.16050000 0.16050000 9000.73680401 0 32.53948951 0 2383.16892896 0 197.11925343 0 -217.15840919 0 28224
0.16150000 0.16150500 8847.85352282 0 71.85909660 0 2385.72833437 0 175.51699299 0 -107.99877978 0 28075
0.16250000 0.16249700 8755.83575831 0 79.63024232 0 1973.33452595 0 156.68174639 0 85.29278949 0 28590
0.16350000 0.16349900 8715.73108381 0 51.27895064 0 1979.16733399 0 -32.39515223 0 -150.40076778 0 29163
0.16450000 0.16449100 8583.87227455 0 137.59275615 0 2147.20932534 0 -183.56758624 0 -241.58040941 0 28996
0.16550000 0.16550500 8445.26893771 0 167.02372147 0 1902.01169618 0 -224.41481784 0 -183.94106170 0 30777
0.16650000 0.16650700 8284.93811632 0 -4.12653044 0 2031.73949836 0 379.96515325 0 85.26247207 0 29211
0.16750000 0.16749900 8472.59855430 0 -6.89856423 0 2163.79602994 0 244.53196406 0 -245.26902888 0 30922
0.16850000 0.16850800 8452.95813852 0 46.17507884 0 1789.78231811 0 41.90197026 0 -84.12721649 0 30867
0.16950000 0.16949900 8183.01226733 0 210.63686845 0 2042.03204287 0 25.12083873 0 278.10191633 0 30852
0.17050000 0.17049200 8059.65551725 0 181.96603555 0 2172.23218168 0 43.01954067 0 612.46791188 0 31257
0.17150000 0.17149500 7915.70269357 0 77.50022385 0 2289.43757112 0 -202.57419217 0 785.13111291 0 32608
0.17250000 0.17250900 7752.53785244 0 100.63285494 0 2510.37027945 0 241.88028824 0 757.62134934 0 32361
0.17350000 0.17350400 7686.69632439 0 -33.43132696 0 2463.96046029 0 152.71521723 0 1082.06717739 0 32508
0.17450000 0.17449800 7760.72135902 0 104.51721950 0 2188.01701248 0 305.70504877 0 976.43733053 0 32791
0.17550000 0.17549800 7801.80366047 0 123.47867884 0 2415.90295525 0 -23.99096559 0 1214.05889998 0 33633
0.17650000 0.17650100 7584.75949084 0 -22.69324819 0 2307.74885361 0 -102.16465359 0 1256.04193639 0 33984
0.17750000 0.17750300 7615.57121693 0 -19.69731586 0 2175.26392371 0 165.53860726 0 1132.48746399 0 34069
