### header ###
fiducial parameters:
Omega_m = 0.31
Omega_nu = 0
Omega_de = 0.69
Omega_k = 0
H_0 = 100
w_de = -1
zeff = 0
beta = 0
fgrowth = 0
b_1 = 2
gamma = 0.55
Lx = 3500 Ly = 3500 Lz = 3500
nx = 700 ny = 700 nz = 700
xoffset = -983.599254 yoffset = -42.9823471 zoffset = 800.977702
bins = 400 dk = 0.001
kx_ny = 0.628318531 ky_ny = 0.628318531 kz_ny = 0.628318531
############################
A(data) = 9.01053791 (not used)
A(ran) = 8.99371085 (used)
Ngal = 499489
weighted Ngal = 0
Nran = 25229228
weighted Nran = 0
SN(data) = 6754.93166
SN(ran) = 133.505441
SN(data+ran) = 6888.4371
############################
13 columns: k_central k_mean P_0(k) sigma^{lin}_{P_0(k)} P^img_1(k) sigma^{lin}_{P_1(k)} P_2(k) sigma^{lin}_{P_2(k)} P^img_3(k) sigma^{lin}_{P_3(k)} P_4(k) sigma^{lin}_{P_4(k)} N_modes
### header ###
0.00050000 0 0 0 0 0 0 0 0 0 0 0 0
0.00150000 0.00179520 61590.71815504 0 -14215.90429760 0 10917.88524120 0 -45752.94171581 0 -213.52471258 0 3
0.00250000 0.00253879 67851.04576060 0 -7406.29314011 0 7747.68267136 0 -41023.42414519 0 22918.32207944 0 6
0.00350000 0.00331552 36323.78461199 0 17382.97626425 0 25903.15998697 0 19099.42557581 0 -9322.27721261 0 7
0.00450000 0.00420575 38267.72442171 0 -2453.47019348 0 18655.97838070 0 35475.33622580 0 4269.89010010 0 24
0.00550000 0.00557378 56860.98089297 0 -9646.64065636 0 18882.80980451 0 17160.31897803 0 -3748.27668650 0 45
0.00650000 0.00659388 53987.63639714 0 -3838.43805825 0 7118.73899907 0 -3191.06227317 0 875.17824510 0 40
0.00750000 0.00754703 64239.42814158 0 -1229.03087241 0 19254.30804921 0 -8594.52730995 0 1621.24602100 0 57
0.00850000 0.00846663 65287.68590302 0 9835.39955160 0 7513.72225995 0 5840.68397923 0 8389.47829357 0 75
0.00950000 0.00948925 71436.41025115 0 -3225.41103163 0 30672.33186461 0 -3823.85054586 0 -1390.22947504 0 112
0.01050000 0.01054430 79978.01389041 0 -10752.28182497 0 9809.01460826 0 8150.95928454 0 -1737.80332066 0 105
0.01150000 0.01145670 82120.88430957 0 -8169.69896537 0 9695.06065230 0 6785.24737550 0 -19853.40663779 0 144
0.01250000 0.01249090 93572.96029998 0 5835.44433811 0 16107.00831320 0 -16425.01168943 0 -7686.61943238 0 169
0.01350000 0.01339930 71916.87545586 0 10173.27401963 0 18352.14510310 0 -16457.08664137 0 -21579.52237323 0 180
0.01450000 0.01448870 71057.33265137 0 10640.71152126 0 34659.84155736 0 -9445.24950266 0 3168.33519250 0 267
0.01550000 0.01550050 63650.32551404 0 -4539.58332612 0 50593.73300668 0 20909.57329149 0 -11737.12564889 0 238
0.01650000 0.01653350 73635.63152766 0 258.66032132 0 44296.16770007 0 3758.94270648 0 -14688.46061005 0 315
0.01750000 0.01747870 69069.56439705 0 8674.09955373 0 41546.07010861 0 2873.79486330 0 -15251.41995484 0 297
0.01850000 0.01844180 56781.67227893 0 3488.20594607 0 41751.70130733 0 -4537.81480993 0 7674.26178823 0 388
0.01950000 0.01947590 59680.94036605 0 -1696.78692664 0 51494.13842118 0 7202.92476334 0 -865.12736119 0 399
0.02050000 0.02045430 65116.76595365 0 -2121.23081118 0 43016.35514862 0 16211.03221555 0 3663.84926164 0 462
0.02150000 0.02154770 69053.74661253 0 -5473.35987211 0 32475.01007093 0 13104.04586091 0 5548.09890396 0 571
0.02250000 0.02255340 70585.10587610 0 -434.21685877 0 26034.97485794 0 11639.03341574 0 17036.19330786 0 510
0.02350000 0.02348930 76270.17141557 0 -2238.12863259 0 23287.07418100 0 11248.97124338 0 12907.31216598 0 555
0.02450000 0.02439640 72987.87128254 0 1620.13657917 0 18181.55469091 0 7894.26080789 0 27737.58360805 0 592
0.02550000 0.02547300 71902.26597433 0 6335.13254484 0 16056.36943360 0 -6982.51931449 0 14689.66891303 0 837
0.02650000 0.02652900 61353.12185011 0 4932.01816616 0 27728.24672136 0 -11844.33507728 0 22933.15125243 0 723
0.02750000 0.02749970 57977.67254159 0 872.49581248 0 29564.97710269 0 8440.68837095 0 16894.16278438 0 826
0.02850000 0.02848090 55011.61825317 0 -2862.88718273 0 24268.21620396 0 11057.40029756 0 15575.13530881 0 831
0.02950000 0.02946900 61318.52044648 0 1842.92568026 0 16608.34420581 0 6100.78767339 0 10547.60628406 0 996
0.03050000 0.03053250 57084.18740782 0 673.77500837 0 15136.96070854 0 312.05193481 0 9586.93950438 0 1041
0.03150000 0.03150510 56449.16926689 0 1724.49001869 0 21633.01724170 0 -2986.23294825 0 11512.05175670 0 1036
0.03250000 0.03246190 52810.63944505 0 1310.64624669 0 13042.64210018 0 -281.66641013 0 1695.53468537 0 1059
0.03350000 0.03345080 52543.60448560 0 -63.86353607 0 19732.02711077 0 2933.78161417 0 3532.92414105 0 1302
0.03450000 0.03451200 56086.01929735 0 -977.59400602 0 14263.68718833 0 -2618.67816510 0 -1718.19585860 0 1339
0.03550000 0.03553350 53982.47364803 0 2781.60134563 0 16250.68652256 0 3213.85526128 0 -3342.89103539 0 1365
0.03650000 0.03647120 51386.92899278 0 -1366.55772113 0 12500.33375184 0 -832.35818427 0 2155.76630738 0 1308
0.03750000 0.03744890 51234.57297108 0 1035.17843086 0 18864.02618539 0 -1423.28205394 0 -2482.33765022 0 1579
0.03850000 0.03847530 50869.00639557 0 3051.75592369 0 18576.01069231 0 -533.07801200 0 360.10065219 0 1662
0.03950000 0.03950240 50209.38281206 0 -133.68444523 0 17434.82344683 0 3444.84983809 0 1173.91028720 0 1683
0.04050000 0.04050350 48286.09399879 0 898.70390420 0 19060.54018887 0 2030.80580969 0 6374.02891635 0 1822
0.04150000 0.04152450 48078.59542273 0 1697.08351010 0 17647.26508056 0 1017.95901489 0 7598.78679002 0 1887
0.04250000 0.04250150 45716.91231774 0 1575.57216820 0 20626.39101034 0 1027.72210300 0 7213.86539763 0 1920
0.04350000 0.04349210 44098.22570216 0 1733.06896988 0 19500.58216648 0 4737.03101827 0 12876.22582558 0 2005
0.04450000 0.04448520 42074.09851259 0 -550.93013936 0 19467.29891156 0 -1330.66013793 0 11112.65269764 0 2151
0.04550000 0.04548030 42313.45234914 0 1319.75245736 0 20935.71657423 0 -630.34969758 0 8993.79455414 0 2274
0.04650000 0.04648670 39778.43268882 0 2472.70418007 0 20929.12583068 0 463.53028916 0 7017.50517816 0 2311
0.04750000 0.04749250 38612.42030931 0 772.05288079 0 21909.05955067 0 487.18336930 0 9961.60130599 0 2568
0.04850000 0.04851840 38500.48751470 0 207.79406106 0 24156.28340936 0 3200.94838849 0 3711.07193917 0 2493
0.04950000 0.04949480 35990.62252559 0 15.66619742 0 19229.04353227 0 2065.95644195 0 6665.62538009 0 2644
0.05050000 0.05050630 37396.86750746 0 -730.38620008 0 18994.19337048 0 1491.40837309 0 2096.59241488 0 2829
0.05150000 0.05149060 37610.73713562 0 629.58626979 0 14636.17404456 0 320.97580157 0 4772.78580202 0 2784
0.05250000 0.05249300 36181.97377996 0 1415.30725424 0 18565.90488553 0 226.96873096 0 4295.50612336 0 3055
0.05350000 0.05348950 36195.26511278 0 -367.12199098 0 14625.73870061 0 590.92826350 0 2156.26061315 0 3009
0.05450000 0.05448610 36110.90359536 0 223.27022537 0 17159.11067504 0 -80.49813340 0 -1565.47734600 0 3336
0.05550000 0.05550870 34640.28901817 0 1105.01504797 0 15401.13967912 0 -771.31581597 0 -1342.61135290 0 3349
0.05650000 0.05647670 33598.95153746 0 93.52100327 0 14003.90204678 0 2450.57026632 0 3030.81932835 0 3324
0.05750000 0.05747970 34964.88313795 0 -913.48694198 0 12500.55344329 0 4683.20661262 0 704.16492687 0 3639
0.05850000 0.05849280 34810.33020173 0 -41.41711123 0 11379.35811992 0 1947.78441012 0 392.36344032 0 3846
0.05950000 0.05951020 33841.16136288 0 668.90115351 0 7457.81078551 0 536.11195095 0 2515.89551946 0 3787
0.06050000 0.06049470 33528.76011866 0 93.28307743 0 9967.45608317 0 560.48452059 0 2585.37294104 0 3930
0.06150000 0.06148310 33028.19314613 0 992.18151841 0 8219.66778604 0 -989.15417021 0 1212.41121409 0 4083
0.06250000 0.06249100 30883.12581245 0 976.50104105 0 8559.47553884 0 1313.21663667 0 2705.33545820 0 4303
0.06350000 0.06350600 31617.11495233 0 -537.22908198 0 6731.12638640 0 890.95758362 0 1300.77111594 0 4470
0.06450000 0.06451750 30193.18480861 0 389.81172411 0 8094.95993352 0 965.72078152 0 485.63564302 0 4479
0.06550000 0.06550280 29947.78945715 0 1294.33415640 0 6774.24083378 0 -1328.06777880 0 1792.50649211 0 4636
0.06650000 0.06648880 30279.30385765 0 455.52473266 0 9253.33803509 0 -1393.34909365 0 -1110.66111827 0 4653
0.06750000 0.06749660 28660.28770489 0 408.79086861 0 8670.45267563 0 -33.73362240 0 610.55659625 0 5220
0.06850000 0.06852730 28785.95121522 0 96.95214436 0 10736.66176275 0 -417.64004029 0 -1973.07089621 0 5029
0.06950000 0.06949320 28422.80124568 0 264.23169653 0 9362.21711851 0 625.97673924 0 1629.17688240 0 5040
0.07050000 0.07048030 28749.70212570 0 -345.87013841 0 8647.78051782 0 2135.69749327 0 494.97362817 0 5475
0.07150000 0.07148790 28467.94783899 0 -178.56850725 0 7694.52832464 0 1257.90931373 0 775.82168765 0 5509
0.07250000 0.07249820 27909.93155185 0 1077.40752170 0 8895.73527470 0 -263.10687630 0 1126.98419313 0 5916
0.07350000 0.07351270 26693.39013847 0 1267.67459875 0 8507.01322019 0 -768.15116061 0 3238.64744159 0 5721
0.07450000 0.07449140 26283.77542691 0 -51.46480961 0 8492.52456896 0 1111.37511549 0 2994.14184050 0 6028
0.07550000 0.07549160 25732.78926623 0 37.37204237 0 7925.73160833 0 606.02106623 0 1586.55674079 0 6183
0.07650000 0.07648840 25031.31446119 0 899.97042542 0 8493.61204164 0 148.56304879 0 2175.45066144 0 6330
0.07750000 0.07749960 23885.62354095 0 667.92023118 0 8317.77100376 0 -518.82113525 0 3172.44342265 0 6583
0.07850000 0.07848650 23471.28546319 0 472.28389505 0 8047.69331770 0 -214.51661948 0 1215.21228010 0 6549
0.07950000 0.07947320 23015.97492969 0 291.39434761 0 8992.08096081 0 264.71282081 0 985.38426490 0 6828
0.08050000 0.08048110 22507.71875635 0 729.17350327 0 9159.21123264 0 -275.72046099 0 1305.87894219 0 7147
0.08150000 0.08149960 23020.80814162 0 -424.72399114 0 9223.81150399 0 -657.92207322 0 992.65165812 0 7386
0.08250000 0.08250610 22464.98876901 0 12.35215187 0 9573.61521784 0 999.44122243 0 -332.24597304 0 7227
0.08350000 0.08350160 22232.44536746 0 264.20643201 0 8955.57922613 0 -256.95990948 0 201.58008835 0 7798
0.08450000 0.08449610 22074.26752229 0 423.05872994 0 9562.49883039 0 396.00153076 0 -204.16805365 0 7371
0.08550000 0.08548940 22269.57322279 0 46.70728138 0 9519.28552185 0 697.71039202 0 1249.38528540 0 8256
0.08650000 0.08650700 21754.50661445 0 -37.53911772 0 8835.44095580 0 414.63466123 0 20.31838360 0 8037
0.08750000 0.08749060 21012.27904513 0 809.01706599 0 8327.69007280 0 -214.07943350 0 733.33445936 0 8155
0.08850000 0.08849210 20781.27348374 0 456.45402750 0 7744.80471335 0 570.64195486 0 982.58759272 0 8718
0.08950000 0.08949900 20734.80874172 0 -147.96109421 0 8465.56842784 0 1458.00428787 0 -198.30229190 0 8571
0.09050000 0.09049190 20096.49522902 0 131.47105385 0 6738.69475690 0 172.23150733 0 814.38742352 0 8932
0.09150000 0.09150830 19224.10047461 0 107.55049937 0 6241.00574239 0 357.96634974 0 47.06812459 0 9285
0.09250000 0.09250820 19350.75259647 0 459.66262115 0 6400.73241229 0 -297.78517194 0 -50.47301255 0 9204
0.09350000 0.09350330 19300.99248268 0 24.33236611 0 6022.20404114 0 558.45017775 0 -236.50443842 0 9349
0.09450000 0.09448040 18660.26236401 0 127.74508683 0 5728.59740061 0 -171.88000101 0 -1334.58163034 0 9564
0.09550000 0.09549270 18968.92885354 0 650.83922082 0 6374.80882100 0 -665.92982663 0 -1668.84217399 0 10155
0.09650000 0.09649430 18089.17443550 0 359.99300338 0 6612.94336999 0 -217.94380613 0 -1272.36501124 0 9913
0.09750000 0.09749140 18378.39823157 0 -351.50632260 0 6469.27614520 0 1321.64180384 0 -731.92184333 0 10476
0.09850000 0.09850240 18059.95547244 0 230.04001746 0 6624.24649518 0 210.62039159 0 -386.62290269 0 10575
0.09950000 0.09950330 17809.94660049 0 228.99758152 0 5132.66236893 0 520.26011426 0 307.99752907 0 10882
0.10050000 0.10051200 18040.07339607 0 -124.39039837 0 5855.28247619 0 303.03579763 0 261.48994721 0 10875
0.10150000 0.10150300 17171.08385916 0 390.95961194 0 5678.79334853 0 -192.21793714 0 326.14294451 0 11118
0.10250000 0.10250800 16861.42875809 0 828.30707390 0 6420.25199777 0 -490.05144120 0 109.59286095 0 11575
0.10350000 0.10349800 15943.22833601 0 350.05526056 0 6367.26241964 0 -51.35057006 0 538.89104781 0 11364
0.10450000 0.10450100 16013.63944626 0 216.09949639 0 6019.64463573 0 373.66879624 0 -704.72514007 0 12093
0.10550000 0.10551000 15624.56588543 0 -73.72559518 0 5709.00092313 0 744.59804008 0 -10.70700342 0 12067
0.10650000 0.10649700 15382.13636856 0 46.20484703 0 5556.95246946 0 418.08601393 0 -507.67948328 0 12054
0.10750000 0.10749900 15335.23224364 0 239.57462646 0 5042.19342915 0 -18.44507459 0 -154.90114717 0 12807
0.10850000 0.10850100 14944.51099692 0 296.57357358 0 4812.81358451 0 -17.10572565 0 -316.62041854 0 12736
0.10950000 0.10950300 14561.58879673 0 213.08203430 0 5823.98742891 0 -618.09201304 0 -419.37230738 0 12933
0.11050000 0.11050200 14701.64209714 0 209.98108946 0 5289.06071334 0 424.42191540 0 1.06800363 0 13428
0.11150000 0.11150900 14532.25998794 0 -221.44678633 0 5526.49224969 0 897.29897737 0 -294.79297437 0 13453
0.11250000 0.11250000 14626.94700359 0 -166.46021290 0 4668.22365562 0 573.00803179 0 590.52183431 0 13668
0.11350000 0.11349100 14834.44557965 0 289.16338092 0 4439.87636080 0 341.81243730 0 624.16648167 0 13791
0.11450000 0.11448600 14515.67328334 0 131.47984151 0 5087.51577562 0 -317.96163485 0 1283.14087694 0 14205
0.11550000 0.11549300 14393.19529906 0 414.06456191 0 5193.57182389 0 -171.01661360 0 1095.24976294 0 14776
0.11650000 0.11649800 13768.50265636 0 -31.11336245 0 4703.83563993 0 250.60313733 0 1869.79394480 0 14553
0.11750000 0.11747300 13951.61548129 0 -307.25936579 0 5078.34365752 0 850.54643955 0 1378.73961212 0 14568
0.11850000 0.11849100 13774.10478838 0 256.14485420 0 4196.96352273 0 260.76716234 0 1080.58975237 0 16015
0.11950000 0.11950300 13867.80319249 0 273.10173889 0 4489.33989113 0 -448.34960985 0 729.11967886 0 15270
0.12050000 0.12050700 13773.22602257 0 205.10064387 0 4216.39523163 0 69.87736986 0 1192.30944627 0 15999
0.12150000 0.12150000 13445.11683956 0 -129.08630315 0 3795.91677779 0 79.17614009 0 626.04923741 0 15670
0.12250000 0.12250700 13473.45703682 0 -119.11011433 0 4022.28684955 0 401.13022770 0 156.76742605 0 16887
0.12350000 0.12352200 13164.57085584 0 369.86593722 0 3611.93617162 0 -578.28721737 0 -91.10461700 0 16407
0.12450000 0.12449800 13069.99368591 0 269.53285126 0 4066.32400102 0 55.35938982 0 79.51512400 0 16306
0.12550000 0.12549900 12892.70268445 0 78.49048307 0 3861.20907721 0 558.80278253 0 151.56293556 0 17523
0.12650000 0.12650100 12965.31070921 0 -71.05832126 0 3409.42459152 0 419.09110232 0 -68.28427730 0 17154
0.12750000 0.12750600 12829.87092928 0 86.60841175 0 3578.88359273 0 165.61549927 0 435.77337270 0 18007
0.12850000 0.12850300 12774.83822065 0 92.71308796 0 3354.11726857 0 139.69190797 0 726.51194133 0 17496
0.12950000 0.12949900 12719.47597484 0 -34.35996273 0 3513.93181505 0 10.05267440 0 684.91775879 0 18405
0.13050000 0.13049000 12508.57218128 0 228.40111923 0 3378.23938996 0 139.09215031 0 701.21666759 0 18100
0.13150000 0.13148800 12462.32713071 0 178.21590247 0 3115.41152180 0 -6.81430157 0 235.37851973 0 19059
0.13250000 0.13249300 12451.23271240 0 -16.85351987 0 3061.04887210 0 151.13783260 0 745.52843338 0 18957
0.13350000 0.13349100 12043.92476109 0 118.84428767 0 3554.19027356 0 -50.41699123 0 404.68483538 0 19468
0.13450000 0.13450700 11937.15471560 0 248.83681806 0 3083.64413790 0 136.36138557 0 722.33560683 0 19953
0.13550000 0.13551000 11756.67818809 0 101.71977840 0 3188.95323523 0 122.23632369 0 665.42453629 0 19956
0.13650000 0.13649900 11736.90595744 0 172.16340298 0 3198.77344312 0 36.25996425 0 355.62224195 0 19723
0.13750000 0.13749600 11497.99150380 0 92.36949053 0 3334.48783737 0 -123.44682358 0 655.94594861 0 20946
0.13850000 0.13851100 11440.21265202 0 219.37948977 0 3390.33340437 0 22.32548470 0 872.14320770 0 20955
0.13950000 0.13949800 11344.53702483 0 -24.75604107 0 3590.80185398 0 -171.53838080 0 193.62066706 0 20506
0.14050000 0.14048300 11235.02083620 0 128.64032950 0 3554.38799587 0 -143.87153784 0 409.56198561 0 21447
0.14150000 0.14148400 11055.75261167 0 37.42740462 0 3855.34331545 0 209.10781594 0 546.91637654 0 21771
0.14250000 0.14249400 11085.74049482 0 115.94875434 0 3858.93527069 0 -222.53535747 0 218.08111329 0 22470
0.14350000 0.14350900 11076.40360812 0 249.19271821 0 4086.26100026 0 -163.57236877 0 9.14475554 0 22519
0.14450000 0.14449900 10563.79754404 0 313.76882350 0 4169.34830726 0 -267.81047028 0 342.87244855 0 22218
0.14550000 0.14550500 10468.12191686 0 60.93197334 0 4444.84138761 0 203.85499334 0 76.70252419 0 23559
0.14650000 0.14650700 10256.24049634 0 62.10391739 0 3970.48360525 0 325.94192683 0 201.63940505 0 23044
0.14750000 0.14750500 10264.74255552 0 55.09949483 0 3836.39492775 0 185.02304210 0 -174.92821990 0 23649
0.14850000 0.14849900 10084.29898172 0 -16.55397057 0 3127.71424309 0 620.72501508 0 705.37542677 0 23640
0.14950000 0.14949500 10164.18977811 0 -156.49610711 0 3094.29917330 0 426.29698194 0 -300.37972798 0 24457
0.15050000 0.15050000 10051.60889372 0 277.29125487 0 2622.52276551 0 117.55469885 0 -52.66827938 0 24591
0.15150000 0.15149900 9756.39850560 0 230.26739811 0 2664.39595619 0 -242.73049416 0 -103.04517693 0 25020
0.15250000 0.15250500 9668.97229242 0 -3.04215541 0 2561.29475794 0 -217.50991551 0 -300.88172295 0 25297
0.15350000 0.15350100 9574.15346190 0 155.75684537 0 2677.09412209 0 304.47257972 0 -649.13002132 0 25452
0.15450000 0.15450400 9391.26032842 0 -60.44546662 0 2291.66743936 0 -31.73948309 0 -579.35931166 0 26061
0.15550000 0.15549900 9438.30725279 0 103.92361320 0 2180.16304308 0 404.36738124 0 -333.74756411 0 26128
0.15650000 0.15649500 9517.50602110 0 -32.64098696 0 2399.18443578 0 141.31652626 0 -588.85217928 0 26331
0.15750000 0.15749700 9179.81829080 0 199.28980497 0 2463.67486141 0 -290.79568840 0 -105.50956579 0 27345
0.15850000 0.15849900 9201.06245417 0 223.35370813 0 2288.91031164 0 -58.43968366 0 -266.11445227 0 26980
0.15950000 0.15949700 8869.17457820 0 102.20178145 0 2681.32318253 0 -230.57496614 0 -340.57886980 0 27777
0.16050000 0.16050000 8968.23345374 0 111.58568211 0 2628.97070961 0 113.69801542 0 9.68895323 0 28224
0.16150000 0.16150500 8768.95133797 0 -0.03136875 0 2760.93936460 0 117.93476506 0 -307.66469652 0 28075
0.16250000 0.16249700 8774.68528486 0 35.86781500 0 2744.40758287 0 112.19971972 0 -289.46545666 0 28590
0.16350000 0.16349900 8521.80943946 0 321.98308688 0 2713.96933225 0 -518.44436441 0 -591.59392860 0 29163
0.16450000 0.16449100 8422.08050499 0 133.11214900 0 2902.13506056 0 72.11778329 0 -73.19471078 0 28996
0.16550000 0.16550500 8274.66754095 0 -34.95082289 0 2896.40111368 0 384.60174133 0 -431.75851143 0 30777
0.16650000 0.16650700 8225.90702326 0 3.56667973 0 2668.21858744 0 140.14337391 0 -176.54514898 0 29211
0.16750000 0.16749900 8359.64419444 0 -4.94260729 0 2477.84496004 0 226.04492841 0 -767.78866972 0 30922
0.16850000 0.16850800 8299.60252071 0 13.88186345 0 2165.60848441 0 69.62736099 0 -204.44486488 0 30867
0.16950000 0.16949900 8152.73878530 0 29.58892347 0 2085.10255196 0 172.89936934 0 -254.54550043 0 30852
0.17050000 0.17049200 8270.39454222 0 82.80829886 0 1986.61487420 0 -86.17847558 0 -299.93265588 0 31257
0.17150000 0.17149500 8114.83102532 0 118.61251319 0 2134.61002059 0 -54.62968466 0 -381.12512411 0 32608
0.17250000 0.17250900 7919.15184936 0 171.12316396 0 2138.05917638 0 -22.72620190 0 -366.85067204 0 32361
0.17350000 0.17350400 7862.97674518 0 18.30568036 0 2384.64086168 0 -98.21196499 0 -538.36049296 0 32508
0.17450000 0.17449800 7942.40618951 0 81.78003302 0 2198.17774212 0 199.79179994 0 -764.03304435 0 32791
0.17550000 0.17549800 7801.06769411 0 -23.97437889 0 2260.03187032 0 -117.62500012 0 -284.91344979 0 33633
0.17650000 0.17650100 7704.84283830 0 148.66190994 0 2219.81735010 0 -152.28901581 0 -911.39328245 0 33984
0.17750000 0.17750300 7653.54488434 0 156.61254358 0 2311.79117632 0 36.38936251 0 -316.29307828 0 34069
0.17850000 0.17849800 7601.89542406 0 -75.21664106 0 2006.95830262 0 424.56032101 0 -570.68259778 0 34536
