### header ###
fiducial parameters:
Omega_m = 0.31
Omega_nu = 0
Omega_de = 0.69
Omega_k = 0
H_0 = 100
w_de = -1
zeff = 0
beta = 0
fgrowth = 0
b_1 = 2
gamma = 0.55
Lx = 3500 Ly = 3500 Lz = 3500
nx = 700 ny = 700 nz = 700
xoffset = -983.599254 yoffset = -42.9823471 zoffset = 800.977702
bins = 400 dk = 0.001
kx_ny = 0.628318531 ky_ny = 0.628318531 kz_ny = 0.628318531
############################
A(data) = 9.04972336 (not used)
A(ran) = 9.0635691 (used)
Ngal = 503263
weighted Ngal = 0
Nran = 25229228
weighted Nran = 0
SN(data) = 6716.89977
SN(ran) = 134.542439
SN(data+ran) = 6851.44221
############################
13 columns: k_central k_mean P_0(k) sigma^{lin}_{P_0(k)} P^img_1(k) sigma^{lin}_{P_1(k)} P_2(k) sigma^{lin}_{P_2(k)} P^img_3(k) sigma^{lin}_{P_3(k)} P_4(k) sigma^{lin}_{P_4(k)} N_modes
### header ###
0.00050000 0 0 0 0 0 0 0 0 0 0 0 0
0.00150000 0.00179520 106800.14321953 0 -78502.01687265 0 80988.48472216 0 -254688.29987102 0 -69290.02476876 0 3
0.00250000 0.00253879 100219.39563177 0 13326.04407278 0 -47045.27668001 0 60240.93387625 0 132074.10688904 0 6
0.00350000 0.00331552 105664.44826034 0 27619.27976135 0 54754.13987187 0 -101222.72649135 0 -78940.52101010 0 7
0.00450000 0.00420575 93458.94043658 0 -2129.02985772 0 -1644.20377769 0 12320.40645296 0 20452.72491783 0 24
0.00550000 0.00557378 99985.97346442 0 7812.35983472 0 46117.95906269 0 -22031.31784350 0 -31867.89274436 0 45
0.00650000 0.00659388 82823.56741760 0 30979.46051398 0 56021.32016485 0 -28536.27188044 0 78194.88822328 0 40
0.00750000 0.00754703 77928.95172108 0 6104.24781375 0 88678.01506628 0 32994.14097113 0 -1226.94380362 0 57
0.00850000 0.00846663 53743.11981148 0 4366.30169365 0 56305.82059471 0 27012.49197196 0 11373.75598790 0 75
0.00950000 0.00948925 63299.03888289 0 2964.28577223 0 65447.84097126 0 27123.10661785 0 1764.33106344 0 112
0.01050000 0.01054430 71040.85579250 0 -5996.98346249 0 53558.68883784 0 20624.52363300 0 -6450.07511233 0 105
0.01150000 0.01145670 63172.82614393 0 8547.11789469 0 51297.73426342 0 -13853.52324814 0 -5525.15213183 0 144
0.01250000 0.01249090 64541.17435039 0 8909.20236069 0 58021.72067764 0 -21.02249470 0 17273.24038416 0 169
0.01350000 0.01339930 54547.52006161 0 -8009.57685085 0 54833.55833163 0 27059.61578833 0 12072.92403270 0 180
0.01450000 0.01448870 72735.22611317 0 -13882.41267403 0 44911.63330181 0 20890.67982665 0 -23718.32850054 0 267
0.01550000 0.01550050 80756.49054924 0 5678.52971879 0 29254.99246444 0 -6271.56482331 0 -14913.75419369 0 238
0.01650000 0.01653350 78802.44493275 0 6681.91550123 0 37609.08944973 0 -14008.29587581 0 -14672.20344263 0 315
0.01750000 0.01747870 85114.61972089 0 -5477.03970393 0 37113.13599768 0 -889.75037909 0 -851.76902247 0 297
0.01850000 0.01844180 78016.49876455 0 -43.96696006 0 41397.00945868 0 15728.58978777 0 -20353.31453597 0 388
0.01950000 0.01947590 80357.64071882 0 3755.69127300 0 26016.63062173 0 -3810.81185821 0 -13119.75379970 0 399
0.02050000 0.02045430 76052.67687846 0 5135.84789498 0 47905.91794175 0 -3431.54752069 0 -13681.83437869 0 462
0.02150000 0.02154770 69309.02807932 0 3187.93166998 0 36759.76229774 0 5476.28176842 0 -4860.72829011 0 571
0.02250000 0.02255340 71753.75455303 0 -5446.77720647 0 44290.12618515 0 14030.15517525 0 -12137.51331948 0 510
0.02350000 0.02348930 71702.67629052 0 -905.05738098 0 31436.30888764 0 5295.82721005 0 -10103.57690660 0 555
0.02450000 0.02439640 68903.14812244 0 5094.61180951 0 21038.42232787 0 2248.17951651 0 -3939.14461968 0 592
0.02550000 0.02547300 68069.08952634 0 1664.55819069 0 21436.39339249 0 4543.52678768 0 -1097.69602725 0 837
0.02650000 0.02652900 59889.09801647 0 3998.68100307 0 26086.05312045 0 3098.52823375 0 -2214.43490954 0 723
0.02750000 0.02749970 66282.77833316 0 978.86931490 0 20417.79397702 0 -2020.52424976 0 -4980.87754500 0 826
0.02850000 0.02848090 57327.71538195 0 -1182.28053150 0 19679.74054528 0 1702.08149062 0 3441.42265144 0 831
0.02950000 0.02946900 60312.44344375 0 -2113.00336632 0 14978.45332619 0 9441.94314631 0 -9189.84720557 0 996
0.03050000 0.03053250 59648.97525984 0 3232.25442035 0 19770.14357763 0 -4182.47487150 0 -3360.34552122 0 1041
0.03150000 0.03150510 58294.90699774 0 3974.09752963 0 20338.15582581 0 -3794.00546216 0 -6689.02251969 0 1036
0.03250000 0.03246190 57358.14264800 0 2413.14582753 0 24899.93897311 0 -7597.39174931 0 -8075.66003950 0 1059
0.03350000 0.03345080 50592.96408660 0 2797.35322271 0 29225.11442702 0 -3264.17558827 0 -6545.80566238 0 1302
0.03450000 0.03451200 51383.19423810 0 369.17830297 0 31445.86546579 0 3840.88761794 0 -6973.30325810 0 1339
0.03550000 0.03553350 52283.92918977 0 -2838.17189442 0 29582.44257309 0 1454.80777725 0 -7229.51841356 0 1365
0.03650000 0.03647120 52337.09452107 0 -135.03225229 0 24107.84144427 0 8850.47883567 0 -9629.72441459 0 1308
0.03750000 0.03744890 51919.46107153 0 794.11100099 0 21865.78033470 0 2853.73703377 0 722.47181553 0 1579
0.03850000 0.03847530 54236.76650329 0 -665.38609029 0 17042.01513132 0 6599.63006802 0 501.26668981 0 1662
0.03950000 0.03950240 54833.55833163 0 -343.62269486 0 18816.35314039 0 1597.84888140 0 -2011.62674597 0 1683
0.04050000 0.04050350 49525.92270605 0 3021.29570393 0 14700.54363989 0 -1308.17471786 0 296.84818790 0 1822
0.04150000 0.04152450 49095.21761514 0 2954.92691639 0 21336.98301063 0 -2075.10659091 0 181.76282096 0 1887
0.04250000 0.04250150 44046.15882812 0 2068.81243083 0 18010.85443300 0 -1508.37953772 0 -2951.68646748 0 1920
0.04350000 0.04349210 42591.36203545 0 2275.94851599 0 21079.72432078 0 984.13202362 0 -898.43258526 0 2005
0.04450000 0.04448520 39271.38481846 0 -129.10497692 0 18438.37399787 0 158.95335600 0 -2844.91642199 0 2151
0.04550000 0.04548030 39198.55710225 0 1394.07407544 0 21998.03458858 0 967.21907722 0 -4434.03256819 0 2274
0.04650000 0.04648670 40980.03508349 0 801.83535243 0 19648.76405060 0 2278.26626081 0 -3449.00200653 0 2311
0.04750000 0.04749250 39786.56127253 0 -1755.00516132 0 14767.54953263 0 2804.20759600 0 -3971.39532478 0 2568
0.04850000 0.04851840 39720.98337422 0 -1134.35484133 0 15542.07174534 0 740.10315298 0 -6296.56571050 0 2493
0.04950000 0.04949480 40116.86737005 0 1508.69809033 0 13144.35924229 0 -1313.04088351 0 -4522.66708434 0 2644
0.05050000 0.05050630 40307.99893296 0 482.47538149 0 15719.47259253 0 1608.14142591 0 -8008.04999526 0 2829
0.05150000 0.05149060 39152.31205168 0 12.21451517 0 15842.38995972 0 -1468.19797122 0 -3948.37166065 0 2784
0.05250000 0.05249300 39262.37746895 0 466.28192459 0 14978.78286337 0 -530.43841921 0 -8918.27561764 0 3055
0.05350000 0.05348950 37919.29377943 0 108.45123432 0 15145.41882943 0 431.44435265 0 -7572.02837122 0 3009
0.05450000 0.05448610 38015.29894379 0 1688.42766691 0 15093.13226394 0 -496.63669246 0 -9874.04327794 0 3336
0.05550000 0.05550870 36059.60564140 0 1818.63879028 0 15353.57647985 0 -453.93526501 0 -10930.89097514 0 3349
0.05650000 0.05647670 34123.02549531 0 1368.12851501 0 16005.07147965 0 -693.08369005 0 -6373.06227396 0 3324
0.05750000 0.05747970 33082.34708896 0 -625.44179055 0 15640.16397849 0 3525.28986310 0 -5098.15982645 0 3639
0.05850000 0.05849280 32711.83745579 0 -642.50961943 0 12157.72493303 0 4259.89413905 0 -5398.11554993 0 3846
0.05950000 0.05951020 33896.41376296 0 1060.63957165 0 9217.83589651 0 1775.12889829 0 -5745.67841098 0 3787
0.06050000 0.06049470 30536.89208468 0 362.60074091 0 10408.96999351 0 -948.95063456 0 1312.94202236 0 3930
0.06150000 0.06148310 31440.59287095 0 1090.38908957 0 10113.06757731 0 1399.45651601 0 -1209.89574697 0 4083
0.06250000 0.06249100 30251.73258047 0 46.40762224 0 9780.55358070 0 1207.42421814 0 873.79968124 0 4303
0.06350000 0.06350600 31432.79382442 0 -202.54892766 0 9071.51040515 0 2438.47625190 0 1960.47159146 0 4470
0.06450000 0.06451750 30720.88367542 0 106.98578250 0 9114.51500681 0 -979.71402853 0 748.08783879 0 4479
0.06550000 0.06550280 29447.99140469 0 885.83877279 0 9032.05382044 0 -360.85748924 0 4813.82416518 0 4636
0.06650000 0.06648880 29211.82309420 0 150.71822193 0 10345.43522570 0 1496.18666216 0 2579.00188894 0 4653
0.06750000 0.06749660 28848.01405030 0 167.46530129 0 9095.22609735 0 1407.91463690 0 4684.15128586 0 5220
0.06850000 0.06852730 29440.96127824 0 285.32866663 0 10134.38863269 0 18.88401811 0 3196.98295779 0 5029
0.06950000 0.06949320 30001.06463416 0 291.25264662 0 10078.70783428 0 -1443.82320466 0 2818.31178720 0 5040
0.07050000 0.07048030 28198.27658211 0 299.06157927 0 9767.60276963 0 -301.33758271 0 3872.62204813 0 5475
0.07150000 0.07148790 27890.59870411 0 398.63233589 0 11330.36692620 0 252.50236993 0 4118.36890591 0 5509
0.07250000 0.07249820 27335.65809730 0 919.11433851 0 11632.22298074 0 -1955.80314811 0 1049.37049864 0 5916
0.07350000 0.07351270 27299.95823641 0 569.31831386 0 12742.54357726 0 1366.01947707 0 1457.31225979 0 5721
0.07450000 0.07449140 26184.25519933 0 -435.54818897 0 11440.10280629 0 962.77252224 0 3055.32590978 0 6028
0.07550000 0.07549160 26947.35345655 0 -7.09399076 0 11624.20424275 0 1298.88176945 0 622.40565469 0 6183
0.07650000 0.07648840 27106.62975898 0 417.46209021 0 11006.32203505 0 279.36294526 0 1758.24561023 0 6330
0.07750000 0.07749960 26471.50177233 0 566.40959904 0 10123.00861550 0 -523.11939850 0 2529.71411177 0 6583
0.07850000 0.07848650 24911.03339142 0 643.81019282 0 10642.05163911 0 -36.59202787 0 1231.43649380 0 6549
0.07950000 0.07947320 24484.72212954 0 450.44436784 0 11007.42049231 0 321.75350931 0 314.00169644 0 6828
0.08050000 0.08048110 23400.65466149 0 909.45999767 0 11054.76400014 0 -564.44006518 0 536.49091870 0 7147
0.08150000 0.08149960 23185.79642180 0 452.05360773 0 10643.35880325 0 673.51687091 0 -1212.52105982 0 7386
0.08250000 0.08250610 22718.07332128 0 -212.52621493 0 9807.54267553 0 994.83429269 0 991.06658429 0 7227
0.08350000 0.08350160 22734.87971733 0 -684.88919890 0 7979.39124539 0 2161.13776337 0 -959.14321946 0 7798
0.08450000 0.08449610 23109.01425945 0 -322.19508913 0 7476.17699087 0 1412.56111110 0 -345.00784946 0 7371
0.08550000 0.08548940 23333.42907729 0 457.90838491 0 5874.09904903 0 -94.98348927 0 -874.19622431 0 8256
0.08650000 0.08650700 22011.10622995 0 536.93579389 0 6106.46669741 0 -798.51142077 0 -784.01508034 0 8037
0.08750000 0.08749060 21944.97910301 0 827.92700769 0 7516.89680143 0 -1024.81119126 0 -585.50957385 0 8155
0.08850000 0.08849210 20924.40246447 0 530.82617462 0 7580.45353838 0 4.16855742 0 -1559.32598536 0 8718
0.08950000 0.08949900 21157.82463183 0 -105.55976528 0 7989.65083619 0 1450.91923855 0 -478.03431880 0 8571
0.09050000 0.09049190 20528.40862292 0 209.59882634 0 6940.45938608 0 86.51548226 0 -2125.44888705 0 8932
0.09150000 0.09150830 20457.22859259 0 575.19945402 0 6732.58733455 0 -711.83325699 0 -253.17572423 0 9285
0.09250000 0.09250820 19477.40471833 0 28.04141689 0 7305.90513129 0 783.00999194 0 516.80766309 0 9204
0.09350000 0.09350330 19289.78821865 0 55.22010544 0 6765.81566661 0 595.17599772 0 -526.65972624 0 9349
0.09450000 0.09448040 19355.69565413 0 358.67485467 0 6956.91427581 0 -250.18462511 0 -1180.35823130 0 9564
0.09550000 0.09549270 18733.85900030 0 973.45501907 0 7331.67493856 0 -634.07895997 0 -1188.03644754 0 10155
0.09650000 0.09649430 18179.57746785 0 126.83007194 0 7465.17044914 0 -90.57592952 0 525.67111471 0 9913
0.09750000 0.09749140 17952.96573550 0 -11.23820636 0 7318.17489886 0 1374.25790651 0 -684.01263001 0 10476
0.09850000 0.09850240 18122.12815325 0 -245.10865412 0 6520.31046941 0 30.18955990 0 -936.08660161 0 10575
0.09950000 0.09950330 17646.49616048 0 460.23931121 0 6330.53000893 0 266.15509519 0 -476.53382618 0 10882
0.10050000 0.10051200 17366.49940538 0 297.86206394 0 5824.40484267 0 680.43715164 0 852.55002558 0 10875
0.10150000 0.10150300 17322.56111505 0 -224.71140130 0 5882.93064538 0 751.17010986 0 1367.10694976 0 11118
0.10250000 0.10250800 17157.13345198 0 -33.59730385 0 5347.58651606 0 906.52491988 0 833.86746454 0 11575
0.10350000 0.10349800 16987.09226842 0 451.64388317 0 4617.33213085 0 -134.75983489 0 712.57251872 0 11364
0.10450000 0.10450100 16337.68433741 0 739.80107724 0 5593.47617329 0 -831.75622969 0 1246.82587999 0 12093
0.10550000 0.10551000 15710.57508874 0 357.69942462 0 6201.91164857 0 -262.83336044 0 1038.02343516 0 12067
0.10650000 0.10649700 15203.74690984 0 -110.13791544 0 5667.96255997 0 42.05300813 0 893.55323812 0 12054
0.10750000 0.10749900 15644.22827035 0 104.35563644 0 5520.81322567 0 1923.37668985 0 811.77199679 0 12807
0.10850000 0.10850100 15379.93945404 0 -258.00783771 0 4472.68727910 0 518.13679638 0 976.39668761 0 12736
0.10950000 0.10950300 15616.21761027 0 221.49511844 0 4408.31768377 0 -157.06840334 0 2156.16175199 0 12933
0.11050000 0.11050200 15161.34645967 0 505.37382149 0 4728.33123678 0 -314.17195731 0 1242.44303553 0 13428
0.11150000 0.11150900 14845.10061506 0 178.88266603 0 5079.09060845 0 -569.04699492 0 1107.81611397 0 13453
0.11250000 0.11250000 14284.33818478 0 219.34653605 0 5476.31472214 0 314.53994049 0 1534.65463534 0 13668
0.11350000 0.11349100 14676.15788876 0 -301.28156139 0 5183.59783199 0 678.61810642 0 1142.41751760 0 13791
0.11450000 0.11448600 14486.78385745 0 -56.80506942 0 4407.58171741 0 549.42964675 0 1627.28753592 0 14205
0.11550000 0.11549300 14741.18655844 0 304.73071718 0 4749.52047729 0 -76.48327212 0 473.30875567 0 14776
0.11650000 0.11649800 14055.63938364 0 292.91461245 0 4444.81941846 0 -381.12951794 0 1430.86140902 0 14553
0.11750000 0.11747300 14100.12690259 0 276.62119594 0 4983.52482699 0 -23.33189124 0 721.11302391 0 14568
0.11850000 0.11849100 13597.14332409 0 307.90965248 0 4719.87311590 0 -336.91441639 0 792.30623572 0 16015
0.11950000 0.11950300 13360.31593924 0 -89.85413325 0 4838.37468490 0 742.65486919 0 999.38959494 0 15270
0.12050000 0.12050700 13497.29355933 0 -206.32871908 0 4363.20404418 0 504.20176760 0 470.29788433 0 15999
0.12150000 0.12150000 13612.96110861 0 210.02502776 0 3822.71913489 0 381.27341584 0 433.89061696 0 15670
0.12250000 0.12250700 13635.47948240 0 -41.02628013 0 3976.32739787 0 -47.52376466 0 581.49471257 0 16887
0.12350000 0.12352200 13283.86331407 0 156.32694469 0 3442.61996986 0 382.32244252 0 676.24324183 0 16407
0.12450000 0.12449800 13284.74207988 0 144.29334543 0 3599.68837320 0 -584.59895278 0 734.06053961 0 16306
0.12550000 0.12549900 12978.16265913 0 95.75526533 0 3826.40995128 0 154.95057775 0 692.68604852 0 17523
0.12650000 0.12650100 13144.46908801 0 144.69208541 0 3634.72915973 0 258.04957908 0 151.39157623 0 17154
0.12750000 0.12750600 12839.97673606 0 103.83760399 0 3846.97307115 0 -163.68111603 0 260.53538786 0 18007
0.12850000 0.12850300 12741.00573710 0 37.07556876 0 3627.36949610 0 269.85469923 0 635.58494487 0 17496
0.12950000 0.12949900 13035.61197373 0 -46.78186663 0 3779.30810405 0 -158.80067044 0 254.52243283 0 18405
0.13050000 0.13049000 12546.68864814 0 277.79434830 0 4238.66096025 0 -366.08065350 0 -21.62829388 0 18100
0.13150000 0.13148800 12413.44578272 0 390.84097856 0 4143.44668512 0 -219.49153241 0 287.43331074 0 19059
0.13250000 0.13249300 12238.35169578 0 -119.39571322 0 4340.33416407 0 42.55511295 0 306.33995706 0 18957
0.13350000 0.13349100 12247.24919957 0 54.68120231 0 4137.94341425 0 894.06951303 0 -66.63911787 0 19468
0.13450000 0.13450700 12416.08208014 0 53.66644749 0 3986.92751041 0 41.19313579 0 983.22359947 0 19953
0.13550000 0.13551000 12315.02401240 0 -80.22890153 0 3533.56124626 0 356.47574324 0 559.84631692 0 19956
0.13650000 0.13649900 12040.84908077 0 -11.16373096 0 3588.69281604 0 426.47383356 0 774.66720907 0 19723
0.13750000 0.13749600 11992.51696141 0 356.22090115 0 3478.03423186 0 -195.59679167 0 1066.11977491 0 20946
0.13850000 0.13851100 11649.46875969 0 289.15679017 0 3425.92341953 0 -354.72699928 0 718.33722241 0 20955
0.13950000 0.13949800 11515.56681993 0 47.87329376 0 3820.51123580 0 460.74130618 0 724.51165066 0 20506
0.14050000 0.14048300 11415.38751798 0 -30.84028598 0 2854.38512355 0 531.18646860 0 750.21335359 0 21447
0.14150000 0.14148400 11528.74830702 0 192.37172116 0 3591.14237573 0 -114.23406256 0 490.01848748 0 21771
0.14250000 0.14249400 11128.36063643 0 232.15454768 0 2948.38011113 0 -620.53717889 0 183.94325862 0 22470
0.14350000 0.14350900 10801.98701590 0 25.78529552 0 3315.87997141 0 335.61164608 0 80.76692589 0 22519
0.14450000 0.14449900 10696.95253287 0 -3.33119247 0 3097.02334730 0 -29.99941695 0 -186.72565085 0 22218
0.14550000 0.14550500 10616.98484448 0 426.30247422 0 3257.52992186 0 -252.26730007 0 -341.01935116 0 23559
0.14650000 0.14650700 10427.58884403 0 173.82097498 0 3152.42953140 0 28.77694387 0 -254.44993465 0 23044
0.14750000 0.14750500 10378.93817207 0 -33.35641217 0 3404.44858014 0 158.32284153 0 -227.02255537 0 23649
0.14850000 0.14849900 10291.40211317 0 -39.74350175 0 3179.14401192 0 324.57764292 0 -36.32718983 0 23640
0.14950000 0.14949500 10027.14625058 0 41.35691577 0 2881.67080184 0 283.39318494 0 -201.74156157 0 24457
0.15050000 0.15050000 9968.85112389 0 264.88857397 0 3027.91940119 0 76.46174236 0 288.11325578 0 24591
0.15150000 0.15149900 10004.07864816 0 90.14072075 0 2850.41969285 0 238.11148139 0 626.04044976 0 25020
0.15250000 0.15250500 9829.06145322 0 61.90564585 0 3233.41878504 0 57.33913934 0 730.99913923 0 25297
0.15350000 0.15350100 9720.29221552 0 -3.60275307 0 2600.68543521 0 -18.17584271 0 741.15217967 0 25452
0.15450000 0.15450400 9653.27533820 0 10.52039750 0 2722.29563826 0 240.62694851 0 831.79797106 0 26061
0.15550000 0.15549900 9624.02342142 0 216.76516149 0 2588.96489627 0 249.14768146 0 886.99874366 0 26128
0.15650000 0.15649500 9500.33713415 0 145.96739429 0 2896.66474342 0 -122.57794389 0 872.30138554 0 26331
0.15750000 0.15749700 9223.05356848 0 76.35771846 0 2613.35064740 0 -78.16951386 0 1003.17048482 0 27345
0.15850000 0.15849900 9113.93282446 0 66.45798227 0 2865.19394297 0 81.76926814 0 474.56209540 0 26980
0.15950000 0.15949700 9068.85213858 0 208.91229055 0 2681.65271971 0 -49.83832395 0 143.95502059 0 27777
0.16050000 0.16050000 9068.13814137 0 -40.91280950 0 2579.26551868 0 315.64389004 0 628.69981478 0 28224
0.16150000 0.16150500 8969.05729668 0 2.99862355 0 2378.75313078 0 143.87043938 0 454.80634162 0 28075
0.16250000 0.16249700 8899.81055113 0 19.83165718 0 1989.06443388 0 233.01354125 0 256.76548255 0 28590
0.16350000 0.16349900 8887.43093783 0 231.58994065 0 2212.22701045 0 -177.37338576 0 102.58898763 0 29163
0.16450000 0.16449100 8773.86144191 0 220.49332543 0 2254.93502864 0 -262.94540308 0 346.98617099 0 28996
0.16550000 0.16550500 8471.01677584 0 -128.63044338 0 2531.20801364 0 118.77288795 0 165.09592898 0 30777
0.16650000 0.16650700 8515.54823309 0 53.76673664 0 2305.77163055 0 59.52869419 0 41.22982426 0 29211
0.16750000 0.16749900 8362.45624502 0 179.47802986 0 2247.52044215 0 -46.38916816 0 -48.55917047 0 30922
0.16850000 0.16850800 8212.26418412 0 95.70210000 0 2536.10713301 0 -53.45971784 0 386.10882469 0 30867
0.16950000 0.16949900 8438.63425587 0 92.68331977 0 2344.38240317 0 116.57817035 0 -19.66084708 0 30852
0.17050000 0.17049200 8157.50608980 0 4.25045839 0 2270.45622970 0 56.71938975 0 -182.63279911 0 31257
0.17150000 0.17149500 8164.23963279 0 211.18280171 0 2481.73349873 0 30.73933776 0 204.08896473 0 32608
0.17250000 0.17250900 7855.50723582 0 -1.20515041 0 2189.14842345 0 93.96785568 0 102.01449448 0 32361
0.17350000 0.17350400 8040.35562322 0 -91.48468321 0 2006.44202771 0 419.07792084 0 54.05035831 0 32508
0.17450000 0.17449800 7883.84743308 0 52.28085351 0 1903.12113801 0 31.39467736 0 -376.05464541 0 32791
0.17550000 0.17549800 7898.43494547 0 150.63034535 0 1647.09272028 0 65.30460214 0 655.29236654 0 33633
0.17650000 0.17650100 7890.67983723 0 -73.15198080 0 1444.10880355 0 161.84120013 0 225.50009361 0 33984
0.17750000 0.17750300 7860.38438605 0 -41.01826140 0 1485.07027471 0 275.61061527 0 190.68339235 0 34069
0.17850000 0.17849800 7731.50239595 0 168.31440875 0 1609.17397573 0 -157.25404262 0 239.76136419 0 34536
