### header ###
fiducial parameters:
Omega_m = 0.31
Omega_nu = 0
Omega_de = 0.69
Omega_k = 0
H_0 = 100
w_de = -1
zeff = 0
beta = 0
fgrowth = 0
b_1 = 2
gamma = 0.55
Lx = 3500 Ly = 3500 Lz = 3500
nx = 700 ny = 700 nz = 700
xoffset = -983.599254 yoffset = -42.9823471 zoffset = 800.977702
bins = 400 dk = 0.001
kx_ny = 0.628318531 ky_ny = 0.628318531 kz_ny = 0.628318531
############################
A(data) = 9.10598289 (not used)
A(ran) = 9.11686679 (used)
Ngal = 506456
weighted Ngal = 0
Nran = 25229228
weighted Nran = 0
SN(data) = 6731.05809
SN(ran) = 135.333606
SN(data+ran) = 6866.3917
############################
13 columns: k_central k_mean P_0(k) sigma^{lin}_{P_0(k)} P^img_1(k) sigma^{lin}_{P_1(k)} P_2(k) sigma^{lin}_{P_2(k)} P^img_3(k) sigma^{lin}_{P_3(k)} P_4(k) sigma^{lin}_{P_4(k)} N_modes
### header ###
0.00050000 0 0 0 0 0 0 0 0 0 0 0 0
0.00150000 0.00179520 15136.19178846 0 -22683.69160910 0 -3565.32863016 0 -31495.40588813 0 -3145.71795755 0 3
0.00250000 0.00253879 64858.84818944 0 -58261.95327999 0 -75712.04528271 0 6619.29245294 0 52318.42074768 0 6
0.00350000 0.00331552 82170.86411482 0 -29812.67921439 0 -79616.07222385 0 -7569.87539499 0 -67217.45561411 0 7
0.00450000 0.00420575 104375.51851365 0 -4133.01134117 0 -22426.32307352 0 -109355.04495622 0 -4036.84140822 0 24
0.00550000 0.00557378 73253.03886466 0 19223.22170880 0 466.55434199 0 -41378.55537674 0 -9878.78861330 0 45
0.00650000 0.00659388 68349.08628144 0 -3860.60492572 0 7718.62847689 0 -17299.60335836 0 -21273.82171829 0 40
0.00750000 0.00754703 72057.03860200 0 1944.25836233 0 34334.36867178 0 13891.09048637 0 -73248.09580699 0 57
0.00850000 0.00846663 102499.13382530 0 -8107.06493251 0 26981.84501446 0 -18984.30725516 0 -13004.85517050 0 75
0.00950000 0.00948925 81618.55980543 0 -2530.72469244 0 20285.42987742 0 3432.55810137 0 -32263.00782011 0 112
0.01050000 0.01054430 112444.67568618 0 -838.86764198 0 33329.60981776 0 -935.90535616 0 3717.46496041 0 105
0.01150000 0.01145670 82906.39109487 0 14042.34805081 0 43941.47585142 0 -9764.59299674 0 -10924.46500018 0 144
0.01250000 0.01249090 87877.67910800 0 3838.75661086 0 49384.99063983 0 13283.75346834 0 3817.13897202 0 169
0.01350000 0.01339930 80286.68037994 0 2360.31003342 0 33297.86440300 0 14988.66897869 0 -8978.17449193 0 180
0.01450000 0.01448870 72895.93041004 0 6197.38600467 0 51776.22224506 0 5059.38428524 0 22519.03286611 0 267
0.01550000 0.01550050 74139.16433479 0 1960.38371487 0 49541.52079912 0 15543.49973978 0 23946.47807305 0 238
0.01650000 0.01653350 66318.36834833 0 2635.98985149 0 52387.62355494 0 2140.61858179 0 6868.75209627 0 315
0.01750000 0.01747870 63301.45548886 0 8256.90548709 0 42806.98919522 0 -8021.49511210 0 15210.88688202 0 297
0.01850000 0.01844180 54355.61957862 0 3327.06226630 0 40341.94126224 0 15392.13232961 0 16681.61130493 0 388
0.01950000 0.01947590 59957.31221220 0 -7300.02838496 0 36606.85704741 0 27509.76357272 0 19179.94249283 0 399
0.02050000 0.02045430 69432.05529223 0 -4890.37565150 0 27115.08787987 0 15351.92879396 0 18488.35380311 0 462
0.02150000 0.02154770 62051.85051201 0 2224.55170088 0 19177.74557832 0 -3565.59225990 0 23825.20839176 0 571
0.02250000 0.02255340 65637.65438546 0 1553.99846766 0 23225.45072881 0 -705.13486463 0 12847.66593686 0 510
0.02350000 0.02348930 63634.39788380 0 1650.24529261 0 20003.67559071 0 9899.43960975 0 9589.07051146 0 555
0.02450000 0.02439640 70034.33940687 0 -6703.45624806 0 15501.64851824 0 -1897.79362031 0 11170.87093232 0 592
0.02550000 0.02547300 67007.21089490 0 270.36658032 0 19427.31506736 0 -2041.39493766 0 -2916.59075808 0 837
0.02650000 0.02652900 67496.79329485 0 5541.96951246 0 20510.28407816 0 -10248.59523382 0 -2076.29292475 0 723
0.02750000 0.02749970 63617.37179630 0 3340.80396660 0 28281.75933373 0 -2146.63812756 0 -4408.15291518 0 826
0.02850000 0.02848090 61568.52931843 0 2032.92583220 0 28416.75973076 0 3290.65939277 0 -7273.02830555 0 831
0.02950000 0.02946900 63903.95929495 0 -1540.04806048 0 26331.88785482 0 3449.47434315 0 -12619.18682717 0 996
0.03050000 0.03053250 58857.75649680 0 892.55474047 0 24177.26394299 0 4232.10317042 0 7056.63222570 0 1041
0.03150000 0.03150510 59121.38623876 0 -950.74002143 0 22180.26864770 0 8987.47842490 0 153.72030562 0 1036
0.03250000 0.03246190 58122.44920821 0 1903.70332035 0 11996.91079044 0 3359.42281712 0 -288.97554473 0 1059
0.03350000 0.03345080 60154.81482721 0 741.39493872 0 16034.29044271 0 5437.81379524 0 6774.50446352 0 1302
0.03450000 0.03451200 56351.29672519 0 729.22622921 0 11649.90814260 0 -2760.51096627 0 2608.74811149 0 1339
0.03550000 0.03553350 55740.77418112 0 2966.17511871 0 19055.37743976 0 -2638.95568609 0 6902.79328670 0 1365
0.03650000 0.03647120 51565.42829723 0 1692.04159128 0 14351.67361470 0 -3729.10860735 0 2231.49395075 0 1308
0.03750000 0.03744890 49914.22734680 0 751.78634438 0 19571.87204253 0 -1059.15994972 0 -4580.68759672 0 1579
0.03850000 0.03847530 47394.80577954 0 1908.11911853 0 20370.78000638 0 1408.22220493 0 -1392.50328156 0 1662
0.03950000 0.03950240 47997.08989418 0 644.18586520 0 20893.31612407 0 3520.13809856 0 2384.43215480 0 1683
0.04050000 0.04050350 47978.08658361 0 1677.34423317 0 22477.84071893 0 1492.78144466 0 -1171.84518755 0 1822
0.04150000 0.04152450 45463.16869111 0 172.53577999 0 17103.96812068 0 1473.74518038 0 3623.98624775 0 1887
0.04250000 0.04250150 44637.01898727 0 -1202.26146903 0 19971.71048449 0 3632.29058462 0 1632.58209990 0 1920
0.04350000 0.04349210 46381.47895892 0 1160.49812407 0 18025.02453163 0 2049.11709219 0 4108.17522256 0 2005
0.04450000 0.04448520 43822.95231327 0 911.13514499 0 17558.39988837 0 -3508.96678825 0 7658.79551004 0 2151
0.04550000 0.04548030 43053.59284967 0 1631.70333410 0 17054.53754407 0 1877.21951586 0 1470.80131492 0 2274
0.04650000 0.04648670 40354.57352071 0 1068.01681060 0 20250.60878234 0 3144.43276256 0 5091.39332974 0 2311
0.04750000 0.04749250 39725.70674043 0 893.22260248 0 16630.75273388 0 -168.44402671 0 5613.28135766 0 2568
0.04850000 0.04851840 40234.95152530 0 66.84694598 0 17256.87337102 0 3800.71703601 0 4035.49030579 0 2493
0.04950000 0.04949480 39211.73858935 0 796.58362828 0 15688.60594358 0 -1212.29038379 0 3280.48767856 0 2644
0.05050000 0.05050630 37798.79301821 0 -664.80280948 0 15324.57720823 0 -3413.17033077 0 1211.89493918 0 2829
0.05150000 0.05149060 38143.26921436 0 1218.82620448 0 17604.09571031 0 912.79271699 0 -3455.42798149 0 2784
0.05250000 0.05249300 36912.33801089 0 444.89935560 0 16438.52271371 0 -2905.66110836 0 -6122.29546650 0 3055
0.05350000 0.05348950 35523.11911653 0 989.37166474 0 16714.12563977 0 789.55679720 0 -6455.71019806 0 3009
0.05450000 0.05448610 36083.88154681 0 -95.44110656 0 17586.95977709 0 549.45710818 0 -8207.62869449 0 3336
0.05550000 0.05550870 35444.57942258 0 875.23866025 0 16162.70009619 0 1309.71255802 0 -8098.49696589 0 3349
0.05650000 0.05647670 35428.76163806 0 627.66946187 0 15738.03652019 0 269.54163892 0 -6884.83351053 0 3324
0.05750000 0.05747970 34032.95200015 0 -4.27221883 0 15781.31573616 0 654.17962934 0 -8153.89216542 0 3639
0.05850000 0.05849280 34066.67463797 0 1111.27625434 0 15701.67758495 0 110.24226888 0 -7649.68929937 0 3846
0.05950000 0.05951020 33017.97749363 0 382.18183999 0 14379.90396624 0 645.59957970 0 -6950.13679452 0 3787
0.06050000 0.06049470 32207.42588285 0 -448.57259668 0 14917.48894837 0 1188.83832133 0 -4348.28699462 0 3930
0.06150000 0.06148310 32251.91340181 0 -63.30233425 0 11467.12485484 0 3910.60670011 0 -3419.81599718 0 4083
0.06250000 0.06249100 32740.28749877 0 251.37535278 0 11011.26509272 0 1147.92078847 0 -1698.42362795 0 4303
0.06350000 0.06350600 31519.68179354 0 618.61707561 0 10040.10804623 0 1553.46022360 0 -2105.23727350 0 4470
0.06450000 0.06451750 31850.20758251 0 1053.60285446 0 11506.99885331 0 -1462.87045352 0 -2588.72323567 0 4479
0.06550000 0.06550280 30707.59234260 0 596.36452847 0 11827.85821841 0 -1433.93708934 0 -2021.04052467 0 4636
0.06650000 0.06648880 30287.43244136 0 -513.54634349 0 12405.97627337 0 339.82422966 0 -1214.00397712 0 4653
0.06750000 0.06749660 29509.06562825 0 -540.74853903 0 11200.85881547 0 696.40872017 0 -2112.78367487 0 5220
0.06850000 0.06852730 30603.45859453 0 1346.29118471 0 10681.32148609 0 1652.87060546 0 -1307.69139666 0 5029
0.06950000 0.06949320 29219.62214073 0 739.25294707 0 12186.28482174 0 -222.82205481 0 -2452.82210370 0 5040
0.07050000 0.07048030 29373.40615687 0 357.08978085 0 11445.26555540 0 991.50047491 0 239.57462646 0 5475
0.07150000 0.07148790 28065.80263678 0 -532.46287594 0 9257.96254014 0 1277.83532839 0 -250.56139595 0 5509
0.07250000 0.07249820 29334.85030711 0 -386.49438319 0 10050.44452903 0 2115.29914199 0 -350.62645834 0 5916
0.07350000 0.07351270 27855.33822613 0 793.00814991 0 7540.66741650 0 -501.91807496 0 897.42529995 0 5721
0.07450000 0.07449140 27366.30505480 0 858.44654415 0 7460.40314464 0 31.80209515 0 218.80389816 0 6028
0.07550000 0.07549160 26938.89533566 0 459.27157037 0 7075.50372139 0 1492.27615432 0 605.32684124 0 6183
0.07650000 0.07648840 26945.15654203 0 118.81133395 0 7365.26576152 0 1254.11963618 0 299.51634058 0 6330
0.07750000 0.07749960 25686.65406139 0 186.79705057 0 6176.33956360 0 -55.29458084 0 1898.76026269 0 6583
0.07850000 0.07848650 24908.06755682 0 824.51739636 0 6690.24180725 0 -160.61532183 0 1487.16832807 0 6549
0.07950000 0.07947320 24461.21514422 0 711.51799976 0 6573.15724810 0 -420.20823336 0 633.55938969 0 6828
0.08050000 0.08048110 24012.49535427 0 309.90774624 0 7649.31582390 0 979.42842964 0 2935.70391437 0 7147
0.08150000 0.08149960 23162.61897365 0 -303.79373314 0 7057.90643612 0 73.67484645 0 566.63148741 0 7386
0.08250000 0.08250610 23574.32075400 0 841.14803925 0 7060.05941234 0 -224.90802515 0 35.00563590 0 7227
0.08350000 0.08350160 22350.52952271 0 253.75461120 0 7356.21447371 0 -857.66663949 0 1164.02417187 0 7798
0.08450000 0.08449610 22346.24553940 0 391.83288546 0 6812.81865268 0 765.36766992 0 954.65162773 0 7371
0.08550000 0.08548940 22387.54753231 0 -278.81042126 0 7248.70846186 0 634.29755297 0 1438.84719328 0 8256
0.08650000 0.08650700 21809.20978590 0 392.71714356 0 7035.64070750 0 630.83192032 0 -710.69745218 0 8037
0.08750000 0.08749060 21741.76451025 0 559.90892899 0 6890.86404087 0 -529.92434121 0 729.09990663 0 8155
0.08850000 0.08849210 20874.42265923 0 277.98987369 0 6822.32030797 0 115.26112010 0 1063.50105281 0 8718
0.08950000 0.08949900 20888.81244931 0 259.51821644 0 7707.75375003 0 1.35876966 0 714.04664836 0 8571
0.09050000 0.09049190 20322.66757847 0 159.81784186 0 7129.20729674 0 148.89917671 0 142.53032153 0 8932
0.09150000 0.09150830 20021.90998119 0 770.46231468 0 7315.61549345 0 538.11993082 0 1525.37267151 0 9285
0.09250000 0.09250820 19445.32976640 0 121.92655874 0 7360.68519475 0 -47.47246671 0 1650.69566009 0 9204
0.09350000 0.09350330 18532.84132206 0 615.05917255 0 7782.37195158 0 -28.90711105 0 337.77890225 0 9349
0.09450000 0.09448040 18432.77186585 0 543.43316857 0 8228.56528983 0 -316.09535597 0 1988.46028239 0 9564
0.09550000 0.09549270 17334.64414489 0 257.35645255 0 7218.34710324 0 876.36457894 0 2378.86297651 0 10155
0.09650000 0.09649430 17982.51423574 0 -273.30605194 0 7618.88855785 0 908.20995331 0 1543.76084601 0 9913
0.09750000 0.09749140 17159.44021222 0 221.51708759 0 6448.03198183 0 709.31339604 0 1839.34470960 0 10476
0.09850000 0.09850240 17057.28368721 0 268.04663859 0 6597.46610723 0 -170.89688176 0 1641.13908194 0 10575
0.09950000 0.09950330 17049.48464068 0 414.70386404 0 5970.23602826 0 -101.45658804 0 301.41227780 0 10882
0.10050000 0.10051200 16166.32500514 0 32.42404165 0 6734.47668103 0 -56.77760799 0 816.53600592 0 10875
0.10150000 0.10150300 16121.94733191 0 183.36766701 0 6023.61006643 0 118.62459622 0 336.44207976 0 11118
0.10250000 0.10250800 16075.15305272 0 57.20007465 0 5816.58382699 0 -148.11927206 0 -1.32060925 0 11575
0.10350000 0.10349800 16168.30222820 0 132.46186230 0 5786.09065350 0 901.91359631 0 -79.50095390 0 11364
0.10450000 0.10450100 16126.45100667 0 -251.79386500 0 5110.98980723 0 16.82495998 0 -768.29945234 0 12093
0.10550000 0.10551000 15755.94137350 0 465.44929399 0 5743.02014441 0 -310.52947305 0 -221.37428815 0 12067
0.10650000 0.10649700 15355.22416573 0 637.07005909 0 5561.24743734 0 -661.50524079 0 -117.08455914 0 12054
0.10750000 0.10749900 15346.76604485 0 -92.29095083 0 6988.51689112 0 251.59833960 0 -310.09338551 0 12807
0.10850000 0.10850100 14788.42022054 0 175.95417898 0 6268.37929726 0 -340.43277498 0 -1244.80471864 0 12736
0.10950000 0.10950300 14906.39453006 0 291.70740793 0 6376.50044518 0 45.17339567 0 -70.93463498 0 12933
0.11050000 0.11050200 14931.87873845 0 -91.16766844 0 6484.46780908 0 636.66802373 0 -99.92171371 0 13428
0.11150000 0.11150900 15043.81153305 0 -304.58352391 0 6072.05203151 0 673.83981734 0 -914.34593556 0 13453
0.11250000 0.11250000 15027.55436563 0 216.53778084 0 6019.89728090 0 -358.22558565 0 -754.76755738 0 13668
0.11350000 0.11349100 14988.44928724 0 605.22798009 0 6787.83973463 0 -597.97926064 0 -243.06552362 0 13791
0.11450000 0.11448600 14513.58621455 0 -174.87988778 0 6172.62677807 0 183.15676322 0 -565.48579649 0 14205
0.11550000 0.11549300 14600.03480077 0 -88.25884378 0 6330.06865688 0 945.39712533 0 -1279.47202970 0 14776
0.11650000 0.11649800 14408.79339213 0 15.49308055 0 5769.36114946 0 -137.06659513 0 -229.80165223 0 14553
0.11750000 0.11747300 14627.71592367 0 190.73062602 0 5698.91708550 0 413.75040314 0 -714.37838246 0 14568
0.11850000 0.11849100 14137.69414082 0 196.35582564 0 5744.87653718 0 88.20501937 0 -182.12311494 0 16015
0.11950000 0.11950300 13956.55853895 0 243.71690878 0 5058.20893597 0 608.94625791 0 -195.59679167 0 15270
0.12050000 0.12050700 14134.72830622 0 112.42050963 0 5788.14476858 0 112.88296013 0 -302.73591880 0 15999
0.12150000 0.12150000 13784.54013233 0 130.74277669 0 4676.05565587 0 329.38449188 0 483.15203116 0 15670
0.12250000 0.12250700 13684.80021329 0 -121.29933964 0 4873.02002683 0 606.24734842 0 -20.80313278 0 16887
0.12350000 0.12352200 13526.29283094 0 -41.50718472 0 4159.75877540 0 157.52206619 0 587.51096297 0 16407
0.12450000 0.12449800 13349.88059528 0 161.93786437 0 4151.93775972 0 229.28318040 0 665.49483755 0 16306
0.12550000 0.12549900 13209.49775769 0 250.22197266 0 4070.55306147 0 127.95379371 0 857.22615813 0 17523
0.12650000 0.12650100 13120.41287406 0 255.99546401 0 4064.85206830 0 -161.71158217 0 490.30848020 0 17154
0.12750000 0.12750600 12960.58734300 0 95.11651244 0 3760.57940780 0 202.73676385 0 471.69622042 0 18007
0.12850000 0.12850300 12720.68427782 0 27.30797697 0 3892.37230963 0 548.19717770 0 1035.31793494 0 17496
0.12950000 0.12949900 12754.51676138 0 99.07480317 0 3875.89545075 0 -224.27970759 0 -168.57803849 0 18405
0.13050000 0.13049000 12576.89622273 0 264.03067885 0 4217.53762718 0 -398.22920208 0 310.99302201 0 18100
0.13150000 0.13148800 12315.57324102 0 38.83375945 0 3880.69570897 0 -544.33390352 0 -946.54391471 0 19059
0.13250000 0.13249300 12160.03169327 0 34.81615203 0 3865.49306052 0 41.12140653 0 -689.81358279 0 18957
0.13350000 0.13349100 12126.96812980 0 197.76514630 0 4256.82944330 0 170.71893169 0 -1242.46500468 0 19468
0.13450000 0.13450700 12054.46995077 0 124.20036526 0 3713.68626745 0 300.47199839 0 -882.17102401 0 19953
0.13550000 0.13551000 12014.37626084 0 25.47069736 0 3603.97235650 0 615.75339753 0 -1350.13578512 0 19956
0.13650000 0.13649900 11829.28621285 0 -8.37973498 0 3556.23340406 0 84.02341228 0 -873.48771938 0 19723
0.13750000 0.13749600 11487.55615984 0 290.49251420 0 3289.80259610 0 77.76967542 0 -302.31520967 0 20946
0.13850000 0.13851100 11477.88973597 0 148.29172985 0 3486.55826018 0 80.58897582 0 168.87462195 0 20955
0.13950000 0.13949800 11349.58992822 0 -57.56300493 0 3535.15400928 0 265.88267779 0 -402.52746533 0 20506
0.14050000 0.14048300 11328.60939459 0 87.09250186 0 3142.66424638 0 165.03112000 0 -27.89213654 0 21447
0.14150000 0.14148400 11274.45545176 0 74.42300569 0 3405.57999111 0 -129.62784258 0 200.53106167 0 21771
0.14250000 0.14249400 11169.44293789 0 121.80023615 0 3105.64623678 0 98.04785548 0 28.73168743 0 22470
0.14350000 0.14350900 11294.44737386 0 203.66496023 0 3711.54427579 0 -128.50741617 0 -127.17608598 0 22519
0.14450000 0.14449900 10950.14693087 0 121.04779293 0 3372.91187225 0 -37.14158604 0 -117.23944162 0 22218
0.14550000 0.14550500 10601.00229138 0 103.57034934 0 3670.94529553 0 -100.99270954 0 -292.16656306 0 23559
0.14650000 0.14650700 10448.40460908 0 -10.33919599 0 3300.02923318 0 111.99650512 0 446.36250067 0 23044
0.14750000 0.14750500 10539.76329923 0 100.89351885 0 3389.42168484 0 497.67034074 0 -373.71273453 0 23649
0.14850000 0.14849900 10393.52568446 0 97.31463526 0 3160.79977571 0 140.94634616 0 26.41295400 0 23640
0.14950000 0.14949500 10359.35267916 0 149.35613493 0 2704.80819871 0 323.66921877 0 -219.87379553 0 24457
0.15050000 0.15050000 10247.51874571 0 56.80298235 0 3129.17519125 0 -328.00592802 0 -98.54611569 0 24591
0.15150000 0.15149900 9858.70881462 0 150.52159808 0 2712.93678242 0 -262.93441851 0 -1029.09956840 0 25020
0.15250000 0.15250500 9584.42403726 0 254.02593014 0 2842.59867717 0 36.74658081 0 -412.39820225 0 25297
0.15350000 0.15350100 9788.41853467 0 136.95674940 0 2894.95115010 0 -91.54246206 0 -991.27748809 0 25452
0.15450000 0.15450400 9340.79720198 0 80.53943540 0 2900.82789643 0 -26.13987753 0 -821.81519150 0 26061
0.15550000 0.15549900 9539.50811998 0 -121.44982829 0 2673.55708972 0 584.45944871 0 -790.46631981 0 26128
0.15650000 0.15649500 9483.75042955 0 -117.37674878 0 2306.23298260 0 438.98526173 0 -664.77095422 0 26331
0.15750000 0.15749700 9544.27542448 0 78.20609249 0 2030.71793311 0 394.38899550 0 -159.86617398 0 27345
0.15850000 0.15849900 9259.97271693 0 315.38355567 0 1979.57376317 0 25.55835425 0 153.54894629 0 26980
0.15950000 0.15949700 9107.81441753 0 194.07652682 0 2289.04212651 0 -180.76432331 0 510.79910189 0 27777
0.16050000 0.16050000 8915.03516873 0 83.07544367 0 2350.99511587 0 47.44884988 0 460.15033618 0 28224
0.16150000 0.16150500 8698.62810430 0 142.15245223 0 2315.43805442 0 177.83693472 0 737.04834335 0 28075
0.16250000 0.16249700 8589.35357626 0 -73.34651758 0 2120.42893738 0 193.70085444 0 946.28028496 0 28590
0.16350000 0.16349900 8647.47294979 0 149.68567211 0 2193.92671253 0 205.59604809 0 669.06042981 0 29163
0.16450000 0.16449100 8590.33120322 0 82.82290834 0 2002.95991820 0 -20.51676498 0 956.68926594 0 28996
0.16550000 0.16550500 8651.66905652 0 -7.05879619 0 2101.87599429 0 -16.13183345 0 607.13929572 0 30777
0.16650000 0.16650700 8408.18502068 0 32.73226876 0 2114.77188251 0 -19.28352701 0 607.48530975 0 29211
0.16750000 0.16749900 8480.39760083 0 75.57781381 0 2058.98123836 0 -147.48546222 0 208.14556739 0 30922
0.16850000 0.16850800 8279.10530828 0 184.12670098 0 2175.60444546 0 -356.71410846 0 338.38525065 0 30867
0.16950000 0.16949900 8271.27330803 0 76.29642454 0 2483.12853945 0 195.47815829 0 258.53180182 0 30852
0.17050000 0.17049200 8234.06856069 0 11.66111241 0 2240.58917685 0 31.38885553 0 6.89577414 0 31257
0.17150000 0.17149500 8185.09933612 0 160.15836361 0 2367.43902102 0 53.28055946 0 369.37163145 0 32608
0.17250000 0.17250900 7897.02892018 0 96.21925368 0 2371.30559057 0 -25.38534724 0 456.74292176 0 32361
0.17350000 0.17350400 7886.94508255 0 21.90576418 0 2287.88874639 0 226.61612618 0 541.89093458 0 32508
0.17450000 0.17449800 7961.34359264 0 44.65393523 0 2450.14186799 0 123.96419695 0 363.21697543 0 32791
0.17550000 0.17549800 7799.48591566 0 128.07572247 0 2214.37998667 0 -159.35429289 0 697.31165204 0 33633
0.17650000 0.17650100 7639.72629203 0 73.00039370 0 2325.62075320 0 72.25651844 0 397.92273250 0 33984
0.17750000 0.17750300 7778.06599912 0 4.21211125 0 2427.61250962 0 -52.16068229 0 468.79739171 0 34069
0.17850000 0.17849800 7721.70415721 0 79.60398919 0 2268.62180608 0 61.69803743 0 611.03662207 0 34536
