### header ###
fiducial parameters:
Omega_m = 0.31
Omega_nu = 0
Omega_de = 0.69
Omega_k = 0
H_0 = 100
w_de = -1
zeff = 0
beta = 0
fgrowth = 0
b_1 = 2
gamma = 0.55
Lx = 3500 Ly = 3500 Lz = 3500
nx = 700 ny = 700 nz = 700
xoffset = -983.599254 yoffset = -42.9823471 zoffset = 800.977702
bins = 400 dk = 0.001
kx_ny = 0.628318531 ky_ny = 0.628318531 kz_ny = 0.628318531
############################
A(data) = 9.09622574 (not used)
A(ran) = 9.09028526 (used)
Ngal = 504633
weighted Ngal = 0
Nran = 25229228
weighted Nran = 0
SN(data) = 6725.11752
SN(ran) = 134.939022
SN(data+ran) = 6860.05654
############################
13 columns: k_central k_mean P_0(k) sigma^{lin}_{P_0(k)} P^img_1(k) sigma^{lin}_{P_1(k)} P_2(k) sigma^{lin}_{P_2(k)} P^img_3(k) sigma^{lin}_{P_3(k)} P_4(k) sigma^{lin}_{P_4(k)} N_modes
### header ###
0.00050000 0 0 0 0 0 0 0 0 0 0 0 0
0.00150000 0.00179520 7443.20130398 0 -24829.85740005 0 -36687.59365588 0 36252.60458166 0 12343.36420966 0 3
0.00250000 0.00253879 18821.73558095 0 -23595.19144190 0 -30806.23380438 0 -1141.25315291 0 -5785.73914718 0 6
0.00350000 0.00331552 45555.65879225 0 -7636.61765799 0 -18769.99824410 0 -58946.40199754 0 -52551.18384068 0 7
0.00450000 0.00420575 60026.18548228 0 2968.75649327 0 -27119.59155463 0 -43665.21385100 0 20984.92745940 0 24
0.00550000 0.00557378 34775.83864382 0 -4009.10536245 0 -860.13926678 0 -19420.50463236 0 -8193.32678099 0 45
0.00650000 0.00659388 42260.83624648 0 2157.68860758 0 -3110.74307846 0 -12494.62177410 0 11240.84265967 0 40
0.00750000 0.00754703 62618.43476575 0 -2907.13304109 0 -18228.23912438 0 21253.82979619 0 -55068.62818487 0 57
0.00850000 0.00846663 61689.24977110 0 -6613.73425922 0 23218.96983099 0 -19591.97381036 0 14610.03076182 0 75
0.00950000 0.00948925 58459.12635783 0 2164.52101173 0 11139.89443764 0 2366.30761005 0 -5947.28925614 0 112
0.01050000 0.01054430 62165.32114677 0 -608.25972212 0 16391.50874306 0 9822.38283309 0 21166.72213562 0 105
0.01150000 0.01145670 69116.02913907 0 -4697.96987817 0 10039.45995644 0 2465.82783763 0 2482.89786342 0 144
0.01250000 0.01249090 68262.19831232 0 1138.32027203 0 24189.78635573 0 10862.30330394 0 15483.85351066 0 169
0.01350000 0.01339930 66142.17580412 0 123.54678319 0 20595.41451566 0 -6065.56014912 0 20932.31135673 0 180
0.01450000 0.01448870 70360.47136681 0 2784.27059677 0 17606.95169918 0 5942.10453788 0 3472.43209984 0 267
0.01550000 0.01550050 72979.19347020 0 -4256.30218382 0 16205.97931216 0 5214.60728039 0 31161.47488166 0 238
0.01650000 0.01653350 64050.27380173 0 1229.64600847 0 16543.31553613 0 11381.99441734 0 25229.36630483 0 315
0.01750000 0.01747870 71571.08111100 0 3641.12218097 0 19947.98380772 0 -691.42831496 0 3676.93188759 0 297
0.01850000 0.01844180 64655.74344242 0 7560.04420253 0 26327.71371724 0 -14822.69208699 0 12546.57880241 0 388
0.01950000 0.01947590 63803.56030155 0 -2401.57907260 0 18598.74875755 0 10215.19114860 0 11959.56324366 0 399
0.02050000 0.02045430 66417.44919301 0 -7333.04801014 0 23488.97062504 0 4550.28229981 0 2477.49345371 0 462
0.02150000 0.02154770 74302.83446625 0 226.45025914 0 14415.38413567 0 -5621.15729620 0 -11101.00905071 0 571
0.02250000 0.02255340 66574.52858092 0 6135.54286104 0 23860.46886974 0 -4974.53944662 0 4619.15556990 0 510
0.02350000 0.02348930 67661.34219212 0 157.90762469 0 24029.08205887 0 -2844.81756083 0 -8787.04292901 0 555
0.02450000 0.02439640 64622.46018749 0 1506.20459235 0 35584.08349436 0 4080.50508423 0 -9128.61919800 0 592
0.02550000 0.02547300 66855.07456465 0 2900.80592728 0 27679.58506482 0 -86.61467295 0 -10555.09776256 0 837
0.02650000 0.02652900 61011.61148855 0 478.69778698 0 29847.17077230 0 2679.07134515 0 -5409.51753627 0 723
0.02750000 0.02749970 58755.16058890 0 6333.33107493 0 31976.09078429 0 -4159.46219194 0 -10931.37429633 0 826
0.02850000 0.02848090 54481.28308895 0 -278.48637637 0 31275.71443650 0 8760.84472340 0 7033.77333016 0 831
0.02950000 0.02946900 55156.94414842 0 -3650.01968476 0 22419.84217570 0 15210.99672774 0 1625.66181918 0 996
0.03050000 0.03053250 58114.86985313 0 -1477.27122817 0 14673.85112851 0 6592.34729640 0 6541.02737330 0 1041
0.03150000 0.03150510 56937.10398096 0 2198.90272391 0 17383.96487578 0 2364.73681617 0 10389.58222290 0 1036
0.03250000 0.03246190 56710.71194006 0 214.96918387 0 10630.44094589 0 -330.99263331 0 8254.73054172 0 1059
0.03350000 0.03345080 58780.20541438 0 -591.26768679 0 14638.26111335 0 1048.60926776 0 6125.18440909 0 1302
0.03450000 0.03451200 55128.05472254 0 2298.22522919 0 12427.72572708 0 -7970.55964904 0 2210.31569482 0 1339
0.03550000 0.03553350 53093.82172620 0 3586.17734892 0 22944.13582501 0 -4321.42971465 0 94.15744941 0 1365
0.03650000 0.03647120 49728.25853300 0 2084.34461646 0 23931.86859152 0 -3974.52592796 0 -3448.07930243 0 1308
0.03750000 0.03744890 49864.13769583 0 1001.44480847 0 28409.29022140 0 -1127.91788180 0 -4752.13480557 0 1579
0.03850000 0.03847530 49172.43916038 0 -159.97601970 0 25452.46297396 0 3927.63278761 0 -3969.22037941 0 1662
0.03950000 0.03950240 49954.43088245 0 -1224.91165769 0 24763.40073593 0 9673.41005974 0 1294.78452388 0 1683
0.04050000 0.04050350 49214.40022764 0 149.03209004 0 20281.36558556 0 2416.40824559 0 560.14290038 0 1822
0.04150000 0.04152450 48403.84861687 0 2217.11514525 0 16783.98752139 0 2525.85852679 0 4264.54061325 0 1887
0.04250000 0.04250150 46050.62363277 0 1648.66351416 0 19015.61328701 0 552.75028304 0 6245.44350971 0 1920
0.04350000 0.04349210 45713.17756307 0 949.15275069 0 19366.79007244 0 -2559.77888692 0 4888.50827417 0 2005
0.04450000 0.04448520 43091.05024217 0 934.89807086 0 18253.94302422 0 1809.88408594 0 244.31996181 0 2151
0.04550000 0.04548030 40157.62013433 0 1869.38751561 0 17509.73823184 0 -206.18482118 0 3685.56576164 0 2274
0.04650000 0.04648670 39002.48248167 0 -222.84512241 0 18990.45861580 0 2249.82720239 0 3255.50876051 0 2311
0.04750000 0.04749250 40413.67052120 0 206.44625401 0 18227.68989576 0 3665.56285497 0 1322.01527931 0 2568
0.04850000 0.04851840 40094.78837916 0 831.44756320 0 14595.20158883 0 -545.91018969 0 181.01367311 0 2493
0.04950000 0.04949480 38751.92438109 0 -110.74206694 0 14943.41253966 0 -611.35517467 0 825.02927744 0 2644
0.05050000 0.05050630 37842.18207990 0 1294.14741867 0 14563.12663689 0 -714.48493281 0 -3633.81744021 0 2829
0.05150000 0.05149060 35685.91048219 0 2159.95142953 0 16244.64500765 0 126.81798891 0 -266.97344585 0 2784
0.05250000 0.05249300 34664.23538640 0 268.16966580 0 16972.04340398 0 -247.18473834 0 -1113.97845919 0 3055
0.05350000 0.05348950 34953.45918246 0 -284.68057685 0 14534.67659391 0 3896.56841635 0 -1574.02334347 0 3009
0.05450000 0.05448610 35351.32040136 0 -544.24712540 0 13558.25793715 0 1500.82215179 0 -170.16530923 0 3336
0.05550000 0.05550870 34296.36205065 0 -2173.31965436 0 8869.80069884 0 3846.23710478 0 887.72043008 0 3349
0.05650000 0.05647670 36513.81771764 0 979.87330483 0 8294.12121899 0 3935.59660273 0 1666.35966059 0 3324
0.05750000 0.05747970 36300.71700956 0 1290.13804968 0 6452.42581086 0 -778.67218423 0 3839.84408354 0 3639
0.05850000 0.05849280 35080.77037868 0 644.97016369 0 8479.70557276 0 -1888.56657934 0 3574.57764028 0 3846
0.05950000 0.05951020 34293.72575323 0 148.28953293 0 8174.78482247 0 -392.40518170 0 315.99539636 0 3787
0.06050000 0.06049470 33351.13958002 0 598.02759276 0 9385.08699863 0 -2006.03559852 0 1334.97707496 0 3930
0.06150000 0.06148310 32851.34152757 0 572.18199193 0 10801.34991069 0 1038.06297962 0 536.71280707 0 4083
0.06250000 0.06249100 33176.70456743 0 -317.72876192 0 9676.02438802 0 312.92081450 0 -1147.48140556 0 4303
0.06350000 0.06350600 32503.78965110 0 351.33935710 0 10042.79926651 0 982.49312539 0 -2376.36947853 0 4470
0.06450000 0.06451750 33052.35920581 0 466.06443005 0 9865.64007992 0 344.87383768 0 1561.94031363 0 4479
0.06550000 0.06550280 32871.66298685 0 -217.80430206 0 9989.55704321 0 -7.16407233 0 1067.13914325 0 4636
0.06650000 0.06648880 30638.71907251 0 791.03641913 0 10060.62722781 0 -958.81038691 0 -1344.62152968 0 4653
0.06750000 0.06749660 30560.61876146 0 1057.44196257 0 10258.72300974 0 1123.72177507 0 113.14109759 0 5220
0.06850000 0.06852730 30794.15077454 0 -260.03998363 0 8748.10261921 0 1825.46020986 0 -710.26575848 0 5029
0.06950000 0.06949320 30685.62319743 0 -82.96285180 0 8957.75417150 0 253.18780726 0 -693.50330072 0 5040
0.07050000 0.07048030 29222.91751250 0 957.38129401 0 8550.70984992 0 -1461.42048994 0 -1287.47978311 0 5475
0.07150000 0.07148790 28051.30300098 0 832.30655677 0 8454.37514838 0 -592.07724979 0 -548.72553564 0 5509
0.07250000 0.07249820 27853.58069451 0 457.16802472 0 9155.22383279 0 1008.65178654 0 -4395.68542530 0 5916
0.07350000 0.07351270 27225.37298858 0 225.78459404 0 8385.58975488 0 -427.85459433 0 -1963.82188609 0 5721
0.07450000 0.07449140 26792.80052033 0 2.74624201 0 8051.01065862 0 1400.96140245 0 -1743.82286643 0 6028
0.07550000 0.07549160 26466.66856039 0 -76.26478898 0 7219.54442165 0 482.16232117 0 -2043.63579047 0 6183
0.07650000 0.07648840 26343.53150175 0 743.32492812 0 7898.24820774 0 -126.09190866 0 -1622.49826227 0 6330
0.07750000 0.07749960 25374.80204581 0 1301.95744978 0 8063.55504051 0 -1881.65728318 0 -2155.37086277 0 6583
0.07850000 0.07848650 25095.57421079 0 737.96335825 0 10472.68051448 0 425.64230141 0 -481.35275817 0 6549
0.07950000 0.07947320 24190.66512154 0 -354.94888765 0 10095.98656695 0 776.01391767 0 -86.22307294 0 6828
0.08050000 0.08048110 23944.28115854 0 -42.87663139 0 9962.65582496 0 620.05495616 0 -339.74514074 0 7147
0.08150000 0.08149960 24034.13496225 0 247.41541436 0 8970.06787736 0 576.76914944 0 61.38662480 0 7386
0.08250000 0.08250610 23627.59593102 0 226.13939573 0 9188.13361225 0 816.87982304 0 1787.09109783 0 7227
0.08350000 0.08350160 23991.07543773 0 93.31669022 0 8756.52778638 0 821.82617607 0 484.56904102 0 7798
0.08450000 0.08449610 23263.67704140 0 156.37527681 0 8582.91661673 0 615.61059809 0 1040.41257970 0 7371
0.08550000 0.08548940 23121.86620937 0 486.91534573 0 7933.11324111 0 -277.66033651 0 1189.26671966 0 8256
0.08650000 0.08650700 21900.49158405 0 313.16686892 0 7841.78750467 0 237.02400870 0 1066.97327620 0 8037
0.08750000 0.08749060 21706.06464936 0 673.70141173 0 7657.14782415 0 842.20145976 0 1734.51893346 0 8155
0.08850000 0.08849210 21336.65347345 0 474.81474057 0 7269.53521147 0 9.56531088 0 549.13965403 0 8718
0.08950000 0.08949900 20484.47033259 0 106.93942760 0 7119.78253347 0 239.00782251 0 794.41307674 0 8571
0.09050000 0.09049190 20123.40743184 0 400.34812613 0 6729.40180850 0 1070.22361123 0 487.22071685 0 8932
0.09150000 0.09150830 20217.21568169 0 -100.76752580 0 6353.64154964 0 393.55856182 0 1697.05055638 0 9285
0.09250000 0.09250820 19469.27613462 0 180.22058697 0 6593.13818563 0 -115.16116049 0 200.56291693 0 9204
0.09350000 0.09350330 19463.45431116 0 495.49978920 0 5913.51169545 0 -26.77676304 0 659.95971143 0 9349
0.09450000 0.09448040 19474.21919229 0 281.02930492 0 7103.93179523 0 -1273.74906739 0 -208.45752925 0 9564
0.09550000 0.09549270 18671.13709086 0 468.46346071 0 6900.91492479 0 -215.58212302 0 -666.11107208 0 10155
0.09650000 0.09649430 18139.04439502 0 628.80197130 0 8306.61067802 0 -196.71831653 0 -266.60875804 0 9913
0.09750000 0.09749140 17926.71260703 0 243.35331942 0 8420.92712487 0 -438.69307210 0 -129.68276544 0 10476
0.09850000 0.09850240 17280.49020207 0 308.93561156 0 8813.97710098 0 515.15338646 0 -738.75205056 0 10575
0.09950000 0.09950330 17024.11027802 0 195.75057569 0 8389.20367926 0 37.86942382 0 -542.85098623 0 10882
0.10050000 0.10051200 16528.04698024 0 30.19889679 0 8695.84900744 0 673.30157329 0 703.59812292 0 10875
0.10150000 0.10150300 16593.40518710 0 112.69073011 0 7594.33803813 0 991.28627574 0 498.79406252 0 11118
0.10250000 0.10250800 16878.45484559 0 9.73620886 0 7361.01473193 0 884.38990767 0 697.46433760 0 11575
0.10350000 0.10349800 16519.25932218 0 32.47654791 0 6504.58056148 0 450.60913643 0 1375.45522492 0 11364
0.10450000 0.10450100 16697.97831808 0 24.62686250 0 6005.39764509 0 893.11495367 0 1077.31634974 0 12093
0.10550000 0.10551000 16204.22178055 0 38.76631417 0 5987.83331353 0 -96.70367333 0 719.01826591 0 12067
0.10650000 0.10649700 16313.40843200 0 52.85314974 0 5722.66573142 0 -177.85890387 0 806.19293238 0 12054
0.10750000 0.10749900 15399.05261033 0 638.29483893 0 5627.80296261 0 -84.98478207 0 1592.49939455 0 12807
0.10850000 0.10850100 15588.97587026 0 338.21279287 0 6198.07803274 0 -28.18070127 0 606.99210244 0 12736
0.10950000 0.10950300 15397.40492445 0 240.34354654 0 6429.56691532 0 269.39444564 0 858.77278595 0 12933
0.11050000 0.11050200 15070.06466152 0 -182.70419883 0 6206.88765995 0 567.26529725 0 1021.02590755 0 13428
0.11150000 0.11150900 14901.23178095 0 -52.82008618 0 5408.73763162 0 592.63856145 0 841.40837362 0 13453
0.11250000 0.11250000 14853.44889022 0 77.19847764 0 5976.07982087 0 -38.70018704 0 2120.84635114 0 13668
0.11350000 0.11349100 14402.20264858 0 488.05883973 0 5068.34769647 0 -30.96463134 0 1328.60602286 0 13791
0.11450000 0.11448600 14501.28349326 0 173.56613290 0 5843.00172405 0 258.78005316 0 1482.64268417 0 14205
0.11550000 0.11549300 13862.09121475 0 311.68285317 0 5426.98300668 0 184.56718234 0 1451.19385287 0 14776
0.11650000 0.11649800 14131.21324299 0 275.68421190 0 5649.64029290 0 29.49050170 0 1463.99087992 0 14553
0.11750000 0.11747300 13667.55443434 0 -247.81744972 0 5345.77406158 0 57.97591501 0 1029.32914597 0 14568
0.11850000 0.11849100 13627.02136151 0 261.32078480 0 5632.52632882 0 -78.70281486 0 307.53178319 0 16015
0.11950000 0.11950300 13204.22516286 0 264.58869514 0 5162.86994353 0 -277.08144954 0 913.66928588 0 15270
0.12050000 0.12050700 13337.46802827 0 -195.96367639 0 5341.98438404 0 512.01948791 0 1240.45482789 0 15999
0.12150000 0.12150000 13491.03235295 0 -103.77609039 0 4867.56069425 0 768.27638474 0 317.36517256 0 15670
0.12250000 0.12250700 13536.28879199 0 92.62169631 0 4558.57565211 0 295.06429331 0 388.50895380 0 16887
0.12350000 0.12352200 13537.05771207 0 184.25412202 0 4144.38037379 0 189.24111797 0 1227.39417109 0 16407
0.12450000 0.12449800 13287.48822302 0 -174.90185693 0 3970.89003444 0 68.31042059 0 1253.07610179 0 16306
0.12550000 0.12549900 13169.62375922 0 -116.09375070 0 3855.48611490 0 802.25056928 0 1293.23569915 0 17523
0.12650000 0.12650100 13367.67560287 0 334.43959218 0 3646.79022043 0 -12.37609824 0 605.66187070 0 17154
0.12750000 0.12750600 13019.68434349 0 456.61659918 0 4155.78236013 0 -863.17210727 0 1038.39471372 0 18007
0.12850000 0.12850300 12515.27277055 0 321.02083832 0 4559.58623279 0 -446.65029647 0 1358.39618370 0 17496
0.12950000 0.12949900 12314.47478377 0 -24.24163354 0 4298.08749792 0 366.90449645 0 758.76484334 0 18405
0.13050000 0.13049000 12443.10412869 0 -70.70780355 0 4818.11913306 0 419.08231467 0 1067.44231745 0 18100
0.13150000 0.13148800 12442.88443724 0 196.98194627 0 4774.56530278 0 4.66440102 0 382.56300466 0 19059
0.13250000 0.13249300 12226.48835739 0 141.78337059 0 4311.85116736 0 -274.08156276 0 755.08830690 0 18957
0.13350000 0.13349100 12128.83550714 0 -40.98146308 0 4822.28228607 0 118.53012890 0 749.55977152 0 19468
0.13450000 0.13450700 12024.15253044 0 26.88583985 0 4225.04009025 0 395.47756665 0 1146.36097916 0 19953
0.13550000 0.13551000 11939.24178439 0 -115.63349711 0 4535.37623482 0 311.07980013 0 981.00251889 0 19956
0.13650000 0.13649900 12242.96521626 0 287.26195140 0 3813.90950768 0 385.64747264 0 1071.40445278 0 19723
0.13750000 0.13749600 12004.05076262 0 139.77978455 0 4276.94219570 0 -35.07330087 0 1537.15911789 0 20946
0.13850000 0.13851100 11842.35785422 0 21.92048351 0 3916.17587841 0 90.31208008 0 1288.84187011 0 20955
0.13950000 0.13949800 11674.73327663 0 38.27014103 0 4252.96287375 0 238.10928447 0 1114.06633577 0 20506
0.14050000 0.14048300 11329.26846895 0 206.41989103 0 3811.15237996 0 -82.78643956 0 1723.24876199 0 21447
0.14150000 0.14148400 11535.66858775 0 163.89751211 0 3766.03874037 0 482.04478625 0 1216.17892249 0 21771
0.14250000 0.14249400 11277.20159491 0 102.29141556 0 3423.10038438 0 128.31848152 0 1837.21370252 0 22470
0.14350000 0.14350900 11000.28052013 0 212.49326121 0 3805.98963085 0 5.60303275 0 1062.40149709 0 22519
0.14450000 0.14449900 10741.79155815 0 184.00367377 0 3225.02657159 0 268.65738082 0 1812.08100045 0 22218
0.14550000 0.14550500 10731.25735304 0 -23.46106981 0 3133.86560374 0 249.68372860 0 923.77289574 0 23559
0.14650000 0.14650700 10685.83614542 0 -19.69852416 0 3175.78273271 0 -250.47571629 0 961.47194884 0 23044
0.14750000 0.14750500 10142.15472551 0 383.43078590 0 3214.96470311 0 -381.26462818 0 408.19001249 0 23649
0.14850000 0.14849900 10178.07427785 0 116.60563178 0 3338.26653033 0 -163.71846358 0 541.33621367 0 23640
0.14950000 0.14949500 10029.55187198 0 59.65578569 0 3475.50778016 0 110.29499483 0 -100.29848455 0 24457
0.15050000 0.15050000 9890.04780019 0 88.07375373 0 3485.97607783 0 -264.32726231 0 -180.27441138 0 24591
0.15150000 0.15149900 9637.69921428 0 248.69511707 0 3588.24244857 0 -81.63086253 0 -17.70855900 0 25020
0.15250000 0.15250500 9837.39874381 0 30.03006391 0 3538.42741191 0 372.88120239 0 -532.85063135 0 25297
0.15350000 0.15350100 9570.52855295 0 58.53316238 0 3506.17670681 0 -90.67105592 0 -179.08368371 0 25452
0.15450000 0.15450400 9516.46248670 0 98.65200697 0 3508.56035906 0 193.82058628 0 -273.11492038 0 26061
0.15550000 0.15549900 9533.59841993 0 -65.27944747 0 3131.04256859 0 427.16146780 0 -2.86404056 0 26128
0.15650000 0.15649500 9614.74145759 0 17.19085609 0 3176.43082249 0 -67.50689910 0 -87.33888582 0 26331
0.15750000 0.15749700 9262.98248981 0 164.69389363 0 2679.69746579 0 -26.86573808 0 -58.13233532 0 27345
0.15850000 0.15849900 9154.60869673 0 167.83657984 0 3055.01834175 0 271.88904208 0 3.51567836 0 26980
0.15950000 0.15949700 9137.19814919 0 145.36543971 0 2940.78977148 0 231.48448875 0 154.47714267 0 27777
0.16050000 0.16050000 8909.63075902 0 23.96449277 0 2958.48591791 0 45.53094350 0 416.77006214 0 28224
0.16150000 0.16150500 8855.70749222 0 173.26954944 0 2555.39604246 0 25.33415913 0 332.46676295 0 28075
0.16250000 0.16249700 8770.96151475 0 -35.75291637 0 2671.04162260 0 108.39697054 0 519.94046319 0 28590
0.16350000 0.16349900 8652.00957827 0 33.21855579 0 2470.06788265 0 317.88254593 0 -79.44317505 0 29163
0.16450000 0.16449100 8414.11668987 0 186.54111003 0 2684.11326397 0 -169.57324077 0 575.95738953 0 28996
0.16550000 0.16550500 8350.40616890 0 152.01110612 0 2350.58868668 0 249.16855215 0 739.23647021 0 30777
0.16650000 0.16650700 8644.11167058 0 -105.46672595 0 2516.40080980 0 125.23181663 0 410.81202997 0 29211
0.16750000 0.16749900 8306.22621798 0 -7.38466452 0 2046.22814960 0 336.28939421 0 314.56190964 0 30922
0.16850000 0.16850800 8230.70728148 0 159.29827157 0 2202.35187970 0 -215.34705317 0 377.12673969 0 30867
0.16950000 0.16949900 8174.09279440 0 200.39595143 0 2306.67236550 0 -148.45979381 0 609.05610363 0 30852
0.17050000 0.17049200 8074.93505771 0 127.47157098 0 2357.39912168 0 64.85753004 0 497.38254494 0 31257
0.17150000 0.17149500 7933.71739260 0 -53.17071373 0 2289.23984881 0 162.16414656 0 697.35998416 0 32608
0.17250000 0.17250900 8147.24649901 0 -159.41251113 0 2194.71760175 0 576.64062994 0 755.54636358 0 32361
0.17350000 0.17350400 8159.84580376 0 -39.89201317 0 1769.65858114 0 46.12103474 0 995.38132440 0 32508
0.17450000 0.17449800 8270.20780449 0 98.40100949 0 1719.71172962 0 164.45662686 0 1063.58014173 0 32791
0.17550000 0.17549800 8082.78902710 0 48.98009929 0 1845.72674627 0 -171.28573563 0 988.45225602 0 33633
0.17650000 0.17650100 8000.69033163 0 219.50141852 0 1996.68772726 0 -257.03021075 0 698.58696091 0 33984
0.17750000 0.17750300 7999.89944240 0 147.74359968 0 2151.22967890 0 -139.05370431 0 738.09077929 0 34069
0.17850000 0.17849800 7818.71990225 0 -45.90661589 0 2328.13622033 0 -76.84367595 0 586.30925073 0 34536
