### header ###
fiducial parameters:
Omega_m = 0.31
Omega_nu = 0
Omega_de = 0.69
Omega_k = 0
H_0 = 100
w_de = -1
zeff = 0
beta = 0
fgrowth = 0
b_1 = 2
gamma = 0.55
Lx = 3500 Ly = 3500 Lz = 3500
nx = 700 ny = 700 nz = 700
xoffset = -983.599254 yoffset = -42.9823471 zoffset = 800.977702
bins = 400 dk = 0.001
kx_ny = 0.628318531 ky_ny = 0.628318531 kz_ny = 0.628318531
############################
A(data) = 9.0874681 (not used)
A(ran) = 9.10159491 (used)
Ngal = 505192
weighted Ngal = 0
Nran = 25229228
weighted Nran = 0
SN(data) = 6716.83247
SN(ran) = 135.106906
SN(data+ran) = 6851.93937
############################
13 columns: k_central k_mean P_0(k) sigma^{lin}_{P_0(k)} P^img_1(k) sigma^{lin}_{P_1(k)} P_2(k) sigma^{lin}_{P_2(k)} P^img_3(k) sigma^{lin}_{P_3(k)} P_4(k) sigma^{lin}_{P_4(k)} N_modes
### header ###
0.00050000 0 0 0 0 0 0 0 0 0 0 0 0
0.00150000 0.00179520 31931.82295679 0 -19287.48145840 0 -28937.20877966 0 -3465.84135629 0 10438.61735491 0 3
0.00250000 0.00253879 38675.36191020 0 -15401.35937058 0 -40140.70389255 0 61734.28651868 0 52678.27534544 0 6
0.00350000 0.00331552 40555.81089040 0 -14236.66513978 0 15381.69698565 0 -37379.73157423 0 -5529.60088373 0 7
0.00450000 0.00420575 75263.21564704 0 -28944.34875184 0 -36569.39965490 0 -2042.30665719 0 -14176.90906493 0 24
0.00550000 0.00557378 107689.89359862 0 -2085.15747483 0 -11420.11088419 0 -49037.87814626 0 -29769.83938133 0 45
0.00650000 0.00659388 70891.90498830 0 18985.18602096 0 -44357.13207790 0 -44165.78082353 0 21541.51575209 0 40
0.00750000 0.00754703 99101.16614299 0 3672.53805856 0 35380.86890160 0 -31765.29683645 0 -15121.36261548 0 57
0.00850000 0.00846663 68861.95597526 0 -1938.11798625 0 39059.71210482 0 -395.05795597 0 2347.12854632 0 75
0.00950000 0.00948925 85941.42849909 0 12292.28594715 0 53352.94779339 0 10545.95859817 0 -17636.50019943 0 112
0.01050000 0.01054430 97738.20037710 0 -17136.15291835 0 50276.93793344 0 19580.11047197 0 -21130.69273755 0 105
0.01150000 0.01145670 117831.51008007 0 -19188.40061372 0 41387.45288053 0 10492.54062171 0 -19130.07253331 0 144
0.01250000 0.01249090 100636.04046978 0 3315.58338795 0 26822.56871203 0 -4551.74324797 0 30908.28048366 0 169
0.01350000 0.01339930 119189.20325112 0 7107.01846013 0 50503.98904869 0 11328.71924032 0 17496.11736184 0 180
0.01450000 0.01448870 119743.92416648 0 11242.60019128 0 62088.53898443 0 2276.71743607 0 -21011.07074214 0 267
0.01550000 0.01550050 105825.48209439 0 11854.99011269 0 76180.42745758 0 -13598.35162707 0 51216.77796350 0 238
0.01650000 0.01653350 87571.75876161 0 -794.58443607 0 77904.12658705 0 17888.70598589 0 27893.45469298 0 315
0.01750000 0.01747870 93052.84078825 0 -606.42200313 0 59848.67478937 0 28251.55175913 0 50385.13597336 0 297
0.01850000 0.01844180 89656.52079183 0 -34.54230663 0 42152.96774373 0 34019.22128442 0 12974.09836728 0 388
0.01950000 0.01947590 97719.41675798 0 4449.43293894 0 52483.51887358 0 -440.30450889 0 41020.34846486 0 399
0.02050000 0.02045430 83766.92251089 0 5704.79383183 0 43675.86888640 0 -10280.98873836 0 25229.80568773 0 462
0.02150000 0.02154770 79858.17220354 0 3679.32652441 0 54110.77345578 0 -5499.29444798 0 13229.92906270 0 571
0.02250000 0.02255340 76905.51909368 0 3487.34914941 0 50507.50411192 0 10607.60401950 0 5666.27093579 0 510
0.02350000 0.02348930 74386.20737215 0 4751.22308604 0 48704.27667697 0 -10243.19082411 0 -6448.15281213 0 555
0.02450000 0.02439640 64338.61883199 0 2430.33668362 0 49082.25581949 0 2703.85254090 0 -223.13841050 0 592
0.02550000 0.02547300 66740.72516408 0 -562.92968645 0 47624.71288367 0 16122.49656054 0 -9400.26767794 0 837
0.02650000 0.02652900 63610.23182412 0 2283.39605620 0 34720.69608946 0 2043.51496017 0 -223.79968177 0 723
0.02750000 0.02749970 61027.09973589 0 1753.21467599 0 37493.75143762 0 12776.48590654 0 -1936.38242378 0 826
0.02850000 0.02848090 61569.73762141 0 1320.43350086 0 26808.06907622 0 4804.03691101 0 6027.72928115 0 831
0.02950000 0.02946900 61256.67730284 0 -867.78672621 0 27932.12038847 0 6122.36137394 0 864.40677323 0 996
0.03050000 0.03053250 54895.18178381 0 2102.38128463 0 21522.07305863 0 -2528.38497848 0 2893.55610938 0 1041
0.03150000 0.03150510 56455.76001044 0 4443.89671436 0 21043.80476843 0 -1939.38121210 0 -1700.48872760 0 1036
0.03250000 0.03246190 52887.42160739 0 -605.73766425 0 22521.77900925 0 -2566.67719850 0 -4881.59897801 0 1059
0.03350000 0.03345080 54397.14126297 0 -1806.57772959 0 23039.92129792 0 7367.08920056 0 -1660.12042336 0 1302
0.03450000 0.03451200 53502.88720913 0 252.86815619 0 18896.97990314 0 519.68452265 0 -12394.00308926 0 1339
0.03550000 0.03553350 54301.24594434 0 2754.91981883 0 18799.32705289 0 -1945.19205099 0 -6011.54900574 0 1365
0.03650000 0.03647120 52363.45749526 0 1449.33746010 0 19299.56448824 0 162.12789747 0 -6271.40005472 0 1308
0.03750000 0.03744890 51016.96858824 0 -38.05550248 0 20051.23878998 0 -505.10250255 0 -6059.24401989 0 1579
0.03850000 0.03847530 46145.42049414 0 1096.52726873 0 20672.52621518 0 -523.00515894 0 -4900.95379490 0 1662
0.03950000 0.03950240 47651.29554932 0 2137.00465741 0 24857.86806013 0 1608.30619450 0 -6227.42881068 0 1683
0.04050000 0.04050350 46691.79313434 0 1610.16258726 0 18641.69843635 0 967.55740205 0 -3818.61090474 0 1822
0.04150000 0.04152450 44457.97045420 0 864.64733537 0 22377.55157126 0 1899.71592051 0 -7229.16690723 0 1887
0.04250000 0.04250150 44560.01713348 0 175.17427433 0 19890.31480167 0 3483.76817875 0 -929.12677642 0 1920
0.04350000 0.04349210 43267.46247783 0 -1376.87223478 0 16983.68705092 0 4092.73091351 0 -379.05892601 0 2005
0.04450000 0.04448520 43073.03554314 0 245.84132511 0 13381.95554722 0 956.87820059 0 -1489.39819630 0 2151
0.04550000 0.04548030 43652.25205535 0 1063.70756277 0 12634.67507451 0 1830.57902068 0 -801.83864781 0 2274
0.04650000 0.04648670 41405.46757957 0 475.86157034 0 12970.25376687 0 1574.57257210 0 3564.59266380 0 2311
0.04750000 0.04749250 40383.57279232 0 1162.13482539 0 13830.12610854 0 -25.60196301 0 1592.79597801 0 2568
0.04850000 0.04851840 40718.16287315 0 2278.34315281 0 13523.21715062 0 -1335.72402589 0 -1579.51562976 0 2493
0.04950000 0.04949480 37216.28113422 0 1423.56765282 0 16284.18946894 0 -1500.74525978 0 -935.32756764 0 2644
0.05050000 0.05050630 34591.95689881 0 1286.52412530 0 17511.49576345 0 -220.13522836 0 75.77026352 0 2829
0.05150000 0.05149060 34903.58922294 0 268.34651742 0 18817.34175192 0 43.80460808 0 3279.83958877 0 2784
0.05250000 0.05249300 34331.73237436 0 711.10168445 0 18018.98301671 0 2739.61830922 0 -686.78293922 0 3055
0.05350000 0.05348950 34753.97934439 0 229.75661548 0 17804.34446847 0 -1671.90686974 0 958.31608114 0 3009
0.05450000 0.05448610 34537.25372736 0 130.88557614 0 17135.16430681 0 2634.74859479 0 1122.75513268 0 3336
0.05550000 0.05550870 34283.18056355 0 -2176.19761238 0 14760.84894336 0 3571.18340735 0 -1276.37438023 0 3349
0.05650000 0.05647670 36080.91571221 0 -257.69917122 0 14268.84993744 0 3130.95469201 0 493.47643093 0 3324
0.05750000 0.05747970 35142.06429368 0 958.56762785 0 12182.98944997 0 -495.42619256 0 2736.54262890 0 3639
0.05850000 0.05849280 33365.08998720 0 1724.01768207 0 12828.66262630 0 -1670.25918386 0 1467.62677345 0 3846
0.05950000 0.05951020 33456.26193963 0 673.11373710 0 14203.71142203 0 -1384.11106811 0 -784.14359983 0 3787
0.06050000 0.06049470 31527.59068579 0 480.15653822 0 15010.30858668 0 1637.47023470 0 282.33976443 0 3930
0.06150000 0.06148310 31286.47931763 0 338.71808320 0 12033.15987996 0 2197.06830028 0 289.86309819 0 4083
0.06250000 0.06249100 30868.18679374 0 -269.56470652 0 12141.13822843 0 2069.71316578 0 2727.86481656 0 4303
0.06350000 0.06350600 30962.10488931 0 55.31116755 0 11076.07407095 0 1768.07680269 0 1694.23850580 0 4470
0.06450000 0.06451750 31151.14938343 0 1.56820152 0 9247.54916534 0 590.31093052 0 3315.33074278 0 4479
0.06550000 0.06550280 30456.15547621 0 196.27453980 0 8902.32601825 0 -4.20720114 0 1499.39415735 0 4636
0.06650000 0.06648880 30124.86076716 0 726.77117724 0 9819.96622712 0 61.11991937 0 4441.66684613 0 4653
0.06750000 0.06749660 30168.24982885 0 501.80273695 0 10182.43515316 0 82.51753723 0 1564.92811737 0 5220
0.06850000 0.06852730 29994.69358207 0 -229.81922755 0 10094.15214333 0 -540.73975138 0 988.05022066 0 5029
0.06950000 0.06949320 28979.93876700 0 387.00736273 0 9277.11963473 0 656.87634191 0 -10.24089505 0 5040
0.07050000 0.07048030 29541.79965454 0 -504.50494180 0 7934.56320469 0 1133.10260006 0 274.88892885 0 5475
0.07150000 0.07148790 29045.18712814 0 281.84216329 0 7514.23853486 0 635.07196533 0 -11.72493277 0 5509
0.07250000 0.07249820 28021.64465501 0 1231.99670701 0 8009.62078914 0 -76.36156306 0 253.89960756 0 5916
0.07350000 0.07351270 26442.61234644 0 1039.17132300 0 8754.27594900 0 -1155.51112812 0 566.56228460 0 5721
0.07450000 0.07449140 26856.29134985 0 157.87576943 0 8032.13916293 0 1495.40675751 0 -892.92052674 0 6028
0.07550000 0.07549160 26475.78575563 0 134.97623097 0 8223.24875670 0 9.19863486 0 -940.14540118 0 6183
0.07650000 0.07648840 25568.02067751 0 518.46413664 0 8259.82738340 0 -443.81517829 0 259.38969694 0 6330
0.07750000 0.07749960 25026.26155780 0 107.57971834 0 9137.71442410 0 90.33328031 0 324.96539833 0 6583
0.07850000 0.07848650 24888.62486336 0 280.37242748 0 8293.42919092 0 -303.97058476 0 1135.13474598 0 6549
0.07950000 0.07947320 24318.08616348 0 153.36879930 0 8710.54636555 0 1645.43404982 0 -58.31336108 0 6828
0.08050000 0.08048110 24889.72332061 0 436.50274832 0 8570.20746625 0 690.41773428 0 2327.69683742 0 7147
0.08150000 0.08149960 24354.99432735 0 753.80860419 0 9186.24426576 0 -727.76308415 0 1857.75485325 0 7386
0.08250000 0.08250610 23022.78536469 0 362.33271734 0 9909.55640110 0 102.51165624 0 3556.33226522 0 7227
0.08350000 0.08350160 22827.58950992 0 365.48528967 0 10206.65613571 0 1016.67381989 0 2964.60432483 0 7798
0.08450000 0.08449610 22177.96188746 0 233.45072724 0 8872.46994998 0 -5.72408274 0 3555.01411651 0 7371
0.08550000 0.08548940 21378.39484926 0 407.74513730 0 9825.21685282 0 147.56784652 0 3022.29530003 0 8256
0.08650000 0.08650700 21135.63579521 0 576.54176879 0 9643.92746694 0 154.34422934 0 1140.74786257 0 8037
0.08750000 0.08749060 20240.39312983 0 860.58743734 0 9660.50318696 0 -1161.54165847 0 2103.84223279 0 8155
0.08850000 0.08849210 19890.86403030 0 156.64330038 0 9590.54244419 0 505.87801337 0 -183.64777362 0 8718
0.08950000 0.08949900 19190.26799106 0 28.62239093 0 9469.17390174 0 748.63487051 0 847.04785318 0 8571
0.09050000 0.09049190 19351.19197937 0 -38.67030901 0 7535.66943597 0 1291.42324467 0 -685.34725558 0 8932
0.09150000 0.09150830 19619.54508754 0 -155.70192251 0 7016.90102667 0 793.55628008 0 -1221.66022421 0 9285
0.09250000 0.09250820 19476.85548971 0 25.23244199 0 5844.88008596 0 908.50214294 0 701.13428329 0 9204
0.09350000 0.09350330 18862.92772813 0 375.06603388 0 5592.92694466 0 46.96399084 0 -55.24723734 0 9349
0.09450000 0.09448040 18305.90005253 0 451.95364812 0 5820.14282851 0 -90.07986622 0 780.63073352 0 9564
0.09550000 0.09549270 17933.96242493 0 686.00083765 0 6398.34876004 0 -256.24041998 0 -170.03459282 0 10155
0.09650000 0.09649430 17627.71254136 0 512.59727642 0 6507.35965834 0 -869.23449288 0 -63.10142642 0 9913
0.09750000 0.09749140 16647.66897565 0 153.61045989 0 6938.18557955 0 303.59271546 0 -356.11435080 0 10476
0.09850000 0.09850240 16799.47576873 0 17.10210074 0 7172.17894468 0 430.68312177 0 575.52240046 0 10575
0.09950000 0.09950330 16537.49371266 0 -231.44055046 0 6667.56964944 0 751.50404087 0 -176.42541714 0 10882
0.10050000 0.10051200 17220.84397295 0 72.53860226 0 6390.33002206 0 797.87651248 0 6.81183004 0 10875
0.10150000 0.10150300 16720.38684614 0 235.30052926 0 5384.04431246 0 144.04179872 0 521.51015862 0 11118
0.10250000 0.10250800 16351.63474459 0 -311.00400658 0 4915.07995524 0 880.03232773 0 1373.21437211 0 11575
0.10350000 0.10349800 16819.90707373 0 6.19224522 0 4924.93311685 0 1026.95867520 0 1096.57450239 0 11364
0.10450000 0.10450100 16625.04075614 0 519.72077174 0 4378.82410639 0 -675.74673914 0 480.15324285 0 12093
0.10550000 0.10551000 16200.37718014 0 248.56440066 0 4066.25809359 0 -234.65353794 0 921.12451530 0 12067
0.10650000 0.10649700 15647.74333358 0 -123.14364938 0 4271.19726424 0 -110.45427113 0 -731.73730251 0 12054
0.10750000 0.10749900 15338.52761541 0 678.60382647 0 4598.82312605 0 -296.24952869 0 -693.55822359 0 12807
0.10850000 0.10850100 15425.96481316 0 95.56545192 0 4544.42752263 0 389.93035749 0 420.85522468 0 12736
0.10950000 0.10950300 15250.87072621 0 -497.72965743 0 4423.44344022 0 1213.31194904 0 -87.61163276 0 12933
0.11050000 0.11050200 15859.41604722 0 -120.06687060 0 3501.67303205 0 -26.50390626 0 -708.30611073 0 13428
0.11150000 0.11150900 15114.88171765 0 438.86772680 0 3668.97905704 0 -244.27162969 0 -176.62973019 0 13453
0.11250000 0.11250000 15136.30163419 0 478.40230198 0 4030.73398586 0 -373.75337745 0 610.23694518 0 13668
0.11350000 0.11349100 14667.04069351 0 250.88324393 0 4717.64324766 0 -364.40550619 0 193.43832316 0 13791
0.11450000 0.11448600 14384.51748672 0 -79.01400780 0 4860.72829011 0 282.95929432 0 -23.79708789 0 14205
0.11550000 0.11549300 14410.22138656 0 47.62855748 0 4306.29297364 0 28.99828300 0 -681.14895194 0 14776
0.11650000 0.11649800 14442.29633850 0 141.92067775 0 4235.75004852 0 388.03661718 0 -275.56887389 0 14553
0.11750000 0.11747300 14317.07221107 0 225.20790398 0 4282.70909630 0 69.74203993 0 5.29371817 0 14568
0.11850000 0.11849100 13914.04824306 0 259.50613341 0 4577.83160785 0 -132.09278066 0 219.36411136 0 16015
0.11950000 0.11950300 13695.01586579 0 286.63363385 0 4390.36889217 0 -136.63929525 0 -108.87172376 0 15270
0.12050000 0.12050700 13688.53496797 0 -127.25187953 0 4396.09185449 0 276.67831572 0 -173.87150402 0 15999
0.12150000 0.12150000 13650.52834684 0 -87.87075883 0 4160.96707839 0 286.47325909 0 55.23669215 0 15670
0.12250000 0.12250700 13487.40744400 0 68.36611237 0 4237.16705838 0 -218.30410011 0 -500.16933100 0 16887
0.12350000 0.12352200 13473.89641973 0 64.02841450 0 3679.35947813 0 167.13576411 0 -310.27792633 0 16407
0.12450000 0.12449800 13454.23403481 0 205.66195553 0 4174.63188668 0 16.57780709 0 -779.75855846 0 16306
0.12550000 0.12549900 13113.60243906 0 215.94351546 0 4125.76152326 0 247.93278773 0 -58.95046629 0 17523
0.12650000 0.12650100 12932.35699147 0 64.15891122 0 3723.71518221 0 646.84852560 0 28.49870464 0 17154
0.12750000 0.12750600 12990.90476333 0 35.99369821 0 3644.85693565 0 675.02175735 0 198.92401870 0 18007
0.12850000 0.12850300 12909.17954332 0 164.34568268 0 2938.77959469 0 130.26714470 0 316.21398936 0 17496
0.12950000 0.12949900 12741.55496573 0 53.96676571 0 3271.21669930 0 72.41458644 0 897.93718103 0 18405
0.13050000 0.13049000 12459.03175894 0 172.76975139 0 3163.90840975 0 -529.33337121 0 567.70797552 0 18100
0.13150000 0.13148800 12258.45346360 0 221.10626458 0 3248.18205059 0 -180.56989638 0 211.83308840 0 19059
0.13250000 0.13249300 12111.37003674 0 122.30113266 0 3334.25716134 0 106.00606847 0 729.79413162 0 18957
0.13350000 0.13349100 12061.39023149 0 -51.29487827 0 3169.25789660 0 759.13392498 0 262.43352200 0 19468
0.13450000 0.13450700 12065.89390625 0 -54.28498878 0 2991.74720368 0 202.05572035 0 707.35924058 0 19953
0.13550000 0.13551000 11854.66057551 0 168.10240650 0 2486.32505007 0 132.66178152 0 395.39078852 0 19956
0.13650000 0.13649900 11789.30236865 0 262.59389676 0 2848.35459321 0 -330.70044368 0 682.19028942 0 19723
0.13750000 0.13749600 11754.48127357 0 200.13561706 0 2865.43560357 0 205.77949045 0 271.09595594 0 20946
0.13850000 0.13851100 11286.97786451 0 207.06798082 0 3116.37816419 0 -375.15171354 0 546.60441468 0 20955
0.13950000 0.13949800 11126.27356764 0 23.75457759 0 2644.54683353 0 663.05186861 0 742.55490958 0 20506
0.14050000 0.14048300 11117.92529248 0 22.96797235 0 2601.24564842 0 245.09327572 0 32.70206119 0 21447
0.14150000 0.14148400 11004.89404062 0 105.79955850 0 2182.40389589 0 3.76960873 0 164.51704201 0 21771
0.14250000 0.14249400 10776.40394635 0 230.70787947 0 2587.63576299 0 -118.04351233 0 458.99366068 0 22470
0.14350000 0.14350900 10641.45847219 0 28.58438431 0 2378.74214621 0 14.21151047 0 736.11575314 0 22519
0.14450000 0.14449900 10525.47237031 0 10.98267225 0 2413.02499723 0 459.21445059 0 1060.83949087 0 22218
0.14550000 0.14550500 10458.81798388 0 190.14624675 0 2284.53845175 0 22.59647410 0 748.54040318 0 23559
0.14650000 0.14650700 10356.44176742 0 292.78279758 0 2855.15404363 0 -228.09245274 0 803.30838362 0 23044
0.14750000 0.14750500 10118.84546249 0 -5.58575402 0 2666.15348780 0 -148.51471667 0 961.78830453 0 23649
0.14850000 0.14849900 10216.43240530 0 -109.03275760 0 2958.61773278 0 -43.27460245 0 412.18070771 0 23640
0.14950000 0.14949500 9993.24785959 0 167.08633353 0 2655.97078902 0 -158.39314279 0 491.21470744 0 24457
0.15050000 0.15050000 9905.12961835 0 100.40020170 0 2957.36549150 0 -95.47438981 0 172.70713932 0 24591
0.15150000 0.15149900 9803.72004428 0 219.23669032 0 2832.27317895 0 -104.08288950 0 108.96102834 0 25020
0.15250000 0.15250500 9776.46731970 0 -11.82599084 0 2952.12585038 0 321.27568040 0 -327.10079924 0 25297
0.15350000 0.15350100 9699.65220364 0 88.20370122 0 2522.80481561 0 248.52265928 0 71.98838502 0 25452
0.15450000 0.15450400 9565.59647986 0 177.89734987 0 2861.70084889 0 -184.14537475 0 -179.12542508 0 26061
0.15550000 0.15549900 9271.72620959 0 84.03736269 0 2685.12384465 0 -126.50602705 0 81.87801541 0 26128
0.15650000 0.15649500 9422.14894652 0 110.55203383 0 2700.45830797 0 8.25957474 0 -180.56440409 0 26331
0.15750000 0.15749700 9159.69455383 0 98.88400114 0 2789.42236131 0 92.41331897 0 -85.71712353 0 27345
0.15850000 0.15849900 9062.54699392 0 -3.89299843 0 3029.25951905 0 -0.38644935 0 -41.24685035 0 26980
0.15950000 0.15949700 9118.26074606 0 283.08451845 0 2893.43527908 0 -67.94024049 0 108.19661193 0 27777
0.16050000 0.16050000 8920.15397955 0 10.43495949 0 3122.88103116 0 196.62275075 0 325.40258432 0 28224
0.16150000 0.16150500 8913.20074511 0 -64.68737901 0 2874.71756740 0 238.96278576 0 213.72463180 0 28075
0.16250000 0.16249700 8865.15422464 0 56.47289594 0 2780.68962610 0 286.76984255 0 634.61720403 0 28590
0.16350000 0.16349900 8733.95448972 0 60.15140961 0 2465.72897648 0 85.65165547 0 395.92903258 0 29163
0.16450000 0.16449100 8825.11545758 0 113.09166701 0 2604.50806647 0 -7.15163779 0 150.81928000 0 28996
0.16550000 0.16550500 8508.03478544 0 92.96968757 0 2577.83752424 0 -104.67495796 0 149.12545891 0 30777
0.16650000 0.16650700 8267.48363049 0 124.06964885 0 2399.55791125 0 -178.99141330 0 183.63019830 0 29211
0.16750000 0.16749900 8361.44566435 0 66.31573205 0 2387.00254479 0 294.80176202 0 -299.11100985 0 30922
0.16850000 0.16850800 8429.48410691 0 137.77949389 0 2382.74053063 0 133.58228870 0 -372.49674235 0 30867
0.16950000 0.16949900 8360.40212995 0 42.30169886 0 2014.79030287 0 -24.37234995 0 -243.83334525 0 30852
0.17050000 0.17049200 8293.05571545 0 -71.83679792 0 2254.40776916 0 65.63534763 0 -381.61393759 0 31257
0.17150000 0.17149500 8084.67837359 0 7.04854758 0 2206.37223326 0 -23.70470763 0 -363.80025624 0 32608
0.17250000 0.17250900 8139.64517478 0 152.32965873 0 2095.48297305 0 -28.44290301 0 -350.38479774 0 32361
0.17350000 0.17350400 8054.83328988 0 46.36500210 0 2242.24784731 0 27.27733002 0 102.14136630 0 32508
0.17450000 0.17449800 7762.87433524 0 123.71704407 0 2163.45550819 0 295.06868714 0 -59.21332711 0 32791
0.17550000 0.17549800 7928.65350464 0 150.32497423 0 2208.50324034 0 290.55842164 0 496.87945152 0 33633
0.17650000 0.17650100 7771.02488810 0 82.79412876 0 2124.60307497 0 -29.21281171 0 486.56383941 0 33984
0.17750000 0.17750300 7494.71894939 0 54.37912656 0 1831.51270935 0 392.17999796 0 1074.76902736 0 34069
0.17850000 0.17849800 7622.09605304 0 -10.47489940 0 1979.79345463 0 148.46638455 0 1069.56673379 0 34536
