### header ###
fiducial parameters:
Omega_m = 0.31
Omega_nu = 0
Omega_de = 0.69
Omega_k = 0
H_0 = 100
w_de = -1
zeff = 0
beta = 0
fgrowth = 0
b_1 = 2
gamma = 0.55
Lx = 3500 Ly = 3500 Lz = 3500
nx = 700 ny = 700 nz = 700
xoffset = -983.599254 yoffset = -42.9823471 zoffset = 800.977702
bins = 400 dk = 0.001
kx_ny = 0.628318531 ky_ny = 0.628318531 kz_ny = 0.628318531
############################
A(data) = 9.07071278 (not used)
A(ran) = 9.05964534 (used)
Ngal = 503182
weighted Ngal = 0
Nran = 25229228
weighted Nran = 0
SN(data) = 6776.49316
SN(ran) = 134.484194
SN(data+ran) = 6910.97736
############################
13 columns: k_central k_mean P_0(k) sigma^{lin}_{P_0(k)} P^img_1(k) sigma^{lin}_{P_1(k)} P_2(k) sigma^{lin}_{P_2(k)} P^img_3(k) sigma^{lin}_{P_3(k)} P_4(k) sigma^{lin}_{P_4(k)} N_modes
### header ###
0.00050000 0 0 0 0 0 0 0 0 0 0 0 0
0.00150000 0.00179520 135027.85845616 0 -29422.28750485 0 -108180.24491865 0 202742.25613385 0 -118324.71738897 0 3
0.00250000 0.00253879 189422.36342172 0 15127.62382185 0 48861.13637343 0 -80195.94781042 0 43076.00137774 0 6
0.00350000 0.00331552 157254.04261725 0 41302.32244303 0 51519.18324666 0 -146570.44732464 0 215685.37800645 0 7
0.00450000 0.00420575 96455.86137395 0 52545.25217148 0 61021.82714106 0 16499.04770863 0 36694.95331951 0 24
0.00550000 0.00557378 58707.26785244 0 10069.75540762 0 64296.10853610 0 47147.76274219 0 5490.75943508 0 45
0.00650000 0.00659388 59961.26665833 0 -3332.38978400 0 65107.53891269 0 39914.09216020 0 6655.27791272 0 40
0.00750000 0.00754703 42868.17326450 0 -12328.42519094 0 35279.81083385 0 19586.81106124 0 -16607.24574856 0 57
0.00850000 0.00846663 47655.03030400 0 4670.46450843 0 20658.68565373 0 19583.73538092 0 29032.22533249 0 75
0.00950000 0.00948925 57069.35823484 0 -7314.97838824 0 1092.27514069 0 11108.14902288 0 -2004.62957323 0 112
0.01050000 0.01054430 63118.23281820 0 -11273.02745733 0 2847.87127201 0 10297.55347382 0 -19411.38743712 0 105
0.01150000 0.01145670 82773.47776663 0 7534.50507128 0 0.43120928 0 -12854.36652614 0 -38803.55187222 0 144
0.01250000 0.01249090 81211.69123702 0 -1587.60027518 0 3846.68747226 0 -17126.04711157 0 -7115.79513362 0 169
0.01350000 0.01339930 77749.02442220 0 -13546.72413594 0 195.21452854 0 -4864.53993679 0 -20517.42405034 0 180
0.01450000 0.01448870 83706.72705314 0 -628.98101984 0 7922.60100515 0 -4146.56630373 0 -39207.45460604 0 267
0.01550000 0.01550050 85179.64839057 0 8123.24520792 0 -3348.00984621 0 -17273.89945852 0 -18272.83648906 0 238
0.01650000 0.01653350 83205.17146908 0 10703.57623014 0 19977.09292506 0 -1574.97900129 0 -28064.59433380 0 315
0.01750000 0.01747870 77846.45758100 0 -3825.86072265 0 31452.45620934 0 -4227.85214083 0 -14898.37579208 0 297
0.01850000 0.01844180 74540.76030837 0 -932.07723262 0 24819.97128472 0 -1695.29302477 0 -31822.63630533 0 388
0.01950000 0.01947590 64939.03556929 0 2898.31242931 0 29526.53109865 0 10152.26053228 0 -3122.34278710 0 399
0.02050000 0.02045430 75777.18379812 0 3574.69847057 0 24368.61519736 0 10461.70692647 0 5865.12465323 0 462
0.02150000 0.02154770 80520.10254729 0 -6262.52452008 0 18766.37333514 0 6051.70860309 0 -16017.26435521 0 571
0.02250000 0.02255340 72896.36979294 0 3853.73956786 0 21372.13364289 0 -8023.63710375 0 -2948.34715741 0 510
0.02350000 0.02348930 66851.22996425 0 8236.37532093 0 23046.07265856 0 -10947.74130948 0 -231.12089940 0 555
0.02450000 0.02439640 62273.95856960 0 5523.85595227 0 35361.86559104 0 -1262.51184964 0 4658.21671000 0 592
0.02550000 0.02547300 63014.86799021 0 -1112.13305100 0 34193.65629701 0 3431.22896809 0 -15273.16940855 0 837
0.02650000 0.02652900 58305.01280451 0 2561.40460366 0 39693.08255986 0 1197.29644222 0 -4525.27042805 0 723
0.02750000 0.02749970 60059.79827438 0 4411.49222525 0 37855.80294991 0 -4116.38069828 0 -7804.73654135 0 826
0.02850000 0.02848090 57284.65585743 0 -856.82961506 0 37192.77414890 0 6802.78973792 0 -2175.59346089 0 831
0.02950000 0.02946900 57632.31757963 0 -2684.89316862 0 34560.76071268 0 8549.24890177 0 -9998.48750072 0 996
0.03050000 0.03053250 59607.23388403 0 345.60321330 0 30591.59525614 0 3131.69065837 0 -5103.43242129 0 1041
0.03150000 0.03150510 61481.42165786 0 187.55828145 0 26131.85878811 0 1030.40343716 0 -9169.51476172 0 1036
0.03250000 0.03246190 53980.16688779 0 2337.23144642 0 23502.92103222 0 1100.52235778 0 1529.33810221 0 1059
0.03350000 0.03345080 58432.98307508 0 790.51355347 0 25640.29916510 0 3911.35365105 0 -7055.02847810 0 1302
0.03450000 0.03451200 54003.12464448 0 1341.61175679 0 22948.30996259 0 2762.90560309 0 -2363.78115835 0 1339
0.03550000 0.03553350 50133.04003262 0 2280.24348387 0 19246.28931122 0 1949.77261776 0 -21.52943272 0 1365
0.03650000 0.03647120 50623.72088983 0 229.20518994 0 25061.63188151 0 334.18804547 0 -7628.89550347 0 1308
0.03750000 0.03744890 49038.53722062 0 3086.67587993 0 14900.02347796 0 4533.24522774 0 -1543.23358653 0 1579
0.03850000 0.03847530 46530.86914602 0 -514.25814380 0 19486.08253067 0 1589.97294286 0 8947.50556528 0 1662
0.03950000 0.03950240 45438.45340281 0 -1289.01762328 0 12564.92303862 0 6882.39493541 0 5409.05618422 0 1683
0.04050000 0.04050350 45634.74771484 0 830.35130286 0 13961.50159661 0 1667.17251896 0 6453.21670009 0 1822
0.04150000 0.04152450 45197.34203465 0 1295.79510456 0 11701.20609655 0 -1410.80357948 0 2015.81186812 0 1887
0.04250000 0.04250150 43923.46115239 0 3046.15379168 0 18980.79219193 0 -3985.38967025 0 10178.73335220 0 1920
0.04350000 0.04349210 40074.46691989 0 2451.30623268 0 18769.88839837 0 -5111.97841876 0 1814.50859099 0 2005
0.04450000 0.04448520 39318.28894339 0 167.01383536 0 22728.83820241 0 1511.96050839 0 3948.87695098 0 2151
0.04550000 0.04548030 41007.93589785 0 -1452.86350790 0 20423.28626331 0 1248.68227276 0 -4387.69964104 0 2274
0.04650000 0.04648670 39447.90689985 0 899.04113058 0 21617.08961145 0 497.96253037 0 -1020.25039673 0 2311
0.04750000 0.04749250 40032.61569835 0 515.01388239 0 19089.75915194 0 -254.26319691 0 -3547.91808262 0 2568
0.04850000 0.04851840 39061.57948216 0 972.44224148 0 19036.81351210 0 2663.09977662 0 -3283.79403490 0 2493
0.04950000 0.04949480 38125.36436105 0 30.25953163 0 18869.73816313 0 708.36323051 0 -924.50996057 0 2644
0.05050000 0.05050630 37133.34761123 0 490.77752145 0 16169.29083974 0 3323.45932649 0 -1610.56901645 0 2829
0.05150000 0.05149060 38975.68012457 0 -592.45731600 0 14389.24085293 0 3295.96494132 0 -365.99607230 0 2784
0.05250000 0.05249300 36038.73495350 0 501.23153917 0 11653.42320582 0 2523.91425744 0 1154.26987142 0 3055
0.05350000 0.05348950 37064.03495824 0 772.56146650 0 12404.54827893 0 465.12415064 0 2547.27844332 0 3009
0.05450000 0.05448610 36212.18135456 0 553.63234422 0 11156.48114224 0 -624.21920762 0 2017.11903226 0 3336
0.05550000 0.05550870 34217.60266524 0 543.70778289 0 12555.69599765 0 1857.89765269 0 1561.77554504 0 3349
0.05650000 0.05647670 34884.36622093 0 -162.34099818 0 11917.93171358 0 -166.13506955 0 3277.86236571 0 3324
0.05750000 0.05747970 33830.06694457 0 1298.91472317 0 12550.53324854 0 -659.00405362 0 2424.19630755 0 3639
0.05850000 0.05849280 33698.80130222 0 373.43043102 0 12794.72029702 0 -535.61215290 0 3019.43931116 0 3846
0.05950000 0.05951020 32955.25558419 0 69.65350428 0 12697.39698395 0 1001.42503624 0 809.71348789 0 3787
0.06050000 0.06049470 32959.53956750 0 610.80155221 0 13785.85828104 0 783.85580403 0 2018.45915011 0 3930
0.06150000 0.06148310 32832.66775418 0 269.69212756 0 12862.71480130 0 474.48520339 0 3407.28259986 0 4083
0.06250000 0.06249100 32116.69331333 0 -174.20873040 0 13072.84967478 0 1141.07739975 0 3673.54863923 0 4303
0.06350000 0.06350600 33604.55366947 0 -330.45988154 0 11555.44081840 0 1730.26790387 0 -446.56241989 0 4470
0.06450000 0.06451750 31997.73039228 0 -106.38701344 0 10068.64596579 0 -1050.09548043 0 721.58755744 0 4479
0.06550000 0.06550280 31587.67629781 0 1056.59065820 0 12302.50159965 0 -443.09568879 0 -528.54028507 0 4636
0.06650000 0.06648880 31014.39145479 0 1604.84605413 0 11365.51755846 0 -2074.77705374 0 -56.90206319 0 4653
0.06750000 0.06749660 30463.07575694 0 482.24690238 0 12185.29621021 0 -437.15742885 0 -1938.21684741 0 5220
0.06850000 0.06852730 28914.91009732 0 342.94055290 0 13496.52463924 0 1092.08730449 0 -4755.41919277 0 5029
0.06950000 0.06949320 28816.26863554 0 732.18876844 0 13038.57780833 0 197.75416172 0 -2595.70942383 0 5040
0.07050000 0.07048030 27907.51494589 0 46.30546572 0 11996.25171608 0 1139.27592985 0 -1524.36209083 0 5475
0.07150000 0.07148790 27824.91096007 0 -503.47349044 0 10971.98426117 0 1451.21582201 0 -1467.98926434 0 5509
0.07250000 0.07249820 27766.36318822 0 327.06125478 0 10126.34792556 0 2320.78754127 0 -217.77024988 0 5916
0.07350000 0.07351270 27484.93843868 0 -104.89278204 0 10348.55484431 0 1496.02189357 0 2788.08224345 0 5721
0.07450000 0.07449140 27312.48064916 0 486.10907810 0 8632.23734762 0 343.47550159 0 1083.67641727 0 6028
0.07550000 0.07549160 27261.73192383 0 537.83652884 0 8691.43320926 0 -536.30308251 0 202.80706511 0 6183
0.07650000 0.07648840 26012.01710125 0 941.58328173 0 9647.44253016 0 -1233.68833118 0 1472.10847906 0 6330
0.07750000 0.07749960 25273.85382378 0 391.94492810 0 9674.61836273 0 358.83522943 0 -863.90367980 0 6583
0.07850000 0.07848650 24779.10867472 0 -334.19353776 0 9271.53947186 0 882.73233567 0 1282.69050947 0 6549
0.07950000 0.07947320 24995.72444602 0 143.22564497 0 8376.90095797 0 1138.15550344 0 -1304.04451857 0 6828
0.08050000 0.08048110 24402.88706381 0 604.58098876 0 7047.99835165 0 469.09397517 0 970.86705377 0 7147
0.08150000 0.08149960 23995.79880394 0 337.86018809 0 7550.24596379 0 279.39260361 0 -1279.28529197 0 7386
0.08250000 0.08250610 23352.87177076 0 367.13627093 0 6994.83302036 0 -298.67602077 0 668.88247974 0 7227
0.08350000 0.08350160 22909.53442138 0 293.12331933 0 6913.43733753 0 1137.24378392 0 -621.36761258 0 7798
0.08450000 0.08449610 22298.46264868 0 780.58020449 0 5946.76199665 0 700.40820305 0 -626.14480320 0 7371
0.08550000 0.08548940 22035.49198108 0 39.17570919 0 6563.41393222 0 -118.87394602 0 643.06104497 0 8256
0.08650000 0.08650700 20949.88667286 0 492.09567016 0 6202.76844523 0 265.87938242 0 -98.49866234 0 8037
0.08750000 0.08749060 20902.21362786 0 276.36415695 0 5976.65101865 0 360.18743031 0 654.04451910 0 8155
0.08850000 0.08849210 20074.85562103 0 235.79373657 0 5385.69199834 0 -128.44919794 0 -57.94098407 0 8718
0.08950000 0.08949900 20039.70498877 0 143.01254427 0 5892.05882520 0 900.01656062 0 747.53751171 0 8571
0.09050000 0.09049190 20149.66056031 0 95.20702532 0 5507.58780028 0 524.06956403 0 859.91627996 0 8932
0.09150000 0.09150830 19972.91878748 0 284.22691400 0 5145.09690509 0 -595.00244147 0 -1.87884523 0 9285
0.09250000 0.09250820 19098.10742710 0 93.96049602 0 5874.87895368 0 -475.17942838 0 912.65540984 0 9204
0.09350000 0.09350330 19049.11623339 0 538.70431008 0 6223.10088908 0 -245.45686507 0 -95.60993944 0 9349
0.09450000 0.09448040 18496.70207827 0 180.66985599 0 6463.61909032 0 -286.37110257 0 1132.04808109 0 9564
0.09550000 0.09549270 18399.81814810 0 522.08794713 0 7375.22876885 0 714.74966101 0 716.42041450 0 10155
0.09650000 0.09649430 18606.98718699 0 -100.42315945 0 6375.40198792 0 82.87508506 0 622.32436885 0 9913
0.09750000 0.09749140 18214.72810011 0 -47.20565144 0 6954.69539214 0 974.41726763 0 -13.97369447 0 10476
0.09850000 0.09850240 18137.72624631 0 312.47923468 0 6669.12945875 0 -813.14726528 0 1019.87911817 0 10575
0.09950000 0.09950330 17490.73492127 0 445.90334554 0 6885.59144603 0 -189.35755444 0 1169.52744274 0 10882
0.10050000 0.10051200 17391.32453941 0 131.36670041 0 6756.78634795 0 189.29933621 0 857.55569531 0 10875
0.10150000 0.10150300 17120.00559665 0 171.92284084 0 7630.26857504 0 210.63686845 0 -425.61703689 0 11118
0.10250000 0.10250800 17300.81166134 0 362.64358074 0 7117.13525148 0 -312.94827593 0 -277.19459063 0 11575
0.10350000 0.10349800 16945.57058406 0 134.84441609 0 7395.93468816 0 49.19594615 0 -51.06574009 0 11364
0.10450000 0.10450100 16366.79345475 0 106.33351858 0 7672.52622576 0 -696.11323517 0 -1217.04670372 0 12093
0.10550000 0.10551000 16098.33050086 0 385.57497446 0 7632.50942785 0 217.03318506 0 -1232.43608991 0 12067
0.10650000 0.10649700 15902.80510891 0 234.06915868 0 7608.62896706 0 -253.86665384 0 -1500.06421628 0 12054
0.10750000 0.10749900 15618.96375341 0 105.11829531 0 7340.44062748 0 579.70093187 0 -1243.18998647 0 12807
0.10850000 0.10850100 15471.44094364 0 154.35631237 0 7665.55102217 0 571.33178602 0 -1403.61966902 0 12736
0.10950000 0.10950300 15307.00189210 0 227.85079214 0 6739.85912160 0 656.22825212 0 -352.65201352 0 12933
0.11050000 0.11050200 14748.76591352 0 111.02986274 0 6240.66522064 0 751.76327678 0 270.15238115 0 13428
0.11150000 0.11150900 14700.21410271 0 197.12804109 0 5851.31704549 0 690.58799516 0 304.16501169 0 13453
0.11250000 0.11250000 14421.64534205 0 189.00055583 0 5840.45330321 0 626.43699283 0 1214.14677656 0 13668
0.11350000 0.11349100 14359.91204414 0 -173.93741145 0 4906.88546409 0 553.31049624 0 957.69215742 0 13791
0.11450000 0.11448600 14670.99513964 0 -21.03688449 0 4974.85799923 0 393.24440304 0 1113.22052368 0 14205
0.11550000 0.11549300 14079.25621469 0 179.10016057 0 4509.82611900 0 -146.14534437 0 287.02907847 0 14776
0.11650000 0.11649800 13891.52986927 0 251.78507734 0 4462.91100950 0 -11.82840745 0 1483.16994365 0 14553
0.11750000 0.11747300 13653.27448998 0 299.76459192 0 4632.44690272 0 -148.30051751 0 703.18620145 0 14568
0.11850000 0.11849100 13492.13081021 0 212.78215547 0 4987.63305714 0 -253.01974330 0 167.73552177 0 16015
0.11950000 0.11950300 12912.80445227 0 253.76889115 0 4916.34318109 0 35.31935530 0 458.43893977 0 15270
0.12050000 0.12050700 13233.33428020 0 9.41890850 0 4911.01566338 0 -2.64596384 0 -135.37277404 0 15999
0.12150000 0.12150000 13406.01176117 0 -325.01373045 0 4388.83105201 0 476.66344414 0 -63.56925937 0 15670
0.12250000 0.12250700 13059.66818768 0 -59.67270194 0 4214.67065374 0 562.20360620 0 88.58750219 0 16887
0.12350000 0.12352200 13498.72155376 0 -111.86029642 0 3707.33718449 0 335.88186656 0 -269.26702460 0 16407
0.12450000 0.12449800 13801.01699120 0 89.22350894 0 3248.28091175 0 632.43456946 0 -50.50036414 0 16306
0.12550000 0.12549900 13426.77260335 0 68.56372483 0 3528.64015774 0 -259.57313930 0 355.93859764 0 17523
0.12650000 0.12650100 13114.48120487 0 178.00719560 0 2957.88176641 0 -83.18276294 0 557.60766103 0 17154
0.12750000 0.12750600 12871.17292219 0 278.14365770 0 3096.77070213 0 474.87295881 0 290.16846931 0 18007
0.12850000 0.12850300 12937.19020340 0 226.33272421 0 3053.54640902 0 -111.25065265 0 542.63459015 0 17496
0.12950000 0.12949900 12431.68017321 0 121.29165044 0 3191.22704176 0 220.64381407 0 614.53191306 0 18405
0.13050000 0.13049000 12236.37447271 0 212.32739417 0 3299.76560344 0 -405.22088253 0 508.34844375 0 18100
0.13150000 0.13148800 12018.87993560 0 203.01577199 0 3149.55157339 0 205.40381807 0 431.42787579 0 19059
0.13250000 0.13249300 11840.60032261 0 182.76900781 0 3544.67763371 0 122.12977333 0 519.33411479 0 18957
0.13350000 0.13349100 11882.12200696 0 -261.95020080 0 3393.10151666 0 236.79113576 0 958.02169460 0 19468
0.13450000 0.13450700 11782.60177938 0 43.62171494 0 3263.25288418 0 -281.82348952 0 196.73479339 0 19953
0.13550000 0.13551000 11894.31488253 0 342.90540227 0 3442.22452524 0 -293.22108203 0 318.81074231 0 19956
0.13650000 0.13649900 11690.55106115 0 65.77199571 0 3391.67352222 0 39.15967172 0 692.18185664 0 19723
0.13750000 0.13749600 11748.43975865 0 -136.81724533 0 3680.51285825 0 535.01898598 0 829.23197491 0 20946
0.13850000 0.13851100 11886.40599027 0 20.92231540 0 3748.72705398 0 155.78760218 0 642.53378549 0 20955
0.13950000 0.13949800 11591.90959937 0 369.90328476 0 3413.36805307 0 -266.89765230 0 421.86250999 0 20506
0.14050000 0.14048300 11389.90330959 0 301.43424695 0 3985.94988345 0 -505.38700298 0 504.92455247 0 21447
0.14150000 0.14148400 10671.49029363 0 393.91336351 0 4450.61927278 0 -240.90375974 0 944.10094576 0 21771
0.14250000 0.14249400 10820.82555787 0 -13.56693575 0 4346.35370984 0 211.58264015 0 458.95082085 0 22470
0.14350000 0.14350900 10640.29410750 0 -142.50945084 0 3720.32094928 0 970.96261955 0 681.67950680 0 22519
0.14450000 0.14449900 10775.32745824 0 -121.67281511 0 3561.00070857 0 451.04522396 0 351.52389792 0 22218
0.14550000 0.14550500 10655.74940112 0 181.31355194 0 3070.06720619 0 -213.14354791 0 414.39080372 0 23559
0.14650000 0.14650700 10461.63003446 0 309.99562282 0 3115.78499727 0 -59.13456773 0 444.99272447 0 23044
0.14750000 0.14750500 10181.42457249 0 177.56671423 0 3442.91655332 0 -248.34470921 0 77.59524041 0 23649
0.14850000 0.14849900 10025.33379610 0 163.25161925 0 3190.87553544 0 -60.53894533 0 21.80580457 0 23640
0.14950000 0.14949500 9749.02785739 0 128.32836764 0 3551.81760589 0 83.15486213 0 -177.76992883 0 24457
0.15050000 0.15050000 9522.61384735 0 118.11271514 0 3522.45584338 0 73.90310587 0 188.04929185 0 24591
0.15150000 0.15149900 9534.07075655 0 79.28170183 0 3421.49663678 0 329.91175137 0 488.19175306 0 25020
0.15250000 0.15250500 9538.26686328 0 6.84356447 0 3184.64728278 0 263.11127013 0 522.69649245 0 25297
0.15350000 0.15350100 9457.74994625 0 -18.22736036 0 2960.01277349 0 278.78405829 0 587.55929509 0 25452
0.15450000 0.15450400 9536.41047051 0 82.99723351 0 3043.77013943 0 224.99590173 0 592.30353199 0 26061
0.15550000 0.15549900 9366.56700926 0 61.46538418 0 2675.63317394 0 174.76125440 0 1111.93532869 0 26128
0.15650000 0.15649500 9299.12173361 0 73.57115209 0 2780.12941290 0 4.44086497 0 824.30319719 0 26331
0.15750000 0.15749700 9148.08386061 0 192.00923026 0 3089.30119278 0 -337.71958556 0 696.80086941 0 27345
0.15850000 0.15849900 9024.55135736 0 224.64329695 0 3014.79283696 0 -213.65762591 0 391.70875979 0 26980
0.15950000 0.15949700 8969.71637104 0 -10.93794307 0 3055.15015662 0 207.94345125 0 361.61542475 0 27777
0.16050000 0.16050000 8920.27480985 0 -40.50758862 0 2912.55941994 0 80.39454888 0 235.58722661 0 28224
0.16150000 0.16150500 8890.59449473 0 53.65414477 0 2955.82765134 0 348.38890090 0 670.37748007 0 28075
0.16250000 0.16249700 8815.10851196 0 103.41436841 0 2518.09243397 0 -118.49058443 0 190.78664734 0 28590
0.16350000 0.16349900 8794.17191662 0 61.53722329 0 2756.91901104 0 248.36338298 0 437.39030179 0 29163
0.16450000 0.16449100 8548.71065771 0 85.17690225 0 2625.97192130 0 -93.37370015 0 503.35485705 0 28996
0.16550000 0.16550500 8337.70800300 0 146.81320638 0 2717.51734919 0 9.84029867 0 616.70356306 0 30777
0.16650000 0.16650700 8336.32394685 0 103.53278211 0 2622.80836439 0 91.55817000 0 348.40098393 0 29211
0.16750000 0.16749900 8432.83440155 0 115.58736190 0 2798.62743313 0 202.57529063 0 359.44377475 0 30922
0.16850000 0.16850800 8137.43727569 0 46.43793966 0 2326.81807162 0 -73.79622598 0 219.38717897 0 30867
0.16950000 0.16949900 8035.53339586 0 78.61285121 0 2437.54256324 0 -145.73012752 0 294.45794490 0 30852
0.17050000 0.17049200 7843.73177401 0 185.28008110 0 2707.63123387 0 -147.15153121 0 88.30717590 0 31257
0.17150000 0.17149500 7787.52371612 0 160.29347385 0 2890.33762961 0 -181.07628517 0 112.80277275 0 32608
0.17250000 0.17250900 7663.44198424 0 -40.03854737 0 2624.57688058 0 258.20556001 0 -38.03979454 0 32361
0.17350000 0.17350400 7599.20420378 0 9.34391682 0 2569.39038793 0 494.17285283 0 328.64852552 0 32508
0.17450000 0.17449800 7818.25855020 0 -64.68584117 0 2284.34072944 0 241.09379284 0 276.40260295 0 32791
0.17550000 0.17549800 7758.91988911 0 10.02064338 0 2521.37682118 0 92.09883066 0 503.68329577 0 33633
0.17650000 0.17650100 7665.82563649 0 146.64733933 0 2332.82663282 0 -169.74899393 0 470.52636344 0 33984
0.17750000 0.17750300 7521.62016764 0 136.91830340 0 2345.55775244 0 -92.10772816 0 702.52383173 0 34069
0.17850000 0.17849800 7573.18175134 0 17.00038360 0 2626.56508822 0 143.02902112 0 378.62393693 0 34536
