### header ###
fiducial parameters:
Omega_m = 0.31
Omega_nu = 0
Omega_de = 0.69
Omega_k = 0
H_0 = 100
w_de = -1
zeff = 0
beta = 0
fgrowth = 0
b_1 = 2
gamma = 0.55
Lx = 3500 Ly = 3500 Lz = 3500
nx = 700 ny = 700 nz = 700
xoffset = -983.599254 yoffset = -42.9823471 zoffset = 800.977702
bins = 400 dk = 0.001
kx_ny = 0.628318531 ky_ny = 0.628318531 kz_ny = 0.628318531
############################
A(data) = 9.09034243 (not used)
A(ran) = 9.08972748 (used)
Ngal = 505061
weighted Ngal = 0
Nran = 25229228
weighted Nran = 0
SN(data) = 6705.43106
SN(ran) = 134.930742
SN(data+ran) = 6840.3618
############################
13 columns: k_central k_mean P_0(k) sigma^{lin}_{P_0(k)} P^img_1(k) sigma^{lin}_{P_1(k)} P_2(k) sigma^{lin}_{P_2(k)} P^img_3(k) sigma^{lin}_{P_3(k)} P_4(k) sigma^{lin}_{P_4(k)} N_modes
### header ###
0.00050000 0 0 0 0 0 0 0 0 0 0 0 0
0.00150000 0.00179520 39901.02051883 0 -32310.90055657 0 -23608.26308327 0 2275.56405595 0 -127419.94348632 0 3
0.00250000 0.00253879 60015.53044688 0 -21112.89772997 0 -1804.68838311 0 -32453.59015440 0 61810.29976094 0 6
0.00350000 0.00331552 54376.16072934 0 1865.14747059 0 -35831.12653171 0 -22487.50714280 0 67239.86414218 0 7
0.00450000 0.00420575 54707.78497557 0 6076.13829252 0 -23959.65956015 0 -22136.44020310 0 5922.81562842 0 24
0.00550000 0.00557378 68818.45706784 0 -4193.21778348 0 10658.49554427 0 -11584.33024428 0 -31981.14368768 0 45
0.00650000 0.00659388 56702.03412772 0 5477.53400969 0 23443.49449455 0 -37701.79924232 0 -1062.49486596 0 40
0.00750000 0.00754703 54165.47662723 0 9103.16794333 0 16576.70863678 0 2501.22013049 0 9717.05176661 0 57
0.00850000 0.00846663 55725.06624233 0 -4054.10915631 0 33983.74111498 0 18859.96189354 0 20161.08451580 0 75
0.00950000 0.00948925 63386.36623492 0 120.15035335 0 41863.85379339 0 17446.24740232 0 -12195.84139989 0 112
0.01050000 0.01054430 62701.80767165 0 8359.88585504 0 47478.17868544 0 -1951.66196424 0 16831.00149204 0 105
0.01150000 0.01145670 58736.48681551 0 2912.42760507 0 61497.67882528 0 6026.88346906 0 25866.25182310 0 144
0.01250000 0.01249090 65360.07423633 0 -7344.38408904 0 50115.13517931 0 23805.87554401 0 3757.83326465 0 169
0.01350000 0.01339930 70288.30272495 0 -3599.58951204 0 57392.96374308 0 315.27261149 0 20920.77755552 0 180
0.01450000 0.01448870 74540.10123401 0 3049.32833315 0 46825.14584548 0 14215.79445187 0 25184.87878587 0 267
0.01550000 0.01550050 72306.05886242 0 -5151.07251258 0 46921.81008419 0 17533.79444579 0 34893.15387899 0 238
0.01650000 0.01653350 81799.69540730 0 -3017.59390297 0 33695.17639327 0 9015.15954781 0 9166.48301969 0 315
0.01750000 0.01747870 84247.16802414 0 6110.66280414 0 34868.87797359 0 5091.33840688 0 17745.24746798 0 297
0.01850000 0.01844180 83857.54523468 0 992.14307241 0 33608.83765278 0 -5966.25961298 0 10439.80368874 0 388
0.01950000 0.01947590 73896.40528074 0 1933.14197487 0 36284.13030497 0 9575.82311693 0 23249.61678849 0 399
0.02050000 0.02045430 75265.52240728 0 1351.95922417 0 30582.36821517 0 1301.21049884 0 -1125.02893921 0 462
0.02150000 0.02154770 70223.49374672 0 4859.53097170 0 33710.55479488 0 -830.37546891 0 3058.82998844 0 571
0.02250000 0.02255340 68492.32510790 0 2068.49387822 0 25876.02809269 0 2430.28176076 0 1541.61885436 0 510
0.02350000 0.02348930 62047.12714580 0 754.85104013 0 28596.90672109 0 7383.65393602 0 13410.40559021 0 555
0.02450000 0.02439640 65033.94227639 0 1095.49032508 0 26974.37550510 0 10247.56268400 0 7508.96594003 0 592
0.02550000 0.02547300 63828.71497277 0 638.41237386 0 16631.96103686 0 7500.36501969 0 11012.47339570 0 837
0.02650000 0.02652900 60685.14999144 0 299.22085557 0 22406.99022578 0 2174.62681850 0 8516.58078291 0 723
0.02750000 0.02749970 59185.86567981 0 5071.58814538 0 20503.69333461 0 -2510.32634116 0 10436.27764095 0 826
0.02850000 0.02848090 56774.75199820 0 1704.83861834 0 27478.45754086 0 -375.50541678 0 21731.32916630 0 831
0.02950000 0.02946900 56122.48807832 0 -2134.85168118 0 27747.46972338 0 1890.56577155 0 5014.39147595 0 996
0.03050000 0.03053250 55545.24878918 0 250.58556201 0 22495.08649788 0 5307.49282614 0 6653.14690564 0 1041
0.03150000 0.03150510 57463.81423623 0 -860.47869007 0 21091.14827626 0 3193.75349345 0 12741.66481145 0 1036
0.03250000 0.03246190 58818.65141842 0 2095.09851301 0 25077.33982030 0 2137.27927172 0 12772.20192323 0 1059
0.03350000 0.03345080 57845.08875053 0 -385.38713827 0 19042.74518129 0 6523.58387204 0 15256.69254968 0 1302
0.03450000 0.03451200 61223.17435647 0 -870.35382082 0 23639.78880658 0 -4119.57720890 0 1607.21872181 0 1339
0.03550000 0.03553350 55608.73961870 0 3462.97438285 0 19903.38644304 0 -1930.01137169 0 10305.40744321 0 1365
0.03650000 0.03647120 54116.04605062 0 -63.27047899 0 28288.24023156 0 1281.13070016 0 16073.28567538 0 1308
0.03750000 0.03744890 54639.57077984 0 -27.18769590 0 23318.49005858 0 344.83319476 0 4440.68921917 0 1579
0.03850000 0.03847530 55131.56978576 0 2905.94670725 0 27626.52957926 0 -2468.17853616 0 -1698.58839654 0 1662
0.03950000 0.03950240 50894.60044969 0 3946.04293126 0 29142.07105830 0 -2024.23703529 0 5088.49340258 0 1683
0.04050000 0.04050350 49446.72393774 0 -885.32579325 0 30827.54387518 0 6582.45019651 0 8848.15010628 0 1822
0.04150000 0.04152450 48890.13564504 0 -1448.23900284 0 24483.07444365 0 4911.34520056 0 5795.99873797 0 1887
0.04250000 0.04250150 50453.02063192 0 624.65859053 0 21902.68849857 0 1874.02300524 0 -3309.00362898 0 1920
0.04350000 0.04349210 46867.32660419 0 2326.24687384 0 23605.40709440 0 1947.41093466 0 8522.00716177 0 2005
0.04450000 0.04448520 47145.78551913 0 377.74077730 0 18603.91150667 0 4844.35029239 0 5834.51064944 0 2151
0.04550000 0.04548030 45256.43903513 0 1431.69623653 0 20939.12179173 0 165.02672618 0 5408.55089388 0 2274
0.04650000 0.04648670 42676.60231868 0 1796.34010794 0 18118.72293575 0 -276.25101585 0 3902.53303926 0 2311
0.04750000 0.04749250 39547.75666461 0 1273.71611367 0 19155.99612460 0 -258.37362397 0 4871.84467756 0 2568
0.04850000 0.04851840 37818.67509458 0 1349.47671076 0 20981.85177908 0 838.30852723 0 3641.28694956 0 2493
0.04950000 0.04949480 37448.82453577 0 1345.73097151 0 17185.03426633 0 2402.07337837 0 3552.56455682 0 2644
0.05050000 0.05050630 37753.20704200 0 -854.72826633 0 17553.23713926 0 756.11097061 0 1009.38445753 0 2829
0.05150000 0.05149060 37410.70806891 0 -664.14812896 0 13505.86152594 0 3330.51142209 0 2342.75668643 0 2784
0.05250000 0.05249300 37788.57736571 0 760.67945434 0 16174.34374312 0 -369.83847578 0 1433.67345960 0 3055
0.05350000 0.05348950 37409.49976593 0 618.53798668 0 15770.99023794 0 -2694.44974677 0 752.28284706 0 3009
0.05450000 0.05448610 36223.16592714 0 1462.63977750 0 17352.87853538 0 -137.66086050 0 -1175.44812736 0 3336
0.05550000 0.05550870 33551.60802963 0 1023.68417412 0 20202.82589161 0 -1594.07018843 0 -1272.87030158 0 3349
0.05650000 0.05647670 33813.04085707 0 683.67210826 0 17771.83013363 0 1642.98449014 0 -430.83361041 0 3324
0.05750000 0.05747970 33660.02576101 0 -414.78295296 0 17536.32089749 0 2766.24491316 0 -1060.58025496 0 3639
0.05850000 0.05849280 32598.91604965 0 34.50671662 0 14354.85914075 0 3503.00216534 0 166.91936803 0 3846
0.05950000 0.05951020 33350.59035139 0 173.89347316 0 13306.27184214 0 2237.38168166 0 324.04379269 0 3787
0.06050000 0.06049470 32028.26750405 0 521.28497488 0 11329.59800612 0 1394.54641206 0 2020.59015719 0 3930
0.06150000 0.06148310 32129.43541753 0 266.64061330 0 8769.07216827 0 1335.09790525 0 162.16963885 0 4083
0.06250000 0.06249100 32044.74436292 0 325.49375627 0 10623.90512521 0 -1192.99048977 0 -1339.31598113 0 4303
0.06350000 0.06350600 29797.19096705 0 -119.77028714 0 7160.89778864 0 789.34479495 0 563.15487019 0 4470
0.06450000 0.06451750 30754.71615897 0 159.63989178 0 8945.93477140 0 367.50645102 0 -3715.00441616 0 4479
0.06550000 0.06550280 30106.95591385 0 351.42723368 0 7971.33955369 0 707.00334042 0 -869.88258266 0 4636
0.06650000 0.06648880 29977.77734029 0 595.78014921 0 7016.17604488 0 236.41656184 0 128.08341167 0 4653
0.06750000 0.06749660 30216.80163966 0 -210.27657447 0 6900.83803278 0 992.98558912 0 -326.35604522 0 5220
0.06850000 0.06852730 30083.00954562 0 -114.37576355 0 7428.69068360 0 341.55649676 0 -910.63534694 0 5029
0.06950000 0.06949320 29498.74013002 0 991.58944995 0 8381.40463273 0 -798.69925696 0 1841.11322579 0 5040
0.07050000 0.07048030 28820.44277312 0 694.86758464 0 9426.21323837 0 -1391.59156204 0 1654.29859990 0 5475
0.07150000 0.07148790 27905.97710573 0 835.70518353 0 9764.75776533 0 149.84604687 0 -100.03529420 0 5509
0.07250000 0.07249820 26804.88355017 0 902.03772198 0 12416.96084595 0 -472.65077977 0 1071.76474676 0 5916
0.07350000 0.07351270 26614.63075306 0 681.41148322 0 12376.09823595 0 121.31032422 0 2983.14628335 0 5721
0.07450000 0.07449140 25367.88176508 0 -195.25187609 0 11857.40671866 0 2117.91347026 0 2782.46912686 0 6028
0.07550000 0.07549160 26713.60175202 0 -116.80664946 0 10930.17697792 0 932.47377569 0 2383.08105238 0 6183
0.07650000 0.07648840 24225.59606235 0 354.16349071 0 9168.08676728 0 240.48854290 0 3354.96308066 0 6330
0.07750000 0.07749960 25419.83879339 0 143.85615944 0 10617.85262572 0 985.97633336 0 3637.81582463 0 6583
0.07850000 0.07848650 24304.35544775 0 -466.33574900 0 7960.33301197 0 1574.35288065 0 2957.78290526 0 6549
0.07950000 0.07947320 25392.48720766 0 494.24095718 0 6736.64064183 0 1274.22140401 0 1849.00014890 0 6828
0.08050000 0.08048110 25255.61943330 0 249.73425764 0 6656.69492258 0 -364.92397801 0 2431.09461913 0 7147
0.08150000 0.08149960 24098.17502040 0 320.91428796 0 6694.11936137 0 -128.09000241 0 1390.51507393 0 7386
0.08250000 0.08250610 23530.05292650 0 542.74333742 0 6339.22979041 0 -8.20000540 0 2322.90756378 0 7227
0.08350000 0.08350160 23445.36187189 0 304.81969222 0 6124.04201354 0 438.15263112 0 680.15484812 0 7798
0.08450000 0.08449610 22215.30943423 0 183.73125637 0 6435.02624789 0 234.36244677 0 2248.57496112 0 7371
0.08550000 0.08548940 22646.89329096 0 357.69942462 0 6040.27366304 0 707.11757998 0 504.34346859 0 8256
0.08650000 0.08650700 21405.85628072 0 756.17468113 0 6565.43509358 0 -884.69637724 0 517.55022020 0 8037
0.08750000 0.08749060 21033.69896166 0 685.32308952 0 6619.28146837 0 -563.26801128 0 142.06677257 0 8155
0.08850000 0.08849210 20222.59812225 0 321.89850567 0 7626.18231404 0 -723.47360855 0 324.11189704 0 8718
0.08950000 0.08949900 19784.97275061 0 -23.29608153 0 7241.82113485 0 1202.72282108 0 295.25212950 0 8571
0.09050000 0.09049190 20134.28215870 0 -237.21074644 0 6535.27145727 0 687.28822956 0 -208.86176152 0 8932
0.09150000 0.09150830 20055.96215619 0 410.94384484 0 6578.18818235 0 822.14363022 0 -89.07983073 0 9285
0.09250000 0.09250820 19558.36101826 0 468.23168622 0 6411.43138599 0 -313.38326500 0 494.92639451 0 9204
0.09350000 0.09350330 19546.71737132 0 305.04926978 0 6735.82778346 0 -495.40642033 0 804.89675281 0 9349
0.09450000 0.09448040 18478.79722496 0 371.72232998 0 6613.62441349 0 -1004.72480184 0 -96.86229056 0 9564
0.09550000 0.09549270 18085.98890946 0 180.55781335 0 7791.09370220 0 -110.66847030 0 -977.95759537 0 10155
0.09650000 0.09649430 17816.42749831 0 580.04255207 0 7837.15201504 0 440.69665813 0 -474.11502330 0 9913
0.09750000 0.09749140 17579.81980491 0 -87.27231931 0 7457.22860317 0 241.08939902 0 -196.96437096 0 10476
0.09850000 0.09850240 17714.05128185 0 -56.75091548 0 7121.13363590 0 653.55680407 0 -753.60319269 0 10575
0.09950000 0.09950330 17518.30619845 0 236.47368162 0 7541.49125944 0 -61.05170518 0 -190.55706977 0 10882
0.10050000 0.10051200 17445.47848224 0 193.99963482 0 6499.11024433 0 252.44744706 0 -299.36914730 0 10875
0.10150000 0.10150300 17157.57283488 0 250.87335781 0 7947.41515461 0 -92.92289329 0 -388.05858632 0 11118
0.10250000 0.10250800 16553.42134291 0 335.93019868 0 7162.09510705 0 266.50989688 0 49.02810188 0 11575
0.10350000 0.10349800 16369.75928935 0 296.15286445 0 8029.61271124 0 126.25667725 0 1420.78855596 0 11364
0.10450000 0.10450100 16197.41134555 0 -40.56778407 0 6115.88047611 0 881.74592105 0 298.29265919 0 12093
0.10550000 0.10551000 15981.23495714 0 133.34062811 0 6738.92543293 0 1205.09548875 0 1261.28157751 0 12067
0.10650000 0.10649700 15802.84549842 0 -29.41921182 0 6006.39724120 0 314.07309616 0 1592.06001165 0 12054
0.10750000 0.10749900 15928.94839166 0 240.28862367 0 6052.26881630 0 25.15434167 0 1056.60933197 0 12807
0.10850000 0.10850100 15381.14775703 0 23.14174829 0 5177.79797767 0 80.26229463 0 1254.74575682 0 12736
0.10950000 0.10950300 15697.83298455 0 49.77703004 0 4996.02527059 0 114.37686200 0 397.51410640 0 12933
0.11050000 0.11050200 15329.41042017 0 201.96894222 0 5173.17347261 0 -313.43708941 0 -324.47219102 0 13428
0.11150000 0.11150900 15168.04704895 0 479.58973427 0 5621.83833970 0 -252.41669026 0 -735.25895648 0 13453
0.11250000 0.11250000 14772.82212747 0 204.33501916 0 5169.68037853 0 -336.95505930 0 -560.72837810 0 13668
0.11350000 0.11349100 14252.37307857 0 -43.01174163 0 5378.56301074 0 609.09125426 0 -362.06908760 0 13791
0.11450000 0.11448600 14862.67593119 0 -140.20378906 0 4863.15588065 0 765.55330920 0 -530.48565287 0 14205
0.11550000 0.11549300 14654.18874359 0 -52.98221847 0 4363.89607225 0 588.93236666 0 -17.43976650 0 14776
0.11650000 0.11649800 14630.24237537 0 -62.98312258 0 4296.67048806 0 123.69507492 0 320.60342456 0 14553
0.11750000 0.11747300 14738.00103239 0 416.84365877 0 4346.27681783 0 -194.68946597 0 84.10931164 0 14568
0.11850000 0.11849100 14437.90250947 0 178.07310303 0 4803.36685209 0 -181.69801198 0 285.37699875 0 16015
0.11950000 0.11950300 14209.09386260 0 114.47132933 0 5171.78941647 0 -693.92840368 0 -132.55523117 0 15270
0.12050000 0.12050700 13721.48868571 0 372.37481359 0 5287.88536408 0 -531.00082933 0 -305.70285185 0 15999
0.12150000 0.12150000 13632.95303071 0 156.21270514 0 6023.63203558 0 399.60886439 0 248.16346376 0 15670
0.12250000 0.12250700 13758.06731241 0 21.04380477 0 5351.39816274 0 809.13350246 0 -139.27229730 0 16887
0.12350000 0.12352200 13664.47875401 0 -37.78231616 0 5139.98907884 0 540.61782262 0 462.52080694 0 16407
0.12450000 0.12449800 13607.24913086 0 102.59898359 0 4634.47904865 0 281.55766286 0 -153.68295807 0 16306
0.12550000 0.12549900 13399.20132617 0 -12.34127714 0 4556.12609243 0 -18.64081967 0 223.11644136 0 17523
0.12650000 0.12650100 13165.66931309 0 206.46382932 0 4331.79915117 0 436.04908548 0 389.63377403 0 17154
0.12750000 0.12750600 13089.87576228 0 -26.76171418 0 3698.61543386 0 120.56117637 0 218.29091862 0 18007
0.12850000 0.12850300 12962.56456607 0 237.00863030 0 3758.88778362 0 -51.31651788 0 -394.95360253 0 17496
0.12950000 0.12949900 12755.83491008 0 461.93423076 0 3951.60112498 0 -101.14495572 0 166.82160534 0 18405
0.13050000 0.13049000 12249.77565126 0 129.92003221 0 4053.64780427 0 173.25856487 0 202.22048894 0 18100
0.13150000 0.13148800 12108.18451069 0 -125.16810611 0 3909.31052055 0 446.77661906 0 -139.55240390 0 19059
0.13250000 0.13249300 12016.57317536 0 4.53263009 0 3533.01201763 0 267.90823297 0 93.41467261 0 18957
0.13350000 0.13349100 12158.38400739 0 216.82667510 0 3564.52675636 0 -184.95054392 0 -22.13413344 0 19468
0.13450000 0.13450700 11862.56946777 0 145.82569330 0 3314.84742159 0 -218.86760868 0 257.21475156 0 19953
0.13550000 0.13551000 11839.17232817 0 1.45836678 0 3774.09043207 0 37.70048109 0 -398.19514990 0 19956
0.13650000 0.13649900 11816.21457148 0 235.43014722 0 3309.77254906 0 63.75325096 0 -381.25144670 0 19723
0.13750000 0.13749600 11700.76671365 0 -10.37385231 0 3585.36449055 0 191.27875619 0 84.12556881 0 20946
0.13850000 0.13851100 11600.47756598 0 0.12533178 0 3879.80595859 0 -33.13320566 0 -461.96059374 0 20955
0.13950000 0.13949800 11570.81922001 0 267.23268176 0 3558.70493290 0 -44.85242646 0 -478.56047982 0 20506
0.14050000 0.14048300 11304.77287209 0 160.48790079 0 3741.02686860 0 -255.96141183 0 -88.49193641 0 21447
0.14150000 0.14148400 11011.81432134 0 27.23547880 0 3765.55541917 0 547.11300039 0 -13.87417424 0 21771
0.14250000 0.14249400 11208.87755345 0 39.25347997 0 3786.66776768 0 -171.86791798 0 19.98126706 0 22470
0.14350000 0.14350900 11067.83564151 0 165.40679239 0 3870.48005647 0 14.92935229 0 -495.71948065 0 22519
0.14450000 0.14449900 10964.59164382 0 121.08404202 0 3498.94885805 0 217.30999629 0 107.07168185 0 22218
0.14550000 0.14550500 10974.95009576 0 -78.10239812 0 3360.93868814 0 562.87146821 0 90.45531891 0 23559
0.14650000 0.14650700 10690.15308245 0 102.20738358 0 3517.22718683 0 -48.69109519 0 68.59854592 0 23044
0.14750000 0.14750500 10687.56072332 0 201.64929116 0 2938.52694953 0 4.04076290 0 95.70748244 0 23649
0.14850000 0.14849900 10315.24962024 0 13.85154603 0 2920.17172874 0 282.11567915 0 53.16829713 0 23640
0.14950000 0.14949500 10496.92346617 0 49.07467646 0 2741.01334994 0 575.08741138 0 -25.44532300 0 24457
0.15050000 0.15050000 10264.35809547 0 165.76488945 0 2437.05924204 0 -174.61406112 0 350.52320336 0 24591
0.15150000 0.15149900 10131.13719921 0 192.61338176 0 2543.68648809 0 -85.79928813 0 62.98674748 0 25020
0.15250000 0.15250500 9850.84386065 0 64.56116627 0 2520.47608622 0 219.31687770 0 14.53258953 0 25297
0.15350000 0.15350100 9925.96735253 0 50.39337440 0 2447.26390997 0 29.46666518 0 322.14456009 0 25452
0.15450000 0.15450400 9577.22914222 0 -61.44736948 0 2331.17894693 0 224.36978109 0 433.43915103 0 26061
0.15550000 0.15549900 9687.65705038 0 237.15911895 0 2506.02038871 0 -221.13152909 0 53.57121125 0 26128
0.15650000 0.15649500 9440.75681247 0 290.10146342 0 2453.77776151 0 81.64931661 0 687.75177852 0 26331
0.15750000 0.15749700 9276.69123640 0 170.35973616 0 3013.95800944 0 -36.98714295 0 798.19067125 0 27345
0.15850000 0.15849900 9091.43641981 0 70.76942700 0 2949.16001578 0 -68.27911455 0 699.95893403 0 26980
0.15950000 0.15949700 9133.25468763 0 119.47370368 0 2959.86997405 0 64.87532505 0 263.66269567 0 27777
0.16050000 0.16050000 8778.24428637 0 93.62447795 0 2979.06002235 0 1.68884508 0 620.96997105 0 28224
0.16150000 0.16150500 8806.77122137 0 5.35178262 0 2716.45184565 0 297.89721458 0 745.14287488 0 28075
0.16250000 0.16249700 8779.56243508 0 -41.30473905 0 2791.81699813 0 265.60147273 0 1034.26890826 0 28590
0.16350000 0.16349900 8728.02282053 0 80.99057179 0 2253.71574109 0 56.20322469 0 550.98396377 0 29163
0.16450000 0.16449100 8684.46899025 0 161.93456899 0 2612.40597416 0 -147.92374667 0 318.05280681 0 28996
0.16550000 0.16550500 8475.21288257 0 192.36073659 0 2484.51259559 0 26.40196943 0 685.97667159 0 30777
0.16650000 0.16650700 8359.35859556 0 -98.12595579 0 2517.43335962 0 368.96630072 0 1023.86541956 0 29211
0.16750000 0.16749900 8362.93956622 0 13.27375751 0 2132.75362782 0 273.91020343 0 592.26728290 0 30922
0.16850000 0.16850800 8374.94570405 0 125.44052351 0 2044.08615794 0 75.34197503 0 646.56622208 0 30867
0.16950000 0.16949900 8322.32960138 0 133.58338716 0 2051.22613012 0 -192.84735315 0 487.56892780 0 30852
0.17050000 0.17049200 8261.37620813 0 37.64215301 0 2369.63593554 0 -106.15073529 0 753.02430571 0 31257
0.17150000 0.17149500 8093.70769225 0 58.72132811 0 2225.02403750 0 -60.73183442 0 358.23876714 0 32608
0.17250000 0.17250900 7987.02552334 0 -68.66873734 0 1980.81501988 0 64.78744847 0 369.05088193 0 32361
0.17350000 0.17350400 8271.06460115 0 146.22772866 0 2136.15884532 0 174.08680164 0 84.40875109 0 32508
0.17450000 0.17449800 8037.27994290 0 16.72467083 0 1961.55906414 0 -45.33333104 0 466.68835378 0 32791
0.17550000 0.17549800 8098.05758299 0 61.10168498 0 2263.08558150 0 89.34225217 0 154.10147029 0 33633
0.17650000 0.17650100 7966.16582001 0 6.27454164 0 1949.21240456 0 -116.56498886 0 159.00937732 0 33984
0.17750000 0.17750300 7862.09797937 0 176.95816891 0 2312.14268265 0 -300.18749796 0 -5.44799649 0 34069
0.17850000 0.17849800 7696.43964027 0 88.52598858 0 2255.50622642 0 130.02987793 0 253.29216070 0 34536
