### header ###
fiducial parameters:
Omega_m = 0.31
Omega_nu = 0
Omega_de = 0.69
Omega_k = 0
H_0 = 100
w_de = -1
zeff = 0
beta = 0
fgrowth = 0
b_1 = 2
gamma = 0.55
Lx = 3500 Ly = 3500 Lz = 3500
nx = 700 ny = 700 nz = 700
xoffset = -983.599254 yoffset = -42.9823471 zoffset = 800.977702
bins = 400 dk = 0.001
kx_ny = 0.628318531 ky_ny = 0.628318531 kz_ny = 0.628318531
############################
A(data) = 9.12875043 (not used)
A(ran) = 9.13669715 (used)
Ngal = 507719
weighted Ngal = 0
Nran = 25229228
weighted Nran = 0
SN(data) = 6687.93567
SN(ran) = 135.627974
SN(data+ran) = 6823.56365
############################
13 columns: k_central k_mean P_0(k) sigma^{lin}_{P_0(k)} P^img_1(k) sigma^{lin}_{P_1(k)} P_2(k) sigma^{lin}_{P_2(k)} P^img_3(k) sigma^{lin}_{P_3(k)} P_4(k) sigma^{lin}_{P_4(k)} N_modes
### header ###
0.00050000 0 0 0 0 0 0 0 0 0 0 0 0
0.00150000 0.00179520 43624.24139527 0 -49207.04056401 0 -61085.64750775 0 16633.05949412 0 -41579.68290071 0 3
0.00250000 0.00253879 33368.49520470 0 -20742.71763398 0 6416.70398083 0 -31682.47315919 0 -5425.42319737 0 6
0.00350000 0.00331552 43980.14154691 0 5780.94987354 0 11812.58966252 0 -58270.52124661 0 10136.26699460 0 7
0.00450000 0.00420575 56855.81814386 0 -6501.91131034 0 -29256.85984178 0 -4638.44447935 0 -12214.73486473 0 24
0.00550000 0.00557378 72331.32337935 0 -13733.13233265 0 -9086.58123873 0 -4084.20688519 0 -1500.65738320 0 45
0.00650000 0.00659388 85140.43346646 0 7169.36689410 0 -28778.48170586 0 -3961.08081112 0 -1221.22084130 0 40
0.00750000 0.00754703 77484.62576017 0 -5547.84625879 0 3640.36424547 0 -31260.66557207 0 8211.34148002 0 57
0.00850000 0.00846663 67380.35682549 0 7151.86846998 0 11975.16133673 0 -8051.29625751 0 13615.15802312 0 75
0.00950000 0.00948925 66235.54467106 0 8544.27289039 0 25996.85839109 0 -6280.69300312 0 10552.58229544 0 112
0.01050000 0.01054430 63861.33915333 0 2614.91045671 0 39780.19022043 0 -4147.03864035 0 5773.71104021 0 105
0.01150000 0.01145670 71431.57703922 0 3094.13440471 0 44678.76036308 0 9486.02423608 0 -3116.90542367 0 144
0.01250000 0.01249090 65726.95896055 0 3895.68965055 0 48086.72400644 0 7283.39774207 0 11797.21126091 0 169
0.01350000 0.01339930 63378.89672556 0 2003.67391542 0 49669.71076114 0 6432.74145680 0 20514.12867856 0 180
0.01450000 0.01448870 63293.10721370 0 -944.47332277 0 46796.47611104 0 30476.36708976 0 32455.23784029 0 267
0.01550000 0.01550050 75854.95457200 0 -9533.18100617 0 34624.69092510 0 23570.03677069 0 40248.90193248 0 238
0.01650000 0.01653350 72750.38482333 0 -592.58144167 0 22088.98684955 0 13349.88059528 0 30747.79587824 0 315
0.01750000 0.01747870 81645.91139116 0 -1946.60906086 0 8385.26021770 0 8485.10998247 0 34411.26067985 0 297
0.01850000 0.01844180 78244.53849134 0 -801.00382029 0 8805.35421150 0 -3058.64325070 0 24472.41940825 0 388
0.01950000 0.01947590 77527.57543896 0 1360.59309822 0 10339.30583420 0 1549.47282375 0 28412.91513035 0 399
0.02050000 0.02045430 77503.73891646 0 -436.69168297 0 9477.15968601 0 731.61537375 0 15910.71400117 0 462
0.02150000 0.02154770 81564.73539978 0 970.00146945 0 13711.60257039 0 24.76416966 0 467.40454791 0 571
0.02250000 0.02255340 76696.59252318 0 6166.44246371 0 5543.75999779 0 -8807.03485111 0 -5506.75297276 0 510
0.02350000 0.02348930 71785.17043061 0 -1589.24796107 0 11652.43459429 0 -8393.05926423 0 2159.64386150 0 555
0.02450000 0.02439640 71846.57419134 0 -1616.29197876 0 8211.12178857 0 15517.46630276 0 -5007.30642663 0 592
0.02550000 0.02547300 73740.75388727 0 -1018.87073441 0 6749.34979231 0 1002.49932744 0 -13284.19285125 0 837
0.02650000 0.02652900 73584.22372798 0 4860.13512319 0 7553.22278296 0 -10989.62548473 0 -13250.68990487 0 723
0.02750000 0.02749970 68799.01437437 0 5259.90765771 0 17852.78643355 0 -10304.95707574 0 -21026.88852666 0 826
0.02850000 0.02848090 62752.88593415 0 2944.26089641 0 19386.34261164 0 5677.62898384 0 -10212.69765062 0 831
0.02950000 0.02946900 64495.25883700 0 -4948.49502503 0 11515.78651138 0 2940.06478969 0 -20492.04968767 0 996
0.03050000 0.03053250 64400.57182135 0 708.24789250 0 8826.47754458 0 7376.64577871 0 -5830.32552729 0 1041
0.03150000 0.03150510 61674.75013529 0 3725.69240528 0 11346.18471072 0 -3859.00117812 0 -8418.38968861 0 1036
0.03250000 0.03246190 59011.21097577 0 4801.59833590 0 14922.54185175 0 2640.46057253 0 4147.30227009 0 1059
0.03350000 0.03345080 53633.60362284 0 834.89781745 0 13588.68520320 0 -171.42633816 0 -2160.19309013 0 1302
0.03450000 0.03451200 52634.11736367 0 1126.35807249 0 13191.70275011 0 2828.18691795 0 74.16739469 0 1339
0.03550000 0.03553350 53276.49516822 0 1327.43067359 0 15327.87258001 0 -512.46436309 0 966.44796022 0 1365
0.03650000 0.03647120 49028.54125957 0 424.07260599 0 11896.84133422 0 -4144.40234293 0 6500.86777595 0 1308
0.03750000 0.03744890 49377.08174757 0 1423.28205394 0 12680.59058790 0 5637.75498537 0 3315.25385078 0 1579
0.03850000 0.03847530 49853.48266043 0 -16.01177207 0 14908.26190740 0 -539.82473648 0 -1341.06252817 0 1662
0.03950000 0.03950240 46851.50881967 0 1573.41919198 0 12908.74016042 0 1299.29918321 0 1640.39213101 0 1683
0.04050000 0.04050350 46268.44770705 0 329.62505402 0 13798.71023096 0 105.57053016 0 2754.40354392 0 1822
0.04150000 0.04152450 46067.10049164 0 1754.51085556 0 15076.98494225 0 -1406.04725956 0 -1768.07680269 0 1887
0.04250000 0.04250150 42197.34541696 0 1465.16622919 0 17287.41048279 0 -2106.51148392 0 3333.67497899 0 1920
0.04350000 0.04349210 42608.49796868 0 1471.65811159 0 18912.79768765 0 363.59484473 0 -193.17249650 0 2005
0.04450000 0.04448520 39990.32509391 0 24.84347827 0 16227.50907442 0 3637.01395083 0 3729.73472799 0 2151
0.04550000 0.04548030 40997.39070817 0 380.54733559 0 19537.81986753 0 1236.96173381 0 3477.82552498 0 2274
0.04650000 0.04648670 39604.65675058 0 776.41046074 0 15296.23701097 0 946.02654134 0 2104.22669283 0 2311
0.04750000 0.04749250 40106.87140900 0 195.69345591 0 15637.52768107 0 2984.27769433 0 3026.04103928 0 2568
0.04850000 0.04851840 37807.91021345 0 943.17714321 0 14768.31845271 0 -986.84960688 0 5567.78325802 0 2493
0.04950000 0.04949480 37891.50281080 0 1674.58710545 0 16479.38532371 0 720.65496723 0 3344.30804525 0 2644
0.05050000 0.05050630 35158.54115256 0 333.69813353 0 14427.13762834 0 -625.41982141 0 2795.06843161 0 2829
0.05150000 0.05149060 35837.16804663 0 29.58980224 0 14046.19265122 0 2397.07539785 0 2931.06842474 0 2784
0.05250000 0.05249300 35194.46070490 0 -1130.82879353 0 12437.39215095 0 1420.57984908 0 392.20306556 0 3055
0.05350000 0.05348950 36924.97026936 0 142.75989910 0 11759.42433123 0 1152.67710840 0 1321.74066500 0 3009
0.05450000 0.05448610 37022.51327389 0 225.72308043 0 11301.91688322 0 -279.03890037 0 -1170.49408512 0 3336
0.05550000 0.05550870 36002.92524688 0 744.01146391 0 10422.01966573 0 -1635.56990364 0 -1142.60425534 0 3349
0.05650000 0.05647670 35091.64510554 0 613.25001344 0 12556.68460919 0 -532.80998843 0 -1659.53824102 0 3324
0.05750000 0.05747970 34400.93518162 0 -55.33467453 0 13338.12710262 0 1137.27673764 0 -431.02034815 0 3639
0.05850000 0.05849280 33872.79693191 0 1603.24230654 0 15043.81153305 0 -352.13134478 0 -2908.01180689 0 3846
0.05950000 0.05951020 34058.87559144 0 1215.92627732 0 12730.46054742 0 -938.08579382 0 -1175.59092680 0 3787
0.06050000 0.06049470 32803.55863684 0 -805.44488298 0 16279.90548563 0 1524.63670515 0 -1173.44893515 0 3930
0.06150000 0.06148310 32375.05046044 0 -458.20496837 0 13026.27508704 0 2741.45273284 0 1740.88998555 0 4083
0.06250000 0.06249100 32598.80620393 0 -355.19384362 0 12095.22271504 0 1533.85276154 0 1600.22154908 0 4303
0.06350000 0.06350600 32665.48255950 0 1008.60235596 0 10357.52924011 0 1020.61947837 0 1030.23097937 0 4470
0.06450000 0.06451750 33301.15977478 0 1025.92502692 0 11321.46942241 0 1009.33283004 0 2747.04388029 0 4479
0.06550000 0.06550280 31339.75449465 0 -349.65981595 0 9866.66164517 0 -448.81425727 0 1459.01486854 0 4636
0.06650000 0.06648880 30891.69377906 0 772.37802414 0 9730.39802230 0 157.92300309 0 684.92105416 0 4653
0.06750000 0.06749660 30706.49388534 0 192.17180194 0 9832.85113076 0 485.48844975 0 1397.03991004 0 5220
0.06850000 0.06852730 29132.51448016 0 819.24919535 0 11204.15418724 0 -1180.92942908 0 -743.53033963 0 5029
0.06950000 0.06949320 29122.95790201 0 1281.84469738 0 10326.33305398 0 -454.51305353 0 -140.34768696 0 5040
0.07050000 0.07048030 27846.88010524 0 -68.74200444 0 10845.18933986 0 -163.11650900 0 -347.76717410 0 5475
0.07150000 0.07148790 28058.55281888 0 -133.35600651 0 11491.84014315 0 1419.65714499 0 -1106.41008868 0 5509
0.07250000 0.07249820 28378.86295535 0 -127.67808094 0 9704.49640015 0 1575.00097043 0 -1908.77819289 0 5916
0.07350000 0.07351270 28123.25195138 0 486.65391290 0 9670.68588574 0 -143.69688314 0 -226.72047962 0 5721
0.07450000 0.07449140 27043.79800382 0 810.77349914 0 8710.00812150 0 -508.18367516 0 -98.83237365 0 6028
0.07550000 0.07549160 25994.00240222 0 299.18350803 0 10738.27649492 0 -212.79204159 0 361.01566709 0 6183
0.07650000 0.07648840 26371.98154474 0 658.81731588 0 10209.81969261 0 886.56595150 0 -1274.06761999 0 6330
0.07750000 0.07749960 25408.30499218 0 367.95242467 0 10978.35531326 0 -379.56311789 0 -371.07533866 0 6583
0.07850000 0.07848650 24245.03875581 0 734.36151690 0 10469.44006557 0 -177.99730948 0 362.44475998 0 6549
0.07950000 0.07947320 24010.40828548 0 389.61729717 0 11000.71990304 0 461.19167366 0 197.25436367 0 6828
0.08050000 0.08048110 24394.42894292 0 -144.80083268 0 10234.21642831 0 2328.32295806 0 1084.38492220 0 7147
0.08150000 0.08149960 23660.54964876 0 -736.41563197 0 8760.94358456 0 947.41608977 0 762.45785664 0 7386
0.08250000 0.08250610 23397.46913544 0 477.37194907 0 7908.59567511 0 915.23568593 0 2382.29016315 0 7227
0.08350000 0.08350160 23752.05113836 0 568.17811523 0 8171.17089809 0 242.48114436 0 2153.05311795 0 7798
0.08450000 0.08449610 23501.05365488 0 701.07167123 0 7324.63382754 0 342.33749987 0 2696.67961500 0 7371
0.08550000 0.08548940 22306.26169521 0 133.17036723 0 8240.86801112 0 1041.39460049 0 3517.26014055 0 8256
0.08650000 0.08650700 22563.08100216 0 -27.65761592 0 7413.11455968 0 -858.88482859 0 1893.49865243 0 8037
0.08750000 0.08749060 21947.28586325 0 402.37697668 0 6780.33727156 0 606.33192963 0 1486.44334628 0 8155
0.08850000 0.08849210 21551.29202169 0 73.05355903 0 7938.40780509 0 -450.78928342 0 1081.49817653 0 8718
0.08950000 0.08949900 21167.16151852 0 763.85948811 0 7741.61918730 0 -1058.06039401 0 1176.05227885 0 8571
0.09050000 0.09049190 20694.71505180 0 248.54682534 0 8180.07938646 0 478.69668852 0 828.24775721 0 8932
0.09150000 0.09150830 20477.98943477 0 21.66234605 0 7836.60278641 0 535.42321825 0 -431.24333497 0 9285
0.09250000 0.09250820 20198.98129120 0 348.36693176 0 7979.65487514 0 104.50656446 0 133.34941577 0 9204
0.09350000 0.09350330 20261.59335492 0 448.09366931 0 7933.57459316 0 -711.80469710 0 -437.59461484 0 9349
0.09450000 0.09448040 19029.01446556 0 356.57570285 0 7852.80503097 0 549.56805236 0 4.34291554 0 9564
0.09550000 0.09549270 19036.70366637 0 55.61840604 0 7988.37662577 0 -243.48733121 0 -839.34217551 0 10155
0.09650000 0.09649430 18921.14596282 0 141.13967464 0 7878.94831371 0 834.22666006 0 45.65979254 0 9913
0.09750000 0.09749140 18663.77742723 0 259.44242288 0 7786.45821258 0 -19.76563990 0 -1106.57485727 0 10476
0.09850000 0.09850240 18171.33903841 0 222.93409745 0 7618.83363498 0 512.69943295 0 409.10063356 0 10575
0.09950000 0.09950330 17853.22581646 0 423.70352435 0 7367.27593830 0 367.11979407 0 -182.74923558 0 10882
0.10050000 0.10051200 17624.41716959 0 363.79696086 0 7582.24402372 0 138.57477694 0 775.37132017 0 10875
0.10150000 0.10150300 16951.61209898 0 237.44032400 0 7270.87532932 0 -635.12578974 0 -47.41776354 0 11118
0.10250000 0.10250800 16415.56495701 0 480.75409897 0 7904.87190500 0 631.78867659 0 347.45521223 0 11575
0.10350000 0.10349800 16522.77438540 0 183.68072733 0 7612.77015092 0 -132.35641040 0 345.38242339 0 11364
0.10450000 0.10450100 16002.54502795 0 81.17643076 0 7586.68179104 0 659.57854676 0 -77.07369290 0 12093
0.10550000 0.10551000 15855.02221818 0 -73.36585043 0 6595.49986873 0 581.08828338 0 316.06899300 0 12067
0.10650000 0.10649700 15321.72121936 0 252.41888718 0 6687.58354068 0 446.01978201 0 380.14969407 0 12054
0.10750000 0.10749900 15745.28633810 0 153.46656199 0 6028.87167670 0 417.02160885 0 286.37769331 0 12807
0.10850000 0.10850100 15715.84768358 0 -163.51305207 0 5699.85077417 0 1017.67231754 0 350.37271471 0 12736
0.10950000 0.10950300 15375.10624211 0 57.79423018 0 4797.07269200 0 487.81168685 0 327.78623657 0 12933
0.11050000 0.11050200 15174.30825532 0 10.70325768 0 4843.73515632 0 -237.98406035 0 477.64107110 0 13428
0.11150000 0.11150900 15258.45008129 0 317.04552150 0 4140.46986595 0 18.37675055 0 306.65082047 0 13453
0.11250000 0.11250000 14649.02599448 0 116.51116446 0 4865.08916542 0 331.79560556 0 467.11894902 0 13668
0.11350000 0.11349100 14793.25343247 0 187.81312354 0 4031.81047397 0 -148.91345666 0 176.86150467 0 13791
0.11450000 0.11448600 14836.86218562 0 31.58844522 0 4334.73203205 0 435.90628603 0 97.75621508 0 14205
0.11550000 0.11549300 14695.82027368 0 -77.81965522 0 3907.57495808 0 250.89093313 0 -573.43862704 0 14776
0.11650000 0.11649800 14752.28097674 0 55.84655562 0 3952.73253596 0 170.18398300 0 346.44682847 0 14553
0.11750000 0.11747300 14528.63507899 0 132.75405193 0 3870.04067357 0 62.10095155 0 400.45247957 0 14568
0.11850000 0.11849100 14203.49173058 0 264.40964661 0 4375.11132086 0 -319.91029803 0 257.73102648 0 16015
0.11950000 0.11950300 14064.64673315 0 474.24134588 0 4504.02626467 0 -689.84763497 0 -54.34265778 0 15270
0.12050000 0.12050700 13429.73843795 0 284.41584865 0 5265.18025255 0 255.19468867 0 352.77723765 0 15999
0.12150000 0.12150000 13587.25720877 0 -59.24979589 0 5056.64912667 0 104.55972980 0 34.65248189 0 15670
0.12250000 0.12250700 13524.42545360 0 258.44612215 0 4954.13011077 0 228.73834560 0 644.76035835 0 16887
0.12350000 0.12352200 13185.66123519 0 -306.76945385 0 4840.96704403 0 291.40203681 0 475.67263569 0 16407
0.12450000 0.12449800 13444.56761094 0 74.71354764 0 4748.40005089 0 41.43842130 0 143.77377515 0 16306
0.12550000 0.12549900 13452.47650319 0 313.65787932 0 4417.47881730 0 211.50135431 0 374.23450173 0 17523
0.12650000 0.12650100 13321.76008948 0 29.18974410 0 4802.86156175 0 -245.69632876 0 191.45780472 0 17154
0.12750000 0.12750600 12861.94588122 0 109.43336496 0 4795.38106782 0 -125.48446180 0 266.38906658 0 18007
0.12850000 0.12850300 12592.16477862 0 305.98186000 0 4805.69558147 0 121.19169083 0 33.94320804 0 17496
0.12950000 0.12949900 12528.45425765 0 -5.31161204 0 4305.58996099 0 566.93026778 0 200.39265606 0 18405
0.13050000 0.13049000 12623.47081048 0 89.97836877 0 4626.55917182 0 413.73063090 0 582.53605005 0 18100
0.13150000 0.13148800 12455.84623289 0 23.06496612 0 3846.94011743 0 290.88795881 0 157.39464515 0 19059
0.13250000 0.13249300 12711.56708258 0 -131.89615681 0 3804.30899124 0 150.83355994 0 453.92428044 0 18957
0.13350000 0.13349100 12505.27680950 0 56.85197354 0 3622.85483677 0 58.72165764 0 430.33820619 0 19468
0.13450000 0.13450700 12245.16213078 0 265.48503626 0 3697.00070169 0 38.51784314 0 853.66056587 0 19953
0.13550000 0.13551000 11982.19146318 0 257.91227192 0 3542.84321009 0 110.46745262 0 975.43883288 0 19956
0.13650000 0.13649900 11931.55258358 0 172.27434716 0 4085.44814189 0 414.85435268 0 758.43750308 0 19723
0.13750000 0.13749600 11663.52901260 0 192.25967852 0 3682.97340251 0 33.67858969 0 1518.14482275 0 20946
0.13850000 0.13851100 11621.23840816 0 -84.79112406 0 3569.72245919 0 310.21751118 0 1116.66967947 0 20955
0.13950000 0.13949800 11542.25933130 0 34.90238092 0 3592.88892277 0 -36.77096656 0 1234.13869866 0 20506
0.14050000 0.14048300 11202.28680991 0 379.94757793 0 3476.08996251 0 -325.85844408 0 756.20433947 0 21447
0.14150000 0.14148400 11041.58251304 0 89.30270771 0 3785.27272696 0 257.70576196 0 1960.21894629 0 21771
0.14250000 0.14249400 11138.79598039 0 -41.72698602 0 3270.41482550 0 250.74483831 0 467.39466179 0 22470
0.14350000 0.14350900 11112.54285192 0 -79.61244731 0 3149.87012599 0 303.42135613 0 1007.52147402 0 22519
0.14450000 0.14449900 10890.13821086 0 347.99016092 0 2984.04701830 0 53.83857575 0 961.19953144 0 22218
0.14550000 0.14550500 10470.23095479 0 282.01462108 0 3442.35634011 0 -621.56643334 0 1098.91861018 0 23559
0.14650000 0.14650700 10240.77421814 0 140.64207350 0 3381.40294686 0 277.09133565 0 573.35404583 0 23044
0.14750000 0.14750500 10383.05738679 0 -73.69802390 0 3650.21740707 0 25.60668637 0 459.16392156 0 23649
0.14850000 0.14849900 10446.26261742 0 34.85514726 0 3353.06274960 0 -124.44092740 0 428.35219547 0 23640
0.14950000 0.14949500 10133.57577432 0 49.33138593 0 3208.49478986 0 -91.61254363 0 -267.03056562 0 24457
0.15050000 0.15050000 10151.28290532 0 161.20519337 0 3258.13407335 0 316.15027884 0 126.27205565 0 24591
0.15150000 0.15149900 10186.77405933 0 66.72029386 0 3098.01195883 0 -158.03943956 0 -198.49781729 0 25020
0.15250000 0.15250500 9919.33267069 0 132.70791673 0 3321.24044283 0 192.24539858 0 -98.70978582 0 25297
0.15350000 0.15350100 9741.42653317 0 94.70239405 0 3094.09046642 0 138.25622434 0 210.04809536 0 25452
0.15450000 0.15450400 9719.32557313 0 117.33720431 0 3091.97044391 0 187.44953419 0 -1.79664768 0 26061
0.15550000 0.15549900 9654.19804230 0 -54.97339194 0 2533.07539098 0 211.49586202 0 157.12003083 0 26128
0.15650000 0.15649500 9653.84653598 0 -39.31620187 0 2499.19896913 0 510.60247804 0 -72.94986466 0 26331
0.15750000 0.15749700 9516.23181068 0 301.32440122 0 2591.59020912 0 -383.33192474 0 278.40728745 0 27345
0.15850000 0.15849900 9179.62056849 0 369.24311195 0 2941.78936758 0 -838.64355670 0 -255.82630159 0 26980
0.15950000 0.15949700 8898.72307844 0 75.52113341 0 2863.50231879 0 165.64845298 0 -268.55961813 0 27777
0.16050000 0.16050000 8966.28918439 0 -61.88543424 0 3324.40399974 0 225.79448015 0 -654.97710931 0 28224
0.16150000 0.16150500 8853.18104052 0 106.87637615 0 3037.42105648 0 35.15733285 0 -190.11548995 0 28075
0.16250000 0.16249700 8848.69933491 0 -2.85095794 0 2892.52355955 0 468.52167894 0 238.89028758 0 28590
0.16350000 0.16349900 8864.75878002 0 -3.46865341 0 2585.38392561 0 103.75049633 0 -275.18002002 0 29163
0.16450000 0.16449100 8577.55614531 0 69.80234523 0 2534.39353969 0 322.37633457 0 -38.35032841 0 28996
0.16550000 0.16550500 8797.88470215 0 184.50127491 0 2564.39240740 0 57.97261964 0 222.71330754 0 30777
0.16650000 0.16650700 8551.05037167 0 152.13413334 0 2515.79665831 0 -207.84898393 0 358.47493545 0 29211
0.16750000 0.16749900 8245.73417677 0 13.87768931 0 2351.35760676 0 121.07964819 0 234.91606922 0 30922
0.16850000 0.16850800 8297.01016158 0 56.39973869 0 2366.24170261 0 315.70760056 0 248.93677767 0 30867
0.16950000 0.16949900 8145.28026052 0 131.29310378 0 2277.14583440 0 16.42578061 0 248.86098412 0 30852
0.17050000 0.17049200 8142.77577797 0 -11.13615968 0 2170.52957293 0 39.63826954 0 419.58650655 0 31257
0.17150000 0.17149500 8005.00726865 0 33.21811641 0 1886.18292709 0 289.73457869 0 168.15623090 0 32608
0.17250000 0.17250900 8054.52572185 0 81.07866806 0 1988.39437496 0 -68.25956201 0 49.27887967 0 32361
0.17350000 0.17350400 8040.47645352 0 83.62906612 0 1851.13115598 0 -171.53069160 0 -43.96366469 0 32508
0.17450000 0.17449800 7919.83289286 0 33.41419103 0 2033.44210711 0 92.72670883 0 143.90668847 0 32791
0.17550000 0.17549800 8011.56505848 0 -71.94741257 0 1739.33017625 0 158.18114054 0 248.74125228 0 33633
0.17650000 0.17650100 8139.77698965 0 4.67243075 0 1664.38243753 0 107.83368165 0 -289.11834417 0 33984
0.17750000 0.17750300 7903.31209570 0 135.69681893 0 1773.32742839 0 -199.43480133 0 -90.50749563 0 34069
0.17850000 0.17849800 7702.89856895 0 154.88906414 0 2172.17725882 0 -321.90070258 0 -303.24670142 0 34536
