### header ###
fiducial parameters:
Omega_m = 0.31
Omega_nu = 0
Omega_de = 0.69
Omega_k = 0
H_0 = 100
w_de = -1
zeff = 0
beta = 0
fgrowth = 0
b_1 = 2
gamma = 0.55
Lx = 3500 Ly = 3500 Lz = 3500
nx = 700 ny = 700 nz = 700
xoffset = -983.599254 yoffset = -42.9823471 zoffset = 800.977702
bins = 400 dk = 0.001
kx_ny = 0.628318531 ky_ny = 0.628318531 kz_ny = 0.628318531
############################
A(data) = 9.0975097 (not used)
A(ran) = 9.09492068 (used)
Ngal = 505256
weighted Ngal = 0
Nran = 25229228
weighted Nran = 0
SN(data) = 6697.16961
SN(ran) = 135.007832
SN(data+ran) = 6832.17744
############################
13 columns: k_central k_mean P_0(k) sigma^{lin}_{P_0(k)} P^img_1(k) sigma^{lin}_{P_1(k)} P_2(k) sigma^{lin}_{P_2(k)} P^img_3(k) sigma^{lin}_{P_3(k)} P_4(k) sigma^{lin}_{P_4(k)} N_modes
### header ###
0.00050000 0 0 0 0 0 0 0 0 0 0 0 0
0.00150000 0.00179520 8798.20325475 0 -17797.53403347 0 -14949.34420885 0 -28361.17779350 0 -88127.02890560 0 3
0.00250000 0.00253879 28020.21666057 0 -30699.02437598 0 -49307.11002023 0 37023.83142259 0 45699.55669307 0 6
0.00350000 0.00331552 40826.91014171 0 -21214.72471780 0 -326.08472628 0 -70756.79474554 0 -76264.02005493 0 7
0.00450000 0.00420575 49699.25926138 0 -3287.11137582 0 -22475.86349586 0 -24834.58076626 0 5067.77649869 0 24
0.00550000 0.00557378 58432.87322936 0 3604.98293718 0 -11004.23496626 0 -26620.89195943 0 -9806.92753947 0 45
0.00650000 0.00659388 45802.26244670 0 -1260.68841059 0 -1516.59599802 0 -4900.86591832 0 5189.54048576 0 40
0.00750000 0.00754703 56307.46828059 0 2788.23602747 0 22336.90865271 0 -7132.83220570 0 -34400.27610727 0 57
0.00850000 0.00846663 56945.23256467 0 -9974.71688565 0 -3692.72770296 0 -8076.60471274 0 -18166.28613503 0 75
0.00950000 0.00948925 60577.28148869 0 1059.65864932 0 11076.84299103 0 -10088.98939421 0 -19622.84045931 0 112
0.01050000 0.01054430 58184.95142620 0 7211.77832884 0 25014.39821941 0 -8165.65664266 0 -23385.93533423 0 105
0.01150000 0.01145670 70446.26087867 0 -5251.01015392 0 17209.52986319 0 9064.26058725 0 -15548.33295171 0 144
0.01250000 0.01249090 74457.60709393 0 -10244.77260256 0 20029.70902772 0 1500.81116722 0 -28256.49481680 0 169
0.01350000 0.01339930 63589.03159904 0 2877.87013973 0 -838.47659119 0 -947.07337110 0 -13938.21430274 0 180
0.01450000 0.01448870 77942.79228253 0 2553.02337478 0 16271.11782757 0 4513.26429021 0 -6920.37958740 0 267
0.01550000 0.01550050 72820.46639640 0 -2050.60000949 0 4418.05001508 0 -8490.07500927 0 -13087.78869349 0 238
0.01650000 0.01653350 72677.66695284 0 3306.89459104 0 23280.04405454 0 -8775.95949528 0 -15170.02427201 0 315
0.01750000 0.01747870 63916.70139914 0 1405.60787665 0 14106.93733759 0 -7307.75053948 0 -22499.59017264 0 297
0.01850000 0.01844180 73379.58114079 0 -1106.06956693 0 10168.38588483 0 2566.40258419 0 -16128.09869256 0 388
0.01950000 0.01947590 71808.45772448 0 -4754.57338068 0 15320.84245355 0 4626.85575528 0 -31249.35146231 0 399
0.02050000 0.02045430 76235.35032049 0 7871.01745231 0 25995.10085947 0 -13527.94051683 0 -34013.61915240 0 462
0.02150000 0.02154770 68729.92141284 0 3721.35349911 0 20431.63453848 0 -4855.85113988 0 -13289.90482899 0 571
0.02250000 0.02255340 68646.76819839 0 -5226.53652621 0 35728.09124090 0 10548.02369782 0 -26103.95797376 0 510
0.02350000 0.02348930 69686.23830177 0 -64.28204828 0 15194.41002314 0 792.64126518 0 -29389.55347856 0 555
0.02450000 0.02439640 71153.00827855 0 4747.35651650 0 25583.94830775 0 -5067.35908493 0 -22190.37445447 0 592
0.02550000 0.02547300 62822.85766149 0 3225.86139911 0 24397.72431470 0 -2482.57931082 0 -11394.73652153 0 837
0.02650000 0.02652900 61936.18296273 0 3031.54431014 0 31625.02384459 0 5296.55219184 0 -15452.21794163 0 723
0.02750000 0.02749970 62852.84554464 0 -1779.65454219 0 24796.02491650 0 72.07746991 0 -12084.78737109 0 826
0.02850000 0.02848090 59606.46496395 0 -3132.62434704 0 19801.12007231 0 12154.20986980 0 -4165.28401541 0 831
0.02950000 0.02946900 60430.96698190 0 1775.98569495 0 15449.80133566 0 -0.92145954 0 -8050.90081290 0 996
0.03050000 0.03053250 60289.70537851 0 2869.24725025 0 17880.68724791 0 -1936.29454720 0 -7913.81334708 0 1041
0.03150000 0.03150510 59242.87561151 0 4254.19314588 0 19778.05246989 0 666.46697223 0 -6720.84482646 0 1036
0.03250000 0.03246190 57292.67459542 0 -1681.05701870 0 18763.40750055 0 5042.83053436 0 -947.20079215 0 1059
0.03350000 0.03345080 53844.61726213 0 -243.74546867 0 18734.29838321 0 1247.16640174 0 2456.78753440 0 1302
0.03450000 0.03451200 52534.15775318 0 3049.49310174 0 17078.81344947 0 4741.15023299 0 -1099.92919086 0 1339
0.03550000 0.03553350 48219.08810605 0 3246.97374761 0 23488.86077932 0 -6409.20151775 0 2844.59786938 0 1365
0.03650000 0.03647120 46007.01487962 0 5156.45495314 0 26200.29267529 0 -2007.29882437 0 4327.60304444 0 1308
0.03750000 0.03744890 44139.52769506 0 -295.77938898 0 26105.82535109 0 6246.01470749 0 9039.33659206 0 1579
0.03850000 0.03847530 44882.30449301 0 -4288.84947238 0 20946.92083827 0 8414.19358188 0 9402.58542275 0 1662
0.03950000 0.03950240 48780.72930213 0 574.75128346 0 17806.10200008 0 3938.77114421 0 8197.13842767 0 1683
0.04050000 0.04050350 46475.39705449 0 2199.66065941 0 15757.03983076 0 -1352.21186934 0 10580.03274232 0 1822
0.04150000 0.04152450 44128.76281393 0 2099.33855803 0 24061.59639371 0 -2720.60401408 0 7756.25063798 0 1887
0.04250000 0.04250150 43599.52610696 0 857.54361228 0 18904.88879539 0 -88.04947782 0 7559.83549565 0 1920
0.04350000 0.04349210 42510.62542698 0 -483.98905559 0 22736.08802032 0 -503.73162789 0 3118.95953875 0 2005
0.04450000 0.04448520 42313.56219487 0 -64.65695175 0 18870.06770031 0 4823.32582047 0 6270.18076716 0 2151
0.04550000 0.04548030 41683.04772870 0 403.90712765 0 17893.09981493 0 2775.53786156 0 2465.13580956 0 2274
0.04650000 0.04648670 40632.92258992 0 774.71773810 0 15582.38512672 0 56.60053668 0 3415.07066182 0 2311
0.04750000 0.04749250 42195.91742252 0 1433.39884528 0 18194.51648656 0 -1835.51109377 0 -207.08116230 0 2568
0.04850000 0.04851840 37808.23975063 0 763.14329397 0 17549.06300168 0 305.81159912 0 3097.59454508 0 2493
0.04950000 0.04949480 38190.83241364 0 261.46797807 0 16714.01579405 0 3040.12326133 0 4666.16954055 0 2644
0.05050000 0.05050630 37709.04906022 0 492.74485840 0 17077.49530076 0 1019.13546261 0 1665.85437025 0 2829
0.05150000 0.05149060 38724.02356674 0 -531.04037379 0 14942.31408240 0 1419.02003978 0 -985.69732522 0 2784
0.05250000 0.05249300 37091.16685252 0 391.01892864 0 13676.01255522 0 2006.28824369 0 4769.79799828 0 3055
0.05350000 0.05348950 35763.90094751 0 551.88469872 0 15191.44418855 0 901.60932365 0 7464.81894282 0 3009
0.05450000 0.05448610 38102.51645008 0 -43.60183287 0 13354.93349867 0 1381.51870898 0 1493.23181214 0 3336
0.05550000 0.05550870 36758.88353193 0 1260.39182713 0 15114.88171765 0 -3436.62239323 0 -2102.18356233 0 3349
0.05650000 0.05647670 35395.91776604 0 1877.71382163 0 16179.50649224 0 -4324.43948754 0 1600.37533309 0 3324
0.05750000 0.05747970 33237.55909953 0 -254.10941290 0 19264.41385598 0 451.85698388 0 722.02254652 0 3639
0.05850000 0.05849280 33490.64365181 0 -384.93786925 0 16180.49510377 0 2895.01705753 0 -2285.68084730 0 3846
0.05950000 0.05951020 35044.63113489 0 869.05214897 0 16292.64758983 0 3060.77425778 0 -2027.59831450 0 3787
0.06050000 0.06049470 34626.99768535 0 364.61970535 0 16226.63030861 0 -324.80941740 0 -1697.47895471 0 3930
0.06150000 0.06148310 33784.26127691 0 127.22771347 0 14723.94077948 0 1528.43736726 0 243.82785296 0 4083
0.06250000 0.06249100 31769.36112831 0 697.07768064 0 14616.62150536 0 764.41860285 0 2889.00849633 0 4303
0.06350000 0.06350600 31389.95399135 0 -100.93284362 0 12056.55701956 0 3000.20532457 0 1197.50514910 0 4470
0.06450000 0.06451750 31904.25167961 0 515.61473851 0 13248.93237326 0 1135.26656085 0 1864.90581000 0 4479
0.06550000 0.06550280 31067.55678609 0 287.11805350 0 11314.43929596 0 471.52486108 0 4454.70553378 0 4636
0.06650000 0.06648880 31180.69788368 0 -413.81411366 0 10457.15931342 0 1112.94590937 0 1235.83032284 0 4653
0.06750000 0.06749660 30858.08098696 0 161.93456899 0 9750.09336093 0 -1502.33802281 0 37.29954419 0 5220
0.06850000 0.06852730 29845.63293214 0 1226.93281905 0 9886.82932043 0 -271.99339552 0 -1733.59622936 0 5029
0.06950000 0.06949320 29701.29564842 0 233.59901897 0 12237.25323852 0 -214.39029690 0 444.40285292 0 5040
0.07050000 0.07048030 29041.01299056 0 269.28350146 0 10593.40096715 0 235.79153966 0 -1995.25973282 0 5475
0.07150000 0.07148790 29639.12296761 0 323.71205860 0 11308.17808959 0 769.39681114 0 -3290.61545448 0 5509
0.07250000 0.07249820 29010.03649588 0 286.12285123 0 10853.94404421 0 -438.55137111 0 -1952.00248600 0 5916
0.07350000 0.07351270 27188.46482471 0 239.66689687 0 10361.31891765 0 848.38577412 0 -232.01943743 0 5721
0.07450000 0.07449140 26957.67895478 0 1022.84714969 0 11065.96826417 0 690.32216850 0 388.59573192 0 6028
0.07550000 0.07549160 27404.53136739 0 -157.59785974 0 9806.14763482 0 173.86271636 0 -1869.26668531 0 6183
0.07650000 0.07648840 26640.11496145 0 707.64264255 0 10213.48853985 0 1198.43883777 0 -1212.89453529 0 6330
0.07750000 0.07749960 25627.88659808 0 527.93942895 0 10360.36325984 0 -827.88966014 0 1304.90131523 0 6583
0.07850000 0.07848650 25108.31631498 0 275.92147867 0 9904.88795775 0 1024.40146671 0 901.81473515 0 6549
0.07950000 0.07947320 25203.55255926 0 91.63198632 0 9365.86399661 0 1222.84655805 0 -585.53703528 0 6828
0.08050000 0.08048110 24568.31472688 0 711.25546847 0 9943.58660695 0 478.69119624 0 1612.08488747 0 7147
0.08150000 0.08149960 24098.06517468 0 275.44804359 0 9472.99653300 0 -253.21526869 0 1174.77806843 0 7386
0.08250000 0.08250610 22841.64976282 0 545.04240846 0 9522.38317132 0 855.94645543 0 1200.76756716 0 7227
0.08350000 0.08350160 22405.89176852 0 356.10007086 0 8877.77549853 0 644.09798862 0 3328.61109103 0 7798
0.08450000 0.08449610 22439.72425207 0 -244.01568915 0 8835.08944948 0 1288.31461063 0 1160.93750698 0 7371
0.08550000 0.08548940 22810.67326814 0 387.84878099 0 8393.53160086 0 849.35681034 0 3649.17387268 0 8256
0.08650000 0.08650700 21545.47019822 0 262.36651611 0 7336.84867225 0 -270.87077220 0 1822.19779180 0 8037
0.08750000 0.08749060 21670.69432565 0 239.00013331 0 8125.09061611 0 382.73326554 0 2500.08871951 0 8155
0.08850000 0.08849210 20767.10338511 0 321.25151434 0 7119.56284202 0 -107.37068192 0 1156.85124598 0 8718
0.08950000 0.08949900 20602.88402502 0 269.91072055 0 7236.82315432 0 421.13313437 0 2386.29953214 0 8571
0.09050000 0.09049190 20155.92176668 0 260.89678029 0 6971.89723281 0 465.58769960 0 2269.02823527 0 8932
0.09150000 0.09150830 20275.98314500 0 393.53329730 0 6693.51520988 0 2.43587291 0 481.23522325 0 9285
0.09250000 0.09250820 19736.64063125 0 540.53433987 0 7336.95851797 0 -138.67034272 0 781.38757057 0 9204
0.09350000 0.09350330 19105.79662791 0 136.74474715 0 6619.22654551 0 -771.76618345 0 -1092.44430310 0 9349
0.09450000 0.09448040 18253.50364132 0 122.67460813 0 6376.05007770 0 1171.15315948 0 1057.80884730 0 9564
0.09550000 0.09549270 18384.65943794 0 94.22039101 0 6158.85212405 0 894.48143450 0 598.66799334 0 10155
0.09650000 0.09649430 18246.36366914 0 529.30590978 0 5488.28790625 0 203.02126428 0 579.76574084 0 9913
0.09750000 0.09749140 18033.04326961 0 300.70157596 0 6169.97949608 0 -377.73638347 0 252.78687036 0 10476
0.09850000 0.09850240 16845.06174494 0 99.16213052 0 5418.37110177 0 467.19254566 0 1149.64536636 0 10575
0.09950000 0.09950330 16783.10875558 0 265.59158662 0 6261.50295483 0 -164.34458422 0 520.60063601 0 10882
0.10050000 0.10051200 16710.72042227 0 339.71218702 0 5843.04566234 0 254.73223816 0 656.53801707 0 10875
0.10150000 0.10150300 16496.74094839 0 193.96558264 0 5910.45798427 0 -149.82297927 0 323.41437668 0 11118
0.10250000 0.10250800 16580.22370001 0 126.08751483 0 6981.38790352 0 63.98952912 0 1178.19427050 0 11575
0.10350000 0.10349800 16199.82795151 0 312.36389667 0 6192.88232991 0 131.58529341 0 638.05098142 0 11364
0.10450000 0.10450100 16029.89661368 0 -225.31225742 0 6306.79234758 0 40.03448308 0 1381.01341864 0 12093
0.10550000 0.10551000 15638.73598406 0 -54.74754913 0 6212.89622115 0 617.74709746 0 54.19513497 0 12067
0.10650000 0.10649700 16096.24343207 0 478.31222848 0 6393.37274866 0 -73.74800371 0 850.65408836 0 12054
0.10750000 0.10749900 15269.43465387 0 399.16069383 0 6627.93731157 0 -391.80762095 0 1524.27421425 0 12807
0.10850000 0.10850100 15286.68043283 0 198.83724058 0 6747.94376702 0 242.78102319 0 927.61529923 0 12736
0.10950000 0.10950300 15423.54820719 0 -110.59487366 0 6430.63241886 0 126.11058243 0 -15.04073585 0 12933
0.11050000 0.11050200 15248.56396597 0 -223.65029159 0 5836.14735076 0 701.24083365 0 528.56554958 0 13428
0.11150000 0.11150900 15247.79504589 0 63.74149747 0 5769.55887177 0 329.92822822 0 780.40115596 0 13453
0.11250000 0.11250000 15233.07571863 0 259.28534350 0 5041.56730851 0 374.45199627 0 983.60586260 0 13668
0.11350000 0.11349100 15205.61428718 0 43.48440779 0 5282.36012407 0 83.90928257 0 70.18977111 0 13791
0.11450000 0.11448600 14944.18145974 0 -14.47876512 0 4600.10832104 0 606.83502306 0 1167.62711168 0 14205
0.11550000 0.11549300 14689.33937585 0 65.99739914 0 4278.42511300 0 342.74502751 0 945.50477414 0 14776
0.11650000 0.11649800 14480.52265108 0 412.43994363 0 4864.10055389 0 -92.47395381 0 665.64642466 0 14553
0.11750000 0.11747300 14585.09578206 0 366.64526053 0 4723.31128711 0 322.00835139 0 1114.91214786 0 14568
0.11850000 0.11849100 14072.11624251 0 -62.56109530 0 4455.91383677 0 -274.71537260 0 1066.21204532 0 16015
0.11950000 0.11950300 13719.29177119 0 -27.60609827 0 4280.08378346 0 575.32248123 0 760.69483275 0 15270
0.12050000 0.12050700 13966.00527137 0 -68.60557605 0 3901.14898312 0 479.37553511 0 916.08589185 0 15999
0.12150000 0.12150000 13797.83146515 0 219.20153969 0 3924.61203015 0 67.81007330 0 1410.36419658 0 15670
0.12250000 0.12250700 13641.96038022 0 281.57194281 0 3857.86976715 0 -316.14478655 0 825.07541264 0 16887
0.12350000 0.12352200 13162.81332422 0 328.88469383 0 4307.85278294 0 -333.72889034 0 758.55723492 0 16407
0.12450000 0.12449800 13156.33242640 0 320.71876257 0 4462.43867288 0 -257.83647837 0 422.88407524 0 16306
0.12550000 0.12549900 12681.79889089 0 101.01984144 0 4920.91276328 0 199.03276597 0 1059.54770514 0 17523
0.12650000 0.12650100 12658.62144274 0 -113.45745328 0 4547.54714124 0 634.55788734 0 1029.02487330 0 17154
0.12750000 0.12750600 12884.46425501 0 -85.87815736 0 4300.64690333 0 416.98206439 0 928.16782323 0 18007
0.12850000 0.12850300 13082.95548156 0 -49.69387682 0 3901.90691863 0 207.84239318 0 1007.56541231 0 17496
0.12950000 0.12949900 12853.37791461 0 128.47006863 0 3985.03816392 0 -318.72506265 0 1153.29224446 0 18405
0.13050000 0.13049000 12558.66183225 0 225.87796290 0 4217.63648833 0 -361.47372376 0 990.87764964 0 18100
0.13150000 0.13148800 12395.43108369 0 142.08434788 0 4116.24888341 0 171.57902372 0 486.86811207 0 19059
0.13250000 0.13249300 12617.53914129 0 -71.61732616 0 3996.04470565 0 445.41563052 0 277.50325712 0 18957
0.13350000 0.13349100 12742.76326871 0 52.01843207 0 3971.66993909 0 193.22851782 0 303.17969553 0 19468
0.13450000 0.13450700 12236.92370134 0 188.86764251 0 4041.52083614 0 -163.56577802 0 517.96104321 0 19953
0.13550000 0.13551000 11979.00593713 0 277.22315052 0 3987.83922993 0 -16.87252318 0 648.50499914 0 19956
0.13650000 0.13649900 11868.72082842 0 203.58477285 0 4002.22902001 0 68.22001755 0 603.52537134 0 19723
0.13750000 0.13749600 11686.92615219 0 172.67638252 0 4179.12457686 0 -75.40239018 0 766.51445930 0 20946
0.13850000 0.13851100 11429.88715379 0 85.12955874 0 4057.92080300 0 436.81580864 0 682.61868775 0 20955
0.13950000 0.13949800 11692.96766711 0 -79.33992007 0 4022.03420438 0 -116.33541129 0 686.27655042 0 20506
0.14050000 0.14048300 11316.41651903 0 191.92245214 0 3812.05311491 0 37.72750314 0 561.54233493 0 21447
0.14150000 0.14148400 11149.12147861 0 -46.60578393 0 3935.34395756 0 152.49991960 0 486.24748371 0 21771
0.14250000 0.14249400 11157.14021660 0 239.43731930 0 3389.67433001 0 -90.04361713 0 57.33507505 0 22470
0.14350000 0.14350900 10970.76497361 0 155.93918928 0 3682.05069841 0 92.94760858 0 -422.79510020 0 22519
0.14450000 0.14449900 10775.23958166 0 195.34963879 0 3366.90331105 0 52.75198183 0 -305.52490178 0 22218
0.14550000 0.14550500 10674.26939049 0 -120.49526893 0 3040.09030761 0 542.82132788 0 -3.93867228 0 23559
0.14650000 0.14650700 10616.79810675 0 -65.39028181 0 2534.45944712 0 579.44279441 0 -775.10659197 0 23044
0.14750000 0.14750500 10634.43933031 0 156.18744062 0 2472.02313657 0 -373.49963383 0 -258.26158133 0 23649
0.14850000 0.14849900 10377.35639362 0 331.09149446 0 2382.67462319 0 -160.78997653 0 -325.84416414 0 23640
0.14950000 0.14949500 10041.41521036 0 179.27371681 0 2819.65190505 0 -54.35869526 0 -733.79361449 0 24457
0.15050000 0.15050000 10064.80136539 0 0.55480769 0 2893.39134079 0 29.06309198 0 -755.10807913 0 24591
0.15150000 0.15149900 9855.40245827 0 133.72728506 0 2607.00156445 0 57.08440710 0 -634.92916589 0 25020
0.15250000 0.15250500 9909.02914161 0 12.40894211 0 2815.76336636 0 69.05901921 0 -361.92958353 0 25297
0.15350000 0.15350100 9901.79030828 0 -123.68189344 0 2846.52016958 0 136.54153256 0 -415.11578551 0 25452
0.15450000 0.15450400 9727.46514142 0 252.75831047 0 2787.21446222 0 -54.61441611 0 -632.93766288 0 26061
0.15550000 0.15549900 9681.64848918 0 145.19847421 0 2587.83348529 0 -40.31096477 0 -167.17750549 0 26128
0.15650000 0.15649500 9482.58606486 0 -14.75887172 0 2699.71135703 0 457.16363089 0 1.87642863 0 26331
0.15750000 0.15749700 9564.71771405 0 49.90741691 0 2230.41746264 0 437.31121286 0 -193.18128416 0 27345
0.15850000 0.15849900 9559.54398037 0 180.27990366 0 2460.40145878 0 46.86029648 0 203.72098155 0 26980
0.15950000 0.15949700 9369.01656894 0 37.57327974 0 2195.56341384 0 -126.70924164 0 316.38754560 0 27777
0.16050000 0.16050000 9068.28094081 0 33.53776747 0 2304.08000637 0 40.34688432 0 285.29351600 0 28224
0.16150000 0.16150500 9238.36606266 0 108.09830001 0 2408.19178530 0 55.52229103 0 45.23809480 0 28075
0.16250000 0.16249700 8993.11351064 0 128.86880861 0 2219.35599805 0 -43.92005593 0 399.73958081 0 28590
0.16350000 0.16349900 8907.95011941 0 15.38642035 0 2432.35784498 0 193.33396972 0 482.42265554 0 29163
0.16450000 0.16449100 8860.57365787 0 183.90700953 0 2374.57899320 0 -2.24107250 0 517.31734726 0 28996
0.16550000 0.16550500 8596.57044045 0 288.82725300 0 2590.40387528 0 -188.48428092 0 296.22975646 0 30777
0.16650000 0.16650700 8454.73763928 0 -31.72597207 0 2699.59052674 0 238.72661745 0 929.30033267 0 29211
0.16750000 0.16749900 8338.11443218 0 -28.31559182 0 2627.63059176 0 32.71370483 0 351.26466201 0 30922
0.16850000 0.16850800 8457.59362815 0 44.95007931 0 2167.42093889 0 112.11513851 0 578.06642746 0 30867
0.16950000 0.16949900 8298.04271141 0 133.32744662 0 2324.42343479 0 -233.33209386 0 -48.18822146 0 30852
0.17050000 0.17049200 8222.51279034 0 203.60015125 0 2388.92484499 0 113.75513520 0 493.27211788 0 31257
0.17150000 0.17149500 8313.90443421 0 -66.86550991 0 2292.18371427 0 95.24953561 0 -123.08872652 0 32608
0.17250000 0.17250900 8222.90823495 0 -122.87452735 0 1948.86089824 0 422.70502670 0 -60.91505710 0 32361
0.17350000 0.17350400 8204.92648963 0 -3.77595781 0 1566.63072612 0 161.75222509 0 -118.41588934 0 32508
0.17450000 0.17449800 8359.04004295 0 71.08468424 0 1621.50965074 0 230.80454371 0 334.30008811 0 32791
0.17550000 0.17549800 8127.91365127 0 60.42305809 0 1763.45229764 0 -322.69488718 0 285.85482766 0 33633
0.17650000 0.17650100 8090.96154910 0 220.87998238 0 1660.17534623 0 -289.30068807 0 -160.74603824 0 33984
0.17750000 0.17750300 7657.45539218 0 236.60110266 0 2082.51019283 0 -104.52589731 0 126.96518218 0 34069
0.17850000 0.17849800 7735.88524041 0 254.97060339 0 2475.86773697 0 -19.97335817 0 -147.88310375 0 34536
