### header ###
fiducial parameters:
Omega_m = 0.31
Omega_nu = 0
Omega_de = 0.69
Omega_k = 0
H_0 = 100
w_de = -1
zeff = 0
beta = 0
fgrowth = 0
b_1 = 2
gamma = 0.55
Lx = 3500 Ly = 3500 Lz = 3500
nx = 700 ny = 700 nz = 700
xoffset = -983.599254 yoffset = -42.9823471 zoffset = 800.977702
bins = 400 dk = 0.001
kx_ny = 0.628318531 ky_ny = 0.628318531 kz_ny = 0.628318531
############################
A(data) = 9.03561932 (not used)
A(ran) = 9.04733552 (used)
Ngal = 502733
weighted Ngal = 0
Nran = 25229228
weighted Nran = 0
SN(data) = 6708.95039
SN(ran) = 134.301463
SN(data+ran) = 6843.25186
############################
13 columns: k_central k_mean P_0(k) sigma^{lin}_{P_0(k)} P^img_1(k) sigma^{lin}_{P_1(k)} P_2(k) sigma^{lin}_{P_2(k)} P^img_3(k) sigma^{lin}_{P_3(k)} P_4(k) sigma^{lin}_{P_4(k)} N_modes
### header ###
0.00050000 0 0 0 0 0 0 0 0 0 0 0 0
0.00150000 0.00179520 67684.95902317 0 -15294.36963363 0 71388.84705188 0 -86149.80584096 0 -117488.79141553 0 3
0.00250000 0.00253879 86655.86509978 0 16925.90819914 0 2795.85932084 0 45780.84253017 0 103718.75091901 0 6
0.00350000 0.00331552 77023.38355748 0 241.81438081 0 43023.49512080 0 -6591.63329919 0 55134.20608318 0 7
0.00450000 0.00420575 52096.75207299 0 -10786.74042915 0 25783.53799156 0 4862.28809941 0 1627.52919651 0 24
0.00550000 0.00557378 85187.33759138 0 20521.15880501 0 65474.97286553 0 19940.95368127 0 2099.92074038 0 45
0.00650000 0.00659388 71169.81467460 0 11329.81769757 0 57447.44722309 0 4079.11004351 0 86718.25747204 0 40
0.00750000 0.00754703 55128.27441399 0 -5397.22579955 0 73463.39342959 0 41328.57557150 0 17788.52668395 0 57
0.00850000 0.00846663 81314.61668210 0 10550.62704152 0 88998.32520275 0 54254.01228224 0 42638.26616037 0 75
0.00950000 0.00948925 73810.61576888 0 -6292.11695861 0 62937.42675352 0 39543.25298985 0 51052.22906623 0 112
0.01050000 0.01054430 72758.18386987 0 -225.45505686 0 49926.63991382 0 27063.02100583 0 72917.02078939 0 105
0.01150000 0.01145670 76247.65304178 0 2647.32593039 0 53647.99341293 0 10432.76257772 0 43462.10910397 0 144
0.01250000 0.01249090 72961.28861689 0 10663.96586141 0 55699.03280531 0 16039.45319183 0 57048.59739266 0 169
0.01350000 0.01339930 64967.81514945 0 726.00994636 0 55555.02505877 0 208.42457553 0 30667.71834413 0 180
0.01450000 0.01448870 64686.28055419 0 -3694.60606487 0 40221.11096385 0 14845.53999796 0 24505.59281744 0 267
0.01550000 0.01550050 71120.60378944 0 -1360.99952740 0 42032.57682824 0 23096.60169244 0 17670.66222016 0 238
0.01650000 0.01653350 69884.50983686 0 3443.01541447 0 29949.76668021 0 -7397.63729691 0 435.34936820 0 315
0.01750000 0.01747870 68568.44819589 0 3442.04877208 0 28430.60029221 0 -1563.88458298 0 13177.86218866 0 297
0.01850000 0.01844180 64678.48150766 0 1658.02237000 0 36344.65529989 0 3172.52031465 0 -2225.90280331 0 388
0.01950000 0.01947590 64492.51269386 0 -2624.13749767 0 24219.55454743 0 9960.40398758 0 -1057.68142626 0 399
0.02050000 0.02045430 63549.26744630 0 1976.46512913 0 22136.44020310 0 6314.20693407 0 -9001.11027948 0 462
0.02150000 0.02154770 62110.39828387 0 4062.86386066 0 18663.55773578 0 -141.50106708 0 -6206.37138504 0 571
0.02250000 0.02255340 62346.67644009 0 -2356.83890848 0 15846.01486867 0 -10090.76889497 0 -11368.26370161 0 510
0.02350000 0.02348930 56492.00909996 0 2440.81596586 0 25680.28300929 0 6004.46395642 0 -6515.37839633 0 555
0.02450000 0.02439640 60447.66353223 0 497.91090288 0 24032.26758491 0 -9384.81238431 0 -7259.08888295 0 592
0.02550000 0.02547300 58682.44271841 0 -759.18774939 0 20874.09312205 0 902.41998510 0 -19987.08888611 0 837
0.02650000 0.02652900 60643.73815281 0 -59.68401605 0 26950.75867405 0 -2343.91006655 0 -20781.82271237 0 723
0.02750000 0.02749970 60916.59493573 0 1249.72580715 0 25985.87381851 0 2808.51354845 0 -7925.39108658 0 826
0.02850000 0.02848090 63190.18176861 0 -4523.28222041 0 20815.10596729 0 4880.52248990 0 -18587.87403070 0 831
0.02950000 0.02946900 63241.36987684 0 2706.01650170 0 20546.31347623 0 -81.72752677 0 -14162.07989195 0 996
0.03050000 0.03053250 61410.24162753 0 2615.75626880 0 22701.26692523 0 2902.55247432 0 -11430.32653669 0 1041
0.03150000 0.03150510 61598.29751012 0 473.35598933 0 25135.99743789 0 -432.45493333 0 -4066.55467705 0 1036
0.03250000 0.03246190 60432.61466779 0 -209.32531048 0 21415.41285886 0 5778.50031385 0 -5239.27863041 0 1059
0.03350000 0.03345080 58628.61831276 0 1164.38666277 0 24182.86607500 0 -1712.14335911 0 -4405.84615494 0 1302
0.03450000 0.03451200 52973.43081071 0 4721.61966294 0 22524.96453530 0 -3324.31612315 0 6.49585881 0 1339
0.03550000 0.03553350 52910.70890127 0 1290.24789540 0 26177.44476432 0 2298.86233440 0 -8447.55372881 0 1365
0.03650000 0.03647120 52763.84516585 0 939.09417758 0 29751.82468229 0 5204.92987194 0 -504.22813057 0 1308
0.03750000 0.03744890 49562.39148702 0 -1359.25298036 0 25177.29943079 0 -714.33664108 0 -4603.34876995 0 1579
0.03850000 0.03847530 49477.81027814 0 1059.06877777 0 22452.79589344 0 1842.09085275 0 -2014.65848800 0 1662
0.03950000 0.03950240 47332.30356156 0 751.35574914 0 22380.07802295 0 5730.11327163 0 -2090.21037821 0 1683
0.04050000 0.04050350 48948.13418827 0 943.64838137 0 16750.04519211 0 2828.82402316 0 -216.29502178 0 1822
0.04150000 0.04152450 48895.18854843 0 883.98677386 0 19343.94216147 0 4115.28224102 0 -728.44852148 0 1887
0.04250000 0.04250150 45581.14300064 0 -125.87880795 0 12113.12756835 0 1177.62307273 0 1425.65472161 0 1920
0.04350000 0.04349210 46465.29124771 0 -379.59607161 0 14862.78577691 0 -1322.82813768 0 -3381.29310113 0 2005
0.04450000 0.04448520 43935.98356513 0 2486.34701921 0 12720.24489492 0 -2078.70953072 0 -4145.23717045 0 2151
0.04550000 0.04548030 41325.49989117 0 1843.72755406 0 14611.23906480 0 -742.11772360 0 -1412.44028080 0 2274
0.04650000 0.04648670 41053.85141124 0 -720.48250944 0 10158.89521412 0 3414.08205029 0 -3126.59381669 0 2311
0.04750000 0.04749250 40495.61543265 0 1331.60481117 0 11612.78028727 0 4287.25670935 0 -7018.90021888 0 2568
0.04850000 0.04851840 40011.30562754 0 901.37315534 0 10250.82510205 0 -945.98479996 0 -577.40295928 0 2493
0.04950000 0.04949480 37491.11514021 0 1166.68243844 0 10723.17270762 0 -1513.61917885 0 -1030.70551291 0 2644
0.05050000 0.05050630 35728.42077808 0 365.08874660 0 11056.63137748 0 2.30971509 0 -569.56326983 0 2829
0.05150000 0.05149060 36340.48116231 0 236.46489396 0 9991.06192965 0 1096.64150829 0 -2806.99767744 0 2784
0.05250000 0.05249300 34988.06058609 0 1254.89954084 0 11798.63925535 0 -374.18507115 0 -1059.28517385 0 3055
0.05350000 0.05348950 34500.01602631 0 970.84838000 0 12153.88033263 0 710.92373438 0 -1778.99546784 0 3009
0.05450000 0.05448610 33739.11468360 0 -544.18890717 0 10994.78823384 0 286.19754632 0 -1282.17423456 0 3336
0.05550000 0.05550870 34527.91684066 0 691.25915254 0 11980.10439439 0 759.30089048 0 100.60704120 0 3349
0.05650000 0.05647670 31915.56578937 0 1164.34272448 0 11954.83987745 0 -1758.19068737 0 -986.85509917 0 3324
0.05750000 0.05747970 31410.71483353 0 1001.35803034 0 13678.53900692 0 1116.62574118 0 3264.57103288 0 3639
0.05850000 0.05849280 30633.77601485 0 941.17355717 0 13755.43101499 0 292.68613334 0 1078.48291135 0 3846
0.05950000 0.05951020 30031.60174594 0 -157.41441738 0 12833.05645533 0 3355.99563048 0 1576.47290316 0 3787
0.06050000 0.06049470 30646.29842759 0 -907.47069158 0 10845.42001588 0 1106.95931731 0 2926.81739515 0 3930
0.06150000 0.06148310 30441.32630322 0 -212.10550580 0 11545.00547444 0 1213.41081020 0 4598.32882028 0 4083
0.06250000 0.06249100 31739.81262807 0 -76.57806899 0 9839.46384346 0 -418.70334691 0 2477.42754628 0 4303
0.06350000 0.06350600 30086.19507167 0 409.96072559 0 9131.20057256 0 1610.54704730 0 3068.16687513 0 4470
0.06450000 0.06451750 30981.87711995 0 392.47877833 0 9323.97982136 0 -685.26157591 0 2579.41930270 0 4479
0.06550000 0.06550280 30316.10217580 0 605.61024321 0 11140.00428337 0 -96.08227606 0 1210.40103731 0 4636
0.06650000 0.06648880 29156.02146548 0 411.23713293 0 10235.44670044 0 174.17687514 0 1983.62707046 0 4653
0.06750000 0.06749660 29377.14091154 0 183.99049228 0 10267.37885293 0 372.12766071 0 764.89753021 0 5220
0.06850000 0.06852730 29148.00272750 0 411.80064150 0 11426.81147347 0 -757.78611793 0 -1641.97390946 0 5029
0.06950000 0.06949320 28178.39450574 0 943.25952750 0 9613.71989234 0 -1461.87085742 0 -365.36445937 0 5040
0.07050000 0.07048030 26922.19878534 0 393.58822016 0 11128.47048216 0 1668.47968310 0 1998.19261370 0 5475
0.07150000 0.07148790 27059.06655970 0 -523.43136036 0 10098.15052775 0 1949.57489545 0 1944.45608463 0 5509
0.07250000 0.07249820 27668.16110934 0 -41.44369389 0 9476.70931853 0 1373.45603271 0 -1549.27510145 0 5916
0.07350000 0.07351270 27320.06000424 0 533.95897472 0 8034.12737057 0 -1392.79986502 0 191.94551974 0 5721
0.07450000 0.07449140 26059.47045480 0 1018.84437144 0 9711.42766545 0 -7.34750371 0 2278.98025802 0 6028
0.07550000 0.07549160 25857.46416503 0 358.63531021 0 10637.35024205 0 -859.55049369 0 1131.29014558 0 6183
0.07650000 0.07648840 25334.81820161 0 -358.87587235 0 10333.07758154 0 1027.74187523 0 -75.08779202 0 6330
0.07750000 0.07749960 26187.00134247 0 270.39623866 0 10471.14267432 0 903.98089287 0 -1441.70318216 0 6583
0.07850000 0.07848650 24952.00584715 0 129.09509080 0 8761.00949199 0 -1001.18227718 0 380.28041048 0 6549
0.07950000 0.07947320 25288.13376814 0 722.47730782 0 9715.12946641 0 -399.99661981 0 -2085.73965717 0 6828
0.08050000 0.08048110 23563.33618142 0 870.96895689 0 9885.52215629 0 -196.34703798 0 -1245.33197812 0 7147
0.08150000 0.08149960 24023.58977258 0 458.77177232 0 10409.93663590 0 -104.01643284 0 -2108.74135216 0 7386
0.08250000 0.08250610 22583.84184434 0 -170.40367445 0 9507.68581321 0 1631.25296662 0 -1421.15104686 0 7227
0.08350000 0.08350160 23050.35664187 0 23.75282006 0 9106.75989856 0 794.57674687 0 -2098.26206992 0 7798
0.08450000 0.08449610 22020.88249954 0 302.35145876 0 8104.99983286 0 1114.31898094 0 121.42236686 0 7371
0.08550000 0.08548940 22106.01293705 0 586.99798343 0 8611.12499912 0 -352.17747999 0 -635.53880967 0 8256
0.08650000 0.08650700 21493.62301564 0 83.33413035 0 7449.93484697 0 1274.62783319 0 1427.66489840 0 8037
0.08750000 0.08749060 21861.05696849 0 -247.39783905 0 7316.59312041 0 1956.62699105 0 -136.95784786 0 8155
0.08850000 0.08849210 21366.64135660 0 400.43160888 0 6990.80168222 0 -436.55108044 0 -677.57347356 0 8718
0.08950000 0.08949900 19748.17443246 0 1646.13706247 0 7127.20810453 0 -1835.95047667 0 1930.35189344 0 8571
0.09050000 0.09049190 19968.74464990 0 229.31393721 0 8048.72586753 0 360.78279415 0 1172.57016934 0 8932
0.09150000 0.09150830 18741.32850966 0 -386.08246172 0 8200.70841376 0 1110.84785601 0 1056.13919226 0 9285
0.09250000 0.09250820 18886.54455918 0 281.80042192 0 6914.84336282 0 1322.21300162 0 1032.44327229 0 9204
0.09350000 0.09350330 18717.38214143 0 199.83463977 0 6145.20928491 0 -345.09352913 0 886.61757899 0 9349
0.09450000 0.09448040 18204.07306471 0 254.71246593 0 6067.33964988 0 496.13689441 0 1919.97147235 0 9564
0.09550000 0.09549270 18063.47053566 0 270.00738479 0 6399.51312474 0 238.59040875 0 807.66925893 0 10155
0.09650000 0.09649430 17758.64864653 0 89.01051808 0 5706.18887255 0 357.51488380 0 1858.31506645 0 9913
0.09750000 0.09749140 17757.87972645 0 -137.31484647 0 4777.55310652 0 661.14165144 0 174.59538735 0 10476
0.09850000 0.09850240 17661.54502491 0 298.76170044 0 5593.76177218 0 -138.65386587 0 84.04746849 0 10575
0.09950000 0.09950330 17177.67460270 0 634.10532295 0 5132.40972376 0 -953.20715643 0 -251.06448938 0 10882
0.10050000 0.10051200 16582.09107734 0 182.70969112 0 5392.12895787 0 430.10313634 0 -38.98117241 0 10875
0.10150000 0.10150300 16508.16490387 0 -128.18996202 0 5840.56314894 0 112.76322829 0 -836.18411090 0 11118
0.10250000 0.10250800 16030.11630513 0 426.00259539 0 4914.82731007 0 390.27856844 0 -1041.35725294 0 11575
0.10350000 0.10349800 16127.87900111 0 265.24117875 0 5326.69385901 0 326.25279024 0 485.33686265 0 11364
0.10450000 0.10450100 15480.22860171 0 -23.56542325 0 4766.03028988 0 160.96353278 0 -595.52530713 0 12093
0.10550000 0.10551000 15654.11438567 0 388.45073557 0 5457.94851678 0 -355.47065485 0 -139.72266478 0 12067
0.10650000 0.10649700 14934.51503587 0 277.15394771 0 4923.74678301 0 -223.84142315 0 -464.66170014 0 12054
0.10750000 0.10749900 14998.33540257 0 15.13871824 0 5558.06191129 0 361.89333444 0 723.44724558 0 12807
0.10850000 0.10850100 15058.42101459 0 -277.67791183 0 5206.69838813 0 464.81218878 0 -108.37302417 0 12736
0.10950000 0.10950300 15300.30130283 0 239.67129070 0 5690.08548914 0 482.09531528 0 42.35837925 0 12933
0.11050000 0.11050200 15053.25826547 0 184.32002946 0 5041.36958621 0 -244.03985521 0 837.10242116 0 13428
0.11150000 0.11150900 15021.29315926 0 -168.95590779 0 5260.19325660 0 -394.75148640 0 -22.55846748 0 13453
0.11250000 0.11250000 15267.78696799 0 83.26426847 0 5254.44832514 0 657.83419664 0 -452.85108770 0 13668
0.11350000 0.11349100 14937.48087047 0 348.83816992 0 5054.52910416 0 -455.22705075 0 -161.95763660 0 13791
0.11450000 0.11448600 14366.28309624 0 292.67295186 0 5640.96248056 0 40.77374481 0 103.14381839 0 14205
0.11550000 0.11549300 14294.11445438 0 102.80109973 0 5709.58310548 0 -157.38366057 0 -531.04916145 0 14776
0.11650000 0.11649800 14001.37559508 0 222.85610699 0 5439.26375882 0 379.59277624 0 -175.83774251 0 14553
0.11750000 0.11747300 13832.21317733 0 101.45505020 0 5035.84434620 0 271.89563282 0 -469.83653228 0 14568
0.11850000 0.11849100 13955.89946460 0 -158.90282696 0 4636.08279625 0 548.97268853 0 -431.55859220 0 16015
0.11950000 0.11950300 13837.04638927 0 202.17655065 0 4689.63258758 0 363.96282791 0 -164.26879067 0 15270
0.12050000 0.12050700 13641.52099732 0 198.63622290 0 4287.44344709 0 -159.85079558 0 -109.52387784 0 15999
0.12150000 0.12150000 13485.75975812 0 285.84054771 0 4607.89638300 0 -191.04478479 0 -302.35365567 0 15670
0.12250000 0.12250700 13245.30746431 0 -7.69173824 0 4653.04297631 0 244.99661148 0 -637.37323329 0 16887
0.12350000 0.12352200 13108.43968995 0 78.10514427 0 4459.22019311 0 -383.23416205 0 0.45348270 0 16407
0.12450000 0.12449800 12966.40916647 0 -28.26341510 0 4578.20508332 0 33.16297385 0 -740.70620602 0 16306
0.12550000 0.12549900 13037.69904252 0 192.42993939 0 4347.84761171 0 641.12556328 0 -422.23159163 0 17523
0.12650000 0.12650100 12907.75154888 0 59.94402088 0 4067.37851999 0 250.82173032 0 -443.47575500 0 17154
0.12750000 0.12750600 12946.30739865 0 -64.15737338 0 3894.19574867 0 428.90691638 0 -154.22559596 0 18007
0.12850000 0.12850300 13201.80855689 0 70.87290168 0 3849.11506280 0 468.35691035 0 -79.33673454 0 17496
0.12950000 0.12949900 12639.28859500 0 148.78493716 0 3357.90694611 0 -281.66970550 0 368.25010659 0 18405
0.13050000 0.13049000 12674.65891871 0 207.76769809 0 3845.98445962 0 -222.74626126 0 -341.29616239 0 18100
0.13150000 0.13148800 12229.01480908 0 241.76495023 0 3873.32506077 0 -310.39216589 0 292.31595325 0 19059
0.13250000 0.13249300 12064.13637464 0 135.61773000 0 4106.15406120 0 116.95823656 0 -602.44668631 0 18957
0.13350000 0.13349100 12049.63673883 0 78.60889676 0 3643.51681780 0 256.24041998 0 -19.80166930 0 19468
0.13450000 0.13450700 12107.85497351 0 -196.12295270 0 3722.23226491 0 772.45381769 0 -335.56770779 0 19953
0.13550000 0.13551000 12199.90569174 0 71.81680600 0 3012.18949326 0 514.36359569 0 285.46157996 0 19956
0.13650000 0.13649900 11933.31011519 0 96.91435743 0 2747.47227862 0 -32.92493816 0 350.59130771 0 19723
0.13750000 0.13749600 11485.68878250 0 279.62437809 0 2972.07383419 0 -40.76352916 0 719.33681852 0 20946
0.13850000 0.13851100 11404.84232831 0 248.03384580 0 3190.84258172 0 83.78471752 0 717.32993711 0 20955
0.13950000 0.13949800 11220.08181749 0 61.79865611 0 2911.31816324 0 85.00027032 0 409.68281591 0 20506
0.14050000 0.14048300 11243.69864854 0 4.76373451 0 2954.31178032 0 -134.46544834 0 318.00227777 0 21447
0.14150000 0.14148400 11276.21298338 0 -27.49021103 0 2921.90729121 0 -6.97124914 0 156.07759489 0 21771
0.14250000 0.14249400 11110.34593740 0 172.42703272 0 3141.77449600 0 -180.22717771 0 -101.28083488 0 22470
0.14350000 0.14350900 10949.94920857 0 301.81980545 0 3161.54672664 0 -357.29738927 0 -449.74574903 0 22519
0.14450000 0.14449900 10746.97627641 0 185.43386512 0 3373.54897746 0 -192.10040222 0 -282.04867326 0 22218
0.14550000 0.14550500 10538.48908881 0 -13.54265984 0 3489.68886337 0 174.75246674 0 -680.46461307 0 23559
0.14650000 0.14650700 10304.44080082 0 99.20101591 0 3206.70430453 0 330.01280943 0 -290.10585725 0 23044
0.14750000 0.14750500 10310.42739288 0 228.11881571 0 3517.64460059 0 33.20416600 0 -96.20255713 0 23649
0.14850000 0.14849900 10093.43814611 0 173.19265743 0 2963.79146646 0 191.80272030 0 231.97000686 0 23640
0.14950000 0.14949500 9885.97252377 0 15.74100235 0 3095.41959970 0 511.98982956 0 263.10687630 0 24457
0.15050000 0.15050000 9815.79208954 0 120.31731886 0 2834.73372320 0 249.33002537 0 490.65778961 0 24591
0.15150000 0.15149900 9677.58419732 0 100.99194062 0 2983.93717258 0 275.38872690 0 583.86188796 0 25020
0.15250000 0.15250500 9527.44705928 0 212.87662280 0 2540.94034494 0 -140.55419692 0 829.40003887 0 25297
0.15350000 0.15350100 9229.71021947 0 -39.86235482 0 2722.48237600 0 130.98773266 0 1228.30589062 0 25452
0.15450000 0.15450400 9196.84437830 0 81.30758656 0 2703.02869795 0 184.87035654 0 553.75866680 0 26061
0.15550000 0.15549900 9294.25556795 0 136.02086382 0 2588.93194255 0 -313.75454356 0 863.08972298 0 26128
0.15650000 0.15649500 9227.33755179 0 248.55671146 0 2825.40782108 0 -259.13485485 0 201.90962553 0 26331
0.15750000 0.15749700 8891.82476686 0 73.83203569 0 3337.44268739 0 -445.07840414 0 216.58611296 0 27345
0.15850000 0.15849900 8727.77017536 0 121.63107374 0 3152.17688623 0 54.26895130 0 112.47872786 0 26980
0.15950000 0.15949700 8753.45210606 0 87.28725833 0 3491.64411729 0 218.54356379 0 -78.01496092 0 27777
0.16050000 0.16050000 8808.22118495 0 -9.29764980 0 3112.66537866 0 261.58002071 0 -45.72262430 0 28224
0.16150000 0.16150500 8732.29581926 0 -17.72690323 0 3231.50746942 0 284.97386494 0 387.86965168 0 28075
0.16250000 0.16249700 8637.69668019 0 -41.46126921 0 2808.23893414 0 161.44246014 0 686.16450778 0 28590
0.16350000 0.16349900 8783.07749831 0 -91.69042425 0 2704.59949183 0 280.78325050 0 380.45176981 0 29163
0.16450000 0.16449100 8788.29517028 0 133.12093666 0 2409.40008828 0 4.31326818 0 575.00063326 0 28996
0.16550000 0.16550500 8589.89182032 0 259.64124365 0 2706.34603887 0 -62.94764241 0 607.74015184 0 30777
0.16650000 0.16650700 8476.62989243 0 -3.15287990 0 2678.54408567 0 -18.74319589 0 832.52734668 0 29211
0.16750000 0.16749900 8456.57206290 0 135.69132664 0 2891.17245713 0 49.30359496 0 577.55564484 0 30922
0.16850000 0.16850800 8325.37232799 0 -10.47018702 0 2549.96966361 0 0.71809666 0 759.93579878 0 30867
0.16950000 0.16949900 8321.86824934 0 17.67033268 0 2717.67113320 0 111.13531463 0 605.10055904 0 30852
0.17050000 0.17049200 8264.85831764 0 131.11295679 0 2691.35209730 0 154.17726384 0 450.16206433 0 31257
0.17150000 0.17149500 8197.40205742 0 72.51674296 0 2377.20430605 0 -194.77185027 0 443.69215108 0 32608
0.17250000 0.17250900 8071.52984021 0 97.36450522 0 2746.56055909 0 -50.13908155 0 264.26904408 0 32361
0.17350000 0.17350400 7933.69542346 0 170.67059957 0 2464.92710268 0 132.86389766 0 262.34674387 0 32508
0.17450000 0.17449800 7944.55916574 0 -28.85119958 0 2364.02281895 0 169.12946403 0 -116.51445983 0 32791
0.17550000 0.17549800 7956.88385618 0 -99.73761228 0 2330.89334804 0 223.66676844 0 22.02472710 0 33633
0.17650000 0.17650100 7870.09474821 0 83.98771242 0 1896.33267215 0 37.44201410 0 -348.71624117 0 33984
0.17750000 0.17750300 7748.34174572 0 81.16852187 0 1934.51504645 0 -10.52549434 0 180.39634013 0 34069
0.17850000 0.17849800 7563.72403434 0 112.64679182 0 1875.48395339 0 -43.21210023 0 -180.80826160 0 34536
