### header ###
fiducial parameters:
Omega_m = 0.31
Omega_nu = 0
Omega_de = 0.69
Omega_k = 0
H_0 = 100
w_de = -1
zeff = 0
beta = 0
fgrowth = 0
b_1 = 2
gamma = 0.55
Lx = 3500 Ly = 3500 Lz = 3500
nx = 700 ny = 700 nz = 700
xoffset = -983.599254 yoffset = -42.9823471 zoffset = 800.977702
bins = 400 dk = 0.001
kx_ny = 0.628318531 ky_ny = 0.628318531 kz_ny = 0.628318531
############################
A(data) = 9.06653014 (not used)
A(ran) = 9.07632131 (used)
Ngal = 504416
weighted Ngal = 0
Nran = 25229228
weighted Nran = 0
SN(data) = 6705.21887
SN(ran) = 134.731737
SN(data+ran) = 6839.95061
############################
13 columns: k_central k_mean P_0(k) sigma^{lin}_{P_0(k)} P^img_1(k) sigma^{lin}_{P_1(k)} P_2(k) sigma^{lin}_{P_2(k)} P^img_3(k) sigma^{lin}_{P_3(k)} P_4(k) sigma^{lin}_{P_4(k)} N_modes
### header ###
0.00050000 0 0 0 0 0 0 0 0 0 0 0 0
0.00150000 0.00179520 62297.57540065 0 -64087.29181133 0 -6724.82124173 0 -93242.32466528 0 -44135.13386603 0 3
0.00250000 0.00253879 65239.68332084 0 -22686.98698088 0 -28905.24367345 0 16510.03228121 0 58506.14032848 0 6
0.00350000 0.00331552 85337.82623575 0 -12886.00209517 0 7672.78985550 0 -112974.13208460 0 39113.97589337 0 7
0.00450000 0.00420575 75700.95086441 0 -1859.72109174 0 -23307.06610309 0 -23751.61175546 0 -38167.32542831 0 24
0.00550000 0.00557378 96399.18097943 0 14265.99394857 0 31904.58121679 0 -28814.84064111 0 -16383.49000507 0 45
0.00650000 0.00659388 75986.11036862 0 26013.55494141 0 26929.77814042 0 -16739.06061953 0 20496.55336243 0 40
0.00750000 0.00754703 69567.16553499 0 -22071.74107060 0 46470.01461392 0 52381.91157720 0 41189.73057407 0 57
0.00850000 0.00846663 88968.55701106 0 -28672.70027190 0 4746.70842671 0 28419.50587390 0 -34572.07482244 0 75
0.00950000 0.00948925 106251.24412764 0 -888.75297990 0 -7037.15657851 0 8330.06274048 0 -12994.74936373 0 112
0.01050000 0.01054430 107199.43243286 0 13145.23800809 0 -2107.89554007 0 -18623.90342876 0 8107.20773195 0 105
0.01150000 0.01145670 108912.47652692 0 6374.67700613 0 17186.79179795 0 -42233.59450647 0 3191.61150180 0 144
0.01250000 0.01249090 88076.49987173 0 6669.15142789 0 23007.29711735 0 2612.09840613 0 -9426.29013038 0 169
0.01350000 0.01339930 87461.69334435 0 -166.36464712 0 29306.51010985 0 -5414.87800769 0 -13998.29991476 0 180
0.01450000 0.01448870 84709.72837554 0 8972.73712850 0 38999.51664708 0 4359.95261070 0 -14873.22112086 0 267
0.01550000 0.01550050 77496.59894428 0 4185.18806093 0 32997.10680573 0 8311.11435278 0 -12347.64819296 0 238
0.01650000 0.01653350 74514.61702562 0 1176.74430692 0 41385.58550319 0 1962.17420021 0 -1189.02505907 0 315
0.01750000 0.01747870 75660.85717449 0 3421.04626931 0 39743.61159374 0 9031.65837582 0 2875.03612001 0 297
0.01850000 0.01844180 66543.00285762 0 4498.77563898 0 44814.85921736 0 328.21133953 0 17431.74776651 0 388
0.01950000 0.01947590 64972.86805284 0 -616.99026041 0 34126.97994144 0 12900.28203953 0 18584.68850465 0 399
0.02050000 0.02045430 65189.26413269 0 -611.59793373 0 32701.84149474 0 24716.16707383 0 17620.57256918 0 462
0.02150000 0.02154770 71396.09686978 0 -2548.17917827 0 27619.71914426 0 14786.44299747 0 26221.93228328 0 571
0.02250000 0.02255340 71763.75051408 0 1859.90782947 0 23047.39080727 0 -13096.90588874 0 15928.61885448 0 510
0.02350000 0.02348930 65538.46369505 0 4124.71798887 0 22572.52773458 0 728.67040984 0 12931.69791711 0 555
0.02450000 0.02439640 62660.61552447 0 1364.81117409 0 27357.07801384 0 -608.15976251 0 24071.15297185 0 592
0.02550000 0.02547300 63078.02928256 0 -547.01633615 0 22680.61592878 0 6141.24385420 0 10954.22220730 0 837
0.02650000 0.02652900 59865.04180251 0 5086.36239550 0 31865.03675549 0 1658.25304602 0 13886.36712016 0 723
0.02750000 0.02749970 58662.67048776 0 3107.26096895 0 24595.22692971 0 -1863.73046073 0 12933.01606582 0 826
0.02850000 0.02848090 57515.77126454 0 946.71856941 0 31193.98921650 0 7905.05864274 0 21411.01902983 0 831
0.02950000 0.02946900 54598.37863266 0 -1703.35570104 0 23593.65360174 0 5776.13863075 0 18345.11497665 0 996
0.03050000 0.03053250 56805.94818434 0 -1559.17220134 0 21717.26891340 0 8619.66001202 0 19179.72280138 0 1041
0.03150000 0.03150510 58630.48569010 0 10.41161728 0 16189.61229901 0 3239.76786800 0 8705.59232332 0 1036
0.03250000 0.03246190 58635.31890203 0 1570.77190999 0 20264.22965234 0 -2998.85422214 0 15967.61408714 0 1059
0.03350000 0.03345080 55576.44497531 0 2758.50078949 0 19369.09683268 0 -6461.79565127 0 7440.83962088 0 1302
0.03450000 0.03451200 50380.96183578 0 3842.11789007 0 24553.48555390 0 -1874.82487904 0 5421.02936834 0 1339
0.03550000 0.03553350 50739.71797629 0 -52.74978491 0 24954.86183602 0 960.58549384 0 -1646.15903161 0 1365
0.03650000 0.03647120 48383.85669477 0 -1502.46983768 0 19427.97414172 0 11183.83272797 0 5999.59779077 0 1308
0.03750000 0.03744890 47402.93436325 0 -371.47407864 0 16790.13888203 0 1992.18405250 0 285.37260492 0 1579
0.03850000 0.03847530 47065.59813928 0 2385.66242693 0 17040.80682834 0 -86.05874373 0 1990.71211977 0 1662
0.03950000 0.03950240 46798.78287128 0 3188.44794490 0 15397.84430735 0 -941.64699225 0 -1173.38302771 0 1683
0.04050000 0.04050350 43210.01316323 0 -219.75735906 0 18102.02638542 0 484.35703877 0 5107.26603712 0 1822
0.04150000 0.04152450 42118.58603155 0 -1303.92368827 0 12798.23536025 0 2949.56644497 0 -1985.54937066 0 1887
0.04250000 0.04250150 42179.00118074 0 663.89218841 0 15315.02063009 0 -819.67539676 0 -1180.29232387 0 1920
0.04350000 0.04349210 41134.25848253 0 2512.29257965 0 14377.48736027 0 525.00764653 0 -1687.62579311 0 2005
0.04450000 0.04448520 41990.72560670 0 154.87588265 0 15068.41697564 0 -1535.15992568 0 1970.73118225 0 2151
0.04550000 0.04548030 41755.32621628 0 -291.64699278 0 17371.11292586 0 1788.85961402 0 -5346.08162961 0 2274
0.04650000 0.04648670 40583.05263040 0 751.30741702 0 14771.94336166 0 -728.52761040 0 -777.63633904 0 2311
0.04750000 0.04749250 40049.42209440 0 1070.39057673 0 13933.49093653 0 -650.72717818 0 -2021.17233954 0 2568
0.04850000 0.04851840 40005.48380407 0 431.19390439 0 18606.32811263 0 53.41973399 0 -2789.51023789 0 2493
0.04950000 0.04949480 38187.86657904 0 613.92886003 0 18066.54621599 0 2388.71613811 0 461.58821673 0 2644
0.05050000 0.05050630 38551.67562293 0 -476.83040964 0 15893.57806795 0 1733.25570761 0 -751.06136259 0 2829
0.05150000 0.05149060 37897.87386289 0 716.00409920 0 15543.60958550 0 557.30997912 0 -980.99153432 0 2784
0.05250000 0.05249300 37258.13235575 0 1591.66456704 0 16172.25667433 0 -361.32543203 0 189.43884028 0 3055
0.05350000 0.05348950 36862.57789710 0 534.19514303 0 15789.44431987 0 -163.25052079 0 1777.39172024 0 3009
0.05450000 0.05448610 34294.93405621 0 344.73762898 0 16813.64586736 0 1793.35230420 0 -247.79108675 0 3336
0.05550000 0.05550870 35341.76382321 0 -372.29242930 0 14619.69718569 0 2136.26869105 0 2471.51784623 0 3349
0.05650000 0.05647670 35161.50698715 0 -48.88925688 0 12957.84119986 0 895.40413860 0 -912.78502779 0 3324
0.05750000 0.05747970 34638.97086946 0 1775.06299085 0 15006.57383200 0 -94.97063732 0 -11.02642380 0 3639
0.05850000 0.05849280 33856.10038159 0 997.58922349 0 13584.07168272 0 -746.38962387 0 822.78732618 0 3846
0.05950000 0.05951020 31983.01106502 0 -540.66395783 0 14741.29640416 0 -44.13634217 0 -1857.48023893 0 3787
0.06050000 0.06049470 31670.06059217 0 800.92802674 0 14017.19337960 0 769.25950399 0 -1195.45103403 0 3930
0.06150000 0.06148310 31161.58472738 0 -102.16278621 0 12899.62296517 0 1396.56757342 0 -789.56228949 0 4083
0.06250000 0.06249100 31345.13693522 0 153.11725258 0 12442.99428297 0 380.62532606 0 1078.72457195 0 4303
0.06350000 0.06350600 31108.63908754 0 833.69830212 0 11731.74320833 0 2423.77889379 0 -907.44542706 0 4470
0.06450000 0.06451750 31717.18440855 0 -469.18734404 0 9933.70049163 0 973.48467742 0 1435.43099121 0 4479
0.06550000 0.06550280 31002.74780786 0 -11.71208082 0 10895.34489826 0 760.00719850 0 93.27275193 0 4636
0.06650000 0.06648880 29897.26042327 0 495.06370167 0 7704.09588736 0 886.18698374 0 23.65308014 0 4653
0.06750000 0.06749660 29674.05390842 0 354.94009999 0 10352.86079676 0 -665.53328356 0 58.81304929 0 5220
0.06850000 0.06852730 28926.00451563 0 1349.35588046 0 8557.71800723 0 -206.51435836 0 -1114.30799637 0 5029
0.06950000 0.06949320 28700.82077771 0 582.31416168 0 10741.69269700 0 -911.76675791 0 -1236.91779552 0 5040
0.07050000 0.07048030 27019.08271551 0 527.16941041 0 10053.67399336 0 -576.46158141 0 -1634.17486293 0 5475
0.07150000 0.07148790 26096.26877295 0 533.82056911 0 10927.72741823 0 -208.29715449 0 -530.53398499 0 5509
0.07250000 0.07249820 26056.50462020 0 -60.02168181 0 11372.10830201 0 1987.03228796 0 258.37691934 0 5916
0.07350000 0.07351270 25878.22500721 0 -218.33046308 0 10606.73623826 0 1729.59784494 0 854.19441610 0 5721
0.07450000 0.07449140 26660.65611218 0 449.22617874 0 8710.28273581 0 924.30345060 0 -259.67968965 0 6028
0.07550000 0.07549160 25896.56924342 0 451.96573115 0 9382.40676292 0 -202.34022078 0 2656.76167824 0 6183
0.07650000 0.07648840 24473.29817406 0 397.38668536 0 8998.26527518 0 795.99924902 0 3126.17640293 0 6330
0.07750000 0.07749960 25500.13601896 0 421.92072822 0 10667.38206348 0 -958.19415239 0 627.58597912 0 6583
0.07850000 0.07848650 24548.10311333 0 319.97510701 0 9605.65721606 0 -258.17150784 0 1265.10420877 0 6549
0.07950000 0.07947320 23949.99313628 0 -27.71363724 0 10204.52512862 0 304.98336235 0 607.89942814 0 6828
0.08050000 0.08048110 23897.37703362 0 -82.57663423 0 9076.15687935 0 89.70276584 0 814.11390767 0 7147
0.08150000 0.08149960 23576.40782279 0 475.77479222 0 8731.28523859 0 1911.66713548 0 513.55073732 0 7386
0.08250000 0.08250610 23783.13747877 0 25.27528182 0 8242.06532953 0 1107.67331453 0 1127.99477381 0 7227
0.08350000 0.08350160 23150.75563526 0 287.90345044 0 7794.27922825 0 518.24114982 0 471.54463331 0 7798
0.08450000 0.08449610 22980.82429743 0 652.15627107 0 7268.54659994 0 -201.46475034 0 824.71182329 0 7371
0.08550000 0.08548940 21819.09590123 0 216.54327313 0 7534.06568837 0 38.05055942 0 2020.75492578 0 8256
0.08650000 0.08650700 21741.98420170 0 168.73731479 0 7702.50312434 0 665.62116014 0 1886.91889345 0 8037
0.08750000 0.08749060 21103.78053473 0 17.28686125 0 7118.70604536 0 1324.26711669 0 2656.98136969 0 8155
0.08850000 0.08849210 21195.72140723 0 298.42447406 0 6664.66972228 0 276.24003128 0 1585.76585156 0 8718
0.08950000 0.08949900 20712.51005938 0 801.32127444 0 6788.70751587 0 -1179.05106716 0 1899.17767645 0 8571
0.09050000 0.09049190 20399.55958654 0 254.75420731 0 6966.98712886 0 499.52124122 0 2229.80232658 0 8932
0.09150000 0.09150830 20389.89316267 0 -434.53431292 0 7340.22093603 0 491.74965612 0 2640.17497364 0 9285
0.09250000 0.09250820 20043.98897208 0 70.24304629 0 6952.88293767 0 249.81224810 0 1295.09209191 0 9204
0.09350000 0.09350330 19899.10245973 0 875.06839938 0 6415.69340015 0 -696.69761443 0 876.37885889 0 9349
0.09450000 0.09448040 19450.82205269 0 245.62053521 0 6537.39147978 0 -190.13416372 0 2131.67713971 0 9564
0.09550000 0.09549270 18946.63017120 0 119.42976539 0 6849.35334109 0 1511.54309463 0 912.49942890 0 10155
0.09650000 0.09649430 18865.89356273 0 100.46083654 0 6304.52952563 0 299.20437871 0 1898.07921919 0 9913
0.09750000 0.09749140 18252.84456697 0 325.23122499 0 5920.28917673 0 235.65752787 0 946.97780532 0 10476
0.09850000 0.09850240 17832.13543710 0 314.14888971 0 5717.76661205 0 19.62976074 0 1514.77255897 0 10575
0.09950000 0.09950330 17588.49761725 0 404.10594841 0 5513.64029977 0 157.80876353 0 1485.08125928 0 10882
0.10050000 0.10051200 16814.52463317 0 53.45774062 0 5145.99764004 0 332.50411049 0 1792.15498579 0 10875
0.10150000 0.10150300 17216.77968109 0 -118.78387252 0 4938.94943146 0 904.22584884 0 1299.73856611 0 11118
0.10250000 0.10250800 17282.68711658 0 95.02094666 0 4073.67268008 0 87.13292509 0 713.08989209 0 11575
0.10350000 0.10349800 16709.51211929 0 105.03711932 0 4083.76750228 0 -203.43428421 0 1312.07424112 0 11364
0.10450000 0.10450100 16723.13298929 0 346.91147589 0 4326.94397009 0 -164.79055787 0 61.16978933 0 12093
0.10550000 0.10551000 16271.88674765 0 411.97309929 0 5033.48266309 0 -855.40711291 0 -531.64452528 0 12067
0.10650000 0.10649700 16059.00573102 0 378.73048729 0 4704.14320796 0 -353.66588957 0 -637.19748013 0 12054
0.10750000 0.10749900 15627.97110293 0 91.59870307 0 5559.55581316 0 454.03961845 0 -224.45655921 0 12807
0.10850000 0.10850100 15428.38141913 0 141.64935881 0 5013.27104954 0 205.68722004 0 -639.05057752 0 12736
0.10950000 0.10950300 15471.22125219 0 -114.18133661 0 5233.50074523 0 667.49952205 0 378.47344829 0 12933
0.11050000 0.11050200 15394.76862703 0 154.83633819 0 5201.16216355 0 12.84140473 0 85.99733997 0 13428
0.11150000 0.11150900 15090.93534943 0 274.82851370 0 4796.30377192 0 354.12394625 0 1328.33140854 0 13453
0.11250000 0.11250000 15045.56906467 0 118.67622371 0 5369.85224468 0 326.98546123 0 1269.73969840 0 13668
0.11350000 0.11349100 14775.67811634 0 189.94522908 0 4879.55584751 0 59.55099287 0 1478.24885513 0 13791
0.11450000 0.11448600 14587.62223375 0 132.31027520 0 4886.67385054 0 322.00395756 0 2275.48716394 0 14205
0.11550000 0.11549300 14453.28091108 0 220.90854227 0 5146.59080696 0 212.18898855 0 2056.22411065 0 14776
0.11650000 0.11649800 14055.20000073 0 243.06222825 0 5342.68739669 0 -99.84339371 0 1906.46044807 0 14553
0.11750000 0.11747300 13823.64521072 0 320.57596313 0 5342.09422977 0 -296.20009811 0 1397.49027752 0 14568
0.11850000 0.11849100 13533.21311167 0 77.62204276 0 5132.23397060 0 78.29506753 0 1591.01647725 0 16015
0.11950000 0.11950300 13531.12604288 0 -190.55597131 0 5323.42045638 0 522.90300242 0 1448.98595378 0 15270
0.12050000 0.12050700 13851.65587080 0 -72.27530206 0 4597.92239110 0 287.67167596 0 993.09323793 0 15999
0.12150000 0.12150000 14007.08757283 0 -91.99612491 0 3960.22401446 0 -130.01120416 0 851.46584827 0 15670
0.12250000 0.12250700 13491.58158158 0 307.45049735 0 4351.40661323 0 -316.26012456 0 -42.31037667 0 16887
0.12350000 0.12352200 13548.26197610 0 494.14209603 0 5153.40124196 0 -609.86676509 0 424.10775662 0 16407
0.12450000 0.12449800 13035.72181946 0 69.79597418 0 5188.16741418 0 156.08857947 0 -118.61580856 0 16306
0.12550000 0.12549900 13185.11200656 0 -2.81356645 0 5037.72270811 0 723.07816394 0 92.92541975 0 17523
0.12650000 0.12650100 12923.34964195 0 112.63031496 0 4791.33874511 0 162.47940379 0 -50.76344465 0 17154
0.12750000 0.12750600 12714.42307145 0 93.62228103 0 4459.37397713 0 259.89828265 0 636.53511040 0 18007
0.12850000 0.12850300 12856.12405775 0 -80.58611983 0 4236.69472176 0 219.66508865 0 -113.68922776 0 17496
0.12950000 0.12949900 12411.46855966 0 257.57065172 0 4057.53634296 0 -58.50723879 0 54.96855873 0 18405
0.13050000 0.13049000 12444.97150603 0 6.42715031 0 3897.19453699 0 218.48644401 0 547.59082930 0 18100
0.13150000 0.13148800 12530.43148072 0 -117.83700237 0 3650.27232993 0 231.88542565 0 -898.80386381 0 19059
0.13250000 0.13249300 12302.06221675 0 272.96882556 0 3567.66834412 0 125.45370499 0 -437.48806448 0 18957
0.13350000 0.13349100 12286.90350659 0 364.41539230 0 3586.84740785 0 -515.47193907 0 -1102.81813345 0 19468
0.13450000 0.13450700 11826.97945261 0 75.51432298 0 3861.27498465 0 205.82123183 0 -193.79971560 0 19953
0.13550000 0.13551000 11885.85676164 0 -73.16845766 0 3695.81436786 0 149.08591445 0 -652.36497795 0 19956
0.13650000 0.13649900 11737.45518607 0 189.35425907 0 4007.13912396 0 -190.18139739 0 -749.77836451 0 19723
0.13750000 0.13749600 11444.27694387 0 176.34742668 0 3885.29824488 0 22.23090753 0 -263.43751193 0 20946
0.13850000 0.13851100 11317.73466774 0 133.28570524 0 3902.40122439 0 326.66690862 0 160.48899924 0 20955
0.13950000 0.13949800 11181.30627628 0 208.03132783 0 3652.75484334 0 622.89996046 0 234.13286920 0 20506
0.14050000 0.14048300 11283.02341838 0 -40.07292908 0 3498.78408946 0 -73.38100914 0 -198.84602824 0 21447
0.14150000 0.14148400 10837.11567901 0 234.57554747 0 3772.93705195 0 -162.27399229 0 125.06155575 0 21771
0.14250000 0.14249400 10679.44312418 0 234.05378028 0 3681.20488632 0 -258.98326775 0 195.19475631 0 22470
0.14350000 0.14350900 10439.34233670 0 78.81683472 0 3708.31481145 0 57.89451933 0 -7.38567510 0 22519
0.14450000 0.14449900 10637.99833183 0 -15.99474598 0 3738.81896951 0 219.45308640 0 -346.27766605 0 22218
0.14550000 0.14550500 10527.21891735 0 -61.09476470 0 3259.30942262 0 142.92027386 0 -435.18459961 0 23559
0.14650000 0.14650700 10542.97079443 0 -37.65214897 0 3084.10548995 0 400.52937158 0 -149.99324014 0 23044
0.14750000 0.14750500 10485.02717406 0 188.23163575 0 3198.61965911 0 -9.02394721 0 -256.30413050 0 23649
0.14850000 0.14849900 10270.05908864 0 206.59674265 0 3043.41863310 0 176.21341489 0 484.76017259 0 23640
0.14950000 0.14949500 9884.92898937 0 238.99464102 0 3428.81236212 0 3.27619271 0 269.93268970 0 24457
0.15050000 0.15050000 9862.43258472 0 77.76385360 0 3290.49462418 0 307.18137532 0 787.45544847 0 24591
0.15150000 0.15149900 9762.84644970 0 26.21479231 0 3249.19263127 0 347.21684701 0 665.06863614 0 25020
0.15250000 0.15250500 9623.12268647 0 125.18458297 0 3176.32097677 0 -126.36212915 0 1306.30734052 0 25297
0.15350000 0.15350100 9580.24989968 0 79.67209354 0 2893.91860027 0 191.55666587 0 838.49636342 0 25452
0.15450000 0.15450400 9543.11105978 0 15.16442214 0 2965.97739641 0 93.25891137 0 974.65892823 0 26061
0.15550000 0.15549900 9481.90502136 0 39.29599026 0 2983.35499023 0 59.77540769 0 779.08081033 0 26128
0.15650000 0.15649500 9326.00098271 0 80.33841772 0 2843.00510636 0 -53.61525939 0 1180.09460156 0 26331
0.15750000 0.15749700 9364.67766277 0 199.40074915 0 2971.21703753 0 7.65359981 0 691.73039071 0 27345
0.15850000 0.15849900 8993.41009410 0 274.58795156 0 3170.92755163 0 -271.65397222 0 573.32987977 0 26980
0.15950000 0.15949700 8989.67533942 0 -36.64387506 0 3072.70350361 0 198.60546610 0 871.03486432 0 27777
0.16050000 0.16050000 8728.87961719 0 -4.03703913 0 3117.41071401 0 198.12434182 0 579.22529987 0 28224
0.16150000 0.16150500 8907.17021476 0 -46.56096687 0 2435.21383385 0 401.26973177 0 1013.94195669 0 28075
0.16250000 0.16249700 8966.15736952 0 9.91870655 0 2558.68042966 0 323.61319745 0 740.63370784 0 28590
0.16350000 0.16349900 8944.44086953 0 100.54783435 0 2234.17418646 0 18.14332838 0 594.07314663 0 29163
0.16450000 0.16449100 8652.73456006 0 247.47143569 0 2048.16143437 0 -5.01745617 0 490.86539803 0 28996
0.16550000 0.16550500 8568.96620955 0 7.40240460 0 2113.34388807 0 217.53188466 0 1057.70998614 0 30777
0.16650000 0.16650700 8395.20125589 0 7.94330692 0 2078.11636380 0 -132.61564632 0 513.10586213 0 29211
0.16750000 0.16749900 8290.94667752 0 233.59023131 0 2004.97009498 0 -120.32061423 0 196.76005791 0 30922
0.16850000 0.16850800 8092.23575952 0 140.98589062 0 2166.03688274 0 -65.36216131 0 585.86657245 0 30867
0.16950000 0.16949900 8082.23979847 0 27.59939768 0 2182.67851020 0 -138.62969981 0 -70.78282818 0 30852
0.17050000 0.17049200 8045.07898943 0 115.83121941 0 2258.28532328 0 33.44308045 0 112.62592113 0 31257
0.17150000 0.17149500 8011.55407391 0 86.16825992 0 2470.25462038 0 -211.03231306 0 -123.22603367 0 32608
0.17250000 0.17250900 7913.11033444 0 9.28581942 0 2412.12426228 0 -44.10218015 0 72.49411475 0 32361
0.17350000 0.17350400 7832.00025050 0 7.97333875 0 2500.89059331 0 326.79323121 0 36.85521823 0 32508
0.17450000 0.17449800 7838.76674721 0 31.29702451 0 2456.05156804 0 31.78199339 0 185.71507018 0 32791
0.17550000 0.17549800 7812.49164959 0 126.54337459 0 2506.59158648 0 131.20852257 0 450.44107247 0 33633
0.17650000 0.17650100 7811.04168601 0 10.16355267 0 2192.59757924 0 373.38100044 0 731.86362509 0 33984
0.17750000 0.17750300 7837.75616653 0 -85.66648465 0 2031.20125431 0 301.38152100 0 633.22655714 0 34069
0.17850000 0.17849800 7694.85786182 0 44.32923126 0 2095.83447938 0 -44.46203475 0 1012.85997629 0 34536
