### header ###
fiducial parameters:
Omega_m = 0.31
Omega_nu = 0
Omega_de = 0.69
Omega_k = 0
H_0 = 100
w_de = -1
zeff = 0
beta = 0
fgrowth = 0
b_1 = 2
gamma = 0.55
Lx = 3500 Ly = 3500 Lz = 3500
nx = 700 ny = 700 nz = 700
xoffset = -983.599254 yoffset = -42.9823471 zoffset = 800.977702
bins = 400 dk = 0.001
kx_ny = 0.628318531 ky_ny = 0.628318531 kz_ny = 0.628318531
############################
A(data) = 9.10243981 (not used)
A(ran) = 9.10707663 (used)
Ngal = 505491
weighted Ngal = 0
Nran = 25229228
weighted Nran = 0
SN(data) = 6724.47463
SN(ran) = 135.188278
SN(data+ran) = 6859.66291
############################
13 columns: k_central k_mean P_0(k) sigma^{lin}_{P_0(k)} P^img_1(k) sigma^{lin}_{P_1(k)} P_2(k) sigma^{lin}_{P_2(k)} P^img_3(k) sigma^{lin}_{P_3(k)} P_4(k) sigma^{lin}_{P_4(k)} N_modes
### header ###
0.00050000 0 0 0 0 0 0 0 0 0 0 0 0
0.00150000 0.00179520 33320.93200542 0 -20277.85052234 0 -8701.24243258 0 1237.90640705 0 13191.37321294 0 3
0.00250000 0.00253879 54868.15973526 0 -16008.14715997 0 -13363.06208238 0 -48238.31110807 0 4150.30105841 0 6
0.00350000 0.00331552 41334.61708642 0 17750.30037137 0 -16972.26309543 0 2944.66732560 0 40175.41514191 0 7
0.00450000 0.00420575 42648.70150432 0 8096.46481997 0 13969.30064315 0 -21426.06789426 0 -2498.86943196 0 24
0.00550000 0.00557378 46208.25224931 0 -9993.52247391 0 -1064.51712577 0 4835.52968061 0 -35753.46560356 0 45
0.00650000 0.00659388 74661.48076103 0 -5416.89916905 0 -22041.64334172 0 6630.32096382 0 -12793.73168549 0 40
0.00750000 0.00754703 81464.44625211 0 -6586.11904375 0 -581.32335324 0 -34145.54386911 0 9884.79717450 0 57
0.00850000 0.00846663 70492.94531214 0 -7151.79157797 0 -7382.76418564 0 -11762.60985728 0 -34235.17798137 0 75
0.00950000 0.00948925 87649.19999831 0 -6751.25012336 0 17660.99579628 0 -12921.26257316 0 -43381.15280405 0 112
0.01050000 0.01054430 101282.92194910 0 -835.50746122 0 8832.27739890 0 -28215.96174397 0 -41767.73878330 0 105
0.01150000 0.01145670 92493.17681523 0 11081.12697433 0 13329.66898173 0 -29958.88387545 0 -25725.75913978 0 144
0.01250000 0.01249090 86848.31481141 0 -349.46978285 0 34553.29120332 0 1236.29167489 0 -22117.32704681 0 169
0.01350000 0.01339930 88463.70605522 0 2274.67430557 0 23435.69544802 0 37439.37780335 0 -16949.52503019 0 180
0.01450000 0.01448870 99377.75768059 0 -2391.08880579 0 20385.82887081 0 21057.09610126 0 -5167.54937145 0 267
0.01550000 0.01550050 98661.23401111 0 1489.36524259 0 8348.36303840 0 -11759.86371413 0 1231.17286406 0 238
0.01650000 0.01653350 86754.94594446 0 682.38251944 0 25839.44946600 0 -6817.31134287 0 7234.35162549 0 315
0.01750000 0.01747870 79282.03137165 0 10886.68905507 0 12783.84557017 0 -824.11536100 0 5537.29008454 0 297
0.01850000 0.01844180 76633.65092229 0 4467.77717515 0 35778.94981195 0 -1620.41119348 0 5592.87202180 0 388
0.01950000 0.01947590 65717.62207385 0 2884.96617362 0 30509.32080750 0 3597.13995236 0 596.93682470 0 399
0.02050000 0.02045430 66362.19679293 0 2854.93435218 0 32739.95796160 0 9820.14198029 0 5981.64899917 0 462
0.02150000 0.02154770 65344.80568044 0 5465.95627019 0 28872.94903006 0 1027.73089065 0 -2360.71646260 0 571
0.02250000 0.02255340 63962.94644971 0 2808.40370273 0 40273.50737506 0 -7812.32688100 0 9635.96365181 0 510
0.02350000 0.02348930 56432.69240802 0 -4483.33132993 0 28395.01027705 0 13458.29832666 0 -1782.31280876 0 555
0.02450000 0.02439640 60807.18859282 0 -2437.28991807 0 30652.23009679 0 3951.28257238 0 4267.79204674 0 592
0.02550000 0.02547300 59287.80251336 0 2699.01932896 0 21247.01936119 0 3495.22508795 0 -291.02526597 0 837
0.02650000 0.02652900 58384.43126427 0 1749.24924529 0 20806.75769213 0 4291.35395493 0 4319.70513676 0 723
0.02750000 0.02749970 57839.26692706 0 255.92076891 0 20079.68883297 0 1179.30371233 0 -4562.40926794 0 826
0.02850000 0.02848090 61554.57891125 0 -2044.76720144 0 13445.88575964 0 3482.88941294 0 -644.14302537 0 831
0.02950000 0.02946900 58515.58706090 0 775.92604109 0 14242.37711752 0 -764.34830159 0 -1572.70519476 0 996
0.03050000 0.03053250 58213.84085209 0 3314.32016211 0 16180.16556659 0 -415.58372830 0 -7927.22551021 0 1041
0.03150000 0.03150510 55243.94196327 0 -405.94366740 0 18995.51151919 0 -1862.89563322 0 13.54265984 0 1036
0.03250000 0.03246190 52610.50053262 0 1436.38664903 0 18450.89641061 0 1771.09756015 0 -7579.12440510 0 1059
0.03350000 0.03345080 52475.71982704 0 2088.69450720 0 19076.35797339 0 -1959.23033475 0 -2927.01511746 0 1302
0.03450000 0.03451200 51751.39711103 0 1009.47562948 0 20002.90667063 0 3268.95387734 0 -3771.97040956 0 1339
0.03550000 0.03553350 52795.04135198 0 -1647.42225746 0 16741.47722550 0 1135.58511346 0 -5204.43556618 0 1365
0.03650000 0.03647120 50256.06724553 0 280.82169650 0 19691.27434649 0 -596.33487012 0 -6855.60356289 0 1308
0.03750000 0.03744890 48844.98905173 0 3019.99952436 0 15381.47729420 0 -2255.33047326 0 -7763.29174900 0 1579
0.03850000 0.03847530 49495.05605710 0 574.00323407 0 18891.04823394 0 1663.54761001 0 -7256.34273980 0 1662
0.03950000 0.03950240 48440.64693501 0 345.77017880 0 16067.79338909 0 4272.08701462 0 -7025.13945611 0 1683
0.04050000 0.04050350 48280.71155823 0 -1325.32163566 0 11770.95813244 0 2859.10848976 0 -4538.05647053 0 1822
0.04150000 0.04152450 45476.35017821 0 2138.83908103 0 13766.63527902 0 1266.25758889 0 -11939.02209294 0 1887
0.04250000 0.04250150 42735.91901062 0 2659.60668254 0 12718.59720903 0 -3051.64607797 0 -1588.58888671 0 1920
0.04350000 0.04349210 41086.80512898 0 1355.03490449 0 12478.25476095 0 -2151.87776869 0 -3035.03740423 0 2005
0.04450000 0.04448520 40469.14261273 0 -637.32819654 0 15171.23257500 0 3157.20782047 0 -4204.05955662 0 2151
0.04550000 0.04548030 39442.63430501 0 1436.66126334 0 16504.43014919 0 -658.88651869 0 -6969.17305881 0 2274
0.04650000 0.04648670 38394.48638929 0 2282.57221326 0 15192.32295435 0 -2189.79651324 0 -2517.23563731 0 2311
0.04750000 0.04749250 36686.38535290 0 1531.76569275 0 20099.24137216 0 -1097.11494336 0 -574.42723857 0 2568
0.04850000 0.04851840 35863.09163792 0 -346.45781304 0 20795.55342810 0 2692.79107631 0 1312.97497608 0 2493
0.04950000 0.04949480 36740.42945000 0 -813.91288999 0 20471.83807412 0 4212.23207862 0 -247.14519388 0 2644
0.05050000 0.05050630 35939.21472591 0 -381.27671121 0 15904.78233198 0 -12.06732190 0 2010.29761268 0 2829
0.05150000 0.05149060 36837.75276307 0 1213.53164050 0 19896.90554522 0 813.11650848 0 2098.98705171 0 2784
0.05250000 0.05249300 35792.90021913 0 1098.23976360 0 18333.36148399 0 -1373.07157267 0 2159.14955573 0 3055
0.05350000 0.05348950 37022.84281106 0 -259.11947645 0 18367.08412181 0 1812.82795139 0 1726.88465551 0 3009
0.05450000 0.05448610 35778.73012050 0 -47.96874970 0 19359.32056309 0 -449.35359979 0 -2423.36148003 0 3336
0.05550000 0.05550870 35305.40488797 0 898.34361022 0 17956.37095300 0 -116.75941580 0 -1496.56013763 0 3349
0.05650000 0.05647670 34913.25564682 0 -359.40203337 0 16466.20383661 0 1158.60877759 0 -1219.02392679 0 3324
0.05750000 0.05747970 34888.97974141 0 89.19934288 0 16370.41836370 0 1721.37040008 0 -3746.65096976 0 3639
0.05850000 0.05849280 34833.61749560 0 395.71812879 0 17171.52324206 0 19.55429673 0 -1546.48502001 0 3846
0.05950000 0.05951020 33652.77594311 0 501.64895293 0 15350.50079952 0 2060.51907853 0 -1634.59227668 0 3787
0.06050000 0.06049470 34114.01814580 0 -466.59937874 0 13230.91767423 0 1865.38913119 0 488.80798758 0 3930
0.06150000 0.06148310 34843.17407375 0 419.09988998 0 13625.59336708 0 -852.06890131 0 -4493.67879730 0 4083
0.06250000 0.06249100 33750.09925618 0 966.86757090 0 14386.93409269 0 -354.74237769 0 -1376.53171303 0 4303
0.06350000 0.06350600 32826.84593072 0 410.52313571 0 13552.21642223 0 -692.84422637 0 -539.71049693 0 4470
0.06450000 0.06451750 30988.57770923 0 336.20591145 0 13481.25608336 0 1953.22177355 0 -2311.73625346 0 4479
0.06550000 0.06550280 32524.22095610 0 398.01500291 0 13640.20284861 0 1775.82092636 0 -1361.10937313 0 4636
0.06650000 0.06648880 31271.32060747 0 510.93970442 0 12303.05082828 0 2067.02194549 0 736.70562468 0 4653
0.06750000 0.06749660 31911.28180606 0 -412.21585835 0 12576.78637701 0 237.07563619 0 541.36477356 0 5220
0.06850000 0.06852730 30585.11435831 0 403.32824067 0 12542.18497338 0 -1534.14934500 0 -936.05035252 0 5029
0.06950000 0.06949320 29650.54692309 0 907.64754320 0 10906.93362234 0 1179.44651178 0 2452.42665908 0 5040
0.07050000 0.07048030 29797.85004141 0 -280.52071921 0 11815.55549712 0 751.91596234 0 -2300.90546490 0 5475
0.07150000 0.07148790 30373.44164467 0 1026.49512624 0 12262.73744691 0 733.30040718 0 273.34889177 0 5509
0.07250000 0.07249820 28282.52825381 0 1103.60902267 0 12150.36526940 0 -1430.67467128 0 -1663.32791856 0 5916
0.07350000 0.07351270 27419.79992327 0 193.94910578 0 11401.43711081 0 102.05239126 0 1410.14450513 0 5721
0.07450000 0.07449140 26873.42728308 0 -105.75979435 0 12027.44790222 0 1416.65835667 0 -969.72575668 0 6028
0.07550000 0.07549160 26664.28102113 0 530.64712609 0 12197.37924005 0 670.94208710 0 1244.32139744 0 6183
0.07650000 0.07648840 26454.14614765 0 692.76733436 0 10242.76242578 0 2236.28322440 0 613.86954334 0 6330
0.07750000 0.07749960 25880.64161318 0 -384.97631526 0 10986.54980441 0 169.25029433 0 1790.78191422 0 6583
0.07850000 0.07848650 25690.60850752 0 707.34276372 0 11317.51497628 0 -622.76924404 0 1396.57855799 0 6549
0.07950000 0.07947320 24873.13661602 0 453.70898281 0 9524.63500870 0 -736.75175989 0 143.40689042 0 6828
0.08050000 0.08048110 24063.68346250 0 883.93954019 0 11880.69401253 0 -273.74433639 0 76.31564755 0 7147
0.08150000 0.08149960 23210.40186438 0 758.21012243 0 10501.73470896 0 176.94718434 0 -360.36538039 0 7386
0.08250000 0.08250610 22354.81350602 0 470.95805714 0 12223.63236852 0 1472.73459970 0 -75.02913441 0 7227
0.08350000 0.08350160 22339.54495013 0 -106.80651427 0 10275.02411545 0 1534.32509816 0 -589.44424774 0 7798
0.08450000 0.08449610 22362.28301537 0 -418.78463275 0 9043.84026682 0 890.55774517 0 -161.07557542 0 7371
0.08550000 0.08548940 22012.75391583 0 -17.43987635 0 7504.64900300 0 751.94122686 0 1239.51015465 0 8256
0.08650000 0.08650700 22065.04048132 0 276.32351403 0 7928.63153550 0 153.67307196 0 670.43459984 0 8037
0.08750000 0.08749060 21536.57269443 0 370.34156921 0 7181.80143026 0 137.91789950 0 1022.89548180 0 8155
0.08850000 0.08849210 21138.49178409 0 458.33788170 0 7140.18088475 0 278.84447343 0 560.55482186 0 8718
0.08950000 0.08949900 21159.03293481 0 52.61676174 0 7916.21896848 0 -398.68396338 0 297.62369872 0 8571
0.09050000 0.09049190 20560.37372913 0 458.23242980 0 7657.05994757 0 82.23797985 0 -1034.83131837 0 8932
0.09150000 0.09150830 20091.11278845 0 557.52417828 0 8472.18114054 0 -314.28839378 0 1159.28982109 0 9285
0.09250000 0.09250820 19572.31142544 0 152.57461470 0 7658.26825055 0 1058.29766078 0 386.57566903 0 9204
0.09350000 0.09350330 19540.01678205 0 -235.93763447 0 7637.30968607 0 1339.84324061 0 1394.68921151 0 9349
0.09450000 0.09448040 19507.94183011 0 191.34246671 0 6494.38687812 0 1040.93874073 0 2079.01709875 0 9564
0.09550000 0.09549270 19225.08908614 0 -21.49911530 0 6289.53558405 0 1103.07077862 0 2783.53463040 0 10155
0.09650000 0.09649430 18710.57170643 0 381.82923521 0 5093.11790764 0 406.12710976 0 3290.54954704 0 9913
0.09750000 0.09749140 18480.11537367 0 925.17892104 0 6558.66859687 0 -1108.73881807 0 2357.17943023 0 10476
0.09850000 0.09850240 17219.85536142 0 517.89623424 0 6386.35360678 0 -966.99279502 0 2832.29514809 0 10575
0.09950000 0.09950330 17005.76604181 0 157.37377446 0 7267.61291127 0 507.33346924 0 1201.34974950 0 10882
0.10050000 0.10051200 16646.68036412 0 332.21521624 0 7012.86968853 0 -347.67160831 0 1109.34296956 0 10875
0.10150000 0.10150300 16532.11127210 0 127.88568936 0 7000.36924494 0 379.91023038 0 1521.81366999 0 11118
0.10250000 0.10250800 16692.81556896 0 -268.92979822 0 7053.90805170 0 17.27346008 0 158.32174307 0 11575
0.10350000 0.10349800 16287.59468644 0 322.38182686 0 6478.66795476 0 -276.20597910 0 88.26082100 0 11364
0.10450000 0.10450100 16215.42604458 0 485.90366659 0 7153.03283467 0 293.82083969 0 262.42363588 0 12093
0.10550000 0.10551000 15907.30878367 0 -159.61243035 0 6741.73748351 0 13.02968030 0 757.96296954 0 12067
0.10650000 0.10649700 15907.52847512 0 -205.86517012 0 5813.26648607 0 1043.20925188 0 -503.15823320 0 12054
0.10750000 0.10749900 16127.76915538 0 117.85018385 0 5784.68462821 0 902.42218202 0 101.20152627 0 12807
0.10850000 0.10850100 15653.45531132 0 417.83995951 0 6062.77006768 0 -613.07755565 0 557.23967785 0 12736
0.10950000 0.10950300 15279.86999783 0 297.88513155 0 5379.43079197 0 -125.68877485 0 205.32582760 0 12933
0.11050000 0.11050200 14565.32355141 0 103.60297352 0 5737.67065757 0 337.03414823 0 771.45092622 0 13428
0.11150000 0.11150900 14865.31222861 0 78.90251439 0 5203.26021691 0 679.21017488 0 -476.86885564 0 13453
0.11250000 0.11250000 15188.36850822 0 15.36137553 0 5095.71026677 0 642.54696697 0 1062.37293720 0 13668
0.11350000 0.11349100 14830.27144207 0 -195.49573360 0 4589.38737820 0 461.51352163 0 953.97937189 0 13791
0.11450000 0.11448600 14778.53410521 0 101.54885845 0 4729.56150891 0 -342.45942862 0 1192.30944627 0 14205
0.11550000 0.11549300 14782.70824279 0 659.91028085 0 4817.52596614 0 -543.49468218 0 38.25267556 0 14776
0.11650000 0.11649800 14261.27058236 0 157.74615147 0 5748.94082903 0 -463.80929730 0 1029.01608565 0 14553
0.11750000 0.11747300 14198.21913574 0 -112.45566026 0 5725.31301341 0 542.84439548 0 485.96847557 0 14568
0.11850000 0.11849100 14099.02844533 0 -77.12235456 0 5561.33531392 0 122.96020702 0 709.16290739 0 16015
0.11950000 0.11950300 14531.71075931 0 186.15555154 0 5597.77114117 0 142.58524439 0 771.27956688 0 15270
0.12050000 0.12050700 14159.11405735 0 156.60265746 0 5595.23370490 0 -434.73862597 0 41.54167628 0 15999
0.12150000 0.12150000 13806.17974031 0 234.45911101 0 5730.47576253 0 435.32959597 0 1407.95857519 0 15670
0.12250000 0.12250700 13788.16504128 0 185.35148082 0 5584.16125574 0 387.08095936 0 967.42229181 0 16887
0.12350000 0.12352200 13593.62826086 0 13.60911651 0 5235.97227406 0 542.04471860 0 1166.23207096 0 16407
0.12450000 0.12449800 13382.50477585 0 -111.42091352 0 4685.53534201 0 402.77681513 0 719.15667153 0 16306
0.12550000 0.12549900 13339.66494278 0 29.77247568 0 4432.82426520 0 531.37760017 0 1004.47215667 0 17523
0.12650000 0.12650100 13442.26085069 0 166.77437167 0 4325.82354369 0 -217.44181116 0 929.28165889 0 17154
0.12750000 0.12750600 12984.86324841 0 399.78461756 0 3880.65177068 0 -232.79714517 0 610.90480720 0 18007
0.12850000 0.12850300 12940.04619227 0 30.70989910 0 4042.78406198 0 126.78064136 0 -156.53455311 0 17496
0.12950000 0.12949900 12658.95097992 0 123.11948332 0 3966.78180429 0 433.96531206 0 230.45962813 0 18405
0.13050000 0.13049000 12601.61151104 0 -10.42676500 0 3612.86986029 0 214.70006185 0 371.70475467 0 18100
0.13150000 0.13148800 12294.92224457 0 42.81885253 0 3497.26821845 0 293.47153028 0 335.10855265 0 19059
0.13250000 0.13249300 12257.13531489 0 353.82296896 0 3388.74064134 0 -113.92759298 0 65.06041510 0 18957
0.13350000 0.13349100 12097.63932101 0 283.99513952 0 3286.79282322 0 -137.43567677 0 211.07844827 0 19468
0.13450000 0.13450700 11786.88576268 0 -22.96456713 0 4045.01393022 0 166.13287263 0 673.97273067 0 19953
0.13550000 0.13551000 11860.81193616 0 -162.05539929 0 3575.84086612 0 236.35285132 0 294.52385234 0 19956
0.13650000 0.13649900 11906.72744955 0 6.93336335 0 3519.54493164 0 -17.31629991 0 238.04996778 0 19723
0.13750000 0.13749600 11805.44969035 0 81.17752922 0 3243.51360725 0 -85.30410360 0 262.21932283 0 20946
0.13850000 0.13851100 11851.58489519 0 263.64512035 0 3722.16635748 0 89.45770003 0 244.25844821 0 20955
0.13950000 0.13949800 11511.94191097 0 156.38186755 0 3577.51052115 0 -134.52586349 0 199.53585940 0 20506
0.14050000 0.14048300 11629.91622050 0 94.05628149 0 3442.00483379 0 284.35982733 0 128.63923104 0 21447
0.14150000 0.14148400 11532.37321597 0 11.87355404 0 3195.29133361 0 376.84992846 0 508.76256213 0 21771
0.14250000 0.14249400 11209.97601071 0 38.44512527 0 3052.84339638 0 356.29889162 0 543.20249255 0 22470
0.14350000 0.14350900 11153.29561619 0 121.06097442 0 2978.78540804 0 42.00379725 0 659.86853948 0 22519
0.14450000 0.14449900 10727.44570636 0 378.00550550 0 2738.50886739 0 -139.89731948 0 456.35296943 0 22218
0.14550000 0.14550500 10615.77654150 0 134.27980906 0 3152.29771653 0 4.59152937 0 746.09304041 0 23559
0.14650000 0.14650700 10380.93736428 0 157.19143055 0 3362.64129689 0 66.38844992 0 894.40893632 0 23044
0.14750000 0.14750500 10314.04131726 0 93.41632029 0 3409.34769951 0 -222.36070276 0 457.22404604 0 23649
0.14850000 0.14849900 10297.97088757 0 74.41059312 0 3382.52337326 0 48.32047571 0 448.46934169 0 23640
0.14950000 0.14949500 10097.03010134 0 -87.80276432 0 3385.69791474 0 147.25918003 0 625.02986908 0 24457
0.15050000 0.15050000 10079.45478521 0 91.19073604 0 3294.58088518 0 266.89435692 0 654.66075362 0 24591
0.15150000 0.15149900 10013.23978169 0 186.33350161 0 3093.59616066 0 19.63536287 0 834.95274031 0 25020
0.15250000 0.15250500 10228.18589796 0 -19.84659620 0 3013.17810479 0 175.08859466 0 692.27742242 0 25297
0.15350000 0.15350100 9981.16482976 0 165.07286138 0 3656.20399913 0 197.32466494 0 651.54223346 0 25452
0.15450000 0.15450400 9752.00467656 0 163.88652754 0 2813.11608436 0 -95.52656653 0 964.21259970 0 26061
0.15550000 0.15549900 9624.41886603 0 120.63037917 0 3302.33599342 0 -88.00521000 0 1076.46504537 0 26128
0.15650000 0.15649500 9460.71578085 0 48.78237699 0 2978.26913312 0 365.75221478 0 665.09939294 0 26331
0.15750000 0.15749700 9402.27785472 0 86.90049153 0 2756.19402925 0 122.73831865 0 820.72881727 0 27345
0.15850000 0.15849900 9264.02602421 0 192.57823112 0 2734.24685323 0 3.21030724 0 523.96521059 0 26980
0.15950000 0.15949700 9080.02344890 0 45.61585425 0 2929.38778514 0 -206.87025851 0 845.29691231 0 27777
0.16050000 0.16050000 8854.53214295 0 17.84960091 0 2711.49780341 0 100.43579171 0 367.37463615 0 28224
0.16150000 0.16150500 9017.68599950 0 54.86958773 0 2655.82798957 0 286.27224141 0 496.23355865 0 28075
0.16250000 0.16249700 8979.38279491 0 52.27305446 0 2447.68132373 0 153.96965542 0 314.07089925 0 28590
0.16350000 0.16349900 8920.39564015 0 37.08743210 0 2538.84229158 0 -28.50771199 0 389.75570279 0 29163
0.16450000 0.16449100 8892.82436297 0 164.14796037 0 2300.30131340 0 -192.73860588 0 84.75454543 0 28996
0.16550000 0.16550500 8618.36383245 0 39.81303409 0 2575.32205712 0 -77.70387783 0 -59.73168909 0 30777
0.16650000 0.16650700 8573.07443970 0 97.56409490 0 2270.62099829 0 79.38221067 0 -19.07207399 0 29211
0.16750000 0.16749900 8419.32337728 0 185.51075713 0 2554.53924580 0 167.49935346 0 -103.39756202 0 30922
0.16850000 0.16850800 8268.96654778 0 94.31958170 0 2249.06926688 0 -8.68821473 0 84.72071295 0 30867
0.16950000 0.16949900 8341.05829763 0 95.83072935 0 2270.54410628 0 260.96488464 0 -351.75896777 0 30852
0.17050000 0.17049200 7899.84097076 0 161.42708174 0 2306.36479747 0 -301.19478327 0 -37.69202297 0 31257
0.17150000 0.17149500 7928.40085947 0 41.98149857 0 2364.96749219 0 41.83650221 0 12.91851643 0 32608
0.17250000 0.17250900 7851.40999025 0 3.95349047 0 2234.94310655 0 168.09142193 0 -137.30276344 0 32361
0.17350000 0.17350400 7914.54931345 0 29.48171404 0 2063.46294398 0 237.57433579 0 -25.40204379 0 32508
0.17450000 0.17449800 7852.90389212 0 15.26745743 0 1987.63643945 0 92.94782827 0 1.55258146 0 32791
0.17550000 0.17549800 7864.60246192 0 22.19729474 0 2071.28395966 0 140.30704404 0 515.46974215 0 33633
0.17650000 0.17650100 7786.21655198 0 132.59148026 0 2047.60122117 0 -54.69987608 0 345.78116337 0 33984
0.17750000 0.17750300 7641.46185450 0 38.03737793 0 2142.88140374 0 86.84545882 0 482.56325807 0 34069
0.17850000 0.17849800 7639.29789370 0 -12.96311379 0 2000.08196018 0 90.45092508 0 269.46364845 0 34536
