### header ###
fiducial parameters:
Omega_m = 0.31
Omega_nu = 0
Omega_de = 0.69
Omega_k = 0
H_0 = 100
w_de = -1
zeff = 0
beta = 0
fgrowth = 0
b_1 = 2
gamma = 0.55
Lx = 3500 Ly = 3500 Lz = 3500
nx = 700 ny = 700 nz = 700
xoffset = -983.599254 yoffset = -42.9823471 zoffset = 800.977702
bins = 400 dk = 0.001
kx_ny = 0.628318531 ky_ny = 0.628318531 kz_ny = 0.628318531
############################
A(data) = 9.01158112 (not used)
A(ran) = 8.99019101 (used)
Ngal = 499749
weighted Ngal = 0
Nran = 25229228
weighted Nran = 0
SN(data) = 6764.23902
SN(ran) = 133.453192
SN(data+ran) = 6897.69221
############################
13 columns: k_central k_mean P_0(k) sigma^{lin}_{P_0(k)} P^img_1(k) sigma^{lin}_{P_1(k)} P_2(k) sigma^{lin}_{P_2(k)} P^img_3(k) sigma^{lin}_{P_3(k)} P_4(k) sigma^{lin}_{P_4(k)} N_modes
### header ###
0.00050000 0 0 0 0 0 0 0 0 0 0 0 0
0.00150000 0.00179520 49949.48782479 0 -30825.78634357 0 -39999.44228915 0 25468.39060420 0 -90226.83980025 0 3
0.00250000 0.00253879 56786.28579942 0 -16210.15344974 0 -14069.91932799 0 10265.35769158 0 57375.60811840 0 6
0.00350000 0.00331552 66744.67961021 0 13136.99957866 0 4373.78218758 0 -5622.46446033 0 1611.73338114 0 7
0.00450000 0.00420575 61847.31777054 0 15046.77736765 0 19153.57951864 0 -37306.02509221 0 23438.55143689 0 24
0.00550000 0.00557378 34130.82454185 0 -6794.60623134 0 2114.92566652 0 20667.36346607 0 4812.20943302 0 45
0.00650000 0.00659388 54279.93587353 0 -18891.15807967 0 5080.90306293 0 17534.78305732 0 6450.94289356 0 40
0.00750000 0.00754703 48382.20900888 0 -384.94775537 0 -26928.35014599 0 10795.35233406 0 14081.45312920 0 57
0.00850000 0.00846663 72722.81354615 0 -11244.46756862 0 -32820.58472434 0 13566.60621231 0 -3255.46482221 0 75
0.00950000 0.00948925 88911.43723363 0 -1429.34553800 0 -3439.32459808 0 -32773.13137079 0 -31144.00941125 0 112
0.01050000 0.01054430 73782.27557162 0 19404.35731067 0 -11740.64071212 0 -21586.00327105 0 25149.72815361 0 105
0.01150000 0.01145670 78026.82426278 0 -9220.30742534 0 -4706.37307619 0 25739.48985551 0 37959.38746935 0 144
0.01250000 0.01249090 81867.36037440 0 -12438.71029966 0 1767.36280548 0 31037.56890294 0 13292.98050931 0 169
0.01350000 0.01339930 88082.10200374 0 5160.12380038 0 -2184.15044293 0 -12631.05016556 0 2885.21881879 0 180
0.01450000 0.01448870 84279.02328463 0 5078.38759581 0 4282.20380597 0 -931.25229122 0 39207.67429749 0 267
0.01550000 0.01550050 73631.12785291 0 3127.86802711 0 -674.99209901 0 -6111.40975507 0 46138.17067624 0 238
0.01650000 0.01653350 80023.81955807 0 -1944.60986865 0 19456.09464753 0 6826.35164610 0 24133.76503557 0 315
0.01750000 0.01747870 78608.78691814 0 1698.76414970 0 14513.80590600 0 1003.67467670 0 13022.76002381 0 297
0.01850000 0.01844180 80743.41890787 0 5002.27549239 0 18766.59302660 0 -9019.42156197 0 14083.54019799 0 388
0.01950000 0.01947590 76397.04322889 0 4384.84365217 0 27912.23831210 0 13907.67719096 0 25788.26135777 0 399
0.02050000 0.02045430 69365.81831957 0 -6296.85130939 0 25467.62168412 0 -42.18064887 0 21858.20097961 0 462
0.02150000 0.02154770 71459.80739075 0 3698.69232587 0 22844.94513460 0 -136.83591910 0 1130.24661118 0 571
0.02250000 0.02255340 70333.00993536 0 7878.68468397 0 25410.61175242 0 -6208.16187037 0 3155.18665912 0 510
0.02350000 0.02348930 66491.26552076 0 3910.32110122 0 32912.30590540 0 -7956.71908759 0 3627.61115670 0 555
0.02450000 0.02439640 60689.65366620 0 -21.00404062 0 40040.96397351 0 3792.98389691 0 -3344.45084470 0 592
0.02550000 0.02547300 58827.65876793 0 1753.46732116 0 35609.56770275 0 -914.03287524 0 -10649.52114847 0 837
0.02650000 0.02652900 58213.73100636 0 -939.48083454 0 30391.56618943 0 13435.34056997 0 -3051.69001626 0 723
0.02750000 0.02749970 64548.09463112 0 -1699.68685380 0 29960.42171561 0 2538.00746406 0 -10195.66057855 0 826
0.02850000 0.02848090 64633.99398870 0 33.92903794 0 25475.31088493 0 -4397.21228089 0 -12289.21026683 0 831
0.02950000 0.02946900 62422.14045372 0 2421.53804098 0 28223.87063623 0 -107.29357022 0 -11041.91205022 0 996
0.03050000 0.03053250 61399.80628358 0 -1550.23075926 0 27433.53063900 0 -3358.59897418 0 -7380.30364138 0 1041
0.03150000 0.03150510 56237.16701607 0 3541.00878647 0 31004.61518520 0 2075.97437215 0 -9924.14391349 0 1036
0.03250000 0.03246190 61916.95996071 0 4227.29192763 0 31801.32623452 0 2540.46800832 0 -16337.90402886 0 1059
0.03350000 0.03345080 53514.20131888 0 -675.95654448 0 27343.01776093 0 5954.82467293 0 -1136.80440102 0 1302
0.03450000 0.03451200 58852.04451906 0 -3089.34513107 0 28473.00074237 0 6517.65220285 0 -2688.47413928 0 1339
0.03550000 0.03553350 52330.83331470 0 2199.77050514 0 17914.19019428 0 5628.65975927 0 2244.23605495 0 1365
0.03650000 0.03647120 55526.35532434 0 1427.96148186 0 18447.71088456 0 -912.53348108 0 -215.90836483 0 1308
0.03750000 0.03744890 52850.29375207 0 2689.50668911 0 20917.26249230 0 -94.73853330 0 1733.71705966 0 1579
0.03850000 0.03847530 51690.32288748 0 723.34948288 0 21576.33684718 0 2110.88334381 0 429.27380111 0 1662
0.03950000 0.03950240 47339.99276236 0 2213.19365283 0 19470.81397479 0 1004.96756089 0 8341.62949541 0 1683
0.04050000 0.04050350 46021.18497825 0 358.33762829 0 20035.75054264 0 204.03074650 0 8482.70436107 0 1822
0.04150000 0.04152450 44954.80267205 0 1188.43189215 0 19104.47847920 0 6139.21170828 0 3354.27105258 0 1887
0.04250000 0.04250150 44313.41347903 0 1748.00798859 0 18545.80311771 0 1537.57653165 0 6004.46395642 0 1920
0.04350000 0.04349210 42617.39547247 0 -320.43206523 0 15510.76571349 0 2862.18417009 0 11473.49590694 0 2005
0.04450000 0.04448520 41997.75573315 0 -386.79426202 0 13229.16014261 0 3702.44904969 0 6480.16185663 0 2151
0.04550000 0.04548030 42781.72467828 0 229.29636189 0 10883.80011248 0 137.92778562 0 4133.51663150 0 2274
0.04650000 0.04648670 40668.95198799 0 2213.96257291 0 11902.33362051 0 -2110.87235924 0 1122.79907097 0 2311
0.04750000 0.04749250 38870.44791924 0 1509.29125725 0 12896.98666776 0 -1488.48647678 0 5142.38371567 0 2568
0.04850000 0.04851840 36571.81626087 0 -266.66587781 0 11170.65124087 0 4393.86198626 0 4684.83232936 0 2493
0.04950000 0.04949480 37135.65437147 0 -613.87393717 0 11665.83577284 0 1644.08294739 0 3002.11664020 0 2644
0.05050000 0.05050630 36514.36694627 0 1202.56903706 0 9120.82015147 0 820.69366664 0 478.25401025 0 2829
0.05150000 0.05149060 35627.03317315 0 1599.80413532 0 11325.42386854 0 -3300.86406069 0 1428.68646365 0 2784
0.05250000 0.05249300 34464.09647396 0 1703.09207130 0 11539.95257106 0 -738.31596303 0 3668.45179756 0 3055
0.05350000 0.05348950 33556.44124157 0 -5.10233396 0 14916.17079966 0 -1750.00718080 0 1155.78574244 0 3009
0.05450000 0.05448610 32158.21499769 0 -53.29912339 0 13530.35712280 0 2557.66984899 0 471.57758703 0 3336
0.05550000 0.05550870 32274.21208415 0 495.84909861 0 14629.80299246 0 62.30295784 0 1266.66401807 0 3349
0.05650000 0.05647670 32929.22214717 0 -274.76480318 0 12278.55523143 0 1817.82593191 0 4888.71698104 0 3324
0.05750000 0.05747970 33059.27948654 0 208.91229055 0 14096.61183936 0 1490.80422159 0 2477.60329944 0 3639
0.05850000 0.05849280 32851.23168185 0 -45.42505222 0 12037.66355472 0 -868.09319579 0 1474.37130101 0 3846
0.05950000 0.05951020 32129.98464615 0 503.67670503 0 13040.00580276 0 1144.62541669 0 1721.20563149 0 3787
0.06050000 0.06049470 31473.21705152 0 888.48166096 0 13281.77624528 0 -1127.65425206 0 1463.00226839 0 3930
0.06150000 0.06148310 31943.57644945 0 648.08209310 0 12896.98666776 0 495.72387448 0 2791.59730668 0 4083
0.06250000 0.06249100 31123.79779770 0 -274.82521833 0 12603.80842556 0 1824.25190687 0 891.67158083 0 4303
0.06350000 0.06350600 30667.38880695 0 -481.17810347 0 9852.70025342 0 1777.04021392 0 -871.39955213 0 4470
0.06450000 0.06451750 30885.65226414 0 318.50976503 0 10389.15382457 0 -572.72682673 0 -492.48122865 0 4479
0.06550000 0.06550280 29851.01537270 0 544.79964940 0 9503.31395332 0 1563.87359841 0 2665.86788891 0 4636
0.06650000 0.06648880 30117.17156635 0 -113.49040700 0 9301.30766355 0 -355.37399061 0 672.54473624 0 4653
0.06750000 0.06749660 29618.91135406 0 609.81403914 0 9439.72426265 0 1303.30855220 0 419.41844259 0 5220
0.06850000 0.06852730 29993.92466199 0 458.37852462 0 9562.67458355 0 -470.98551857 0 -840.28575030 0 5029
0.06950000 0.06949320 28644.68961182 0 807.31885107 0 10050.68618962 0 -2063.01257650 0 684.41796074 0 5040
0.07050000 0.07048030 28409.94929576 0 -508.21882579 0 9366.32534866 0 422.17117648 0 -998.02091719 0 5475
0.07150000 0.07148790 28941.38291724 0 -42.23743911 0 10285.69013543 0 1558.19457438 0 -62.59657547 0 5509
0.07250000 0.07249820 28804.07575998 0 -89.10608386 0 9471.85413745 0 440.36931787 0 -1568.89354808 0 5916
0.07350000 0.07351270 28700.38139481 0 490.93130546 0 8017.57361969 0 467.04535239 0 -1396.63348085 0 5721
0.07450000 0.07449140 28681.81746715 0 280.92055765 0 8557.48733121 0 345.02762169 0 222.08828536 0 6028
0.07550000 0.07549160 27152.98465527 0 526.72563368 0 8949.54869578 0 284.98814488 0 -1404.87191029 0 6183
0.07650000 0.07648840 26211.71663078 0 1352.10202361 0 9351.72685170 0 -1051.66627431 0 456.18270856 0 6330
0.07750000 0.07749960 25496.51111001 0 919.62512114 0 10510.18184527 0 -783.82285032 0 -228.94046174 0 6583
0.07850000 0.07848650 24350.16111542 0 154.29699568 0 10262.78730160 0 661.42175804 0 -603.78021342 0 6549
0.07950000 0.07947320 24096.63718024 0 190.92615141 0 10957.96794655 0 957.77014788 0 -883.86814047 0 6828
0.08050000 0.08048110 23866.83992184 0 59.57131433 0 8967.06908905 0 400.93689922 0 -775.02310922 0 7147
0.08150000 0.08149960 24024.79807556 0 45.33388027 0 8464.05255683 0 -196.55574486 0 -1985.90087698 0 7386
0.08250000 0.08250610 23580.80165182 0 376.97295568 0 8919.39604404 0 -35.51916467 0 -1839.30077131 0 7227
0.08350000 0.08350160 22769.15158379 0 529.07083992 0 8646.14381651 0 -148.31260054 0 -1403.07044039 0 7798
0.08450000 0.08449610 23335.62599181 0 147.64913235 0 8969.96901621 0 1266.15872773 0 -2179.04261668 0 7371
0.08550000 0.08548940 22469.38259804 0 -259.77635389 0 7952.45707342 0 1139.98992706 0 -1440.09943456 0 8256
0.08650000 0.08650700 22185.65108826 0 336.43548902 0 7692.55110158 0 -215.48326187 0 -2057.35552162 0 8037
0.08750000 0.08749060 21734.73438380 0 615.04489260 0 7134.05149325 0 334.53296105 0 -448.00139890 0 8155
0.08850000 0.08849210 21185.50575473 0 462.41096121 0 7636.49682769 0 137.66415588 0 -465.18456579 0 8718
0.08950000 0.08949900 20809.17429810 0 577.36671019 0 8211.71495549 0 17.48985616 0 -761.49780500 0 8571
0.09050000 0.09049190 19870.76226247 0 314.27411384 0 6913.76687471 0 763.66725809 0 -375.26595310 0 8932
0.09150000 0.09150830 19924.91620530 0 149.08811136 0 7635.64003103 0 561.28749285 0 96.25539292 0 9285
0.09250000 0.09250820 19204.87747259 0 437.95710573 0 7925.65471633 0 -465.31967603 0 18.67849675 0 9204
0.09350000 0.09350330 18711.88985514 0 564.97171849 0 7185.36043178 0 354.76105146 0 627.26742651 0 9349
0.09450000 0.09448040 18619.72929118 0 81.30407149 0 7222.88373172 0 1147.98669590 0 1562.56643427 0 9564
0.09550000 0.09549270 18125.20383357 0 -85.87530137 0 6586.58039580 0 166.38332089 0 738.21270804 0 10155
0.09650000 0.09649430 17677.47265516 0 440.19026934 0 6070.19563875 0 686.54347553 0 1552.59244236 0 9913
0.09750000 0.09749140 17472.06114788 0 113.25643560 0 6272.49851198 0 553.45000031 0 1616.88514568 0 10476
0.09850000 0.09850240 17272.91084698 0 65.98235027 0 5315.40171839 0 271.24973995 0 1819.58346353 0 10575
0.09950000 0.09950330 17096.16907415 0 317.89682588 0 5706.28773370 0 -176.84173244 0 -240.46108146 0 10882
0.10050000 0.10051200 16942.60474946 0 233.56716371 0 5725.80731918 0 -609.58665849 0 687.35084162 0 10875
0.10150000 0.10150300 16293.41650991 0 385.03892732 0 5853.90940462 0 -466.11166372 0 83.15189629 0 11118
0.10250000 0.10250800 16104.26217006 0 104.91947455 0 5874.71418509 0 -191.51931833 0 -869.05214897 0 11575
0.10350000 0.10349800 16071.52814376 0 162.11361753 0 6501.73555718 0 16.70984166 0 -1288.00704260 0 11364
0.10450000 0.10450100 16159.29487869 0 -43.23417922 0 6083.82749332 0 200.65628580 0 -1241.02602567 0 12093
0.10550000 0.10551000 15779.77789600 0 -100.56529982 0 5928.24200728 0 379.70921271 0 -559.67715451 0 12067
0.10650000 0.10649700 16068.45246344 0 183.00627458 0 5684.42843426 0 493.66866095 0 -1552.86705668 0 12054
0.10750000 0.10749900 16059.22542247 0 9.34026994 0 5550.44960249 0 -219.91883228 0 -1279.41710684 0 12807
0.10850000 0.10850100 15706.18125971 0 208.01704789 0 5276.43943945 0 587.51206143 0 -240.84004922 0 12736
0.10950000 0.10950300 15523.61766341 0 -35.76379110 0 4954.38275594 0 406.01946095 0 -814.42586953 0 12933
0.11050000 0.11050200 15879.07843214 0 24.00008279 0 5317.31303402 0 385.62879887 0 -740.05262395 0 13428
0.11150000 0.11150900 15173.86887242 0 397.76455466 0 4456.26534309 0 -484.49544439 0 -624.05004520 0 13453
0.11250000 0.11250000 14942.86331103 0 391.79663637 0 5343.08284130 0 -90.44960693 0 -785.21239875 0 13668
0.11350000 0.11349100 14582.89886754 0 402.61753882 0 5346.56495081 0 -150.83465840 0 -912.03807686 0 13791
0.11450000 0.11448600 14502.71148770 0 82.71020663 0 5270.05740278 0 37.21408422 0 -857.96322295 0 14205
0.11550000 0.11549300 14200.19635881 0 28.71641887 0 5671.47762319 0 3.78056035 0 -1120.14080441 0 14776
0.11650000 0.11649800 14052.01447468 0 -26.66966346 0 4984.61229968 0 102.69180323 0 -875.50778228 0 14553
0.11750000 0.11747300 13960.62283081 0 -9.53036896 0 5063.11903992 0 465.18346733 0 -988.72687033 0 14568
0.11850000 0.11849100 14106.71764614 0 -68.00779561 0 4629.77765158 0 990.00986841 0 -567.19060215 0 16015
0.11950000 0.11950300 14413.62660406 0 -96.43510053 0 4066.29104731 0 105.13070788 0 -372.17818974 0 15270
0.12050000 0.12050700 14114.73638412 0 421.43630857 0 4607.89638300 0 -384.79616827 0 -776.30281193 0 15999
0.12150000 0.12150000 13512.89165239 0 366.34757862 0 4566.69325125 0 -57.35001406 0 299.28676301 0 15670
0.12250000 0.12250700 13616.03678893 0 -124.38380762 0 4507.17883700 0 653.19870701 0 60.53927487 0 16887
0.12350000 0.12352200 13614.60879449 0 -11.91298866 0 4212.99001413 0 1090.70105143 0 630.73196071 0 16407
0.12450000 0.12449800 13585.71936861 0 127.63853648 0 3719.34332233 0 63.79839755 0 926.70248125 0 16306
0.12550000 0.12549900 13264.20092915 0 319.32701723 0 3639.63926367 0 -90.32394342 0 1053.25134813 0 17523
0.12650000 0.12650100 12757.26290452 0 420.75636353 0 3859.34169987 0 -290.98901688 0 1442.10961134 0 17154
0.12750000 0.12750600 12390.48802603 0 85.62957648 0 3922.06360931 0 282.76816276 0 1236.85188809 0 18007
0.12850000 0.12850300 12205.72751521 0 22.99082026 0 3834.27490524 0 150.78303091 0 838.39310844 0 17496
0.12950000 0.12949900 12198.47769731 0 112.75004680 0 3324.99716665 0 314.79368412 0 1169.23085928 0 18405
0.13050000 0.13049000 12066.33328915 0 235.92005916 0 3242.49204200 0 225.12442123 0 960.13842173 0 18100
0.13150000 0.13148800 12009.43320318 0 -34.37039807 0 3219.94071449 0 37.15410845 0 548.96280241 0 19059
0.13250000 0.13249300 11672.97574502 0 117.83480545 0 2908.15460634 0 192.18827880 0 765.91580009 0 18957
0.13350000 0.13349100 11743.82623817 0 36.28489923 0 2921.79744548 0 105.18013846 0 883.59242770 0 19468
0.13450000 0.13450700 11551.70606372 0 82.74535726 0 3149.91406428 0 -315.82403703 0 452.58635950 0 19953
0.13550000 0.13551000 11508.75638492 0 439.65751757 0 3470.53176879 0 -495.77550197 0 -130.24297864 0 19956
0.13650000 0.13649900 11337.83643556 0 220.44938713 0 3540.34971211 0 -302.42835077 0 254.88052989 0 19723
0.13750000 0.13749600 11051.02924546 0 -103.23367219 0 4063.85247219 0 -50.73763091 0 -35.41623923 0 20946
0.13850000 0.13851100 10887.42502143 0 28.70488507 0 3686.23582056 0 385.74303842 0 55.32830348 0 20955
0.13950000 0.13949800 11007.42049231 0 121.97049703 0 3910.89229900 0 596.23491051 0 781.00530745 0 20506
0.14050000 0.14048300 10795.61596380 0 155.36030230 0 3544.31514281 0 282.08931618 0 749.32250475 0 21447
0.14150000 0.14148400 11037.07883828 0 -75.17215354 0 3510.51561298 0 257.32020346 0 963.85779801 0 21771
0.14250000 0.14249400 10946.57694478 0 -5.85531543 0 3086.31338903 0 568.45602491 0 1323.55311947 0 22470
0.14350000 0.14350900 10932.43979987 0 18.31875200 0 3046.08788424 0 -7.16599463 0 1643.96211710 0 22519
0.14450000 0.14449900 10775.26155081 0 297.94774361 0 3138.87456884 0 -565.12001022 0 929.66502048 0 22218
0.14550000 0.14550500 10211.52230136 0 321.79415223 0 3475.78239448 0 -433.61160882 0 1018.71255657 0 23559
0.14650000 0.14650700 9853.88658726 0 229.98619305 0 3906.48748539 0 21.33797162 0 1368.19442244 0 23044
0.14750000 0.14750500 10094.86614054 0 -125.19776445 0 3242.70074888 0 563.56349629 0 769.18151352 0 23649
0.14850000 0.14849900 10176.99778974 0 -40.45914665 0 3138.02875675 0 503.03300908 0 383.55491157 0 23640
0.14950000 0.14949500 9993.77511908 0 0.36750645 0 2718.96731277 0 37.75595319 0 1017.41088471 0 24457
0.15050000 0.15050000 9938.08333609 0 200.60465831 0 2823.83702720 0 129.26205631 0 814.60272115 0 24591
0.15150000 0.15149900 9868.51803793 0 -20.58442994 0 2435.21383385 0 -17.98613914 0 820.92873649 0 25020
0.15250000 0.15250500 9823.53621321 0 57.49929441 0 2617.68955357 0 325.04997954 0 714.98253395 0 25297
0.15350000 0.15350100 9627.41765435 0 241.82646384 0 2457.85303794 0 -524.64735254 0 570.49915541 0 25452
0.15450000 0.15450400 9360.77813951 0 203.40352740 0 2987.80374213 0 -25.15796658 0 797.58322439 0 26061
0.15550000 0.15549900 9312.98426420 0 30.54699789 0 2915.29457852 0 -172.67089024 0 212.59871311 0 26128
0.15650000 0.15649500 9182.47655737 0 -18.38037545 0 2681.79551915 0 361.80985168 0 402.43519492 0 26331
0.15750000 0.15749700 9341.52218377 0 -100.05989964 0 2635.24290055 0 291.26802502 0 638.18279629 0 27345
0.15850000 0.15849900 9194.53761806 0 110.52237548 0 2588.88800426 0 -73.28687135 0 392.35025883 0 26980
0.15950000 0.15949700 9437.16485724 0 336.97263462 0 2791.10300091 0 -86.34818722 0 276.59593143 0 27777
0.16050000 0.16050000 8933.48925066 0 1.28299808 0 2801.76902089 0 -381.18553926 0 307.15391389 0 28224
0.16150000 0.16150500 8936.54296184 0 -18.59743061 0 2889.63461697 0 75.20236111 0 145.79823187 0 28075
0.16250000 0.16249700 8927.79924207 0 86.42024602 0 2833.99775684 0 -28.89436895 0 -361.06619612 0 28590
0.16350000 0.16349900 8910.71823170 0 31.08645025 0 2632.22214309 0 34.32656963 0 -255.82520313 0 29163
0.16450000 0.16449100 8668.79400517 0 102.95719050 0 2877.78226315 0 146.78244958 0 -601.04285793 0 28996
0.16550000 0.16550500 8637.79554135 0 270.51706896 0 2730.94049688 0 -354.91263856 0 -618.43033787 0 30777
0.16650000 0.16650700 8512.32975332 0 -62.75903729 0 2678.34636336 0 327.62146798 0 -460.76657070 0 29211
0.16750000 0.16749900 8615.36504414 0 -33.57368702 0 2492.78397875 0 252.16514355 0 -1196.76918274 0 30922
0.16850000 0.16850800 8366.04820026 0 122.16821934 0 2212.21602587 0 -65.54571351 0 -645.00751123 0 30867
0.16950000 0.16949900 8202.40003794 0 132.03895626 0 2426.83260497 0 35.35208932 0 -523.08754324 0 30852
0.17050000 0.17049200 8267.40673848 0 112.16456909 0 2318.20616671 0 215.94900775 0 -307.86461574 0 31257
0.17150000 0.17149500 8167.07365252 0 126.81689045 0 2446.79157335 0 32.04298683 0 -429.13869086 0 32608
0.17250000 0.17250900 7965.47379193 0 137.07428433 0 2640.35072680 0 -46.41772805 0 -154.29479876 0 32361
0.17350000 0.17350400 7967.96728991 0 -35.90604132 0 2451.39410926 0 175.34014137 0 291.58657763 0 32508
0.17450000 0.17449800 7942.68080383 0 31.10852924 0 2683.04776043 0 138.84280051 0 58.72714993 0 32791
0.17550000 0.17549800 7898.01753171 0 39.98604111 0 2458.11666768 0 53.54726488 0 117.30095522 0 33633
0.17650000 0.17650100 7906.78322063 0 28.23683243 0 2506.72340135 0 292.26212884 0 534.77293155 0 33984
0.17750000 0.17750300 7798.67305729 0 61.94376232 0 2170.27692776 0 -82.43614154 0 328.69246381 0 34069
0.17850000 0.17849800 7808.94363265 0 5.29084021 0 2026.45591895 0 338.95315306 0 601.08020548 0 34536
