### header ###
fiducial parameters:
Omega_m = 0.31
Omega_nu = 0
Omega_de = 0.69
Omega_k = 0
H_0 = 100
w_de = -1
zeff = 0
beta = 0
fgrowth = 0
b_1 = 2
gamma = 0.55
Lx = 3500 Ly = 3500 Lz = 3500
nx = 700 ny = 700 nz = 700
xoffset = -983.599254 yoffset = -42.9823471 zoffset = 800.977702
bins = 400 dk = 0.001
kx_ny = 0.628318531 ky_ny = 0.628318531 kz_ny = 0.628318531
############################
A(data) = 9.07907525 (not used)
A(ran) = 9.07607127 (used)
Ngal = 503996
weighted Ngal = 0
Nran = 25229228
weighted Nran = 0
SN(data) = 6739.7218
SN(ran) = 134.728025
SN(data+ran) = 6874.44983
############################
13 columns: k_central k_mean P_0(k) sigma^{lin}_{P_0(k)} P^img_1(k) sigma^{lin}_{P_1(k)} P_2(k) sigma^{lin}_{P_2(k)} P^img_3(k) sigma^{lin}_{P_3(k)} P_4(k) sigma^{lin}_{P_4(k)} N_modes
### header ###
0.00050000 0 0 0 0 0 0 0 0 0 0 0 0
0.00150000 0.00179520 40895.34402889 0 -35466.54856774 0 35456.99198959 0 -113179.54359187 0 7851.73952743 0 3
0.00250000 0.00253879 73306.97311603 0 -26656.59182032 0 -36351.90511779 0 -12454.85762136 0 39795.01939342 0 6
0.00350000 0.00331552 84177.74552543 0 -63.86419514 0 -37090.17824099 0 -15555.36307817 0 25655.34802953 0 7
0.00450000 0.00420575 100674.26678237 0 -6642.59073139 0 -6268.98344875 0 -58324.89488088 0 -14907.93237022 0 24
0.00550000 0.00557378 93495.51906328 0 10436.42044039 0 30858.19083269 0 -13311.65428270 0 -3475.34301158 0 45
0.00650000 0.00659388 65874.81130749 0 2534.34960139 0 -9198.74470936 0 35682.39541896 0 10615.80949521 0 40
0.00750000 0.00754703 91726.56349478 0 -10030.62836009 0 54710.97050162 0 -241.91983270 0 3123.19958376 0 57
0.00850000 0.00846663 83716.83285992 0 11319.71189080 0 -6870.10319869 0 -5398.90643916 0 -21473.63109354 0 75
0.00950000 0.00948925 78565.94708507 0 4000.28475067 0 26771.92983243 0 -6743.98932089 0 -482.33258205 0 112
0.01050000 0.01054430 70958.47149814 0 5034.20764488 0 16243.54655039 0 -2050.74280893 0 -20313.77007468 0 105
0.01150000 0.01145670 73233.48632546 0 3481.79095568 0 27711.66001676 0 -7816.35821914 0 -29391.20116445 0 144
0.01250000 0.01249090 63109.44516014 0 4601.05299428 0 29004.10482668 0 -3167.66513357 0 -17122.86158552 0 169
0.01350000 0.01339930 71858.98675836 0 6967.09697459 0 40823.72461566 0 -25452.46297396 0 -32225.66027334 0 180
0.01450000 0.01448870 58790.64075833 0 -1567.25684676 0 32235.54638866 0 12318.86861280 0 -27139.80316818 0 267
0.01550000 0.01550050 69492.03105853 0 -11470.74976379 0 45975.92853921 0 12198.91708021 0 -15721.77935277 0 238
0.01650000 0.01653350 69037.92882802 0 -1638.18423192 0 18972.88329967 0 11868.83067414 0 -13715.99639942 0 315
0.01750000 0.01747870 81682.70970930 0 2602.16835251 0 33259.96762760 0 -5071.80783683 0 -13002.10902736 0 297
0.01850000 0.01844180 77699.04461695 0 4244.01044710 0 23326.61864229 0 1416.69131039 0 -6572.83869550 0 388
0.01950000 0.01947590 75597.25649924 0 -1409.04604787 0 37975.86432822 0 5767.52672584 0 -746.11830493 0 399
0.02050000 0.02045430 76485.90842107 0 1600.48517882 0 27523.05490554 0 3277.76350456 0 5272.23234815 0 462
0.02150000 0.02154770 75546.94715682 0 -1054.45635575 0 28728.39205489 0 15556.13199825 0 10301.21133649 0 571
0.02250000 0.02255340 78685.01985186 0 -2821.90374243 0 13179.83941172 0 3316.61593778 0 10707.42083054 0 510
0.02350000 0.02348930 76756.23875230 0 1327.52953475 0 23525.10986883 0 2467.54143096 0 6221.79372494 0 555
0.02450000 0.02439640 74111.70290334 0 7042.53901908 0 16618.34016686 0 -2610.30792079 0 15702.33665930 0 592
0.02550000 0.02547300 65118.08410236 0 3464.62206874 0 27979.57374202 0 -2094.73602212 0 10151.31585904 0 837
0.02650000 0.02652900 66890.44488836 0 -918.71779544 0 14951.87066055 0 11376.17259387 0 15457.38069074 0 723
0.02750000 0.02749970 67176.81269556 0 -2414.76055970 0 18974.64083129 0 6860.65646627 0 4545.20742728 0 826
0.02850000 0.02848090 66239.93850010 0 1723.13891626 0 14489.09061769 0 -4346.82604646 0 12733.86576492 0 831
0.02950000 0.02946900 61386.95433366 0 6467.97996564 0 19997.08484716 0 -1346.84041334 0 7045.36205423 0 996
0.03050000 0.03053250 58377.95036645 0 2448.49418210 0 18616.87330231 0 -1732.14626578 0 10434.64093963 0 1041
0.03150000 0.03150510 58726.93023736 0 -965.49889315 0 27584.34882054 0 5933.38278725 0 9306.99767215 0 1036
0.03250000 0.03246190 54943.84344035 0 3870.60088677 0 24046.87706645 0 -404.23117254 0 13102.61786648 0 1059
0.03350000 0.03345080 48805.44459044 0 997.68698619 0 27972.98299847 0 -1133.75068984 0 22236.94904222 0 1302
0.03450000 0.03451200 49398.17212693 0 2789.75189848 0 31376.33312135 0 2627.13628599 0 13139.96541325 0 1339
0.03550000 0.03553350 47865.82425183 0 358.88026618 0 30875.98584027 0 8498.13768555 0 20439.98281364 0 1365
0.03650000 0.03647120 49643.34778695 0 -1933.96581782 0 23893.86197039 0 7240.50298614 0 19885.70128118 0 1308
0.03750000 0.03744890 51343.32023963 0 1134.00333501 0 27499.65776594 0 2113.76130183 0 24516.57739003 0 1579
0.03850000 0.03847530 47700.72612593 0 -1817.28768786 0 24110.14820452 0 123.81041294 0 19304.06816300 0 1662
0.03950000 0.03950240 49998.36917277 0 2212.57851677 0 24099.38332339 0 2713.67274879 0 14690.98706174 0 1683
0.04050000 0.04050350 49941.79862398 0 1714.25239704 0 24102.78854089 0 -3508.30771389 0 11304.44333491 0 1822
0.04150000 0.04152450 47366.13604511 0 701.51325105 0 26800.27002969 0 -421.61645556 0 9888.97131208 0 1887
0.04250000 0.04250150 46078.96383003 0 558.90603751 0 25107.98677781 0 4.19030687 0 5829.64448379 0 1920
0.04350000 0.04349210 44745.32687292 0 -823.03008523 0 23425.91917842 0 2731.43480265 0 3067.81536881 0 2005
0.04450000 0.04448520 44013.42480183 0 288.34942409 0 19407.65268244 0 5039.38137857 0 1850.35125133 0 2151
0.04550000 0.04548030 44438.30806928 0 1464.61700056 0 17311.79623392 0 2261.00949728 0 1453.40175196 0 2274
0.04650000 0.04648670 43346.22186324 0 1161.66248877 0 18965.52363604 0 1184.24676999 0 2274.67430557 0 2311
0.04750000 0.04749250 42222.82962534 0 1464.92456859 0 16250.13729394 0 -2965.29635291 0 -2363.57245147 0 2568
0.04850000 0.04851840 38615.27629818 0 2143.74918497 0 16812.32771865 0 -2067.34049810 0 -4951.99910369 0 2493
0.04950000 0.04949480 38539.59259309 0 762.98291921 0 17752.16774871 0 -851.08028977 0 -3516.72189649 0 2644
0.05050000 0.05050630 36625.86035797 0 -1291.07173835 0 17710.75591008 0 2413.10188924 0 -5455.35615765 0 2829
0.05150000 0.05149060 38550.35747422 0 -1203.37091086 0 14762.27693779 0 4960.36934799 0 -6776.87713120 0 2784
0.05250000 0.05249300 38860.67164965 0 381.98082232 0 11601.13664033 0 2178.96572467 0 -4141.28272432 0 3055
0.05350000 0.05348950 37856.35217853 0 713.09099055 0 11856.74764430 0 -510.30809150 0 -1637.71189530 0 3009
0.05450000 0.05448610 37955.10348604 0 421.23419243 0 11008.84848675 0 1645.20337380 0 -3217.30441707 0 3336
0.05550000 0.05550870 37869.86320281 0 1014.80204873 0 12137.95270238 0 -1260.63348773 0 -2712.17884691 0 3349
0.05650000 0.05647670 35092.96325425 0 1779.35795873 0 13374.26634641 0 -1778.31442434 0 -1023.68197720 0 3324
0.05750000 0.05747970 34744.42276624 0 959.18276392 0 15015.58118152 0 -1805.89668609 0 -2148.30778260 0 3639
0.05850000 0.05849280 32406.02695512 0 624.76623934 0 15123.44968427 0 -416.09780630 0 -5288.23687040 0 3846
0.05950000 0.05951020 33169.12521235 0 -236.10240306 0 15222.86006613 0 1818.81454345 0 -5691.64529845 0 3787
0.06050000 0.06049470 33270.29312582 0 -553.99373665 0 14557.74419633 0 435.34607283 0 -5118.38242458 0 3930
0.06150000 0.06148310 33282.15646421 0 -380.87577431 0 11617.06427058 0 656.09094497 0 -5644.73018896 0 4083
0.06250000 0.06249100 33504.04483035 0 858.61350965 0 11872.78512027 0 1067.59719992 0 -7872.92876794 0 4303
0.06350000 0.06350600 32029.80534421 0 398.77843071 0 10809.20388008 0 -252.33430597 0 -5204.10602900 0 4470
0.06450000 0.06451750 31993.11687179 0 1548.19861333 0 11424.50471323 0 329.15381586 0 -8303.67779714 0 4479
0.06550000 0.06550280 29854.31074448 0 951.03550643 0 13924.15404984 0 -428.94206702 0 -5085.08818508 0 4636
0.06650000 0.06648880 29843.54586335 0 -444.59618140 0 11893.76565390 0 443.96896231 0 -4665.64228106 0 4653
0.06750000 0.06749660 28253.96836510 0 -390.92006748 0 10901.67201207 0 1777.51255054 0 -3501.07986513 0 5220
0.06850000 0.06852730 30423.64114137 0 -166.40309312 0 10460.69634579 0 2382.01554884 0 -6910.98777784 0 5029
0.06950000 0.06949320 30146.82991232 0 359.62502020 0 9304.85568049 0 113.28499549 0 -2932.25475858 0 5040
0.07050000 0.07048030 29524.44402986 0 316.79507325 0 10727.16010747 0 -1370.10573807 0 -3363.64089300 0 5475
0.07150000 0.07148790 29071.87963951 0 952.75019821 0 10047.46770986 0 -1312.00833369 0 -2804.27350344 0 5509
0.07250000 0.07249820 28821.43138465 0 291.57229768 0 11602.78432622 0 482.65113465 0 -4249.01941220 0 5916
0.07350000 0.07351270 28259.57049712 0 -78.03967621 0 9748.80816594 0 2609.58293900 0 -1870.21135855 0 5721
0.07450000 0.07449140 28578.01325625 0 -319.29076814 0 10421.33862223 0 1887.53402952 0 -1463.37574386 0 6028
0.07550000 0.07549160 28036.91321089 0 720.05850494 0 9501.31476111 0 -242.40754773 0 321.36904927 0 6183
0.07650000 0.07648840 27399.14892682 0 867.60108694 0 10073.50114687 0 -9.52587627 0 693.05183479 0 6330
0.07750000 0.07749960 26755.56281928 0 289.31057419 0 11064.10088683 0 -684.75628558 0 1250.74737240 0 6583
0.07850000 0.07848650 26247.96572030 0 516.50558735 0 10578.95625420 0 0.88693943 0 -67.54512541 0 6549
0.07950000 0.07947320 25185.09847733 0 584.79667509 0 10755.63211960 0 308.89167327 0 987.43728151 0 6828
0.08050000 0.08048110 25564.17607711 0 -9.77849947 0 10955.35361828 0 673.42240359 0 1584.71133259 0 7147
0.08150000 0.08149960 25048.23070296 0 -239.34614735 0 9283.78727028 0 2690.00099487 0 1714.34027363 0 7386
0.08250000 0.08250610 24973.75530086 0 35.77916950 0 6740.28751993 0 2488.98331663 0 3108.32647249 0 7227
0.08350000 0.08350160 24595.44662116 0 74.55767655 0 7014.90183446 0 810.93607082 0 3467.19245872 0 7798
0.08450000 0.08449610 24493.72947906 0 944.70949109 0 6405.18116419 0 -85.61211101 0 2750.69075838 0 7371
0.08550000 0.08548940 22112.16429770 0 1234.08377580 0 6837.96233932 0 -872.21900125 0 4832.13544768 0 8256
0.08650000 0.08650700 22230.13860722 0 287.51349812 0 7328.15987534 0 538.32644078 0 3705.00845511 0 8037
0.08750000 0.08749060 21686.84164735 0 -230.76280233 0 6932.13308006 0 -147.19107568 0 2262.23976941 0 8155
0.08850000 0.08849210 21093.67472795 0 753.16271133 0 7401.19629843 0 -888.08841326 0 -492.55482529 0 8718
0.08950000 0.08949900 20520.82926784 0 655.35058478 0 7661.17916229 0 -856.07497493 0 1881.10805456 0 8571
0.09050000 0.09049190 19734.22402529 0 186.45762728 0 7958.64138779 0 67.66079296 0 942.41042004 0 8932
0.09150000 0.09150830 19670.73319577 0 232.02273281 0 8045.82594037 0 729.80291927 0 -873.01648122 0 9285
0.09250000 0.09250820 19177.41604114 0 726.00884791 0 7883.47395761 0 -461.69806245 0 1013.21258107 0 9204
0.09350000 0.09350330 18986.83370685 0 87.96544584 0 8221.05184218 0 116.40351564 0 158.58647127 0 9349
0.09450000 0.09448040 18297.00254874 0 -38.85726643 0 7896.45772241 0 797.25588412 0 851.83932374 0 9564
0.09550000 0.09549270 18448.04042174 0 249.21139198 0 7477.49513958 0 457.73263175 0 -309.53317231 0 10155
0.09650000 0.09649430 18505.81927351 0 4.85640037 0 7619.55861677 0 660.71325311 0 897.51207807 0 9913
0.09750000 0.09749140 17899.80040420 0 71.65654109 0 6910.52642579 0 -201.21649900 0 354.59738133 0 10476
0.09850000 0.09850240 18112.02234647 0 276.82550899 0 7017.75782333 0 370.17020988 0 687.48155803 0 10575
0.09950000 0.09950330 17028.28441560 0 481.11878678 0 6810.59976902 0 -553.30390549 0 404.75074282 0 10882
0.10050000 0.10051200 17492.16291571 0 216.29392333 0 7605.41048729 0 144.03081414 0 259.88180579 0 10875
0.10150000 0.10150300 17228.64301948 0 -64.66936431 0 6959.27595891 0 814.21496573 0 -30.08158155 0 11118
0.10250000 0.10250800 17178.11398561 0 25.54967644 0 6672.13923163 0 256.03940230 0 -461.25428572 0 11575
0.10350000 0.10349800 17164.38326988 0 4.15617780 0 6453.82085158 0 222.09487611 0 502.14875098 0 11364
0.10450000 0.10450100 16939.85860632 0 84.77036322 0 5786.24443752 0 829.33413143 0 337.24505202 0 12093
0.10550000 0.10551000 16621.96507581 0 129.48394467 0 5333.42740200 0 349.29622660 0 1094.88617359 0 12067
0.10650000 0.10649700 16170.60898845 0 300.86744300 0 5291.35648901 0 411.84018596 0 1206.87498951 0 12054
0.10750000 0.10749900 15783.62249641 0 558.05802851 0 5453.01644369 0 431.74752685 0 1133.45410638 0 12807
0.10850000 0.10850100 15683.33334874 0 106.04056003 0 5541.81572844 0 -456.22994222 0 1998.54412002 0 12736
0.10950000 0.10950300 15147.17636104 0 43.51417598 0 5225.27330036 0 262.29951021 0 1952.72746779 0 12933
0.11050000 0.11050200 15287.88873581 0 206.82632022 0 5764.26430779 0 -398.95967615 0 127.77144981 0 13428
0.11150000 0.11150900 14837.30156852 0 442.67937349 0 5448.38095406 0 -523.57415980 0 841.23921120 0 13453
0.11250000 0.11250000 14816.54072634 0 16.16346902 0 6024.86230771 0 99.10127599 0 719.51037477 0 13668
0.11350000 0.11349100 14838.07048860 0 -116.82532323 0 5774.53488315 0 275.96541696 0 -125.99304751 0 13791
0.11450000 0.11448600 14594.76220593 0 23.87068452 0 5852.83291651 0 254.82121320 0 -78.76476785 0 14205
0.11550000 0.11549300 14883.32692764 0 233.29694323 0 5199.34970907 0 467.19254566 0 -48.45141182 0 14776
0.11650000 0.11649800 14743.93270158 0 -12.47682677 0 5709.55015176 0 243.32695645 0 547.00974541 0 14553
0.11750000 0.11747300 14616.29196819 0 80.37181082 0 5355.47343917 0 -223.01318638 0 588.49298376 0 14568
0.11850000 0.11849100 14547.74823528 0 186.87833641 0 5319.64176341 0 -22.01176530 0 -61.76987653 0 16015
0.11950000 0.11950300 14378.80550898 0 92.21735420 0 5488.13412224 0 -173.60897273 0 154.19923298 0 15270
0.12050000 0.12050700 14049.92740589 0 293.59565595 0 5794.17529892 0 308.43691197 0 243.54445099 0 15999
0.12150000 0.12150000 14091.88847315 0 -147.56235423 0 5628.69271299 0 389.63487249 0 808.05701434 0 15670
0.12250000 0.12250700 13748.51073426 0 101.84313515 0 5094.99626955 0 405.62841017 0 -37.65412620 0 16887
0.12350000 0.12352200 14013.78816210 0 246.04014588 0 5225.67972955 0 49.72441393 0 622.34414108 0 16407
0.12450000 0.12449800 13672.93687490 0 272.26691137 0 5304.41714581 0 -10.21145639 0 297.90380532 0 16306
0.12550000 0.12549900 13121.62117704 0 105.56932186 0 4751.65148437 0 178.72448818 0 1250.63752668 0 17523
0.12650000 0.12650100 13286.49961149 0 -167.54329175 0 4671.28835137 0 369.06406342 0 -194.81249319 0 17154
0.12750000 0.12750600 13149.19245422 0 179.17156029 0 4415.07319591 0 430.58645753 0 -25.81429479 0 18007
0.12850000 0.12850300 13003.53702179 0 330.95967959 0 4258.59795949 0 -168.22543371 0 -62.10831122 0 17496
0.12950000 0.12949900 12679.16259347 0 110.74536231 0 4012.79617884 0 -151.35203177 0 208.47071074 0 18405
0.13050000 0.13049000 12633.02738863 0 -52.45188330 0 4238.06779333 0 495.17684277 0 -34.81988678 0 18100
0.13150000 0.13148800 12457.49391878 0 101.14308834 0 3796.01563894 0 52.07895707 0 -136.01537153 0 19059
0.13250000 0.13249300 12517.03030217 0 124.80561521 0 3734.44710962 0 372.61317882 0 414.90158634 0 18957
0.13350000 0.13349100 12417.29038313 0 -41.72885340 0 3339.37597216 0 462.18467902 0 270.32813431 0 19468
0.13450000 0.13450700 12468.58833708 0 104.72680514 0 3553.09181631 0 45.90496820 0 558.91152980 0 19953
0.13550000 0.13551000 12193.31494819 0 238.06754310 0 3558.96856264 0 -257.45751062 0 1216.58535167 0 19956
0.13650000 0.13649900 11889.15213342 0 133.39225560 0 3657.53313241 0 154.26294350 0 884.88641035 0 19723
0.13750000 0.13749600 11659.46472074 0 231.10661945 0 4138.31688972 0 3.74615666 0 1583.85453593 0 20946
0.13850000 0.13851100 11942.86669334 0 51.99646293 0 4044.48667073 0 152.21322226 0 634.21516867 0 20955
0.13950000 0.13949800 11729.32660236 0 126.76526296 0 4120.22529868 0 -75.91932417 0 1293.83985064 0 20506
0.14050000 0.14048300 11581.91363832 0 -38.25597093 0 4008.72090241 0 473.21538680 0 1009.62172430 0 21447
0.14150000 0.14148400 11632.44267219 0 -92.73044358 0 3570.73303987 0 215.40087758 0 1705.01437150 0 21771
0.14250000 0.14249400 11302.79564902 0 181.49150202 0 3765.68723405 0 3.40899619 0 873.62282962 0 22470
0.14350000 0.14350900 11188.11671128 0 320.62209833 0 3874.59927119 0 -106.60428829 0 1875.39607681 0 22519
0.14450000 0.14449900 11245.45618015 0 11.64177956 0 3418.21224958 0 75.45698351 0 1178.93023687 0 22218
0.14550000 0.14550500 10918.50037727 0 -75.98556114 0 3598.44711649 0 425.29958275 0 1339.49173429 0 23559
0.14650000 0.14650700 10840.82846454 0 290.07510044 0 3473.76123312 0 -356.81956036 0 1095.86160363 0 23044
0.14750000 0.14750500 10451.98557974 0 323.54619155 0 3897.63391989 0 -423.62992771 0 850.54973492 0 23649
0.14850000 0.14849900 10612.68987660 0 258.06056365 0 3885.69368950 0 -74.53548771 0 367.16263390 0 23640
0.14950000 0.14949500 10404.76290221 0 -36.13199397 0 4265.65005509 0 -211.70566736 0 -68.00120487 0 24457
0.15050000 0.15050000 10300.53029299 0 -36.86093021 0 4037.88494261 0 214.38370616 0 -149.04527153 0 24591
0.15150000 0.15149900 10327.70612555 0 -169.05257203 0 3483.49356443 0 347.67050986 0 -302.99515471 0 25020
0.15250000 0.15250500 10243.95974419 0 49.70969461 0 3189.87593933 0 464.13114528 0 -118.25112075 0 25297
0.15350000 0.15350100 10185.26917289 0 353.59778522 0 3332.58750631 0 318.27249826 0 118.82561390 0 25452
0.15450000 0.15450400 9880.16168487 0 145.23801867 0 2899.20217968 0 129.14781675 0 1131.94921993 0 26061
0.15550000 0.15549900 9889.38872584 0 -30.02929499 0 2915.10784078 0 692.36969283 0 927.59223163 0 26128
0.15650000 0.15649500 9756.27767530 0 -61.34686064 0 2500.60499443 0 403.50399383 0 1083.63357744 0 26331
0.15750000 0.15749700 9518.26395660 0 256.22614003 0 2491.12530829 0 -291.37896921 0 1281.16365388 0 27345
0.15850000 0.15849900 9360.31678746 0 365.26889359 0 2626.26850476 0 -439.60698853 0 1402.36742774 0 26980
0.15950000 0.15949700 9055.63769777 0 108.28536728 0 3023.10815840 0 95.37717635 0 1366.97513489 0 27777
0.16050000 0.16050000 9001.74738468 0 -104.19800782 0 2995.97626413 0 130.60437108 0 1132.36663369 0 28224
0.16150000 0.16150500 8991.19121043 0 151.72001495 0 2668.09775715 0 303.26427674 0 958.32486880 0 28075
0.16250000 0.16249700 8944.80336042 0 -18.09873101 0 2663.92361956 0 -66.35879158 0 1442.87853142 0 28590
0.16350000 0.16349900 8913.22271425 0 64.00512721 0 2644.84341699 0 49.05962760 0 1008.94946846 0 29163
0.16450000 0.16449100 8862.18839004 0 90.39786960 0 2611.69197694 0 102.35732299 0 887.02181126 0 28996
0.16550000 0.16550500 8830.05851524 0 34.70301093 0 2473.27537784 0 -178.68714064 0 725.87154075 0 30777
0.16650000 0.16650700 8783.57180407 0 81.86175824 0 2381.10382931 0 213.67739814 0 974.57324856 0 29211
0.16750000 0.16749900 8875.20510855 0 -17.70504393 0 2503.40606043 0 -59.86086766 0 244.60885607 0 30922
0.16850000 0.16850800 8611.30075228 0 138.08596346 0 2336.00117429 0 -137.00947535 0 426.34970789 0 30867
0.16950000 0.16949900 8483.45131201 0 58.61752389 0 2306.41972033 0 90.60426971 0 73.22250175 0 30852
0.17050000 0.17049200 8493.98551711 0 80.44991113 0 2327.60896084 0 338.66975108 0 401.11924312 0 31257
0.17150000 0.17149500 8348.87931331 0 28.61041775 0 1930.82423006 0 301.44742844 0 712.27703372 0 32608
0.17250000 0.17250900 8284.61956371 0 62.68588004 0 1948.19083931 0 253.49757220 0 322.88601874 0 32361
0.17350000 0.17350400 8157.22049091 0 221.29519922 0 1873.89119037 0 -148.78493716 0 759.36460101 0 32508
0.17450000 0.17449800 8000.67934706 0 229.12280565 0 1958.64815241 0 -173.47715786 0 294.50957239 0 32791
0.17550000 0.17549800 7766.91665795 0 20.05837876 0 2005.20077101 0 -1.24680391 0 715.70312191 0 33633
0.17650000 0.17650100 7808.14175885 0 11.63332144 0 2044.69030944 0 182.35269251 0 332.38547711 0 33984
0.17750000 0.17750300 7643.57089244 0 26.28146867 0 1873.58362234 0 -95.81611987 0 457.64695208 0 34069
0.17850000 0.17849800 7578.77289878 0 102.99343959 0 1943.85193314 0 21.68530381 0 411.05808440 0 34536
