### header ###
fiducial parameters:
Omega_m = 0.31
Omega_nu = 0
Omega_de = 0.69
Omega_k = 0
H_0 = 100
w_de = -1
zeff = 0
beta = 0
fgrowth = 0
b_1 = 2
gamma = 0.55
Lx = 3500 Ly = 3500 Lz = 3500
nx = 700 ny = 700 nz = 700
xoffset = -983.599254 yoffset = -42.9823471 zoffset = 800.977702
bins = 400 dk = 0.001
kx_ny = 0.628318531 ky_ny = 0.628318531 kz_ny = 0.628318531
############################
A(data) = 9.07474058 (not used)
A(ran) = 9.07720608 (used)
Ngal = 504092
weighted Ngal = 0
Nran = 25229228
weighted Nran = 0
SN(data) = 6757.99285
SN(ran) = 134.744871
SN(data+ran) = 6892.73772
############################
13 columns: k_central k_mean P_0(k) sigma^{lin}_{P_0(k)} P^img_1(k) sigma^{lin}_{P_1(k)} P_2(k) sigma^{lin}_{P_2(k)} P^img_3(k) sigma^{lin}_{P_3(k)} P_4(k) sigma^{lin}_{P_4(k)} N_modes
### header ###
0.00050000 0 0 0 0 0 0 0 0 0 0 0 0
0.00150000 0.00179520 -142.69069629 0 -2669.50378244 0 2904.35394422 0 -3139.44576661 0 -8577.69894475 0 3
0.00250000 0.00253879 9846.93335281 0 -4055.00989127 0 13758.28700386 0 -6.96593261 0 34621.06601615 0 6
0.00350000 0.00331552 25123.25533369 0 -5315.47861040 0 22952.81363735 0 -23219.62890535 0 -19999.17191595 0 7
0.00450000 0.00420575 28272.86182994 0 4579.80883091 0 34936.76263214 0 4553.72047103 0 36438.90293264 0 24
0.00550000 0.00557378 35039.24869432 0 -10043.67803232 0 28527.81375955 0 26706.46177984 0 9816.55002505 0 45
0.00650000 0.00659388 57327.71538195 0 -12376.20808167 0 33807.54857078 0 6109.82797662 0 18292.82841116 0 40
0.00750000 0.00754703 63551.35451509 0 14057.50676097 0 16355.14980781 0 24610.05610269 0 -9859.48871927 0 57
0.00850000 0.00846663 62280.00008452 0 3520.78618834 0 40231.43646207 0 1411.52856128 0 37869.53366563 0 75
0.00950000 0.00948925 67000.51030563 0 -2360.00246538 0 41839.68773371 0 3980.62236574 0 42623.54683311 0 112
0.01050000 0.01054430 59582.51859572 0 -7088.72914678 0 43211.44115767 0 15967.61408714 0 11598.61018864 0 105
0.01150000 0.01145670 74669.27980757 0 451.02325482 0 18167.93382091 0 20695.37412615 0 32319.24883173 0 144
0.01250000 0.01249090 76106.61112984 0 -4571.06511114 0 29826.30008440 0 16765.86297663 0 20443.93725977 0 169
0.01350000 0.01339930 85718.44167569 0 -465.63713018 0 31686.42760532 0 250.52514686 0 28136.65312993 0 180
0.01450000 0.01448870 77695.09017082 0 5464.69304435 0 28700.16170336 0 -10823.28610213 0 8274.48080322 0 267
0.01550000 0.01550050 72381.74256750 0 3254.33341124 0 34899.96431399 0 9343.59826799 0 33039.94663879 0 238
0.01650000 0.01653350 69572.32828410 0 -473.21428835 0 37789.23644006 0 18592.04816828 0 21649.60394630 0 315
0.01750000 0.01747870 75705.45453917 0 -777.65281590 0 36100.57809713 0 4905.06202505 0 37766.16883764 0 297
0.01850000 0.01844180 66426.89592543 0 6296.37897277 0 34978.06462505 0 6359.44140396 0 9766.84483412 0 388
0.01950000 0.01947590 65066.45661123 0 -2358.98090013 0 21965.95963664 0 9608.42532835 0 28553.18812222 0 399
0.02050000 0.02045430 69399.98034030 0 -4695.21275045 0 19276.49688582 0 17705.26362379 0 27061.15362849 0 462
0.02150000 0.02154770 73613.33284532 0 3683.42376998 0 16015.06744070 0 2728.96327382 0 14410.55092374 0 571
0.02250000 0.02255340 73173.73025062 0 -3364.78328854 0 6274.99200996 0 -18612.58931901 0 6814.65307630 0 510
0.02350000 0.02348930 67362.45197218 0 3678.43677403 0 9788.29770437 0 7040.90231776 0 -5276.65913090 0 555
0.02450000 0.02439640 65579.76568796 0 4203.47737428 0 19261.88740429 0 -7089.10262225 0 7183.40517786 0 592
0.02550000 0.02547300 65663.57797675 0 -858.82880727 0 15471.66063510 0 -3029.79776310 0 -6166.34360255 0 837
0.02650000 0.02652900 63767.64074921 0 -1636.88805235 0 15773.07730673 0 8946.63778404 0 -2449.17522560 0 723
0.02750000 0.02749970 64209.44025844 0 -794.44493200 0 3057.34707114 0 5973.68518405 0 -2584.57106724 0 826
0.02850000 0.02848090 66104.49872017 0 1858.82035679 0 2847.38795082 0 2614.93242585 0 -6710.28865221 0 831
0.02950000 0.02946900 65572.95525296 0 2074.70016173 0 11769.85967518 0 -3619.83407931 0 -7876.55367689 0 996
0.03050000 0.03053250 59153.79072787 0 2458.50112772 0 5894.93678321 0 -5111.06669924 0 1743.73498985 0 1041
0.03150000 0.03150510 56294.94586785 0 491.21360898 0 14409.34262075 0 1961.64694072 0 -800.55125590 0 1036
0.03250000 0.03246190 57536.64195245 0 4734.48259743 0 15385.54158606 0 -3208.41789785 0 -11063.33196675 0 1059
0.03350000 0.03345080 53419.95368614 0 2139.73981598 0 18561.07167360 0 -3463.57853434 0 -3754.94432206 0 1302
0.03450000 0.03451200 52201.65474114 0 -1124.28198827 0 18985.51555814 0 4562.77175884 0 935.02878727 0 1339
0.03550000 0.03553350 53064.38307168 0 -591.13477346 0 17172.95123649 0 7689.31065267 0 43.74012864 0 1365
0.03650000 0.03647120 49923.23469632 0 259.90597185 0 13806.94866039 0 2873.63009471 0 3407.48032217 0 1308
0.03750000 0.03744890 53171.37280862 0 1833.21531810 0 13869.34103266 0 -2209.04148440 0 5542.41987993 0 1579
0.03850000 0.03847530 49976.83941051 0 856.14088236 0 15696.18529866 0 2624.21438968 0 6180.00841084 0 1662
0.03950000 0.03950240 50162.80822432 0 -118.23903772 0 11351.45730556 0 3806.56082862 0 5272.70468477 0 1683
0.04050000 0.04050350 47705.44949214 0 698.98679935 0 12836.02228993 0 -1045.37321268 0 8006.44624766 0 1822
0.04150000 0.04152450 46796.25641959 0 2265.34840345 0 12610.28932338 0 -1129.75230542 0 3831.56171582 0 1887
0.04250000 0.04250150 44642.84081074 0 1524.72458173 0 14960.87801006 0 184.57267463 0 7709.51128164 0 1920
0.04350000 0.04349210 42728.66919272 0 34.51825042 0 13780.47584047 0 4395.99299334 0 10171.21990456 0 2005
0.04450000 0.04448520 43224.18326186 0 204.26581635 0 11593.66713098 0 3102.90009363 0 9517.97835772 0 2151
0.04550000 0.04548030 42041.80386920 0 17.54851377 0 11266.76625096 0 1019.45840904 0 6139.51927631 0 2274
0.04650000 0.04648670 42805.89073796 0 1898.58450953 0 11772.82550978 0 -1689.93255335 0 3941.28661133 0 2311
0.04750000 0.04749250 39629.15234744 0 1716.57014186 0 13167.53669043 0 -3210.69170437 0 6723.16257127 0 2568
0.04850000 0.04851840 38029.24935097 0 654.82442375 0 15185.73221080 0 507.45210263 0 6105.68679276 0 2493
0.04950000 0.04949480 38777.29874375 0 -1345.66506408 0 12128.83550714 0 1454.79679267 0 2534.34960139 0 2644
0.05050000 0.05050630 38099.11123258 0 754.07223394 0 12341.05744941 0 140.79585752 0 -124.23881127 0 2829
0.05150000 0.05149060 37235.39429051 0 1248.86901049 0 11130.99693385 0 1496.86770566 0 2090.57286911 0 2784
0.05250000 0.05249300 36662.54883039 0 779.72780166 0 13411.61389319 0 -946.80315062 0 1977.72835498 0 3055
0.05350000 0.05348950 37746.17691554 0 -387.54011450 0 12111.15034529 0 2762.10372930 0 2742.62808211 0 3009
0.05450000 0.05448610 36785.79573476 0 -1791.35311199 0 10274.46390225 0 1566.90534044 0 2741.25501054 0 3336
0.05550000 0.05550870 37275.04859753 0 792.05468901 0 9111.04388187 0 573.13215746 0 -667.32267043 0 3349
0.05650000 0.05647670 37650.94067126 0 1670.05047698 0 10712.17715047 0 -1518.77094339 0 400.27452949 0 3324
0.05750000 0.05747970 35107.13335288 0 1370.54512097 0 12706.07479629 0 -3714.80669385 0 1707.87036037 0 3639
0.05850000 0.05849280 34876.56717439 0 -295.09065628 0 12139.05115964 0 1853.75646883 0 -619.24978699 0 3846
0.05950000 0.05951020 33940.79143619 0 435.01763411 0 12491.10671087 0 1599.39770613 0 -3227.25643983 0 3787
0.06050000 0.06049470 33019.51533379 0 1308.55917790 0 12425.41896684 0 -1199.48237216 0 -239.66469995 0 3930
0.06150000 0.06148310 31676.32179855 0 729.41186849 0 12710.24893387 0 733.70244254 0 -1280.49359495 0 4083
0.06250000 0.06249100 31249.35146231 0 351.83366287 0 12224.84067150 0 1741.16459987 0 524.53750682 0 4303
0.06350000 0.06350600 31365.23870304 0 -8.40659226 0 10150.05263319 0 1691.81091526 0 715.50100577 0 4470
0.06450000 0.06451750 30637.40092380 0 1033.06499910 0 10784.13708545 0 -1425.81949020 0 -909.32928126 0 4479
0.06550000 0.06550280 29102.08721411 0 1607.05395322 0 11912.54927302 0 -668.48483821 0 -309.70233473 0 4636
0.06650000 0.06648880 27828.97525193 0 67.62146819 0 11485.68878250 0 526.58173578 0 1823.18640333 0 4653
0.06750000 0.06749660 27662.66882305 0 -679.51554600 0 11178.23059595 0 1903.31886031 0 1526.50408248 0 5220
0.06850000 0.06852730 28468.27737616 0 -146.24750089 0 10290.31464048 0 346.12278358 0 -2189.15940803 0 5029
0.06950000 0.06949320 27906.52633435 0 908.43184168 0 10358.52883621 0 311.38517125 0 941.49650360 0 5040
0.07050000 0.07048030 27755.48846136 0 -241.60567393 0 9149.30314817 0 827.36240066 0 299.99307103 0 5475
0.07150000 0.07148790 27527.88811748 0 418.38808968 0 10553.74666013 0 75.40953015 0 728.92085810 0 5509
0.07250000 0.07249820 27238.44462996 0 328.15421975 0 9330.31791974 0 89.35367613 0 -519.79766375 0 5916
0.07350000 0.07351270 27602.58321103 0 497.57477496 0 9678.67167001 0 43.02646096 0 -951.13217067 0 5721
0.07450000 0.07449140 27001.83693655 0 -665.63104625 0 8229.67473166 0 276.05988429 0 -1599.61739759 0 6028
0.07550000 0.07549160 26885.18077574 0 -303.69487199 0 8650.36189238 0 425.76532862 0 -2166.69595710 0 6183
0.07650000 0.07648840 27333.79071996 0 440.16939865 0 7251.70725017 0 759.55902794 0 -1334.53769205 0 6330
0.07750000 0.07749960 26279.49144361 0 478.76039904 0 6750.40431128 0 -566.11960633 0 -2915.56919283 0 6583
0.07850000 0.07848650 26181.61890191 0 768.97610201 0 8169.99554883 0 731.22981525 0 -1846.39680520 0 6549
0.07950000 0.07947320 25134.45959773 0 792.54679786 0 8621.73609623 0 -86.69991324 0 -1768.54913931 0 6828
0.08050000 0.08048110 24601.59798181 0 543.27059690 0 8102.84685664 0 -492.15938068 0 -420.81018793 0 7147
0.08150000 0.08149960 23248.18879406 0 696.37247108 0 8357.55712565 0 409.56528098 0 -844.81139420 0 7386
0.08250000 0.08250610 23038.27361203 0 -67.29522639 0 8399.62803864 0 1678.66238188 0 1092.42782624 0 7227
0.08350000 0.08350160 22732.90249427 0 -420.39826646 0 6746.79038690 0 1033.70210431 0 1538.75188091 0 7798
0.08450000 0.08449610 23309.48270906 0 -81.55693635 0 6746.71349489 0 1575.83579795 0 1009.64808727 0 7371
0.08550000 0.08548940 23081.00359937 0 288.53286645 0 5976.83775638 0 -303.16212022 0 1096.41742301 0 8256
0.08650000 0.08650700 21948.16462906 0 872.86269720 0 6688.82479738 0 -288.94588638 0 1741.81268965 0 8037
0.08750000 0.08749060 21736.60176114 0 864.27825373 0 7608.84865851 0 -1154.69826975 0 2574.78381307 0 8155
0.08850000 0.08849210 20975.81026416 0 80.95860668 0 6536.34794538 0 403.00858961 0 1269.93742070 0 8718
0.08950000 0.08949900 20754.03174374 0 19.74795474 0 8027.43776586 0 921.30246537 0 1057.54411910 0 8571
0.09050000 0.09049190 20454.48244945 0 189.88810930 0 6755.97348957 0 118.37524642 0 1298.67306257 0 8932
0.09150000 0.09150830 20482.71280098 0 353.22101438 0 6790.13551030 0 351.38988613 0 1213.18013417 0 9285
0.09250000 0.09250820 20040.91329176 0 288.46805747 0 6902.43079580 0 168.06396049 0 2665.09896883 0 9204
0.09350000 0.09350330 19583.73538092 0 151.88698045 0 6433.14788598 0 699.56788324 0 1652.29940769 0 9349
0.09450000 0.09448040 19209.16145590 0 -35.17985122 0 6339.20782127 0 256.18989094 0 1823.50495594 0 9564
0.09550000 0.09549270 18643.89535086 0 900.60753063 0 6400.61158200 0 -336.96933925 0 1750.12801110 0 10155
0.09650000 0.09649430 17855.97195960 0 711.38179106 0 6677.66447164 0 140.36526227 0 2977.92861137 0 9913
0.09750000 0.09749140 17920.67109211 0 -38.52739972 0 6542.82884321 0 1422.29344240 0 2389.69376507 0 10476
0.09850000 0.09850240 17702.73717209 0 -469.51688122 0 5108.06791092 0 839.59591914 0 2641.46016864 0 10575
0.09950000 0.09950330 17365.40094812 0 571.17580508 0 5213.61866886 0 320.72755023 0 2667.80117369 0 10882
0.10050000 0.10051200 17114.18377318 0 -51.15120007 0 4507.25572901 0 -320.78027618 0 2771.19895539 0 10875
0.10150000 0.10150300 16846.81927655 0 330.25117466 0 5125.67618077 0 321.49866723 0 1956.71486763 0 11118
0.10250000 0.10250800 16795.85085978 0 111.71969390 0 4653.04297631 0 -531.53248264 0 852.07329513 0 11575
0.10350000 0.10349800 16837.04300696 0 111.92181003 0 4772.26952711 0 112.16017526 0 936.84453712 0 11364
0.10450000 0.10450100 16305.06015684 0 128.66339710 0 4724.40974437 0 -816.63157170 0 95.47944272 0 12093
0.10550000 0.10551000 16172.03698288 0 369.48587100 0 5069.10563198 0 -87.89173936 0 -146.18269191 0 12067
0.10650000 0.10649700 15614.24038720 0 416.05606492 0 5203.28218606 0 -45.63716432 0 -170.64203968 0 12054
0.10750000 0.10749900 15592.38108777 0 110.79918671 0 5365.67810710 0 102.56811694 0 -652.23426153 0 12807
0.10850000 0.10850100 14868.05837175 0 348.06265910 0 5790.96780373 0 -506.26467033 0 -1002.54216727 0 12736
0.10950000 0.10950300 14661.76809867 0 321.60961141 0 5886.62146177 0 -311.59387813 0 -651.36648030 0 12933
0.11050000 0.11050200 14802.59031917 0 60.17436737 0 6091.00041922 0 290.06301741 0 -1112.27585044 0 13428
0.11150000 0.11150900 15070.61389015 0 -286.26784759 0 5867.40944432 0 177.50410217 0 -1304.51685519 0 13453
0.11250000 0.11250000 14712.29713255 0 104.13748283 0 6042.66829986 0 292.33572548 0 -1106.77257958 0 13668
0.11350000 0.11349100 14612.55721351 0 172.81149276 0 4986.44672330 0 77.47243288 0 -409.48729052 0 13791
0.11450000 0.11448600 14445.37201882 0 66.70722222 0 5416.33895584 0 648.99820645 0 -345.81521555 0 14205
0.11550000 0.11549300 14611.45875625 0 66.83002974 0 4848.46950711 0 743.55230877 0 -502.15424327 0 14776
0.11650000 0.11649800 14173.61369316 0 308.28752178 0 5251.38362939 0 -766.09375017 0 -1076.65068465 0 14553
0.11750000 0.11747300 13757.29839233 0 496.92229135 0 5844.19904246 0 -482.55117504 0 -137.33352024 0 14568
0.11850000 0.11849100 13501.35785118 0 271.23216464 0 5990.41468809 0 -94.21610702 0 -832.76241654 0 16015
0.11950000 0.11950300 13097.56496309 0 -20.01828507 0 5455.74061769 0 174.62065187 0 -470.30337661 0 15270
0.12050000 0.12050700 13384.26230746 0 -129.60038114 0 5553.10786905 0 910.06085379 0 -891.63752866 0 15999
0.12150000 0.12150000 13413.48127053 0 10.05903446 0 5085.30787653 0 674.02435816 0 487.96876624 0 15670
0.12250000 0.12250700 13378.77002117 0 -172.63354269 0 4628.56934860 0 887.49304942 0 886.06066116 0 16887
0.12350000 0.12352200 13247.94376173 0 144.31421612 0 4169.96344333 0 179.91192048 0 1348.42219180 0 16407
0.12450000 0.12449800 13594.83656385 0 109.29430027 0 4297.30759327 0 271.89014053 0 1256.90971762 0 16306
0.12550000 0.12549900 13265.40923213 0 86.82678505 0 3918.50460780 0 104.93375449 0 1756.13657230 0 17523
0.12650000 0.12650100 13385.90999335 0 105.68476972 0 4337.54408263 0 -26.71898419 0 1473.41564320 0 17154
0.12750000 0.12750600 13033.74459639 0 -18.51482662 0 4066.34597017 0 32.41097001 0 1563.51110751 0 18007
0.12850000 0.12850300 12972.34083566 0 136.01317462 0 4215.43957382 0 -141.86905026 0 684.88480507 0 17496
0.12950000 0.12949900 12911.37645784 0 196.65460601 0 4084.34968463 0 -288.43839913 0 1145.00987673 0 18405
0.13050000 0.13049000 12594.69123032 0 231.84697965 0 4369.30048196 0 436.41926557 0 957.71632348 0 18100
0.13150000 0.13148800 12838.10935872 0 44.36361298 0 3501.43137146 0 340.21967428 0 357.09856850 0 19059
0.13250000 0.13249300 12276.90754554 0 10.64864238 0 3850.90554813 0 234.14495223 0 770.63916630 0 18957
0.13350000 0.13349100 12031.84173125 0 274.18042392 0 3392.43145773 0 -240.12495354 0 163.50755979 0 19468
0.13450000 0.13450700 11996.58125326 0 466.83005476 0 4087.42536495 0 -81.71061052 0 1117.30678468 0 19953
0.13550000 0.13551000 11322.01865104 0 -108.41959876 0 3626.05134739 0 195.38149405 0 828.72778303 0 19956
0.13650000 0.13649900 11594.21635961 0 -4.06749935 0 3882.77179319 0 312.65828321 0 381.72268486 0 19723
0.13750000 0.13749600 11306.31071225 0 341.04681259 0 3680.83141085 0 -234.15154297 0 896.39604550 0 20946
0.13850000 0.13851100 11205.58218168 0 192.10369759 0 3779.54976464 0 79.02587114 0 821.82617607 0 20955
0.13950000 0.13949800 11072.88854490 0 -214.47597657 0 3516.37039017 0 587.87455232 0 1073.10047079 0 20506
0.14050000 0.14048300 11160.65527982 0 -63.53322997 0 3344.54970585 0 673.63001201 0 1086.39509898 0 21447
0.14150000 0.14148400 11344.31733338 0 -88.71239678 0 2548.22311657 0 688.16809382 0 1719.51400731 0 21771
0.14250000 0.14249400 11384.19133185 0 -0.27581163 0 2419.42900305 0 33.81985129 0 1405.43212349 0 22470
0.14350000 0.14350900 11190.97270015 0 349.95310404 0 2495.05778527 0 -385.12460699 0 1166.16616353 0 22519
0.14450000 0.14449900 10733.82774303 0 266.76583742 0 2565.18329663 0 -482.70276214 0 1356.40797606 0 22218
0.14550000 0.14550500 10510.05003040 0 98.88268299 0 3139.14918315 0 -126.87510869 0 661.10650081 0 23559
0.14650000 0.14650700 10357.26561037 0 263.99223285 0 3226.31176658 0 -21.26360607 0 745.23514529 0 23044
0.14750000 0.14750500 10225.83519943 0 33.64596551 0 2836.44731653 0 -64.73175668 0 636.41757547 0 23649
0.14850000 0.14849900 10184.63206768 0 3.85181727 0 3103.89968974 0 276.54650085 0 176.85271702 0 23640
0.14950000 0.14949500 10085.74894530 0 135.44637067 0 3036.90478156 0 56.73202201 0 649.46944462 0 24457
0.15050000 0.15050000 10034.78052852 0 18.22867851 0 2748.34005985 0 293.24305117 0 785.10365148 0 24591
0.15150000 0.15149900 10160.41108514 0 16.29934818 0 2672.90899994 0 219.17847209 0 305.98625383 0 25020
0.15250000 0.15250500 10051.86153889 0 140.18731220 0 2674.51274753 0 -105.10357598 0 713.69404358 0 25297
0.15350000 0.15350100 9703.41991204 0 113.00928272 0 2665.13192255 0 -177.45686851 0 953.28954073 0 25452
0.15450000 0.15450400 9652.23180381 0 188.31072468 0 3100.90090142 0 -131.81487098 0 585.62381340 0 26061
0.15550000 0.15549900 9651.71552890 0 77.42959305 0 3118.81673930 0 4.36810316 0 9.27415380 0 26128
0.15650000 0.15649500 9330.74631807 0 150.72920650 0 3104.33907264 0 -259.75987703 0 29.66252011 0 26331
0.15750000 0.15749700 9223.56984339 0 154.70781869 0 3137.76512701 0 -80.57963893 0 250.88324393 0 27345
0.15850000 0.15849900 9186.67266409 0 -122.41097839 0 2976.69833925 0 302.07574599 0 17.89705426 0 26980
0.15950000 0.15949700 9279.19571894 0 3.42533025 0 2745.03370351 0 403.86648473 0 -407.17393953 0 27777
0.16050000 0.16050000 9239.27778218 0 177.52607132 0 2512.08387277 0 122.07704738 0 -27.77701822 0 28224
0.16150000 0.16150500 9074.16867171 0 32.64307403 0 2366.05496488 0 13.37470573 0 58.32698195 0 28075
0.16250000 0.16249700 8833.37585616 0 108.01262034 0 2309.95675270 0 244.48582886 0 269.49879908 0 28590
0.16350000 0.16349900 8959.80828657 0 37.63336536 0 2421.96643932 0 28.60141040 0 -229.10742724 0 29163
0.16450000 0.16449100 8815.81152460 0 -4.59610994 0 2004.15723661 0 17.66407148 0 113.50249003 0 28996
0.16550000 0.16550500 8726.26528892 0 88.39823800 0 2275.84965484 0 105.33578985 0 4.20403759 0 30777
0.16650000 0.16650700 8788.85538349 0 198.95477551 0 2135.25811037 0 -162.75511657 0 83.97771646 0 29211
0.16750000 0.16749900 8668.96975833 0 43.75693503 0 2472.42956575 0 -273.59824157 0 -17.78984483 0 30922
0.16850000 0.16850800 8439.95240458 0 67.16527889 0 2255.40736526 0 362.19321327 0 -290.57489849 0 30867
0.16950000 0.16949900 8440.16111146 0 -66.55739265 0 2360.58464773 0 78.52299741 0 -227.14448412 0 30852
0.17050000 0.17049200 8476.65186158 0 147.53708971 0 2272.30163789 0 55.63883735 0 -308.77303989 0 31257
0.17150000 0.17149500 8283.48815274 0 285.67138529 0 2457.99583738 0 -440.55495715 0 34.22342449 0 32608
0.17250000 0.17250900 8068.94846565 0 74.47210673 0 2467.00318690 0 152.20004077 0 31.50166709 0 32361
0.17350000 0.17350400 8055.54728710 0 -77.07973441 0 2431.56695575 0 271.11462971 0 -174.50860923 0 32508
0.17450000 0.17449800 7945.62466928 0 64.54446972 0 2367.63674333 0 323.73183083 0 76.31960199 0 32791
0.17550000 0.17549800 8078.28535234 0 108.95652466 0 2294.34767507 0 12.66839771 0 354.58090447 0 33633
0.17650000 0.17650100 7761.70997055 0 29.93010430 0 2044.29486482 0 27.29402657 0 357.88616236 0 33984
0.17750000 0.17750300 7933.80526918 0 34.12390426 0 2245.03792875 0 94.55553032 0 127.87360633 0 34069
0.17850000 0.17849800 7808.97658637 0 127.69345934 0 1888.92907023 0 -57.05914258 0 187.78346519 0 34536
