### header ###
fiducial parameters:
Omega_m = 0.31
Omega_nu = 0
Omega_de = 0.69
Omega_k = 0
H_0 = 100
w_de = -1
zeff = 0
beta = 0
fgrowth = 0
b_1 = 2
gamma = 0.55
Lx = 3500 Ly = 3500 Lz = 3500
nx = 700 ny = 700 nz = 700
xoffset = -983.599254 yoffset = -42.9823471 zoffset = 800.977702
bins = 400 dk = 0.001
kx_ny = 0.628318531 ky_ny = 0.628318531 kz_ny = 0.628318531
############################
A(data) = 8.99402588 (not used)
A(ran) = 8.99538422 (used)
Ngal = 499172
weighted Ngal = 0
Nran = 25229228
weighted Nran = 0
SN(data) = 6780.64861
SN(ran) = 133.530281
SN(data+ran) = 6914.17889
############################
13 columns: k_central k_mean P_0(k) sigma^{lin}_{P_0(k)} P^img_1(k) sigma^{lin}_{P_1(k)} P_2(k) sigma^{lin}_{P_2(k)} P^img_3(k) sigma^{lin}_{P_3(k)} P_4(k) sigma^{lin}_{P_4(k)} N_modes
### header ###
0.00050000 0 0 0 0 0 0 0 0 0 0 0 0
0.00150000 0.00179520 56477.72915561 0 -4466.04161269 0 -3546.57796477 0 45624.75175379 0 -24337.74854840 0 3
0.00250000 0.00253879 50918.54681791 0 21790.53601251 0 19942.16198425 0 -9652.64921757 0 3122.05718821 0 6
0.00350000 0.00331552 33765.03827489 0 17891.12259186 0 15172.33103225 0 -6771.17613803 0 33397.16493914 0 7
0.00450000 0.00420575 26676.14435952 0 -5267.56390480 0 3478.20998502 0 24243.94029856 0 13048.02454075 0 24
0.00550000 0.00557378 51422.84854512 0 -24529.75887712 0 -17254.45676505 0 -2214.76444671 0 -32377.02768351 0 45
0.00650000 0.00659388 57744.14052851 0 -6093.58179377 0 -31505.29200345 0 10049.78545467 0 17333.54568763 0 40
0.00750000 0.00754703 77877.10453850 0 -12266.58204731 0 -33579.83838117 0 -38653.06322786 0 -38291.34125276 0 57
0.00850000 0.00846663 89806.46020756 0 -10420.10835011 0 -16021.21880134 0 -30960.67689487 0 -24520.75152761 0 75
0.00950000 0.00948925 84657.11227288 0 14772.49259029 0 -5807.75223064 0 -38464.23842519 0 -48839.82630262 0 112
0.01050000 0.01054430 84709.94806700 0 12867.43816751 0 20231.38578032 0 -12228.57542618 0 7462.86368890 0 105
0.01150000 0.01145670 79436.25477069 0 -10278.72591641 0 -3804.80329701 0 13247.83391600 0 -35937.12765712 0 144
0.01250000 0.01249090 92264.69770554 0 -8989.99389202 0 16750.26488356 0 40487.81638612 0 -10822.96754953 0 169
0.01350000 0.01339930 90311.20131767 0 3949.03073500 0 6423.98675245 0 -20898.80841036 0 -8752.07903448 0 180
0.01450000 0.01448870 93309.33055803 0 5909.98564765 0 -1757.39979814 0 -10990.61409626 0 -9624.55068090 0 267
0.01550000 0.01550050 74078.74918559 0 7397.08806828 0 29151.84732790 0 -4462.73525634 0 18261.74207076 0 238
0.01650000 0.01653350 76184.49174944 0 4227.88509455 0 24791.85077891 0 -11527.64984976 0 1560.80890266 0 315
0.01750000 0.01747870 76184.38190371 0 1435.25523805 0 28417.96803374 0 18660.48205546 0 6181.18376011 0 297
0.01850000 0.01844180 75360.53896011 0 -1405.22341661 0 29010.14634160 0 -1947.86130213 0 81.57088676 0 388
0.01950000 0.01947590 75440.72633996 0 -282.64952938 0 21086.53475578 0 9457.69502339 0 7617.35071769 0 399
0.02050000 0.02045430 78173.57815247 0 -2938.68073354 0 36898.82698662 0 4358.99695288 0 -8457.22015268 0 462
0.02150000 0.02154770 74209.46559931 0 2536.39273190 0 25524.85130727 0 -5813.12368663 0 -1247.12246345 0 571
0.02250000 0.02255340 78817.27410573 0 5838.01472810 0 41794.98052330 0 -3460.87632949 0 7719.67201128 0 510
0.02350000 0.02348930 71386.75998308 0 519.09465110 0 34852.40111471 0 2505.49312922 0 9032.78978680 0 555
0.02450000 0.02439640 69156.34252044 0 2244.81823730 0 32339.02106238 0 5660.69077292 0 -10607.73583437 0 592
0.02550000 0.02547300 68204.08992337 0 2638.21971972 0 37292.29437648 0 1943.56633425 0 -3058.78605015 0 837
0.02650000 0.02652900 65729.26572079 0 6392.65875145 0 43058.64575306 0 -2776.88896399 0 -304.49015504 0 723
0.02750000 0.02749970 57253.78920848 0 5418.17337947 0 41986.66131485 0 -6635.25303691 0 -7854.76028489 0 826
0.02850000 0.02848090 53065.04214603 0 892.28891381 0 43114.88676468 0 6629.26644485 0 2885.41654109 0 831
0.02950000 0.02946900 53972.80722416 0 -1410.47404231 0 46292.17438383 0 10448.56937766 0 -915.33344863 0 996
0.03050000 0.03053250 50842.64342138 0 -953.38620497 0 33031.59836363 0 5617.02709691 0 -678.10732379 0 1041
0.03150000 0.03150510 54879.36399929 0 2779.03095564 0 35321.55220966 0 1751.85258899 0 -3483.57045644 0 1036
0.03250000 0.03246190 51200.41095035 0 1164.56241593 0 31644.24684661 0 21.03490726 0 775.85573982 0 1059
0.03350000 0.03345080 50246.07128448 0 -457.23832598 0 36207.67767980 0 698.31124814 0 4592.91342600 0 1302
0.03450000 0.03451200 49191.00308805 0 1722.71051793 0 27533.92963239 0 7526.17876526 0 1031.23826468 0 1339
0.03550000 0.03553350 51442.73062149 0 -1198.77935952 0 24960.13443086 0 5748.24880096 0 5004.53831434 0 1365
0.03650000 0.03647120 51341.67255375 0 -1262.55578793 0 22277.59196077 0 6854.03276901 0 2173.97872872 0 1308
0.03750000 0.03744890 53293.41141000 0 -191.59950571 0 19550.89150890 0 2718.61580645 0 -1360.40636048 0 1579
0.03850000 0.03847530 49239.55489885 0 1381.90316902 0 15822.50788334 0 -2068.76849253 0 5314.91839720 0 1662
0.03950000 0.03950240 48949.34249126 0 2161.25859367 0 17954.28388421 0 1981.71575483 0 4743.31419379 0 1683
0.04050000 0.04050350 47351.85610075 0 -354.96097068 0 15300.30130283 0 6552.35246763 0 7260.79149170 0 1822
0.04150000 0.04152450 47937.99289369 0 268.14110591 0 15580.95713228 0 -3586.92429986 0 -2601.94866106 0 1887
0.04250000 0.04250150 43367.42208832 0 2984.94775325 0 13889.88218338 0 -2364.06675724 0 3752.78036126 0 1920
0.04350000 0.04349210 42739.87345675 0 1130.40039520 0 17576.74412458 0 -1346.12641613 0 906.48317850 0 2005
0.04450000 0.04448520 40482.76348273 0 48.70493575 0 16939.30937769 0 910.28054524 0 3030.72046720 0 2151
0.04550000 0.04548030 42626.73235916 0 1449.23859895 0 19690.39558069 0 948.09054253 0 -7794.11445966 0 2274
0.04650000 0.04648670 41339.77983553 0 683.70506198 0 17031.36009592 0 -1872.47418051 0 -2704.30290837 0 2311
0.04750000 0.04749250 39293.35396363 0 -496.54661897 0 18876.43875241 0 2434.45589834 0 -2494.77218638 0 2568
0.04850000 0.04851840 39335.64456806 0 554.74398296 0 16559.90224073 0 1232.06261444 0 -2813.22593009 0 2493
0.04950000 0.04949480 38911.74991215 0 582.13401469 0 14962.19615877 0 -554.00581968 0 -5132.39873919 0 2644
0.05050000 0.05050630 38126.13328113 0 1534.53380504 0 15116.74909499 0 2664.67057050 0 -3935.83826333 0 2829
0.05150000 0.05149060 36183.40177440 0 1166.36388583 0 16126.56085240 0 -1112.55046476 0 -1682.58387429 0 2784
0.05250000 0.05249300 34673.57227309 0 1446.72313183 0 17388.79808772 0 117.56788034 0 -2914.14119839 0 3055
0.05350000 0.05348950 33780.08713932 0 515.84211916 0 15889.07439319 0 -18.55997322 0 -3244.52418792 0 3009
0.05450000 0.05448610 32500.60412505 0 -544.14936271 0 14112.64931533 0 1434.87077801 0 -3069.59486957 0 3336
0.05550000 0.05550870 33262.38423357 0 -129.76405128 0 14160.65189751 0 2663.07780748 0 -2686.45297793 0 3349
0.05650000 0.05647670 32537.40244320 0 -552.03518736 0 13092.51205970 0 1201.62436382 0 -1208.70941313 0 3324
0.05750000 0.05747970 34981.03045964 0 72.79124743 0 12412.89655410 0 751.44801955 0 -4414.04064609 0 3639
0.05850000 0.05849280 33606.20135536 0 903.75461067 0 13430.39751231 0 -833.91689512 0 -1313.54617385 0 3846
0.05950000 0.05951020 34623.59246785 0 -691.04934721 0 11635.62819824 0 1159.41065139 0 -1095.94179101 0 3787
0.06050000 0.06049470 34145.65371483 0 -896.76073331 0 11457.23873952 0 1930.93407578 0 1745.60236719 0 3930
0.06150000 0.06148310 34416.09389178 0 778.64032897 0 10958.20960715 0 1430.43301069 0 -2095.12048216 0 4083
0.06250000 0.06249100 33107.61160589 0 1216.71716655 0 10993.36023941 0 -1194.69309852 0 666.32417278 0 4303
0.06350000 0.06350600 32765.11263281 0 1009.13730465 0 12128.83550714 0 -566.01744980 0 68.01207959 0 4470
0.06450000 0.06451750 31278.02119675 0 612.88203026 0 11839.72155680 0 962.71759937 0 115.80925027 0 4479
0.06550000 0.06550280 31303.72509659 0 615.69517930 0 12123.23337513 0 -724.18101503 0 368.28855259 0 4636
0.06650000 0.06648880 28951.48872402 0 1048.36431179 0 12360.17060570 0 -1172.32850874 0 -2228.19857898 0 4653
0.06750000 0.06749660 28129.51315776 0 971.32401199 0 12904.23648566 0 1161.93710308 0 257.62996841 0 5220
0.06850000 0.06852730 27603.35213111 0 -527.48356919 0 11139.45505474 0 2361.39750610 0 -1701.11484824 0 5029
0.06950000 0.06949320 27512.39987014 0 399.14861080 0 10997.97375989 0 624.18405699 0 -879.80055324 0 5040
0.07050000 0.07048030 26909.01729824 0 675.56000141 0 10954.10137700 0 -7.10747981 0 -1592.11493451 0 5475
0.07150000 0.07148790 26421.85150426 0 135.90662426 0 9356.80172423 0 794.19228683 0 1570.02495905 0 5509
0.07250000 0.07249820 26378.46244256 0 -222.16298046 0 10011.21862034 0 746.42697142 0 -1113.27544655 0 5916
0.07350000 0.07351270 26489.84600854 0 134.42700234 0 9157.69536162 0 960.89855416 0 76.24216076 0 5721
0.07450000 0.07449140 27468.68127126 0 126.01501665 0 8877.38005392 0 249.38055440 0 -526.23462328 0 6028
0.07550000 0.07549160 26157.78237940 0 -146.32658981 0 8186.13188595 0 -305.25797666 0 409.29615895 0 6183
0.07650000 0.07648840 26427.67332773 0 -416.52071234 0 8785.50508885 0 647.19893346 0 -421.37040113 0 6330
0.07750000 0.07749960 26101.21183061 0 1011.52754764 0 8640.66251479 0 205.88164698 0 116.58805646 0 6583
0.07850000 0.07848650 25918.53838858 0 972.18190711 0 8914.26624865 0 -487.68316735 0 -300.45552153 0 6549
0.07950000 0.07947320 25261.44125677 0 -133.43948926 0 8096.75041885 0 645.40954659 0 -512.65879003 0 6828
0.08050000 0.08048110 24823.26665650 0 464.88029313 0 8687.44580941 0 800.26236164 0 172.08321560 0 7147
0.08150000 0.08149960 24036.22203104 0 -18.29019211 0 8258.35545067 0 213.57524161 0 1206.89695866 0 7386
0.08250000 0.08250610 23343.86442124 0 918.73756767 0 8555.91653733 0 252.45733318 0 645.14701530 0 7227
0.08350000 0.08350160 22567.69452264 0 396.30470496 0 8532.54136687 0 198.62523833 0 1718.84394838 0 7798
0.08450000 0.08449610 22185.32155109 0 341.44884795 0 8809.28668849 0 -80.04545917 0 1475.72240344 0 7371
0.08550000 0.08548940 21868.96586074 0 358.60565186 0 8817.71185566 0 564.10613417 0 1836.80727333 0 8256
0.08650000 0.08650700 21750.77185977 0 301.66382452 0 9316.93871033 0 -361.21448785 0 1345.90672467 0 8037
0.08750000 0.08749060 21099.16701424 0 490.03825971 0 9154.22423669 0 -380.94497712 0 1372.77498921 0 8155
0.08850000 0.08849210 21073.13357723 0 121.25540135 0 9395.90680262 0 339.68033176 0 1499.50400308 0 8718
0.08950000 0.08949900 20528.51846864 0 21.41255687 0 9729.35448790 0 220.72400145 0 -45.63892185 0 8571
0.09050000 0.09049190 20445.47509993 0 634.72155747 0 9493.12026997 0 227.29607122 0 633.02224409 0 8932
0.09150000 0.09150830 19628.33274560 0 384.74124541 0 9599.40699426 0 -286.42932080 0 1912.51294757 0 9285
0.09250000 0.09250820 19347.45722470 0 91.41679855 0 8649.03275910 0 1782.81809910 0 1329.32002008 0 9204
0.09350000 0.09350330 18916.53244233 0 346.32929355 0 8370.32119899 0 1338.68986049 0 1396.93006431 0 9349
0.09450000 0.09448040 18830.52323902 0 236.91526143 0 7433.51291096 0 951.82749412 0 2549.26665096 0 9564
0.09550000 0.09549270 18191.66049769 0 212.38671086 0 7757.94226215 0 -562.00478544 0 2617.34903182 0 10155
0.09650000 0.09649430 16980.28183342 0 595.67359886 0 7264.95464470 0 154.35850928 0 2745.46210184 0 9913
0.09750000 0.09749140 17198.32559916 0 319.94435021 0 8221.64500910 0 -298.80344181 0 2653.90568937 0 10476
0.09850000 0.09850240 16757.40485574 0 229.61820987 0 7714.15775585 0 80.45902832 0 2354.77380884 0 10575
0.09950000 0.09950330 16988.73995431 0 -31.36996207 0 7490.10542890 0 346.87193143 0 991.84868586 0 10882
0.10050000 0.10051200 16752.46179808 0 -126.49064865 0 7505.03346304 0 46.75846949 0 1571.44196891 0 10875
0.10150000 0.10150300 16654.91879356 0 -44.22575659 0 7285.44087257 0 -375.04955702 0 723.50766073 0 11118
0.10250000 0.10250800 16680.84238485 0 332.28112367 0 7646.81134135 0 324.51722777 0 194.15122192 0 11575
0.10350000 0.10349800 16823.09259978 0 273.42688224 0 7104.82154561 0 361.26611534 0 802.85801614 0 11364
0.10450000 0.10450100 16767.40081679 0 -32.59792744 0 7464.68712795 0 341.48619549 0 489.90095256 0 12093
0.10550000 0.10551000 16325.60130757 0 92.70375107 0 7099.45008962 0 197.74537407 0 322.33459320 0 12067
0.10650000 0.10649700 15923.56595109 0 336.84521358 0 6943.98543388 0 -253.03622015 0 700.91019801 0 12054
0.10750000 0.10749900 15886.10855859 0 392.13166584 0 7455.62485557 0 30.99165339 0 173.83855030 0 12807
0.10850000 0.10850100 15495.38731187 0 183.04581904 0 7470.55288971 0 568.17811523 0 1039.62828122 0 12736
0.10950000 0.10950300 15484.84212219 0 -37.54504939 0 7135.14995051 0 350.03109451 0 539.05032411 0 12933
0.11050000 0.11050200 14794.24204400 0 70.30510912 0 6927.79417389 0 463.76645747 0 1409.84792167 0 13428
0.11150000 0.11150900 15171.45226645 0 179.53295273 0 6705.14787224 0 299.64705699 0 1460.37695554 0 13453
0.11250000 0.11250000 14751.51205666 0 68.39950547 0 5896.54053081 0 552.00552902 0 1890.75250928 0 13668
0.11350000 0.11349100 14840.15755739 0 29.00432452 0 6197.64963441 0 665.14662660 0 1634.80098356 0 13791
0.11450000 0.11448600 14762.93601215 0 -4.84008828 0 5850.98750832 0 -4.52226066 0 1482.63169959 0 14205
0.11550000 0.11549300 14410.22138656 0 419.14053290 0 5449.64417991 0 -411.04929674 0 865.01531855 0 14776
0.11650000 0.11649800 14328.27647510 0 414.54019390 0 6095.97643060 0 -251.22596259 0 1531.27138698 0 14553
0.11750000 0.11747300 13779.59707467 0 -302.90178585 0 5121.99634895 0 1061.91927436 0 997.99784959 0 14568
0.11850000 0.11849100 14193.27607808 0 -340.09884398 0 5403.20140704 0 733.98035223 0 804.43540076 0 16015
0.11950000 0.11950300 13740.49199628 0 739.42979868 0 4751.37687006 0 -175.94758824 0 892.91283753 0 15270
0.12050000 0.12050700 13638.00593409 0 329.34604588 0 4826.02802532 0 -173.82976264 0 1299.17835291 0 15999
0.12150000 0.12150000 13330.98713044 0 -237.08991614 0 4817.37218213 0 488.10607340 0 1366.85430459 0 15670
0.12250000 0.12250700 13216.52788415 0 1.02771881 0 4338.37891015 0 339.46283722 0 733.89027873 0 16887
0.12350000 0.12352200 13147.32507688 0 31.82768921 0 3647.89966226 0 415.87591793 0 1303.41839793 0 16407
0.12450000 0.12449800 13160.94594688 0 308.67198182 0 4292.47438133 0 -166.64255680 0 1009.57009681 0 16306
0.12550000 0.12549900 12836.24198138 0 311.35221753 0 4001.30631592 0 -83.46967998 0 986.95945260 0 17523
0.12650000 0.12650100 12861.50649832 0 69.93965239 0 4380.63656087 0 217.38908521 0 640.59500843 0 17154
0.12750000 0.12750600 12660.70851153 0 48.01422583 0 4211.45217397 0 -238.13015516 0 587.06389087 0 18007
0.12850000 0.12850300 12199.79584602 0 24.26371253 0 4115.00762671 0 -25.10853601 0 363.80794544 0 17496
0.12950000 0.12949900 12366.43181208 0 247.02436358 0 3921.45945782 0 111.96355141 0 523.73123919 0 18405
0.13050000 0.13049000 12244.17351925 0 90.64765878 0 4120.42302099 0 313.87317694 0 575.40816090 0 18100
0.13150000 0.13148800 11997.89940197 0 -106.17819672 0 3924.41430785 0 578.71341879 0 822.59509616 0 19059
0.13250000 0.13249300 11919.46955374 0 103.76884057 0 3636.05829301 0 20.51204161 0 580.85980427 0 18957
0.13350000 0.13349100 11923.75353705 0 236.49455230 0 3483.94393191 0 140.74532848 0 1095.12124344 0 19468
0.13450000 0.13450700 11619.37103082 0 80.56689683 0 3669.75896169 0 -74.26878229 0 1063.18579558 0 19953
0.13550000 0.13551000 11644.41585630 0 283.96987500 0 3838.86645658 0 -63.34165902 0 981.87579241 0 19956
0.13650000 0.13649900 11376.17259387 0 225.22328238 0 4159.17659305 0 -73.16142753 0 1242.00365263 0 19723
0.13750000 0.13749600 11250.94846644 0 -99.62359241 0 4034.78729314 0 -217.47586334 0 1053.06021657 0 20946
0.13850000 0.13851100 11358.92681492 0 43.49846804 0 4242.87903612 0 469.90793200 0 850.13012425 0 20955
0.13950000 0.13949800 11232.38453878 0 85.26159330 0 3833.70370747 0 94.93889190 0 1009.43828194 0 20506
0.14050000 0.14048300 11179.32905321 0 143.92755916 0 3885.60581292 0 101.35531028 0 1511.09272715 0 21447
0.14150000 0.14148400 11110.89516603 0 125.98865368 0 3974.72365027 0 391.57364955 0 688.67228570 0 21771
0.14250000 0.14249400 11001.70851457 0 -131.10526759 0 3438.69847744 0 105.61304046 0 957.07262753 0 22470
0.14350000 0.14350900 10829.60223137 0 51.86860250 0 3434.97470734 0 57.91539002 0 923.41699559 0 22519
0.14450000 0.14449900 10629.48528808 0 216.40486751 0 3061.65302359 0 -278.28426023 0 761.07599741 0 22218
0.14550000 0.14550500 10668.15098357 0 236.92734446 0 3466.86292154 0 124.22892515 0 -281.57084435 0 23559
0.14650000 0.14650700 10441.09986831 0 143.52003152 0 2937.71409115 0 -84.02198429 0 613.97060140 0 23044
0.14750000 0.14750500 10106.89424752 0 -86.41760972 0 2887.92102364 0 551.53099548 0 71.82054075 0 23649
0.14850000 0.14849900 9989.18356774 0 81.80683538 0 3073.94476031 0 -32.62000643 0 273.96732321 0 23640
0.14950000 0.14949500 9874.86712089 0 474.87295881 0 2971.42574441 0 3.68560970 0 428.58506841 0 24457
0.15050000 0.15050000 9871.30811937 0 28.53923772 0 2893.35838707 0 177.11085447 0 920.70380617 0 24591
0.15150000 0.15149900 9751.69710853 0 -80.95300455 0 2763.91618377 0 171.56803915 0 -56.12501453 0 25020
0.15250000 0.15250500 9480.91640983 0 181.71558730 0 2646.29338057 0 199.68744650 0 740.04932858 0 25297
0.15350000 0.15350100 9559.39019635 0 8.43718429 0 2719.54949512 0 -7.21218476 0 898.61932299 0 25452
0.15450000 0.15450400 9292.80560437 0 75.72885168 0 2577.88146253 0 -97.03101359 0 861.16302895 0 26061
0.15550000 0.15549900 9301.65916987 0 125.97107836 0 2916.66765009 0 329.68217380 0 632.58066427 0 26128
0.15650000 0.15649500 9161.71571519 0 74.82339336 0 2592.32617548 0 -133.61414396 0 1056.64228569 0 26331
0.15750000 0.15749700 9273.11026573 0 270.90262746 0 3146.73952280 0 -376.50830826 0 365.84778057 0 27345
0.15850000 0.15849900 8820.07353876 0 142.67531789 0 3152.28673196 0 -295.78597973 0 858.77058904 0 26980
0.15950000 0.15949700 8733.47116853 0 -56.41094295 0 3306.01582523 0 330.79051717 0 617.83717095 0 27777
0.16050000 0.16050000 8768.74263109 0 41.41711123 0 3289.91244183 0 152.29121273 0 592.21895078 0 28224
0.16150000 0.16150500 8764.86507697 0 216.09620102 0 3210.43905920 0 341.47301401 0 822.89936882 0 28075
0.16250000 0.16249700 8622.07661798 0 38.77092769 0 3014.21065461 0 113.51127768 0 1077.73156659 0 28590
0.16350000 0.16349900 8679.70168575 0 -66.59166451 0 2804.42728745 0 304.19027621 0 1176.88710637 0 29163
0.16450000 0.16449100 8619.46228971 0 -86.02359310 0 2773.11027102 0 25.02615171 0 1062.45312458 0 28996
0.16550000 0.16550500 8618.12217185 0 79.88662225 0 2362.44104050 0 -130.91633294 0 774.22562925 0 30777
0.16650000 0.16650700 8607.73076619 0 160.84599785 0 2403.67712597 0 123.12497561 0 527.07714000 0 29211
0.16750000 0.16749900 8609.07088405 0 22.20135903 0 2434.85134295 0 -0.34067114 0 223.77112188 0 30922
0.16850000 0.16850800 8529.54257856 0 -95.50108233 0 2298.07144517 0 -16.27452305 0 163.81183245 0 30867
0.16950000 0.16949900 8535.90264608 0 -10.25048458 0 2140.92614982 0 268.03235864 0 -369.57923987 0 30852
0.17050000 0.17049200 8452.80435450 0 176.28151924 0 1879.94368986 0 -246.79588447 0 1.77580994 0 31257
0.17150000 0.17149500 8236.83667298 0 187.73513307 0 1988.58111269 0 67.01907423 0 -144.91287532 0 32608
0.17250000 0.17250900 8147.46619046 0 77.43200966 0 2022.20488936 0 197.78162316 0 -278.53910232 0 32361
0.17350000 0.17350400 8135.70171323 0 -21.72133321 0 2004.55268122 0 313.61503948 0 -64.31972537 0 32508
0.17450000 0.17449800 7986.50924843 0 106.88670165 0 1881.85500549 0 -154.09378109 0 191.43693403 0 32791
0.17550000 0.17549800 7881.37590425 0 146.48037383 0 1769.71350401 0 35.41931491 0 123.50614028 0 33633
0.17650000 0.17650100 7742.58582969 0 60.58892514 0 2067.35148267 0 -98.75548164 0 -19.50343816 0 33984
0.17750000 0.17750300 7784.29425178 0 38.44611388 0 2046.98608511 0 129.33125912 0 186.87504104 0 34069
0.17850000 0.17849800 7821.30127680 0 -2.22812169 0 1780.12687881 0 124.93962700 0 -265.63662336 0 34536
