### header ###
fiducial parameters:
Omega_m = 0.31
Omega_nu = 0
Omega_de = 0.69
Omega_k = 0
H_0 = 100
w_de = -1
zeff = 0
beta = 0
fgrowth = 0
b_1 = 2
gamma = 0.55
Lx = 3500 Ly = 3500 Lz = 3500
nx = 700 ny = 700 nz = 700
xoffset = -983.599254 yoffset = -42.9823471 zoffset = 800.977702
bins = 400 dk = 0.001
kx_ny = 0.628318531 ky_ny = 0.628318531 kz_ny = 0.628318531
############################
A(data) = 9.06503658 (not used)
A(ran) = 9.05131698 (used)
Ngal = 502170
weighted Ngal = 0
Nran = 25229228
weighted Nran = 0
SN(data) = 6750.09632
SN(ran) = 134.360565
SN(data+ran) = 6884.45688
############################
13 columns: k_central k_mean P_0(k) sigma^{lin}_{P_0(k)} P^img_1(k) sigma^{lin}_{P_1(k)} P_2(k) sigma^{lin}_{P_2(k)} P^img_3(k) sigma^{lin}_{P_3(k)} P_4(k) sigma^{lin}_{P_4(k)} N_modes
### header ###
0.00050000 0 0 0 0 0 0 0 0 0 0 0 0
0.00150000 0.00179520 19039.66950097 0 -10125.28242202 0 -9830.32467907 0 16271.66705620 0 54519.17986435 0 3
0.00250000 0.00253879 13803.32375144 0 -2963.71457445 0 -649.77701265 0 15016.24025587 0 -31762.88023049 0 6
0.00350000 0.00331552 28083.81733582 0 -20551.03684244 0 -17884.97123122 0 7145.13492699 0 1102.45564255 0 7
0.00450000 0.00420575 35517.29729306 0 -15034.69433781 0 -17959.44663332 0 -20121.75974596 0 -13305.94230496 0 24
0.00550000 0.00557378 31505.73138636 0 7430.88759812 0 -9236.39982417 0 -3898.30397882 0 21934.54375906 0 45
0.00650000 0.00659388 43306.56755622 0 -20843.44616455 0 -41962.93463807 0 -857.76220527 0 -26272.02193425 0 40
0.00750000 0.00754703 62097.65617967 0 -11173.94661265 0 -16469.60905411 0 -20294.10768976 0 -42321.69077858 0 57
0.00850000 0.00846663 58420.90004524 0 16768.60911978 0 -2825.05631476 0 -22923.70452001 0 -2410.77315985 0 75
0.00950000 0.00948925 54457.99579507 0 -4576.59035115 0 6113.00251810 0 -14990.53635603 0 -17775.45504258 0 112
0.01050000 0.01054430 52054.68116000 0 2745.44013269 0 21891.26454308 0 -8971.63867124 0 -14457.89443156 0 105
0.01150000 0.01145670 59318.44947087 0 1048.64551685 0 23055.95877388 0 -8360.05062363 0 -36054.66258374 0 144
0.01250000 0.01249090 57436.02326760 0 -575.41365319 0 28850.97988490 0 -5424.44557041 0 -17378.69228094 0 169
0.01350000 0.01339930 62167.84759847 0 -5078.64024098 0 9339.00671665 0 11233.04361313 0 -28634.03457642 0 180
0.01450000 0.01448870 65135.98895567 0 -6029.40992075 0 20923.85323585 0 4196.28247923 0 -17323.76941804 0 267
0.01550000 0.01550050 77237.58272281 0 2618.15090562 0 17659.89733903 0 -6379.72990952 0 -28584.38430835 0 238
0.01650000 0.01653350 76213.05163815 0 -499.52673351 0 17949.12113509 0 1344.74235998 0 -10239.58788430 0 315
0.01750000 0.01747870 77362.80685024 0 -5431.68440374 0 5027.99037680 0 2087.54112708 0 -32939.54764540 0 297
0.01850000 0.01844180 73168.89703868 0 7037.12362479 0 18604.35088957 0 -8869.61396110 0 -16064.71770876 0 388
0.01950000 0.01947590 72897.02886729 0 6337.25256735 0 17364.85171949 0 -5392.29372646 0 -4407.72451685 0 399
0.02050000 0.02045430 65624.03351546 0 -1756.18051059 0 16935.35493156 0 7787.08433321 0 -21689.58779049 0 462
0.02150000 0.02154770 71199.03363767 0 -6014.48188662 0 10015.65638766 0 9021.12417072 0 -9200.69996328 0 571
0.02250000 0.02255340 67424.07542437 0 4204.88339957 0 5042.51198176 0 3627.96266302 0 -10413.28693053 0 510
0.02350000 0.02348930 66470.39483285 0 2095.02162100 0 10273.05787696 0 -5936.44748300 0 4670.95881419 0 555
0.02450000 0.02439640 67100.03053322 0 2251.81541003 0 7771.68396245 0 -1331.23133571 0 -10158.21417062 0 592
0.02550000 0.02547300 64465.38079958 0 21.65564546 0 12069.95819811 0 -3435.38113652 0 -8933.75288041 0 837
0.02650000 0.02652900 61608.95254553 0 2933.38616956 0 12121.91522642 0 -8251.11661734 0 -15687.50748632 0 723
0.02750000 0.02749970 59869.32578582 0 687.58810839 0 17498.64381353 0 4574.26162176 0 -9958.07525819 0 826
0.02850000 0.02848090 63664.27592122 0 624.74866402 0 14362.87787874 0 -524.76928130 0 -17622.00056362 0 831
0.02950000 0.02946900 58595.66459501 0 2419.87937052 0 20982.18131625 0 -6175.31799835 0 -12345.12174127 0 996
0.03050000 0.03053250 54058.92627319 0 2587.88840816 0 18065.33791300 0 -854.42179675 0 -9952.45115703 0 1041
0.03150000 0.03150510 53809.02724697 0 678.74113363 0 24294.68902388 0 7496.65223416 0 -5154.30197692 0 1036
0.03250000 0.03246190 52856.00572981 0 -956.45309763 0 17175.36784246 0 3523.75202294 0 -10303.95747963 0 1059
0.03350000 0.03345080 52910.26951836 0 1389.39464752 0 17465.14086716 0 3398.49494180 0 -1997.58846221 0 1302
0.03450000 0.03451200 52085.76750041 0 1904.47224044 0 12084.12829674 0 2039.09916199 0 -3292.50480096 0 1339
0.03550000 0.03553350 49748.03076365 0 -1142.25274902 0 14392.31653325 0 -1199.69107904 0 769.89770765 0 1365
0.03650000 0.03647120 48945.60773658 0 1639.34859661 0 13882.96190266 0 3313.75994890 0 -648.32155678 0 1308
0.03750000 0.03744890 47004.96329863 0 1044.41535795 0 14056.73784089 0 -173.87150402 0 1921.77294225 0 1579
0.03850000 0.03847530 46819.65355919 0 2324.72001825 0 14155.04976550 0 -2993.12027525 0 -3200.14651470 0 1662
0.03950000 0.03950240 46059.85067373 0 529.21144245 0 14218.32090356 0 3422.59509404 0 -1889.30254570 0 1683
0.04050000 0.04050350 44862.64210809 0 -1600.97948459 0 13640.64223151 0 3199.60827064 0 3181.72538648 0 1822
0.04150000 0.04152450 44388.32826403 0 371.23681187 0 10034.68166737 0 4085.67881791 0 -948.23883426 0 1887
0.04250000 0.04250150 47666.56410521 0 998.44272478 0 8825.00561185 0 -2069.21886001 0 3617.25270475 0 1920
0.04350000 0.04349210 43374.12267760 0 1297.53066703 0 13485.10068376 0 -5241.73917466 0 -4938.66383257 0 2005
0.04450000 0.04448520 39594.22140663 0 2773.31897790 0 16391.06936015 0 -2605.01335681 0 1862.55511147 0 2151
0.04550000 0.04548030 40585.35939064 0 2078.70953072 0 17264.89210900 0 1874.20974297 0 -1996.58886610 0 2274
0.04650000 0.04648670 40257.25020764 0 -2311.38474714 0 18056.33056349 0 1013.35098669 0 -2977.24756787 0 2311
0.04750000 0.04749250 39770.52379656 0 730.74869097 0 15527.24257236 0 3824.99294141 0 -254.60921095 0 2568
0.04850000 0.04851840 40453.10513676 0 452.88733679 0 15733.53284544 0 -105.91676389 0 1282.50377173 0 2493
0.04950000 0.04949480 37573.60928029 0 1441.45053699 0 16955.01731648 0 -1701.05992537 0 4070.21253972 0 2644
0.05050000 0.05050630 36517.22293514 0 1691.41547065 0 19521.01347148 0 -1040.93874073 0 3157.84492568 0 2829
0.05150000 0.05149060 34857.01463520 0 918.86059489 0 19934.36293772 0 857.35577609 0 4803.98198815 0 2784
0.05250000 0.05249300 35315.95007765 0 186.36096304 0 20002.35744200 0 1950.46464583 0 3823.20245608 0 3055
0.05350000 0.05348950 34814.06495641 0 -660.38481439 0 17671.43114024 0 3018.19805446 0 2847.51976569 0 3009
0.05450000 0.05448610 35062.53598820 0 314.92879436 0 18385.75789520 0 1684.60503565 0 1468.75818442 0 3336
0.05550000 0.05550870 33809.63563957 0 1668.63346711 0 15163.87291137 0 -896.92660036 0 5373.26844675 0 3349
0.05650000 0.05647670 33404.96398567 0 -489.85481735 0 17046.18926891 0 986.51457742 0 3475.70550247 0 3324
0.05750000 0.05747970 33188.89744300 0 633.61211564 0 14915.07234240 0 700.47081511 0 373.83136792 0 3639
0.05850000 0.05849280 32217.20215245 0 30.81370331 0 15670.81093600 0 548.44872441 0 1072.89396082 0 3846
0.05950000 0.05951020 31973.34464114 0 490.04704737 0 12810.75777299 0 1869.62917621 0 1527.73435461 0 3787
0.06050000 0.06049470 31818.79170493 0 -378.87768056 0 13733.68156128 0 468.18664948 0 483.21903705 0 3930
0.06150000 0.06148310 31964.44713735 0 267.26014319 0 10967.15104923 0 511.88877149 0 -2815.49973661 0 4083
0.06250000 0.06249100 31614.47865491 0 422.56332572 0 13925.25250709 0 81.27089808 0 -392.85335226 0 4303
0.06350000 0.06350600 31397.42350070 0 214.26946660 0 12489.67871644 0 -296.00347426 0 -1726.00588971 0 4470
0.06450000 0.06451750 30890.15593890 0 397.14941859 0 13783.66136652 0 64.97682250 0 534.27972424 0 4479
0.06550000 0.06550280 31110.61631061 0 65.13115574 0 12477.48584087 0 -94.17930871 0 -2622.98411755 0 4636
0.06650000 0.06648880 31352.49659885 0 -329.31968290 0 12037.11432609 0 2238.11764802 0 -1504.53493732 0 4653
0.06750000 0.06749660 31439.27472224 0 -457.99845841 0 11945.94237366 0 -764.71958014 0 -1493.57233389 0 5220
0.06850000 0.06852730 30475.92770686 0 1308.80083849 0 11457.45843097 0 551.29153180 0 -1830.05176120 0 5029
0.06950000 0.06949320 30560.06953283 0 48.39341327 0 11194.37791765 0 842.18827827 0 -812.34539148 0 5040
0.07050000 0.07048030 30324.56029669 0 176.07061545 0 10353.45396368 0 1399.90688348 0 -4609.00582483 0 5475
0.07150000 0.07148790 30012.92797255 0 573.64623546 0 11878.38725229 0 -277.31871630 0 -1598.05758828 0 5509
0.07250000 0.07249820 28305.81554769 0 946.01775368 0 9779.85056806 0 -1564.33495045 0 -1426.45659541 0 5916
0.07350000 0.07351270 27376.96009021 0 705.40838049 0 12367.96965224 0 33.92958717 0 -1824.94393495 0 5721
0.07450000 0.07449140 26940.87255873 0 763.53873859 0 11302.57595757 0 115.99049572 0 -2331.99180530 0 6028
0.07550000 0.07549160 26380.00028272 0 -28.63524288 0 11207.77909620 0 2336.80304809 0 71.74364875 0 6183
0.07650000 0.07648840 25875.14932689 0 -135.47822593 0 11085.30111191 0 2426.99737356 0 2745.91246931 0 6330
0.07750000 0.07749960 26152.61963029 0 -89.01754820 0 9311.30362460 0 215.59200914 0 611.42986977 0 6583
0.07850000 0.07848650 25750.58427381 0 1006.68225267 0 10143.86831883 0 -618.27655386 0 2341.28475371 0 6549
0.07950000 0.07947320 25174.11390474 0 630.77699745 0 11151.09870168 0 -650.96554340 0 2479.59150708 0 6828
0.08050000 0.08048110 25105.24063466 0 -258.35495020 0 11502.60502428 0 385.08835790 0 3112.76423981 0 7147
0.08150000 0.08149960 24801.62704851 0 46.47572659 0 11023.78750546 0 1140.51718655 0 1401.36783164 0 7386
0.08250000 0.08250610 24659.15714213 0 685.97777005 0 10529.50370844 0 -665.77164878 0 3507.57174753 0 7227
0.08350000 0.08350160 23625.17932505 0 479.08773931 0 10984.56159677 0 494.90222845 0 2755.99630694 0 7798
0.08450000 0.08449610 23306.62672019 0 570.47498935 0 11109.24748014 0 1102.58745742 0 1286.98547735 0 7371
0.08550000 0.08548940 22961.27175823 0 281.03589566 0 10445.50468191 0 745.34389256 0 3025.56870266 0 8256
0.08650000 0.08650700 22509.91567087 0 301.21455550 0 9579.97528537 0 1466.26468645 0 2288.31714472 0 8037
0.08750000 0.08749060 22585.05014732 0 -12.42904388 0 9483.15726263 0 201.85470267 0 3627.83084815 0 8155
0.08850000 0.08849210 21215.38379215 0 318.10553275 0 8228.90581158 0 675.48310940 0 2855.74721055 0 8718
0.08950000 0.08949900 21054.24011239 0 341.45214332 0 7831.08853097 0 -338.08976565 0 3115.68613612 0 8571
0.09050000 0.09049190 20314.09961186 0 165.06627064 0 7612.18796857 0 306.93641935 0 1621.64146561 0 8932
0.09150000 0.09150830 20367.04525170 0 509.94560060 0 7650.30443543 0 376.98613716 0 1042.92914528 0 9285
0.09250000 0.09250820 19661.39630907 0 362.81494008 0 6963.58191136 0 798.28733549 0 1638.94216743 0 9204
0.09350000 0.09350330 19685.34267730 0 -51.73986331 0 6703.43427892 0 787.28848296 0 957.39557396 0 9349
0.09450000 0.09448040 19165.77239420 0 147.40857021 0 5690.75554807 0 110.41033284 0 -243.00181310 0 9564
0.09550000 0.09549270 18610.28255876 0 390.95961194 0 5518.61631115 0 615.60181043 0 1405.42113892 0 10155
0.09650000 0.09649430 18319.63076826 0 102.29899491 0 5177.63320908 0 -71.11983487 0 1309.48188199 0 9913
0.09750000 0.09749140 18254.05286995 0 173.37609979 0 5075.89409783 0 335.42820372 0 468.82485314 0 10476
0.09850000 0.09850240 17637.37896523 0 433.93345680 0 4454.27713545 0 -676.51785614 0 -58.50690925 0 10575
0.09950000 0.09950330 17493.59091014 0 360.00838178 0 5571.41915155 0 -191.28754385 0 -364.78227702 0 10882
0.10050000 0.10051200 17075.18854052 0 244.02118144 0 5200.16256744 0 -385.77379523 0 -177.96435576 0 10875
0.10150000 0.10150300 16591.64765549 0 424.06491679 0 5900.96731356 0 687.72431709 0 -636.39780324 0 11118
0.10250000 0.10250800 16280.34486853 0 104.41198729 0 6072.98572018 0 -145.27536622 0 -397.71951791 0 11575
0.10350000 0.10349800 15755.17245342 0 274.67582814 0 5810.03702173 0 143.08504244 0 -112.31725464 0 11364
0.10450000 0.10450100 15778.34990157 0 383.50877636 0 6106.37882083 0 82.56927456 0 108.21989923 0 12093
0.10550000 0.10551000 15508.45895324 0 2.67992814 0 5873.45095924 0 115.17104660 0 861.77157427 0 12067
0.10650000 0.10649700 15469.13418340 0 -148.67399297 0 5213.99214432 0 986.22678161 0 86.23603474 0 12054
0.10750000 0.10749900 15213.96256234 0 -135.20910390 0 4969.98084900 0 272.91170578 0 499.24772536 0 12807
0.10850000 0.10850100 15314.25171001 0 58.16254290 0 4344.23368733 0 606.95145952 0 49.48912439 0 12736
0.10950000 0.10950300 15529.21979542 0 450.02695409 0 4665.45554333 0 -311.54664447 0 769.11560609 0 12933
0.11050000 0.11050200 14938.24979055 0 169.49744722 0 4545.70173305 0 -61.35641722 0 733.72551014 0 13428
0.11150000 0.11150900 14836.42280272 0 112.30736853 0 4601.44843890 0 78.97600118 0 -244.03655984 0 13453
0.11250000 0.11250000 14983.50622958 0 89.54513723 0 4484.99000039 0 81.88098124 0 -414.66102420 0 13668
0.11350000 0.11349100 14837.19172280 0 104.57499835 0 5087.48282190 0 -732.59959145 0 -1000.28373915 0 13791
0.11450000 0.11448600 14172.18569872 0 335.16677089 0 5206.50066582 0 -320.48039735 0 -525.13067374 0 14205
0.11550000 0.11549300 13855.28077975 0 233.03221503 0 5252.76768554 0 4.75806647 0 -982.86001012 0 14776
0.11650000 0.11649800 14046.19265122 0 39.82083314 0 5489.34242522 0 163.29555754 0 -1533.62208552 0 14553
0.11750000 0.11747300 13885.26866290 0 115.04911785 0 5574.84633819 0 74.82679858 0 -1408.78241813 0 14568
0.11850000 0.11849100 13727.09081773 0 55.10696434 0 4946.22121851 0 342.01125806 0 -967.19491116 0 16015
0.11950000 0.11950300 13815.07724410 0 -195.03987384 0 4928.26144234 0 349.54887177 0 -1016.76938568 0 15270
0.12050000 0.12050700 13906.24919653 0 17.49864381 0 3959.18048007 0 504.62027981 0 -1269.53099152 0 15999
0.12150000 0.12150000 13968.75141452 0 -47.51640500 0 4049.55055869 0 237.26127547 0 -1244.13465971 0 15670
0.12250000 0.12250700 13889.99202911 0 315.96354110 0 3948.42658351 0 -210.03820924 0 -1375.91657697 0 16887
0.12350000 0.12352200 13265.51907786 0 398.28961723 0 4167.92031283 0 -293.53414235 0 -1259.57896876 0 16407
0.12450000 0.12449800 12978.38235058 0 270.45775227 0 4164.29540388 0 93.51814728 0 -1663.60253287 0 16306
0.12550000 0.12549900 12833.27614678 0 92.22746000 0 4527.40143513 0 62.83483085 0 -855.91789554 0 17523
0.12650000 0.12650100 12598.09644782 0 -16.87087549 0 4337.14863802 0 454.31203585 0 -958.50172042 0 17154
0.12750000 0.12750600 12729.91131879 0 -139.25472199 0 3862.32950362 0 463.07113403 0 -657.17182691 0 18007
0.12850000 0.12850300 12736.61190807 0 78.03363470 0 3869.53538323 0 236.59341346 0 -253.03402324 0 17496
0.12950000 0.12949900 12686.30256564 0 30.03171159 0 3534.28622805 0 261.59649757 0 197.55314405 0 18405
0.13050000 0.13049000 12558.66183225 0 305.29971804 0 3687.02670979 0 -30.79206371 0 429.78568219 0 18100
0.13150000 0.13148800 12279.76353441 0 198.34183636 0 3670.85741895 0 347.04219231 0 994.04450192 0 19059
0.13250000 0.13249300 12048.53828157 0 130.81088104 0 3855.74974464 0 480.10820610 0 1290.22592626 0 18957
0.13350000 0.13349100 12049.52689310 0 272.47561825 0 3829.27692472 0 -37.82010309 0 1296.91553096 0 19468
0.13450000 0.13450700 11558.18696154 0 57.60090170 0 3626.29300799 0 138.67034272 0 1519.18835714 0 19953
0.13550000 0.13551000 11644.52570203 0 20.04827296 0 3757.53668119 0 102.36160698 0 1517.43082553 0 19956
0.13650000 0.13649900 11689.23291244 0 -160.28358774 0 3192.62208248 0 545.93325729 0 1330.62718421 0 19723
0.13750000 0.13749600 11824.56284664 0 -137.53563638 0 2873.24563467 0 135.64958526 0 1311.44812049 0 20946
0.13850000 0.13851100 11649.24906824 0 164.45662686 0 2488.03864339 0 -88.68603380 0 805.28560668 0 20955
0.13950000 0.13949800 11455.70089936 0 301.78795019 0 2898.20258358 0 -298.72215598 0 1136.32107982 0 20506
0.14050000 0.14048300 11417.47458677 0 368.91467323 0 3024.37138425 0 -431.20928280 0 547.33269184 0 21447
0.14150000 0.14148400 11040.70374723 0 153.79500071 0 3322.61351440 0 -161.76980041 0 172.23809808 0 21771
0.14250000 0.14249400 10663.66927795 0 167.23352681 0 3773.09083597 0 -4.65876594 0 137.54991632 0 22470
0.14350000 0.14350900 10679.20146358 0 87.89075075 0 3520.17105228 0 -5.50733516 0 537.01268590 0 22519
0.14450000 0.14449900 10428.25890296 0 -101.18548879 0 3306.76277617 0 393.37621791 0 168.77136697 0 22218
0.14550000 0.14550500 10660.37390618 0 114.29447771 0 2985.12350642 0 549.01992219 0 108.22758843 0 23559
0.14650000 0.14650700 10718.46032599 0 -166.39540392 0 2789.98257451 0 -147.15482659 0 215.68427955 0 23044
0.14750000 0.14750500 10526.27424410 0 124.76497229 0 2825.05631476 0 64.24503027 0 -21.19198665 0 23649
0.14850000 0.14849900 10447.78947301 0 283.14603206 0 2685.69504242 0 6.99020852 0 -48.86772712 0 23640
0.14950000 0.14949500 10367.79981547 0 -45.23446989 0 2748.32907528 0 -225.15737494 0 -181.49369893 0 24457
0.15050000 0.15050000 10150.32724751 0 175.91463452 0 2863.49133422 0 31.23452229 0 -617.03749407 0 24591
0.15150000 0.15149900 9877.81098634 0 271.44746226 0 3070.01228332 0 -457.67111814 0 -297.66544010 0 25020
0.15250000 0.15250500 9554.42516954 0 218.15031609 0 3330.03908547 0 109.23454420 0 39.90233867 0 25297
0.15350000 0.15350100 9548.73516095 0 70.16417705 0 3384.86308722 0 253.04720473 0 -262.24898118 0 25452
0.15450000 0.15450400 9492.60399505 0 45.03356206 0 3096.99039358 0 123.43364210 0 -150.43811533 0 26061
0.15550000 0.15549900 9393.31444349 0 -32.95316852 0 2864.66668349 0 382.13350787 0 -18.66059190 0 26128
0.15650000 0.15649500 9386.00970273 0 1.47319595 0 3002.10565563 0 244.62093910 0 80.53207573 0 26331
0.15750000 0.15749700 9503.75333622 0 236.40447881 0 2775.13143238 0 -315.41980476 0 -299.00006566 0 27345
0.15850000 0.15849900 8939.45387358 0 69.29826320 0 2928.30031245 0 -289.16228246 0 -153.43580519 0 26980
0.15950000 0.15949700 8889.93542038 0 77.62764490 0 3012.58493787 0 2.63023394 0 -499.34219269 0 27777
0.16050000 0.16050000 8844.25058301 0 170.74419620 0 2901.11349531 0 39.39034774 0 -547.67321359 0 28224
0.16150000 0.16150500 9018.88331791 0 -5.85027351 0 2640.54844911 0 482.72692820 0 -292.03914202 0 28075
0.16250000 0.16249700 8837.80263891 0 -98.51513920 0 2618.13992105 0 240.10188594 0 -417.15562064 0 28590
0.16350000 0.16349900 8979.48165606 0 41.14535290 0 2150.32894395 0 -98.98220322 0 -827.10206629 0 29163
0.16450000 0.16449100 8734.44879549 0 178.36199729 0 2453.56905463 0 138.02884369 0 -659.13806540 0 28996
0.16550000 0.16550500 8719.90522139 0 262.89707096 0 2542.40129310 0 -348.64264453 0 -289.56431782 0 30777
0.16650000 0.16650700 8445.53256746 0 7.46456630 0 2711.97014004 0 -57.78730990 0 -191.30402070 0 29211
0.16750000 0.16749900 8453.88084262 0 89.85951569 0 2664.63761678 0 50.00023655 0 -840.15613234 0 30922
0.16850000 0.16850800 8310.59807787 0 -24.52272875 0 2618.07401361 0 246.98701603 0 -219.42892034 0 30867
0.16950000 0.16949900 8236.73781183 0 14.37111631 0 2542.04978677 0 557.67027310 0 95.31280675 0 30852
0.17050000 0.17049200 8282.29083432 0 57.23709266 0 2373.71121197 0 56.16357038 0 516.31665270 0 31257
0.17150000 0.17149500 8218.73409737 0 79.33245056 0 2330.84940975 0 472.63540137 0 738.07430243 0 32608
0.17250000 0.17250900 8258.22363580 0 13.12403778 0 1988.93261901 0 195.86261833 0 960.84253284 0 32361
0.17350000 0.17350400 8246.20651340 0 25.38600631 0 2044.14108081 0 -11.98405884 0 738.60266037 0 32508
0.17450000 0.17449800 8128.38598789 0 113.38275818 0 1777.50156597 0 -70.57587884 0 884.14714862 0 32791
0.17550000 0.17549800 7978.44657215 0 97.07286482 0 2046.12928844 0 -86.24943591 0 817.54768505 0 33633
0.17650000 0.17650100 7894.57936049 0 50.49421278 0 2144.14462959 0 -77.65181095 0 337.69651795 0 33984
0.17750000 0.17750300 7867.10694447 0 59.16005193 0 2037.25375380 0 -7.06759483 0 530.94590646 0 34069
0.17850000 0.17849800 7713.78428038 0 54.13570844 0 1954.08955479 0 -2.70160070 0 104.37376098 0 34536
