### header ###
fiducial parameters:
Omega_m = 0.31
Omega_nu = 0
Omega_de = 0.69
Omega_k = 0
H_0 = 100
w_de = -1
zeff = 0
beta = 0
fgrowth = 0
b_1 = 2
gamma = 0.55
Lx = 3500 Ly = 3500 Lz = 3500
nx = 700 ny = 700 nz = 700
xoffset = -983.599254 yoffset = -42.9823471 zoffset = 800.977702
bins = 400 dk = 0.001
kx_ny = 0.628318531 ky_ny = 0.628318531 kz_ny = 0.628318531
############################
A(data) = 9.02326061 (not used)
A(ran) = 9.01706105 (used)
Ngal = 500492
weighted Ngal = 0
Nran = 25229228
weighted Nran = 0
SN(data) = 6764.40432
SN(ran) = 133.852059
SN(data+ran) = 6898.25638
############################
13 columns: k_central k_mean P_0(k) sigma^{lin}_{P_0(k)} P^img_1(k) sigma^{lin}_{P_1(k)} P_2(k) sigma^{lin}_{P_2(k)} P^img_3(k) sigma^{lin}_{P_3(k)} P_4(k) sigma^{lin}_{P_4(k)} N_modes
### header ###
0.00050000 0 0 0 0 0 0 0 0 0 0 0 0
0.00150000 0.00179520 10886.54625563 0 -16769.15834840 0 445.49252252 0 -46470.78353400 0 -21310.18065353 0 3
0.00250000 0.00253879 32582.54903651 0 -28863.17276046 0 -29678.00835455 0 19901.29937425 0 -51305.97269286 0 6
0.00350000 0.00331552 69877.91909331 0 -42236.12095817 0 -43456.94635486 0 -7471.86005385 0 13402.60654367 0 7
0.00450000 0.00420575 88388.46173304 0 -12365.33335482 0 -33810.51440537 0 -59055.03942037 0 -11811.49120527 0 24
0.00550000 0.00557378 83551.40519684 0 10781.32503487 0 -19441.70485745 0 -13319.89271214 0 57715.14125689 0 45
0.00650000 0.00659388 63275.53189757 0 4536.96899784 0 -8337.36748125 0 1364.05323858 0 -11963.07830689 0 40
0.00750000 0.00754703 77413.66542129 0 -10653.79414720 0 -22904.81105517 0 12110.60111666 0 -29389.00424993 0 57
0.00850000 0.00846663 87635.13974541 0 -13869.12134120 0 -14470.85622721 0 24467.25665914 0 16808.15358107 0 75
0.00950000 0.00948925 92705.06922033 0 -606.59775629 0 -21389.04988467 0 -8375.05554977 0 11960.44200947 0 112
0.01050000 0.01054430 90617.67089269 0 11274.23576031 0 -14067.39287630 0 -37922.58915120 0 -4592.85850314 0 105
0.01150000 0.01145670 84590.43591731 0 19705.55429085 0 37194.42183478 0 -19893.61017344 0 -5461.54047202 0 144
0.01250000 0.01249090 67520.73966308 0 1126.27019591 0 36564.01721434 0 -5860.44522531 0 21071.81542852 0 169
0.01350000 0.01339930 74634.12917531 0 -7894.77708280 0 58940.25063689 0 32840.13726354 0 10385.43005447 0 180
0.01450000 0.01448870 69722.15785411 0 275.99507531 0 35788.83592727 0 18403.88243996 0 14808.74167981 0 267
0.01550000 0.01550050 84468.28747021 0 4612.07052058 0 32952.94882395 0 5356.03365237 0 26601.22957451 0 238
0.01650000 0.01653350 74166.07653762 0 4392.08248550 0 38941.40825812 0 1225.91125380 0 30919.37490196 0 315
0.01750000 0.01747870 78328.79016304 0 6088.71562812 0 56951.82330822 0 3739.37918271 0 30452.64041298 0 297
0.01850000 0.01844180 64803.26625218 0 -2641.71281380 0 38188.96503630 0 8506.10150067 0 12234.94647828 0 388
0.01950000 0.01947590 65145.10615091 0 3370.53920458 0 40451.12791370 0 10071.72164612 0 25400.28625419 0 399
0.02050000 0.02045430 68203.76038619 0 -1443.77926637 0 38434.90961639 0 3546.36925789 0 19711.92534295 0 462
0.02150000 0.02154770 62801.32789923 0 1107.90399055 0 25394.57427645 0 5646.25704454 0 3888.74740067 0 571
0.02250000 0.02255340 68440.25823387 0 3465.41295796 0 25099.63850264 0 2005.58523105 0 2357.87145830 0 510
0.02350000 0.02348930 53669.63302091 0 2362.36414849 0 21949.81231494 0 4917.00225544 0 11509.52530501 0 555
0.02450000 0.02439640 63482.15170782 0 -188.48208401 0 20417.02505694 0 5368.39129653 0 1949.68474118 0 592
0.02550000 0.02547300 52715.95242940 0 279.78694976 0 15085.22337168 0 6283.81262174 0 5343.69797736 0 837
0.02650000 0.02652900 56452.90402157 0 -401.54544454 0 12137.95270238 0 2853.31962001 0 4682.94298288 0 723
0.02750000 0.02749970 58011.28533369 0 -2196.16756533 0 2409.67470260 0 6881.45026217 0 531.73350032 0 826
0.02850000 0.02848090 57032.12053379 0 -3483.79014789 0 5037.53597038 0 5073.60930673 0 6047.36969692 0 831
0.02950000 0.02946900 58412.00254145 0 395.93013104 0 1515.94790823 0 95.83479364 0 8745.59813666 0 996
0.03050000 0.03053250 62420.93215074 0 1676.10297647 0 -1041.75159910 0 -8003.21678332 0 1731.70688288 0 1041
0.03150000 0.03150510 61110.58248751 0 21.27393156 0 9213.99129610 0 -4883.85081539 0 -3859.02314727 0 1036
0.03250000 0.03246190 54929.56349599 0 4761.50464598 0 7889.79008685 0 -8128.01251242 0 -6393.50456354 0 1059
0.03350000 0.03345080 52942.89369893 0 3963.93679999 0 17938.57594541 0 -2588.34976020 0 1612.29359434 0 1302
0.03450000 0.03451200 53724.22634664 0 -883.53750484 0 22022.74987688 0 1607.29561382 0 -4818.99789887 0 1339
0.03550000 0.03553350 50087.56390213 0 1039.33499313 0 21190.55865812 0 3701.88883649 0 -3299.71068057 0 1365
0.03650000 0.03647120 50278.14623642 0 2042.70210180 0 19937.76815522 0 -2635.94591320 0 328.45409858 0 1308
0.03750000 0.03744890 49434.31137072 0 556.94638976 0 18330.83503229 0 5032.48306699 0 1505.21598082 0 1579
0.03850000 0.03847530 47016.71679129 0 235.13795759 0 19404.68684785 0 4592.08958306 0 5290.48870778 0 1662
0.03950000 0.03950240 46802.29793451 0 964.22358428 0 15252.07902920 0 -339.72317159 0 4636.65399402 0 1683
0.04050000 0.04050350 47617.02368286 0 615.94233218 0 18973.32268258 0 2686.28820934 0 7030.24728236 0 1822
0.04150000 0.04152450 45273.24543118 0 24.03896817 0 12352.70109635 0 3455.79047238 0 10613.44781211 0 1887
0.04250000 0.04250150 45507.21682717 0 401.34113149 0 15734.19191979 0 1401.41176993 0 10399.96264399 0 1920
0.04350000 0.04349210 43436.62489558 0 2324.87380227 0 16405.01976733 0 856.53962235 0 6878.13292125 0 2005
0.04450000 0.04448520 42993.83677483 0 1886.39163397 0 15875.89290609 0 1129.22504593 0 15724.41565019 0 2151
0.04550000 0.04548030 39306.53545072 0 -286.96097412 0 16140.18172240 0 2869.25823483 0 10018.25973136 0 2274
0.04650000 0.04648670 40211.66423143 0 306.07852424 0 15027.99374854 0 -1772.49260087 0 10328.61784508 0 2311
0.04750000 0.04749250 37557.79149577 0 2586.58124402 0 13096.02712293 0 2769.19976318 0 14067.28303057 0 2568
0.04850000 0.04851840 38747.75024351 0 -1853.13034819 0 11436.91728024 0 2378.45654732 0 11374.41506226 0 2493
0.04950000 0.04949480 38632.63192286 0 305.05915590 0 11119.90251555 0 3241.48146132 0 6258.57007395 0 2644
0.05050000 0.05050630 37499.24372392 0 440.05515910 0 7623.91949209 0 -1151.34797511 0 7482.24047494 0 2829
0.05150000 0.05149060 35163.81374740 0 909.99934019 0 11874.65249761 0 -3199.08101115 0 4135.17530196 0 2784
0.05250000 0.05249300 34742.88492608 0 2092.96750593 0 10579.40662168 0 -2297.76387714 0 2016.89934081 0 3055
0.05350000 0.05348950 33299.51208889 0 -117.81723014 0 11650.23767977 0 882.41268460 0 1367.74405497 0 3009
0.05450000 0.05448610 33233.82434485 0 297.11071918 0 11967.25244447 0 -11.73877333 0 -1677.01469599 0 3336
0.05550000 0.05550870 33058.29087500 0 1662.64687506 0 12563.38519846 0 188.63367111 0 -527.73511590 0 3349
0.05650000 0.05647670 32479.51374569 0 -290.97144156 0 12656.75406540 0 872.46285876 0 -428.85089506 0 3324
0.05750000 0.05747970 31751.89565790 0 -804.57820021 0 11080.57774570 0 625.25285590 0 1197.29644222 0 3639
0.05850000 0.05849280 31983.88983082 0 376.01290403 0 11236.11929346 0 1865.04860944 0 -248.70170781 0 3846
0.05950000 0.05951020 32322.98358641 0 344.31362448 0 10392.40525806 0 133.57240259 0 1306.54900112 0 3787
0.06050000 0.06049470 32536.30398594 0 -204.77769743 0 10705.95988239 0 494.62651568 0 814.16114133 0 3930
0.06150000 0.06148310 32444.58280488 0 542.62799940 0 10308.01078691 0 69.95525048 0 -972.82670152 0 4083
0.06250000 0.06249100 31196.51566819 0 179.72408429 0 11256.00136983 0 -1187.52017262 0 1926.59516961 0 4303
0.06350000 0.06350600 30516.79031686 0 748.76448846 0 11954.62018600 0 110.37188684 0 804.21461086 0 4470
0.06450000 0.06451750 30441.10661177 0 457.30643033 0 12220.55668820 0 1342.83104435 0 -295.01815810 0 4479
0.06550000 0.06550280 29896.93088609 0 795.37752221 0 10801.61354043 0 -531.11836425 0 355.61784812 0 4636
0.06650000 0.06648880 29345.94472541 0 243.97065240 0 12431.57032748 0 1626.85913759 0 1317.70932686 0 4653
0.06750000 0.06749660 29310.13501880 0 14.17064786 0 11903.76161495 0 425.36439173 0 727.86194530 0 5220
0.06850000 0.06852730 27679.91460200 0 -100.79246078 0 9792.51578024 0 798.06105330 0 -903.34818149 0 5029
0.06950000 0.06949320 28800.78038820 0 508.81528808 0 9855.79790288 0 337.00448988 0 1469.52710450 0 5040
0.07050000 0.07048030 28573.72927294 0 735.65110572 0 9432.34262987 0 -443.78002766 0 -1042.11628691 0 5475
0.07150000 0.07148790 26853.65505243 0 -503.19338384 0 9070.07142614 0 357.35341059 0 1238.78517286 0 5509
0.07250000 0.07249820 27378.27823892 0 -91.19578895 0 9234.63130798 0 147.37891187 0 -4127.05770283 0 5916
0.07350000 0.07351270 27135.29949342 0 1796.23026222 0 10297.88301099 0 -1459.98151093 0 -523.51704003 0 5721
0.07450000 0.07449140 26309.80886393 0 619.98355644 0 10088.53902674 0 -494.31784919 0 -1304.78048493 0 6028
0.07550000 0.07549160 27257.88732343 0 -1222.17649912 0 11511.72221952 0 2671.55789751 0 -1377.63017029 0 6183
0.07650000 0.07648840 26241.92420538 0 -195.52539195 0 10063.91161501 0 525.11199996 0 -613.38402523 0 6330
0.07750000 0.07749960 26480.72881330 0 476.62609659 0 8758.96636149 0 1580.65802531 0 2080.02767943 0 6583
0.07850000 0.07848650 26492.92168886 0 670.21051456 0 10190.57472145 0 4.65974357 0 986.14659423 0 6549
0.07950000 0.07947320 25736.52402091 0 883.87473122 0 9637.89693659 0 -372.50443155 0 881.53501726 0 6828
0.08050000 0.08048110 24927.94963320 0 -54.26719377 0 9493.90017462 0 784.08538160 0 3701.32862329 0 7147
0.08150000 0.08149960 24501.96790849 0 -42.48953505 0 9641.46692268 0 245.82374980 0 2774.84583349 0 7386
0.08250000 0.08250610 23866.29069321 0 655.40440918 0 8491.42611170 0 679.61221024 0 2476.40598103 0 7227
0.08350000 0.08350160 23538.29135593 0 755.32337675 0 9460.35328996 0 389.99077264 0 2066.14317969 0 7798
0.08450000 0.08449610 22688.52482104 0 293.08487333 0 8002.37097123 0 -452.65995613 0 1015.21946248 0 7371
0.08550000 0.08548940 22631.62473507 0 415.38271062 0 8705.02112555 0 231.65584808 0 333.59378009 0 8256
0.08650000 0.08650700 21951.89938373 0 86.39849656 0 7545.23699869 0 -172.55115839 0 380.10575578 0 8037
0.08750000 0.08749060 21234.38710272 0 158.10205162 0 8299.31692183 0 1109.43084614 0 998.98646112 0 8155
0.08850000 0.08849210 21173.75226207 0 93.38160905 0 6900.51948017 0 839.00385068 0 241.58919707 0 8718
0.08950000 0.08949900 20841.90832439 0 365.26010593 0 6831.15190432 0 1017.50535204 0 659.50055630 0 8571
0.09050000 0.09049190 20526.32155413 0 446.35151610 0 6863.98479177 0 -645.72809919 0 417.24020184 0 8932
0.09150000 0.09150830 20219.96182483 0 305.73141174 0 6511.43493477 0 431.73654228 0 1049.84832755 0 9285
0.09250000 0.09250820 20153.39531499 0 -371.23241804 0 5966.17173640 0 1020.41626377 0 1534.30312902 0 9204
0.09350000 0.09350330 19445.54945785 0 270.36218649 0 5520.01135187 0 634.68750529 0 569.16672676 0 9349
0.09450000 0.09448040 19666.66890391 0 767.43496648 0 6114.88088001 0 -1005.94958168 0 1288.09491918 0 9564
0.09550000 0.09549270 18748.02909893 0 527.50114450 0 5532.10536628 0 123.65992429 0 1274.52897204 0 10155
0.09650000 0.09649430 18422.00698472 0 -414.69068255 0 5648.22328304 0 962.68135029 0 1279.54892171 0 9913
0.09750000 0.09749140 18586.33619054 0 171.04297658 0 4982.05289427 0 810.13749239 0 653.58646242 0 10476
0.09850000 0.09850240 18193.96725793 0 91.80850841 0 5097.05038462 0 110.57180606 0 2236.23928611 0 10575
0.09950000 0.09950330 17905.29269049 0 234.76887595 0 4886.90452657 0 94.11373081 0 1204.12884637 0 10882
0.10050000 0.10051200 17516.32897539 0 554.84064720 0 5238.14721943 0 -309.66388873 0 1410.56191889 0 10875
0.10150000 0.10150300 17015.54231140 0 492.57349906 0 5376.58578767 0 -5.32711127 0 2167.24518573 0 11118
0.10250000 0.10250800 16509.26336113 0 266.18475353 0 5348.55315844 0 466.53456976 0 2187.23710782 0 11575
0.10350000 0.10349800 16448.62852048 0 0.12408942 0 5235.15941569 0 968.49548455 0 2045.11870777 0 11364
0.10450000 0.10450100 16254.31143152 0 99.71443483 0 5096.45721770 0 187.32980234 0 1836.67545846 0 12093
0.10550000 0.10551000 15646.64487632 0 399.34523465 0 4904.65559586 0 -385.95504068 0 2579.12271924 0 12067
0.10650000 0.10649700 15589.63494462 0 173.14871914 0 5501.39250134 0 -281.48186931 0 1427.84065156 0 12054
0.10750000 0.10749900 15391.25356380 0 310.95347755 0 5296.14576266 0 -285.97455950 0 1556.50295020 0 12807
0.10850000 0.10850100 15144.21052645 0 18.15167665 0 5517.17733214 0 -357.10735616 0 1134.31090304 0 12736
0.10950000 0.10950300 14912.76558216 0 233.84067957 0 5652.79286523 0 41.07054796 0 562.40462388 0 12933
0.11050000 0.11050200 15170.57350064 0 88.62616788 0 5921.38763399 0 432.55928677 0 416.56574909 0 13428
0.11150000 0.11150900 15016.78948450 0 -134.19852323 0 5301.01192831 0 223.34052664 0 976.97886996 0 13453
0.11250000 0.11250000 14939.89747643 0 -113.62551724 0 4905.24876278 0 286.73249501 0 768.33020915 0 13668
0.11350000 0.11349100 15111.03711725 0 22.05943835 0 4728.35320593 0 395.22382302 0 592.82310227 0 13791
0.11450000 0.11448600 15476.49384703 0 -115.73785055 0 4670.09103296 0 139.77648918 0 76.75272369 0 14205
0.11550000 0.11549300 14930.78028119 0 435.29114997 0 4188.85690817 0 118.94534574 0 575.84644535 0 14776
0.11650000 0.11649800 14740.41763836 0 75.36229649 0 4480.02497358 0 -89.17144207 0 536.40853441 0 14553
0.11750000 0.11747300 14568.83861464 0 239.16490190 0 4801.97181137 0 -283.63155017 0 -125.44601579 0 14568
0.11850000 0.11849100 14077.38883735 0 404.41791027 0 4536.55158409 0 127.78243438 0 -301.38811174 0 16015
0.11950000 0.11950300 13774.98355418 0 27.92926440 0 4826.18180934 0 142.56327525 0 660.98017822 0 15270
0.12050000 0.12050700 13742.35937362 0 76.82203634 0 4610.99403247 0 311.54115218 0 -438.02301317 0 15999
0.12150000 0.12150000 13643.05883748 0 226.29208129 0 4412.36000648 0 0.92298201 0 826.90873781 0 15670
0.12250000 0.12250700 13464.99891594 0 -15.74935063 0 4020.48537964 0 587.23305328 0 23.84596923 0 16887
0.12350000 0.12352200 13437.31779303 0 166.87213437 0 4331.66733630 0 -387.58075742 0 312.89115615 0 16407
0.12450000 0.12449800 13323.62746681 0 183.83780672 0 4079.64828757 0 456.23653297 0 257.31690809 0 16306
0.12550000 0.12549900 13133.92389833 0 1.41933859 0 4050.55015480 0 133.47244298 0 843.20435123 0 17523
0.12650000 0.12650100 12957.73135413 0 -134.93229267 0 3985.49951597 0 -118.07317068 0 -286.55344647 0 17154
0.12750000 0.12750600 12939.93634655 0 390.23902398 0 3861.69239841 0 -243.17646781 0 188.09103322 0 18007
0.12850000 0.12850300 12552.29078015 0 239.93711735 0 4026.94430832 0 30.04939675 0 -33.67760108 0 17496
0.12950000 0.12949900 12579.86205733 0 84.41545168 0 4389.22649663 0 470.33413342 0 519.66365196 0 18405
0.13050000 0.13049000 12338.20146054 0 -38.94316579 0 4030.53626355 0 156.36868607 0 -120.71386193 0 18100
0.13150000 0.13148800 12484.51596733 0 127.51880464 0 3860.08865081 0 -59.50463798 0 100.18160870 0 19059
0.13250000 0.13249300 12095.44240649 0 134.87956673 0 3780.84594421 0 -237.97417423 0 284.24888314 0 18957
0.13350000 0.13349100 12026.78882786 0 -12.54515081 0 3809.98801527 0 383.42968744 0 145.28415388 0 19468
0.13450000 0.13450700 12096.76055520 0 131.03386787 0 4173.31373797 0 425.84222063 0 365.01295305 0 19953
0.13550000 0.13551000 12364.23489756 0 208.81233094 0 3643.79143211 0 -233.17062064 0 -45.15109698 0 19956
0.13650000 0.13649900 11691.21013550 0 91.75171817 0 3684.75290327 0 206.20239650 0 332.47005832 0 19723
0.13750000 0.13749600 11637.82511276 0 -24.87181847 0 3674.58118906 0 276.74971544 0 586.70359689 0 20946
0.13850000 0.13851100 11708.56576018 0 22.38414231 0 3615.82471032 0 24.33115780 0 549.20556146 0 20955
0.13950000 0.13949800 11601.46617751 0 205.29067697 0 3493.86300095 0 41.44204621 0 358.58258426 0 20506
0.14050000 0.14048300 11349.58992822 0 245.87098346 0 3522.02744505 0 -156.45766111 0 158.83032878 0 21447
0.14150000 0.14148400 11214.04030257 0 120.45901984 0 3278.65325493 0 344.88701917 0 585.19541507 0 21771
0.14250000 0.14249400 11069.92271030 0 -38.33670754 0 3298.72206904 0 235.74869983 0 193.47567070 0 22470
0.14350000 0.14350900 10950.09200801 0 36.08069602 0 2944.32680385 0 57.42075471 0 -241.54416032 0 22519
0.14450000 0.14449900 10770.88969092 0 438.16910798 0 3179.70422512 0 -209.85696379 0 -226.19431860 0 22218
0.14550000 0.14550500 10540.34548158 0 65.92753726 0 2878.47429122 0 -97.77708576 0 159.16755516 0 23559
0.14650000 0.14650700 10302.29880917 0 82.46173560 0 3240.97617098 0 283.27235464 0 -479.01194576 0 23044
0.14750000 0.14750500 10087.60533807 0 181.41570847 0 3037.88240852 0 -330.14132893 0 -480.56077049 0 23649
0.14850000 0.14849900 10017.20521239 0 183.51815566 0 3017.79162527 0 209.18910178 0 -356.12753229 0 23640
0.14950000 0.14949500 9911.51165502 0 -65.00197717 0 3080.55747300 0 192.86602693 0 6.85395588 0 24457
0.15050000 0.15050000 9854.68846105 0 110.08189412 0 2811.72104365 0 135.40902312 0 -324.25249957 0 24591
0.15150000 0.15149900 9807.02640062 0 114.12641375 0 2847.79438000 0 -19.29824634 0 -370.14384690 0 25020
0.15250000 0.15250500 9589.67466296 0 106.50586652 0 2951.25806915 0 -41.85671382 0 125.63165507 0 25297
0.15350000 0.15350100 9724.49930682 0 142.79175436 0 3230.14538241 0 95.33993865 0 -161.65226548 0 25452
0.15450000 0.15450400 9384.20823282 0 39.34915559 0 3085.78612955 0 255.55058882 0 163.44494772 0 26061
0.15550000 0.15549900 9411.53784940 0 60.51587773 0 3074.13149804 0 -147.50743137 0 419.42942716 0 26128
0.15650000 0.15649500 9144.15138363 0 207.46562234 0 3233.86915252 0 -143.63756645 0 -184.67702807 0 26331
0.15750000 0.15749700 9102.17933180 0 193.22851782 0 3359.35690969 0 -140.91998319 0 487.73479484 0 27345
0.15850000 0.15849900 8860.93614876 0 0.42873885 0 3295.11912923 0 454.96671637 0 93.22826441 0 26980
0.15950000 0.15949700 8947.35178126 0 -89.28919668 0 3301.99547167 0 350.68357812 0 539.43368570 0 27777
0.16050000 0.16050000 9023.20025494 0 41.45270124 0 2698.59093063 0 310.49871624 0 109.87428570 0 28224
0.16150000 0.16150500 8964.50968363 0 41.43798191 0 2373.48053594 0 -47.97973427 0 307.59329679 0 28075
0.16250000 0.16249700 8814.87783593 0 95.48877960 0 2343.82218997 0 178.70361750 0 719.68502947 0 28590
0.16350000 0.16349900 8739.30397657 0 133.20991169 0 2280.52908276 0 67.23360294 0 180.26782063 0 29163
0.16450000 0.16449100 8327.98665626 0 126.28413868 0 2161.31351653 0 115.53683287 0 508.71203310 0 28996
0.16550000 0.16550500 8342.10183203 0 74.24944944 0 2130.42489843 0 68.43377734 0 533.66898201 0 30777
0.16650000 0.16650700 8229.52094764 0 47.24124145 0 2049.54549052 0 201.38236605 0 665.17958032 0 29211
0.16750000 0.16749900 8285.23469978 0 168.69227805 0 2003.60800798 0 179.57579256 0 452.26011769 0 30922
0.16850000 0.16850800 8198.98383587 0 8.09625611 0 1970.08309246 0 -198.75046246 0 369.55177844 0 30867
0.16950000 0.16949900 8148.61957058 0 66.38339702 0 2319.84286803 0 -342.70218768 0 -36.91651215 0 30852
0.17050000 0.17049200 7892.97561290 0 146.94502125 0 2530.54893928 0 -441.74238944 0 78.98467899 0 31257
0.17150000 0.17149500 7810.74510255 0 161.20958720 0 2681.68567343 0 20.74117979 0 279.31790851 0 32608
0.17250000 0.17250900 7844.69841640 0 -22.11007723 0 2538.22715552 0 354.70942397 0 -181.22128153 0 32361
0.17350000 0.17350400 7886.63751452 0 14.87146359 0 2699.92006391 0 12.30228191 0 -3.39433179 0 32508
0.17450000 0.17449800 7777.35200191 0 161.63798553 0 2629.78356798 0 173.77593824 0 220.77782586 0 32791
0.17550000 0.17549800 7695.94533451 0 12.13333918 0 2370.10827216 0 186.21706514 0 462.88549475 0 33633
0.17650000 0.17650100 7649.76619137 0 -11.21557814 0 2344.09680429 0 173.85502716 0 417.10728852 0 33984
0.17750000 0.17750300 7607.94792356 0 69.34154241 0 2161.30253196 0 72.28288141 0 329.22741249 0 34069
0.17850000 0.17849800 7419.10115174 0 69.61011521 0 2042.53733321 0 135.42000770 0 853.51447106 0 34536
