### header ###
fiducial parameters:
Omega_m = 0.31
Omega_nu = 0
Omega_de = 0.69
Omega_k = 0
H_0 = 100
w_de = -1
zeff = 0
beta = 0
fgrowth = 0
b_1 = 2
gamma = 0.55
Lx = 3500 Ly = 3500 Lz = 3500
nx = 700 ny = 700 nz = 700
xoffset = -983.599254 yoffset = -42.9823471 zoffset = 800.977702
bins = 400 dk = 0.001
kx_ny = 0.628318531 ky_ny = 0.628318531 kz_ny = 0.628318531
############################
A(data) = 9.04354562 (not used)
A(ran) = 9.04210385 (used)
Ngal = 502584
weighted Ngal = 0
Nran = 25229228
weighted Nran = 0
SN(data) = 6739.83608
SN(ran) = 134.223802
SN(data+ran) = 6874.05988
############################
13 columns: k_central k_mean P_0(k) sigma^{lin}_{P_0(k)} P^img_1(k) sigma^{lin}_{P_1(k)} P_2(k) sigma^{lin}_{P_2(k)} P^img_3(k) sigma^{lin}_{P_3(k)} P_4(k) sigma^{lin}_{P_4(k)} N_modes
### header ###
0.00050000 0 0 0 0 0 0 0 0 0 0 0 0
0.00150000 0.00179520 65840.53944104 0 -57722.94030343 0 9237.95963347 0 -113412.41653059 0 7077.61275933 0 3
0.00250000 0.00253879 51177.78273083 0 3285.28793677 0 -29311.01378460 0 61.79448198 0 -11152.96607902 0 6
0.00350000 0.00331552 83538.33355547 0 -2054.18098015 0 -2375.24905213 0 -12911.70599501 0 91536.09100622 0 7
0.00450000 0.00420575 54402.08432063 0 524.59682351 0 -6322.12681090 0 -19735.87171117 0 -53.56000699 0 24
0.00550000 0.00557378 86245.15193096 0 -15411.46517735 0 -16174.34374312 0 2773.89017568 0 -6614.11871926 0 45
0.00650000 0.00659388 97859.79959557 0 -12714.97230008 0 -60022.99995623 0 21273.93156401 0 -9866.72755260 0 40
0.00750000 0.00754703 103001.12879227 0 -3527.13527130 0 -3061.75188474 0 -32581.23088780 0 16458.95401871 0 57
0.00850000 0.00846663 93260.44921004 0 16349.65752152 0 -22081.62718592 0 -5242.83763192 0 2828.91189974 0 75
0.00950000 0.00948925 92858.96308219 0 -4255.78590891 0 14818.29825796 0 -21816.02022090 0 8341.24503537 0 112
0.01050000 0.01054430 81923.82107746 0 6091.27503353 0 -6291.40296139 0 29488.19494034 0 17521.16218732 0 105
0.01150000 0.01145670 87801.11663711 0 -1207.05074267 0 32480.06297432 0 -20451.29692340 0 -9773.47951596 0 144
0.01250000 0.01249090 86719.79531220 0 3343.03383483 0 -2860.83306766 0 2572.30129966 0 -1054.73975772 0 169
0.01350000 0.01339930 98884.11098878 0 5567.75030431 0 41892.30383637 0 12506.70480394 0 -749.71355554 0 180
0.01450000 0.01448870 83849.41665097 0 -564.52135101 0 16076.25150997 0 -12917.63766421 0 2521.32189831 0 267
0.01550000 0.01550050 77816.68938930 0 9605.94281495 0 35057.26339336 0 13545.51583296 0 7575.25783555 0 238
0.01650000 0.01653350 84089.10002470 0 -5266.15787951 0 17587.28931426 0 7722.90147562 0 3849.65330686 0 315
0.01750000 0.01747870 78628.11976588 0 -6811.48951940 0 15345.33805041 0 3818.72075047 0 -6360.45198464 0 297
0.01850000 0.01844180 78157.65052222 0 6881.81275307 0 7729.89864835 0 -5580.75603824 0 -7423.48399620 0 388
0.01950000 0.01947590 74760.23206854 0 7215.44717608 0 19205.75623840 0 -6674.13842384 0 11283.79233846 0 399
0.02050000 0.02045430 71486.60974785 0 660.19148591 0 19366.13099809 0 5197.66906947 0 -3785.54734127 0 462
0.02150000 0.02154770 71812.08263343 0 -629.36218451 0 26907.80899526 0 3345.30764136 0 700.99258231 0 571
0.02250000 0.02255340 66110.21069791 0 2963.00057724 0 23568.16939335 0 -5507.07152537 0 -135.50239199 0 510
0.02350000 0.02348930 73164.17367247 0 5906.74519874 0 35028.26412174 0 475.67702952 0 101.06729479 0 555
0.02450000 0.02439640 65657.09707893 0 -892.96556348 0 40259.55696788 0 199.89285801 0 13362.62269948 0 592
0.02550000 0.02547300 69672.50758604 0 1170.79066858 0 40498.58126725 0 -1577.04410093 0 -2198.60614045 0 837
0.02650000 0.02652900 66018.81905403 0 1198.80132866 0 51041.02480220 0 -5792.92305765 0 10302.34274746 0 723
0.02750000 0.02749970 62260.11800815 0 3092.36588853 0 49569.64130492 0 2888.31646826 0 684.12467265 0 826
0.02850000 0.02848090 64453.40761547 0 -2395.20802051 0 51007.63170155 0 6265.32558608 0 5338.41439795 0 831
0.02950000 0.02946900 62729.59864028 0 2238.40324691 0 38211.59325582 0 5918.27899995 0 -4866.17663811 0 996
0.03050000 0.03053250 62073.59996572 0 1358.93442776 0 39379.03362976 0 5307.60267186 0 3284.73870814 0 1041
0.03150000 0.03150510 60403.17601327 0 1520.70422816 0 37919.84300805 0 4416.49020577 0 1017.23623001 0 1036
0.03250000 0.03246190 58977.70802939 0 1893.75129760 0 31948.73919856 0 9323.39763901 0 3368.30933634 0 1059
0.03350000 0.03345080 57073.75206387 0 591.48737824 0 26935.38027244 0 4274.71232747 0 4903.97455236 0 1302
0.03450000 0.03451200 53720.38174624 0 917.24696117 0 24153.53726621 0 3126.06655721 0 4545.81157877 0 1339
0.03550000 0.03553350 54328.81722152 0 962.69453177 0 21696.83760839 0 5009.02001996 0 7434.73219852 0 1365
0.03650000 0.03647120 51816.20608926 0 -1030.41222482 0 17060.24952181 0 494.97362817 0 3103.09781594 0 1308
0.03750000 0.03744890 51890.35195418 0 1799.63547972 0 20933.95904262 0 -2912.16397533 0 -753.81519494 0 1579
0.03850000 0.03847530 47482.79220592 0 4437.94307602 0 21353.45986950 0 -1190.83751354 0 3936.14583136 0 1662
0.03950000 0.03950240 47207.95819994 0 -1371.17124161 0 20165.25865338 0 6281.29715462 0 4705.12083492 0 1683
0.04050000 0.04050350 46516.91873884 0 115.51596218 0 20680.76464462 0 2446.00068412 0 -1809.46667218 0 1822
0.04150000 0.04152450 43960.03977908 0 3681.56737722 0 15845.79517722 0 -659.15564072 0 498.84019772 0 1887
0.04250000 0.04250150 41495.65092046 0 460.72812469 0 16785.85489873 0 4861.60705591 0 5951.79293089 0 1920
0.04350000 0.04349210 40765.94576388 0 -1423.17220821 0 11437.68620032 0 3897.74376562 0 5317.76340150 0 2005
0.04450000 0.04448520 40979.59570059 0 277.60431519 0 13687.21681926 0 3871.75426689 0 2160.07225983 0 2151
0.04550000 0.04548030 41859.78950153 0 1887.13858490 0 8925.55838926 0 -3969.44007086 0 -861.96600120 0 2274
0.04650000 0.04648670 37607.55160957 0 643.45978496 0 9872.97777440 0 -1805.46828776 0 4856.76285941 0 2311
0.04750000 0.04749250 38729.62569875 0 -321.28886189 0 11837.74433374 0 2176.51616499 0 2062.41940958 0 2568
0.04850000 0.04851840 39356.95463887 0 29.41097340 0 9556.40239261 0 2960.71578614 0 1088.12846454 0 2493
0.04950000 0.04949480 38026.94259072 0 1155.74180415 0 12245.93105086 0 -2796.40854947 0 1995.07299509 0 2644
0.05050000 0.05050630 37319.64596221 0 2416.25446157 0 13466.53675610 0 -909.58632026 0 1915.57764332 0 2829
0.05150000 0.05149060 35357.25207055 0 721.54691452 0 15674.32599922 0 1023.46777804 0 5546.41826435 0 2784
0.05250000 0.05249300 34192.55783975 0 214.41556142 0 15384.11359162 0 2604.47511275 0 6159.35741439 0 3055
0.05350000 0.05348950 34185.52771330 0 -282.04427943 0 14130.22463146 0 2875.31073432 0 7935.78249225 0 3009
0.05450000 0.05448610 34656.65603132 0 -442.40475917 0 12012.17934633 0 2754.45846678 0 5148.22750828 0 3336
0.05550000 0.05550870 34951.92134230 0 -176.45837086 0 10809.88492358 0 -573.00034259 0 7789.66570777 0 3349
0.05650000 0.05647670 33559.73661334 0 70.34300590 0 10877.02263120 0 752.39708662 0 5573.92363410 0 3324
0.05750000 0.05747970 34329.42561412 0 912.14572567 0 10681.14573293 0 -2337.71476762 0 807.04643367 0 3639
0.05850000 0.05849280 32923.40032371 0 2182.01943585 0 12874.24860251 0 -2462.56541958 0 923.74433586 0 3846
0.05950000 0.05951020 31540.33278999 0 351.30860030 0 13789.81272717 0 -437.61658398 0 74.85140402 0 3787
0.06050000 0.06049470 31372.48852095 0 -980.52908382 0 12233.73817529 0 2261.64660249 0 -2109.35648822 0 3930
0.06150000 0.06148310 31431.69536716 0 259.93672865 0 12195.73155416 0 -100.20006278 0 -3715.37789162 0 4083
0.06250000 0.06249100 31292.19129538 0 524.43095646 0 12545.80988233 0 684.60689539 0 -660.02122504 0 4303
0.06350000 0.06350600 30877.74337188 0 -711.31478516 0 10079.48773893 0 2051.61059016 0 -885.02811134 0 4470
0.06450000 0.06451750 32331.55155302 0 245.56671080 0 10278.81379299 0 1876.52748779 0 -1243.06915617 0 4479
0.06550000 0.06550280 32013.10879389 0 669.72389800 0 9191.95624350 0 -1355.84776286 0 -1884.18373488 0 4636
0.06650000 0.06648880 30730.55009929 0 660.25959026 0 9957.14156952 0 -1377.86084631 0 -1252.48293487 0 4653
0.06750000 0.06749660 29078.14084588 0 754.51271530 0 11319.38235362 0 -1307.13118346 0 -2444.62761255 0 5220
0.06850000 0.06852730 28211.12853203 0 873.40423663 0 11848.50921487 0 240.09639365 0 -1133.31130693 0 5029
0.06950000 0.06949320 28422.69139995 0 -763.48491418 0 11415.27767226 0 2871.70779451 0 131.37988190 0 5040
0.07050000 0.07048030 27986.93340565 0 -314.79697949 0 9591.76173175 0 2590.44781357 0 -1577.39560725 0 5475
0.07150000 0.07148790 29022.22937144 0 872.25854571 0 9043.06036216 0 -176.36060817 0 -1361.96616979 0 5509
0.07250000 0.07249820 28168.28869897 0 1274.99032409 0 9212.76102397 0 -1553.81172992 0 -1084.55628153 0 5916
0.07350000 0.07351270 26842.89017130 0 620.84804230 0 10158.48878494 0 -583.29508401 0 388.13877370 0 5721
0.07450000 0.07449140 26086.38265763 0 -213.53350024 0 11331.13584628 0 -62.66588812 0 -282.88350077 0 6028
0.07550000 0.07549160 25617.45125413 0 388.44414482 0 9567.71650237 0 1212.09266149 0 -1911.78796577 0 6183
0.07650000 0.07648840 25775.29956212 0 -335.03495602 0 10230.94302568 0 1820.24253788 0 786.90731830 0 6330
0.07750000 0.07749960 25418.74033613 0 1107.98088256 0 9008.73357285 0 -33.07751388 0 -637.11619429 0 6583
0.07850000 0.07848650 25131.27407168 0 312.57589892 0 10000.62949237 0 -848.15180272 0 1512.09232326 0 6549
0.07950000 0.07947320 23591.23699577 0 280.72832763 0 8864.36333541 0 820.51022428 0 -73.85158822 0 6828
0.08050000 0.08048110 23944.17131281 0 -39.86015791 0 9001.86821498 0 1323.44327375 0 1913.50155910 0 7147
0.08150000 0.08149960 23691.52614344 0 69.35109899 0 7555.51855863 0 1374.22495279 0 -29.84651170 0 7386
0.08250000 0.08250610 23119.88898631 0 428.83661512 0 7626.62169694 0 -671.87357885 0 89.35730103 0 7227
0.08350000 0.08350160 22559.01671030 0 637.10850509 0 7881.00242878 0 -494.52545761 0 -406.15896502 0 7798
0.08450000 0.08449610 21731.43901203 0 486.39138162 0 8373.03438842 0 -880.87813981 0 -1159.64132741 0 7371
0.08550000 0.08548940 21503.50913096 0 603.95047430 0 7736.76400622 0 16.02374525 0 -682.54948494 0 8256
0.08650000 0.08650700 20867.39253278 0 -229.35458013 0 7253.35493606 0 1622.71795372 0 -1823.84547769 0 8037
0.08750000 0.08749060 20696.14304623 0 -23.02014907 0 7417.35460470 0 864.33757042 0 -308.66758799 0 8155
0.08850000 0.08849210 20861.46086358 0 610.84768742 0 6770.31934137 0 -410.00576234 0 -864.31010899 0 8718
0.08950000 0.08949900 20301.35750766 0 664.30520834 0 7616.62573590 0 -223.00000489 0 -327.58412044 0 8571
0.09050000 0.09049190 19912.72332973 0 180.00419089 0 6780.09561096 0 563.15157481 0 -210.16123646 0 8932
0.09150000 0.09150830 19774.31771521 0 -566.58205683 0 7070.31900313 0 868.03168218 0 596.97746762 0 9285
0.09250000 0.09250820 19305.93554034 0 351.52389792 0 6803.39388941 0 752.07853401 0 1262.97320169 0 9204
0.09350000 0.09350330 19301.76140276 0 622.42762383 0 7131.95343989 0 -210.90599048 0 2155.59055422 0 9349
0.09450000 0.09448040 18537.01545965 0 287.38388016 0 6519.86010194 0 790.00167239 0 2543.07135202 0 9564
0.09550000 0.09549270 18644.66427094 0 52.34038989 0 6861.86476926 0 696.87336759 0 2538.57866184 0 10155
0.09650000 0.09649430 17868.71406380 0 33.68133583 0 6839.31344175 0 471.21619459 0 3065.65140801 0 9913
0.09750000 0.09749140 17966.58660550 0 383.92289475 0 6343.16226740 0 -249.17294598 0 2331.20091608 0 10476
0.09850000 0.09850240 17506.88224297 0 323.77906449 0 6245.64123202 0 -208.06867538 0 2586.31761428 0 10575
0.09950000 0.09950330 17572.24044983 0 347.68588826 0 6533.71164796 0 -413.11769175 0 978.46068880 0 10882
0.10050000 0.10051200 17345.07948884 0 133.33074199 0 6563.72150026 0 -41.44896649 0 744.67932592 0 10875
0.10150000 0.10150300 16722.69360639 0 -110.04784195 0 5810.75101895 0 305.00313458 0 120.53481339 0 11118
0.10250000 0.10250800 16634.81702573 0 -52.62258356 0 6797.35237449 0 -103.58473913 0 -109.93360239 0 11575
0.10350000 0.10349800 16213.99805014 0 534.46646198 0 5934.94259655 0 -245.00649760 0 -452.87305684 0 11364
0.10450000 0.10450100 16300.66632781 0 495.69201922 0 6040.32858590 0 291.92819784 0 -206.35178668 0 12093
0.10550000 0.10551000 15503.18635840 0 80.76725543 0 5683.80231363 0 554.22770805 0 -120.49087510 0 12067
0.10650000 0.10649700 15608.19887228 0 275.76110391 0 5868.60676274 0 669.01319615 0 -92.41386820 0 12054
0.10750000 0.10749900 15471.66063510 0 -157.18703672 0 5464.81387465 0 693.93169905 0 1177.85374875 0 12807
0.10850000 0.10850100 15322.70983089 0 15.52592442 0 4742.36952054 0 142.00745587 0 138.60113992 0 12736
0.10950000 0.10950300 14924.29938337 0 479.90389305 0 4763.56974563 0 -292.93877851 0 911.33835958 0 12933
0.11050000 0.11050200 14623.21224891 0 185.39432066 0 5262.81856945 0 -72.83749248 0 682.77576714 0 13428
0.11150000 0.11150900 14514.46498036 0 50.29473294 0 4962.01703388 0 281.94761519 0 905.07935013 0 13453
0.11250000 0.11250000 14767.43968691 0 -65.99135762 0 5151.23728117 0 599.97405902 0 1019.32769263 0 13668
0.11350000 0.11349100 14528.96461617 0 51.63375234 0 4852.86333614 0 -129.55973823 0 412.73323171 0 13791
0.11450000 0.11448600 14525.12001576 0 111.47363947 0 4705.06591206 0 592.50674658 0 936.37988970 0 14205
0.11550000 0.11549300 14420.65673051 0 181.67274747 0 4694.64155268 0 -258.24180910 0 739.88126462 0 14776
0.11650000 0.11649800 14528.30554181 0 -143.54529604 0 4253.18256521 0 546.64395914 0 1179.06205174 0 14553
0.11750000 0.11747300 14444.93263592 0 10.03787818 0 4435.02117972 0 29.81926996 0 99.05645893 0 14568
0.11850000 0.11849100 14307.40578720 0 221.64450863 0 4098.38796839 0 -204.83811258 0 600.25416562 0 16015
0.11950000 0.11950300 13837.59561790 0 181.23336456 0 3930.44483819 0 -74.68894219 0 577.68306588 0 15270
0.12050000 0.12050700 13954.91085306 0 100.09526996 0 4422.21316809 0 140.21147826 0 -212.44932292 0 15999
0.12150000 0.12150000 13688.75465942 0 350.64732903 0 4478.57501000 0 -364.39122624 0 -13.05373652 0 15670
0.12250000 0.12250700 13175.99481132 0 131.08110153 0 4565.49593284 0 346.06786072 0 88.73700222 0 16887
0.12350000 0.12352200 13201.14948253 0 1.84987891 0 4533.61870321 0 -6.91003212 0 27.96672179 0 16407
0.12450000 0.12449800 13274.85596455 0 41.75719359 0 3783.89965539 0 164.94544034 0 -977.74010084 0 16306
0.12550000 0.12549900 12965.53040066 0 97.39427341 0 4276.62364309 0 245.53485554 0 -166.39869929 0 17523
0.12650000 0.12650100 12998.37427268 0 176.81097564 0 3579.23509905 0 186.22695126 0 -174.53826757 0 17154
0.12750000 0.12750600 12987.93892873 0 -32.44666987 0 3803.41924086 0 196.59199395 0 -256.93794034 0 18007
0.12850000 0.12850300 12932.46683719 0 69.93437980 0 3343.70389376 0 320.27278893 0 8.01481649 0 17496
0.12950000 0.12949900 12772.53146041 0 -15.42530574 0 3526.05878318 0 -93.75925865 0 -214.18927922 0 18405
0.13050000 0.13049000 12356.54569675 0 367.70087796 0 3702.04262051 0 -483.68917676 0 267.62043717 0 18100
0.13150000 0.13148800 12359.51153135 0 202.13261236 0 3840.37134303 0 648.20512031 0 -103.48005616 0 19059
0.13250000 0.13249300 12530.21178926 0 -95.36948715 0 3598.64483880 0 223.27681612 0 987.30326973 0 18957
0.13350000 0.13349100 12453.20993547 0 32.95931988 0 3842.22773579 0 172.15681224 0 143.53431146 0 19468
0.13450000 0.13450700 12169.80796287 0 119.49896820 0 3709.53409901 0 -445.96485914 0 407.71767587 0 19953
0.13550000 0.13551000 12126.41890117 0 177.35581044 0 3542.92010210 0 207.22506020 0 1106.00365950 0 19956
0.13650000 0.13649900 12218.68931086 0 25.33536743 0 4093.54377188 0 36.88608488 0 793.91767252 0 19723
0.13750000 0.13749600 11901.67454616 0 44.06691967 0 3671.46157044 0 428.13140556 0 614.20017897 0 20946
0.13850000 0.13851100 12090.27965738 0 216.96178534 0 3932.47698412 0 181.15317718 0 986.52775890 0 20955
0.13950000 0.13949800 11695.71381026 0 178.18294876 0 3650.16248421 0 -232.21606128 0 1633.93320233 0 20506
0.14050000 0.14048300 11523.91509509 0 169.30082337 0 4304.53544202 0 -252.00257187 0 656.32711328 0 21447
0.14150000 0.14148400 11397.81220185 0 142.66323486 0 3902.60993127 0 439.35873719 0 1206.51249862 0 21771
0.14250000 0.14249400 11188.44624845 0 -84.51046823 0 3896.01918772 0 357.94328214 0 1593.53194438 0 22470
0.14350000 0.14350900 11148.90178716 0 102.23198902 0 3458.83319899 0 190.66471858 0 1334.30701603 0 22519
0.14450000 0.14449900 11256.55059846 0 60.14525825 0 3541.64589168 0 246.89035180 0 1149.87604239 0 22218
0.14550000 0.14550500 10998.74267997 0 273.92228646 0 3518.01807605 0 -203.55291759 0 1268.53139541 0 23559
0.14650000 0.14650700 10705.70723722 0 151.75516558 0 3682.80863392 0 -134.09966207 0 1007.29299491 0 23044
0.14750000 0.14750500 10534.65547298 0 134.38196559 0 3508.57134363 0 -168.19357845 0 640.83117674 0 23649
0.14850000 0.14849900 10457.59869633 0 182.08466894 0 3714.57601782 0 -63.93603425 0 502.29264888 0 23640
0.14950000 0.14949500 10192.68375938 0 52.36169996 0 3379.88707584 0 187.98448287 0 206.26830393 0 24457
0.15050000 0.15050000 9958.59153310 0 202.64559190 0 3516.93060337 0 154.85391351 0 268.28720073 0 24591
0.15150000 0.15149900 9906.15118360 0 91.75819906 0 3260.51772560 0 -54.85882285 0 -0.80056554 0 25020
0.15250000 0.15250500 9674.82706961 0 -94.57431394 0 2806.82192428 0 626.61604136 0 439.38949400 0 25297
0.15350000 0.15350100 9870.64904501 0 31.16652779 0 3090.05912829 0 76.15670078 0 21.21318688 0 25452
0.15450000 0.15450400 9550.73435316 0 337.49330336 0 2782.12860511 0 -8.91445299 0 283.92044442 0 26061
0.15550000 0.15549900 9471.89807574 0 46.75418551 0 2758.36897462 0 35.77664305 0 361.42319473 0 26128
0.15650000 0.15649500 9466.43874317 0 41.20302191 0 2750.40515950 0 228.79326847 0 289.52477336 0 26331
0.15750000 0.15749700 9385.52638153 0 -64.82666339 0 2616.97555635 0 176.43200789 0 552.44820729 0 27345
0.15850000 0.15849900 9203.89647390 0 3.66924269 0 2138.37772898 0 264.64691337 0 325.00604125 0 26980
0.15950000 0.15949700 9154.57574301 0 246.20711138 0 2573.50960265 0 78.94777083 0 469.92331040 0 27777
0.16050000 0.16050000 9075.16826782 0 227.40152312 0 2362.50694793 0 -419.80619800 0 322.54220162 0 28224
0.16150000 0.16150500 8679.36116400 0 284.69375833 0 2863.41444221 0 -297.64786478 0 383.49889025 0 28075
0.16250000 0.16249700 8504.98107427 0 159.58936275 0 2799.92361269 0 -148.57842719 0 92.85347080 0 28590
0.16350000 0.16349900 8344.03511680 0 90.06415828 0 3049.71279319 0 140.32132398 0 -86.69892462 0 29163
0.16450000 0.16449100 8267.19803160 0 -36.95155294 0 2808.91997764 0 169.06465506 0 67.46372973 0 28996
0.16550000 0.16550500 8278.68789452 0 72.80047447 0 2673.89761147 0 449.61063878 0 129.38068969 0 30777
0.16650000 0.16650700 8244.20732119 0 -95.52074471 0 2180.17402765 0 205.27749549 0 425.60165849 0 29211
0.16750000 0.16749900 8428.16595820 0 -72.46797146 0 2193.65209821 0 235.06985324 0 197.54325793 0 30922
0.16850000 0.16850800 8380.75654294 0 13.64130131 0 1821.75840890 0 242.71291884 0 388.89231538 0 30867
0.16950000 0.16949900 8425.37587677 0 -54.89979530 0 1876.71422552 0 -51.26873499 0 281.16551362 0 30852
0.17050000 0.17049200 8288.73877843 0 201.57349761 0 1901.56132870 0 -389.06147780 0 48.02839593 0 31257
0.17150000 0.17149500 8150.80550053 0 287.81118003 0 2338.48368770 0 -211.70456890 0 250.00008429 0 32608
0.17250000 0.17250900 8014.45400107 0 2.24259935 0 2307.01288725 0 -83.62115723 0 306.23120979 0 32361
0.17350000 0.17350400 8104.69226483 0 -76.16625736 0 2453.50314720 0 589.38712797 0 300.94323655 0 32508
0.17450000 0.17449800 8090.24755189 0 51.41329197 0 2331.51946868 0 215.90397100 0 494.72537683 0 32791
0.17550000 0.17549800 8231.10272610 0 42.20898906 0 2082.94957574 0 59.39314456 0 668.59578239 0 33633
0.17650000 0.17650100 7952.33624313 0 82.22018485 0 2338.30793454 0 -241.93960493 0 637.11729275 0 33984
0.17750000 0.17750300 7802.23205880 0 204.62720879 0 2375.29299042 0 -108.54119797 0 750.60001054 0 34069
0.17850000 0.17849800 7799.79348369 0 64.75086984 0 2481.79940617 0 -29.56267034 0 655.58785154 0 34536
