### header ###
fiducial parameters:
Omega_m = 0.31
Omega_nu = 0
Omega_de = 0.69
Omega_k = 0
H_0 = 100
w_de = -1
zeff = 0
beta = 0
fgrowth = 0
b_1 = 2
gamma = 0.55
Lx = 3500 Ly = 3500 Lz = 3500
nx = 700 ny = 700 nz = 700
xoffset = -983.599254 yoffset = -42.9823471 zoffset = 800.977702
bins = 400 dk = 0.001
kx_ny = 0.628318531 ky_ny = 0.628318531 kz_ny = 0.628318531
############################
A(data) = 9.01563303 (not used)
A(ran) = 9.0183305 (used)
Ngal = 501023
weighted Ngal = 0
Nran = 25229228
weighted Nran = 0
SN(data) = 6741.40618
SN(ran) = 133.870903
SN(data+ran) = 6875.27708
############################
13 columns: k_central k_mean P_0(k) sigma^{lin}_{P_0(k)} P^img_1(k) sigma^{lin}_{P_1(k)} P_2(k) sigma^{lin}_{P_2(k)} P^img_3(k) sigma^{lin}_{P_3(k)} P_4(k) sigma^{lin}_{P_4(k)} N_modes
### header ###
0.00050000 0 0 0 0 0 0 0 0 0 0 0 0
0.00150000 0.00179520 25932.48879576 0 -21588.63956847 0 -5165.23162663 0 -1096.79309539 0 -17481.06849740 0 3
0.00250000 0.00253879 23792.91374837 0 8754.05625755 0 7927.01680333 0 4564.57322874 0 33169.89413243 0 6
0.00350000 0.00331552 45067.83392391 0 -4082.27360041 0 6641.17372153 0 -83735.17709613 0 -59675.66777121 0 7
0.00450000 0.00420575 57342.54455493 0 -18018.76332526 0 -20285.21018597 0 15338.85715259 0 15406.63196541 0 24
0.00550000 0.00557378 67294.67715936 0 -16892.51509849 0 -11530.06645573 0 -4214.97822177 0 -1345.37946519 0 45
0.00650000 0.00659388 90066.13550338 0 -8518.05271564 0 -24114.98141645 0 -22011.10622995 0 15360.60660630 0 40
0.00750000 0.00754703 88434.37724643 0 16127.21992675 0 2869.64269487 0 -17478.43219998 0 -27179.01809229 0 57
0.00850000 0.00846663 90069.98010379 0 11027.74195159 0 17501.28011095 0 -14518.63911794 0 8524.57755175 0 75
0.00950000 0.00948925 78385.25086611 0 -8866.42843506 0 26483.47495644 0 10698.63317248 0 -4657.79929624 0 112
0.01050000 0.01054430 81103.27350564 0 7366.72670967 0 26588.48747032 0 6353.09232101 0 4618.91390930 0 105
0.01150000 0.01145670 84969.84305427 0 1482.07148639 0 20471.39869122 0 -9533.60940450 0 5813.14565577 0 144
0.01250000 0.01249090 78658.21749476 0 2814.22552619 0 26766.87692904 0 8614.47529376 0 6870.14713698 0 169
0.01350000 0.01339930 79517.65045352 0 -3645.87850090 0 34568.44991349 0 21273.16264393 0 -1618.67563101 0 180
0.01450000 0.01448870 83466.05506788 0 5131.39914308 0 33744.71681561 0 -15893.90760512 0 -6572.62998862 0 267
0.01550000 0.01550050 81738.40149229 0 11717.02388107 0 48784.35421108 0 -7341.48416188 0 15100.27223612 0 238
0.01650000 0.01653350 75309.57054333 0 -3935.89318619 0 49852.82358607 0 9815.19892262 0 835.76999251 0 315
0.01750000 0.01747870 80274.37765865 0 -8325.00983709 0 40523.29655556 0 20157.67929830 0 6562.06282980 0 297
0.01850000 0.01844180 85937.47405296 0 -1839.55341648 0 27451.21580086 0 14153.40207961 0 -5042.21539830 0 388
0.01950000 0.01947590 85409.66534043 0 2598.85101159 0 39438.35032170 0 -2663.12174577 0 18933.66837556 0 399
0.02050000 0.02045430 79609.59132603 0 10208.16102215 0 32306.28703609 0 -4534.98079021 0 14102.76320001 0 462
0.02150000 0.02154770 79228.53650318 0 -181.04333146 0 32590.78746594 0 11880.91370398 0 6522.06800103 0 571
0.02250000 0.02255340 73006.87459311 0 -2180.09713565 0 34130.27531322 0 7907.31048012 0 8868.69125701 0 510
0.02350000 0.02348930 76650.34747261 0 4402.39699915 0 22232.33552174 0 584.12222233 0 -5651.88114571 0 555
0.02450000 0.02439640 66818.05655505 0 3284.84855387 0 31048.22393834 0 -5116.71276954 0 14257.97521058 0 592
0.02550000 0.02547300 67627.39986285 0 1449.33746010 0 26469.30485781 0 212.15823175 0 -12259.55192086 0 837
0.02650000 0.02652900 65424.77336884 0 163.09453986 0 25846.36974672 0 -2728.52389092 0 -6295.53316068 0 723
0.02750000 0.02749970 67740.65080616 0 1152.69907754 0 24996.38352038 0 5396.41294118 0 -18896.43067451 0 826
0.02850000 0.02848090 62617.44615422 0 4966.32298633 0 27386.51666835 0 -9816.11064215 0 -3470.57570708 0 831
0.02950000 0.02946900 55608.08054434 0 1309.50385114 0 26574.53706314 0 4509.34279780 0 -7836.39407953 0 996
0.03050000 0.03053250 55039.40922180 0 -2933.53995357 0 19061.08941750 0 11704.72115978 0 -1802.07405483 0 1041
0.03150000 0.03150510 61165.72504187 0 -966.85329095 0 15377.08346517 0 14899.58409506 0 -3112.36879520 0 1036
0.03250000 0.03246190 59643.26328210 0 2848.13490175 0 10573.57381364 0 1992.10716049 0 4720.29052965 0 1059
0.03350000 0.03345080 56831.98162135 0 2436.71872029 0 12402.46121014 0 -5342.54459724 0 12387.41234571 0 1302
0.03450000 0.03451200 54140.54164747 0 1436.54043304 0 14799.73433030 0 -2055.37829856 0 3688.44371965 0 1339
0.03550000 0.03553350 50999.39327211 0 1629.73709560 0 19946.88535046 0 -4298.30718937 0 -356.50320467 0 1365
0.03650000 0.03647120 47219.27230969 0 2318.34896616 0 19448.18575527 0 -594.44662210 0 4438.51427380 0 1308
0.03750000 0.03744890 48035.20636104 0 79.34211698 0 22609.65558990 0 3003.44577348 0 792.77088314 0 1579
0.03850000 0.03847530 50853.29845678 0 473.40761682 0 18171.55872986 0 2700.41436968 0 -3319.29617349 0 1662
0.03950000 0.03950240 48191.40698314 0 -516.82853378 0 20483.92110396 0 90.63865143 0 -1770.52636238 0 1683
0.04050000 0.04050350 46037.44214567 0 1444.86673906 0 18475.94123609 0 -3733.73311241 0 -1740.15401919 0 1822
0.04150000 0.04152450 44327.25404048 0 4321.52857581 0 26612.21414709 0 -2666.97733074 0 -2603.61831609 0 1887
0.04250000 0.04250150 41339.45029835 0 1964.25028442 0 26496.43675209 0 -773.53140426 0 -1791.60575716 0 1920
0.04350000 0.04349210 42298.18379325 0 -1860.02865977 0 22167.19700633 0 8640.12427073 0 -3785.79998644 0 2005
0.04450000 0.04448520 43983.54676441 0 -992.88233414 0 21755.38538025 0 3762.99601376 0 -5593.25648184 0 2151
0.04550000 0.04548030 41994.35051565 0 1576.04450483 0 18530.42471610 0 -96.22859057 0 2338.94503975 0 2274
0.04650000 0.04648670 40257.57974482 0 595.69556800 0 18656.63745506 0 800.40186571 0 2680.66410818 0 2311
0.04750000 0.04749250 39251.28305064 0 -87.40479326 0 15234.83325024 0 2164.34525856 0 -208.46411999 0 2568
0.04850000 0.04851840 40414.76897846 0 519.59554761 0 18774.83145603 0 1762.20005636 0 -2684.87119948 0 2493
0.04950000 0.04949480 38262.56167259 0 1211.15897282 0 16179.72618369 0 -1649.66311027 0 171.09350561 0 2644
0.05050000 0.05050630 36258.20671368 0 2182.12928157 0 17235.01407158 0 -590.96890642 0 -1201.90996271 0 2829
0.05150000 0.05149060 37008.23332953 0 -617.24180712 0 15735.07068560 0 1404.77304914 0 -4422.00446121 0 2784
0.05250000 0.05249300 35619.12428089 0 89.49076359 0 16507.61567524 0 1441.99976562 0 -4131.03411810 0 3055
0.05350000 0.05348950 35440.07574782 0 627.00379677 0 14217.99136639 0 1670.99515022 0 1352.16793105 0 3009
0.05450000 0.05448610 34386.65523727 0 874.74325603 0 14641.88602230 0 -734.54825463 0 -4080.87855969 0 3336
0.05550000 0.05550870 33434.07310301 0 1361.94420064 0 14167.90171542 0 -852.41381688 0 -1413.23117003 0 3349
0.05650000 0.05647670 32707.88300966 0 -243.84872365 0 14825.10869296 0 3303.54429640 0 -3483.37273413 0 3324
0.05750000 0.05747970 31952.91333614 0 -526.85195626 0 13927.88880451 0 2971.06325351 0 1951.18962762 0 3639
0.05850000 0.05849280 32631.75992167 0 1221.41856361 0 12304.47882272 0 -418.15192137 0 166.67331361 0 3846
0.05950000 0.05951020 30818.97590857 0 416.44272187 0 11991.74804133 0 -705.01073896 0 -105.94971761 0 3787
0.06050000 0.06049470 31634.58042274 0 29.90099518 0 11649.46875969 0 2085.81654918 0 -1624.33268589 0 3930
0.06150000 0.06148310 30898.61405979 0 136.53494181 0 11945.50299076 0 289.30398345 0 1564.53267276 0 4083
0.06250000 0.06249100 30368.93796991 0 853.59685535 0 12844.15087364 0 -578.10157810 0 946.61421597 0 4303
0.06350000 0.06350600 29868.15130593 0 -120.23054073 0 12930.16007695 0 2005.43144703 0 1892.01573513 0 4470
0.06450000 0.06451750 29480.94512244 0 -350.63085217 0 10636.33966137 0 598.10118940 0 1263.97279779 0 4479
0.06550000 0.06550280 29867.49223158 0 319.46432438 0 10512.70829697 0 1628.68257664 0 2324.06094390 0 4636
0.06650000 0.06648880 30274.80018289 0 283.74359281 0 9540.28802463 0 2026.98317844 0 5268.68433121 0 4653
0.06750000 0.06749660 29119.77237596 0 591.74441724 0 10461.19065156 0 -333.92551419 0 5066.64508772 0 5220
0.06850000 0.06852730 29766.10462665 0 -259.27545738 0 9239.11301360 0 1933.81203380 0 4384.38230012 0 5029
0.06950000 0.06949320 29840.47018303 0 -255.31002668 0 9528.75422342 0 97.72446966 0 3336.30029184 0 5040
0.07050000 0.07048030 28280.55103075 0 838.95991239 0 8215.06525013 0 -1653.17817349 0 3577.09310740 0 5475
0.07150000 0.07148790 28110.07046429 0 845.73080293 0 10163.57464204 0 -113.43548413 0 4206.86062263 0 5509
0.07250000 0.07249820 27328.51812512 0 502.58703543 0 11466.02639758 0 -24.31599909 0 2126.06402312 0 5916
0.07350000 0.07351270 27737.25407088 0 126.12815775 0 9378.23262534 0 1524.41701369 0 807.82853523 0 5721
0.07450000 0.07449140 26687.89785218 0 -386.17363367 0 9607.16210251 0 -400.37888293 0 723.85587168 0 6028
0.07550000 0.07549160 26104.72689384 0 1343.49011871 0 10742.34078678 0 -1801.16233531 0 935.14192837 0 6183
0.07650000 0.07648840 24701.99697520 0 1247.26526289 0 9703.60664977 0 -710.31848443 0 1531.85356933 0 6330
0.07750000 0.07749960 24615.76808044 0 -903.80294279 0 10924.88241394 0 2542.93953715 0 -132.41572710 0 6583
0.07850000 0.07848650 25204.87070797 0 -217.15621228 0 9312.89638762 0 988.88614664 0 -2186.57803347 0 6549
0.07950000 0.07947320 24901.91619618 0 871.60825901 0 9139.62573973 0 -322.44993121 0 -488.72120946 0 6828
0.08050000 0.08048110 24396.07662881 0 236.67909312 0 7892.51426085 0 940.55512573 0 2088.35398545 0 7147
0.08150000 0.08149960 24502.40729140 0 -247.48242026 0 8266.40714237 0 1185.61984157 0 455.63567685 0 7386
0.08250000 0.08250610 23627.48608529 0 458.07315350 0 7582.18910085 0 -157.33203308 0 2007.63934612 0 7227
0.08350000 0.08350160 23374.73107020 0 99.69696936 0 7345.66928403 0 757.76744415 0 930.71624407 0 7798
0.08450000 0.08449610 22692.91865007 0 189.82769415 0 7577.97102498 0 -53.95094792 0 1109.68349131 0 7371
0.08550000 0.08548940 22883.50098436 0 835.73154651 0 7370.75804781 0 -1058.86336626 0 -436.87512533 0 8256
0.08650000 0.08650700 21705.95480364 0 768.11600998 0 7963.46361515 0 -804.69353822 0 -498.23494777 0 8037
0.08750000 0.08749060 21439.35922709 0 -109.90284559 0 8833.55160932 0 -339.37715756 0 -1343.91851704 0 8155
0.08850000 0.08849210 20796.10265672 0 580.22269906 0 8771.42286680 0 232.58514292 0 -2285.25244897 0 8718
0.08950000 0.08949900 20500.06842566 0 563.60084383 0 8567.88972144 0 97.33737332 0 -2271.54370239 0 8571
0.09050000 0.09049190 19970.50218151 0 145.01283493 0 8591.79215138 0 619.56394576 0 -2194.54184859 0 8932
0.09150000 0.09150830 19974.78616482 0 167.16102863 0 8143.40189861 0 608.75292943 0 -2463.66387683 0 9285
0.09250000 0.09250820 19190.81721969 0 59.28461699 0 6691.85653942 0 499.13897810 0 -1073.14990136 0 9204
0.09350000 0.09350330 19152.15152420 0 184.24862974 0 6797.61600423 0 808.16905698 0 -2294.79804254 0 9349
0.09450000 0.09448040 18560.63229070 0 405.34720511 0 5959.36130140 0 480.52452140 0 -632.58835347 0 9564
0.09550000 0.09549270 18522.51582384 0 101.65716634 0 5890.56492333 0 1290.07214224 0 -727.03151161 0 10155
0.09650000 0.09649430 17779.84887161 0 145.28964616 0 5417.78891942 0 -24.81096394 0 -276.32241557 0 9913
0.09750000 0.09749140 17806.32169153 0 350.42544066 0 4969.71721926 0 722.39602198 0 -498.06798227 0 10476
0.09850000 0.09850240 17371.55230877 0 82.74425880 0 4540.70375252 0 314.41691328 0 1082.85257433 0 10575
0.09950000 0.09950330 17181.73889456 0 205.97172047 0 4770.55593379 0 -418.07722627 0 154.90663946 0 10882
0.10050000 0.10051200 16526.61898581 0 732.44361052 0 5487.58489361 0 -271.53863421 0 924.68022144 0 10875
0.10150000 0.10150300 16365.03592314 0 380.31226574 0 5588.19259388 0 -224.70810592 0 257.76068482 0 11118
0.10250000 0.10250800 15666.52695269 0 63.95833293 0 6002.43181049 0 261.07473037 0 717.38815534 0 11575
0.10350000 0.10349800 15635.44061228 0 44.94546579 0 5882.71095393 0 433.81702033 0 1291.67588984 0 11364
0.10450000 0.10450100 15485.17165937 0 61.19692123 0 5847.85690513 0 581.94178467 0 908.72732668 0 12093
0.10550000 0.10551000 15462.54343985 0 124.57713610 0 5398.75265514 0 -513.33434124 0 288.80857922 0 12067
0.10650000 0.10649700 15383.78405445 0 250.29117547 0 5827.38166184 0 -271.79237784 0 950.77846744 0 12054
0.10750000 0.10749900 14860.36917094 0 216.81349361 0 6033.70488863 0 -140.18072145 0 535.30348641 0 12807
0.10850000 0.10850100 15038.86847539 0 42.34926206 0 6040.98766025 0 -151.44869601 0 39.47723571 0 12736
0.10950000 0.10950300 15022.72115370 0 245.70291950 0 6337.49422794 0 284.34005510 0 -523.62578729 0 12933
0.11050000 0.11050200 14692.41505618 0 32.45249170 0 6132.80770246 0 -231.33949239 0 -601.01319959 0 13428
0.11150000 0.11150900 14750.19390795 0 105.39466716 0 6090.03377683 0 -128.33495838 0 -1054.74854538 0 13453
0.11250000 0.11250000 14196.79114131 0 473.12641177 0 6812.91751384 0 -425.86418978 0 -745.34938485 0 13668
0.11350000 0.11349100 14104.63057735 0 62.78825626 0 6014.10841115 0 599.73020151 0 -883.03660833 0 13791
0.11450000 0.11448600 14104.30104017 0 -123.96090158 0 6419.35126282 0 811.78188291 0 -602.50380609 0 14205
0.11550000 0.11549300 14029.05671799 0 -46.54888385 0 5455.45501881 0 357.04035027 0 -632.64107942 0 14776
0.11650000 0.11649800 14205.02957074 0 4.07645178 0 4844.42718440 0 750.61319203 0 -189.05438024 0 14553
0.11750000 0.11747300 14161.42081759 0 33.57335748 0 5120.63426195 0 218.60947123 0 403.46774474 0 14568
0.11850000 0.11849100 13938.43399419 0 234.13616457 0 4891.72675393 0 130.59778033 0 177.51288983 0 16015
0.11950000 0.11950300 13561.55330893 0 136.47013284 0 4646.63897050 0 -49.32534441 0 955.89837672 0 15270
0.12050000 0.12050700 13338.89602270 0 205.70918919 0 4649.51692851 0 774.15642644 0 802.10008063 0 15999
0.12150000 0.12150000 13571.87880715 0 231.75470924 0 4387.54585702 0 -23.74447178 0 1419.41548439 0 15670
0.12250000 0.12250700 13152.37798027 0 -49.87709949 0 4051.70353492 0 620.09889445 0 880.34319113 0 16887
0.12350000 0.12352200 13238.60687503 0 72.27552175 0 4144.90763327 0 -93.65896950 0 911.34495033 0 16407
0.12450000 0.12449800 12868.20708759 0 102.53186785 0 3952.49087536 0 -61.97946218 0 1061.57655569 0 16306
0.12550000 0.12549900 12872.38122517 0 -44.66294258 0 3704.32741161 0 34.99706794 0 1313.50223556 0 17523
0.12650000 0.12650100 12701.24158436 0 35.67206992 0 3914.20963992 0 215.82927591 0 170.33557010 0 17154
0.12750000 0.12750600 12834.37460404 0 283.00652799 0 3495.29099538 0 324.89290015 0 497.85268465 0 18007
0.12850000 0.12850300 13020.34341784 0 -150.97306402 0 3697.34122344 0 -82.35353756 0 840.34726390 0 17496
0.12950000 0.12949900 12719.36612911 0 69.67426512 0 3951.49127926 0 -222.91762059 0 183.69390882 0 18405
0.13050000 0.13049000 12722.55165516 0 412.90678796 0 4065.32440492 0 -626.68304725 0 44.35987822 0 18100
0.13150000 0.13148800 12082.59045657 0 180.81045852 0 4486.41799483 0 -526.04239326 0 218.09319632 0 19059
0.13250000 0.13249300 12023.49345609 0 143.68699702 0 4540.65981423 0 422.40844324 0 -287.21142237 0 18957
0.13350000 0.13349100 12105.43836754 0 -74.66093153 0 4443.19370172 0 943.03434377 0 653.68202820 0 19468
0.13450000 0.13450700 12129.38473577 0 63.25663843 0 3917.88947173 0 651.26652069 0 633.15845279 0 19953
0.13550000 0.13551000 12055.89794520 0 143.23443263 0 3755.17499809 0 172.54017382 0 1457.97133415 0 19956
0.13650000 0.13649900 11503.37394436 0 242.26694520 0 3389.56448429 0 -74.70871442 0 1245.49674671 0 19723
0.13750000 0.13749600 11435.70897726 0 17.15834175 0 3737.87429627 0 175.59718037 0 1426.98385490 0 20946
0.13850000 0.13851100 11333.33276080 0 149.99873243 0 3608.82753758 0 -121.65853517 0 510.71671760 0 20955
0.13950000 0.13949800 10925.28884312 0 184.56498543 0 3418.04748099 0 -229.94774705 0 1070.10387939 0 20506
0.14050000 0.14048300 11170.76108660 0 28.15686474 0 3675.33912456 0 156.19183445 0 617.99205343 0 21447
0.14150000 0.14148400 11105.51272546 0 -76.39319863 0 3142.31274005 0 169.71933558 0 75.62834284 0 21771
0.14250000 0.14249400 10783.34619623 0 289.07111051 0 3216.35974383 0 101.15374338 0 -84.67073314 0 22470
0.14350000 0.14350900 10720.04210444 0 293.19801443 0 3078.94274083 0 -324.59302132 0 180.00528935 0 22519
0.14450000 0.14449900 10512.00528432 0 33.74416759 0 3226.24585915 0 359.76013044 0 605.64759076 0 22218
0.14550000 0.14550500 10427.22635314 0 23.55982112 0 3297.65656550 0 267.96315584 0 90.60075465 0 23559
0.14650000 0.14650700 10323.21343537 0 85.64264812 0 3029.77579396 0 9.53515823 0 388.80443880 0 23044
0.14750000 0.14750500 10211.78593110 0 62.18443430 0 3073.51636198 0 -101.17988666 0 110.37078838 0 23649
0.14850000 0.14849900 10123.09649208 0 116.75062814 0 3106.01971225 0 -74.95993160 0 149.11337588 0 23640
0.14950000 0.14949500 10001.67302676 0 73.32004476 0 3119.86027370 0 -138.66485044 0 -366.84188438 0 24457
0.15050000 0.15050000 9989.74378094 0 15.84590502 0 2721.25210387 0 327.88070390 0 136.98091546 0 24591
0.15150000 0.15149900 10064.02146074 0 -145.61259260 0 2718.54989901 0 475.14867158 0 -296.45713711 0 25020
0.15250000 0.15250500 10022.12630091 0 18.15365388 0 2183.16183140 0 263.84503957 0 98.81776417 0 25297
0.15350000 0.15350100 9938.68748758 0 186.12479473 0 2165.46568497 0 191.56655199 0 76.92331410 0 25452
0.15450000 0.15450400 9992.40204751 0 194.74878267 0 2073.27216729 0 -414.04149431 0 -264.89296780 0 26061
0.15550000 0.15549900 9489.00105525 0 213.35115633 0 2544.34556244 0 6.93013389 0 -103.26387977 0 26128
0.15650000 0.15649500 9377.56256641 0 26.29223355 0 2116.38661467 0 -94.84464427 0 -126.55435917 0 26331
0.15750000 0.15749700 9193.38423794 0 179.99320632 0 2694.62549993 0 -198.87348967 0 -599.33805227 0 27345
0.15850000 0.15849900 9029.64819904 0 283.69306377 0 2645.38166105 0 -193.87770606 0 -696.51087670 0 26980
0.15950000 0.15949700 8880.11521249 0 8.21765761 0 2877.44174140 0 -107.60992591 0 -762.67864655 0 27777
0.16050000 0.16050000 8883.16892367 0 9.66009676 0 2676.30323286 0 48.81170580 0 -1136.49683298 0 28224
0.16150000 0.16150500 8825.65370163 0 44.09701740 0 2795.74947511 0 223.70082062 0 -722.32462226 0 28075
0.16250000 0.16249700 8615.95821106 0 155.55143387 0 2653.81781279 0 310.23179113 0 -404.65078321 0 28590
0.16350000 0.16349900 8601.68925127 0 120.21076850 0 2594.45718256 0 123.85764660 0 -620.48005912 0 29163
0.16450000 0.16449100 8567.24163166 0 -73.78172634 0 2368.68027772 0 340.09884398 0 140.43007125 0 28996
0.16550000 0.16550500 8525.95062332 0 -85.22435560 0 2174.28629675 0 410.86255900 0 294.98190901 0 30777
0.16650000 0.16650700 8559.26683196 0 172.87630174 0 1886.08406593 0 217.16829530 0 599.89497010 0 29211
0.16750000 0.16749900 8477.98099486 0 171.49663943 0 2028.58692603 0 -136.54592639 0 345.60980404 0 30922
0.16850000 0.16850800 8324.52651590 0 142.44683878 0 2378.48950104 0 -229.28867269 0 461.32239007 0 30867
0.16950000 0.16949900 8079.05427242 0 146.80551718 0 2270.36835312 0 -221.65769012 0 360.94536582 0 30852
0.17050000 0.17049200 7930.30119053 0 59.99938313 0 2395.58149597 0 8.69433314 0 384.13929083 0 31257
0.17150000 0.17149500 7872.56627704 0 49.84788053 0 2491.39992260 0 86.69321265 0 273.02484688 0 32608
0.17250000 0.17250900 7973.50351449 0 34.87030597 0 2317.76678381 0 91.03014159 0 79.95615459 0 32361
0.17350000 0.17350400 7943.05427930 0 -46.41816743 0 2303.93720693 0 4.17627957 0 189.96060748 0 32508
0.17450000 0.17449800 7901.44471836 0 76.16548844 0 2338.97799346 0 111.82185042 0 -33.02742423 0 32791
0.17550000 0.17549800 7782.82231905 0 160.76800739 0 2061.62852036 0 -215.40197603 0 170.23890587 0 33633
0.17650000 0.17650100 7729.27252772 0 -6.08375060 0 2370.63553164 0 191.71154835 0 157.27271639 0 33984
0.17750000 0.17750300 7697.54908210 0 -56.99598129 0 2027.55437621 0 503.22743601 0 331.60667091 0 34069
0.17850000 0.17849800 7765.37881779 0 -24.87072001 0 1959.86743996 0 295.71128463 0 468.90833590 0 34536
