### header ###
fiducial parameters:
Omega_m = 0.31
Omega_nu = 0
Omega_de = 0.69
Omega_k = 0
H_0 = 100
w_de = -1
zeff = 0
beta = 0
fgrowth = 0
b_1 = 2
gamma = 0.55
Lx = 3500 Ly = 3500 Lz = 3500
nx = 700 ny = 700 nz = 700
xoffset = -983.599254 yoffset = -42.9823471 zoffset = 800.977702
bins = 400 dk = 0.001
kx_ny = 0.628318531 ky_ny = 0.628318531 kz_ny = 0.628318531
############################
A(data) = 9.05350878 (not used)
A(ran) = 9.06006849 (used)
Ngal = 503213
weighted Ngal = 0
Nran = 25229228
weighted Nran = 0
SN(data) = 6728.78405
SN(ran) = 134.490475
SN(data+ran) = 6863.27452
############################
13 columns: k_central k_mean P_0(k) sigma^{lin}_{P_0(k)} P^img_1(k) sigma^{lin}_{P_1(k)} P_2(k) sigma^{lin}_{P_2(k)} P^img_3(k) sigma^{lin}_{P_3(k)} P_4(k) sigma^{lin}_{P_4(k)} N_modes
### header ###
0.00050000 0 0 0 0 0 0 0 0 0 0 0 0
0.00150000 0.00179520 16670.95626953 0 14140.33043824 0 34043.27749837 0 -25746.84951914 0 -70669.13785635 0 3
0.00250000 0.00253879 41604.72772619 0 7596.51298350 0 -6794.27669417 0 8138.83231641 0 22182.68525367 0 6
0.00350000 0.00331552 35587.26902041 0 -2894.34699860 0 535.77033074 0 21901.37034986 0 64330.49024828 0 7
0.00450000 0.00420575 36678.91584354 0 -13060.32726204 0 -4179.68479006 0 4844.65786042 0 5190.77075789 0 24
0.00550000 0.00557378 42338.38732890 0 -2103.93010937 0 -1510.62039053 0 11549.61899493 0 3524.08156012 0 45
0.00650000 0.00659388 48402.31077670 0 -4126.04712215 0 -5398.24736480 0 -18376.09147133 0 1546.16646740 0 40
0.00750000 0.00754703 62814.17984915 0 -14196.13206695 0 -10517.94793809 0 3620.75678341 0 -4759.53840749 0 57
0.00850000 0.00846663 80990.13240805 0 -6996.66744398 0 -9296.30968303 0 4053.92241858 0 10493.73794012 0 75
0.00950000 0.00948925 96530.99585041 0 -7210.72380987 0 -27105.53130172 0 -24231.63757727 0 -29670.75853664 0 112
0.01050000 0.01054430 87508.37777782 0 1557.01922512 0 -2690.29757833 0 -16058.34665667 0 -12723.75995815 0 105
0.01150000 0.01145670 86200.55456628 0 10460.39976233 0 40303.49525821 0 -30083.22923707 0 -22158.40934826 0 144
0.01250000 0.01249090 86270.96567653 0 2724.66830594 0 19725.21667577 0 8091.47782401 0 -2370.15221045 0 169
0.01350000 0.01339930 94911.86985192 0 -11066.40764707 0 24592.59063229 0 4691.52193406 0 -38928.99569110 0 180
0.01450000 0.01448870 96643.47787364 0 -2356.43247929 0 16524.20237984 0 1963.75597866 0 -34086.00748571 0 267
0.01550000 0.01550050 108764.62417998 0 8943.62801116 0 31189.92492464 0 -9547.09845963 0 -28203.43933123 0 238
0.01650000 0.01653350 79418.45976311 0 6404.85162701 0 32678.77389232 0 -9811.00281590 0 -8323.53790437 0 315
0.01750000 0.01747870 83390.81074570 0 8665.11417336 0 39893.66085520 0 1556.46999649 0 -31829.88612323 0 297
0.01850000 0.01844180 71915.11792425 0 1648.32299241 0 27738.79191104 0 -296.83171104 0 -12961.13657163 0 388
0.01950000 0.01947590 71962.68112352 0 4365.46686613 0 36175.93226504 0 6926.51996347 0 -27091.91043172 0 399
0.02050000 0.02045430 64304.78634844 0 -151.57062476 0 19871.97056546 0 2111.23485013 0 -21834.25461139 0 462
0.02150000 0.02154770 66285.96385921 0 523.92566613 0 26608.69908387 0 8290.77092436 0 -10104.41173412 0 571
0.02250000 0.02255340 69134.48322101 0 -2024.85217135 0 15678.39029108 0 8144.26967984 0 -8582.74086357 0 510
0.02350000 0.02348930 70122.10614179 0 -1254.91052541 0 16049.11961570 0 4133.54958522 0 -11289.06493330 0 555
0.02450000 0.02439640 70080.14507453 0 4633.73209771 0 18526.58011569 0 -4331.05220023 0 -5120.33767849 0 592
0.02550000 0.02547300 63284.09986418 0 1724.12752780 0 19532.76696414 0 -3450.86938386 0 5800.85391905 0 837
0.02650000 0.02652900 66058.25366960 0 -4088.23822332 0 29512.58069147 0 10060.09996832 0 4048.27634827 0 723
0.02750000 0.02749970 64010.83918616 0 4034.08428050 0 22383.81277763 0 -3479.02284339 0 -1109.47478443 0 826
0.02850000 0.02848090 62959.06636150 0 2812.87442377 0 28808.24989756 0 -3194.10499978 0 8098.31022816 0 831
0.02950000 0.02946900 59523.42159523 0 5439.43951198 0 32616.71105723 0 3335.42152603 0 8959.86320943 0 996
0.03050000 0.03053250 58303.58481008 0 912.26655597 0 35066.60028005 0 4913.98149798 0 7656.63154924 0 1041
0.03150000 0.03150510 55082.79828350 0 689.33465543 0 36551.82433877 0 2833.64625052 0 9327.15436283 0 1036
0.03250000 0.03246190 52217.36267993 0 2136.20278361 0 32472.37377352 0 1148.38214052 0 12866.12001880 0 1059
0.03350000 0.03345080 53023.08107877 0 -2339.98857414 0 31066.12879165 0 3723.18792273 0 13519.37255021 0 1302
0.03450000 0.03451200 52529.76392414 0 452.40072022 0 25802.54130212 0 12438.16107103 0 11001.59866884 0 1339
0.03550000 0.03553350 56047.90283050 0 845.92962369 0 26564.65094782 0 92.89015927 0 8818.11828484 0 1365
0.03650000 0.03647120 53244.96944492 0 2332.62891051 0 27524.70259143 0 -5239.82785903 0 8602.12863418 0 1308
0.03750000 0.03744890 47604.17173294 0 3427.47224427 0 26863.21163058 0 -4334.85286235 0 8358.84232064 0 1579
0.03850000 0.03847530 48058.05427201 0 -48.85553424 0 28862.62353183 0 2787.64286055 0 4978.43896989 0 1662
0.03950000 0.03950240 46360.71811674 0 -1357.18788072 0 27642.67690095 0 7914.38454486 0 2193.06991587 0 1683
0.04050000 0.04050350 45235.23881005 0 2271.64256354 0 26167.44880328 0 2572.01570078 0 3932.64175271 0 1822
0.04150000 0.04152450 44410.18756347 0 2312.46123525 0 22044.82886777 0 -887.09540790 0 7752.23028441 0 1887
0.04250000 0.04250150 43398.17889155 0 897.48571510 0 25855.92632487 0 4168.44757231 0 1110.89179430 0 1920
0.04350000 0.04349210 42549.18127674 0 -458.15553780 0 20766.77384793 0 869.95398238 0 511.54165900 0 2005
0.04450000 0.04448520 41819.69581161 0 998.64703783 0 20760.62248729 0 -189.18729357 0 1390.58098136 0 2151
0.04550000 0.04548030 40089.73547577 0 562.26402135 0 17381.32857836 0 -625.30228648 0 2314.46042746 0 2274
0.04650000 0.04648670 39004.13016756 0 -734.29890483 0 18559.42398771 0 4251.66669419 0 1785.27864336 0 2311
0.04750000 0.04749250 40804.39176792 0 -543.15306197 0 16302.97308805 0 3285.50762822 0 -2038.45107221 0 2568
0.04850000 0.04851840 40459.91557176 0 1490.32090040 0 13312.31335706 0 -609.00337768 0 -3734.43612505 0 2493
0.04950000 0.04949480 36793.04555266 0 1058.45583862 0 13829.02765128 0 35.72172019 0 257.49485817 0 2644
0.05050000 0.05050630 37534.83373908 0 1073.85950475 0 14827.19576175 0 561.35340028 0 -1529.11841076 0 2829
0.05150000 0.05149060 35668.77454896 0 780.23089508 0 12455.84623289 0 539.70830001 0 -848.10896289 0 2784
0.05250000 0.05249300 34875.57856286 0 688.98754293 0 12626.65633653 0 2166.11377475 0 -1217.59593235 0 3055
0.05350000 0.05348950 35200.50221982 0 -350.19696155 0 11962.96846116 0 2646.01876626 0 1293.44440603 0 3009
0.05450000 0.05448610 34711.90843140 0 -848.73288661 0 9681.85719606 0 525.00544961 0 -939.49840985 0 3336
0.05550000 0.05550870 34172.34622620 0 20.11505916 0 8382.11862994 0 2051.00643867 0 41.75181115 0 3349
0.05650000 0.05647670 35351.43024709 0 949.82061271 0 6831.87688611 0 -1270.54157219 0 -1261.80883699 0 3324
0.05750000 0.05747970 33341.36331043 0 682.44732842 0 9844.19819424 0 -1858.08439042 0 457.18999387 0 3639
0.05850000 0.05849280 33575.00516923 0 820.23231459 0 10286.59087038 0 -173.10038702 0 -3025.38196493 0 3846
0.05950000 0.05951020 32030.13488139 0 -166.38222243 0 10458.44450841 0 1611.74436572 0 -992.73733778 0 3787
0.06050000 0.06049470 32350.11548068 0 642.36791844 0 9728.53064496 0 92.29864003 0 -947.05689425 0 3930
0.06150000 0.06148310 32203.36159100 0 5.84974625 0 11130.77724240 0 -809.83102282 0 -2239.29299729 0 4083
0.06250000 0.06249100 31627.00106766 0 498.55459883 0 9957.61390614 0 1537.67539280 0 495.37017124 0 4303
0.06350000 0.06350600 31262.53294941 0 205.80475497 0 10435.61856659 0 -281.89818461 0 -2030.25658106 0 4470
0.06450000 0.06451750 30942.99173301 0 1681.14489528 0 11118.36467538 0 -2240.43539284 0 -1553.21856300 0 4479
0.06550000 0.06550280 29351.76654888 0 335.94447863 0 11750.74651889 0 896.16097565 0 -0.49306890 0 4636
0.06650000 0.06648880 28835.16210038 0 -202.89933552 0 11423.95548460 0 1689.25150985 0 150.46777368 0 4653
0.06750000 0.06749660 29171.83925000 0 577.05914216 0 11449.87907589 0 618.01731794 0 230.59363991 0 5220
0.06850000 0.06852730 28233.86659728 0 335.53475407 0 10750.39247848 0 2479.94301340 0 1010.85858717 0 5029
0.06950000 0.06949320 28179.16342582 0 -121.05438368 0 10346.48974467 0 -1183.13732816 0 2248.67382227 0 5040
0.07050000 0.07048030 27966.06271774 0 215.80181448 0 8011.96050310 0 2227.00126057 0 2328.91612498 0 5475
0.07150000 0.07148790 27440.67061118 0 -733.96167845 0 8567.03292478 0 973.29793969 0 2538.34798581 0 5509
0.07250000 0.07249820 28033.28830194 0 761.84052367 0 8473.42239724 0 -612.61620361 0 1275.14410811 0 5916
0.07350000 0.07351270 27029.51805946 0 826.30788169 0 7611.45200221 0 -1292.99403855 0 -917.53915081 0 5721
0.07450000 0.07449140 27044.01769527 0 -165.23323614 0 8235.84806145 0 797.34925299 0 -1072.56991593 0 6028
0.07550000 0.07549160 26664.83024976 0 300.99266713 0 8888.63924081 0 -1109.61758388 0 -2890.20581474 0 6183
0.07650000 0.07648840 25988.51011593 0 468.61834318 0 7750.67047511 0 -443.86680578 0 -3526.44324322 0 6330
0.07750000 0.07749960 25608.66359606 0 189.01263886 0 7830.75899380 0 213.18528929 0 -3579.01540760 0 6583
0.07850000 0.07848650 25564.61546001 0 604.01967710 0 9116.23958470 0 -155.29439487 0 -3771.46511922 0 6549
0.07950000 0.07947320 24728.68948657 0 762.64239746 0 8235.03520308 0 -542.32921903 0 -5393.76565919 0 6828
0.08050000 0.08048110 23312.66823511 0 896.52566346 0 10215.67446979 0 -33.59796293 0 -2384.80563027 0 7147
0.08150000 0.08149960 23190.19025083 0 -459.22433671 0 9125.15905764 0 328.62326100 0 -3420.74968585 0 7386
0.08250000 0.08250610 23350.67485624 0 193.09999832 0 9384.86730718 0 1359.32987237 0 -2067.83480387 0 7227
0.08350000 0.08350160 23061.78059735 0 445.05753345 0 8296.84539300 0 1087.91536383 0 -1994.58967389 0 7798
0.08450000 0.08449610 22427.31168505 0 223.98422259 0 8051.52693354 0 -558.10965600 0 -409.97280862 0 7371
0.08550000 0.08548940 21465.61235556 0 601.66458474 0 8898.95375447 0 1399.62128460 0 586.15986054 0 8256
0.08650000 0.08650700 21423.54144257 0 268.07739539 0 8687.74239287 0 208.19060413 0 328.97257041 0 8037
0.08750000 0.08749060 20758.97480140 0 172.70164704 0 7631.46589345 0 175.91243760 0 -592.00914544 0 8155
0.08850000 0.08849210 21212.85734046 0 590.53611426 0 8362.67593647 0 -79.93967773 0 -583.24345652 0 8718
0.08950000 0.08949900 20025.53489014 0 -187.85925874 0 6617.27129159 0 745.06158905 0 60.81059381 0 8571
0.09050000 0.09049190 20129.99817539 0 86.98067891 0 7447.57316387 0 380.05852211 0 -1142.03305756 0 8932
0.09150000 0.09150830 19812.21449061 0 465.54485977 0 6410.73935792 0 -862.43284554 0 -2247.72914903 0 9285
0.09250000 0.09250820 19683.91468286 0 625.38137540 0 7337.80433006 0 -721.43926571 0 -2543.03839831 0 9204
0.09350000 0.09350330 18576.66976666 0 221.14690749 0 7247.80772690 0 -113.66835707 0 -2783.75432185 0 9349
0.09450000 0.09448040 18558.21568473 0 350.33097334 0 7578.01496327 0 620.11866668 0 -2270.00586222 0 9564
0.09550000 0.09549270 18439.80199230 0 -128.80290117 0 7135.50145683 0 474.84000509 0 -2318.11829013 0 10155
0.09650000 0.09649430 18026.23283461 0 70.21503563 0 6442.59461840 0 1180.81958335 0 -2205.26279143 0 9913
0.09750000 0.09749140 17986.02929897 0 266.55383517 0 6236.96341968 0 879.92138354 0 -736.24646955 0 10476
0.09850000 0.09850240 17385.50271594 0 310.68215860 0 5419.61235847 0 543.21567404 0 361.87905449 0 10575
0.09950000 0.09950330 17328.16324707 0 218.48534556 0 5675.68471449 0 654.30705038 0 411.58644234 0 10882
0.10050000 0.10051200 16697.86847235 0 218.30959240 0 5092.35997213 0 -247.40552825 0 810.25063349 0 10875
0.10150000 0.10150300 16153.47305522 0 354.12504471 0 5369.97307498 0 155.57010764 0 566.97859990 0 11118
0.10250000 0.10250800 15988.04539215 0 324.81271277 0 5400.79578564 0 49.70595985 0 929.74740477 0 11575
0.10350000 0.10349800 15677.51152527 0 226.53374189 0 5404.34380259 0 169.84565817 0 1140.76983172 0 11364
0.10450000 0.10450100 15535.48100179 0 45.01609659 0 5312.04043918 0 644.21003126 0 1638.74444512 0 12093
0.10550000 0.10551000 15355.44385719 0 208.77937722 0 5271.41948978 0 370.18009599 0 1698.12704450 0 12067
0.10650000 0.10649700 15172.99010661 0 189.08733396 0 4947.89087354 0 -270.88505214 0 1026.00741122 0 12054
0.10750000 0.10749900 15083.79537725 0 210.83129538 0 5133.78279533 0 -262.29511638 0 1093.58669865 0 12807
0.10850000 0.10850100 14883.10723619 0 182.36477554 0 5611.52382604 0 -333.38507322 0 908.55816426 0 12736
0.10950000 0.10950300 14397.25959091 0 -159.97162587 0 5561.88454255 0 329.28782764 0 625.25944665 0 12933
0.11050000 0.11050200 15052.26965394 0 67.82116772 0 5658.62567327 0 108.20023684 0 32.57936351 0 13428
0.11150000 0.11150900 14987.68036716 0 -132.65519078 0 5424.28080182 0 100.30859036 0 274.29356501 0 13453
0.11250000 0.11250000 14846.19907231 0 -52.81393482 0 4490.11979579 0 112.79178818 0 -456.38372624 0 13668
0.11350000 0.11349100 14996.24833378 0 377.99232401 0 5381.16635444 0 -402.85919942 0 -820.73870339 0 13791
0.11450000 0.11448600 14465.36394092 0 218.23050347 0 4701.81447857 0 -629.52146081 0 -545.09293749 0 14205
0.11550000 0.11549300 14404.94879172 0 -150.98954087 0 5533.09397781 0 719.36318149 0 -745.04950602 0 14776
0.11650000 0.11649800 14341.89734510 0 73.97769112 0 4785.79153596 0 532.62654607 0 -745.60971922 0 14553
0.11750000 0.11747300 14691.86582755 0 228.93387100 0 4915.16783182 0 260.34645321 0 -559.07410147 0 14568
0.11850000 0.11849100 14231.83192784 0 22.58658799 0 4033.80966618 0 332.07461371 0 -527.27815768 0 16015
0.11950000 0.11950300 14215.68460615 0 189.66182710 0 4332.17262664 0 851.03744994 0 22.95105611 0 15270
0.12050000 0.12050700 13855.50047120 0 3.66042207 0 4069.23491276 0 -87.37414630 0 9.06790747 0 15999
0.12150000 0.12150000 13822.54675346 0 45.36793245 0 3613.56188837 0 507.43562577 0 1133.87152014 0 15670
0.12250000 0.12250700 13611.09373127 0 -47.67040871 0 3556.26635778 0 564.55869856 0 848.47255224 0 16887
0.12350000 0.12352200 13658.76677627 0 355.73757996 0 3187.86576255 0 -20.80939399 0 1229.15170271 0 16407
0.12450000 0.12449800 13340.32401714 0 180.43917996 0 3797.88301628 0 -490.84782271 0 274.58136082 0 16306
0.12550000 0.12549900 13042.42240873 0 119.83399766 0 3560.38557250 0 -155.80737441 0 853.47492660 0 17523
0.12650000 0.12650100 13228.28137681 0 -128.60627733 0 3826.00352209 0 368.31491557 0 1065.26627362 0 17154
0.12750000 0.12750600 13534.31156892 0 -145.29184308 0 3108.42533364 0 546.28366516 0 908.98546414 0 18007
0.12850000 0.12850300 13358.33871617 0 150.95548870 0 3792.92897405 0 -403.84781095 0 255.31442051 0 17496
0.12950000 0.12949900 13007.38162220 0 555.29101467 0 3376.78942638 0 -552.79312287 0 740.29757992 0 18405
0.13050000 0.13049000 12671.14385548 0 278.92685773 0 4350.80246174 0 27.57654977 0 717.67155732 0 18100
0.13150000 0.13148800 12310.30064619 0 117.15925424 0 4180.42075643 0 -46.81317266 0 321.19549302 0 19059
0.13250000 0.13249300 12227.47696892 0 234.16582292 0 4640.04822695 0 177.80947329 0 499.15655341 0 18957
0.13350000 0.13349100 11929.90489769 0 73.94045342 0 4003.88769047 0 -326.65482559 0 642.69306179 0 19468
0.13450000 0.13450700 11641.66971316 0 225.54293344 0 4476.74058638 0 472.44646672 0 639.79093771 0 19953
0.13550000 0.13551000 11811.82074244 0 -137.25333286 0 4160.56064920 0 322.61030597 0 484.16261184 0 19956
0.13650000 0.13649900 11564.44816791 0 -24.96353965 0 3653.17225710 0 486.72201725 0 357.22598955 0 19723
0.13750000 0.13749600 11926.71937165 0 220.25715711 0 3703.16304691 0 -307.15061852 0 524.36504903 0 20946
0.13850000 0.13851100 11624.42393421 0 24.67255832 0 3700.13130488 0 -143.91657459 0 65.52154745 0 20955
0.13950000 0.13949800 11463.49994589 0 141.22315739 0 4073.74957209 0 4.64134441 0 27.90542788 0 20506
0.14050000 0.14048300 11238.53589942 0 210.22275006 0 3688.69636482 0 -393.33227962 0 -511.76574428 0 21447
0.14150000 0.14148400 10982.45255884 0 93.82099195 0 3877.02686173 0 354.51609549 0 -163.01105711 0 21771
0.14250000 0.14249400 11064.65011546 0 123.97518152 0 3892.86661539 0 362.65566377 0 -263.66818796 0 22470
0.14350000 0.14350900 10825.17544862 0 16.48443823 0 3450.72658442 0 150.03168615 0 -179.08478217 0 22519
0.14450000 0.14449900 10744.41687100 0 126.08751483 0 3137.56740470 0 206.39023269 0 -376.18865719 0 22218
0.14550000 0.14550500 10554.92200940 0 125.11867553 0 3287.75946560 0 208.95952421 0 347.95940412 0 23559
0.14650000 0.14650700 10474.41607695 0 72.38185241 0 2704.70933756 0 188.43704726 0 -59.62854395 0 23044
0.14750000 0.14750500 10254.61477960 0 115.81474255 0 2677.65433529 0 291.03954591 0 -53.72774141 0 23649
0.14850000 0.14849900 10100.64402572 0 34.97850401 0 2424.85538190 0 75.70545454 0 555.76115438 0 23640
0.14950000 0.14949500 10109.51956037 0 -29.99062929 0 2244.52165384 0 273.65426289 0 -36.88465689 0 24457
0.15050000 0.15050000 10105.03785476 0 48.11879896 0 2133.80814679 0 140.73983620 0 -335.05143288 0 24591
0.15150000 0.15149900 10004.92446025 0 207.49088686 0 2150.84521886 0 -320.03222679 0 -582.92051009 0 25020
0.15250000 0.15250500 9755.16823347 0 275.04051595 0 2134.34639085 0 -117.90181134 0 -129.23898871 0 25297
0.15350000 0.15350100 9641.19230836 0 101.01105378 0 2322.29242771 0 49.78933276 0 -313.69632532 0 25452
0.15450000 0.15450400 9593.43138678 0 -20.87486204 0 2313.51575422 0 150.95548870 0 -390.81681250 0 26061
0.15550000 0.15549900 9355.97788129 0 166.82050688 0 2378.90691480 0 3.03497150 0 -49.69222913 0 26128
0.15650000 0.15649500 9065.73251997 0 155.73707314 0 2359.16763787 0 64.06213714 0 496.72237213 0 26331
0.15750000 0.15749700 9060.75650859 0 17.34694687 0 2585.19718787 0 15.20462568 0 152.75146632 0 27345
0.15850000 0.15849900 9049.98064289 0 230.09384186 0 2431.29234144 0 236.29463308 0 128.48764394 0 26980
0.15950000 0.15949700 8865.38490066 0 16.37074790 0 2458.55605058 0 -69.76192201 0 249.52005847 0 27777
0.16050000 0.16050000 8921.64788142 0 27.45242410 0 2426.51405236 0 126.73560461 0 158.43927800 0 28224
0.16150000 0.16150500 8662.90627427 0 100.31001836 0 2522.46429386 0 -179.12432663 0 -11.54939930 0 28075
0.16250000 0.16249700 8640.09131702 0 175.74766902 0 2329.82784450 0 -55.90235724 0 726.97878566 0 28590
0.16350000 0.16349900 8657.68860229 0 -74.07622273 0 2418.81386698 0 298.55628893 0 -393.76177641 0 29163
0.16450000 0.16449100 8598.66849381 0 31.66709476 0 2078.41294726 0 40.46430940 0 -110.20052751 0 28996
0.16550000 0.16550500 8476.57496957 0 235.40048888 0 2339.91168213 0 -18.80701625 0 -68.98794902 0 30777
0.16650000 0.16650700 8313.00369926 0 15.33193687 0 2225.84788045 0 119.98338785 0 555.30199925 0 29211
0.16750000 0.16749900 8363.59864057 0 9.20869673 0 2161.24760910 0 293.74284923 0 -78.46763516 0 30922
0.16850000 0.16850800 8378.69144330 0 42.65639071 0 2101.26085823 0 -76.86388756 0 84.96446061 0 30867
0.16950000 0.16949900 8249.02954855 0 21.73440485 0 2234.44880078 0 -76.46888233 0 306.39158455 0 30852
0.17050000 0.17049200 8188.98787482 0 79.95241984 0 1946.11475509 0 -8.76363480 0 356.64380720 0 31257
0.17150000 0.17149500 8372.34236035 0 141.44504576 0 2242.05012501 0 -6.48919118 0 -11.05630184 0 32608
0.17250000 0.17250900 8181.11193628 0 5.66805044 0 2283.20931847 0 -128.86221787 0 -122.03201064 0 32361
0.17350000 0.17350400 7955.46684631 0 238.06974001 0 2462.63132701 0 -185.26140733 0 78.82221716 0 32508
0.17450000 0.17449800 7754.18553833 0 11.16812479 0 2578.20001514 0 -90.35030640 0 -158.43817954 0 32791
0.17550000 0.17549800 7622.81005026 0 151.62884300 0 2625.96093672 0 186.18740680 0 -64.14825619 0 33633
0.17650000 0.17650100 7523.41065297 0 104.52282163 0 2583.48359455 0 -26.13877907 0 73.23689154 0 33984
0.17750000 0.17750300 7673.54779101 0 -54.83388787 0 2400.27190847 0 65.90787487 0 107.34981123 0 34069
0.17850000 0.17849800 7700.26227153 0 -6.10221567 0 2219.50978207 0 382.14009862 0 -445.60566362 0 34536
