### header ###
fiducial parameters:
Omega_m = 0.31
Omega_nu = 0
Omega_de = 0.69
Omega_k = 0
H_0 = 100
w_de = -1
zeff = 0
beta = 0
fgrowth = 0
b_1 = 2
gamma = 0.55
Lx = 3500 Ly = 3500 Lz = 3500
nx = 700 ny = 700 nz = 700
xoffset = -983.599254 yoffset = -42.9823471 zoffset = 800.977702
bins = 400 dk = 0.001
kx_ny = 0.628318531 ky_ny = 0.628318531 kz_ny = 0.628318531
############################
A(data) = 9.03691964 (not used)
A(ran) = 9.02865921 (used)
Ngal = 501000
weighted Ngal = 0
Nran = 25229228
weighted Nran = 0
SN(data) = 6747.92115
SN(ran) = 134.024226
SN(data+ran) = 6881.94538
############################
13 columns: k_central k_mean P_0(k) sigma^{lin}_{P_0(k)} P^img_1(k) sigma^{lin}_{P_1(k)} P_2(k) sigma^{lin}_{P_2(k)} P^img_3(k) sigma^{lin}_{P_3(k)} P_4(k) sigma^{lin}_{P_4(k)} N_modes
### header ###
0.00050000 0 0 0 0 0 0 0 0 0 0 0 0
0.00150000 0.00179520 13215.31958116 0 -13747.85165991 0 -12939.93634655 0 3571.05159248 0 -16292.75743555 0 3
0.00250000 0.00253879 56591.74901900 0 -34036.57690910 0 -840.68229337 0 -56794.63407458 0 -19967.31665546 0 6
0.00350000 0.00331552 81954.68772642 0 -34103.14341894 0 -50610.31971128 0 -18134.98010317 0 -8346.17710846 0 7
0.00450000 0.00420575 93521.44265457 0 -479.33599065 0 -25207.06762249 0 -54475.57111120 0 11865.42545664 0 24
0.00550000 0.00557378 86729.24204462 0 8354.31667674 0 11375.84305669 0 -23224.35227156 0 2497.44143752 0 45
0.00650000 0.00659388 75503.00886649 0 7301.03896563 0 2697.18490534 0 -7964.66093356 0 3469.77383328 0 40
0.00750000 0.00754703 72669.75806059 0 9762.59380453 0 28552.30935641 0 -15814.92852826 0 -39642.44368026 0 57
0.00850000 0.00846663 70724.82963933 0 5104.06952650 0 41441.93636054 0 25631.84104421 0 27461.87083626 0 75
0.00950000 0.00948925 66621.65239730 0 -8779.94689512 0 20852.12397689 0 21345.33128579 0 9447.50134004 0 112
0.01050000 0.01054430 78325.93417417 0 -2577.65078651 0 24283.15522267 0 9372.35587901 0 -9268.63954469 0 105
0.01150000 0.01145670 80837.55669490 0 407.60892860 0 10058.07880697 0 -7410.33546282 0 -3351.31620256 0 144
0.01250000 0.01249090 77239.12056297 0 4055.35041302 0 34424.44216695 0 -20028.28103329 0 749.84427195 0 169
0.01350000 0.01339930 69817.50394411 0 8194.68886799 0 28051.30300098 0 -3846.03938248 0 7394.99001492 0 180
0.01450000 0.01448870 79030.48465954 0 -2988.02343358 0 43894.24218932 0 13952.60409282 0 -8932.33587054 0 267
0.01550000 0.01550050 72903.39991939 0 -5423.47892802 0 26692.62121839 0 14636.28389028 0 7016.04423001 0 238
0.01650000 0.01653350 86578.97309171 0 -1530.03013028 0 23450.41477528 0 11545.33501162 0 -440.91525113 0 315
0.01750000 0.01747870 86062.14895176 0 817.07095460 0 25590.31935985 0 -13121.62117704 0 5748.65523015 0 297
0.01850000 0.01844180 76736.24683020 0 9426.41096068 0 34851.30265746 0 4407.65860942 0 -10660.59359763 0 388
0.01950000 0.01947590 75631.74805715 0 6684.03552374 0 38359.33575703 0 -14939.56793926 0 7094.60589311 0 399
0.02050000 0.02045430 66127.78601404 0 3501.93666180 0 41622.41288805 0 832.92718513 0 -3848.35712729 0 462
0.02150000 0.02154770 62438.72715832 0 -245.46675119 0 46574.14836199 0 4075.30938140 0 -1056.65766409 0 571
0.02250000 0.02255340 62333.27526154 0 -3262.16541149 0 37296.46851406 0 17625.73531830 0 4247.77815550 0 510
0.02350000 0.02348930 65682.36159587 0 -3345.36256422 0 24610.16594842 0 14249.95647260 0 6737.99174426 0 555
0.02450000 0.02439640 71479.35992995 0 -4792.64590925 0 13341.09293722 0 15715.07876350 0 -313.43159712 0 592
0.02550000 0.02547300 75999.51154717 0 -61.54260573 0 14263.79703405 0 -772.06057000 0 -1502.49180682 0 837
0.02650000 0.02652900 77547.56736106 0 3561.19843087 0 12916.97858985 0 -13049.12299801 0 5854.90900073 0 723
0.02750000 0.02749970 70829.73230749 0 -328.15751512 0 19645.24898738 0 -37.95059981 0 -5702.90448535 0 826
0.02850000 0.02848090 72687.11368526 0 4568.58259773 0 23194.36438841 0 -5822.72420306 0 -6409.84960754 0 831
0.02950000 0.02946900 64143.42297722 0 3539.91032921 0 21867.20832913 0 -684.57504013 0 -5800.86490363 0 996
0.03050000 0.03053250 60845.63459685 0 5286.03995588 0 30578.30392331 0 -2697.42656594 0 -3028.34779952 0 1041
0.03150000 0.03150510 57372.53243808 0 4034.64449370 0 29899.23764634 0 4699.81528636 0 -4171.56719093 0 1036
0.03250000 0.03246190 50082.07161584 0 1994.44687445 0 32314.96484842 0 4239.08935858 0 5140.90079837 0 1059
0.03350000 0.03345080 48829.94018730 0 -4.93490711 0 26255.32538393 0 8072.21088371 0 8445.25795314 0 1302
0.03450000 0.03451200 48102.87132814 0 -446.23068580 0 22986.86581235 0 8784.11004813 0 7892.20669282 0 1339
0.03550000 0.03553350 50623.83073556 0 1395.99637565 0 16114.36797683 0 1924.43120882 0 9299.35240963 0 1365
0.03650000 0.03647120 46174.41976576 0 -250.50757155 0 16327.79822209 0 -369.13766005 0 8337.21369723 0 1308
0.03750000 0.03744890 45412.31012006 0 2121.03308888 0 15226.37512935 0 1540.33365936 0 7148.94657367 0 1579
0.03850000 0.03847530 48034.54728668 0 -591.81911234 0 15035.57310362 0 -447.10395932 0 2134.08276110 0 1662
0.03950000 0.03950240 45565.54490757 0 -18.95442922 0 17955.05280429 0 1624.85994538 0 4168.12901971 0 1683
0.04050000 0.04050350 45442.95707757 0 -1207.20452669 0 11076.40360812 0 955.91045975 0 629.54123304 0 1822
0.04150000 0.04152450 45501.06546652 0 593.49535811 0 11956.04818044 0 2160.70936504 0 2306.97993353 0 1887
0.04250000 0.04250150 45750.52510984 0 513.79459483 0 9001.38489379 0 2056.07032663 0 1874.63814130 0 1920
0.04350000 0.04349210 45879.48399195 0 1972.89514304 0 12179.91376964 0 -2348.36980302 0 1487.24522008 0 2005
0.04450000 0.04448520 43229.01647380 0 2880.01213138 0 15654.99315148 0 -4295.26446276 0 1329.91318700 0 2151
0.04550000 0.04548030 39634.75447945 0 895.83912767 0 14742.83424432 0 1348.91649756 0 621.49942745 0 2274
0.04650000 0.04648670 39050.26537240 0 83.09488636 0 18007.00983260 0 3077.18520922 0 5766.29645371 0 2311
0.04750000 0.04749250 36913.87585106 0 1260.66644144 0 17228.09379085 0 651.89154287 0 4436.98741821 0 2568
0.04850000 0.04851840 37482.21763641 0 1061.90828978 0 17587.50900571 0 2166.23460505 0 6252.02326869 0 2493
0.04950000 0.04949480 35382.62643322 0 406.85538693 0 15233.29541008 0 1930.25303228 0 7592.87708997 0 2644
0.05050000 0.05050630 35762.47295308 0 -440.15292179 0 13755.43101499 0 2626.57607279 0 6486.33518642 0 2829
0.05150000 0.05149060 36144.62623318 0 -841.75438765 0 11245.23648870 0 2080.41213947 0 9559.14853575 0 2784
0.05250000 0.05249300 35719.85281146 0 541.41200722 0 10628.16713937 0 1441.88991989 0 5462.25446923 0 3055
0.05350000 0.05348950 34984.10613997 0 747.99886376 0 9407.55044956 0 810.21548286 0 5495.72446189 0 3009
0.05450000 0.05448610 34500.89479211 0 1005.22789526 0 9519.15370698 0 -701.41768527 0 3586.13341063 0 3336
0.05550000 0.05550870 34305.80878307 0 89.45890833 0 9739.02091177 0 -937.05983474 0 3460.76648376 0 3349
0.05650000 0.05647670 34353.04244517 0 -1426.84105545 0 7659.09209349 0 1069.25696884 0 1829.64533201 0 3324
0.05750000 0.05747970 34530.88267526 0 948.06308109 0 10939.64567949 0 -1689.29544814 0 -757.51479898 0 3639
0.05850000 0.05849280 33450.00073325 0 806.16986477 0 9974.29947189 0 -3613.02364431 0 -1509.96131618 0 3846
0.05950000 0.05951020 33158.14063977 0 601.26914013 0 12588.10048677 0 1064.37652324 0 -2101.99682459 0 3787
0.06050000 0.06049470 33268.31590276 0 -121.94742943 0 12414.43439426 0 -169.16681158 0 -3079.55787690 0 3930
0.06150000 0.06148310 33412.21380357 0 77.98475335 0 11625.08300856 0 532.42772530 0 -3302.34697799 0 4083
0.06250000 0.06249100 33265.35006816 0 1006.75145548 0 14353.32130059 0 466.67077846 0 -1913.46860538 0 4303
0.06350000 0.06350600 31477.94041773 0 802.73279201 0 13611.64295990 0 153.01729297 0 283.43712323 0 4470
0.06450000 0.06451750 31897.00186170 0 -65.33448018 0 12856.23390348 0 2197.73835921 0 122.95141936 0 4479
0.06550000 0.06550280 32661.08873046 0 -861.07185699 0 11669.79021897 0 1336.70165285 0 -1978.69499737 0 4636
0.06650000 0.06648880 30216.36225676 0 806.63341374 0 10612.49215430 0 793.68479958 0 1678.86010419 0 4653
0.06750000 0.06749660 30238.55109337 0 1043.66621010 0 11290.93231064 0 -666.28682524 0 1287.02941564 0 5220
0.06850000 0.06852730 29062.87228999 0 762.31835257 0 11928.03752035 0 74.58854320 0 1407.98054433 0 5029
0.06950000 0.06949320 28179.49296300 0 421.53297281 0 10521.94632251 0 1280.48261038 0 -862.17910191 0 5040
0.07050000 0.07048030 27820.29743959 0 793.90778640 0 11232.71407596 0 526.08193772 0 -376.77743028 0 5475
0.07150000 0.07148790 27510.97187570 0 -370.32619081 0 9611.88546872 0 1103.02684033 0 1335.52630358 0 5509
0.07250000 0.07249820 27477.68862078 0 -642.28443569 0 9015.54400785 0 2017.43758486 0 1327.00227526 0 5916
0.07350000 0.07351270 28493.10251020 0 -429.74064544 0 6470.02309614 0 1255.61353806 0 420.29061765 0 5721
0.07450000 0.07449140 27351.03649892 0 843.31968924 0 8492.78819870 0 -481.46919464 0 1772.16306369 0 6028
0.07550000 0.07549160 27086.19845398 0 1512.74041304 0 7559.44005104 0 -1372.66514348 0 1164.56241593 0 6183
0.07650000 0.07648840 25694.89249083 0 269.12202824 0 8798.86232911 0 86.81876631 0 1679.31047166 0 6330
0.07750000 0.07749960 25969.94618826 0 301.77476870 0 9766.02099118 0 -217.64612421 0 -586.07198396 0 6583
0.07850000 0.07848650 24988.80416530 0 511.29011229 0 8552.57722726 0 270.03594468 0 339.48041254 0 6549
0.07950000 0.07947320 24317.64678058 0 -120.56557020 0 9213.22237602 0 1139.23199156 0 1145.96553455 0 6828
0.08050000 0.08048110 23825.31823748 0 417.72022767 0 7690.89243112 0 711.50042444 0 2009.71543034 0 7147
0.08150000 0.08149960 23373.63261294 0 396.45958743 0 8586.45364910 0 18.17716086 0 1651.40965731 0 7386
0.08250000 0.08250610 23278.72590583 0 780.00021906 0 7472.11269902 0 1007.91691863 0 1197.66991769 0 7227
0.08350000 0.08350160 22910.52303291 0 6.21073226 0 7958.19102031 0 509.67757703 0 1841.42079382 0 7798
0.08450000 0.08449610 23028.60718816 0 -736.36729985 0 6012.26300295 0 1048.98933397 0 488.89806108 0 7371
0.08550000 0.08548940 23064.74643195 0 11.27269792 0 6626.46537884 0 357.33913064 0 1238.13708308 0 8256
0.08650000 0.08650700 22568.35359700 0 504.14245091 0 4762.10879747 0 -946.77459073 0 -306.56623926 0 8037
0.08750000 0.08749060 21824.36849606 0 783.64929407 0 6809.43540433 0 -1186.98192857 0 -790.20159161 0 8155
0.08850000 0.08849210 21252.73133893 0 735.57970600 0 6480.67813154 0 -1160.41024749 0 -2709.10316659 0 8718
0.08950000 0.08949900 20772.59567140 0 443.74597548 0 7533.75812034 0 521.24762733 0 -2627.80634492 0 8571
0.09050000 0.09049190 19767.17774303 0 425.05462678 0 7273.30291987 0 -449.76002897 0 -2835.76627303 0 8932
0.09150000 0.09150830 19641.51423270 0 233.28705711 0 7046.61429550 0 735.40505129 0 -2486.01748204 0 9285
0.09250000 0.09250820 19058.67281153 0 -76.28104614 0 6670.57942233 0 455.24242915 0 -1994.69951962 0 9204
0.09350000 0.09350330 19085.03578573 0 205.08306855 0 5952.11148350 0 831.72327597 0 -1288.06196546 0 9349
0.09450000 0.09448040 18951.68307459 0 100.47511648 0 5869.11205307 0 351.87210887 0 -1515.14603443 0 9564
0.09550000 0.09549270 18379.71638028 0 597.75517536 0 6500.31854732 0 -626.37877459 0 -1504.85348993 0 10155
0.09650000 0.09649430 17985.58991606 0 434.99017268 0 6766.24406494 0 215.97866609 0 -110.61794127 0 9913
0.09750000 0.09749140 17381.32857836 0 -63.84969551 0 6703.75283152 0 421.59009259 0 -807.90762416 0 10476
0.09850000 0.09850240 17644.40909169 0 15.99782166 0 6618.68830145 0 718.63490433 0 -464.23220335 0 10575
0.09950000 0.09950330 17618.37565467 0 261.37131383 0 5930.73550526 0 762.86648274 0 134.55332492 0 10882
0.10050000 0.10051200 17363.09418788 0 -16.95325978 0 5981.83573690 0 136.93697717 0 548.94522709 0 10875
0.10150000 0.10150300 17038.28037665 0 422.19973636 0 5835.72993700 0 -285.56813031 0 348.09012053 0 11118
0.10250000 0.10250800 16451.15497217 0 529.38280178 0 6317.85381217 0 -91.87551430 0 763.08178037 0 11575
0.10350000 0.10349800 15778.24005584 0 464.20474192 0 6199.42913517 0 345.95691653 0 1362.71312072 0 11364
0.10450000 0.10450100 15609.73671244 0 46.92884021 0 6409.43219378 0 134.79937935 0 613.09403251 0 12093
0.10550000 0.10551000 15518.23522284 0 -10.32963941 0 5836.24621191 0 658.23403508 0 294.57987366 0 12067
0.10650000 0.10649700 15135.53271411 0 209.54939576 0 5712.80158524 0 414.63575969 0 1062.19828250 0 12054
0.10750000 0.10749900 15471.00156074 0 -65.42872781 0 5442.62503803 0 -18.30842650 0 1489.05767455 0 12807
0.10850000 0.10850100 15043.59184160 0 201.61853436 0 5271.68311952 0 432.39012435 0 450.12691370 0 12736
0.10950000 0.10950300 15083.24614862 0 -150.38429092 0 4848.16193907 0 467.43200934 0 1519.55084804 0 12933
0.11050000 0.11050200 15366.75796694 0 57.06869916 0 4544.20783118 0 262.24239044 0 1036.76350469 0 13428
0.11150000 0.11150900 14889.36844256 0 -123.82469288 0 3956.69796666 0 554.48035322 0 1273.57331423 0 13453
0.11250000 0.11250000 14810.93859433 0 248.41061664 0 4226.91845216 0 -205.90141921 0 955.38979101 0 13668
0.11350000 0.11349100 14679.12372335 0 707.36583132 0 4278.95237248 0 -514.00769554 0 591.64116226 0 13791
0.11450000 0.11448600 14484.25740576 0 235.40268579 0 4489.44973686 0 -225.20570706 0 168.52970637 0 14205
0.11550000 0.11549300 14090.13094154 0 -296.94045831 0 4411.14071893 0 224.44887001 0 772.69437983 0 14776
0.11650000 0.11649800 14011.81093904 0 24.61401055 0 3966.43029797 0 733.99243526 0 -388.17941662 0 14553
0.11750000 0.11747300 14038.28375896 0 -57.90495467 0 3527.17920959 0 497.88234299 0 596.66330885 0 14568
0.11850000 0.11849100 14011.92078476 0 161.63908399 0 3343.07777312 0 143.18390360 0 -5.86732157 0 16015
0.11950000 0.11950300 13918.44207209 0 95.36992653 0 3532.33097413 0 -247.02765895 0 363.20708932 0 15270
0.12050000 0.12050700 13866.26535233 0 245.64909509 0 3347.59243245 0 70.98230802 0 966.27330552 0 15999
0.12150000 0.12150000 13635.36963667 0 -146.36723273 0 3172.14683919 0 771.31911135 0 389.35256897 0 15670
0.12250000 0.12250700 13612.52172570 0 218.02069814 0 3256.71706349 0 -433.98508429 0 116.68362225 0 16887
0.12350000 0.12352200 13360.09624778 0 295.65086948 0 3409.88594356 0 -335.24256444 0 655.64167595 0 16407
0.12450000 0.12449800 13080.86841277 0 223.79528794 0 3870.26036502 0 -567.16753455 0 67.67034954 0 16306
0.12550000 0.12549900 12857.88158937 0 88.31332726 0 3880.14648034 0 -47.03780717 0 21.70606465 0 17523
0.12650000 0.12650100 12796.91721154 0 154.28161728 0 4185.93501186 0 157.13321232 0 -630.81764037 0 17154
0.12750000 0.12750600 12831.29892372 0 -42.30400562 0 3758.45938529 0 344.93974511 0 -114.75363284 0 18007
0.12850000 0.12850300 12650.49285903 0 20.93901195 0 3652.30447586 0 219.41573886 0 -244.62313601 0 17496
0.12950000 0.12949900 12488.03103055 0 448.21889344 0 3749.33120547 0 -36.01874303 0 -499.22136239 0 18405
0.13050000 0.13049000 12340.83775796 0 232.07875413 0 3923.84311007 0 -220.54714983 0 -384.04482350 0 18100
0.13150000 0.13148800 11901.12531753 0 86.76856681 0 3732.16231853 0 235.81900109 0 263.46387491 0 19059
0.13250000 0.13249300 11942.42731044 0 -267.94777743 0 3552.08123563 0 492.10006399 0 318.43836530 0 18957
0.13350000 0.13349100 12025.14114197 0 -11.64584385 0 3249.46724559 0 437.41886168 0 45.39693172 0 19468
0.13450000 0.13450700 12071.71572972 0 148.65092537 0 3136.43599372 0 420.50261990 0 709.12885522 0 19953
0.13550000 0.13551000 11946.60144802 0 103.68030491 0 3105.45949904 0 -145.65433397 0 972.51803503 0 19956
0.13650000 0.13649900 11898.48902011 0 46.24922471 0 3103.40538397 0 96.32591388 0 673.74754693 0 19723
0.13750000 0.13749600 11818.30164027 0 296.96352591 0 3197.60907843 0 191.09421537 0 1327.48559646 0 20946
0.13850000 0.13851100 11192.94992321 0 163.57017185 0 3384.28090488 0 -232.36984530 0 1517.25507237 0 20955
0.13950000 0.13949800 11351.23761411 0 38.30452274 0 3257.31023041 0 467.74506966 0 1392.58017357 0 20506
0.14050000 0.14048300 11115.06930361 0 11.21788490 0 2805.78937445 0 598.31648702 0 1369.36977171 0 21447
0.14150000 0.14148400 11204.26403297 0 76.82203634 0 2893.88564655 0 -206.06838471 0 1694.98545674 0 21771
0.14250000 0.14249400 11045.20742199 0 102.51956513 0 2608.91288008 0 53.61745630 0 1040.93434690 0 22470
0.14350000 0.14350900 10871.94775867 0 40.99497410 0 2764.61919642 0 -120.12179346 0 1102.40071969 0 22519
0.14450000 0.14449900 10848.93507911 0 161.93017517 0 2665.45047515 0 -407.46612916 0 379.61364692 0 22218
0.14550000 0.14550500 10592.40137104 0 364.08695358 0 3118.79477016 0 -371.81679731 0 103.56958042 0 23559
0.14650000 0.14650700 10305.82485697 0 272.03953072 0 3115.75204355 0 -359.13291135 0 400.37119373 0 23044
0.14750000 0.14750500 10210.41285953 0 -100.31518110 0 3726.90070826 0 379.70481888 0 -80.87501409 0 23649
0.14850000 0.14849900 10016.85370607 0 107.27401768 0 3434.48040157 0 -132.61894169 0 -521.13009240 0 23640
0.14950000 0.14949500 9992.39106293 0 183.54781401 0 3532.35294327 0 75.52629616 0 -45.37946625 0 24457
0.15050000 0.15050000 9859.67545701 0 -54.33365043 0 2926.47687340 0 518.59485305 0 253.31742521 0 24591
0.15150000 0.15149900 9974.16765702 0 -35.74863239 0 3057.95122263 0 416.11977544 0 357.89165464 0 25020
0.15250000 0.15250500 9923.02348708 0 268.25424701 0 3022.50400691 0 -86.60171116 0 159.75083596 0 25297
0.15350000 0.15350100 9784.40916568 0 73.50919910 0 2901.97029197 0 -272.29656972 0 487.98194773 0 25452
0.15450000 0.15450400 9524.36039439 0 136.98091546 0 3376.80041095 0 -189.61898727 0 -185.33720088 0 26061
0.15550000 0.15549900 9389.44787394 0 253.73593743 0 3150.29852432 0 -226.53374189 0 113.17734668 0 26128
0.15650000 0.15649500 9283.64447084 0 52.05687807 0 3662.02582260 0 99.97312151 0 220.58559583 0 26331
0.15750000 0.15749700 9209.69632822 0 -138.80984680 0 3244.21661989 0 282.81979025 0 -289.09088274 0 27345
0.15850000 0.15849900 9278.49270630 0 -67.87378383 0 3067.03546415 0 304.08921814 0 -335.78190695 0 26980
0.15950000 0.15949700 9107.80343296 0 133.11764128 0 2644.85440156 0 300.61919166 0 127.59349973 0 27777
0.16050000 0.16050000 9159.67258469 0 190.95580975 0 2710.28950043 0 21.69420131 0 -101.63552673 0 28224
0.16150000 0.16150500 8994.96990340 0 91.42415821 0 2462.32375898 0 201.84921038 0 223.60635329 0 28075
0.16250000 0.16249700 8828.60855166 0 54.17657105 0 2355.49879063 0 347.06416145 0 298.55628893 0 28590
0.16350000 0.16349900 8657.30414225 0 123.62037983 0 2224.25511742 0 3.45230836 0 405.37466654 0 29163
0.16450000 0.16449100 8599.21772244 0 134.56321104 0 2165.90506787 0 1.29109371 0 375.74927429 0 28996
0.16550000 0.16550500 8492.52456896 0 171.10119481 0 2535.11852148 0 -414.89170023 0 -25.30164479 0 30777
0.16650000 0.16650700 8185.46182702 0 100.27662525 0 2576.68414412 0 15.68761733 0 495.32733141 0 29211
0.16750000 0.16749900 7966.15483543 0 5.70739718 0 2562.36026148 0 286.27224141 0 336.07080121 0 30922
0.16850000 0.16850800 8273.56908370 0 -10.95659487 0 2556.65926831 0 42.96099290 0 155.04394661 0 30867
0.16950000 0.16949900 8110.10765911 0 208.17852110 0 2389.07862901 0 -1.13196020 0 11.88333031 0 30852
0.17050000 0.17049200 8032.10620921 0 84.01121941 0 2441.23337962 0 -212.06596134 0 619.80450790 0 31257
0.17150000 0.17149500 8013.68508099 0 9.30454811 0 2534.90981460 0 211.53540649 0 -222.88137150 0 32608
0.17250000 0.17250900 7979.33632253 0 -14.99064620 0 2269.48958731 0 231.24392661 0 -105.58645780 0 32361
0.17350000 0.17350400 7852.81601554 0 30.78602219 0 2276.25608402 0 -46.12224305 0 69.11844575 0 32508
0.17450000 0.17449800 7780.81214227 0 93.77254998 0 2147.89036884 0 -3.08361118 0 217.04307118 0 32791
0.17550000 0.17549800 7687.10275358 0 142.57316136 0 2238.76573780 0 -33.58577005 0 -250.82173032 0 33633
0.17650000 0.17650100 7594.19523868 0 219.81008501 0 2323.83026787 0 -15.08994674 0 -212.09232432 0 33984
0.17750000 0.17750300 7530.27601083 0 -60.42690269 0 2213.42432886 0 177.87098690 0 35.36735788 0 34069
0.17850000 0.17849800 7561.94453359 0 -78.39546652 0 2132.77559697 0 163.82721085 0 -21.54173544 0 34536
