### header ###
fiducial parameters:
Omega_m = 0.31
Omega_nu = 0
Omega_de = 0.69
Omega_k = 0
H_0 = 100
w_de = -1
zeff = 0
beta = 0
fgrowth = 0
b_1 = 2
gamma = 0.55
Lx = 3500 Ly = 3500 Lz = 3500
nx = 700 ny = 700 nz = 700
xoffset = -983.599254 yoffset = -42.9823471 zoffset = 800.977702
bins = 400 dk = 0.001
kx_ny = 0.628318531 ky_ny = 0.628318531 kz_ny = 0.628318531
############################
A(data) = 9.06376536 (not used)
A(ran) = 9.06129948 (used)
Ngal = 503271
weighted Ngal = 0
Nran = 25229228
weighted Nran = 0
SN(data) = 6727.80291
SN(ran) = 134.508748
SN(data+ran) = 6862.31165
############################
13 columns: k_central k_mean P_0(k) sigma^{lin}_{P_0(k)} P^img_1(k) sigma^{lin}_{P_1(k)} P_2(k) sigma^{lin}_{P_2(k)} P^img_3(k) sigma^{lin}_{P_3(k)} P_4(k) sigma^{lin}_{P_4(k)} N_modes
### header ###
0.00050000 0 0 0 0 0 0 0 0 0 0 0 0
0.00150000 0.00179520 20906.93699407 0 25189.16276918 0 27798.76767733 0 -2248.76169885 0 -80818.22384715 0 3
0.00250000 0.00253879 50230.14365424 0 15027.44451991 0 19337.24157220 0 -50458.40307248 0 43140.26112734 0 6
0.00350000 0.00331552 43741.33693899 0 -4548.64559850 0 -13506.95998320 0 18476.27077327 0 9020.02571346 0 7
0.00450000 0.00420575 71979.92690248 0 -27732.75039612 0 342.51215457 0 -25337.89388193 0 -34611.17990083 0 24
0.00550000 0.00557378 76616.62483479 0 10511.13750309 0 7846.62071660 0 -35256.19400281 0 17618.59534612 0 45
0.00650000 0.00659388 63673.28327074 0 16735.32586485 0 33341.69284760 0 -9798.66714089 0 63030.24639183 0 40
0.00750000 0.00754703 60369.34352972 0 4593.30887061 0 49794.27581421 0 11568.62230549 0 -11354.64283161 0 57
0.00850000 0.00846663 57491.49535914 0 6311.97706584 0 37297.78666277 0 31902.27445654 0 -17395.71836844 0 75
0.00950000 0.00948925 59571.53402314 0 2582.83550477 0 49628.51861396 0 21259.76146538 0 19978.96030240 0 112
0.01050000 0.01054430 57160.53018726 0 -5870.66087781 0 43445.30270792 0 12599.85397943 0 14463.05718068 0 105
0.01150000 0.01145670 57392.96374308 0 3905.14736754 0 32998.75449161 0 4138.18507485 0 806.54334024 0 144
0.01250000 0.01249090 50776.40644871 0 1539.65261586 0 32913.29451693 0 4080.90052884 0 9626.18738222 0 169
0.01350000 0.01339930 59724.21958202 0 -3186.69041328 0 22051.74914850 0 9073.27892133 0 -3878.45485617 0 180
0.01450000 0.01448870 58976.93910931 0 -4208.90375313 0 21062.91792473 0 -3085.21493178 0 -24555.13323979 0 267
0.01550000 0.01550050 70627.83586344 0 -2147.95627627 0 9008.76652656 0 412.97489231 0 -18678.38690877 0 238
0.01650000 0.01653350 66007.28525282 0 -2533.19622127 0 16893.28401857 0 -8520.04092328 0 -23244.45403938 0 315
0.01750000 0.01747870 75172.04369462 0 -193.07363535 0 17374.07876046 0 -16551.66381129 0 -39871.03263568 0 297
0.01850000 0.01844180 69610.88413386 0 6404.64292013 0 19258.04280389 0 3368.39721292 0 -31076.89367278 0 388
0.01950000 0.01947590 76746.24279125 0 -3026.52436047 0 23055.29969953 0 -1610.50310901 0 -28973.89725208 0 399
0.02050000 0.02045430 68848.77448817 0 -3627.96266302 0 17811.92382355 0 4044.21205642 0 -20744.80470277 0 462
0.02150000 0.02154770 77150.91444514 0 2393.09898257 0 24814.03961553 0 6761.03737753 0 -21541.40590637 0 571
0.02250000 0.02255340 73772.49930203 0 3198.33406022 0 24181.10854339 0 -6757.93972807 0 -11122.09943006 0 510
0.02350000 0.02348930 70739.54896659 0 1465.38592064 0 21365.87243652 0 2290.15156834 0 -12719.58582057 0 555
0.02450000 0.02439640 70632.01000102 0 1484.41120035 0 33171.43197259 0 -6680.07009304 0 -9197.25080749 0 592
0.02550000 0.02547300 63378.56718838 0 3810.25164501 0 40015.04038222 0 -5365.57924595 0 -7351.08467831 0 837
0.02650000 0.02652900 63357.14727185 0 2902.57444347 0 39593.67217800 0 5398.26933395 0 -2566.08403158 0 723
0.02750000 0.02749970 64249.09456545 0 -1746.37128727 0 39949.90186681 0 9152.73033482 0 -11620.90887098 0 826
0.02850000 0.02848090 59899.75305187 0 3527.10231758 0 32521.36496723 0 7202.86984047 0 -2049.09512304 0 831
0.02950000 0.02946900 63359.56387782 0 -2747.39538661 0 28361.39748495 0 6228.14280790 0 10439.22150640 0 996
0.03050000 0.03053250 58556.12013372 0 777.33755866 0 23546.20024819 0 11457.45843097 0 190.58233429 0 1041
0.03150000 0.03150510 62258.69001371 0 3063.95978383 0 22904.15198081 0 -4532.53123052 0 4310.43415750 0 1036
0.03250000 0.03246190 57047.27924395 0 2978.19224112 0 18052.59580881 0 2546.43263123 0 8347.15473542 0 1059
0.03350000 0.03345080 54562.56892605 0 -1710.95702527 0 19332.07882308 0 -1022.29462568 0 1395.39222415 0 1302
0.03450000 0.03451200 51666.48636498 0 3938.93591280 0 19426.76583873 0 2478.19646636 0 360.50817983 0 1339
0.03550000 0.03553350 52525.04055793 0 2153.85499175 0 21425.29897418 0 -3192.75389735 0 681.66522685 0 1365
0.03650000 0.03647120 46004.92781083 0 322.05888043 0 20127.36187797 0 397.89197570 0 -97.35099419 0 1308
0.03750000 0.03744890 46837.88794967 0 962.32435168 0 20048.49264684 0 4648.44044040 0 -3345.79096255 0 1579
0.03850000 0.03847530 44420.40321597 0 -39.72988088 0 18752.75246514 0 -1270.28892702 0 -319.23474682 0 1662
0.03950000 0.03950240 46587.98892344 0 -506.50852784 0 16276.39042241 0 4023.37432223 0 -5299.41916529 0 1683
0.04050000 0.04050350 47452.36493987 0 290.77152234 0 17545.43809273 0 3289.94539555 0 -1758.72893143 0 1822
0.04150000 0.04152450 45004.01355721 0 1755.19189906 0 13834.30024612 0 -1365.26154156 0 -1200.65772143 0 1887
0.04250000 0.04250150 43338.09327953 0 973.15404178 0 14546.75962375 0 -1719.54696103 0 -2764.35556668 0 1920
0.04350000 0.04349210 43813.06619795 0 835.15156107 0 16236.51642394 0 1124.24903456 0 -2248.71776056 0 2005
0.04450000 0.04448520 40128.40117126 0 1611.88716516 0 16545.40260492 0 -1377.04798794 0 -1663.20708826 0 2151
0.04550000 0.04548030 39800.73137116 0 904.06217871 0 17347.49609481 0 1749.89733507 0 -3777.14414325 0 2274
0.04650000 0.04648670 40011.63516472 0 625.14301018 0 16778.60508082 0 109.24915368 0 -4173.06109280 0 2311
0.04750000 0.04749250 38658.11613125 0 745.89421965 0 16754.65871260 0 89.76515821 0 -5392.62326364 0 2568
0.04850000 0.04851840 37492.10375174 0 63.45765611 0 17534.45352015 0 -2205.47149831 0 -2382.16933285 0 2493
0.04950000 0.04949480 36462.40991796 0 -174.32296995 0 16974.78954713 0 1880.78950195 0 -2561.81103285 0 2644
0.05050000 0.05050630 36395.73356239 0 1204.39247611 0 16395.24349774 0 1010.17644521 0 -5435.41915842 0 2829
0.05150000 0.05149060 35530.47878016 0 1772.11912540 0 15783.95203358 0 497.11012754 0 -4183.11197671 0 2784
0.05250000 0.05249300 35902.08687059 0 -1038.48808258 0 17896.72472388 0 2763.64156946 0 -1091.52159901 0 3055
0.05350000 0.05348950 35186.77150409 0 -987.72507731 0 13928.54787887 0 1620.10362545 0 -2430.50145221 0 3009
0.05450000 0.05448610 35696.67536332 0 1369.54552487 0 14377.81689745 0 -167.09621965 0 -4715.81980861 0 3336
0.05550000 0.05550870 33921.89797135 0 1685.40690945 0 14578.39519278 0 -3514.51399740 0 -726.41857246 0 3349
0.05650000 0.05647670 33739.22452932 0 258.04298834 0 15982.22356868 0 2031.11337773 0 -3713.42263770 0 3324
0.05750000 0.05747970 33738.56545497 0 -364.32092498 0 17403.07803207 0 -358.01248494 0 -4012.19202734 0 3639
0.05850000 0.05849280 32288.71171996 0 559.42560779 0 14894.97057458 0 838.14046327 0 -1469.05476788 0 3846
0.05950000 0.05951020 33517.33616318 0 -92.22108895 0 16469.49920839 0 1769.50479713 0 -2226.99027600 0 3787
0.06050000 0.06049470 32631.97961312 0 175.57740814 0 13817.82338725 0 1935.08624422 0 -1484.52104608 0 3930
0.06150000 0.06148310 32513.01669207 0 652.39683321 0 15570.52178833 0 694.99830105 0 -588.65445698 0 4083
0.06250000 0.06249100 31988.61319703 0 587.88114307 0 13990.61071395 0 714.48163744 0 3515.20602547 0 4303
0.06350000 0.06350600 31167.84593375 0 164.86195759 0 14141.97812412 0 1500.30587688 0 1304.93426895 0 4470
0.06450000 0.06451750 30397.60770435 0 498.62270318 0 14936.60210466 0 526.15004207 0 4235.66217194 0 4479
0.06550000 0.06550280 30405.84613379 0 468.36350110 0 13294.95773238 0 1997.42369362 0 4417.36897158 0 4636
0.06650000 0.06648880 30702.86897639 0 -321.65354970 0 13196.31627060 0 901.30395253 0 5113.59315093 0 4653
0.06750000 0.06749660 29332.43370114 0 833.62800086 0 13578.79908788 0 -870.09568337 0 3858.35308834 0 5220
0.06850000 0.06852730 29098.90168806 0 672.35030930 0 13957.98653339 0 131.48533380 0 4800.28018719 0 5029
0.06950000 0.06949320 29542.23903744 0 -397.21752294 0 13002.43856454 0 149.23200926 0 2893.11672647 0 5040
0.07050000 0.07048030 28754.31564618 0 426.53315025 0 15025.68698829 0 -1841.56359326 0 884.47009505 0 5475
0.07150000 0.07148790 26956.91003470 0 1932.18631706 0 15439.25614598 0 -376.16998342 0 1136.16729581 0 5509
0.07250000 0.07249820 26762.37325428 0 136.32953031 0 15417.72638372 0 1901.09997665 0 2805.50377557 0 5916
0.07350000 0.07351270 26727.33246775 0 -436.63126782 0 13014.52159438 0 2219.61962779 0 619.98135952 0 5721
0.07450000 0.07449140 27137.16687076 0 -588.76430270 0 11763.92800599 0 2847.62961141 0 1148.18441821 0 6028
0.07550000 0.07549160 26885.51031292 0 178.59157486 0 10868.80617091 0 -393.85075145 0 1278.76901706 0 6183
0.07650000 0.07648840 26005.53620343 0 1010.51806542 0 10666.17376050 0 107.82862875 0 2421.69182500 0 6330
0.07750000 0.07749960 25145.99339894 0 236.45171247 0 9393.61102695 0 447.45546564 0 2625.68632241 0 6583
0.07850000 0.07848650 24888.29532618 0 41.51542315 0 9042.12667349 0 1605.14263759 0 -349.54887177 0 6549
0.07950000 0.07947320 25040.87103933 0 287.60467007 0 8393.07024881 0 466.12045137 0 47.39656331 0 6828
0.08050000 0.08048110 24610.38563987 0 988.43248379 0 8519.35987978 0 -923.16764580 0 -437.96589339 0 7147
0.08150000 0.08149960 23089.46172026 0 396.52988870 0 9230.95147617 0 -1180.50103074 0 -23.19711053 0 7386
0.08250000 0.08250610 22833.30148766 0 73.76964331 0 9658.53694847 0 1067.42584059 0 -598.03088813 0 7227
0.08350000 0.08350160 22450.81867038 0 -23.57827520 0 8115.81963685 0 858.09174245 0 -545.69049824 0 7798
0.08450000 0.08449610 22997.63069348 0 -107.76722499 0 7758.51345993 0 1843.13438714 0 510.29710692 0 7371
0.08550000 0.08548940 22613.17065313 0 394.99204854 0 7099.73568851 0 -2.63871403 0 326.41426346 0 8256
0.08650000 0.08650700 22027.03386019 0 826.91313164 0 7823.88265136 0 -572.25449011 0 785.03115330 0 8037
0.08750000 0.08749060 21694.97023106 0 388.93954905 0 8244.15239832 0 294.43377884 0 2144.99044168 0 8155
0.08850000 0.08849210 20741.28963954 0 59.32877497 0 7957.44406938 0 370.99295436 0 570.95281826 0 8718
0.08950000 0.08949900 20336.83767710 0 655.58235926 0 8209.27638038 0 -224.83442851 0 600.18606127 0 8571
0.09050000 0.09049190 20089.02571966 0 107.35014077 0 8031.40319657 0 228.02984067 0 1760.05806471 0 8932
0.09150000 0.09150830 19374.14973607 0 278.49186865 0 8421.52029179 0 824.37130154 0 2218.82873857 0 9285
0.09250000 0.09250820 19356.46457421 0 277.27148264 0 7660.23448904 0 683.25030067 0 389.89520686 0 9204
0.09350000 0.09350330 19203.88886106 0 217.21003668 0 7813.96358232 0 91.31793739 0 1814.68434416 0 9349
0.09450000 0.09448040 18596.55184304 0 154.88027648 0 6704.73045848 0 25.41709265 0 1077.92159969 0 9564
0.09550000 0.09549270 18345.66420528 0 283.72821440 0 8091.80736119 0 -687.95938694 0 1044.85364239 0 10155
0.09650000 0.09649430 17972.73796614 0 665.93202354 0 7530.59456344 0 510.04995404 0 1223.60449355 0 9913
0.09750000 0.09749140 17852.34705065 0 -383.97781761 0 8138.97511586 0 -387.31822613 0 -275.12839253 0 10476
0.09850000 0.09850240 17989.32467074 0 231.34278776 0 6935.68109701 0 807.59126847 0 277.37254071 0 10575
0.09950000 0.09950330 17681.20740983 0 94.84563288 0 7620.34950600 0 411.95662243 0 654.53772640 0 10882
0.10050000 0.10051200 17371.66215449 0 33.51195372 0 7040.92428691 0 19.14995461 0 296.37255590 0 10875
0.10150000 0.10150300 17271.70254400 0 371.76626827 0 7019.17483320 0 853.30576418 0 1024.68047485 0 11118
0.10250000 0.10250800 17269.17609231 0 15.87424522 0 6451.68984450 0 469.49820744 0 821.40656540 0 11575
0.10350000 0.10349800 16806.83543236 0 298.90010605 0 6247.12414932 0 -383.16276233 0 406.91360516 0 11364
0.10450000 0.10450100 16486.63514161 0 369.25519498 0 6542.70801291 0 548.65413592 0 1026.77413438 0 12093
0.10550000 0.10551000 16080.86503046 0 45.22996622 0 6232.21808432 0 -34.52659869 0 561.06889985 0 12067
0.10650000 0.10649700 15596.99460825 0 241.16299565 0 6031.20040608 0 -196.68865818 0 -71.89281924 0 12054
0.10750000 0.10749900 15739.13497745 0 338.61922205 0 6374.22663866 0 -101.71758149 0 330.11276904 0 12807
0.10850000 0.10850100 15277.89277476 0 104.99790440 0 5613.27037308 0 -134.85100684 0 -462.88439629 0 12736
0.10950000 0.10950300 15350.28110807 0 -57.04969585 0 5945.83929256 0 836.06877288 0 -291.15598238 0 12933
0.11050000 0.11050200 15247.24581726 0 -135.32993420 0 5577.55952762 0 213.36323936 0 370.67330330 0 13428
0.11150000 0.11150900 15153.54741314 0 253.13947514 0 5217.21062409 0 422.87089375 0 374.57062965 0 13453
0.11250000 0.11250000 15130.80934790 0 285.93281812 0 5645.55403190 0 196.78312551 0 409.56088715 0 13668
0.11350000 0.11349100 14876.51649264 0 94.90725633 0 5726.33457866 0 -343.52163679 0 521.85507419 0 13791
0.11450000 0.11448600 14860.69870812 0 250.35708290 0 5950.31001360 0 93.32174313 0 600.06523097 0 14205
0.11550000 0.11549300 14520.50649528 0 5.77923628 0 5948.25589852 0 321.21746217 0 1121.41501483 0 14776
0.11650000 0.11649800 14618.48888270 0 67.15901769 0 5892.89365271 0 349.37202015 0 580.45667046 0 14553
0.11750000 0.11747300 14165.04572655 0 152.43620908 0 5789.90230019 0 -36.56676336 0 1016.12239435 0 14568
0.11850000 0.11849100 14033.01116412 0 242.50970425 0 5361.24033978 0 -214.32988175 0 1024.23010737 0 16015
0.11950000 0.11950300 13967.87264871 0 169.59411146 0 6052.47752317 0 604.88745834 0 1090.76476196 0 15270
0.12050000 0.12050700 13818.70215306 0 86.36762992 0 5382.56139516 0 306.24109591 0 422.88187832 0 15999
0.12150000 0.12150000 13734.45048136 0 162.01585483 0 6083.51992529 0 -231.88652411 0 492.07150410 0 15670
0.12250000 0.12250700 13098.44372890 0 279.82539577 0 5161.62868683 0 -52.25745637 0 814.93665215 0 16887
0.12350000 0.12352200 13279.03010213 0 -230.81992211 0 5335.78908511 0 684.20486003 0 1122.61233324 0 16407
0.12450000 0.12449800 13512.67196094 0 -181.66286135 0 4879.56683208 0 761.50769112 0 1002.55864413 0 16306
0.12550000 0.12549900 13467.96475053 0 264.97205672 0 4329.84389725 0 503.75689241 0 1030.99330871 0 17523
0.12650000 0.12650100 13203.56608850 0 6.95163070 0 3902.93946845 0 -188.59632356 0 1896.85993164 0 17154
0.12750000 0.12750600 13092.84159688 0 114.11323226 0 4257.44457937 0 149.58900787 0 1382.94670342 0 18007
0.12850000 0.12850300 12988.70784881 0 242.48663665 0 4210.35371671 0 358.48701848 0 1798.65785276 0 17496
0.12950000 0.12949900 12824.48848872 0 147.64254161 0 4058.85449167 0 -313.29319151 0 987.80416624 0 18405
0.13050000 0.13049000 12610.28932338 0 344.87164076 0 4342.17957226 0 -427.37896234 0 709.72641597 0 18100
0.13150000 0.13148800 11935.17749253 0 265.75635520 0 4573.42679424 0 -228.20559383 0 748.98417992 0 19059
0.13250000 0.13249300 11891.89827656 0 61.80414840 0 4425.57444730 0 516.18373937 0 1172.10881729 0 18957
0.13350000 0.13349100 11968.57059318 0 -62.20530499 0 4602.48098872 0 522.60092667 0 506.42504509 0 19468
0.13450000 0.13450700 12089.73042875 0 27.28677675 0 3874.31367230 0 305.00642995 0 623.67107745 0 19953
0.13550000 0.13551000 11987.24436657 0 -59.31350641 0 3731.45930588 0 127.73629918 0 1251.48333877 0 19956
0.13650000 0.13649900 11946.16206511 0 104.13825175 0 3377.39357787 0 349.20395619 0 953.84755702 0 19723
0.13750000 0.13749600 11624.31408848 0 111.27591716 0 3492.01759275 0 -90.28143313 0 1195.94533979 0 20946
0.13850000 0.13851100 11262.15273047 0 388.41997876 0 3816.08445305 0 -151.77383936 0 538.39454513 0 20955
0.13950000 0.13949800 11201.07850692 0 314.88815145 0 3933.26787335 0 -123.67200732 0 1646.01623217 0 20506
0.14050000 0.14048300 11132.20523684 0 -87.97401381 0 3786.16247734 0 246.98262221 0 591.40060012 0 21447
0.14150000 0.14148400 11017.30660764 0 -125.39219139 0 3402.40544964 0 278.59622209 0 454.26260527 0 21771
0.14250000 0.14249400 11055.64276594 0 146.47707846 0 3256.13488114 0 -24.56139445 0 433.89720771 0 22470
0.14350000 0.14350900 10871.91480495 0 357.84332253 0 3506.04489194 0 -633.12110524 0 74.58788412 0 22519
0.14450000 0.14449900 10458.52140042 0 256.60510779 0 3835.53813109 0 -296.21547651 0 -119.43086385 0 22218
0.14550000 0.14550500 10365.10859519 0 52.74648954 0 3690.58571131 0 339.79457132 0 -77.91137640 0 23559
0.14650000 0.14650700 10288.12871054 0 -173.69794777 0 3541.47013852 0 538.29348706 0 -303.39169778 0 23044
0.14750000 0.14750500 10354.65128209 0 -3.47431046 0 2841.02788329 0 384.09974637 0 -409.33350650 0 23649
0.14850000 0.14849900 10141.96798777 0 198.91413259 0 2895.17084155 0 -11.68923291 0 -77.12356286 0 23640
0.14950000 0.14949500 10051.00474223 0 94.12394646 0 2579.69391701 0 146.80771409 0 147.30421677 0 24457
0.15050000 0.15050000 10063.12072578 0 39.53182903 0 2807.11850773 0 156.40932899 0 -209.55049422 0 24591
0.15150000 0.15149900 9862.69621447 0 155.31526556 0 2760.08256794 0 -49.38960416 0 -265.17527131 0 25020
0.15250000 0.15250500 9783.18987812 0 43.97761510 0 2639.57082215 0 -86.72781405 0 157.93398766 0 25297
0.15350000 0.15350100 9773.12800964 0 -110.58279063 0 2424.37206071 0 281.86303398 0 -56.37908769 0 25452
0.15450000 0.15450400 9868.55099165 0 92.53557727 0 2784.54521108 0 -60.71162281 0 -361.03104549 0 26061
0.15550000 0.15549900 9701.49761183 0 221.66537932 0 2517.96061910 0 -286.84124227 0 -231.18680683 0 26128
0.15650000 0.15649500 9603.00993407 0 95.69605849 0 2860.43762304 0 119.67252444 0 -224.71140130 0 26331
0.15750000 0.15749700 9588.89475830 0 82.03136004 0 2899.86125404 0 -84.56967508 0 -299.17472037 0 27345
0.15850000 0.15849900 9409.45078061 0 -36.98176051 0 2771.24289368 0 368.22374361 0 -429.36387460 0 26980
0.15950000 0.15949700 9359.03159247 0 59.32778636 0 2573.11415803 0 -72.10053751 0 -282.71214144 0 27777
0.16050000 0.16050000 9243.08942887 0 189.24441335 0 2719.17601965 0 -8.80881435 0 9.25338197 0 28224
0.16150000 0.16150500 9135.36372556 0 117.48769296 0 2509.53545193 0 165.40898930 0 211.83089149 0 28075
0.16250000 0.16249700 9047.10268487 0 37.04656949 0 2540.67671520 0 399.43091432 0 -35.66580871 0 28590
0.16350000 0.16349900 8807.04583568 0 94.89956713 0 2180.71227171 0 187.10242169 0 320.29036424 0 29163
0.16450000 0.16449100 8538.33023662 0 293.03983658 0 2631.17860870 0 -56.63755469 0 673.58277835 0 28996
0.16550000 0.16550500 8352.08680851 0 228.38354391 0 2563.75530220 0 -393.82768384 0 235.01602884 0 30777
0.16650000 0.16650700 8346.15513931 0 42.28522200 0 2743.42995591 0 73.94528663 0 200.75295004 0 29211
0.16750000 0.16749900 8309.60946633 0 22.69313834 0 2572.66379056 0 92.98297891 0 69.87242681 0 30922
0.16850000 0.16850800 8142.97350028 0 6.33830709 0 2467.89293728 0 -64.07916323 0 12.32337229 0 30867
0.16950000 0.16949900 8222.38097547 0 34.03174370 0 2678.35734794 0 53.51387178 0 -189.68159933 0 30852
0.17050000 0.17049200 8113.04053999 0 17.91528865 0 2493.82751314 0 237.63365248 0 54.45964348 0 31257
0.17150000 0.17149500 8195.90815555 0 -19.21399467 0 2377.34710549 0 239.04407160 0 235.86403784 0 32608
0.17250000 0.17250900 8277.34777666 0 57.03354853 0 2176.50518041 0 87.63656774 0 25.78760228 0 32361
0.17350000 0.17350400 8016.73879217 0 178.27851454 0 2195.20092295 0 -74.99134748 0 -8.61355259 0 32508
0.17450000 0.17449800 7893.65665640 0 190.73062602 0 2167.08041714 0 9.12272048 0 586.97491583 0 32791
0.17550000 0.17549800 7613.03378066 0 67.80677793 0 2619.79859151 0 -26.16503220 0 497.64617468 0 33633
0.17650000 0.17650100 7594.90923590 0 106.62373098 0 2360.66153974 0 85.26609698 0 210.78625864 0 33984
0.17750000 0.17750300 7580.61830697 0 98.59038352 0 2368.54846285 0 -45.11858265 0 421.84273776 0 34069
0.17850000 0.17849800 7590.86691319 0 -50.65261032 0 2268.73165181 0 70.31224909 0 194.37530720 0 34536
