### header ###
fiducial parameters:
Omega_m = 0.31
Omega_nu = 0
Omega_de = 0.69
Omega_k = 0
H_0 = 100
w_de = -1
zeff = 0
beta = 0
fgrowth = 0
b_1 = 2
gamma = 0.55
Lx = 3500 Ly = 3500 Lz = 3500
nx = 700 ny = 700 nz = 700
xoffset = -983.599254 yoffset = -42.9823471 zoffset = 800.977702
bins = 400 dk = 0.001
kx_ny = 0.628318531 ky_ny = 0.628318531 kz_ny = 0.628318531
############################
A(data) = 9.11996444 (not used)
A(ran) = 9.11151971 (used)
Ngal = 506649
weighted Ngal = 0
Nran = 25229228
weighted Nran = 0
SN(data) = 6713.119
SN(ran) = 135.254233
SN(data+ran) = 6848.37323
############################
13 columns: k_central k_mean P_0(k) sigma^{lin}_{P_0(k)} P^img_1(k) sigma^{lin}_{P_1(k)} P_2(k) sigma^{lin}_{P_2(k)} P^img_3(k) sigma^{lin}_{P_3(k)} P_4(k) sigma^{lin}_{P_4(k)} N_modes
### header ###
0.00050000 0 0 0 0 0 0 0 0 0 0 0 0
0.00150000 0.00179520 40879.96562728 0 -7886.65948366 0 -3043.86900058 0 8120.86155567 0 -44733.24384308 0 3
0.00250000 0.00253879 67390.79216944 0 -8891.13273879 0 -10698.96270966 0 -42361.12539414 0 48408.02275445 0 6
0.00350000 0.00331552 48134.17735999 0 14284.00864760 0 -1150.17262585 0 -17063.87443076 0 11712.08082341 0 7
0.00450000 0.00420575 59166.31314061 0 4496.13934156 0 1800.17372378 0 -11772.71566405 0 -3047.85640043 0 24
0.00550000 0.00557378 58173.19793354 0 -5040.54574326 0 1739.90137402 0 -5772.40387607 0 3292.41692438 0 45
0.00650000 0.00659388 63660.65101227 0 -17318.05744029 0 -15719.03320963 0 29272.78747202 0 28559.22963714 0 40
0.00750000 0.00754703 73486.79056919 0 -21177.37717102 0 -37477.38442448 0 3941.05593531 0 -15664.76942108 0 57
0.00850000 0.00846663 86473.41134920 0 3450.85839929 0 -31832.52242065 0 -5724.20357158 0 -4038.93946158 0 75
0.00950000 0.00948925 83713.09810524 0 2674.77637727 0 -9011.06230223 0 -25650.95420050 0 2060.87058485 0 112
0.01050000 0.01054430 70087.39489244 0 10729.41194485 0 6606.26474986 0 -24097.73563750 0 6247.06922645 0 105
0.01150000 0.01145670 69803.00430831 0 7512.65675641 0 2197.26602259 0 1610.64590846 0 -8836.78107366 0 144
0.01250000 0.01249090 64405.07549611 0 6033.33141317 0 32541.79627223 0 7440.98242032 0 3641.98996221 0 169
0.01350000 0.01339930 65976.96783250 0 1277.86828211 0 26958.44787486 0 -1564.63153391 0 3639.84797055 0 180
0.01450000 0.01448870 64279.08244860 0 -3491.25965725 0 23742.05517732 0 3054.05169936 0 982.34153829 0 267
0.01550000 0.01550050 66844.74906643 0 5066.49130370 0 29862.65901964 0 4583.07124897 0 8139.76600508 0 238
0.01650000 0.01653350 65309.21566528 0 -4559.84986253 0 31300.75926199 0 3015.71554105 0 8738.19453474 0 315
0.01750000 0.01747870 69707.10898967 0 -4991.93900959 0 21715.51138178 0 14659.79087561 0 15844.36718278 0 297
0.01850000 0.01844180 77511.42811726 0 -5749.20445878 0 12864.36248719 0 12746.27833194 0 5953.23190990 0 388
0.01950000 0.01947590 79510.18094417 0 857.50846165 0 9063.42575973 0 2212.53457848 0 10315.63408028 0 399
0.02050000 0.02045430 79829.72216056 0 4111.13007258 0 15640.38366995 0 -4502.33464050 0 7385.22472990 0 462
0.02150000 0.02154770 77509.56073993 0 2387.13435966 0 22632.39365515 0 -6406.15879115 0 11408.68692871 0 571
0.02250000 0.02255340 73480.63920854 0 261.97876069 0 13464.12015013 0 9016.33489707 0 9919.64023873 0 510
0.02350000 0.02348930 75892.96119313 0 -2307.25454785 0 12840.52596469 0 4922.53848002 0 3791.85248593 0 555
0.02450000 0.02439640 74833.71885911 0 -285.31878051 0 13137.87834446 0 9551.26161264 0 14629.58330101 0 592
0.02550000 0.02547300 73756.13228888 0 2303.24517886 0 6275.29957799 0 628.55921225 0 -45.74030946 0 837
0.02650000 0.02652900 72213.01953265 0 4515.05477554 0 12615.01268959 0 -11741.84901510 0 2930.85971786 0 723
0.02750000 0.02749970 62099.30386556 0 4491.85535825 0 12888.74823832 0 -4406.37341443 0 -1451.56732833 0 826
0.02850000 0.02848090 57393.51297171 0 409.85966753 0 14334.09829857 0 2125.35002590 0 -286.22171238 0 831
0.02950000 0.02946900 61621.14542109 0 3124.58363991 0 20060.13629377 0 -567.62009894 0 -20948.56852415 0 996
0.03050000 0.03053250 53346.68658702 0 3115.68613612 0 17151.09193706 0 -3889.17579901 0 -4579.69898519 0 1041
0.03150000 0.03150510 53108.43120773 0 -460.59191599 0 18719.57905595 0 2238.79869152 0 -2047.60122117 0 1036
0.03250000 0.03246190 53064.49291740 0 -2766.56346576 0 11655.07089171 0 4403.82499359 0 -18163.86952906 0 1059
0.03350000 0.03345080 57458.87117857 0 3009.77288729 0 16787.72227607 0 982.78311811 0 -14036.74591880 0 1302
0.03450000 0.03451200 52889.72836764 0 792.65224976 0 15760.22535681 0 -382.72118251 0 296.67573011 0 1339
0.03550000 0.03553350 48212.82689968 0 263.64621881 0 15557.77968413 0 -3794.41189135 0 -7051.65621432 0 1365
0.03650000 0.03647120 49920.15901599 0 3391.06937073 0 19571.54250536 0 -2396.60306122 0 -8208.48549115 0 1308
0.03750000 0.03744890 47442.47882455 0 1905.95515773 0 19458.95063640 0 3157.04305189 0 -619.99344255 0 1579
0.03850000 0.03847530 45931.88040316 0 -358.66167318 0 22397.65333908 0 2983.79437313 0 -619.55845348 0 1662
0.03950000 0.03950240 48292.57489662 0 -407.86157377 0 19413.69419736 0 1924.91453001 0 -4812.46207818 0 1683
0.04050000 0.04050350 44556.06268735 0 1735.59542157 0 19186.75292783 0 -698.05091377 0 402.30338005 0 1822
0.04150000 0.04152450 44873.29714350 0 876.57438428 0 17996.57448864 0 3617.02202873 0 3207.86866922 0 1887
0.04250000 0.04250150 43577.11757890 0 -1129.26898422 0 18820.63712370 0 963.62272816 0 611.30574410 0 1920
0.04350000 0.04349210 42950.33786741 0 931.37861380 0 17624.96639822 0 1387.06591814 0 3404.58039501 0 2005
0.04450000 0.04448520 42621.13022714 0 1763.72691195 0 17027.84503270 0 -1187.64100292 0 -5059.90056015 0 2151
0.04550000 0.04548030 41544.86180562 0 1509.09353494 0 16149.07922619 0 -3075.85607594 0 -1862.91760236 0 2274
0.04650000 0.04648670 38517.18406503 0 816.05817701 0 19648.76405060 0 243.92781257 0 -2501.84625113 0 2311
0.04750000 0.04749250 39347.28821500 0 -169.58092997 0 16994.01254914 0 4064.24791681 0 -3217.54607766 0 2568
0.04850000 0.04851840 37572.95020594 0 -60.10999777 0 13306.60137931 0 3711.52230665 0 -1886.09505051 0 2493
0.04950000 0.04949480 38600.22743374 0 632.92008756 0 12279.87338014 0 1905.77940457 0 -644.63952805 0 2644
0.05050000 0.05050630 36549.95696144 0 963.73586925 0 13025.83570413 0 -891.73089753 0 -2159.78666094 0 2829
0.05150000 0.05149060 36626.84896951 0 1124.66644831 0 12844.37056509 0 -337.10225258 0 517.32503646 0 2784
0.05250000 0.05249300 34575.48003994 0 611.77917917 0 13575.17417893 0 830.00968265 0 -301.98347558 0 3055
0.05350000 0.05348950 35167.76819353 0 -789.21188162 0 12759.56966476 0 179.85370225 0 2870.76312127 0 3009
0.05450000 0.05448610 35100.87214650 0 -257.72114036 0 13213.89158673 0 2416.44119931 0 -2417.83624002 0 3336
0.05550000 0.05550870 35155.90485514 0 742.02984701 0 11442.29972081 0 -233.02891966 0 2165.90506787 0 3349
0.05650000 0.05647670 34925.44852238 0 622.45069144 0 13561.88284610 0 619.36512500 0 1071.38468055 0 3324
0.05750000 0.05747970 33510.63557390 0 1524.97722690 0 13751.47656886 0 -1364.38277576 0 1080.21847382 0 3639
0.05850000 0.05849280 33291.60319663 0 508.12216155 0 13764.87774741 0 1276.07779677 0 832.32632901 0 3846
0.05950000 0.05951020 31912.70980050 0 113.31575229 0 14522.59356407 0 1540.45448966 0 2097.37231954 0 3787
0.06050000 0.06049470 30755.81461623 0 346.47758528 0 14268.74009171 0 -969.41049945 0 3285.56255109 0 3930
0.06150000 0.06148310 29880.23433577 0 1069.15810769 0 13191.48305866 0 576.49673204 0 -90.11600546 0 4083
0.06250000 0.06249100 29623.41502882 0 703.83868506 0 14185.69672300 0 -192.65622159 0 1809.78522478 0 4303
0.06350000 0.06350600 29128.88957121 0 -562.94396639 0 11364.08956403 0 2540.18240944 0 -224.09626523 0 4470
0.06450000 0.06451750 30344.22268161 0 78.78486962 0 11403.08479669 0 2234.85522996 0 42.08695046 0 4479
0.06550000 0.06550280 29391.42085590 0 161.31833447 0 9196.80044001 0 -300.69608367 0 1484.31233920 0 4636
0.06650000 0.06648880 29484.46018566 0 -152.67567277 0 8898.45944870 0 1129.09323106 0 572.43024327 0 4653
0.06750000 0.06749660 29314.96823073 0 -518.57727774 0 7665.77071362 0 1118.85560942 0 529.29712212 0 5220
0.06850000 0.06852730 29639.89188769 0 794.47349189 0 8221.06282676 0 -473.25712818 0 -839.08293960 0 5029
0.06950000 0.06949320 28833.29472304 0 836.21926153 0 8136.37177215 0 -1407.17867053 0 648.56761121 0 5040
0.07050000 0.07048030 28241.44595236 0 26.46963439 0 9406.23230085 0 -88.29311564 0 -1425.56684503 0 5475
0.07150000 0.07148790 27688.04318571 0 360.43568165 0 8688.92872671 0 1139.80318933 0 866.30600583 0 5509
0.07250000 0.07249820 27474.61294046 0 407.46063688 0 9019.30073167 0 110.40264364 0 421.89436525 0 5916
0.07350000 0.07351270 27432.54202747 0 344.73433361 0 8829.27861059 0 1148.05260334 0 -277.30883019 0 5721
0.07450000 0.07449140 26927.69107163 0 554.43751339 0 10119.36173740 0 -123.98396918 0 721.23055883 0 6028
0.07550000 0.07549160 26005.64604915 0 464.61556493 0 9410.81286761 0 -545.85087300 0 1564.77433336 0 6183
0.07650000 0.07648840 25710.60042962 0 134.70051819 0 8673.66017083 0 474.15346930 0 271.72756886 0 6330
0.07750000 0.07749960 25103.92248595 0 86.86314398 0 9425.58711774 0 277.32420859 0 1720.86510974 0 6583
0.07850000 0.07848650 25343.38616822 0 -412.32021179 0 8256.65284192 0 1713.35166209 0 880.46511989 0 6549
0.07950000 0.07947320 25870.75549785 0 158.41511194 0 7920.59082837 0 689.96846527 0 3.41722364 0 6828
0.08050000 0.08048110 24917.07490634 0 615.65893021 0 7513.95293598 0 -949.37903289 0 1311.60190450 0 7147
0.08150000 0.08149960 24670.80078907 0 556.13572831 0 7589.37301132 0 607.95215409 0 1582.25078833 0 7386
0.08250000 0.08250610 23905.28592587 0 710.09659606 0 8646.05593993 0 -718.91391247 0 553.37640367 0 7227
0.08350000 0.08350160 22730.26619685 0 979.55804760 0 8663.18088858 0 -128.85562712 0 -433.66653168 0 7798
0.08450000 0.08449610 21872.37107824 0 738.27751702 0 9592.48671354 0 -772.82949008 0 982.70622610 0 7371
0.08550000 0.08548940 20384.84025928 0 -51.03882789 0 9274.59318303 0 850.78041094 0 2098.20714705 0 8256
0.08650000 0.08650700 21122.56415384 0 304.81969222 0 9223.10849134 0 1702.21330550 0 548.03240911 0 8037
0.08750000 0.08749060 21133.87826360 0 -417.62466188 0 6985.13364277 0 1664.25062265 0 1527.77829290 0 8155
0.08850000 0.08849210 21483.95659177 0 -324.05258035 0 6808.28202421 0 757.80149633 0 547.29863966 0 8718
0.08950000 0.08949900 20648.36015551 0 592.11459734 0 5904.25170076 0 -1092.70024364 0 1089.96178970 0 8571
0.09050000 0.09049190 20197.99267967 0 614.09582553 0 5987.03143974 0 -30.80118090 0 2185.43563792 0 8932
0.09150000 0.09150830 19422.48185543 0 242.75795559 0 7198.38813486 0 -268.78699878 0 1214.50926746 0 9285
0.09250000 0.09250820 19359.54025454 0 597.32348166 0 6954.36585497 0 -88.78335712 0 -157.41551583 0 9204
0.09350000 0.09350330 18965.41379032 0 485.22042618 0 7357.76329844 0 -312.79559037 0 -872.83194040 0 9349
0.09450000 0.09448040 18210.00473390 0 232.99376902 0 7964.25450438 0 -107.58817646 0 912.00182777 0 9564
0.09550000 0.09549270 18218.13331761 0 95.84588806 0 7653.95131353 0 430.18771755 0 -57.02201473 0 10155
0.09650000 0.09649430 17992.07081389 0 -180.59955472 0 7586.29733100 0 900.53722936 0 945.79916069 0 9913
0.09750000 0.09749140 18242.07968584 0 -176.86260313 0 6419.09861765 0 1025.71192621 0 446.87108638 0 10476
0.09850000 0.09850240 18200.33831003 0 85.01806533 0 5850.60304828 0 1066.86672585 0 318.68332127 0 10575
0.09950000 0.09950330 17899.58071275 0 721.55460372 0 6220.95889743 0 -1460.80535388 0 -128.07462401 0 10882
0.10050000 0.10051200 17175.03830529 0 485.34125648 0 6372.49107619 0 -21.21648225 0 223.76453114 0 10875
0.10150000 0.10150300 16813.42617591 0 -206.13758752 0 6519.76124079 0 292.05342196 0 860.22274953 0 11118
0.10250000 0.10250800 16629.65427662 0 166.60740617 0 5774.28223798 0 411.11081034 0 -1563.82966012 0 11575
0.10350000 0.10349800 16590.98858113 0 324.29533940 0 5826.87637150 0 190.15393596 0 -294.23276116 0 11364
0.10450000 0.10450100 16125.68208659 0 262.90256325 0 5468.17515386 0 218.95109143 0 -558.10196680 0 12093
0.10550000 0.10551000 16209.93375829 0 110.44108965 0 5789.19928755 0 -179.08258525 0 -256.45461914 0 12067
0.10650000 0.10649700 15668.50417575 0 59.23771286 0 5495.15326412 0 573.92414514 0 -1067.29182881 0 12054
0.10750000 0.10749900 15941.14126722 0 79.02356438 0 5848.95536239 0 -207.98519263 0 -1017.43065695 0 12807
0.10850000 0.10850100 15328.42180864 0 393.78813938 0 5600.40743859 0 -688.86671264 0 -556.82116564 0 12736
0.10950000 0.10950300 14972.08227410 0 311.28740855 0 6090.72580490 0 147.19656796 0 -349.73231413 0 12933
0.11050000 0.11050200 15170.79319209 0 -247.52416163 0 5612.19388497 0 950.66862171 0 -267.34692131 0 13428
0.11150000 0.11150900 15050.95150523 0 -34.78462630 0 5342.56656639 0 1004.19973927 0 -424.84152607 0 13453
0.11250000 0.11250000 14968.34751942 0 292.19402449 0 4636.19264197 0 93.89261136 0 488.32137102 0 13668
0.11350000 0.11349100 14907.49298732 0 300.24901157 0 4685.75503346 0 68.49551063 0 338.06999342 0 13791
0.11450000 0.11448600 14432.08068600 0 233.14206075 0 4835.76035663 0 75.97973932 0 255.28915599 0 14205
0.11550000 0.11549300 14051.68493751 0 78.77432443 0 4511.02343741 0 -139.20419295 0 -245.95007238 0 14776
0.11650000 0.11649800 13814.08863257 0 105.51231193 0 4522.49133118 0 11.52325602 0 39.87410832 0 14553
0.11750000 0.11747300 14087.49464412 0 -2.47082582 0 4533.10242830 0 222.92091597 0 -383.86907034 0 14568
0.11850000 0.11849100 13960.18344790 0 -72.59264636 0 3884.28766421 0 550.91146559 0 -468.80398246 0 16015
0.11950000 0.11950300 13885.81789153 0 105.53559922 0 3663.19018729 0 -116.06738772 0 144.56686129 0 15270
0.12050000 0.12050700 14141.97812412 0 -99.55548806 0 3879.01506937 0 75.87143143 0 -468.58209409 0 15999
0.12150000 0.12150000 13924.26389556 0 213.75868398 0 3959.80660070 0 143.45851791 0 -434.71226299 0 15670
0.12250000 0.12250700 13481.25608336 0 415.78364752 0 3626.93011320 0 -84.96577876 0 546.75160795 0 16887
0.12350000 0.12352200 13292.10174351 0 144.53500603 0 4243.93355509 0 454.81952310 0 1097.16876777 0 16407
0.12450000 0.12449800 13510.36520070 0 -80.30304739 0 3869.18387691 0 561.15787489 0 722.32901609 0 16306
0.12550000 0.12549900 12969.26515534 0 39.10727530 0 3709.08373153 0 645.18985514 0 1435.76052839 0 17523
0.12650000 0.12650100 13186.64984673 0 50.27133580 0 3489.64492508 0 40.89391603 0 1791.70461832 0 17154
0.12750000 0.12750600 12881.16888324 0 248.75003993 0 3628.36909221 0 -285.87130451 0 1620.82860724 0 18007
0.12850000 0.12850300 12697.39698395 0 175.36540589 0 3340.32064541 0 -189.58932892 0 1506.70988269 0 17496
0.12950000 0.12949900 12894.57006179 0 -30.85544469 0 3751.92356460 0 213.23581832 0 1017.71296046 0 18405
0.13050000 0.13049000 12577.55529709 0 238.40916331 0 3689.97057524 0 -123.84885894 0 468.37778104 0 18100
0.13150000 0.13148800 12146.52066900 0 348.40647622 0 3971.74683110 0 -470.29788433 0 439.18298403 0 19059
0.13250000 0.13249300 12076.10955875 0 19.63909763 0 3778.42933824 0 -400.64580805 0 234.68429474 0 18957
0.13350000 0.13349100 11749.20867873 0 159.44546485 0 4467.65634486 0 345.51423826 0 -310.79639816 0 19468
0.13450000 0.13450700 11841.03970551 0 88.32848597 0 3643.91226241 0 -29.34429704 0 -203.33102922 0 19953
0.13550000 0.13551000 11540.94118259 0 111.67465715 0 4013.69691379 0 471.06460749 0 211.82430074 0 19956
0.13650000 0.13649900 11648.48014816 0 51.76842320 0 3388.88344079 0 494.98021892 0 273.92338492 0 19723
0.13750000 0.13749600 11780.18517341 0 -313.36129586 0 2986.07916423 0 921.00917728 0 596.72372399 0 20946
0.13850000 0.13851100 11688.79352953 0 121.62228608 0 2490.33441906 0 273.79706233 0 697.01397012 0 20955
0.13950000 0.13949800 11634.96912388 0 224.72348433 0 2631.02482468 0 -444.11835249 0 713.75885256 0 20506
0.14050000 0.14048300 11123.63727022 0 186.71686319 0 2713.98031682 0 -94.27102989 0 1118.62493339 0 21447
0.14150000 0.14148400 11253.47491813 0 194.76196415 0 2688.48512386 0 352.96507384 0 706.54088992 0 21771
0.14250000 0.14249400 10725.75408218 0 126.65761415 0 2763.26809399 0 -182.13849334 0 987.85359681 0 22470
0.14350000 0.14350900 10823.03345696 0 215.53928319 0 2532.22957889 0 111.84601648 0 564.96073392 0 22519
0.14450000 0.14449900 10631.59432601 0 -80.87259748 0 3067.67256936 0 -178.63990698 0 989.60783305 0 22218
0.14550000 0.14550500 10480.68826789 0 62.82263797 0 2855.65933397 0 76.05685102 0 383.66915112 0 23559
0.14650000 0.14650700 10274.79343943 0 314.03135478 0 2949.34675352 0 -269.44277776 0 756.37569881 0 23044
0.14750000 0.14750500 10122.17378798 0 296.84599098 0 3180.89055896 0 -201.46475034 0 319.59504080 0 23649
0.14850000 0.14849900 9866.85936747 0 113.98471276 0 3489.05175816 0 140.07966339 0 493.13810610 0 23640
0.14950000 0.14949500 9815.55042895 0 140.78267603 0 3390.06977463 0 27.15221574 0 449.83692098 0 24457
0.15050000 0.15050000 9650.18867331 0 1.09033417 0 3368.67182724 0 53.35613332 0 140.05110350 0 24591
0.15150000 0.15149900 9627.36273148 0 23.43635452 0 2976.02828032 0 178.85410614 0 230.42118212 0 25020
0.15250000 0.15250500 9552.75551451 0 60.30925792 0 3113.39036045 0 340.99957893 0 583.01168204 0 25297
0.15350000 0.15350100 9569.04563565 0 15.08028031 0 2830.23004845 0 32.83112991 0 378.26144604 0 25452
0.15450000 0.15450400 9401.67370323 0 106.14315593 0 2758.66555808 0 99.27362393 0 137.15996399 0 26061
0.15550000 0.15549900 9304.63598904 0 38.22027107 0 2699.96400220 0 458.82120289 0 913.97026317 0 26128
0.15650000 0.15649500 9369.13739924 0 -96.97048860 0 2210.56833999 0 374.29491688 0 613.76189453 0 26331
0.15750000 0.15749700 9543.93490273 0 162.57826495 0 2168.54136529 0 6.11285972 0 589.78257258 0 27345
0.15850000 0.15849900 9146.21648327 0 75.59527928 0 2094.63716096 0 -253.71726365 0 510.84853247 0 26980
0.15950000 0.15949700 8972.46251418 0 259.65662205 0 2564.27157711 0 -404.16416664 0 697.66755219 0 27777
0.16050000 0.16050000 8711.35922392 0 286.46447143 0 2809.89760460 0 -292.83003125 0 360.30826061 0 28224
0.16150000 0.16150500 8525.92865418 0 98.10036174 0 3071.26452460 0 -59.69598923 0 143.52332689 0 28075
0.16250000 0.16249700 8494.29308514 0 58.86544570 0 3002.96245229 0 -68.42828505 0 6.58817316 0 28590
0.16350000 0.16349900 8661.37941868 0 -28.42181263 0 3095.51846086 0 326.74709600 0 -76.74909878 0 29163
0.16450000 0.16449100 8329.95289476 0 -49.18452219 0 2734.79608186 0 158.19432203 0 245.98741993 0 28996
0.16550000 0.16550500 8648.68125278 0 5.84336421 0 2652.70837096 0 503.15933166 0 483.03120086 0 30777
0.16650000 0.16650700 8516.86638180 0 47.40853650 0 2376.65507742 0 -34.91237688 0 360.40931868 0 29211
0.16750000 0.16749900 8629.78778794 0 86.20923238 0 2307.30947071 0 177.57330498 0 386.77668670 0 30922
0.16850000 0.16850800 8295.59315172 0 158.16686060 0 2701.51282694 0 -416.97327673 0 541.66684930 0 30867
0.16950000 0.16949900 8115.50108425 0 79.94670786 0 2302.08081416 0 132.53875431 0 456.50345808 0 30852
0.17050000 0.17049200 8342.28856976 0 49.10554311 0 2592.00762287 0 384.64458117 0 201.15937922 0 31257
0.17150000 0.17149500 8072.50746717 0 60.47842034 0 2313.72446110 0 1.14973324 0 591.31492046 0 32608
0.17250000 0.17250900 8080.16371426 0 -1.52237388 0 2294.36964421 0 184.69460338 0 548.11149804 0 32361
0.17350000 0.17350400 7944.30652057 0 40.60655962 0 2169.21142422 0 65.00505285 0 584.74175222 0 32508
0.17450000 0.17449800 8113.74355264 0 78.36822478 0 2125.18525731 0 26.87793096 0 514.48222908 0 32791
0.17550000 0.17549800 7730.84332160 0 12.26284729 0 2017.75613747 0 89.26305340 0 660.73302534 0 33633
0.17650000 0.17650100 7771.69494703 0 145.50054996 0 2103.74337163 0 30.08048309 0 525.73152986 0 33984
0.17750000 0.17750300 7817.31387696 0 171.11108093 0 2139.70686227 0 26.63242576 0 685.72073105 0 34069
0.17850000 0.17849800 7487.57897721 0 146.39579262 0 2364.71484702 0 -219.08400476 0 697.72247505 0 34536
0.17950000 0.17950400 7458.07441526 0 95.35377921 0 2245.27958934 0 90.94039764 0 589.18501183 0 35343
