### header ###
fiducial parameters:
Omega_m = 0.31
Omega_nu = 0
Omega_de = 0.69
Omega_k = 0
H_0 = 100
w_de = -1
zeff = 0
beta = 0
fgrowth = 0
b_1 = 2
gamma = 0.55
Lx = 3500 Ly = 3500 Lz = 3500
nx = 700 ny = 700 nz = 700
xoffset = -983.599254 yoffset = -42.9823471 zoffset = 800.977702
bins = 400 dk = 0.001
kx_ny = 0.628318531 ky_ny = 0.628318531 kz_ny = 0.628318531
############################
A(data) = 9.01041601 (not used)
A(ran) = 8.99699988 (used)
Ngal = 500132
weighted Ngal = 0
Nran = 25229228
weighted Nran = 0
SN(data) = 6773.0019
SN(ran) = 133.554265
SN(data+ran) = 6906.55616
############################
13 columns: k_central k_mean P_0(k) sigma^{lin}_{P_0(k)} P^img_1(k) sigma^{lin}_{P_1(k)} P_2(k) sigma^{lin}_{P_2(k)} P^img_3(k) sigma^{lin}_{P_3(k)} P_4(k) sigma^{lin}_{P_4(k)} N_modes
### header ###
0.00050000 0 0 0 0 0 0 0 0 0 0 0 0
0.00150000 0.00179520 3301.25950531 0 2241.41301980 0 -3950.41479115 0 -548.78485233 0 -43610.95006245 0 3
0.00250000 0.00253879 11931.00335495 0 -14482.49987415 0 -7571.32535857 0 55011.28871600 0 39358.16294186 0 6
0.00350000 0.00331552 39006.21723635 0 -50628.77379322 0 -36615.53485975 0 20040.47390885 0 -46599.96210756 0 7
0.00450000 0.00420575 60827.07066919 0 -43890.83697182 0 -45559.39354693 0 -16496.41141121 0 -40936.42633034 0 24
0.00550000 0.00557378 95302.70094436 0 11662.76009252 0 -32506.86533142 0 -58696.39312558 0 -14837.41141425 0 45
0.00650000 0.00659388 85761.17166303 0 17707.13100113 0 -9183.23449287 0 -51565.09876005 0 43319.30966041 0 40
0.00750000 0.00754703 67563.35980470 0 1032.25433764 0 17796.21588476 0 -16034.61997989 0 -25821.43476696 0 57
0.00850000 0.00846663 75159.74097332 0 10776.82136011 0 28180.04219163 0 7341.65991504 0 -34449.26730098 0 75
0.00950000 0.00948925 64007.32412294 0 -295.12800383 0 35329.13156475 0 12627.53510233 0 -27126.40198963 0 112
0.01050000 0.01054430 65316.57532891 0 1489.09062827 0 22137.42881463 0 -3484.92155887 0 -3404.93190133 0 105
0.01150000 0.01145670 67215.25869959 0 -5404.94795408 0 25839.99869463 0 5155.09286614 0 -23018.94076429 0 144
0.01250000 0.01249090 74358.63609497 0 -772.02322245 0 16600.76485073 0 -8941.46405036 0 -20099.02168071 0 169
0.01350000 0.01339930 65181.35524043 0 10047.87413904 0 8068.06969984 0 -9696.82916849 0 -21824.58818752 0 180
0.01450000 0.01448870 61140.79006211 0 -1499.54794137 0 23316.95221842 0 1730.09215071 0 -35659.98689090 0 267
0.01550000 0.01550050 67578.07913196 0 -1834.64331254 0 33033.68543242 0 -8619.75887317 0 -37343.48248471 0 238
0.01650000 0.01653350 63121.85772716 0 3403.13043143 0 17067.82887689 0 2078.81937645 0 -23668.34869529 0 315
0.01750000 0.01747870 71409.38820260 0 -2316.65734198 0 21231.31142240 0 10493.11181948 0 -14318.50020551 0 297
0.01850000 0.01844180 70537.98205972 0 -9365.83104289 0 12974.75744163 0 14865.97130296 0 -21348.18727466 0 388
0.01950000 0.01947590 81345.04394815 0 -3933.47658023 0 6877.15529429 0 2862.32696953 0 -11932.43134939 0 399
0.02050000 0.02045430 81228.82717024 0 5895.33222783 0 11401.76664798 0 -18609.29394723 0 -14394.07406487 0 462
0.02150000 0.02154770 70205.47904769 0 10155.76461094 0 30654.42701130 0 -10984.12221387 0 -10095.10780114 0 571
0.02250000 0.02255340 67565.99610212 0 337.78329608 0 40467.60477257 0 -5657.32949371 0 7337.77137635 0 510
0.02350000 0.02348930 64439.45720829 0 1020.29103965 0 32389.87963343 0 25877.23639568 0 6147.25241541 0 555
0.02450000 0.02439640 69491.26213845 0 -3977.57963914 0 37490.01668295 0 3941.02298159 0 -502.01583766 0 592
0.02550000 0.02547300 66416.79011866 0 6615.57966741 0 33997.36198498 0 -1209.46734864 0 8238.38549772 0 837
0.02650000 0.02652900 61194.83415921 0 4280.50119722 0 38096.58478089 0 -3725.97800416 0 10773.85552552 0 723
0.02750000 0.02749970 61366.41318293 0 -1319.37898189 0 39560.38892308 0 4891.44115504 0 15753.30507608 0 826
0.02850000 0.02848090 58256.24130225 0 779.24557892 0 37138.73005180 0 8756.57172467 0 -2292.44734401 0 831
0.02950000 0.02946900 60297.72411649 0 -284.73879508 0 32373.95200319 0 2518.05948026 0 2564.66702172 0 996
0.03050000 0.03053250 57833.22541214 0 1190.95834384 0 31151.36907488 0 3700.69151808 0 4362.44610867 0 1041
0.03150000 0.03150510 56587.24534424 0 1380.96948035 0 28693.02173118 0 2948.09451224 0 -2144.07872215 0 1036
0.03250000 0.03246190 55384.98387521 0 2855.92296371 0 26695.14767008 0 279.55847065 0 2123.51560228 0 1059
0.03350000 0.03345080 53461.14583332 0 -680.16802961 0 25598.99717219 0 2701.51282694 0 -3309.10249013 0 1302
0.03450000 0.03451200 52159.25429098 0 -132.04335009 0 19262.87601582 0 10634.46129946 0 4453.83775255 0 1339
0.03550000 0.03553350 51786.65758902 0 540.37286665 0 20876.18019084 0 2078.74248444 0 3489.50212563 0 1365
0.03650000 0.03647120 50326.14881860 0 2392.67058424 0 14124.29296227 0 -1107.15703962 0 6052.62032262 0 1308
0.03750000 0.03744890 47030.00812412 0 2787.06067820 0 21617.52899436 0 -2217.75225046 0 5228.53571842 0 1579
0.03850000 0.03847530 46330.51054214 0 681.27307761 0 20157.13006967 0 2214.76444671 0 7442.38844561 0 1662
0.03950000 0.03950240 47095.25648525 0 336.23776671 0 19427.86429599 0 2565.93024757 0 4674.39698541 0 1683
0.04050000 0.04050350 44031.21980941 0 -46.06863833 0 19041.64672403 0 2180.58045684 0 6620.34697191 0 1822
0.04150000 0.04152450 43839.20948069 0 182.17144706 0 18943.66433661 0 77.10598754 0 11761.84093720 0 1887
0.04250000 0.04250150 44878.35004688 0 543.25192313 0 16400.07670967 0 4186.33045648 0 5853.51396001 0 1920
0.04350000 0.04349210 43661.36925060 0 845.67038778 0 18929.82377515 0 -132.55083734 0 8291.88036619 0 2005
0.04450000 0.04448520 42614.31979214 0 725.55518506 0 18827.11802152 0 -173.91873768 0 7290.99906629 0 2151
0.04550000 0.04548030 40176.18406199 0 1519.73758577 0 17460.85688385 0 -392.61169166 0 6608.22000378 0 2274
0.04650000 0.04648670 39050.59490958 0 1419.53631469 0 18013.71042187 0 1395.91948364 0 4146.75304147 0 2311
0.04750000 0.04749250 36755.58816016 0 1156.30201735 0 19312.52628389 0 1864.10393620 0 8084.74428102 0 2568
0.04850000 0.04851840 35655.92259904 0 1090.07712771 0 17214.03353795 0 1489.29933515 0 5132.70630722 0 2493
0.04950000 0.04949480 36938.04191073 0 189.17850591 0 15975.63282513 0 2317.71186095 0 4670.64026159 0 2644
0.05050000 0.05050630 35943.82824640 0 -430.46452877 0 14409.67215793 0 2434.31309890 0 4834.23350104 0 2829
0.05150000 0.05149060 35011.67741714 0 -638.08503359 0 11921.22708535 0 1404.43252739 0 5666.05124434 0 2784
0.05250000 0.05249300 36506.23836256 0 -267.69623072 0 11585.42870154 0 1737.60559835 0 5141.10950525 0 3055
0.05350000 0.05348950 34915.78209851 0 21.12904505 0 9850.65712292 0 1397.17172491 0 5378.49710330 0 3009
0.05450000 0.05448610 36190.65159230 0 1384.64931217 0 10424.86467003 0 -1763.45229764 0 3707.13946219 0 3336
0.05550000 0.05550870 33683.09336343 0 1156.82927683 0 10797.06592738 0 -1783.87261806 0 4516.30701682 0 3349
0.05650000 0.05647670 32839.69788064 0 672.13830705 0 15351.26971960 0 475.74733078 0 6353.36693532 0 3324
0.05750000 0.05747970 32461.27935521 0 903.63378037 0 14442.40618422 0 -464.27504318 0 4227.00632874 0 3639
0.05850000 0.05849280 32737.87089281 0 -427.34161479 0 15725.29441600 0 1434.33253395 0 3740.91702287 0 3846
0.05950000 0.05951020 32352.20254948 0 -327.82907640 0 14301.36427228 0 367.99196913 0 2728.42502976 0 3787
0.06050000 0.06049470 33502.83652737 0 324.78854671 0 13373.16788916 0 302.94242876 0 3373.24140943 0 3930
0.06150000 0.06148310 32764.23386700 0 23.16349774 0 14079.80544331 0 -39.99966198 0 1043.69147462 0 4083
0.06250000 0.06249100 32077.47838922 0 978.18607448 0 14261.70996526 0 -1099.86328342 0 181.01587003 0 4303
0.06350000 0.06350600 31900.51692493 0 529.70464976 0 13588.24582030 0 1944.63183779 0 -364.75920942 0 4470
0.06450000 0.06451750 30947.60525350 0 -43.64807792 0 13302.31739601 0 338.78179372 0 1796.30715423 0 4479
0.06550000 0.06550280 30924.42780535 0 -227.60473771 0 12594.47153886 0 1646.12607789 0 -782.66507637 0 4636
0.06650000 0.06648880 30445.82997798 0 921.18822582 0 11726.80015066 0 149.53847884 0 -536.96874761 0 4653
0.06750000 0.06749660 28902.82706748 0 1242.45402010 0 11724.27369897 0 -873.64589723 0 343.89621072 0 5220
0.06850000 0.06852730 29241.92082307 0 -116.41450022 0 11919.68924519 0 257.60031006 0 -905.27707243 0 5029
0.06950000 0.06949320 28663.91261384 0 -214.48696114 0 11587.29607888 0 2142.00263793 0 -1574.60552582 0 5040
0.07050000 0.07048030 28815.71940691 0 -656.98069535 0 10439.49612071 0 1273.47445307 0 1255.61353806 0 5475
0.07150000 0.07148790 28372.71159471 0 591.45442453 0 8685.85304639 0 2238.96346011 0 320.00696227 0 5509
0.07250000 0.07249820 28710.37735586 0 385.92538233 0 9148.91868813 0 -385.15316688 0 1649.71803313 0 5916
0.07350000 0.07351270 28073.82137477 0 835.84029377 0 9006.40484346 0 -280.89749005 0 1250.24208206 0 5721
0.07450000 0.07449140 27167.48429108 0 574.32727896 0 10089.92308288 0 -896.59157089 0 1228.21801404 0 6028
0.07550000 0.07549160 26190.84594287 0 586.39602885 0 11190.64316297 0 -321.36685235 0 1134.31090304 0 6183
0.07650000 0.07648840 26314.97161304 0 585.67763781 0 11176.36321861 0 1164.36469362 0 801.69694682 0 6330
0.07750000 0.07749960 25470.80721017 0 -215.72272555 0 10012.52578447 0 482.89279525 0 704.41317821 0 6583
0.07850000 0.07848650 24192.53249888 0 77.68707143 0 9283.19410336 0 483.38270719 0 1967.47974876 0 6549
0.07950000 0.07947320 24504.38451446 0 756.03407860 0 8950.46041530 0 540.64857942 0 67.96605424 0 6828
0.08050000 0.08048110 24091.58427685 0 435.84806780 0 8726.04559747 0 659.23692655 0 160.36267666 0 7147
0.08150000 0.08149960 23411.63923407 0 270.07109531 0 8654.18452364 0 551.07952955 0 1236.62121206 0 7386
0.08250000 0.08250610 22827.36981847 0 440.94271256 0 7689.11293036 0 483.39588867 0 1886.36966482 0 7227
0.08350000 0.08350160 21860.94712276 0 377.97914252 0 7445.25541905 0 426.28160354 0 420.84973239 0 7798
0.08450000 0.08449610 21333.02856450 0 539.03604417 0 6830.81138257 0 474.79496834 0 583.03584810 0 7371
0.08550000 0.08548940 21050.61520343 0 504.22922903 0 7649.68929937 0 -27.30687852 0 1547.88006073 0 8256
0.08650000 0.08650700 20183.27335241 0 -17.93648888 0 7022.40429753 0 108.70761425 0 1204.43641440 0 8037
0.08750000 0.08749060 20359.02651371 0 196.75676253 0 7354.94026329 0 623.84353524 0 117.51295748 0 8155
0.08850000 0.08849210 20442.72895678 0 434.34647673 0 6922.07121158 0 -1700.08229841 0 -2024.01734384 0 8718
0.08950000 0.08949900 19943.91951586 0 255.98118406 0 7157.65733973 0 -43.56360655 0 -1296.30039490 0 8571
0.09050000 0.09049190 19142.48510033 0 -157.03544962 0 7838.09668828 0 11.45449260 0 -695.52885591 0 8932
0.09150000 0.09150830 19917.99592457 0 -52.79767765 0 7065.41988376 0 814.27208551 0 -2050.02881171 0 9285
0.09250000 0.09250820 19717.19793779 0 -92.61071174 0 6796.66034642 0 1256.01996724 0 -1611.32695196 0 9204
0.09350000 0.09350330 19876.58408594 0 363.46632523 0 6880.24195919 0 113.58926815 0 -284.46637768 0 9349
0.09450000 0.09448040 19171.81390912 0 24.94947940 0 5948.02522250 0 801.47835383 0 1078.33242271 0 9564
0.09550000 0.09549270 19400.40286454 0 160.68891846 0 5988.79995592 0 1149.07416859 0 1010.92339615 0 10155
0.09650000 0.09649430 18653.23223756 0 337.82503745 0 5843.72670584 0 395.49624042 0 2962.14378058 0 9913
0.09750000 0.09749140 18544.81450618 0 524.21016656 0 5970.22504369 0 -117.47011764 0 2002.66333474 0 10476
0.09850000 0.09850240 17743.05055347 0 268.87377690 0 6554.34067527 0 -547.52492186 0 3055.58953952 0 10575
0.09950000 0.09950330 17786.43961516 0 285.06174152 0 6671.60098758 0 183.45005131 0 2045.08575405 0 10882
0.10050000 0.10051200 17125.05850004 0 433.04700179 0 6992.48232182 0 -94.19062282 0 1951.69491796 0 10875
0.10150000 0.10150300 16974.67970140 0 264.87539248 0 6659.51795774 0 -231.34608314 0 2345.28313812 0 11118
0.10250000 0.10250800 16354.49073346 0 283.27894539 0 7025.04059495 0 -176.71980369 0 1211.97183119 0 11575
0.10350000 0.10349800 16598.89747339 0 218.45019493 0 6976.55469158 0 -264.01639891 0 257.33887723 0 11364
0.10450000 0.10450100 16072.73644675 0 176.36060817 0 6991.75734003 0 358.33543138 0 768.10941924 0 12093
0.10550000 0.10551000 15891.93038206 0 -29.71942019 0 6728.22645923 0 -371.73111764 0 -235.28734778 0 12067
0.10650000 0.10649700 15228.46219815 0 231.92277320 0 6665.68030296 0 604.16796883 0 -67.65354315 0 12054
0.10750000 0.10749900 15365.65950969 0 191.11398760 0 6165.54172875 0 531.44790143 0 -425.83123606 0 12807
0.10850000 0.10850100 15251.96918347 0 143.64525565 0 5928.90108163 0 379.33354032 0 -872.23987194 0 12736
0.10950000 0.10950300 15005.36552902 0 141.21327128 0 5023.62950149 0 -90.56911908 0 -978.55076229 0 12933
0.11050000 0.11050200 14653.52966924 0 169.39309378 0 5464.39646089 0 54.55828494 0 -779.35432619 0 13428
0.11150000 0.11150900 14758.65202884 0 -62.49123342 0 4851.50124914 0 84.40908062 0 -1964.62375989 0 13453
0.11250000 0.11250000 14347.71916857 0 243.56861705 0 4698.82667483 0 553.95638911 0 -1169.63728846 0 13668
0.11350000 0.11349100 14610.14060754 0 11.33585921 0 4361.77604974 0 270.89054443 0 -1038.07066883 0 13791
0.11450000 0.11448600 14282.03142454 0 -163.59983020 0 3960.24598361 0 684.62666762 0 -554.28592628 0 14205
0.11550000 0.11549300 14555.65712754 0 -99.15762685 0 3733.06305348 0 1093.20773090 0 -443.04625821 0 14776
0.11650000 0.11649800 14347.49947712 0 189.43224954 0 3658.93915770 0 -426.88355811 0 206.37485429 0 14553
0.11750000 0.11747300 14095.29369065 0 370.74909685 0 3867.20665384 0 -617.43293868 0 470.86578673 0 14568
0.11850000 0.11849100 14207.11663953 0 88.97229177 0 4360.65562334 0 49.41212253 0 518.81674142 0 16015
0.11950000 0.11950300 14002.69374379 0 172.07113257 0 4472.44561850 0 -420.56633042 0 -237.02400870 0 15270
0.12050000 0.12050700 13407.87913851 0 295.89362854 0 5266.65218528 0 -247.84381270 0 267.01628568 0 15999
0.12150000 0.12150000 13738.18523603 0 26.51741729 0 4898.60309637 0 46.14728787 0 -549.87012811 0 15670
0.12250000 0.12250700 13542.87953554 0 310.70962004 0 5698.92807007 0 -228.91739414 0 -180.91151659 0 16887
0.12350000 0.12352200 13566.49636659 0 -103.02199948 0 5127.24697465 0 440.98445394 0 -574.12296591 0 16407
0.12450000 0.12449800 13225.75492511 0 -205.83990560 0 5209.69717644 0 340.67992787 0 -153.59398303 0 16306
0.12550000 0.12549900 13225.97461657 0 315.06829844 0 4641.43228309 0 330.33465741 0 -336.00379532 0 17523
0.12650000 0.12650100 13061.75525648 0 18.77263454 0 4679.15330534 0 318.43616839 0 693.52417141 0 17154
0.12750000 0.12750600 12929.28131114 0 97.08099340 0 4167.74455967 0 743.54461957 0 615.68419473 0 18007
0.12850000 0.12850300 13072.52013760 0 -42.76250168 0 3754.81250719 0 616.71784301 0 721.48320400 0 17496
0.12950000 0.12949900 13156.33242640 0 -6.60122283 0 3505.21006442 0 168.10240650 0 867.40006926 0 18405
0.13050000 0.13049000 12659.71990000 0 155.00330370 0 3203.11234929 0 192.74739354 0 1521.18754935 0 18100
0.13150000 0.13148800 12806.03440678 0 163.97769949 0 3327.51263378 0 -179.06500993 0 1270.31089617 0 19059
0.13250000 0.13249300 12330.18272256 0 160.35938129 0 3139.58856605 0 72.33373999 0 1188.08038583 0 18957
0.13350000 0.13349100 12344.79220409 0 132.17955879 0 3674.16377530 0 -110.25545037 0 681.78935252 0 19468
0.13450000 0.13450700 12021.51623302 0 433.20078580 0 3885.96830381 0 -760.11594577 0 769.37594046 0 19953
0.13550000 0.13551000 11734.92873437 0 163.68111603 0 3783.04285872 0 463.73460221 0 635.95512497 0 19956
0.13650000 0.13649900 11541.16087404 0 -42.68571951 0 3682.40220473 0 446.83703421 0 462.88879012 0 19723
0.13750000 0.13749600 11651.55582848 0 -24.08114893 0 3506.30852168 0 374.88698534 0 826.38367524 0 20946
0.13850000 0.13851100 11503.81332726 0 68.42564875 0 2805.52574471 0 233.15414378 0 555.64361945 0 20955
0.13950000 0.13949800 11398.47127621 0 170.82658050 0 3225.14740189 0 90.21354847 0 970.82750931 0 20506
0.14050000 0.14048300 11052.12770272 0 284.66080462 0 2737.48730214 0 -254.37414110 0 840.18688914 0 21447
0.14150000 0.14148400 10963.04281908 0 31.42938861 0 3182.50529113 0 -225.69671746 0 1065.14764024 0 21771
0.14250000 0.14249400 10852.35128118 0 49.82755907 0 2670.51436311 0 421.49342835 0 239.38898718 0 22470
0.14350000 0.14350900 10836.54448124 0 68.82636596 0 3091.06970896 0 216.96288380 0 398.80149831 0 22519
0.14450000 0.14449900 10775.81077943 0 244.53745635 0 2939.33980790 0 -588.61601097 0 12.02700852 0 22218
0.14550000 0.14550500 10382.02483697 0 282.00473497 0 3228.38785080 0 -104.00303166 0 351.40965836 0 23559
0.14650000 0.14650700 10068.36036691 0 113.31355538 0 3433.57966662 0 -17.85597196 0 437.28375143 0 23044
0.14750000 0.14750500 10128.58877837 0 54.78918066 0 3149.18908249 0 359.44816858 0 115.26661238 0 23649
0.14850000 0.14849900 9941.62036846 0 -27.02237809 0 3359.44478627 0 -157.69122861 0 -72.46160041 0 23640
0.14950000 0.14949500 9974.99149996 0 138.03323751 0 3131.91034982 0 223.85899846 0 -61.12002922 0 24457
0.15050000 0.15050000 9701.62942671 0 158.20860197 0 3115.13690749 0 -131.63033016 0 -188.48428092 0 24591
0.15150000 0.15149900 9731.66124814 0 48.66000885 0 2849.15646700 0 131.38317727 0 -322.61360134 0 25020
0.15250000 0.15250500 9615.09296391 0 122.40548610 0 2820.56362457 0 223.33723127 0 -151.16419558 0 25297
0.15350000 0.15350100 9500.32614958 0 98.46977291 0 3039.09071151 0 -128.15590985 0 -294.36787141 0 25452
0.15450000 0.15450400 9304.17463699 0 84.76025741 0 2624.85149489 0 -139.26790347 0 -578.84743058 0 26061
0.15550000 0.15549900 9153.63106977 0 150.92033807 0 2884.50482157 0 388.49357540 0 -237.12396831 0 26128
0.15650000 0.15649500 9370.35668680 0 -206.67363466 0 2739.90390811 0 342.76919357 0 80.62050154 0 26331
0.15750000 0.15749700 9305.26210968 0 -50.14962674 0 2476.68059534 0 70.07970569 0 -213.74330557 0 27345
0.15850000 0.15849900 9298.27592152 0 297.62369872 0 2362.25430276 0 183.29956266 0 -288.58559240 0 26980
0.15950000 0.15949700 9093.05115198 0 53.80045928 0 2505.82266640 0 -170.16640769 0 794.06925962 0 27777
0.16050000 0.16050000 9138.47235960 0 46.00910195 0 2813.76417415 0 -159.10933693 0 -254.54550043 0 28224
0.16150000 0.16150500 8822.74278990 0 294.59525206 0 2682.26785578 0 144.08683546 0 236.81969565 0 28075
0.16250000 0.16249700 8716.44508103 0 -74.21847295 0 2647.73235958 0 -83.38015571 0 301.20466938 0 28590
0.16350000 0.16349900 8740.79787844 0 -23.50456872 0 2634.75957936 0 279.11689083 0 -173.61666193 0 29163
0.16450000 0.16449100 8851.72009237 0 200.25095507 0 2643.28360768 0 34.66775045 0 -284.79152103 0 28996
0.16550000 0.16550500 8596.33976443 0 72.46467609 0 2246.18032430 0 233.45621953 0 -16.02429448 0 30777
0.16650000 0.16650700 8609.15876063 0 -142.78186824 0 1968.03996196 0 315.05621541 0 -61.66837908 0 29211
0.16750000 0.16749900 8566.22006641 0 107.64276978 0 1949.54194174 0 -152.29340964 0 -262.21492900 0 30922
0.16850000 0.16850800 8211.70397092 0 232.69718556 0 1960.05417770 0 -58.41057455 0 213.06665590 0 30867
0.16950000 0.16949900 8013.11388322 0 284.82447475 0 1933.50446577 0 -9.28554480 0 -125.66900262 0 30852
0.17050000 0.17049200 7801.17753983 0 129.93760752 0 2471.63867653 0 -216.38729219 0 79.72778533 0 31257
0.17150000 0.17149500 7768.82797358 0 223.60305792 0 2557.21948151 0 -122.28685272 0 231.98318835 0 32608
0.17250000 0.17250900 7719.77087243 0 -68.06151017 0 2423.04292743 0 104.97912078 0 -4.53847388 0 32361
0.17350000 0.17350400 7549.16947567 0 -139.12071020 0 2479.32787733 0 194.86302222 0 420.50152144 0 32508
0.17450000 0.17449800 7842.67725505 0 41.10053584 0 2559.65805662 0 208.45862771 0 -67.94825923 0 32791
0.17550000 0.17549800 7855.00194548 0 -5.92936243 0 2244.18113209 0 -34.77858479 0 725.14765741 0 33633
0.17650000 0.17650100 7887.79089464 0 -6.57941845 0 2394.36220842 0 151.54316333 0 -7.11516901 0 33984
0.17750000 0.17750300 7990.38680255 0 86.68365607 0 2412.65152177 0 -58.97726865 0 85.64748134 0 34069
0.17850000 0.17849800 7830.61619435 0 111.55382685 0 2305.95836828 0 -39.22239362 0 369.53200621 0 34536
