### header ###
fiducial parameters:
Omega_m = 0.31
Omega_nu = 0
Omega_de = 0.69
Omega_k = 0
H_0 = 100
w_de = -1
zeff = 0
beta = 0
fgrowth = 0
b_1 = 2
gamma = 0.55
Lx = 3500 Ly = 3500 Lz = 3500
nx = 700 ny = 700 nz = 700
xoffset = -983.599254 yoffset = -42.9823471 zoffset = 800.977702
bins = 400 dk = 0.001
kx_ny = 0.628318531 ky_ny = 0.628318531 kz_ny = 0.628318531
############################
A(data) = 9.03179338 (not used)
A(ran) = 9.04202691 (used)
Ngal = 502481
weighted Ngal = 0
Nran = 25229228
weighted Nran = 0
SN(data) = 6723.15163
SN(ran) = 134.22266
SN(data+ran) = 6857.37429
############################
13 columns: k_central k_mean P_0(k) sigma^{lin}_{P_0(k)} P^img_1(k) sigma^{lin}_{P_1(k)} P_2(k) sigma^{lin}_{P_2(k)} P^img_3(k) sigma^{lin}_{P_3(k)} P_4(k) sigma^{lin}_{P_4(k)} N_modes
### header ###
0.00050000 0 0 0 0 0 0 0 0 0 0 0 0
0.00150000 0.00179520 17228.97255666 0 -26276.41576328 0 -42567.85505012 0 8524.07226141 0 12021.40638730 0 3
0.00250000 0.00253879 39758.44076672 0 -15515.48907970 0 -20092.43093716 0 8774.65233114 0 2689.31995137 0 6
0.00350000 0.00331552 59481.24083652 0 -1263.34667715 0 21843.37180663 0 -62119.95486201 0 4033.79868161 0 7
0.00450000 0.00420575 40798.13056154 0 16904.04889970 0 17485.68201789 0 -17415.49059909 0 37211.66761374 0 24
0.00550000 0.00557378 23870.79436797 0 -6446.79072513 0 17633.97374773 0 34321.40687613 0 8308.63183937 0 45
0.00650000 0.00659388 43166.07487290 0 -7524.79470912 0 15522.51920615 0 30331.59042314 0 15148.16497258 0 40
0.00750000 0.00754703 40944.99429696 0 1692.08552958 0 7272.09461688 0 8762.31665613 0 13780.03645757 0 57
0.00850000 0.00846663 53650.62971034 0 1671.54437885 0 23906.71392031 0 2722.32859198 0 51115.17066712 0 75
0.00950000 0.00948925 52890.27759626 0 -13792.44902459 0 11686.37692357 0 35651.74846146 0 48233.80743331 0 112
0.01050000 0.01054430 68776.82553776 0 -13975.67169524 0 -5213.25617796 0 4179.36623746 0 15986.94693489 0 105
0.01150000 0.01145670 85432.29355995 0 298.36405891 0 12048.20874439 0 -23022.67551896 0 14093.86569622 0 144
0.01250000 0.01249090 68093.14574030 0 17917.04618315 0 28648.42436650 0 -25024.06464328 0 33214.82103429 0 169
0.01350000 0.01339930 64833.47382678 0 12982.77617962 0 64641.46349806 0 -4363.00632187 0 48450.42320461 0 180
0.01450000 0.01448870 69004.31603592 0 -10996.21622828 0 53807.59925253 0 26245.87865151 0 16996.42915511 0 267
0.01550000 0.01550050 78548.15207749 0 -10337.20778083 0 42853.67362869 0 39591.47526348 0 18142.01022962 0 238
0.01650000 0.01653350 87503.76425734 0 -304.25398673 0 27272.49680496 0 -3969.50597829 0 24700.67882649 0 315
0.01750000 0.01747870 88417.35115893 0 4429.32018655 0 39341.13685435 0 1259.45813846 0 31326.02377893 0 297
0.01850000 0.01844180 77427.39613702 0 6784.96177662 0 34971.03449859 0 -5729.67388873 0 1721.59009153 0 388
0.01950000 0.01947590 67608.06701510 0 4330.20638815 0 39531.82903437 0 4536.55158409 0 23554.10914045 0 399
0.02050000 0.02045430 70788.43031458 0 3993.70499169 0 43358.96396743 0 10874.15565776 0 8223.83093905 0 462
0.02150000 0.02154770 62638.97591648 0 -540.25862710 0 26880.56725526 0 2606.19969065 0 11033.78346651 0 571
0.02250000 0.02255340 67257.76899548 0 -711.56962725 0 38926.46923941 0 9899.94490009 0 3668.84724217 0 510
0.02350000 0.02348930 63733.80826566 0 -3084.06155166 0 16862.96659825 0 8572.44831906 0 4501.31307525 0 555
0.02450000 0.02439640 66595.06973165 0 -457.27127970 0 20872.99466479 0 8053.69089433 0 17761.39478968 0 592
0.02550000 0.02547300 69000.47143551 0 1424.97367811 0 10681.79382271 0 26.05749323 0 -81.45324199 0 837
0.02650000 0.02652900 65355.57056157 0 2827.52784359 0 15509.66725623 0 -8122.97059360 0 2063.61672799 0 723
0.02750000 0.02749970 63179.30704176 0 2136.68610481 0 25211.57129725 0 -930.71844099 0 -1640.56788417 0 826
0.02850000 0.02848090 63019.59135642 0 -680.25480773 0 21032.82019585 0 -4861.23358045 0 -2375.11723726 0 831
0.02950000 0.02946900 58257.33975951 0 3320.52644561 0 22279.34949238 0 -633.63078941 0 -5804.54473544 0 996
0.03050000 0.03053250 58397.39305992 0 3068.62822718 0 23933.62612313 0 672.83033512 0 -14602.23171528 0 1041
0.03150000 0.03150510 54573.77319008 0 1113.60498372 0 29968.87983650 0 2390.50662344 0 1183.12634359 0 1036
0.03250000 0.03246190 54768.20012477 0 975.78814229 0 26385.82210619 0 1306.73573885 0 -7082.78649301 0 1059
0.03350000 0.03345080 52513.17721955 0 -1044.43622864 0 24196.26725355 0 4348.19911803 0 -1203.76635547 0 1302
0.03450000 0.03451200 53482.01652122 0 1343.57799529 0 20749.96745188 0 -741.34111431 0 -11240.84265967 0 1339
0.03550000 0.03553350 49790.76075099 0 2820.12424167 0 24650.58917552 0 148.74649115 0 115.09525305 0 1365
0.03650000 0.03647120 49595.12551331 0 2826.14378745 0 23981.18932241 0 1823.61480166 0 -1241.32260913 0 1308
0.03750000 0.03744890 47194.99640429 0 -1952.74943693 0 21639.38829379 0 2444.60564341 0 1631.94499469 0 1579
0.03850000 0.03847530 49584.80001509 0 434.90559147 0 22246.94500327 0 5262.24737167 0 -5460.96927424 0 1662
0.03950000 0.03950240 46934.22265121 0 1986.18647587 0 18999.79550250 0 -2152.47093560 0 116.11462139 0 1683
0.04050000 0.04050350 45497.55040329 0 2281.78132403 0 22115.78920665 0 441.21512996 0 -1139.70432818 0 1822
0.04150000 0.04152450 42683.63244513 0 -442.92432945 0 19726.42497875 0 22.19894242 0 1813.01468912 0 1887
0.04250000 0.04250150 40905.23014421 0 190.40767958 0 20088.58633676 0 4064.98388317 0 -1389.97682987 0 1920
0.04350000 0.04349210 44434.79300605 0 1134.59650193 0 17363.97295368 0 2729.43561044 0 -2645.21689246 0 2005
0.04450000 0.04448520 39845.76811874 0 1934.48209273 0 14560.38049375 0 -279.76388216 0 616.31910302 0 2151
0.04550000 0.04548030 39477.34555436 0 -398.34344163 0 14371.77538253 0 2452.18499849 0 -381.17894852 0 2274
0.04650000 0.04648670 39259.63132580 0 -467.99332100 0 10484.68665231 0 2629.98129029 0 -1440.81343178 0 2311
0.04750000 0.04749250 37820.87200910 0 820.31579734 0 13314.51027157 0 -660.96370136 0 1036.34938630 0 2568
0.04850000 0.04851840 36976.15837759 0 1758.13576451 0 12016.68302109 0 -903.37234755 0 209.70208132 0 2493
0.04950000 0.04949480 36654.53009241 0 184.07617195 0 13696.55370595 0 322.87503417 0 1972.53265215 0 2644
0.05050000 0.05050630 35404.81526983 0 215.81060213 0 12990.46538042 0 3157.03206731 0 663.16061588 0 2829
0.05150000 0.05149060 36566.21412886 0 1219.29854110 0 14736.79272940 0 547.15034793 0 2470.48529641 0 2784
0.05250000 0.05249300 34853.93895488 0 741.06430308 0 16154.13212957 0 -2901.32220219 0 3316.65987607 0 3055
0.05350000 0.05348950 33479.00000487 0 539.99499736 0 15710.35539729 0 2269.67632505 0 6261.57984683 0 3009
0.05450000 0.05448610 33765.25796634 0 233.73962150 0 18815.58422031 0 -530.63504306 0 3253.07018539 0 3336
0.05550000 0.05550870 33245.35814606 0 415.75948146 0 18689.92070998 0 -494.97692355 0 7271.65523398 0 3349
0.05650000 0.05647670 33733.18301440 0 -90.33240154 0 20570.58938163 0 2247.90490219 0 4454.05744400 0 3324
0.05750000 0.05747970 33127.49368227 0 338.32593396 0 18990.12907863 0 -685.51202417 0 5040.93020330 0 3639
0.05850000 0.05849280 33302.03854058 0 1144.64738584 0 19701.92938190 0 -42.96571627 0 4211.69383457 0 3846
0.05950000 0.05951020 32159.20360922 0 -664.66110850 0 19174.56005227 0 1725.97293599 0 3332.63144460 0 3787
0.06050000 0.06049470 33349.49189414 0 397.99742760 0 19924.36697667 0 1474.11865584 0 2775.09847866 0 3930
0.06150000 0.06148310 32718.75773651 0 795.75319460 0 16732.90925889 0 -171.76356454 0 1113.91255176 0 4083
0.06250000 0.06249100 31694.99557193 0 482.36114194 0 19249.47483727 0 58.48450072 0 1971.21450344 0 4303
0.06350000 0.06350600 30473.29140944 0 282.12886064 0 16725.65944098 0 622.36281486 0 1724.44608040 0 4470
0.06450000 0.06451750 31069.75370060 0 -200.21031215 0 16708.52350776 0 2685.43141268 0 1823.49397137 0 4479
0.06550000 0.06550280 30456.81455056 0 -45.93803176 0 13050.33130099 0 2942.60222595 0 1371.21517990 0 4636
0.06650000 0.06648880 31395.00689474 0 314.34990739 0 12507.47372402 0 1651.13504299 0 2100.40406157 0 4653
0.06750000 0.06749660 29861.56056238 0 295.39602740 0 13379.20940408 0 -1735.65034443 0 2645.49150677 0 5220
0.06850000 0.06852730 29200.50898444 0 792.13817176 0 12510.32971289 0 729.08892206 0 1136.11237294 0 5029
0.06950000 0.06949320 28562.52500891 0 -362.70289744 0 11972.08565641 0 1028.80408340 0 2519.19089123 0 5040
0.07050000 0.07048030 28576.91479899 0 383.04742431 0 11408.02785435 0 1289.18239186 0 -1142.91182337 0 5475
0.07150000 0.07148790 28445.42946519 0 742.68452754 0 11341.13180733 0 403.45346480 0 2092.67092247 0 5509
0.07250000 0.07249820 27934.42714871 0 233.09812246 0 10333.47302616 0 -123.94772009 0 585.92369223 0 5916
0.07350000 0.07351270 27191.76019649 0 210.43585077 0 9968.47764842 0 1310.58033925 0 1473.53647350 0 5721
0.07450000 0.07449140 27405.19044174 0 128.98414662 0 11608.05692106 0 144.06376786 0 1099.83032971 0 6028
0.07550000 0.07549160 26124.82866166 0 367.22085214 0 8208.77109004 0 484.72392350 0 1441.51644442 0 6183
0.07650000 0.07648840 26608.14985524 0 544.38662947 0 10860.99613980 0 1236.85188809 0 3010.58574566 0 6330
0.07750000 0.07749960 25613.71649945 0 203.37277060 0 9070.99413024 0 252.74732590 0 1996.10554491 0 6583
0.07850000 0.07848650 25477.94718234 0 564.75312550 0 10221.03494121 0 688.45808654 0 3339.16726528 0 6549
0.07950000 0.07947320 24692.76993423 0 45.85751485 0 9011.10624052 0 155.05932502 0 1771.08657558 0 6828
0.08050000 0.08048110 24713.31108496 0 295.43227649 0 9549.16355928 0 443.29341109 0 4446.33528948 0 7147
0.08150000 0.08149960 23502.92103222 0 609.47681276 0 8968.33231489 0 -107.80578084 0 2404.23733917 0 7386
0.08250000 0.08250610 23868.26791627 0 350.06185131 0 9034.98670132 0 445.20362826 0 3055.16114119 0 7227
0.08350000 0.08350160 23222.37504849 0 327.28534006 0 8686.59999733 0 293.31115552 0 1494.59389914 0 7798
0.08450000 0.08449610 22306.81092384 0 323.08264259 0 8816.18500007 0 238.09939836 0 2603.02514917 0 7371
0.08550000 0.08548940 22280.66764109 0 402.63181877 0 8077.75809286 0 857.58755057 0 2399.82154099 0 8256
0.08650000 0.08650700 22224.75616665 0 86.49790695 0 7714.79486105 0 -628.98541367 0 508.16390293 0 8037
0.08750000 0.08749060 20846.08246197 0 367.19339071 0 8688.32457522 0 52.02645081 0 1886.99578546 0 8155
0.08850000 0.08849210 20756.55819543 0 235.72673068 0 8248.12881360 0 -46.35302892 0 445.61335282 0 8718
0.08950000 0.08949900 20439.10404783 0 908.05287392 0 8453.89182719 0 -321.79634914 0 214.11787950 0 8571
0.09050000 0.09049190 20026.08411877 0 431.27738715 0 9726.19093100 0 -396.82207833 0 703.87383570 0 8932
0.09150000 0.09150830 19329.99175429 0 115.30286147 0 9128.15784595 0 336.29488649 0 539.42599650 0 9285
0.09250000 0.09250820 19337.46126365 0 -147.76556882 0 8281.89538971 0 1569.04733209 0 1742.59259430 0 9204
0.09350000 0.09350330 19396.77795559 0 -57.67208173 0 8124.54138748 0 2076.18307903 0 1437.44116799 0 9349
0.09450000 0.09448040 19315.71180994 0 -86.32896422 0 7128.77889841 0 696.15387809 0 3777.41875756 0 9564
0.09550000 0.09549270 19264.41385598 0 268.00050338 0 5909.44740359 0 395.47207436 0 2339.20866949 0 10155
0.09650000 0.09649430 18322.15721995 0 556.77503043 0 6770.70380141 0 -277.48678026 0 3313.84782548 0 9913
0.09750000 0.09749140 18389.60249560 0 359.17684964 0 6615.59065198 0 -511.97115579 0 1616.98400684 0 10476
0.09850000 0.09850240 17437.67943570 0 426.36838166 0 7037.22248595 0 -513.63422007 0 1758.05887250 0 10575
0.09950000 0.09950330 17119.56621375 0 175.35332286 0 6861.75492353 0 -97.43085204 0 390.29834067 0 10882
0.10050000 0.10051200 16553.86072581 0 265.87059476 0 7400.78986924 0 -163.89531520 0 600.24977179 0 10875
0.10150000 0.10150300 16587.25382646 0 621.20613936 0 6562.04086065 0 815.33319522 0 595.46159660 0 11118
0.10250000 0.10250800 16553.75088008 0 -427.20870146 0 6196.86972976 0 668.81327693 0 243.54445099 0 11575
0.10350000 0.10349800 16557.15609758 0 -113.54203449 0 5664.21682071 0 1433.10226182 0 700.22915451 0 11364
0.10450000 0.10450100 15958.27720045 0 459.13316475 0 5445.68973378 0 -739.60774876 0 528.79732407 0 12093
0.10550000 0.10551000 15704.86311100 0 434.23223717 0 5314.84150519 0 -120.51833653 0 910.91874891 0 12067
0.10650000 0.10649700 15049.63335652 0 201.04404121 0 6016.89849258 0 392.18658870 0 899.09825036 0 12054
0.10750000 0.10749900 15402.89721074 0 -58.57292653 0 5043.25893269 0 730.92554259 0 358.18384428 0 12807
0.10850000 0.10850100 15123.77922144 0 110.01818360 0 4739.10710249 0 -64.90685077 0 549.21984141 0 12736
0.10950000 0.10950300 14884.53523062 0 355.26634180 0 5172.43750625 0 -101.37673020 0 568.70317780 0 12933
0.11050000 0.11050200 14491.72691511 0 -60.59309927 0 4881.99442262 0 -179.39784248 0 977.20075832 0 13428
0.11150000 0.11150900 14697.46795956 0 108.85557644 0 5003.41788794 0 336.57719001 0 -244.87248581 0 13453
0.11250000 0.11250000 14450.09538503 0 116.67153922 0 4965.68588112 0 9.20712594 0 85.20414399 0 13668
0.11350000 0.11349100 14970.21489676 0 -191.20076572 0 4342.25646427 0 684.72552877 0 107.66298140 0 13791
0.11450000 0.11448600 14774.03043046 0 -208.45423388 0 4543.23020422 0 184.22995596 0 241.77373789 0 14205
0.11550000 0.11549300 14594.32282302 0 255.31442051 0 3470.33404648 0 273.81244074 0 -145.56755585 0 14776
0.11650000 0.11649800 14470.52669003 0 144.42186493 0 4202.14824099 0 -57.66988482 0 303.08193284 0 14553
0.11750000 0.11747300 14358.04466680 0 330.05455081 0 4137.95439883 0 109.19236344 0 457.41517760 0 14568
0.11850000 0.11849100 14141.42889550 0 74.39060120 0 4063.96231792 0 98.93969293 0 903.01974277 0 16015
0.11950000 0.11950300 13707.75796998 0 240.50392130 0 4207.57461985 0 64.95825857 0 803.47315221 0 15270
0.12050000 0.12050700 13817.05446717 0 170.10709099 0 4096.45468362 0 157.89773857 0 371.68827781 0 15999
0.12150000 0.12150000 13713.03056482 0 128.92702684 0 4451.57493060 0 -17.06453351 0 1267.21324670 0 15670
0.12250000 0.12250700 13260.24648302 0 5.56901353 0 3848.97226336 0 -249.21139198 0 355.73318613 0 16887
0.12350000 0.12352200 13337.13849109 0 -35.68843693 0 4492.81101607 0 519.58566150 0 314.43558706 0 16407
0.12450000 0.12449800 13704.35275248 0 -70.59334431 0 3642.19866909 0 -219.07302019 0 -163.73713735 0 16306
0.12550000 0.12549900 13293.63958367 0 -49.01810592 0 3607.91581806 0 399.36061305 0 225.62531774 0 17523
0.12650000 0.12650100 13785.52874386 0 347.61009471 0 3908.70636905 0 -680.38222877 0 -950.00405507 0 17154
0.12750000 0.12750600 13140.29495043 0 339.43867117 0 3848.87340220 0 -136.61732611 0 -313.12512755 0 18007
0.12850000 0.12850300 13087.23946486 0 -28.46113740 0 4174.57696381 0 431.53222923 0 -1212.23546093 0 17496
0.12950000 0.12949900 12966.84854937 0 -288.39885467 0 3626.29300799 0 193.23181319 0 -233.96260832 0 18405
0.13050000 0.13049000 12750.89185242 0 193.53498740 0 3631.12621992 0 469.06541528 0 -979.88209249 0 18100
0.13150000 0.13148800 13018.14650333 0 307.98544604 0 3328.41336873 0 -55.04852642 0 -96.56592679 0 19059
0.13250000 0.13249300 12476.71692079 0 252.99338032 0 3449.37548199 0 153.21721219 0 -60.04771524 0 18957
0.13350000 0.13349100 12661.69712306 0 21.21933824 0 3627.22669666 0 -27.71451601 0 -527.87791534 0 19468
0.13450000 0.13450700 12017.45194117 0 212.77007244 0 3492.66568254 0 -105.40070867 0 154.54634548 0 19953
0.13550000 0.13551000 11961.54046673 0 277.72844086 0 4029.17417655 0 324.27007489 0 622.99332932 0 19956
0.13650000 0.13649900 11695.27442736 0 107.64287963 0 3625.05175129 0 -145.26438164 0 204.16146291 0 19723
0.13750000 0.13749600 11282.47418975 0 316.03713774 0 4031.18435334 0 163.16154575 0 607.94446489 0 20946
0.13850000 0.13851100 11416.26628379 0 119.72305348 0 3900.17135616 0 381.85449973 0 1134.45370248 0 20955
0.13950000 0.13949800 11132.42492829 0 -146.34416513 0 3875.20342268 0 133.01109093 0 920.94876213 0 20506
0.14050000 0.14048300 11010.38632691 0 78.18500211 0 3592.52643187 0 386.56578291 0 857.03502657 0 21447
0.14150000 0.14148400 11159.44697684 0 23.46524395 0 3006.36766979 0 458.53011172 0 1189.46444197 0 21771
0.14250000 0.14249400 11383.86179468 0 -45.58224146 0 2905.62815464 0 -88.31508479 0 715.51089189 0 22470
0.14350000 0.14350900 11162.08327426 0 221.29959305 0 2824.99040732 0 -554.28812320 0 444.50281253 0 22519
0.14450000 0.14449900 10695.60143045 0 409.72345883 0 3083.55626132 0 -329.13404363 0 212.86893360 0 22218
0.14550000 0.14550500 10416.03307368 0 -39.45306965 0 3198.01550761 0 66.20379926 0 372.26606632 0 23559
0.14650000 0.14650700 10359.08904942 0 174.59319044 0 3382.34762010 0 460.47987335 0 14.22260489 0 23044
0.14750000 0.14750500 10279.80240452 0 40.03129755 0 3154.89007566 0 164.83120078 0 363.52674038 0 23649
0.14850000 0.14849900 10157.09374422 0 112.94557220 0 2972.61207825 0 157.92520000 0 327.77854737 0 23640
0.14950000 0.14949500 9970.26813375 0 258.27586128 0 2913.78969207 0 -5.43336504 0 145.89819148 0 24457
0.15050000 0.15050000 9948.04634342 0 26.70799962 0 3148.01373322 0 73.39386109 0 890.17108822 0 24591
0.15150000 0.15149900 9727.34431112 0 -217.55055843 0 2820.79430060 0 479.39091351 0 772.59771559 0 25020
0.15250000 0.15250500 9823.78885838 0 46.08302812 0 2207.45970595 0 644.32097545 0 934.12475695 0 25297
0.15350000 0.15350100 10003.16692864 0 253.63817473 0 2276.99205039 0 -225.62092391 0 700.24563137 0 25452
0.15450000 0.15450400 9568.12293155 0 213.36543628 0 2444.34201366 0 -184.17942693 0 954.48466223 0 26061
0.15550000 0.15549900 9459.66126188 0 28.56966498 0 2611.34047062 0 141.23633888 0 1003.57471709 0 26128
0.15650000 0.15649500 9309.04080265 0 -33.90388327 0 2427.51364847 0 -171.20664671 0 697.07768064 0 26331
0.15750000 0.15749700 9288.07125359 0 134.33583038 0 2205.21885314 0 398.25995888 0 609.01985454 0 27345
0.15850000 0.15849900 9348.88184740 0 4.51671345 0 2244.31294696 0 -166.80952231 0 251.55769669 0 26980
0.15950000 0.15949700 9211.57469013 0 181.18283553 0 2374.79868465 0 -171.71083859 0 485.83006996 0 27777
0.16050000 0.16050000 9032.11972787 0 181.93088492 0 2400.12910902 0 -347.85724759 0 109.09130537 0 28224
0.16150000 0.16150500 8745.60912123 0 43.14849956 0 2548.79431434 0 144.64814712 0 365.21506918 0 28075
0.16250000 0.16249700 8979.63544008 0 37.23451552 0 2640.80109428 0 80.80679989 0 82.44481935 0 28590
0.16350000 0.16349900 8746.37804131 0 28.78748906 0 2486.16028148 0 -15.23944677 0 -204.68542702 0 29163
0.16450000 0.16449100 8703.76888427 0 162.27728766 0 2603.60733152 0 -108.03458949 0 -195.23320232 0 28996
0.16550000 0.16550500 8615.12338354 0 271.76711332 0 2852.45183878 0 -249.10264471 0 -1.55416324 0 30777
0.16650000 0.16650700 8413.66632240 0 -37.28515440 0 2713.62881050 0 349.84545523 0 76.77732913 0 29211
0.16750000 0.16749900 8400.68255761 0 -39.07201483 0 2718.03362410 0 456.21346536 0 9.77723624 0 30922
0.16850000 0.16850800 8621.73609623 0 -84.42061443 0 2346.43651825 0 167.66192514 0 39.52622690 0 30867
0.16950000 0.16949900 8590.68270955 0 -15.65653099 0 1940.32588534 0 188.34038302 0 -35.04627882 0 30852
0.17050000 0.17049200 8350.92244381 0 178.83982620 0 2081.30188985 0 -116.94944890 0 262.74877923 0 31257
0.17150000 0.17149500 8231.62998558 0 158.31844770 0 2186.81969407 0 -353.15400849 0 -55.77515589 0 32608
0.17250000 0.17250900 7977.23826917 0 264.80838659 0 2292.51325144 0 -21.09422396 0 -206.89442457 0 32361
0.17350000 0.17350400 8009.34617482 0 64.86027618 0 2569.67598682 0 -17.01125833 0 -126.65431878 0 32508
0.17450000 0.17449800 7913.06639615 0 -56.77892614 0 2154.63489640 0 392.99175787 0 -272.09555204 0 32791
0.17550000 0.17549800 7900.29133824 0 0.50494323 0 2093.64854943 0 262.94210771 0 -136.99958923 0 33633
0.17650000 0.17650100 7772.92521916 0 114.52625219 0 1909.76680442 0 -77.36192808 0 0.75071535 0 33984
0.17750000 0.17750300 7747.88039367 0 72.56485539 0 2066.56059345 0 103.98172159 0 176.95816891 0 34069
0.17850000 0.17849800 7657.56523791 0 -81.46049181 0 1672.45609837 0 20.38637810 0 91.05485688 0 34536
