### header ###
fiducial parameters:
Omega_m = 0.31
Omega_nu = 0
Omega_de = 0.69
Omega_k = 0
H_0 = 100
w_de = -1
zeff = 0
beta = 0
fgrowth = 0
b_1 = 2
gamma = 0.55
Lx = 3500 Ly = 3500 Lz = 3500
nx = 700 ny = 700 nz = 700
xoffset = -983.599254 yoffset = -42.9823471 zoffset = 800.977702
bins = 400 dk = 0.001
kx_ny = 0.628318531 ky_ny = 0.628318531 kz_ny = 0.628318531
############################
A(data) = 9.03516067 (not used)
A(ran) = 9.02808219 (used)
Ngal = 501262
weighted Ngal = 0
Nran = 25229228
weighted Nran = 0
SN(data) = 6755.16438
SN(ran) = 134.01566
SN(data+ran) = 6889.18004
############################
13 columns: k_central k_mean P_0(k) sigma^{lin}_{P_0(k)} P^img_1(k) sigma^{lin}_{P_1(k)} P_2(k) sigma^{lin}_{P_2(k)} P^img_3(k) sigma^{lin}_{P_3(k)} P_4(k) sigma^{lin}_{P_4(k)} N_modes
### header ###
0.00050000 0 0 0 0 0 0 0 0 0 0 0 0
0.00150000 0.00179520 13041.76333438 0 -8004.33720973 0 12035.57648593 0 -25059.76450417 0 -65430.81488375 0 3
0.00250000 0.00253879 18915.32413935 0 -4147.64279184 0 -9717.53508780 0 13424.46584311 0 11525.56278097 0 6
0.00350000 0.00331552 29840.47018303 0 -4101.54054072 0 1441.27478383 0 -26746.33577831 0 -4346.76013903 0 7
0.00450000 0.00420575 32558.05343965 0 -3977.22813282 0 -10387.64893813 0 -5828.67784140 0 2258.60387589 0 24
0.00550000 0.00557378 30520.96445444 0 -1825.02082695 0 -7638.84752623 0 3008.80624490 0 13457.30971513 0 45
0.00650000 0.00659388 33002.37940057 0 -5287.96225609 0 -5581.65677319 0 761.53405409 0 15840.41273665 0 40
0.00750000 0.00754703 33622.89790569 0 -6708.22355256 0 -6675.11605080 0 -10952.57452141 0 -3247.77562141 0 57
0.00850000 0.00846663 56409.07557697 0 -6324.30175627 0 -15203.19768121 0 7000.94044271 0 -38192.48009952 0 75
0.00950000 0.00948925 53847.80278818 0 -142.19529207 0 -250.92059148 0 -31119.62366012 0 -17779.40948871 0 112
0.01050000 0.01054430 59842.85296590 0 1409.65019936 0 471.52266417 0 -8244.11944460 0 7303.37867959 0 105
0.01150000 0.01145670 65655.99862167 0 -11172.73830966 0 10235.02928668 0 1558.45820412 0 -26589.69577330 0 144
0.01250000 0.01249090 77349.73520887 0 -4508.00267995 0 -6108.19127531 0 11378.80889129 0 -15841.84073109 0 169
0.01350000 0.01339930 73922.76825494 0 1521.00081162 0 2126.65719004 0 -9648.83757088 0 -3912.49604660 0 180
0.01450000 0.01448870 81257.71659613 0 1555.78895299 0 1724.98432446 0 -2794.46428012 0 -20142.08120523 0 267
0.01550000 0.01550050 78760.59371121 0 1942.79741417 0 17632.10637039 0 -1179.62226494 0 -3036.12487691 0 238
0.01650000 0.01653350 70414.62530964 0 2394.41713128 0 9969.37838338 0 -8523.53401736 0 -10033.90176272 0 315
0.01750000 0.01747870 71014.05343540 0 4258.16956116 0 24465.27943607 0 -3060.21404458 0 -7848.21347963 0 297
0.01850000 0.01844180 69152.05853714 0 -707.80741114 0 7775.37477884 0 6072.84292074 0 -15517.02691986 0 388
0.01950000 0.01947590 68340.62816055 0 4809.06784526 0 18671.02724514 0 1200.54787571 0 4055.10875242 0 399
0.02050000 0.02045430 59814.07338574 0 -1761.12356825 0 7757.70060156 0 4509.54052011 0 4048.15551797 0 462
0.02150000 0.02154770 69590.67252031 0 -4257.68623996 0 7481.88896861 0 8536.12233753 0 -4200.78615399 0 571
0.02250000 0.02255340 66819.81408667 0 3965.25494870 0 335.94667554 0 92.24294825 0 2908.96746471 0 510
0.02350000 0.02348930 71754.63331883 0 -1202.87660509 0 2812.53390202 0 8519.51366379 0 13451.26820021 0 555
0.02450000 0.02439640 71069.85506411 0 -3500.11322275 0 10866.81796327 0 -10526.05455265 0 -1764.44090917 0 592
0.02550000 0.02547300 65291.20096625 0 8195.66649495 0 12818.22728235 0 -11500.07857259 0 -4311.92805937 0 837
0.02650000 0.02652900 59655.34631194 0 3780.41754588 0 25394.35458500 0 -9333.59132237 0 9105.97999391 0 723
0.02750000 0.02749970 63447.44045847 0 -683.80392313 0 28184.65571211 0 4805.05847627 0 -6493.62894261 0 826
0.02850000 0.02848090 61124.86243187 0 -1134.48665620 0 31290.65345521 0 2031.99214353 0 -5329.50590959 0 831
0.02950000 0.02946900 62307.46151598 0 543.15965272 0 27557.54646344 0 4269.50564006 0 -371.89039394 0 996
0.03050000 0.03053250 59884.70418743 0 400.86110567 0 25340.09079645 0 2113.84917841 0 971.53162041 0 1041
0.03150000 0.03150510 60437.99710836 0 1418.00945910 0 27010.95413180 0 4034.52366340 0 778.24488436 0 1036
0.03250000 0.03246190 59539.56891693 0 1963.84385524 0 22505.96122474 0 458.66082813 0 -7351.88655211 0 1059
0.03350000 0.03345080 54686.91428767 0 2921.87433749 0 23024.10351340 0 -1235.66555425 0 -1206.32576088 0 1302
0.03450000 0.03451200 50730.16139814 0 3053.67822390 0 27652.23347910 0 -2631.47519216 0 -2540.97329866 0 1339
0.03550000 0.03553350 48638.25939575 0 843.71733077 0 23553.12052892 0 2970.16251856 0 -4126.66225821 0 1365
0.03650000 0.03647120 50181.81153488 0 -468.58429100 0 23504.45887238 0 2449.97709940 0 -11243.25926563 0 1308
0.03750000 0.03744890 47212.90125760 0 273.55320482 0 22559.78563039 0 1139.39676014 0 -9988.55744710 0 1579
0.03850000 0.03847530 45634.85756056 0 1950.71729100 0 16067.57369763 0 3167.48938041 0 -3479.34139600 0 1662
0.03950000 0.03950240 47786.40579207 0 67.58071543 0 18305.02128673 0 2270.82970517 0 -7745.24409625 0 1683
0.04050000 0.04050350 43804.93761424 0 371.06874791 0 15509.55741050 0 731.51431568 0 -2633.96869014 0 1822
0.04150000 0.04152450 45798.19815485 0 595.33527402 0 14780.07194537 0 5896.57348453 0 148.82448162 0 1887
0.04250000 0.04250150 44465.00058065 0 -1017.34497728 0 14140.76982114 0 -1105.99267493 0 981.45618174 0 1920
0.04350000 0.04349210 42591.03249827 0 1937.39300446 0 11824.23330946 0 1115.53826850 0 -4833.86002557 0 2005
0.04450000 0.04448520 40941.25954228 0 2172.08938223 0 14565.32355141 0 -95.55303935 0 6945.81985750 0 2151
0.04550000 0.04548030 39732.73686688 0 8.83222248 0 13649.64958103 0 3314.61674557 0 6597.87253641 0 2274
0.04650000 0.04648670 41157.10639350 0 -910.61008242 0 11192.51054031 0 7009.51939390 0 6270.91673353 0 2311
0.04750000 0.04749250 40772.64635316 0 575.08082064 0 10252.03340504 0 644.31438470 0 6957.37562785 0 2568
0.04850000 0.04851840 38812.66906747 0 772.52741433 0 8974.67041327 0 -3598.13954846 0 6671.86461732 0 2493
0.04950000 0.04949480 37097.64775034 0 1549.25313230 0 12643.02334967 0 34.93170973 0 4725.26654103 0 2644
0.05050000 0.05050630 36235.46864843 0 588.37325192 0 11152.85623329 0 -2040.13171182 0 56.15038889 0 2829
0.05150000 0.05149060 35024.52936706 0 1164.69423080 0 12153.22125827 0 180.34471264 0 1656.87997445 0 2784
0.05250000 0.05249300 35196.87731087 0 607.06020679 0 11956.81710052 0 -92.92322283 0 -1540.24578278 0 3055
0.05350000 0.05348950 33475.70463310 0 -184.09814109 0 9536.71803854 0 2673.61201258 0 629.38854748 0 3009
0.05450000 0.05448610 33443.95921834 0 -94.73139332 0 8384.57917420 0 3254.41030325 0 -1407.87069861 0 3336
0.05550000 0.05550870 34055.25068249 0 522.55918530 0 8283.02680069 0 -825.74657003 0 -2114.96960481 0 3349
0.05650000 0.05647670 32423.60227125 0 1451.95178837 0 9128.05898480 0 -1606.76835434 0 904.59602893 0 3324
0.05750000 0.05747970 30823.47958333 0 -350.75937167 0 7448.33109938 0 1007.12383249 0 1107.15703962 0 3639
0.05850000 0.05849280 32373.95200319 0 -848.55603499 0 7429.73421800 0 2273.85046263 0 -65.02888937 0 3846
0.05950000 0.05951020 32314.52546552 0 21.35994077 0 7094.30930965 0 176.32655599 0 -142.71486235 0 3787
0.06050000 0.06049470 31874.81302509 0 1028.96335970 0 5086.16467319 0 -1627.10079818 0 463.04586951 0 3930
0.06150000 0.06148310 33389.14620115 0 -803.18645486 0 8018.80389182 0 882.65544366 0 -275.77867923 0 4083
0.06250000 0.06249100 32462.04827529 0 210.30733127 0 6887.97509828 0 650.41521631 0 -1238.42268197 0 4303
0.06350000 0.06350600 33456.48163108 0 439.02260927 0 8145.21435308 0 -1965.33775711 0 -1120.60215646 0 4470
0.06450000 0.06451750 31679.06794169 0 -173.34534299 0 8189.20756627 0 -568.12978311 0 163.45373538 0 4479
0.06550000 0.06550280 32626.59717256 0 329.92273594 0 9427.56434080 0 57.61748841 0 -4015.02604707 0 4636
0.06650000 0.06648880 31897.77078179 0 1179.64423408 0 10742.43964793 0 -2052.53329426 0 -3516.30448273 0 4653
0.06750000 0.06749660 30036.10542070 0 1408.84832557 0 12279.21430578 0 -482.91915822 0 -2055.00482309 0 5220
0.06850000 0.06852730 29545.75410067 0 169.11079026 0 11975.60071963 0 1238.49957397 0 -142.46221718 0 5029
0.06950000 0.06949320 28940.72384289 0 -295.14777606 0 10919.41209679 0 2190.52149503 0 -1348.52105295 0 5040
0.07050000 0.07048030 30060.05178893 0 -18.57062825 0 9696.75227648 0 2449.68051594 0 82.60365627 0 5475
0.07150000 0.07148790 29319.03252259 0 -166.49756044 0 9034.42648811 0 577.55894021 0 1524.09846109 0 5509
0.07250000 0.07249820 28768.92512772 0 953.29942684 0 8133.42790670 0 425.61044615 0 2458.97346434 0 5916
0.07350000 0.07351270 28296.14912381 0 333.62343844 0 8101.35295476 0 60.79730248 0 3175.84864015 0 5721
0.07450000 0.07449140 27673.54354990 0 115.72576752 0 8616.58433169 0 363.01156392 0 1611.35990567 0 6028
0.07550000 0.07549160 26319.36544208 0 975.80791452 0 8559.55243085 0 -411.06577360 0 2422.88914341 0 6183
0.07650000 0.07648840 26682.62525734 0 724.49077997 0 9539.91454916 0 201.17915146 0 1904.06581125 0 6330
0.07750000 0.07749960 25701.70292583 0 223.53934740 0 9073.36679792 0 292.01387750 0 2319.00804051 0 6583
0.07850000 0.07848650 24954.20276167 0 343.00755880 0 10366.37182104 0 197.04345988 0 2739.62929380 0 6549
0.07950000 0.07947320 25090.96069030 0 64.70473464 0 8151.48654403 0 435.83928014 0 1287.19418423 0 6828
0.08050000 0.08048110 23999.86309580 0 247.74495154 0 8697.09026414 0 403.25134866 0 2778.76732590 0 7147
0.08150000 0.08149960 24030.51005330 0 217.05735112 0 8666.10278489 0 -239.40546404 0 1607.22970638 0 7386
0.08250000 0.08250610 23541.80641916 0 814.99047656 0 8247.71139984 0 -58.03193633 0 1375.64196265 0 7227
0.08350000 0.08350160 23564.65433013 0 -156.02047512 0 7588.63704496 0 1682.43009028 0 582.13181778 0 7798
0.08450000 0.08449610 23261.91950978 0 35.16271529 0 7716.21187092 0 667.80489317 0 892.36141199 0 7371
0.08550000 0.08548940 22600.20885748 0 411.30413882 0 7296.94172006 0 -950.44233952 0 1015.68301145 0 8256
0.08650000 0.08650700 22094.03975294 0 770.70617220 0 7472.20057560 0 -419.54146980 0 1175.47009650 0 8037
0.08750000 0.08749060 21520.42537274 0 260.01581757 0 7871.90720269 0 80.01195622 0 530.18687250 0 8155
0.08850000 0.08849210 21623.79020073 0 472.93637866 0 8039.05944366 0 654.11042653 0 -692.02038342 0 8718
0.08950000 0.08949900 20348.15178686 0 670.11824415 0 9032.86667881 0 -1601.84726582 0 -436.17211269 0 8571
0.09050000 0.09049190 19884.05359530 0 917.03386047 0 9309.89759931 0 -1275.89105904 0 -972.67072059 0 8932
0.09150000 0.09150830 18933.99791274 0 440.25397986 0 10194.36439899 0 459.65712887 0 -1504.77659792 0 9285
0.09250000 0.09250820 18812.17900281 0 -139.36896154 0 9701.69533414 0 594.44662210 0 -980.56093908 0 9204
0.09350000 0.09350330 18205.06167624 0 -355.50800239 0 8485.42853507 0 2318.32699701 0 -290.95166933 0 9349
0.09450000 0.09448040 19256.61480945 0 -419.11416993 0 7411.20324405 0 1545.51837762 0 -327.72691988 0 9564
0.09550000 0.09549270 18812.17900281 0 226.55900640 0 5885.05066789 0 514.62173315 0 -802.04405931 0 10155
0.09650000 0.09649430 18686.18595530 0 241.71661811 0 6013.52622880 0 -238.27295461 0 361.96034033 0 9913
0.09750000 0.09749140 17881.23647654 0 486.97576088 0 5133.84870277 0 -145.54998053 0 -661.99515273 0 10476
0.09850000 0.09850240 17917.26587461 0 138.64178284 0 5562.66444720 0 663.47367620 0 -307.42742975 0 10575
0.09950000 0.09950330 17441.74372756 0 128.54805909 0 4970.59598507 0 -91.78236512 0 -1257.30516223 0 10882
0.10050000 0.10051200 16955.78623656 0 621.83445692 0 5506.36851272 0 -447.15778373 0 -752.05436795 0 10875
0.10150000 0.10150300 16733.23879606 0 402.91631920 0 5749.35824279 0 -262.19735369 0 -698.14977492 0 11118
0.10250000 0.10250800 16303.96169958 0 0.57225010 0 5688.44878783 0 1013.76071125 0 -738.04354563 0 11575
0.10350000 0.10349800 16137.87496215 0 101.95935193 0 5642.20373726 0 558.74346584 0 101.72592976 0 11364
0.10450000 0.10450100 16050.21807296 0 74.44695206 0 5417.92073430 0 148.87720757 0 291.05492432 0 12093
0.10550000 0.10551000 15802.84549842 0 425.53025877 0 5612.77606732 0 -84.78365455 0 1185.67476443 0 12067
0.10650000 0.10649700 15561.07505591 0 86.93663077 0 5516.52924236 0 150.27883903 0 818.85375073 0 12054
0.10750000 0.10749900 15204.95521282 0 131.27223309 0 6205.85511013 0 -470.09466973 0 1429.52129116 0 12807
0.10850000 0.10850100 15030.84973741 0 287.51899040 0 5907.50313425 0 305.29752113 0 523.09523244 0 12736
0.10950000 0.10950300 15541.74220817 0 -69.24312064 0 6256.39512858 0 461.19277211 0 1403.36702385 0 12933
0.11050000 0.11050200 14808.52198836 0 -184.85937197 0 5278.88899913 0 292.64768734 0 745.34938485 0 13428
0.11150000 0.11150900 15618.08498761 0 -53.39809439 0 5308.63522168 0 503.72723406 0 356.23078727 0 13453
0.11250000 0.11250000 15172.99010661 0 429.67693492 0 5337.01935723 0 -197.77942624 0 839.54978393 0 13668
0.11350000 0.11349100 15139.37731451 0 149.72741348 0 5376.67366425 0 -302.34486802 0 469.21480547 0 13791
0.11450000 0.11448600 14544.12332633 0 306.29382186 0 5492.46204383 0 -158.95115908 0 227.56629171 0 14205
0.11550000 0.11549300 14220.18828090 0 139.48649647 0 5304.93342072 0 874.64878870 0 637.41936849 0 14776
0.11650000 0.11649800 14332.34076696 0 -125.17799222 0 4730.27550613 0 501.42706456 0 1425.12746213 0 14553
0.11750000 0.11747300 14192.61700372 0 167.40488614 0 4559.65214023 0 408.86776062 0 670.47084893 0 14568
0.11850000 0.11849100 14015.43584799 0 356.68664703 0 4686.06260149 0 -138.44625744 0 907.42345791 0 16015
0.11950000 0.11950300 13495.20649054 0 87.75772758 0 4688.53413032 0 74.45343296 0 1301.93548063 0 15270
0.12050000 0.12050700 13472.68811674 0 76.80336257 0 4925.95468210 0 -9.36438108 0 1429.89476663 0 15999
0.12150000 0.12150000 13311.87397415 0 116.14647665 0 4635.03926185 0 221.69503767 0 1764.85832293 0 15670
0.12250000 0.12250700 13225.09585076 0 51.10143995 0 4679.40595051 0 379.02157846 0 1631.22001290 0 16887
0.12350000 0.12352200 13369.76267166 0 -20.74799023 0 4149.92758294 0 428.66635424 0 1376.29005243 0 16407
0.12450000 0.12449800 13422.81815722 0 38.88615586 0 4479.91512786 0 367.65364430 0 1507.28108047 0 16306
0.12550000 0.12549900 13032.09691051 0 235.99585271 0 4343.82725815 0 -127.61546888 0 1898.99093872 0 17523
0.12650000 0.12650100 12747.26694347 0 162.77928263 0 4223.42535808 0 -103.00068941 0 2095.36214275 0 17154
0.12750000 0.12750600 12779.45174113 0 151.10487889 0 4199.35815956 0 210.02832313 0 1567.23487762 0 18007
0.12850000 0.12850300 12773.95945484 0 -170.37181919 0 3655.13849559 0 273.41040538 0 1404.15791307 0 17496
0.12950000 0.12949900 12650.38301330 0 252.20798338 0 3871.65540574 0 -303.96838784 0 -57.41185721 0 18405
0.13050000 0.13049000 12333.91747724 0 426.07948740 0 3968.42949018 0 -279.84077417 0 948.77597985 0 18100
0.13150000 0.13148800 12307.77419449 0 -196.68536281 0 3937.89237840 0 -51.72272738 0 1.39048212 0 19059
0.13250000 0.13249300 12353.90939933 0 -110.51139091 0 3420.49704068 0 544.14496888 0 -298.98578572 0 18957
0.13350000 0.13349100 12230.55264924 0 55.99276028 0 3141.96123373 0 185.39322220 0 -414.65553192 0 19468
0.13450000 0.13450700 12259.00269223 0 169.70835101 0 2869.51088000 0 68.55559625 0 -423.30917820 0 19953
0.13550000 0.13551000 11879.92509245 0 318.80634849 0 3356.51190539 0 -272.43827071 0 -476.70518551 0 19956
0.13650000 0.13649900 11681.98309453 0 262.26216267 0 3351.20635683 0 62.58141676 0 102.96323202 0 19723
0.13750000 0.13749600 11496.01428073 0 112.20301509 0 3394.63935682 0 201.77231837 0 372.71533534 0 20946
0.13850000 0.13851100 11310.59469556 0 -105.84481494 0 3366.55180473 0 133.36479417 0 -48.85729177 0 20955
0.13950000 0.13949800 11495.68474355 0 140.53662161 0 3234.35247371 0 319.62469914 0 203.02675656 0 20506
0.14050000 0.14048300 11001.92820602 0 354.10307556 0 3646.23000722 0 -441.90825649 0 318.25162757 0 21447
0.14150000 0.14148400 10832.55708139 0 211.43324996 0 4025.99963508 0 -170.58162453 0 861.94732743 0 21771
0.14250000 0.14249400 10769.47268106 0 -99.12862757 0 3957.03848841 0 128.83365798 0 -15.91258138 0 22470
0.14350000 0.14350900 10759.87216462 0 40.92478268 0 3874.23678029 0 40.14597649 0 517.45026059 0 22519
0.14450000 0.14449900 10485.66427927 0 151.61566151 0 3838.05359821 0 19.18499540 0 113.31355538 0 22218
0.14550000 0.14550500 10585.50305946 0 201.99420674 0 4074.94689050 0 47.64832971 0 679.31342986 0 23559
0.14650000 0.14650700 10288.68892374 0 172.65990566 0 4180.45371014 0 104.31609198 0 306.76176465 0 23044
0.14750000 0.14750500 10348.71961290 0 21.43199956 0 3806.51689033 0 512.87298919 0 279.35415760 0 23649
0.14850000 0.14849900 10266.20350367 0 -223.59097489 0 3491.81987045 0 279.80891891 0 669.10986039 0 23640
0.14950000 0.14949500 10221.36447839 0 -63.87419110 0 2898.20258358 0 295.50587313 0 733.02689133 0 24457
0.15050000 0.15050000 10231.67899205 0 213.67739814 0 2506.71241678 0 159.91560455 0 786.77660188 0 24591
0.15150000 0.15149900 10068.76679609 0 287.57391327 0 2898.98248823 0 -37.54054572 0 459.48137571 0 25020
0.15250000 0.15250500 9740.56973651 0 210.50395512 0 2751.72330821 0 137.54991632 0 882.86085517 0 25297
0.15350000 0.15350100 9561.70794116 0 108.27097749 0 2704.46767696 0 231.03302282 0 949.73932687 0 25452
0.15450000 0.15450400 9448.67668930 0 -35.23664146 0 2513.73155866 0 333.92661264 0 1046.09819447 0 26061
0.15550000 0.15549900 9496.85502464 0 6.08846298 0 2433.65402454 0 19.34855568 0 636.73502962 0 26128
0.15650000 0.15649500 9360.17398801 0 138.46163585 0 2654.48787172 0 -195.49243823 0 735.18096601 0 26331
0.15750000 0.15749700 9240.21147085 0 139.22396518 0 2663.57211324 0 -397.90076336 0 550.57753458 0 27345
0.15850000 0.15849900 9041.83009003 0 137.73116177 0 2719.05518935 0 -51.21447120 0 570.59691811 0 26980
0.15950000 0.15949700 9159.93621443 0 118.14127503 0 2949.91795129 0 98.65222666 0 7.37679956 0 27777
0.16050000 0.16050000 8941.46405036 0 35.39273224 0 2852.95712912 0 -230.66394118 0 92.08905439 0 28224
0.16150000 0.16150500 8899.14049220 0 25.05932512 0 2752.89865747 0 521.49587867 0 71.50638198 0 28075
0.16250000 0.16249700 8872.78850258 0 75.12766602 0 2645.50249135 0 -39.59521002 0 482.98726257 0 28590
0.16350000 0.16349900 8631.02904464 0 54.42548146 0 2543.57664236 0 284.08521301 0 345.64934850 0 29163
0.16450000 0.16449100 8706.22942853 0 11.56280048 0 2540.54490033 0 163.68990369 0 559.48492449 0 28996
0.16550000 0.16550500 8498.78577533 0 64.68485256 0 2251.29913512 0 31.63655765 0 678.87844079 0 30777
0.16650000 0.16650700 8585.43208385 0 -11.16955278 0 2121.39557977 0 345.98547642 0 586.33671216 0 29211
0.16750000 0.16749900 8599.65710534 0 133.78330638 0 2072.95361469 0 -26.46183535 0 461.74309920 0 30922
0.16850000 0.16850800 8394.39938209 0 255.47699218 0 2141.26667157 0 -181.86168211 0 472.66066589 0 30867
0.16950000 0.16949900 8246.85460318 0 102.39554931 0 2329.16877015 0 -273.47301744 0 182.54272561 0 30852
0.17050000 0.17049200 8171.58831185 0 163.47350761 0 2683.90455709 0 -286.31947508 0 -116.05420624 0 31257
0.17150000 0.17149500 7764.91746574 0 154.94069163 0 2749.76805429 0 -140.08845104 0 176.45397703 0 32608
0.17250000 0.17250900 7794.15839795 0 -19.85988754 0 2611.50523921 0 320.90879568 0 -125.11867553 0 32361
0.17350000 0.17350400 7877.36653526 0 -22.08569148 0 2637.90116712 0 277.71196400 0 74.83514685 0 32508
0.17450000 0.17449800 7902.70794420 0 34.00153612 0 2478.00972863 0 265.94089602 0 380.24416139 0 32791
0.17550000 0.17549800 7873.91737947 0 -114.81954028 0 2001.87244551 0 238.33446821 0 530.83825765 0 33633
0.17650000 0.17650100 7883.14442044 0 -79.03630648 0 2029.27895410 0 423.21580933 0 478.12878612 0 33984
0.17750000 0.17750300 7931.76213868 0 231.45812578 0 1840.55301258 0 -54.94571082 0 734.44170428 0 34069
0.17850000 0.17849800 7676.94202394 0 196.14492184 0 1999.22516352 0 -252.24862630 0 1077.75024036 0 34536
