### header ###
fiducial parameters:
Omega_m = 0.31
Omega_nu = 0
Omega_de = 0.69
Omega_k = 0
H_0 = 100
w_de = -1
zeff = 0
beta = 0
fgrowth = 0
b_1 = 2
gamma = 0.55
Lx = 3500 Ly = 3500 Lz = 3500
nx = 700 ny = 700 nz = 700
xoffset = -983.599254 yoffset = -42.9823471 zoffset = 800.977702
bins = 400 dk = 0.001
kx_ny = 0.628318531 ky_ny = 0.628318531 kz_ny = 0.628318531
############################
A(data) = 9.10063783 (not used)
A(ran) = 9.10809604 (used)
Ngal = 506070
weighted Ngal = 0
Nran = 25229228
weighted Nran = 0
SN(data) = 6694.67415
SN(ran) = 135.203411
SN(data+ran) = 6829.87756
############################
13 columns: k_central k_mean P_0(k) sigma^{lin}_{P_0(k)} P^img_1(k) sigma^{lin}_{P_1(k)} P_2(k) sigma^{lin}_{P_2(k)} P^img_3(k) sigma^{lin}_{P_3(k)} P_4(k) sigma^{lin}_{P_4(k)} N_modes
### header ###
0.00050000 0 0 0 0 0 0 0 0 0 0 0 0
0.00150000 0.00179520 33815.01808013 0 858.79695201 0 7850.44334786 0 24951.45661852 0 4100.02466970 0 3
0.00250000 0.00253879 62576.91308140 0 -1403.13634782 0 16035.49874570 0 -28416.86957648 0 13190.93383003 0 6
0.00350000 0.00331552 44556.06268735 0 11114.84961216 0 14153.62177106 0 -41319.01899335 0 40342.49049087 0 7
0.00450000 0.00420575 38951.95344780 0 -10975.18077179 0 -13246.29607584 0 45549.94681451 0 12601.94104822 0 24
0.00550000 0.00557378 69692.38966241 0 -25799.68531325 0 -31784.08045557 0 25672.26427131 0 -21625.10834944 0 45
0.00650000 0.00659388 89126.95454768 0 -1662.84459736 0 -27577.86792272 0 -25075.91182587 0 12248.45750255 0 40
0.00750000 0.00754703 86268.76876201 0 14597.94773198 0 1937.79943365 0 -72789.05051882 0 1423.11728535 0 57
0.00850000 0.00846663 60500.49932634 0 21760.98751227 0 24802.94519722 0 -6090.08869969 0 11642.21894179 0 75
0.00950000 0.00948925 70251.50440680 0 -3271.23866844 0 34444.76362622 0 -5892.46525438 0 -23947.90606749 0 112
0.01050000 0.01054430 66576.39595826 0 -2738.83840457 0 45640.67938403 0 22317.35611352 0 -15171.34242072 0 105
0.01150000 0.01145670 68005.04946819 0 -834.92527888 0 31042.73165205 0 -93.98367347 0 -5623.03565811 0 144
0.01250000 0.01249090 78446.54478111 0 -1565.62014545 0 36292.80811731 0 860.31392149 0 -8249.20530171 0 169
0.01350000 0.01339930 78003.86650609 0 8410.21716661 0 46921.81008419 0 -6036.22035575 0 3130.20774107 0 180
0.01450000 0.01448870 67667.27386132 0 7942.73572669 0 58041.71259974 0 624.44768673 0 8643.59539567 0 267
0.01550000 0.01550050 60358.02941996 0 3105.26177674 0 55036.55323293 0 6850.69345894 0 22914.03809613 0 238
0.01650000 0.01653350 65219.03232439 0 -9346.06979682 0 45964.28489228 0 35085.82328207 0 4522.09588657 0 315
0.01750000 0.01747870 72294.96444411 0 -1799.39381912 0 49523.39625436 0 12224.84067150 0 14929.02274958 0 297
0.01850000 0.01844180 74084.90054624 0 2061.80427352 0 27772.29485741 0 12558.33229507 0 28852.62757079 0 388
0.01950000 0.01947590 76778.75712609 0 155.21969978 0 35306.28365378 0 754.78403424 0 21092.35657924 0 399
0.02050000 0.02045430 65267.03490657 0 2761.74123840 0 31850.53711969 0 -2465.19073242 0 14178.77644227 0 462
0.02150000 0.02154770 67121.34060402 0 5107.45277486 0 41873.84975444 0 517.53264488 0 17185.91303214 0 571
0.02250000 0.02255340 61428.36617229 0 -1014.54720664 0 30043.90446723 0 9998.72916131 0 23075.07193018 0 510
0.02350000 0.02348930 68646.87804412 0 -1483.70818771 0 42966.04580620 0 13257.50033987 0 6075.28149585 0 555
0.02450000 0.02439640 62374.24771727 0 2863.55724166 0 28513.97319810 0 -4050.04486446 0 13257.72003133 0 592
0.02550000 0.02547300 62577.24261857 0 4039.43376735 0 35839.25511542 0 -4551.17205019 0 9336.41435752 0 837
0.02650000 0.02652900 56478.38822996 0 -1207.38027985 0 30872.14123987 0 7624.44675157 0 20424.82410348 0 723
0.02750000 0.02749970 59864.05319098 0 -702.35137394 0 31068.10601472 0 10529.66847703 0 6446.69186397 0 826
0.02850000 0.02848090 59445.65082136 0 -1140.23158766 0 24447.48442849 0 2535.65676553 0 10673.21487153 0 831
0.02950000 0.02946900 59784.96426840 0 4678.42832355 0 24356.75185897 0 5841.17828500 0 7364.88130148 0 996
0.03050000 0.03053250 55127.94487681 0 1672.55495953 0 27412.65995110 0 -4670.98078334 0 12209.13273271 0 1041
0.03150000 0.03150510 52270.85754840 0 1362.37259897 0 22683.58176338 0 5756.22360066 0 9261.49957252 0 1036
0.03250000 0.03246190 55658.28004104 0 -1537.96099169 0 21090.37935618 0 3708.05118171 0 6422.70155746 0 1059
0.03350000 0.03345080 51164.27170656 0 1079.90541350 0 18725.29103369 0 3442.37830926 0 11615.96581332 0 1302
0.03450000 0.03451200 50013.85742011 0 1548.41830478 0 19615.37094996 0 -828.34442144 0 5430.56397734 0 1339
0.03550000 0.03553350 48553.89787833 0 1346.68662933 0 18026.56237179 0 337.11213869 0 8480.47449284 0 1365
0.03650000 0.03647120 47925.69017240 0 851.76133327 0 17467.33778167 0 1738.69307104 0 3657.11571865 0 1308
0.03750000 0.03744890 47406.77896366 0 -645.00531432 0 14893.54258014 0 3234.23164342 0 10288.16166426 0 1579
0.03850000 0.03847530 46245.27025891 0 1283.29466096 0 15729.35870785 0 1728.76301742 0 5460.72761365 0 1662
0.03950000 0.03950240 46532.62667763 0 484.96887947 0 15422.23005848 0 1086.86963252 0 2998.89816043 0 1683
0.04050000 0.04050350 45873.88185993 0 -563.21418688 0 13219.38387302 0 2494.94793955 0 2588.75618939 0 1822
0.04150000 0.04152450 46926.31375895 0 1288.91876212 0 13103.93601519 0 -2442.24396030 0 5112.37386337 0 1887
0.04250000 0.04250150 43540.20941503 0 756.03188168 0 10718.40540312 0 -468.25365537 0 4556.13707700 0 1920
0.04350000 0.04349210 42690.44288013 0 1788.66189171 0 15650.05009382 0 -196.01091006 0 608.76720937 0 2005
0.04450000 0.04448520 41566.39156788 0 2383.04809866 0 19397.76656712 0 -3700.15327403 0 1088.56125670 0 2151
0.04550000 0.04548030 39902.66820471 0 1321.58688098 0 19484.21515333 0 326.78883738 0 4978.06549442 0 2274
0.04650000 0.04648670 38387.56610857 0 -1059.57626503 0 18090.60242994 0 2992.40627804 0 -1921.58620452 0 2311
0.04750000 0.04749250 39031.37190756 0 481.95251584 0 18945.97109685 0 1208.66547484 0 -20.85706703 0 2568
0.04850000 0.04851840 38423.81519809 0 1632.84572964 0 18563.59812529 0 -1325.45345053 0 1986.85653480 0 2493
0.04950000 0.04949480 36834.67708274 0 374.31688603 0 21560.07967976 0 3157.62523423 0 9306.20678292 0 2644
0.05050000 0.05050630 38367.68403220 0 -795.29184255 0 19489.48774817 0 2509.55742108 0 1825.73482417 0 2829
0.05150000 0.05149060 36649.58703475 0 840.73172394 0 18030.51681792 0 -2001.44404718 0 -754.28094081 0 2784
0.05250000 0.05249300 36113.64973850 0 2184.78754814 0 19494.65049729 0 451.90970983 0 3168.13747019 0 3055
0.05350000 0.05348950 35789.93438453 0 34.11885136 0 21423.43159685 0 914.99402534 0 6138.82724824 0 3009
0.05450000 0.05448610 34751.12335551 0 -377.43540618 0 17284.77418537 0 2620.17206697 0 1498.40554582 0 3336
0.05550000 0.05550870 34342.60710121 0 7.14969352 0 19490.80589688 0 1118.89954771 0 682.86254526 0 3349
0.05650000 0.05647670 34178.60743258 0 1167.97861800 0 17623.75809523 0 323.70986169 0 2663.33045265 0 3324
0.05750000 0.05747970 34166.30471128 0 122.20776380 0 16489.71082194 0 233.34747226 0 1976.19051482 0 3639
0.05850000 0.05849280 32649.22539207 0 -370.67659867 0 14420.65673051 0 1671.70914744 0 2505.27343777 0 3846
0.05950000 0.05951020 33343.67007067 0 263.69784630 0 13215.53927261 0 4539.89089415 0 2806.17383449 0 3787
0.06050000 0.06049470 32680.97080683 0 -95.97660447 0 10458.07103295 0 3192.39140645 0 4567.14361873 0 3930
0.06150000 0.06148310 33628.93942060 0 273.61032460 0 8708.67898821 0 652.23426153 0 2760.89542631 0 4083
0.06250000 0.06249100 30891.69377906 0 985.19642871 0 8913.04696109 0 -792.24362366 0 4220.18490917 0 4303
0.06350000 0.06350600 29786.31624020 0 954.57912955 0 9500.82045535 0 -533.30429420 0 3495.88416230 0 4470
0.06450000 0.06451750 29844.97385778 0 357.18644508 0 9424.45570676 0 419.98414808 0 2370.82226938 0 4479
0.06550000 0.06550280 29193.03947508 0 -140.25981038 0 8393.25698654 0 -211.88910972 0 373.37221278 0 4636
0.06650000 0.06648880 29337.15706735 0 -15.51504970 0 8933.84075699 0 -592.19039089 0 -1657.97843171 0 4653
0.06750000 0.06749660 29502.03550179 0 574.18228260 0 8289.24406877 0 -702.73912935 0 -1497.83434805 0 5220
0.06850000 0.06852730 28189.92830695 0 -132.19603564 0 9029.17586242 0 329.33286439 0 -3320.15297015 0 5029
0.06950000 0.06949320 29184.80104564 0 692.49821233 0 9737.74670135 0 -699.70519040 0 -2530.50500099 0 5040
0.07050000 0.07048030 28566.91883794 0 -391.63296624 0 9190.45135706 0 1011.93177991 0 -2245.32352763 0 5475
0.07150000 0.07148790 28435.32365842 0 -60.30618224 0 8660.54459116 0 1049.86480441 0 -2073.77745763 0 5509
0.07250000 0.07249820 28201.13257099 0 1133.20146121 0 9771.41441631 0 -604.24925467 0 -1683.64937783 0 5916
0.07350000 0.07351270 27532.28194651 0 741.67943915 0 10406.01514348 0 -917.27002878 0 -662.67619623 0 5721
0.07450000 0.07449140 27675.63061869 0 -76.79710136 0 11130.55755095 0 1727.58766816 0 417.55106525 0 6028
0.07550000 0.07549160 26581.45734387 0 263.50561628 0 9758.01323777 0 920.13480531 0 2.93680237 0 6183
0.07650000 0.07648840 26208.31141328 0 549.80861450 0 10285.83293487 0 -161.76980041 0 1335.22972013 0 6330
0.07750000 0.07749960 25430.93321170 0 755.86381772 0 11445.37540113 0 -647.09897385 0 1427.48914524 0 6583
0.07850000 0.07848650 24310.17727122 0 832.33841204 0 11002.14789747 0 424.14620263 0 2652.27997263 0 6549
0.07950000 0.07947320 23981.62870531 0 -384.11732168 0 10618.80828353 0 1455.77441963 0 3333.53217955 0 6828
0.08050000 0.08048110 24591.05279213 0 25.72389176 0 10058.67197389 0 1920.24608666 0 2888.83274317 0 7147
0.08150000 0.08149960 24249.43258485 0 285.78892022 0 8448.76203179 0 1023.01411519 0 2717.34159603 0 7386
0.08250000 0.08250610 24204.28599154 0 165.92526421 0 8479.99117164 0 280.95131446 0 4636.46725629 0 7227
0.08350000 0.08350160 22908.43596412 0 239.60977709 0 8103.33017783 0 -281.83996638 0 3041.85882380 0 7798
0.08450000 0.08449610 23242.47681632 0 844.87730164 0 9224.39368634 0 -961.74546470 0 1542.05823726 0 7371
0.08550000 0.08548940 22095.57759310 0 572.62796558 0 9241.43075841 0 -831.63759630 0 777.89337804 0 8256
0.08650000 0.08650700 21666.52018807 0 92.48878299 0 9118.94178956 0 748.09772491 0 619.96488266 0 8037
0.08750000 0.08749060 21376.74716337 0 -261.75906924 0 8479.33209729 0 1468.65932327 0 580.13042865 0 8155
0.08850000 0.08849210 21695.84899686 0 218.25247262 0 7096.37440930 0 933.18667445 0 -831.04003556 0 8718
0.08950000 0.08949900 20664.72716865 0 541.17913428 0 6561.66738518 0 -155.19553372 0 387.13917760 0 8571
0.09050000 0.09049190 19912.39379256 0 575.56853566 0 6586.44858093 0 133.16487495 0 -625.17596389 0 8932
0.09150000 0.09150830 19630.30996867 0 438.50743282 0 6535.32638013 0 -319.53023182 0 -969.57197267 0 9285
0.09250000 0.09250820 19005.06809734 0 313.51837524 0 6538.43501417 0 243.84762519 0 -320.68800577 0 9204
0.09350000 0.09350330 18594.68446570 0 97.69623931 0 5732.58480046 0 64.04016799 0 -1330.41847733 0 9349
0.09450000 0.09448040 18555.14000440 0 249.81114964 0 6773.83440459 0 -189.35096370 0 -775.98425932 0 9564
0.09550000 0.09549270 18311.06280165 0 179.55382341 0 5449.33661188 0 306.94081318 0 -1520.74816645 0 10155
0.09650000 0.09649430 18152.44557357 0 -461.88150481 0 6285.51523049 0 1551.80155314 0 756.45698464 0 9913
0.09750000 0.09749140 18594.68446570 0 276.08295189 0 5370.96168651 0 851.58777703 0 -1213.02635016 0 10476
0.09850000 0.09850240 17896.39518670 0 389.95672047 0 5548.79093203 0 -829.11773535 0 336.01258298 0 10575
0.09950000 0.09950330 17352.76868965 0 623.75675712 0 5697.35727619 0 -432.88443011 0 657.81881823 0 10882
0.10050000 0.10051200 17157.46298915 0 301.71874738 0 6599.69597546 0 396.20254844 0 1307.53761265 0 10875
0.10150000 0.10150300 16602.41253662 0 105.91247991 0 6765.21151512 0 -120.93575029 0 1316.43511644 0 11118
0.10250000 0.10250800 16497.72955992 0 328.05206323 0 5878.80044609 0 1044.67898769 0 1401.56555394 0 11575
0.10350000 0.10349800 16627.78689928 0 -102.16014992 0 5938.21599918 0 967.32892294 0 2410.12507007 0 11364
0.10450000 0.10450100 16436.32579919 0 -445.55403613 0 5129.08139827 0 444.29300720 0 1661.44955665 0 12093
0.10550000 0.10551000 16640.85854065 0 446.98422748 0 5493.76920797 0 -265.79699812 0 1363.63582482 0 12067
0.10650000 0.10649700 15827.89032391 0 620.98644791 0 5063.47054624 0 -878.63618855 0 1030.53964586 0 12054
0.10750000 0.10749900 15934.66036940 0 52.64949577 0 5487.34323301 0 -52.20374181 0 1944.62085322 0 12807
0.10850000 0.10850100 15690.91270382 0 -139.76001232 0 5643.30219452 0 858.73433995 0 790.48938741 0 12736
0.10950000 0.10950300 15497.58422639 0 21.73297685 0 5490.02346872 0 342.11121767 0 552.32957391 0 12933
0.11050000 0.11050200 15519.77306300 0 335.00749459 0 5189.55147033 0 -306.47836268 0 972.58833630 0 13428
0.11150000 0.11150900 15669.71247874 0 45.86915849 0 5463.53966423 0 -354.56113224 0 263.72420928 0 13453
0.11250000 0.11250000 15252.62825782 0 -72.12723002 0 4833.09110549 0 629.88065633 0 1284.36016450 0 13668
0.11350000 0.11349100 15157.28216782 0 59.76782834 0 5109.64968937 0 -84.43599283 0 -645.80828657 0 13791
0.11450000 0.11448600 14879.81186441 0 698.60893006 0 5247.09964608 0 -650.29328756 0 -134.53245423 0 14205
0.11550000 0.11549300 14706.58515481 0 342.40999805 0 5869.69423542 0 -466.64771086 0 -1007.72359016 0 14776
0.11650000 0.11649800 14038.39360468 0 -71.06348401 0 5565.27877547 0 335.65668283 0 11.41637613 0 14553
0.11750000 0.11747300 14060.03321267 0 67.89970742 0 5939.01787298 0 532.66938590 0 -798.88929007 0 14568
0.11850000 0.11849100 13983.69043323 0 129.76295282 0 4584.43333597 0 999.06225467 0 -90.84834692 0 16015
0.11950000 0.11950300 14059.04460114 0 60.95668863 0 4759.88991381 0 426.46394744 0 171.89757633 0 15270
0.12050000 0.12050700 13535.84940909 0 220.23628643 0 4653.02100717 0 337.23296899 0 1370.78678157 0 15999
0.12150000 0.12150000 13536.61832917 0 93.32591726 0 4396.00397791 0 105.87128776 0 855.51915555 0 15670
0.12250000 0.12250700 13083.17517301 0 -106.13656519 0 3835.39533165 0 455.72465188 0 1495.32986550 0 16887
0.12350000 0.12352200 13701.60660934 0 73.27314063 0 3991.01377141 0 483.31789821 0 1816.70550551 0 16407
0.12450000 0.12449800 13462.58230997 0 -6.07630306 0 4027.69125926 0 -155.38666528 0 1621.03731412 0 16306
0.12550000 0.12549900 13540.90231247 0 234.70077160 0 4040.01594969 0 -808.20310916 0 767.77548823 0 17523
0.12650000 0.12650100 12875.67659695 0 480.95291973 0 4228.47826147 0 -121.62997528 0 1119.16317745 0 17154
0.12750000 0.12750600 13003.31733034 0 60.08044927 0 4857.12535030 0 -315.01557249 0 927.62848072 0 18007
0.12850000 0.12850300 12708.27171081 0 -131.98842722 0 4592.06761391 0 835.70518353 0 990.32512564 0 17496
0.12950000 0.12949900 12971.57191558 0 -9.83818963 0 4352.07667216 0 379.78171088 0 240.44899843 0 18405
0.13050000 0.13049000 12330.95164264 0 348.59101704 0 4070.50912318 0 -282.42105027 0 503.32080488 0 18100
0.13150000 0.13148800 12221.32560828 0 375.18576572 0 4096.93800481 0 150.59849009 0 532.43761142 0 19059
0.13250000 0.13249300 12063.47730028 0 0.21090819 0 4118.31398305 0 -2.10745616 0 789.01525777 0 18957
0.13350000 0.13349100 11726.80015066 0 73.24655797 0 3898.24905596 0 456.36724938 0 444.61595363 0 19468
0.13450000 0.13450700 11654.52166308 0 23.80642477 0 3367.45253968 0 180.74125571 0 324.10091247 0 19953
0.13550000 0.13551000 11600.25787453 0 70.36914918 0 3294.49300860 0 526.24011557 0 86.88709035 0 19956
0.13650000 0.13649900 11752.06466760 0 158.26901712 0 3137.12802180 0 212.96340092 0 833.41160478 0 19723
0.13750000 0.13749600 11584.44009001 0 -20.01367155 0 2860.70125279 0 -124.12896554 0 478.92297072 0 20946
0.13850000 0.13851100 11288.18616749 0 174.17028439 0 3541.41521565 0 -623.85232290 0 153.41822987 0 20955
0.13950000 0.13949800 11105.51272546 0 398.99592524 0 3539.30617772 0 -461.07304027 0 57.35704419 0 20506
0.14050000 0.14048300 11072.44916199 0 -63.19545436 0 3771.12459747 0 123.44682358 0 -272.30425892 0 21447
0.14150000 0.14148400 10818.81538109 0 88.66812895 0 3871.19405369 0 297.22825411 0 -21.79899413 0 21771
0.14250000 0.14249400 10725.40257586 0 143.30143852 0 3865.28435364 0 73.95176753 0 437.03989392 0 22470
0.14350000 0.14350900 10690.24095903 0 100.03836988 0 3567.97591215 0 573.95050812 0 540.51676455 0 22519
0.14450000 0.14449900 10569.54247550 0 0.14956155 0 3658.09334561 0 547.92585876 0 496.12261447 0 22218
0.14550000 0.14550500 10566.18119629 0 95.82424845 0 3105.28374588 0 -105.04711528 0 289.90264265 0 23559
0.14650000 0.14650700 10479.79851751 0 167.61578993 0 3167.79694844 0 -37.10423849 0 900.61302291 0 23044
0.14750000 0.14750500 9954.99957787 0 74.72980480 0 3023.31686528 0 -90.01747385 0 692.82115876 0 23649
0.14850000 0.14849900 10237.57770752 0 2.16926635 0 2929.27793941 0 344.50914987 0 296.04411718 0 23640
0.14950000 0.14949500 10067.04221820 0 128.93581450 0 2853.20977429 0 120.96650709 0 -143.79354738 0 24457
0.15050000 0.15050000 10012.50381533 0 174.70083925 0 2958.07948872 0 -364.87674435 0 157.51986927 0 24591
0.15150000 0.15149900 9681.46175145 0 -18.33413040 0 2794.64003328 0 186.69159868 0 393.67719520 0 25020
0.15250000 0.15250500 9836.68474659 0 125.39768367 0 2888.41532941 0 269.19123105 0 51.20744108 0 25297
0.15350000 0.15350100 9747.61084753 0 128.53268069 0 2834.70076949 0 -333.17197251 0 -101.39386613 0 25452
0.15450000 0.15450400 9525.86528083 0 158.90392542 0 3162.21678557 0 -119.33859344 0 375.32746670 0 26061
0.15550000 0.15549900 9539.57402741 0 -79.49809791 0 2863.24967363 0 529.69146827 0 389.38003041 0 26128
0.15650000 0.15649500 9644.58654129 0 -75.38239826 0 2957.29958407 0 11.22524457 0 154.79679373 0 26331
0.15750000 0.15749700 9534.64195432 0 282.24859248 0 3169.97189381 0 -181.24105376 0 520.43806433 0 27345
0.15850000 0.15849900 9388.77781502 0 79.59102740 0 2777.52606920 0 37.60843038 0 679.95602736 0 26980
0.15950000 0.15949700 9262.94953610 0 45.50304269 0 3072.78039561 0 454.57896096 0 595.22872367 0 27777
0.16050000 0.16050000 9316.37849713 0 -9.22537131 0 3044.05573831 0 -127.07942174 0 291.07030272 0 28224
0.16150000 0.16150500 9205.26954547 0 81.04889987 0 2788.68639494 0 2.56623782 0 -175.14571444 0 28075
0.16250000 0.16249700 8945.01206730 0 225.32104507 0 2817.04856135 0 -493.77850668 0 109.45346673 0 28590
0.16350000 0.16349900 8802.59708379 0 18.18408114 0 2733.14839597 0 271.47052986 0 -7.96365035 0 29163
0.16450000 0.16449100 8913.05794566 0 -116.28598072 0 2815.15921486 0 651.99260094 0 4.25776313 0 28996
0.16550000 0.16550500 8894.98832377 0 86.65180081 0 2026.81840985 0 302.07354907 0 -356.10226777 0 30777
0.16650000 0.16650700 8759.47165183 0 226.06799601 0 2146.86880359 0 -51.13801858 0 106.95052202 0 29211
0.16750000 0.16749900 8403.86808366 0 212.09122586 0 2380.73035384 0 -489.19244762 0 3.28448606 0 30922
0.16850000 0.16850800 8263.01290944 0 117.54591119 0 2385.62947322 0 186.41039362 0 170.12906014 0 30867
0.16950000 0.16949900 8175.55374255 0 -127.12665540 0 2165.15811694 0 321.74472165 0 192.24100475 0 30852
0.17050000 0.17049200 8241.70283864 0 88.33101242 0 2103.98503223 0 321.15594856 0 377.85062302 0 31257
0.17150000 0.17149500 8326.60260012 0 36.47196650 0 1917.15942177 0 205.18412662 0 436.85425465 0 32608
0.17250000 0.17250900 8176.45447750 0 213.45331286 0 1761.63984316 0 -301.90878048 0 196.94569718 0 32361
0.17350000 0.17350400 8024.37307011 0 42.08804892 0 2050.19358030 0 -112.56989981 0 384.91919548 0 32508
0.17450000 0.17449800 7969.43922264 0 10.67850944 0 2130.35899100 0 157.54952762 0 132.74087044 0 32791
0.17550000 0.17549800 7774.48502846 0 20.33101585 0 1749.01856926 0 -101.73801279 0 106.24564200 0 33633
0.17650000 0.17650100 7905.14651932 0 117.46352690 0 2032.48644930 0 127.31998388 0 -62.95675960 0 33984
0.17750000 0.17750300 7821.80656714 0 106.91196617 0 1962.55866025 0 -103.70996326 0 -40.88227239 0 34069
0.17850000 0.17849800 7704.61216227 0 72.61933887 0 1939.41416582 0 128.25586946 0 95.34543093 0 34536
