### header ###
fiducial parameters:
Omega_m = 0.31
Omega_nu = 0
Omega_de = 0.69
Omega_k = 0
H_0 = 100
w_de = -1
zeff = 0
beta = 0
fgrowth = 0
b_1 = 2
gamma = 0.55
Lx = 3500 Ly = 3500 Lz = 3500
nx = 700 ny = 700 nz = 700
xoffset = -983.599254 yoffset = -42.9823471 zoffset = 800.977702
bins = 400 dk = 0.001
kx_ny = 0.628318531 ky_ny = 0.628318531 kz_ny = 0.628318531
############################
A(data) = 9.01835838 (not used)
A(ran) = 9.01931144 (used)
Ngal = 500576
weighted Ngal = 0
Nran = 25229228
weighted Nran = 0
SN(data) = 6753.43273
SN(ran) = 133.885465
SN(data+ran) = 6887.3182
############################
13 columns: k_central k_mean P_0(k) sigma^{lin}_{P_0(k)} P^img_1(k) sigma^{lin}_{P_1(k)} P_2(k) sigma^{lin}_{P_2(k)} P^img_3(k) sigma^{lin}_{P_3(k)} P_4(k) sigma^{lin}_{P_4(k)} N_modes
### header ###
0.00050000 0 0 0 0 0 0 0 0 0 0 0 0
0.00150000 0.00179520 12860.40804106 0 -21258.66300813 0 14605.08770415 0 -74448.70959013 0 -5852.20679587 0 3
0.00250000 0.00253879 18383.01175206 0 -11877.28879503 0 -21071.81542852 0 12104.99898464 0 1745.93190437 0 6
0.00350000 0.00331552 31583.72185168 0 -11814.78657704 0 4571.58138605 0 -25557.03610493 0 -8090.87367252 0 7
0.00450000 0.00420575 31348.10276981 0 -9923.24317853 0 -21574.46946984 0 4984.45851566 0 27153.20434673 0 24
0.00550000 0.00557378 55250.97208972 0 -16323.73393023 0 -11198.44220950 0 -7239.40452888 0 -22184.44278528 0 45
0.00650000 0.00659388 42384.08315084 0 -3465.80840258 0 -47006.72083025 0 -1733.73902880 0 19151.16291267 0 40
0.00750000 0.00754703 87416.76644249 0 10631.45152657 0 15256.58270395 0 -7717.09063672 0 -24196.92632791 0 57
0.00850000 0.00846663 76280.71660525 0 -1654.95767425 0 -14215.90429760 0 -26203.47820134 0 9827.31490618 0 75
0.00950000 0.00948925 72672.72389518 0 -12140.91853698 0 14141.20920404 0 -8446.64200929 0 -30748.89433550 0 112
0.01050000 0.01054430 63801.03384986 0 11784.79869389 0 -418.85713093 0 -11494.14690339 0 -4877.23810270 0 105
0.01150000 0.01145670 78245.08771997 0 5856.33699516 0 15438.70691735 0 7678.41395667 0 -7899.13795811 0 144
0.01250000 0.01249090 66757.20202295 0 -926.48498672 0 26079.90175980 0 -15065.89052394 0 -9363.35951406 0 169
0.01350000 0.01339930 71260.43739840 0 6386.60625195 0 22758.16701120 0 3648.55873661 0 -25428.62645145 0 180
0.01450000 0.01448870 63730.95227679 0 -3897.64490447 0 14261.38042808 0 -8641.61817261 0 -32825.08839910 0 267
0.01550000 0.01550050 63459.41364258 0 3751.49516627 0 23059.25414566 0 -113.40802270 0 -20780.17502648 0 238
0.01650000 0.01653350 71984.76011441 0 943.95265403 0 21593.25308895 0 602.90913681 0 -16401.83424128 0 315
0.01750000 0.01747870 57265.10331824 0 -2583.97790032 0 20278.83913387 0 9241.00236008 0 -13209.82729487 0 297
0.01850000 0.01844180 75498.94457464 0 2.26907217 0 9923.77043802 0 11155.16299353 0 -11598.93972582 0 388
0.01950000 0.01947590 70481.19181948 0 -9828.12776455 0 2826.93467667 0 11379.68765709 0 2223.21158303 0 399
0.02050000 0.02045430 76614.09838309 0 773.29743287 0 -371.84865257 0 6808.49073109 0 -11933.74949810 0 462
0.02150000 0.02154770 73628.27186403 0 10546.04647475 0 4932.88594739 0 -16247.50099652 0 -9.62696729 0 571
0.02250000 0.02255340 64733.95359919 0 3202.88167327 0 23882.76755208 0 -8115.22646994 0 13436.76856440 0 510
0.02350000 0.02348930 62833.07331399 0 -788.13429505 0 19079.54349944 0 6806.44760059 0 2517.41139047 0 555
0.02450000 0.02439640 65435.09886706 0 -171.28573563 0 27981.22142791 0 3105.77805165 0 2585.44983304 0 592
0.02550000 0.02547300 63415.14581508 0 5542.81532455 0 27894.11376734 0 -5555.57939789 0 4549.34861114 0 837
0.02650000 0.02652900 58026.22435240 0 384.48530486 0 34589.54029284 0 -5623.93639306 0 10064.98810312 0 723
0.02750000 0.02749970 53684.90157680 0 2304.88188017 0 38145.57597460 0 6138.48672649 0 -235.11379153 0 826
0.02850000 0.02848090 58606.09993897 0 74.13817572 0 35922.40832986 0 8847.46906278 0 6337.05484504 0 831
0.02950000 0.02946900 57669.11589778 0 -5077.38799970 0 20111.76378491 0 18121.13954172 0 13471.04043086 0 996
0.03050000 0.03053250 59353.16072022 0 -568.08035253 0 20601.78556776 0 2027.48846877 0 13159.95733535 0 1041
0.03150000 0.03150510 59253.64049264 0 4697.57443356 0 11530.72553009 0 163.43396315 0 7819.19223887 0 1036
0.03250000 0.03246190 57895.50793868 0 2981.38875174 0 17737.22873000 0 -1116.14241999 0 11562.80048203 0 1059
0.03350000 0.03345080 52555.90720689 0 -783.03745338 0 12647.30733298 0 970.22225936 0 11664.62746985 0 1302
0.03450000 0.03451200 51212.49398019 0 559.18394720 0 20069.80271765 0 446.23398117 0 2882.13215389 0 1339
0.03550000 0.03553350 47959.52265595 0 4448.89469489 0 14534.23721100 0 -3977.18419453 0 9607.79920772 0 1365
0.03650000 0.03647120 44951.39745455 0 1163.56281982 0 22350.19998553 0 -108.96256618 0 5430.09164072 0 1308
0.03750000 0.03744890 45497.98978620 0 -1055.62511427 0 13775.53278281 0 5277.48297384 0 6526.81333638 0 1579
0.03850000 0.03847530 46634.23397401 0 478.79554968 0 17952.63619832 0 4427.40887092 0 434.64965093 0 1662
0.03950000 0.03950240 46497.69573683 0 1071.94269684 0 14008.84510444 0 -992.43196666 0 3459.75590308 0 1683
0.04050000 0.04050350 46200.01381987 0 -128.10647927 0 15581.72605236 0 987.86897521 0 5224.93277861 0 1822
0.04150000 0.04152450 44875.27436656 0 -2651.89551259 0 10600.85949193 0 5965.94106038 0 6201.02189819 0 1887
0.04250000 0.04250150 49165.51887966 0 -1224.62605880 0 8229.01565731 0 2508.16238036 0 -244.11015648 0 1920
0.04350000 0.04349210 46562.39486933 0 2704.29192380 0 7324.98533386 0 -4172.95124707 0 372.65601865 0 2005
0.04450000 0.04448520 43776.15803407 0 3587.02316101 0 12125.75982682 0 -5282.10747890 0 -3034.99346593 0 2151
0.04550000 0.04548030 41004.09129744 0 593.25479597 0 14047.29110847 0 -1050.43710064 0 -1374.82910428 0 2274
0.04650000 0.04648670 41301.00429432 0 -223.02856478 0 13887.13604024 0 -641.23980284 0 -8321.08834468 0 2311
0.04750000 0.04749250 40650.82744323 0 1151.28206768 0 14067.72241347 0 162.12899593 0 -9058.98799241 0 2568
0.04850000 0.04851840 39607.29304800 0 1217.40919462 0 14877.06572127 0 -1052.30008415 0 -3856.87017104 0 2493
0.04950000 0.04949480 39417.04025089 0 -31.19728459 0 13672.38764627 0 3974.50395882 0 -5648.92629568 0 2644
0.05050000 0.05050630 40285.37071345 0 -1435.63969809 0 13469.94197360 0 181.48930510 0 -5164.41876826 0 2829
0.05150000 0.05149060 39143.52439362 0 1710.06727489 0 14275.77021817 0 -1619.83999571 0 -6387.12252687 0 2784
0.05250000 0.05249300 38061.21445718 0 1807.93981659 0 13659.09631345 0 -557.43630170 0 -2740.24442986 0 3055
0.05350000 0.05348950 36469.00066151 0 -211.02023003 0 15328.97103726 0 1115.21971589 0 -4431.65990051 0 3009
0.05450000 0.05448610 37726.95391353 0 388.99557037 0 14883.54661909 0 2314.87784122 0 -2918.04072166 0 3336
0.05550000 0.05550870 35481.26789500 0 20.80082602 0 14734.59581489 0 1450.99613056 0 -3063.11397174 0 3349
0.05650000 0.05647670 35775.10521155 0 1565.53226887 0 13291.33282343 0 -398.27863265 0 -67.76932054 0 3324
0.05750000 0.05747970 34893.70310762 0 138.88454189 0 13794.20655620 0 1237.26930184 0 -176.42431869 0 3639
0.05850000 0.05849280 34181.24372999 0 -492.77341829 0 11286.20894443 0 1822.04400779 0 -1855.12954040 0 3846
0.05950000 0.05951020 34159.49427628 0 606.81085700 0 13645.03606054 0 -609.00996843 0 -912.10288583 0 3787
0.06050000 0.06049470 33098.27471920 0 1335.36153500 0 11491.40076025 0 470.65598139 0 2594.22650654 0 3930
0.06150000 0.06148310 33821.82851513 0 -688.41854207 0 11382.98302887 0 1187.16866630 0 -744.22785999 0 4083
0.06250000 0.06249100 33096.18765041 0 950.23802647 0 13101.84894640 0 -1299.37607522 0 -1198.94412811 0 4303
0.06350000 0.06350600 31888.43389509 0 1575.17672359 0 14170.20847566 0 -1549.94516037 0 -326.59660736 0 4470
0.06450000 0.06451750 29842.55725182 0 816.28995149 0 14708.78206932 0 83.01623682 0 1718.03109001 0 4479
0.06550000 0.06550280 29756.54804850 0 -402.73397529 0 15398.28369025 0 2298.64264294 0 550.21943751 0 4636
0.06650000 0.06648880 30071.14620723 0 96.24781357 0 14459.10273455 0 2016.21829731 0 1586.89726254 0 4653
0.06750000 0.06749660 30589.06880444 0 -392.85335226 0 12686.41241137 0 1540.53138167 0 1706.18972077 0 5220
0.06850000 0.06852730 30365.75244387 0 441.77534316 0 12692.34408056 0 -469.46195835 0 259.40617379 0 5029
0.06950000 0.06949320 29594.30591148 0 866.14563107 0 11935.28733826 0 -344.16972658 0 1955.07816632 0 5040
0.07050000 0.07048030 28777.49309433 0 186.67841719 0 12200.56476610 0 -200.23667513 0 78.87175759 0 5475
0.07150000 0.07148790 28753.32703465 0 505.54847620 0 12395.65077514 0 1529.67862396 0 890.93012218 0 5509
0.07250000 0.07249820 28026.03848404 0 204.97322283 0 10093.35026953 0 1839.58637020 0 -3.05435927 0 5916
0.07350000 0.07351270 27457.03762433 0 135.56939788 0 9457.26662506 0 644.07821639 0 1206.10606943 0 5721
0.07450000 0.07449140 26309.03994385 0 723.52633450 0 9664.25991078 0 1647.70785635 0 3554.68457933 0 6028
0.07550000 0.07549160 26087.59096061 0 469.14450421 0 8108.44898865 0 920.90921767 0 2478.50403439 0 6183
0.07650000 0.07648840 25585.26645646 0 109.16083771 0 7990.17809567 0 -121.88042353 0 4682.64639942 0 6330
0.07750000 0.07749960 25376.44973169 0 -81.14962840 0 6851.49533274 0 1819.18801891 0 2737.72896274 0 6583
0.07850000 0.07848650 25086.01763264 0 92.03127554 0 6375.31411134 0 1258.22786633 0 3383.76462997 0 6549
0.07950000 0.07947320 25067.12416780 0 699.42508380 0 6904.07848169 0 -939.88836218 0 2421.07668894 0 6828
0.08050000 0.08048110 24152.65850041 0 953.85195084 0 8188.10910901 0 -2135.13728007 0 1851.80121491 0 7147
0.08150000 0.08149960 23100.33644711 0 -163.84368771 0 7518.20396557 0 170.64313814 0 1845.74871542 0 7386
0.08250000 0.08250610 23291.13847285 0 6.94128323 0 7616.97724222 0 940.81765702 0 67.12540490 0 7227
0.08350000 0.08350160 22920.29930250 0 513.40793788 0 7372.51557942 0 -65.28164439 0 10.50556832 0 7798
0.08450000 0.08449610 22671.38888781 0 786.64588547 0 7341.53908474 0 9.54543979 0 -129.85742014 0 7371
0.08550000 0.08548940 22004.84502358 0 258.63285988 0 7626.44594378 0 774.73641188 0 1863.60963043 0 8256
0.08650000 0.08650700 21514.05432064 0 -75.25343938 0 8156.30877139 0 324.08223870 0 1193.10033550 0 8037
0.08750000 0.08749060 20649.56845849 0 726.90299211 0 6722.50349692 0 -278.82909503 0 1135.27754543 0 8155
0.08850000 0.08849210 20402.63526686 0 463.04367259 0 7160.43643659 0 563.74584019 0 1226.46048242 0 8718
0.08950000 0.08949900 20499.40935130 0 -110.46964954 0 7318.80101950 0 -1.60525248 0 713.17667022 0 8571
0.09050000 0.09049190 20125.60434636 0 46.75539381 0 7469.99267651 0 912.25886677 0 841.96199607 0 8932
0.09150000 0.09150830 19537.27063890 0 269.65917384 0 6230.29578412 0 -124.76057846 0 368.92895317 0 9285
0.09250000 0.09250820 19631.73796310 0 309.27723177 0 6455.25983059 0 -448.95156443 0 1144.07618806 0 9204
0.09350000 0.09350330 18620.27851981 0 424.77232326 0 6807.33735096 0 136.05601445 0 -630.19371665 0 9349
0.09450000 0.09448040 18193.85741220 0 679.44854010 0 7343.75796840 0 267.04155020 0 1391.13020999 0 9564
0.09550000 0.09549270 18398.06061649 0 144.86454320 0 5864.45459430 0 54.14614378 0 -531.99163777 0 10155
0.09650000 0.09649430 17704.05532080 0 -221.86310163 0 6481.12849902 0 1354.67241359 0 -178.73437430 0 9913
0.09750000 0.09749140 17693.61997685 0 250.98430200 0 6206.68993764 0 -284.80909635 0 -549.04738362 0 10476
0.09850000 0.09850240 16641.73730646 0 377.79350325 0 6046.78751458 0 -569.30073855 0 1423.58962197 0 10575
0.09950000 0.09950330 16971.05479245 0 503.48886884 0 6721.25125564 0 311.48073703 0 224.27531377 0 10882
0.10050000 0.10051200 16280.45471426 0 135.63091149 0 6338.93320695 0 564.88933420 0 1214.57517489 0 10875
0.10150000 0.10150300 16552.32288565 0 -136.82822990 0 6199.84654893 0 699.63818451 0 1336.69066828 0 11118
0.10250000 0.10250800 16740.04923106 0 -244.94608245 0 6203.80099506 0 443.60756987 0 1147.06399181 0 11575
0.10350000 0.10349800 16681.72115066 0 221.36440203 0 5618.86152053 0 375.58340724 0 1721.88667499 0 11364
0.10450000 0.10450100 16367.12299193 0 451.65157237 0 6414.21048285 0 -574.04058161 0 2203.15375349 0 12093
0.10550000 0.10551000 15988.59462077 0 98.63388243 0 5781.76273191 0 337.53065091 0 1946.69693744 0 12067
0.10650000 0.10649700 15948.72062230 0 195.43422000 0 6370.48089940 0 19.98621012 0 1618.64267730 0 12054
0.10750000 0.10749900 15340.72452993 0 235.81790263 0 6115.43010864 0 638.79903081 0 1952.48580719 0 12807
0.10850000 0.10850100 15406.41227396 0 42.73690762 0 5518.10003624 0 390.93324897 0 1651.28882701 0 12736
0.10950000 0.10950300 15298.32407976 0 166.26688442 0 5716.21778731 0 272.84799526 0 2465.82783763 0 12933
0.11050000 0.11050200 15479.45968163 0 135.66386521 0 4874.46999041 0 387.89711311 0 2207.77825855 0 13428
0.11150000 0.11150900 14982.62746377 0 -28.91414118 0 5037.56892409 0 -237.09321151 0 1439.14377674 0 13453
0.11250000 0.11250000 14854.98673038 0 376.12604513 0 5168.55995213 0 -742.62521085 0 515.88825437 0 13668
0.11350000 0.11349100 14525.01017004 0 291.35809852 0 5651.55160853 0 -212.67780203 0 685.22642528 0 13791
0.11450000 0.11448600 13737.63600741 0 48.54104593 0 5648.43198992 0 342.00356886 0 1036.54930552 0 14205
0.11550000 0.11549300 14131.32308872 0 165.94613490 0 5815.26567828 0 208.97270570 0 515.65867680 0 14776
0.11650000 0.11649800 13972.04678629 0 181.17844170 0 5136.82552194 0 92.34389647 0 21.41958700 0 14553
0.11750000 0.11747300 14323.55310889 0 -78.26870455 0 5396.05045029 0 429.85158962 0 308.64452039 0 14568
0.11850000 0.11849100 13842.42882983 0 90.32394342 0 5086.25254977 0 228.40880843 0 585.90941229 0 16015
0.11950000 0.11950300 13902.84397903 0 -69.45270629 0 4378.40669263 0 472.23116910 0 937.83314865 0 15270
0.12050000 0.12050700 14015.10631081 0 -129.12804452 0 4424.06956085 0 375.27034693 0 31.32734193 0 15999
0.12150000 0.12150000 13640.64223151 0 399.38038528 0 4289.57445417 0 -89.30479478 0 716.53794943 0 15670
0.12250000 0.12250700 13453.79465190 0 162.56178809 0 3982.68746539 0 427.08457579 0 1061.10751444 0 16887
0.12350000 0.12352200 13545.95521586 0 -193.01431866 0 3974.10851420 0 543.50566675 0 679.84288626 0 16407
0.12450000 0.12449800 13389.75459375 0 128.19435585 0 3402.69104852 0 85.40582074 0 480.82440023 0 16306
0.12550000 0.12549900 13095.58774003 0 249.25093644 0 3582.24487194 0 229.71048028 0 1141.14330719 0 17523
0.12650000 0.12650100 12847.22655396 0 197.68825429 0 3065.50860857 0 72.22795855 0 896.62452461 0 17154
0.12750000 0.12750600 12799.55350896 0 161.56548736 0 3492.46796023 0 -126.19516364 0 66.09417322 0 18007
0.12850000 0.12850300 12578.32421717 0 94.39361772 0 3160.07479392 0 -80.38905660 0 1001.34594731 0 17496
0.12950000 0.12949900 12489.45902499 0 185.72056246 0 3419.15692282 0 -312.40453959 0 349.53349337 0 18405
0.13050000 0.13049000 12197.26939432 0 56.81231924 0 3444.23470203 0 -261.96997304 0 621.13034581 0 18100
0.13150000 0.13148800 12058.86377980 0 -79.47876507 0 3563.38436082 0 518.68712346 0 77.20407978 0 19059
0.13250000 0.13249300 12162.66799069 0 215.30421334 0 3551.15853153 0 168.49675265 0 377.30578822 0 18957
0.13350000 0.13349100 11947.80975100 0 308.57861296 0 3340.12292310 0 162.80894097 0 382.03904055 0 19468
0.13450000 0.13450700 11970.43797052 0 44.26189583 0 3712.97227023 0 47.36382928 0 919.83602493 0 19953
0.13550000 0.13551000 11739.65210058 0 50.31725131 0 3649.12993439 0 351.29322189 0 1332.58243813 0 19956
0.13650000 0.13649900 11738.55364333 0 -119.84937606 0 3334.32306878 0 194.70484438 0 1420.64575652 0 19723
0.13750000 0.13749600 11782.60177938 0 100.16447277 0 3485.03140459 0 -121.90788497 0 1049.63632530 0 20946
0.13850000 0.13851100 11457.01904807 0 318.11432041 0 3618.40608488 0 -208.07306921 0 1206.23788430 0 20955
0.13950000 0.13949800 11156.48114224 0 220.09568390 0 4166.37148810 0 -272.38774167 0 1407.95857519 0 20506
0.14050000 0.14048300 11106.83087417 0 333.79369932 0 4066.55467705 0 -213.23471986 0 678.02493950 0 21447
0.14150000 0.14148400 10790.38730725 0 -4.64815484 0 4227.81918712 0 348.37242405 0 1535.05007995 0 21771
0.14250000 0.14249400 10855.86634441 0 -196.85782060 0 3943.56041786 0 420.79261262 0 999.35444431 0 22470
0.14350000 0.14350900 11043.88927328 0 192.75508274 0 3690.68457246 0 -15.84019305 0 839.32020637 0 22519
0.14450000 0.14449900 10577.33053746 0 218.56992677 0 3643.08841947 0 -316.89832823 0 946.04082128 0 22218
0.14550000 0.14550500 10541.03750965 0 110.39605290 0 3849.11506280 0 377.57271334 0 1108.53011119 0 23559
0.14650000 0.14650700 10543.52002306 0 -56.10051893 0 3508.57134363 0 281.30941152 0 1072.33923991 0 23044
0.14750000 0.14750500 10405.32311541 0 15.07105327 0 3303.02802149 0 193.96668110 0 176.46386315 0 23649
0.14850000 0.14849900 10219.60694678 0 266.93390138 0 3253.91599748 0 -90.66160918 0 978.08941025 0 23640
0.14950000 0.14949500 10037.19713449 0 99.76474417 0 3046.79089689 0 110.53885234 0 978.61117744 0 24457
0.15050000 0.15050000 9969.45527538 0 62.75727976 0 3257.33219955 0 193.50862442 0 569.22714191 0 24591
0.15150000 0.15149900 9973.27790664 0 204.23725646 0 2873.69600215 0 370.54148843 0 729.77216247 0 25020
0.15250000 0.15250500 9803.74201342 0 74.70805535 0 2888.76683573 0 -230.16524158 0 736.72100309 0 25297
0.15350000 0.15350100 9502.25943435 0 121.69917809 0 3136.11744112 0 -141.44504576 0 686.14473555 0 25452
0.15450000 0.15450400 9409.79130236 0 95.97913092 0 3093.37646920 0 -175.77403199 0 489.21331831 0 26061
0.15550000 0.15549900 9210.43229459 0 94.89758991 0 3191.31491834 0 -102.87865081 0 127.24638724 0 26128
0.15650000 0.15649500 9157.90406850 0 234.94462911 0 3469.33445037 0 -247.79438212 0 314.62232479 0 26331
0.15750000 0.15749700 8900.08516544 0 105.31579793 0 3503.28776422 0 249.69251626 0 -36.86136959 0 27345
0.15850000 0.15849900 8998.37512090 0 14.23600607 0 3425.22040689 0 135.85829214 0 57.25543689 0 26980
0.15950000 0.15949700 9089.78873392 0 -77.26251770 0 3274.24844133 0 283.25148395 0 186.89920710 0 27777
0.16050000 0.16050000 8873.79908326 0 76.41813361 0 3143.27938244 0 54.42581100 0 180.76761868 0 28224
0.16150000 0.16150500 8779.73818824 0 182.15497020 0 3257.52992186 0 -31.08414349 0 509.16899132 0 28075
0.16250000 0.16249700 8543.03163369 0 115.13699443 0 3049.48211717 0 168.99325533 0 728.48037674 0 28590
0.16350000 0.16349900 8581.97194349 0 57.98217622 0 3365.54122405 0 118.63667925 0 372.27155861 0 29163
0.16450000 0.16449100 8511.92332414 0 113.91990378 0 3021.44948794 0 54.22929699 0 447.56970520 0 28996
0.16550000 0.16550500 8435.81122072 0 146.58692418 0 3031.59923301 0 221.16667972 0 843.51301772 0 30777
0.16650000 0.16650700 8069.16815710 0 -50.11568441 0 2832.15234865 0 28.56625976 0 1233.78719234 0 29211
0.16750000 0.16749900 8195.09529717 0 5.33295507 0 2703.68777231 0 587.90530913 0 904.48508475 0 30922
0.16850000 0.16850800 8426.74894834 0 76.49129086 0 2402.58965328 0 340.94904990 0 903.45033801 0 30867
0.16950000 0.16949900 8223.94078477 0 104.25908204 0 2271.76339384 0 -173.34094916 0 772.62407857 0 30852
0.17050000 0.17049200 8058.08472337 0 -8.78139686 0 2349.45727571 0 -118.30933899 0 746.92017873 0 31257
0.17150000 0.17149500 7996.02188828 0 123.26667659 0 2423.66904807 0 -203.95714986 0 511.05394398 0 32608
0.17250000 0.17250900 7843.49011342 0 -29.63297161 0 2397.36099673 0 -146.09261842 0 38.73555737 0 32361
0.17350000 0.17350400 7943.46070848 0 6.75406217 0 2203.81282785 0 -26.47754329 0 -376.67527376 0 32508
0.17450000 0.17449800 7952.28132026 0 121.14335871 0 2293.19429494 0 139.07018117 0 -282.18598041 0 32791
0.17550000 0.17549800 7879.20095888 0 64.48526288 0 2193.31157646 0 251.56648434 0 192.39588722 0 33633
0.17650000 0.17650100 8043.37638068 0 -120.11410426 0 2076.19406360 0 197.37409551 0 -189.27626861 0 33984
0.17750000 0.17750300 8035.75308731 0 11.76524615 0 2008.27645133 0 215.25258585 0 -10.17897501 0 34069
0.17850000 0.17849800 7844.37986380 0 120.57325940 0 1993.88666125 0 -315.26711920 0 59.82253151 0 34536
