### header ###
fiducial parameters:
Omega_m = 0.31
Omega_nu = 0
Omega_de = 0.69
Omega_k = 0
H_0 = 100
w_de = -1
zeff = 0
beta = 0
fgrowth = 0
b_1 = 2
gamma = 0.55
Lx = 3500 Ly = 3500 Lz = 3500
nx = 700 ny = 700 nz = 700
xoffset = -983.599254 yoffset = -42.9823471 zoffset = 800.977702
bins = 400 dk = 0.001
kx_ny = 0.628318531 ky_ny = 0.628318531 kz_ny = 0.628318531
############################
A(data) = 8.96162658 (not used)
A(ran) = 8.96610992 (used)
Ngal = 497735
weighted Ngal = 0
Nran = 25229228
weighted Nran = 0
SN(data) = 6751.05715
SN(ran) = 133.095725
SN(data+ran) = 6884.15287
############################
13 columns: k_central k_mean P_0(k) sigma^{lin}_{P_0(k)} P^img_1(k) sigma^{lin}_{P_1(k)} P_2(k) sigma^{lin}_{P_2(k)} P^img_3(k) sigma^{lin}_{P_3(k)} P_4(k) sigma^{lin}_{P_4(k)} N_modes
### header ###
0.00050000 0 0 0 0 0 0 0 0 0 0 0 0
0.00150000 0.00179520 38200.82837469 0 -26189.30810271 0 7898.72054436 0 -46130.70116688 0 6186.04992576 0 3
0.00250000 0.00253879 47936.78459071 0 -6750.33840384 0 -4323.49481430 0 -36112.99066415 0 21759.99890074 0 6
0.00350000 0.00331552 51381.87608939 0 -440.32647804 0 -12954.54582808 0 -17512.92375789 0 11979.22562858 0 7
0.00450000 0.00420575 49006.02288578 0 -5914.19273895 0 1608.74557740 0 -27608.95426313 0 5571.63884300 0 24
0.00550000 0.00557378 62294.28002888 0 5285.36989696 0 24384.87236478 0 -32886.05277693 0 -17838.94587210 0 45
0.00650000 0.00659388 51658.24793554 0 12409.49133660 0 30475.48832395 0 -22855.05094137 0 19891.96248755 0 40
0.00750000 0.00754703 59644.25189363 0 3658.99408056 0 41592.64469635 0 31924.79283034 0 -11266.10717660 0 57
0.00850000 0.00846663 58989.68121351 0 -4452.10219008 0 58489.99300678 0 7178.75870366 0 15500.76975244 0 75
0.00950000 0.00948925 64192.96339956 0 -2335.64966797 0 44123.81975627 0 38655.36998810 0 14449.65600213 0 112
0.01050000 0.01054430 65926.76833580 0 -7885.71481042 0 27790.74893935 0 29099.45091669 0 28959.61730773 0 105
0.01150000 0.01145670 78496.52458636 0 -9033.88824406 0 9471.62346142 0 17563.12325458 0 18363.34936713 0 144
0.01250000 0.01249090 80538.00740060 0 749.85525652 0 249.45964332 0 -1338.61296848 0 16512.66857863 0 169
0.01350000 0.01339930 84209.93032309 0 5188.14544504 0 15466.05850308 0 -18070.39081639 0 -6264.22712883 0 180
0.01450000 0.01448870 77490.88696654 0 2822.70561623 0 13328.79021593 0 -9694.14893278 0 -14332.12107551 0 267
0.01550000 0.01550050 79058.93470252 0 -1267.18029298 0 11743.27700954 0 -12875.01752259 0 -8863.25389358 0 238
0.01650000 0.01653350 72398.65880928 0 2798.53955655 0 21393.00433079 0 8800.42213841 0 -21186.49436627 0 315
0.01750000 0.01747870 69351.86791239 0 -420.01820025 0 13254.31481383 0 1836.87318077 0 -19631.62811738 0 297
0.01850000 0.01844180 74626.76951168 0 -3173.88240165 0 6959.70435724 0 9513.74929727 0 -21584.02604798 0 388
0.01950000 0.01947590 81666.12300471 0 66.91472079 0 9088.19597090 0 140.30704404 0 -16481.80192968 0 399
0.02050000 0.02045430 77556.35501912 0 988.72357496 0 -562.86377901 0 -1757.36684443 0 -8264.53976503 0 462
0.02150000 0.02154770 73381.55836386 0 2664.94518481 0 13474.66533981 0 -11703.84239397 0 -16968.08895785 0 571
0.02250000 0.02255340 66587.38053084 0 3708.07315086 0 6780.43613271 0 -3852.65209517 0 -8242.13123697 0 510
0.02350000 0.02348930 68825.70688574 0 3423.24318382 0 24428.92050083 0 2508.82145472 0 -11805.77922752 0 555
0.02450000 0.02439640 63043.64757038 0 3764.45696192 0 19955.67300853 0 1119.80028266 0 9464.01115263 0 592
0.02550000 0.02547300 63437.66418887 0 -29.40723864 0 23063.31843751 0 4696.47597630 0 -5222.18663547 0 837
0.02650000 0.02652900 61857.64326877 0 -748.39760374 0 19218.60818832 0 2209.63465132 0 5340.58934332 0 723
0.02750000 0.02749970 59724.10973630 0 2835.53559700 0 24637.51753415 0 -1216.96981171 0 10063.97752245 0 826
0.02850000 0.02848090 61538.43158956 0 1399.13796340 0 22898.87938597 0 4982.90969093 0 10462.40993912 0 831
0.02950000 0.02946900 64017.32008399 0 -1374.03821506 0 23943.29254701 0 4797.18253772 0 12199.68600029 0 996
0.03050000 0.03053250 63131.41430530 0 -1705.98101389 0 16317.80226104 0 3886.31981013 0 6384.59607517 0 1041
0.03150000 0.03150510 62498.92261607 0 1060.68131303 0 17691.42306233 0 1315.42453576 0 17610.68645386 0 1036
0.03250000 0.03246190 60250.16091722 0 1892.66382491 0 17675.49543209 0 -1049.16618559 0 5397.63222874 0 1059
0.03350000 0.03345080 59769.80555823 0 415.99235440 0 17841.58216952 0 5145.27265825 0 10470.73624513 0 1302
0.03450000 0.03451200 56156.86979050 0 3215.19537913 0 17002.91005294 0 -4174.58794839 0 1335.26267384 0 1339
0.03550000 0.03553350 54557.95540556 0 3491.91873160 0 19856.37247239 0 2752.54715115 0 11068.49471586 0 1365
0.03650000 0.03647120 51519.73247529 0 -652.55061722 0 14122.64527638 0 770.73363363 0 2348.44669503 0 1308
0.03750000 0.03744890 49217.69559942 0 1728.30166538 0 11919.46955374 0 4204.36712465 0 1847.29754015 0 1579
0.03850000 0.03847530 49442.76949161 0 1636.04224027 0 15223.07975758 0 4650.41766346 0 5937.94138487 0 1662
0.03950000 0.03950240 45666.93251250 0 459.02441749 0 13294.51834947 0 -1030.90762905 0 5251.05409221 0 1683
0.04050000 0.04050350 44084.82452361 0 -45.52863674 0 8787.61412678 0 -1355.58413312 0 5233.62157553 0 1822
0.04150000 0.04152450 43843.71315545 0 1011.93837065 0 10728.04985785 0 4152.95932497 0 2065.85758080 0 1887
0.04250000 0.04250150 41698.97535894 0 1960.72423662 0 13105.36400962 0 -3684.22564378 0 5603.95545553 0 1920
0.04350000 0.04349210 42838.62476425 0 827.00210668 0 11512.71083105 0 488.94968857 0 2128.24995306 0 2005
0.04450000 0.04448520 42045.31893243 0 45.26061317 0 13422.26892859 0 -1970.50050622 0 2843.77402644 0 2151
0.04550000 0.04548030 38415.68661438 0 1791.71560289 0 15849.09054899 0 487.48544504 0 1904.63700902 0 2274
0.04650000 0.04648670 39057.73488176 0 404.43219021 0 13012.87390849 0 1396.90809517 0 1326.20040146 0 2311
0.04750000 0.04749250 37577.45388069 0 168.93723401 0 15796.47444633 0 1877.65889876 0 2896.74163543 0 2568
0.04850000 0.04851840 38471.15870591 0 309.91763235 0 15546.68526583 0 -1599.09013810 0 3086.32437361 0 2493
0.04950000 0.04949480 36676.93862048 0 441.85882591 0 14509.52192270 0 564.75422395 0 669.94358945 0 2644
0.05050000 0.05050630 36667.82142523 0 1973.93867744 0 14940.22701361 0 -538.50109548 0 -381.57439313 0 2829
0.05150000 0.05149060 35206.32404329 0 -33.76635642 0 17241.05558650 0 -1140.86869287 0 -1484.56498437 0 2784
0.05250000 0.05249300 33541.39237713 0 472.65956743 0 15241.97322242 0 1040.38731518 0 -342.04201487 0 3055
0.05350000 0.05348950 35927.79077043 0 -660.51443235 0 15802.51596125 0 4799.28059109 0 -129.71901453 0 3009
0.05450000 0.05448610 35318.58637507 0 -815.86484853 0 11508.20715630 0 2008.72681881 0 -564.85747894 0 3336
0.05550000 0.05550870 36258.86578803 0 499.30923897 0 10864.58809504 0 1134.71733223 0 -3240.18528175 0 3349
0.05650000 0.05647670 36130.34628883 0 108.42948487 0 11885.63707019 0 -2226.00166446 0 338.50168712 0 3324
0.05750000 0.05747970 34139.50235419 0 1496.45029190 0 11464.70824887 0 -1732.65155612 0 -1936.77786840 0 3639
0.05850000 0.05849280 33198.89340405 0 1229.82176163 0 13251.23913350 0 -1030.91861362 0 -2494.31083434 0 3846
0.05950000 0.05951020 31616.89526088 0 472.82763139 0 14858.39194788 0 -461.33227619 0 -2666.26333352 0 3787
0.06050000 0.06049470 31810.22373831 0 484.00772937 0 15681.46597140 0 1774.01945646 0 -2369.65790468 0 3930
0.06150000 0.06148310 32384.27750141 0 -647.55043979 0 12464.74373668 0 1811.66358670 0 -4544.77902895 0 4083
0.06250000 0.06249100 32118.34099922 0 -67.04214184 0 12405.20735329 0 1460.54172413 0 -1936.85476041 0 4303
0.06350000 0.06350600 31975.21201848 0 578.73538794 0 11908.48498116 0 334.43629681 0 373.87970004 0 4470
0.06450000 0.06451750 31086.88963383 0 701.10682186 0 12902.25926259 0 -1460.91519960 0 -893.72789282 0 4479
0.06550000 0.06550280 30211.63889055 0 1568.55302633 0 14566.97123730 0 509.15690829 0 -624.22030608 0 4636
0.06650000 0.06648880 29231.59532484 0 233.65613875 0 13503.33507425 0 623.76993860 0 1064.25679140 0 4653
0.06750000 0.06749660 29473.14607591 0 -557.54395051 0 14169.21986413 0 1521.16558021 0 280.43613800 0 5220
0.06850000 0.06852730 29624.07410317 0 423.21910470 0 12201.77306908 0 843.37461211 0 839.18180075 0 5029
0.06950000 0.06949320 27975.39960444 0 422.61275629 0 12610.94839774 0 1112.78114078 0 3862.24162704 0 5040
0.07050000 0.07048030 28775.73556272 0 565.22326520 0 11218.43413160 0 1648.61957587 0 3318.56020712 0 5475
0.07150000 0.07148790 27003.92400535 0 484.91395660 0 13098.11419172 0 -607.00967776 0 4073.27723547 0 5509
0.07250000 0.07249820 26719.09403831 0 1124.18312712 0 13152.81736317 0 -61.24042014 0 3847.34654662 0 5916
0.07350000 0.07351270 25682.04054091 0 -70.98856923 0 13462.69215569 0 26.96701584 0 4608.70924137 0 5721
0.07450000 0.07449140 26167.00942037 0 -421.20673100 0 12691.57516048 0 662.57953199 0 3113.41232959 0 6028
0.07550000 0.07549160 26660.43642073 0 -355.40474741 0 11997.78955625 0 835.97540402 0 964.11373855 0 6183
0.07650000 0.07648840 26021.90321657 0 568.11660162 0 10612.71184575 0 511.48344076 0 2166.28952791 0 6330
0.07750000 0.07749960 26169.20633489 0 186.57406375 0 11375.73321096 0 396.27724353 0 1758.79483886 0 6583
0.07850000 0.07848650 26498.52382088 0 -412.33668864 0 10188.11417719 0 1186.63042224 0 711.39387409 0 6549
0.07950000 0.07947320 25461.14078630 0 778.41514523 0 10132.38944048 0 364.41319539 0 32.86562147 0 6828
0.08050000 0.08048110 24329.40027324 0 933.82927194 0 9008.77751114 0 -295.63109725 0 739.36169433 0 7147
0.08150000 0.08149960 23886.50230676 0 403.15138905 0 9063.96400379 0 1493.78104076 0 412.25869818 0 7386
0.08250000 0.08250610 23478.64512681 0 231.71736169 0 8648.31876188 0 463.66759632 0 349.95310404 0 7227
0.08350000 0.08350160 22668.86243612 0 -150.00092934 0 6792.78279229 0 1383.43002461 0 2066.79126947 0 7798
0.08450000 0.08449610 23012.78940364 0 -230.07626655 0 5779.54384825 0 1063.24621072 0 -248.07668563 0 7371
0.08550000 0.08548940 22569.89143716 0 574.61177939 0 5436.11118649 0 173.51889924 0 1347.78508659 0 8256
0.08650000 0.08650700 22160.82595423 0 452.39852331 0 6302.47541055 0 -1759.46489779 0 4.07499083 0 8037
0.08750000 0.08749060 21312.48741377 0 739.79338804 0 5570.49644745 0 203.15307915 0 124.66830805 0 8155
0.08850000 0.08849210 20913.74742907 0 316.20849707 0 7570.13902473 0 -51.67022112 0 -629.05681339 0 8718
0.08950000 0.08949900 20281.58527701 0 68.34612045 0 6494.67247701 0 -144.72174376 0 -279.67380866 0 8571
0.09050000 0.09049190 20879.14602544 0 389.57006351 0 7558.05599489 0 348.85135141 0 -939.43579779 0 8932
0.09150000 0.09150830 19742.24276327 0 364.85916903 0 6474.10935714 0 -397.98863994 0 182.57238396 0 9285
0.09250000 0.09250820 19735.54217400 0 -12.02492145 0 8151.73918920 0 -97.56332598 0 -588.87854226 0 9204
0.09350000 0.09350330 19155.00751307 0 637.86753906 0 7261.29678203 0 -476.36246685 0 -963.35360613 0 9349
0.09450000 0.09448040 18643.12643078 0 324.83907575 0 7574.60974577 0 715.14181025 0 169.74350164 0 9564
0.09550000 0.09549270 18374.44378544 0 -51.83520940 0 7100.52657773 0 1564.86220994 0 -158.83801798 0 10155
0.09650000 0.09649430 18479.45629932 0 211.46620368 0 7031.24687846 0 490.38647066 0 2170.61744951 0 9913
0.09750000 0.09749140 17919.24309767 0 487.68536427 0 7038.45275808 0 601.98533426 0 1687.20837935 0 10476
0.09850000 0.09850240 17839.93448363 0 -12.74594879 0 6813.37886588 0 579.57241237 0 2833.19588304 0 10575
0.09950000 0.09950330 17767.76584177 0 -101.99933577 0 6220.84905170 0 356.00230816 0 2118.04528513 0 10882
0.10050000 0.10051200 17474.03837095 0 87.78200348 0 5901.41768104 0 220.66358630 0 2141.10190298 0 10875
0.10150000 0.10150300 17091.22601649 0 549.55047704 0 6785.17048350 0 -964.41910967 0 2679.59860464 0 11118
0.10250000 0.10250800 16435.88641629 0 480.53880134 0 6481.71068136 0 -128.77653820 0 1280.41670294 0 11575
0.10350000 0.10349800 16537.49371266 0 97.92856302 0 6797.35237449 0 49.42541387 0 952.04828403 0 11364
0.10450000 0.10450100 16134.14020748 0 -4.35318611 0 6208.00808635 0 337.79208374 0 71.71431994 0 12093
0.10550000 0.10551000 16139.85218522 0 147.01312560 0 5653.50686245 0 185.77987915 0 156.89155172 0 12067
0.10650000 0.10649700 15937.84589545 0 62.54505782 0 5796.17449113 0 589.50136752 0 -630.08277247 0 12054
0.10750000 0.10749900 15750.66877866 0 -118.88602905 0 4926.93230906 0 240.26445761 0 -138.03433597 0 12807
0.10850000 0.10850100 15666.08756979 0 216.24668967 0 4428.50732818 0 604.61394248 0 124.11468560 0 12736
0.10950000 0.10950300 15517.13676558 0 150.87420286 0 4061.96312571 0 75.62197179 0 -919.39224820 0 12933
0.11050000 0.11050200 15359.50814904 0 363.84529298 0 4097.89366262 0 29.06880396 0 -668.14980875 0 13428
0.11150000 0.11150900 14900.35301514 0 256.73033191 0 4742.42444341 0 -455.19629394 0 -191.34576208 0 13453
0.11250000 0.11250000 14475.79928487 0 242.46576596 0 4338.80730848 0 -286.92033120 0 225.03544619 0 13668
0.11350000 0.11349100 14187.89363751 0 242.25486217 0 4746.84024158 0 523.30064395 0 -55.27085417 0 13791
0.11450000 0.11448600 13673.70579498 0 22.47498473 0 4434.14241391 0 1065.21135076 0 1468.51652383 0 14205
0.11550000 0.11549300 14138.02367800 0 98.23338491 0 4682.31686224 0 844.57083206 0 666.36591416 0 14776
0.11650000 0.11649800 13833.42148031 0 135.63310841 0 4021.81451292 0 -387.51155461 0 1372.46742118 0 14553
0.11750000 0.11747300 13506.63044602 0 520.49628257 0 4651.51612072 0 -369.87362642 0 1132.67420173 0 14568
0.11850000 0.11849100 13153.80597471 0 126.59170671 0 4754.35368923 0 -453.27619065 0 1331.36315058 0 16015
0.11950000 0.11950300 13229.05029689 0 -79.45536793 0 4979.59235001 0 109.46005747 0 488.29390959 0 15270
0.12050000 0.12050700 13374.04665496 0 -117.35258272 0 4306.86417141 0 580.03486287 0 481.45821007 0 15999
0.12150000 0.12150000 13228.39122253 0 -100.61527963 0 4017.49757590 0 -75.90394577 0 -32.16096114 0 15670
0.12250000 0.12250700 13162.59363277 0 120.74352027 0 3791.89642422 0 454.10772280 0 583.52026775 0 16887
0.12350000 0.12352200 13248.05360745 0 86.29271513 0 3872.74287842 0 326.93932602 0 257.28175746 0 16407
0.12450000 0.12449800 13011.77545123 0 222.71220909 0 3683.74232259 0 -377.88577366 0 772.17700646 0 16306
0.12550000 0.12549900 12803.06857218 0 238.50143372 0 3813.87655396 0 145.07215162 0 677.76790050 0 17523
0.12650000 0.12650100 12654.44730516 0 -121.68819351 0 4049.66040442 0 441.97745930 0 835.74362954 0 17154
0.12750000 0.12750600 12817.89774517 0 -47.04231085 0 3604.52158513 0 518.66625277 0 866.27415057 0 18007
0.12850000 0.12850300 12983.98448260 0 81.92041586 0 3472.43209984 0 -310.85681331 0 752.07523864 0 17496
0.12950000 0.12949900 12532.40870378 0 191.26777162 0 3510.84515016 0 25.78826136 0 925.17672412 0 18405
0.13050000 0.13049000 12679.82166782 0 207.33161056 0 3737.83035798 0 -245.73477476 0 811.50617013 0 18100
0.13150000 0.13148800 12266.36235586 0 135.89893506 0 3992.54062700 0 -327.31170304 0 -47.49399647 0 19059
0.13250000 0.13249300 12088.63197149 0 254.22584937 0 4259.77330875 0 -19.38820999 0 -68.40774390 0 18957
0.13350000 0.13349100 11660.01394937 0 166.63486760 0 4159.70385254 0 -135.75064333 0 429.81753745 0 19468
0.13450000 0.13450700 11823.13485220 0 164.95422800 0 4131.97879134 0 203.41890580 0 162.26850000 0 19953
0.13550000 0.13551000 11544.12670864 0 -46.39466045 0 3731.94262708 0 619.93522432 0 -252.35957048 0 19956
0.13650000 0.13649900 11683.96031760 0 -127.21343352 0 3644.15392301 0 487.25806439 0 131.78081880 0 19723
0.13750000 0.13749600 11493.26813759 0 159.54432600 0 3172.67409867 0 351.09549959 0 864.43972695 0 20946
0.13850000 0.13851100 11358.92681492 0 153.20403071 0 2928.46508104 0 -70.67034616 0 606.50328896 0 20955
0.13950000 0.13949800 11128.25079071 0 124.82099361 0 2962.36347203 0 217.49124174 0 422.34583118 0 20506
0.14050000 0.14048300 10972.24789091 0 264.14931224 0 3095.77110603 0 -180.42380156 0 507.87830404 0 21447
0.14150000 0.14148400 10717.20808471 0 227.08516743 0 2964.17592650 0 -30.59796631 0 1220.78145840 0 21771
0.14250000 0.14249400 10433.17999148 0 87.93633673 0 3123.99047299 0 237.11188528 0 897.35499869 0 22470
0.14350000 0.14350900 10555.11973170 0 30.96660856 0 2987.28746721 0 342.47700394 0 656.47870038 0 22519
0.14450000 0.14449900 10566.34596488 0 139.25582044 0 2939.90002110 0 24.24251230 0 790.42567689 0 22218
0.14550000 0.14550500 10227.50485446 0 34.82043601 0 3060.77425778 0 -353.67687415 0 724.75550817 0 23559
0.14650000 0.14650700 10044.86436615 0 67.28907503 0 3031.14886553 0 -133.50319978 0 637.25459991 0 23044
0.14750000 0.14750500 10102.75306366 0 124.67160343 0 3181.96704707 0 -23.12691911 0 555.68426237 0 23649
0.14850000 0.14849900 10117.72503609 0 -0.90503981 0 3102.60351017 0 320.32881025 0 246.92989626 0 23640
0.14950000 0.14949500 10144.26376344 0 9.65385752 0 2705.74188738 0 208.50476291 0 156.51917471 0 24457
0.15050000 0.15050000 10040.52545998 0 57.92110199 0 2838.63324647 0 253.92157670 0 502.46840205 0 24591
0.15150000 0.15149900 10024.82850577 0 122.45711359 0 2742.69398955 0 4.32018846 0 794.32190479 0 25020
0.15250000 0.15250500 9668.11549576 0 88.43745293 0 2641.00980116 0 45.47173666 0 675.35129453 0 25297
0.15350000 0.15350100 9582.06235416 0 254.11929901 0 3031.19280382 0 -14.26742194 0 596.11298176 0 25452
0.15450000 0.15450400 9395.53332715 0 50.25892323 0 2773.40685448 0 10.97746556 0 800.87969462 0 26061
0.15550000 0.15549900 9560.33486959 0 83.53800402 0 2808.23893414 0 394.67020056 0 1210.79648192 0 26128
0.15650000 0.15649500 9345.63041392 0 53.88009743 0 2882.48366022 0 -367.77337614 0 535.56162386 0 26331
0.15750000 0.15749700 9059.82281992 0 190.95690821 0 2880.68219031 0 -260.70894410 0 624.89146346 0 27345
0.15850000 0.15849900 9027.28651594 0 -12.88567256 0 3018.80220595 0 26.37604584 0 68.30646614 0 26980
0.15950000 0.15949700 8763.82154257 0 180.14149805 0 2902.32179830 0 216.10498868 0 542.40830795 0 27777
0.16050000 0.16050000 8791.64546492 0 116.17503653 0 2777.03176343 0 465.08131081 0 459.63845509 0 28224
0.16150000 0.16150500 8816.33878408 0 55.49647729 0 2434.44491377 0 375.79321258 0 475.47161801 0 28075
0.16250000 0.16249700 8620.84634585 0 101.28456963 0 2367.38409816 0 52.73956926 0 711.89477060 0 28590
0.16350000 0.16349900 8365.46601791 0 153.37868541 0 2311.47262372 0 -253.13178594 0 641.72202557 0 29163
0.16450000 0.16449100 8157.09966062 0 -38.15634086 0 2347.48005264 0 390.10501220 0 1190.11253175 0 28996
0.16550000 0.16550500 8393.75129231 0 -53.60570281 0 2086.13510179 0 122.67570659 0 795.44892194 0 30777
0.16650000 0.16650700 8336.91711377 0 100.57243979 0 1860.36918152 0 176.85601239 0 728.18599019 0 29211
0.16750000 0.16749900 8322.07695621 0 169.76327387 0 2357.28927596 0 -347.92864731 0 756.80958942 0 30922
0.16850000 0.16850800 8034.38001574 0 80.20858007 0 2128.74425883 0 -65.57603093 0 1262.11640502 0 30867
0.16950000 0.16949900 8165.45892035 0 32.47973344 0 2602.00358392 0 20.72415371 0 551.40796827 0 30852
0.17050000 0.17049200 7912.07778462 0 161.72586212 0 2395.87807943 0 -66.16755017 0 633.17273273 0 31257
0.17150000 0.17149500 7909.47444091 0 109.72939919 0 2683.22351359 0 -58.91751257 0 798.43892259 0 32608
0.17250000 0.17250900 7860.91164553 0 -45.76864965 0 2526.88009204 0 129.38178815 0 623.07022133 0 32361
0.17350000 0.17350400 7953.34682380 0 1.16083865 0 2428.91967376 0 81.25376215 0 584.30566469 0 32508
0.17450000 0.17449800 7921.50254789 0 -88.95032262 0 2323.83026787 0 283.23281018 0 499.31363280 0 32791
0.17550000 0.17549800 7981.12680786 0 38.51597576 0 2176.16465866 0 95.30544709 0 545.04021154 0 33633
0.17650000 0.17650100 7903.99313920 0 149.00243169 0 1932.40600851 0 -17.14230428 0 232.72025317 0 33984
0.17750000 0.17750300 7743.25588861 0 127.26396256 0 2352.80757034 0 -4.86821977 0 790.29496048 0 34069
0.17850000 0.17849800 7717.46411219 0 83.21231144 0 2115.96920092 0 14.47953404 0 408.12300660 0 34536
