### header ###
fiducial parameters:
Omega_m = 0.31
Omega_nu = 0
Omega_de = 0.69
Omega_k = 0
H_0 = 100
w_de = -1
zeff = 0
beta = 0
fgrowth = 0
b_1 = 2
gamma = 0.55
Lx = 3500 Ly = 3500 Lz = 3500
nx = 700 ny = 700 nz = 700
xoffset = -983.599254 yoffset = -42.9823471 zoffset = 800.977702
bins = 400 dk = 0.001
kx_ny = 0.628318531 ky_ny = 0.628318531 kz_ny = 0.628318531
############################
A(data) = 9.01764707 (not used)
A(ran) = 9.00505897 (used)
Ngal = 499922
weighted Ngal = 0
Nran = 25229228
weighted Nran = 0
SN(data) = 6749.74262
SN(ran) = 133.673896
SN(data+ran) = 6883.41651
############################
13 columns: k_central k_mean P_0(k) sigma^{lin}_{P_0(k)} P^img_1(k) sigma^{lin}_{P_1(k)} P_2(k) sigma^{lin}_{P_2(k)} P^img_3(k) sigma^{lin}_{P_3(k)} P_4(k) sigma^{lin}_{P_4(k)} N_modes
### header ###
0.00050000 0 0 0 0 0 0 0 0 0 0 0 0
0.00150000 0.00179520 35106.47427852 0 9378.74890025 0 -30241.29723652 0 87739.16364775 0 -4087.77687128 0 3
0.00250000 0.00253879 52076.65030516 0 11642.10909606 0 11275.88344620 0 -7565.08612134 0 10330.22159267 0 6
0.00350000 0.00331552 51563.45107416 0 -7245.47899752 0 -11159.44697684 0 -42973.73500701 0 1944.90645211 0 7
0.00450000 0.00420575 50141.05877061 0 -6343.21719026 0 1566.75155642 0 -14249.95647260 0 -9832.26894842 0 24
0.00550000 0.00557378 55058.08299519 0 1280.22996521 0 3468.33485427 0 -29681.08403487 0 -10910.89905304 0 45
0.00650000 0.00659388 45670.99680435 0 367.77227768 0 38299.46983647 0 -8332.00700983 0 -2546.39967752 0 40
0.00750000 0.00754703 63808.28366776 0 -3774.65064527 0 28349.53414656 0 12212.75764166 0 -23212.15939599 0 57
0.00850000 0.00846663 61450.11562600 0 2391.49523497 0 55830.73783056 0 -7956.13690524 0 3888.60460123 0 75
0.00950000 0.00948925 63779.39424188 0 359.33392902 0 49239.44505313 0 3409.68822126 0 -11365.73724992 0 112
0.01050000 0.01054430 76687.80486512 0 5334.07549178 0 64390.57586030 0 33305.99298671 0 31558.45733475 0 105
0.01150000 0.01145670 64512.83415313 0 -8886.36543429 0 41955.13559154 0 23864.75285305 0 23494.02352843 0 144
0.01250000 0.01249090 82239.62753918 0 1222.57194373 0 62343.71060549 0 7588.59310667 0 -1088.46129709 0 169
0.01350000 0.01339930 76665.28649132 0 9635.50229977 0 48165.04400895 0 -5196.38387448 0 19938.75676675 0 180
0.01450000 0.01448870 67087.61796620 0 4039.67542794 0 55013.48563051 0 1890.92826244 0 36817.43130379 0 267
0.01550000 0.01550050 69741.05131895 0 -11034.66223231 0 51058.27058115 0 17067.38949399 0 2721.81231707 0 238
0.01650000 0.01653350 81237.94436549 0 5739.62591149 0 45966.59165252 0 4346.79309274 0 -15168.37658613 0 315
0.01750000 0.01747870 74598.97854305 0 3098.68201776 0 41430.95178796 0 -12685.42379984 0 -17030.59117584 0 297
0.01850000 0.01844180 74015.14851035 0 1453.16009136 0 47058.89755001 0 -437.50454134 0 -7834.94411595 0 388
0.01950000 0.01947590 71108.30106815 0 -4803.93804986 0 42102.65840130 0 7953.76423756 0 -11033.34408360 0 399
0.02050000 0.02045430 79913.86398653 0 -3624.49153809 0 26616.49813040 0 17307.18271344 0 -23977.34472201 0 462
0.02150000 0.02154770 83453.31296369 0 3478.13309301 0 32216.21354092 0 -1078.54772033 0 -27397.06185803 0 571
0.02250000 0.02255340 77097.19988522 0 7281.73907161 0 34138.73343410 0 -14835.10465401 0 -25581.75139324 0 510
0.02350000 0.02348930 70011.38165017 0 5846.63761757 0 38366.47572921 0 -6349.04999830 0 -18710.13232353 0 555
0.02450000 0.02439640 63147.56162700 0 973.95042330 0 49932.02235438 0 -2138.24591411 0 -12716.29044879 0 592
0.02550000 0.02547300 63113.72914345 0 1829.17299539 0 45365.62568659 0 6826.63724499 0 -19067.89985250 0 837
0.02650000 0.02652900 59350.85395998 0 -1962.77835170 0 34993.88240956 0 13266.06830649 0 -15638.73598406 0 723
0.02750000 0.02749970 62816.48660940 0 -477.18630979 0 28862.18414893 0 18736.16576055 0 -10167.57302646 0 826
0.02850000 0.02848090 63111.75192038 0 3528.65114231 0 25935.67432181 0 -3231.41959283 0 2743.68260108 0 831
0.02950000 0.02946900 57346.60884679 0 2028.80661748 0 25270.33876056 0 6793.33202092 0 5268.06919514 0 996
0.03050000 0.03053250 55771.64083008 0 2804.47122574 0 22114.91044084 0 -239.39557792 0 4194.97531510 0 1041
0.03150000 0.03150510 52244.27488276 0 712.41214396 0 22969.40034194 0 631.17683590 0 4779.35457642 0 1036
0.03250000 0.03246190 49145.96634046 0 2462.41163556 0 26102.85951650 0 -883.96590317 0 3587.87995767 0 1059
0.03350000 0.03345080 45748.54788678 0 1007.27981342 0 22687.31651805 0 1706.07987504 0 4990.07163225 0 1302
0.03450000 0.03451200 47069.99196831 0 1111.39708464 0 23773.80059208 0 6747.57029155 0 928.15134638 0 1339
0.03550000 0.03553350 47437.97514979 0 604.47443841 0 21729.02240606 0 3913.82517988 0 9506.51046394 0 1365
0.03650000 0.03647120 48175.03997000 0 -983.75085895 0 17501.28011095 0 3584.11224928 0 9075.10236038 0 1308
0.03750000 0.03744890 47197.74254743 0 -1355.85874743 0 19474.54872946 0 -109.69787347 0 7858.34125555 0 1579
0.03850000 0.03847530 46272.95138181 0 1269.48705323 0 17196.45822182 0 -3344.40690641 0 1842.34349792 0 1662
0.03950000 0.03950240 46383.67587343 0 3720.28799557 0 20940.22024899 0 -4000.96579417 0 -318.09454818 0 1683
0.04050000 0.04050350 44204.77605620 0 1434.94767002 0 22694.12695306 0 -2794.47526469 0 1045.34684970 0 1822
0.04150000 0.04152450 46378.51312432 0 -3218.91914924 0 25829.89288785 0 6808.87519113 0 -2468.92548710 0 1887
0.04250000 0.04250150 44596.26622300 0 -1233.52356259 0 17514.79113523 0 4240.81393648 0 -1196.96690504 0 1920
0.04350000 0.04349210 47360.53391309 0 448.10135851 0 17695.04797129 0 -804.21900468 0 -4386.73299865 0 2005
0.04450000 0.04448520 43567.56100075 0 1962.48176824 0 17310.69777666 0 1012.31733841 0 1792.28680066 0 2151
0.04550000 0.04548030 44161.16730305 0 1964.27225357 0 20836.30619237 0 -570.24760870 0 -138.71208410 0 2274
0.04650000 0.04648670 41008.26543503 0 855.83441279 0 18255.92024729 0 1067.26436738 0 2346.35962624 0 2311
0.04750000 0.04749250 40571.73852064 0 1324.44286985 0 19992.80086385 0 3391.27807761 0 1261.01794777 0 2568
0.04850000 0.04851840 39798.75414809 0 -171.50872246 0 15235.93170750 0 3102.84517077 0 3140.69800789 0 2493
0.04950000 0.04949480 39329.71289887 0 -135.96264558 0 15151.57019008 0 4111.87702352 0 4729.88006152 0 2644
0.05050000 0.05050630 39810.17810358 0 402.94487909 0 13663.49014248 0 -354.15689997 0 927.59003472 0 2829
0.05150000 0.05149060 36271.71773795 0 1889.20368455 0 12836.57151856 0 -2004.95911041 0 3150.26557060 0 2784
0.05250000 0.05249300 35425.79580346 0 305.24809055 0 11990.32004689 0 567.52013933 0 3989.32214723 0 3055
0.05350000 0.05348950 34026.91048523 0 -549.78444844 0 12446.83888337 0 1976.36626798 0 3305.98287152 0 3009
0.05450000 0.05448610 34946.53890174 0 -218.97306058 0 9264.10291622 0 4318.98015497 0 -378.32955039 0 3336
0.05550000 0.05550870 37093.25392131 0 433.19639198 0 7766.91665795 0 -976.51641945 0 1280.86707042 0 3349
0.05650000 0.05647670 35362.52466539 0 618.88400072 0 9211.78339701 0 260.36293007 0 381.21959144 0 3324
0.05750000 0.05747970 35416.89829967 0 926.22465235 0 8154.04594944 0 -1942.12735524 0 670.45766745 0 3639
0.05850000 0.05849280 33022.81070557 0 508.54177223 0 10622.11463988 0 -749.26318806 0 832.86567152 0 3846
0.05950000 0.05951020 33309.17851276 0 140.73324545 0 11788.75314002 0 -529.02140935 0 -2656.26737248 0 3787
0.06050000 0.06049470 32823.98994184 0 486.42653225 0 11139.34520901 0 573.93842509 0 -1471.52629671 0 3930
0.06150000 0.06148310 32333.85831326 0 776.55545710 0 12425.52881256 0 -966.86098015 0 -1850.53798906 0 4083
0.06250000 0.06249100 31292.63067828 0 388.17282588 0 11560.60356751 0 716.36878701 0 784.99929804 0 4303
0.06350000 0.06350600 32093.29617373 0 89.06851662 0 12974.86728736 0 967.64637709 0 -2401.76581034 0 4470
0.06450000 0.06451750 30977.26359947 0 -139.55679773 0 11885.41737874 0 1212.29038379 0 -2355.10334601 0 4479
0.06550000 0.06550280 31181.46680376 0 595.78454304 0 11623.43532267 0 544.57556412 0 1016.01254863 0 4636
0.06650000 0.06648880 31345.35662667 0 208.99797022 0 11067.17656715 0 -361.17933722 0 -349.04138452 0 4653
0.06750000 0.06749660 30211.08966192 0 311.04355104 0 11299.06089435 0 592.30463044 0 -315.49010602 0 5220
0.06850000 0.06852730 31138.29743351 0 -186.96072071 0 11090.13432385 0 1344.83023656 0 -537.68054791 0 5029
0.06950000 0.06949320 29622.31657156 0 359.09776071 0 10541.87233717 0 -2.31872244 0 421.24957084 0 5040
0.07050000 0.07048030 30042.36662707 0 618.02061332 0 11554.45220686 0 197.09948120 0 -553.59060284 0 5475
0.07150000 0.07148790 29395.15561058 0 788.59674556 0 10704.99324000 0 144.70306999 0 1161.72839620 0 5509
0.07250000 0.07249820 28272.86182994 0 469.26533450 0 12098.18854964 0 269.36039347 0 285.16609496 0 5916
0.07350000 0.07351270 27603.46197683 0 253.44704317 0 11781.83285930 0 -796.88790094 0 -650.33393048 0 5721
0.07450000 0.07449140 27486.69597030 0 787.92448972 0 11662.54040106 0 -274.39682000 0 -1107.89300598 0 6028
0.07550000 0.07549160 26128.34372489 0 430.49089175 0 12127.40751271 0 334.57250551 0 -380.43199758 0 6183
0.07650000 0.07648840 25030.76523256 0 538.34950838 0 11244.68726007 0 1400.66481899 0 683.39969086 0 6330
0.07750000 0.07749960 25808.03358841 0 295.45534409 0 11059.48736635 0 1404.01511363 0 -793.18170615 0 6583
0.07850000 0.07848650 24878.84859376 0 14.17526138 0 10492.41979141 0 457.52282641 0 1380.25548314 0 6549
0.07950000 0.07947320 24790.75232166 0 205.25332943 0 9288.18109932 0 1238.24692880 0 921.00368500 0 6828
0.08050000 0.08048110 24354.99432735 0 52.09158932 0 8738.41422619 0 784.88835386 0 1489.88151750 0 7147
0.08150000 0.08149960 24265.47006082 0 86.97595554 0 7744.96948194 0 635.63327699 0 225.18373792 0 7386
0.08250000 0.08250610 23930.00121418 0 791.12209880 0 9076.83792285 0 -1030.26942538 0 587.17263813 0 7227
0.08350000 0.08350160 22456.75033957 0 879.38973023 0 9181.99323617 0 -1094.42262463 0 1324.06939438 0 7798
0.08450000 0.08449610 22412.81204925 0 176.19474112 0 8741.80845912 0 795.87182798 0 -793.29374879 0 7371
0.08550000 0.08548940 21734.51469235 0 203.05531645 0 9042.59901011 0 917.11954013 0 636.04519846 0 8256
0.08650000 0.08650700 21182.43007441 0 323.43964120 0 8781.12224439 0 -118.02593701 0 -1146.83331578 0 8037
0.08750000 0.08749060 20560.48357485 0 362.49309210 0 8596.75717818 0 768.91898224 0 710.30310603 0 8155
0.08850000 0.08849210 20431.63453848 0 180.28869132 0 8119.47749952 0 -295.95074832 0 -420.85192931 0 8718
0.08950000 0.08949900 20459.97473574 0 -75.51344421 0 7783.42647054 0 369.07504799 0 -751.97418057 0 8571
0.09050000 0.09049190 20129.99817539 0 585.77320359 0 7887.65907977 0 -27.99692937 0 -1831.44680191 0 8932
0.09150000 0.09150830 19604.93560600 0 458.81131678 0 7311.19969527 0 -504.46100351 0 -467.07061690 0 9285
0.09250000 0.09250820 19519.80516850 0 -144.72284222 0 7421.02345194 0 1416.64737210 0 -1671.87391603 0 9204
0.09350000 0.09350330 19279.68241187 0 -36.32565199 0 7090.95901502 0 159.09395852 0 -1565.45537686 0 9349
0.09450000 0.09448040 18699.58713385 0 905.34407833 0 7008.69555095 0 -32.22269444 0 -992.10792177 0 9564
0.09550000 0.09549270 18087.85628679 0 340.18012981 0 7266.80005290 0 -265.87498859 0 -676.10373775 0 10155
0.09650000 0.09649430 17615.29997435 0 87.13259555 0 6885.02024826 0 580.15020088 0 -760.16098252 0 9913
0.09750000 0.09749140 17541.37380087 0 77.26218817 0 6963.23040504 0 309.48813556 0 -808.22397985 0 10476
0.09850000 0.09850240 17329.04201288 0 207.31183833 0 6272.45457369 0 828.77501669 0 -596.14923085 0 10575
0.09950000 0.09950330 17278.73267045 0 134.39954090 0 6831.51439522 0 -474.44126510 0 -731.65272130 0 10882
0.10050000 0.10051200 16601.75346226 0 414.39849292 0 6088.90236585 0 260.82208520 0 -216.50263021 0 10875
0.10150000 0.10150300 16538.81186137 0 157.31775314 0 6790.28929432 0 263.36061992 0 -159.86727243 0 11118
0.10250000 0.10250800 16501.24462315 0 146.16291968 0 6380.85033592 0 -98.17066300 0 -1660.42799140 0 11575
0.10350000 0.10349800 15891.71069061 0 486.79781080 0 6910.22984233 0 -90.99718788 0 -389.74801359 0 11364
0.10450000 0.10450100 15761.87304270 0 152.96896085 0 6861.77689268 0 388.72974371 0 351.10538570 0 12093
0.10550000 0.10551000 15554.04492946 0 10.82766895 0 6722.18494431 0 -181.53653877 0 -102.59447992 0 12067
0.10650000 0.10649700 14906.94375869 0 236.78454502 0 6722.51448149 0 606.52525811 0 99.61579337 0 12054
0.10750000 0.10749900 15169.69473483 0 313.04823554 0 7101.92161845 0 22.97752893 0 904.74651758 0 12807
0.10850000 0.10850100 14971.75273692 0 -169.92145172 0 6943.49112811 0 524.08713934 0 1291.87361215 0 12736
0.10950000 0.10950300 15291.07426186 0 -150.56553637 0 6098.98620348 0 814.22924568 0 1024.42014048 0 12933
0.11050000 0.11050200 15149.26342983 0 -142.10961240 0 5915.03855104 0 804.95387259 0 1180.47906160 0 13428
0.11150000 0.11150900 15757.47921366 0 134.18424328 0 5798.84374227 0 -427.88205576 0 1330.35256990 0 13453
0.11250000 0.11250000 15010.63812386 0 258.52740799 0 5887.68696531 0 169.75119084 0 2075.67778869 0 13668
0.11350000 0.11349100 15057.98163168 0 282.48915462 0 5901.25291245 0 -251.45334325 0 823.10697724 0 13791
0.11450000 0.11448600 14414.83490705 0 273.00397619 0 6005.51847539 0 258.31320882 0 1712.54978829 0 14205
0.11550000 0.11549300 14397.25959091 0 -24.14288223 0 5735.30897446 0 993.96101917 0 1540.15790620 0 14776
0.11650000 0.11649800 14072.55562541 0 -9.46781181 0 5457.05876640 0 329.36471965 0 1914.67690836 0 14553
0.11750000 0.11747300 13974.24370081 0 457.77107775 0 4622.86835543 0 347.00814013 0 1936.59113066 0 14568
0.11850000 0.11849100 14067.94210493 0 -259.32928179 0 4352.73574651 0 244.42761062 0 2217.87308075 0 16015
0.11950000 0.11950300 13782.56290926 0 90.16126190 0 4274.58051259 0 764.46144268 0 1769.63661200 0 15270
0.12050000 0.12050700 13820.02030177 0 209.88991751 0 3855.34331545 0 71.81856353 0 1871.14504722 0 15999
0.12150000 0.12150000 13484.33176368 0 122.36813856 0 3989.75054556 0 -724.27438389 0 1533.84177697 0 15670
0.12250000 0.12250700 13470.82073940 0 198.18475697 0 3979.83147652 0 92.98627428 0 830.71049838 0 16887
0.12350000 0.12352200 13362.07347085 0 111.44617804 0 3948.42658351 0 -13.53068666 0 719.64438655 0 16407
0.12450000 0.12449800 13144.79862519 0 -57.09253568 0 3904.74093835 0 136.77989778 0 628.01218054 0 16306
0.12550000 0.12549900 13031.32799042 0 -60.84486568 0 3621.50373434 0 296.46372786 0 153.38417770 0 17523
0.12650000 0.12650100 12911.59614929 0 301.78245790 0 3408.69960972 0 -10.42733620 0 563.22846682 0 17154
0.12750000 0.12750600 12935.54251752 0 180.18763325 0 3649.74507045 0 22.47696195 0 496.18742344 0 18007
0.12850000 0.12850300 12400.92336998 0 148.48286141 0 3719.37627604 0 -185.84578659 0 383.20010987 0 17496
0.12950000 0.12949900 12376.53761885 0 421.70103677 0 4114.91975012 0 -166.28336128 0 178.11484441 0 18405
0.13050000 0.13049000 12041.17861794 0 43.20111566 0 3811.52585543 0 -196.93361415 0 84.74696608 0 18100
0.13150000 0.13148800 11992.62680713 0 157.70770546 0 4149.40032346 0 318.80305311 0 -80.06841692 0 19059
0.13250000 0.13249300 11904.86007221 0 115.94106514 0 4365.22520554 0 -222.41452717 0 -56.91634314 0 18957
0.13350000 0.13349100 11553.13405815 0 59.93424461 0 4366.41153937 0 197.84423522 0 900.79316990 0 19468
0.13450000 0.13450700 11707.57714865 0 -75.10624610 0 4028.95448510 0 439.64763145 0 3.49058960 0 19953
0.13550000 0.13551000 11760.63263422 0 249.86936788 0 3921.72308756 0 -116.42987862 0 -375.46806923 0 19956
0.13650000 0.13649900 11393.41837282 0 348.12746808 0 4214.61573087 0 -180.52595809 0 476.97870137 0 19723
0.13750000 0.13749600 11303.89410628 0 -202.44347576 0 4081.18612773 0 482.58742413 0 881.89531124 0 20946
0.13850000 0.13851100 11313.45068443 0 -229.37215544 0 3481.71406367 0 352.98594453 0 -88.96262534 0 20955
0.13950000 0.13949800 11427.90993073 0 23.21666307 0 3056.30353674 0 457.29764268 0 -293.77031066 0 20506
0.14050000 0.14048300 11313.99991306 0 239.17039419 0 3205.27631009 0 -191.90927065 0 349.25009139 0 21447
0.14150000 0.14148400 11217.88490297 0 179.27371681 0 2690.37447034 0 -37.66104648 0 347.19597632 0 21771
0.14250000 0.14249400 10958.91261979 0 73.92551440 0 2968.54778639 0 234.72383920 0 -129.28292700 0 22470
0.14350000 0.14350900 10913.57928875 0 140.15326002 0 2910.56022773 0 42.61992192 0 5.55920431 0 22519
0.14450000 0.14449900 10597.35541328 0 228.74823172 0 2776.84502570 0 210.12828274 0 452.94885039 0 22218
0.14550000 0.14550500 10549.60547627 0 1.38534134 0 3097.46273020 0 158.57878207 0 624.98922616 0 23559
0.14650000 0.14650700 10507.90803875 0 16.73290926 0 2313.98809084 0 562.55840789 0 588.41279638 0 23044
0.14750000 0.14750500 10669.90851518 0 29.80927400 0 2513.42399063 0 117.20099561 0 714.79909159 0 23649
0.14850000 0.14849900 10245.81613696 0 123.13815709 0 2411.31140391 0 -389.96331121 0 887.95549993 0 23640
0.14950000 0.14949500 10144.31868631 0 285.92073509 0 2725.81070149 0 -211.20806622 0 110.31696398 0 24457
0.15050000 0.15050000 9876.03148558 0 117.45583770 0 2796.18885802 0 -97.45864300 0 382.66296427 0 24591
0.15150000 0.15149900 9775.29197044 0 125.51961243 0 3009.83879472 0 -117.73704276 0 -138.13759095 0 25020
0.15250000 0.15250500 9747.57789381 0 -77.46408461 0 2884.70254388 0 397.12744945 0 -56.14929044 0 25297
0.15350000 0.15350100 9695.28034375 0 120.35906023 0 2536.15107130 0 -172.74448687 0 -762.57429311 0 25452
0.15450000 0.15450400 9484.75002566 0 286.82696233 0 2586.19678398 0 62.54945165 0 61.43792275 0 26061
0.15550000 0.15549900 9401.81650267 0 -25.16521640 0 2574.43230674 0 294.42389273 0 71.14982275 0 26128
0.15650000 0.15649500 9244.52840788 0 -42.93331178 0 2481.10737809 0 3.05687473 0 -78.63053637 0 26331
0.15750000 0.15749700 9236.11422528 0 136.42399763 0 2307.92460678 0 190.64714326 0 -33.54809297 0 27345
0.15850000 0.15849900 9235.45515093 0 123.45341433 0 2580.83631256 0 -85.97108685 0 -62.38973596 0 26980
0.15950000 0.15949700 9089.18458243 0 128.30749695 0 2422.81225140 0 -221.23917790 0 43.46145003 0 27777
0.16050000 0.16050000 8915.99082654 0 91.18513391 0 2644.78849413 0 10.80796262 0 -137.10284422 0 28224
0.16150000 0.16150500 8850.39095909 0 145.90807760 0 2560.41599213 0 -368.40938289 0 -427.63490288 0 28075
0.16250000 0.16249700 8780.57301576 0 123.74450550 0 2632.67251057 0 190.70865687 0 -425.45776059 0 28590
0.16350000 0.16349900 8655.89811696 0 -42.62848989 0 2372.61275471 0 466.56422811 0 -186.52573163 0 29163
0.16450000 0.16449100 8675.56050188 0 -39.28225955 0 2428.95262748 0 468.88307138 0 43.50560801 0 28996
0.16550000 0.16550500 8546.39291290 0 136.51736650 0 2141.40947102 0 243.97724315 0 599.75326911 0 30777
0.16650000 0.16650700 8601.07411521 0 -63.60155401 0 1996.38015922 0 -9.03865555 0 507.91565159 0 29211
0.16750000 0.16749900 8430.19810413 0 160.07378240 0 2247.23484326 0 -60.17304922 0 494.95605286 0 30922
0.16850000 0.16850800 8389.90669190 0 142.93015997 0 2132.54492094 0 -74.65840508 0 1009.76452374 0 30867
0.16950000 0.16949900 8224.90742716 0 15.30810035 0 2408.96070538 0 -71.60623174 0 658.27028417 0 30852
0.17050000 0.17049200 8172.39018565 0 170.80021752 0 2551.79310265 0 -124.53759164 0 360.39833411 0 31257
0.17150000 0.17149500 8062.28083009 0 108.19002119 0 2549.72800301 0 -230.75950696 0 579.30548725 0 32608
0.17250000 0.17250900 8009.51094341 0 65.80659711 0 2687.74915749 0 151.67387975 0 487.97645544 0 32361
0.17350000 0.17350400 8044.83732883 0 -57.60705306 0 2300.69675802 0 295.26640944 0 301.79234401 0 32508
0.17450000 0.17449800 8177.62982677 0 -92.81864970 0 2199.88035087 0 402.45167178 0 264.49093244 0 32791
0.17550000 0.17549800 8148.03738824 0 58.84841961 0 1693.61238516 0 201.50209789 0 288.73827796 0 33633
0.17650000 0.17650100 7975.98602789 0 101.40902484 0 1859.41352371 0 -146.83188015 0 355.87818249 0 33984
0.17750000 0.17750300 7705.43600522 0 208.68820527 0 1699.04974859 0 -183.74883168 0 236.25728554 0 34069
0.17850000 0.17849800 7564.14144810 0 60.23983542 0 1970.56641366 0 283.95339814 0 112.06021565 0 34536
