### header ###
fiducial parameters:
Omega_m = 0.31
Omega_nu = 0
Omega_de = 0.69
Omega_k = 0
H_0 = 100
w_de = -1
zeff = 0
beta = 0
fgrowth = 0
b_1 = 2
gamma = 0.55
Lx = 3500 Ly = 3500 Lz = 3500
nx = 700 ny = 700 nz = 700
xoffset = -983.599254 yoffset = -42.9823471 zoffset = 800.977702
bins = 400 dk = 0.001
kx_ny = 0.628318531 ky_ny = 0.628318531 kz_ny = 0.628318531
############################
A(data) = 9.03488494 (not used)
A(ran) = 9.03725685 (used)
Ngal = 501393
weighted Ngal = 0
Nran = 25229228
weighted Nran = 0
SN(data) = 6746.53906
SN(ran) = 134.151852
SN(data+ran) = 6880.69091
############################
13 columns: k_central k_mean P_0(k) sigma^{lin}_{P_0(k)} P^img_1(k) sigma^{lin}_{P_1(k)} P_2(k) sigma^{lin}_{P_2(k)} P^img_3(k) sigma^{lin}_{P_3(k)} P_4(k) sigma^{lin}_{P_4(k)} N_modes
### header ###
0.00050000 0 0 0 0 0 0 0 0 0 0 0 0
0.00150000 0.00179520 8430.06628926 0 -6498.48412370 0 1070.14671922 0 -5744.66783030 0 -1931.95564103 0 3
0.00250000 0.00253879 16962.37698011 0 -4131.91288391 0 7792.25806690 0 -39661.55683655 0 -7054.05085114 0 6
0.00350000 0.00331552 12897.09651348 0 4418.12690709 0 -4492.81101607 0 -9290.85035045 0 -363.50147586 0 7
0.00450000 0.00420575 18836.78444539 0 -1337.06414375 0 -2863.78791768 0 9054.34151820 0 19268.14861066 0 24
0.00550000 0.00557378 32222.91413019 0 -15066.22006112 0 -13773.66540547 0 9503.33592247 0 -2618.18385934 0 45
0.00650000 0.00659388 45722.73414121 0 -11950.99527705 0 -6637.59275087 0 -7067.78156687 0 -11603.88278348 0 40
0.00750000 0.00754703 61588.74093198 0 1234.02885293 0 -8150.02559587 0 -12774.61852920 0 -18430.35525988 0 57
0.00850000 0.00846663 67583.57141825 0 -3381.57870002 0 12249.44611408 0 -27348.40020150 0 -2992.45021633 0 75
0.00950000 0.00948925 59068.98982754 0 -3577.35673714 0 12120.70692343 0 -3379.31587807 0 -610.06888122 0 112
0.01050000 0.01054430 80008.33131073 0 -297.91039606 0 11502.16564138 0 -703.44763428 0 -21343.02452555 0 105
0.01150000 0.01145670 74299.09971158 0 2259.81217887 0 30793.27200873 0 -8720.10294370 0 -9830.86292312 0 144
0.01250000 0.01249090 77926.75480657 0 1787.36571215 0 35423.48904322 0 -1068.19366222 0 -6983.09051227 0 169
0.01350000 0.01339930 82045.31045021 0 -7775.22099482 0 18230.87542180 0 18812.50853999 0 -9451.86221535 0 180
0.01450000 0.01448870 89229.22091841 0 -5425.24744421 0 23259.94228672 0 5510.64151146 0 -5607.74513307 0 267
0.01550000 0.01550050 90769.03830287 0 -3392.72804119 0 30458.35239073 0 1637.59106500 0 16162.70009619 0 238
0.01650000 0.01653350 99695.54136537 0 4295.35233935 0 27129.91705285 0 -4769.47944567 0 -16167.64315385 0 315
0.01750000 0.01747870 82673.18861896 0 11215.79783418 0 29184.47150847 0 -17067.60918544 0 -5429.84998012 0 297
0.01850000 0.01844180 81018.58245104 0 6948.44517034 0 49306.78048305 0 -7286.70409841 0 -1731.67392916 0 388
0.01950000 0.01947590 71221.11262856 0 1903.28590660 0 43319.52935187 0 13143.59032221 0 -15541.30282526 0 399
0.02050000 0.02045430 77337.21279612 0 2139.37732509 0 57200.07464855 0 881.20108625 0 -13381.29647287 0 462
0.02150000 0.02154770 65378.52831827 0 777.75277551 0 41364.27543239 0 -4846.19570058 0 -13275.40519318 0 571
0.02250000 0.02255340 73859.38727115 0 3768.36746976 0 56782.22150756 0 -915.29390417 0 -22984.55905211 0 510
0.02350000 0.02348930 67189.88433693 0 -602.02817409 0 39577.19531913 0 8409.88762943 0 -14369.24893083 0 555
0.02450000 0.02439640 73492.61239265 0 635.86285456 0 45456.02871894 0 15545.36711712 0 -8550.92954137 0 592
0.02550000 0.02547300 68346.01060112 0 793.32230868 0 37284.60517568 0 3384.66536492 0 -9929.91081409 0 837
0.02650000 0.02652900 65343.92691464 0 3736.44630183 0 38458.85598462 0 675.01516661 0 1553.26250129 0 723
0.02750000 0.02749970 63145.25486675 0 1932.07647133 0 33493.06025777 0 4257.65328625 0 -44.62790179 0 826
0.02850000 0.02848090 60462.49270521 0 -101.64035994 0 39000.61510433 0 995.60540968 0 4925.36151518 0 831
0.02950000 0.02946900 58582.59295364 0 1970.92890455 0 34938.41031803 0 2149.77971532 0 -3485.29503433 0 996
0.03050000 0.03053250 62587.34842535 0 1985.76906211 0 32535.64491158 0 3704.67891793 0 -3809.95506155 0 1041
0.03150000 0.03150510 60437.11834255 0 -2104.47933800 0 33111.56605202 0 1890.37903381 0 -6770.63789397 0 1036
0.03250000 0.03246190 60954.60155686 0 -173.42223500 0 27469.34034562 0 5005.45003387 0 -1188.09137040 0 1059
0.03350000 0.03345080 59229.47443296 0 -1270.81618651 0 23335.62599181 0 3886.92396163 0 -2135.65355498 0 1302
0.03450000 0.03451200 61881.36994555 0 223.16037965 0 18930.37300378 0 8219.28332600 0 -7761.41338709 0 1339
0.03550000 0.03553350 61447.14979140 0 2460.87379540 0 17881.78570517 0 -1396.62249628 0 -7823.64099076 0 1365
0.03650000 0.03647120 53284.07452331 0 2833.82200368 0 17121.21389964 0 -4996.68434495 0 -2016.33912760 0 1308
0.03750000 0.03744890 51928.46842104 0 1978.82681224 0 19184.22647614 0 2485.45726884 0 -1955.83610183 0 1579
0.03850000 0.03847530 50516.18192426 0 1630.34124710 0 16637.23363170 0 1979.61770146 0 -5594.45380025 0 1662
0.03950000 0.03950240 49952.56350511 0 342.02663647 0 14201.51450752 0 2190.34574187 0 -7336.74981110 0 1683
0.04050000 0.04050350 44667.77579050 0 1874.17678926 0 18513.72816577 0 -3574.63256314 0 -6162.42211014 0 1822
0.04150000 0.04152450 44002.76976643 0 3651.31586433 0 15152.00957298 0 -2065.15456816 0 -9894.39769094 0 1887
0.04250000 0.04250150 43898.41632690 0 -97.61967684 0 19802.32837529 0 2363.59442062 0 -4421.33440228 0 1920
0.04350000 0.04349210 39919.69429221 0 -727.37203336 0 14109.46378928 0 4323.94518177 0 -7046.20786632 0 2005
0.04450000 0.04448520 39328.61444161 0 2297.76387714 0 17242.15404376 0 -245.44368359 0 -1895.44292177 0 2151
0.04550000 0.04548030 39295.77056959 0 2208.29453346 0 15390.48464372 0 736.80778121 0 -6083.23432640 0 2274
0.04650000 0.04648670 36316.86433126 0 78.83649711 0 16599.77623920 0 323.64724962 0 1426.80810174 0 2311
0.04750000 0.04749250 36469.33019869 0 -96.02625474 0 15820.64050601 0 4242.76919040 0 1965.55744856 0 2568
0.04850000 0.04851840 36360.47308441 0 99.59371438 0 13910.86271701 0 2263.47004154 0 5996.24749613 0 2493
0.04950000 0.04949480 34506.82646131 0 121.03900527 0 13765.31713031 0 2388.17789405 0 5734.88057613 0 2644
0.05050000 0.05050630 37170.58531228 0 549.30112725 0 14980.76008644 0 -1922.01460285 0 1538.04886827 0 2829
0.05150000 0.05149060 34888.76004996 0 582.13291623 0 16404.14100153 0 -2519.49845926 0 3539.96525207 0 2784
0.05250000 0.05249300 35462.37443016 0 -2.03030052 0 15444.19920364 0 386.59653971 0 2619.05164057 0 3055
0.05350000 0.05348950 34824.17076318 0 -49.17112101 0 15924.99394553 0 -984.33084439 0 2505.61395952 0 3009
0.05450000 0.05448610 36410.23319820 0 -109.61208395 0 15056.77332870 0 2517.00496129 0 -2844.16947105 0 3336
0.05550000 0.05550870 34986.52274593 0 197.99033004 0 14768.20860699 0 682.89659744 0 -1732.03642005 0 3349
0.05650000 0.05647670 36197.13249012 0 1678.93699620 0 14567.52046593 0 -84.76542016 0 990.23834752 0 3324
0.05750000 0.05747970 33548.97173221 0 -19.35778272 0 14757.66341731 0 1465.50675094 0 1478.58937688 0 3639
0.05850000 0.05849280 34104.13203047 0 -1146.26211801 0 13008.48007946 0 3115.07100005 0 2012.57141921 0 3846
0.05950000 0.05951020 35175.34754861 0 -32.64175588 0 11330.69646338 0 985.51937514 0 618.69286916 0 3787
0.06050000 0.06049470 35006.73435948 0 1483.18092822 0 11182.73427071 0 -1803.53500299 0 549.39888994 0 3930
0.06150000 0.06148310 32391.63716504 0 1276.40733395 0 11902.44346624 0 412.13786788 0 2015.57020752 0 4083
0.06250000 0.06249100 32293.54493189 0 14.04762065 0 12507.47372402 0 -116.01136640 0 1666.13996914 0 4303
0.06350000 0.06350600 30714.95200623 0 1179.41355806 0 13250.68990487 0 302.69747280 0 -273.91130189 0 4470
0.06450000 0.06451750 29886.27585069 0 1370.83071986 0 13488.06651836 0 717.98242072 0 2941.96512074 0 4479
0.06550000 0.06550280 29680.20526906 0 -781.66877563 0 13525.52391086 0 1071.33964380 0 3341.30925694 0 4636
0.06650000 0.06648880 29017.39615951 0 424.31536504 0 12555.58615193 0 1887.68781353 0 3666.57343564 0 4653
0.06750000 0.06749660 28939.62538563 0 -136.81175304 0 10641.39256476 0 1751.56699010 0 4601.31662403 0 5220
0.06850000 0.06852730 29520.26989228 0 -686.65002589 0 10130.33532541 0 2460.99462570 0 3204.91381920 0 5029
0.06950000 0.06949320 29341.88043356 0 597.61017900 0 10012.49283076 0 -1013.51465682 0 3236.21985105 0 5040
0.07050000 0.07048030 28156.75489776 0 1272.72750214 0 9501.32574568 0 -1972.18114583 0 2523.91425744 0 5475
0.07150000 0.07148790 27522.61552264 0 458.57844384 0 11409.67554024 0 -1596.99208474 0 1498.60326813 0 5509
0.07250000 0.07249820 26690.20461242 0 480.05877552 0 10262.58957929 0 605.54763115 0 -1717.27315450 0 5916
0.07350000 0.07351270 26339.02782700 0 -21.01227905 0 9827.24899875 0 951.14205679 0 -854.09555495 0 5721
0.07450000 0.07449140 26135.04431416 0 63.91483402 0 9278.66845946 0 2359.54111334 0 193.21423788 0 6028
0.07550000 0.07549160 26178.65306731 0 3.30083111 0 8668.83794346 0 163.02094322 0 -1968.44639115 0 6183
0.07650000 0.07648840 25945.23089996 0 294.96433370 0 7088.46551704 0 1193.66054870 0 -1412.47323452 0 6330
0.07750000 0.07749960 25367.88176508 0 139.04271973 0 6746.93318634 0 315.09795678 0 -1071.87788786 0 6583
0.07850000 0.07848650 24838.42536666 0 431.50147243 0 6200.02230209 0 -647.67895928 0 -1248.45159673 0 6549
0.07950000 0.07947320 23878.26387732 0 577.14262491 0 5771.59101770 0 710.38329341 0 -1705.17914009 0 6828
0.08050000 0.08048110 24256.13317412 0 47.78607625 0 5881.64545039 0 434.95612050 0 254.05998232 0 7147
0.08150000 0.08149960 23795.55004579 0 -89.24591747 0 5296.91468274 0 434.16962511 0 -1882.33832668 0 7386
0.08250000 0.08250610 23495.34167714 0 265.75855212 0 4633.85292801 0 366.73203866 0 -2094.07694776 0 7227
0.08350000 0.08350160 22937.21554428 0 622.67148135 0 4889.29916339 0 68.89809522 0 527.67909458 0 7798
0.08450000 0.08449610 22383.04385755 0 498.90061287 0 5763.58326429 0 -380.77691316 0 -391.32539821 0 7371
0.08550000 0.08548940 22220.25249190 0 -53.10700321 0 5033.05426476 0 552.30650630 0 -509.82477030 0 8256
0.08650000 0.08650700 22097.11543326 0 186.23134509 0 5695.01756223 0 360.84760313 0 -159.00718040 0 8037
0.08750000 0.08749060 21652.02055226 0 481.08912843 0 5546.14365004 0 -378.96775406 0 342.53082835 0 8155
0.08850000 0.08849210 20862.22978366 0 920.42040419 0 7417.06900581 0 -1785.78393369 0 -1112.10009728 0 8718
0.08950000 0.08949900 19918.65499893 0 894.96036186 0 6685.48548732 0 -594.05337440 0 -749.89370253 0 8571
0.09050000 0.09049190 19652.93818818 0 5.76358326 0 8146.18099547 0 257.83977374 0 -1519.89136979 0 8932
0.09150000 0.09150830 18940.03942766 0 -54.87079603 0 7445.26640363 0 1034.82582609 0 35.95052884 0 9285
0.09250000 0.09250820 19531.44881543 0 7.13292008 0 7077.56882104 0 816.54589203 0 -1441.36266041 0 9204
0.09350000 0.09350330 19039.12027234 0 474.20289988 0 6654.03665602 0 167.88710888 0 -456.30683423 0 9349
0.09450000 0.09448040 18681.57243482 0 617.50214149 0 6456.65487131 0 159.48281239 0 105.37994783 0 9564
0.09550000 0.09549270 18197.81185833 0 -322.59492757 0 6043.59100396 0 1164.90293768 0 2162.73052640 0 10155
0.09650000 0.09649430 18453.97209093 0 -254.49606985 0 5750.09420916 0 1448.19506455 0 619.87371071 0 9913
0.09750000 0.09749140 17982.07485284 0 450.77610194 0 4855.36781869 0 188.37553365 0 1561.96228278 0 10476
0.09850000 0.09850240 17656.93150443 0 -29.75852527 0 4315.78364435 0 377.71661124 0 2470.21068209 0 10575
0.09950000 0.09950330 17672.96898040 0 185.76779612 0 4817.94337990 0 422.28321912 0 1975.78408563 0 10882
0.10050000 0.10051200 17498.75365926 0 365.15575249 0 4112.47019044 0 -401.26643640 0 1529.30514849 0 10875
0.10150000 0.10150300 17646.05677757 0 -68.63973807 0 4557.67491716 0 -139.12290711 0 595.94052397 0 11118
0.10250000 0.10250800 16761.68883905 0 518.56299779 0 4824.39132401 0 -1150.74382362 0 -248.84780263 0 11575
0.10350000 0.10349800 15881.60488383 0 640.95640086 0 5219.34163117 0 -692.29170237 0 493.34241915 0 11364
0.10450000 0.10450100 15950.14861674 0 271.70120589 0 5953.78113853 0 -50.54979472 0 -406.63899085 0 12093
0.10550000 0.10551000 15453.97547324 0 288.24616911 0 6341.99790270 0 25.97412033 0 -1230.10736052 0 12067
0.10650000 0.10649700 15064.57237523 0 436.83997470 0 5880.82160745 0 90.27670976 0 -1075.26223467 0 12054
0.10750000 0.10749900 14824.66931005 0 -189.38281896 0 5786.28837581 0 761.69992114 0 -30.73362578 0 12807
0.10850000 0.10850100 15085.44306314 0 47.05692033 0 5685.68067554 0 153.26993814 0 -843.10988391 0 12736
0.10950000 0.10950300 14845.32030651 0 230.75731005 0 5412.68109317 0 64.46790725 0 72.18753532 0 12933
0.11050000 0.11050200 14226.88887018 0 107.28675978 0 5075.74031381 0 127.94280914 0 643.69815018 0 13428
0.11150000 0.11150900 14865.97130296 0 -138.73295479 0 4956.08536469 0 1166.68243844 0 455.03372227 0 13453
0.11250000 0.11250000 14841.03632320 0 -177.63591704 0 4421.46621715 0 797.71723617 0 215.61287983 0 13668
0.11350000 0.11349100 15078.96216531 0 11.75063667 0 3966.05682250 0 -106.52937351 0 866.12585884 0 13791
0.11450000 0.11448600 14636.83311891 0 287.52777806 0 4174.20348835 0 -90.44719033 0 923.26650695 0 14205
0.11550000 0.11549300 14824.33977288 0 22.47520442 0 4365.97215647 0 -121.94633097 0 173.11906080 0 14776
0.11650000 0.11649800 14062.12028146 0 271.75612875 0 4250.67808266 0 -580.33144633 0 76.97757789 0 14553
0.11750000 0.11747300 14346.18132841 0 371.07973249 0 4829.46619654 0 -443.96786385 0 -146.87801536 0 14568
0.11850000 0.11849100 14042.56774226 0 -61.32884594 0 4795.17236094 0 393.25978144 0 -297.92687292 0 16015
0.11950000 0.11950300 13993.79624000 0 -218.37659829 0 4379.96650194 0 198.05184364 0 -988.44786219 0 15270
0.12050000 0.12050700 13962.38036242 0 384.23485661 0 4410.93201205 0 -66.38185918 0 -783.40983039 0 15999
0.12150000 0.12150000 13614.05956587 0 283.46678158 0 4192.64658571 0 159.79257734 0 -237.03609173 0 15670
0.12250000 0.12250700 13546.50444449 0 58.03633016 0 4537.23262759 0 560.70970433 0 -409.05449836 0 16887
0.12350000 0.12352200 13217.73618713 0 -24.02699499 0 3809.32894091 0 401.97054750 0 145.89269920 0 16407
0.12450000 0.12449800 13432.59442682 0 5.00549397 0 3360.91671900 0 546.08594285 0 -12.19759893 0 16306
0.12550000 0.12549900 13293.96912084 0 -15.20912935 0 3225.21330933 0 344.03241942 0 120.76439096 0 17523
0.12650000 0.12650100 13390.63335956 0 225.44407229 0 3400.24148884 0 -261.67558649 0 -173.19485435 0 17154
0.12750000 0.12750600 12753.52814984 0 293.01347361 0 2976.57750895 0 -344.95841889 0 160.24074790 0 18007
0.12850000 0.12850300 12594.14200169 0 39.70516559 0 3468.33485427 0 31.69763187 0 248.85768874 0 17496
0.12950000 0.12949900 12592.05493290 0 -85.06738606 0 2990.63776185 0 324.60839972 0 -465.86231392 0 18405
0.13050000 0.13049000 12539.98805886 0 232.61260435 0 3398.39608064 0 124.30032487 0 -128.47995474 0 18100
0.13150000 0.13148800 12505.16696378 0 106.93228763 0 3042.35312956 0 -227.43777221 0 -547.60510924 0 19059
0.13250000 0.13249300 12230.66249497 0 108.14696166 0 2941.55869156 0 303.40268235 0 -408.92597886 0 18957
0.13350000 0.13349100 12194.52325118 0 38.65536999 0 3241.64622991 0 -187.98667979 0 -618.86972078 0 19468
0.13450000 0.13450700 11774.69288712 0 473.66904965 0 3322.29496180 0 -156.83443194 0 -674.62521428 0 19953
0.13550000 0.13551000 11748.11022147 0 65.43707609 0 3531.45220832 0 -370.45580876 0 -698.18053173 0 19956
0.13650000 0.13649900 11438.89450331 0 114.02096185 0 3623.62375685 0 70.15527955 0 -942.71469270 0 19723
0.13750000 0.13749600 11291.04215636 0 128.92592839 0 3420.93642358 0 328.35853280 0 -113.17514976 0 20946
0.13850000 0.13851100 11343.21887612 0 -67.12694274 0 3320.31773874 0 749.13906239 0 46.22670633 0 20955
0.13950000 0.13949800 11389.68361814 0 16.92634758 0 3518.45745896 0 -119.27048909 0 -254.51913745 0 20506
0.14050000 0.14048300 11207.22986757 0 367.01324372 0 3209.48340139 0 59.91392315 0 43.01316962 0 21447
0.14150000 0.14148400 11107.05056563 0 4.88456481 0 3499.04771921 0 -350.92963254 0 406.93886968 0 21771
0.14250000 0.14249400 10959.65957073 0 11.84268739 0 3345.31862593 0 489.82845438 0 562.14099414 0 22470
0.14350000 0.14350900 11169.77247506 0 -60.72205816 0 3069.89145303 0 555.46676784 0 772.24950464 0 22519
0.14450000 0.14449900 10975.90575358 0 -119.24742149 0 2813.12706894 0 335.32604719 0 1159.22391365 0 22218
0.14550000 0.14550500 11021.15120804 0 275.73913477 0 2782.51306515 0 -18.60391151 0 832.34280586 0 23559
0.14650000 0.14650700 10683.97975265 0 186.20058828 0 2899.69648545 0 -217.74168999 0 1652.79371345 0 23044
0.14750000 0.14750500 10455.50064296 0 235.41367036 0 3054.46911312 0 144.93264755 0 1373.08255724 0 23649
0.14850000 0.14849900 10469.09954382 0 90.72059634 0 3093.18973147 0 310.48553476 0 1431.12503876 0 23640
0.14950000 0.14949500 10138.22224852 0 166.34157951 0 3002.57799225 0 -281.82129260 0 1358.49504485 0 24457
0.15050000 0.15050000 10031.97946252 0 267.54574208 0 3326.51303767 0 -139.06578734 0 1630.49503111 0 24591
0.15150000 0.15149900 9807.53169096 0 -59.20388038 0 3008.07027854 0 487.74687787 0 1447.43712904 0 25020
0.15250000 0.15250500 9873.90047850 0 -201.01987515 0 2902.29982915 0 555.28332547 0 1430.81747073 0 25297
0.15350000 0.15350100 9934.75501060 0 272.60413775 0 2751.15211043 0 -449.35579670 0 673.77610682 0 25452
0.15450000 0.15450400 9689.56836601 0 342.24303255 0 3001.64430358 0 -501.70607271 0 1127.57736005 0 26061
0.15550000 0.15549900 9169.53673086 0 183.69171191 0 3285.25498306 0 -281.60489652 0 1038.41338749 0 26128
0.15650000 0.15649500 9253.86529457 0 -20.99030990 0 3275.05031513 0 263.63303732 0 939.24686314 0 26331
0.15750000 0.15749700 9119.62283306 0 1.61821428 0 3056.78685794 0 649.90003986 0 632.04571559 0 27345
0.15850000 0.15849900 9293.23400270 0 61.47494076 0 2998.67846898 0 155.88536487 0 839.04559205 0 26980
0.15950000 0.15949700 8899.51396767 0 128.05924561 0 2817.87240429 0 -304.24959290 0 978.63863887 0 27777
0.16050000 0.16050000 8995.56307032 0 164.22155701 0 2779.72298372 0 -40.42926861 0 615.33927915 0 28224
0.16150000 0.16150500 8847.18346389 0 -12.63511446 0 2916.90931069 0 88.57651762 0 672.64140048 0 28075
0.16250000 0.16249700 8636.35656234 0 148.32578202 0 2815.99404238 0 146.11898139 0 482.71264826 0 28590
0.16350000 0.16349900 8668.53037543 0 97.78620296 0 2776.52647310 0 109.40458538 0 600.11356309 0 29163
0.16450000 0.16449100 8430.53862588 0 -31.02845171 0 2502.87880095 0 34.32997484 0 655.88773037 0 28996
0.16550000 0.16550500 8481.12258262 0 160.66914623 0 2810.67750925 0 182.96123783 0 484.60748703 0 30777
0.16650000 0.16650700 8573.98615922 0 112.87636939 0 2398.56929972 0 -330.81138786 0 560.29229057 0 29211
0.16750000 0.16749900 8232.19019878 0 -59.36084992 0 2626.22456647 0 153.34353478 0 18.46232037 0 30922
0.16850000 0.16850800 8116.50068035 0 192.86932230 0 2751.85512308 0 -228.03972679 0 348.59870624 0 30867
0.16950000 0.16949900 8013.27865181 0 168.41546682 0 2865.69923331 0 -18.98804201 0 -35.68360372 0 30852
0.17050000 0.17049200 7901.66440981 0 252.94724512 0 3218.51272005 0 -158.41840731 0 219.28941627 0 31257
0.17150000 0.17149500 7827.79315920 0 -35.12229206 0 3040.15621505 0 278.22494354 0 629.88285325 0 32608
0.17250000 0.17250900 7770.22301430 0 -168.67470273 0 2815.55465948 0 459.10130949 0 544.17023339 0 32361
0.17350000 0.17350400 8030.74412221 0 -52.33742406 0 2467.78309155 0 229.91479333 0 419.04936095 0 32508
0.17450000 0.17449800 7818.01688960 0 137.53893175 0 2482.39257309 0 249.04003265 0 742.64168771 0 32791
0.17550000 0.17549800 7787.72143842 0 119.33090424 0 2357.54192113 0 82.25225980 0 1252.80148747 0 33633
0.17650000 0.17650100 7740.37793060 0 76.05740024 0 2295.13856429 0 18.40761719 0 887.61387972 0 33984
0.17750000 0.17750300 7768.30071410 0 13.54079247 0 2123.94400061 0 55.73901665 0 613.40928975 0 34069
0.17850000 0.17849800 7630.21365218 0 56.90250258 0 2235.66808834 0 -71.59447825 0 321.44264591 0 34536
