### header ###
fiducial parameters:
Omega_m = 0.31
Omega_nu = 0
Omega_de = 0.69
Omega_k = 0
H_0 = 100
w_de = -1
zeff = 0
beta = 0
fgrowth = 0
b_1 = 2
gamma = 0.55
Lx = 3500 Ly = 3500 Lz = 3500
nx = 700 ny = 700 nz = 700
xoffset = -983.599254 yoffset = -42.9823471 zoffset = 800.977702
bins = 400 dk = 0.001
kx_ny = 0.628318531 ky_ny = 0.628318531 kz_ny = 0.628318531
############################
A(data) = 9.12125211 (not used)
A(ran) = 9.14510245 (used)
Ngal = 508289
weighted Ngal = 0
Nran = 25229228
weighted Nran = 0
SN(data) = 6661.54554
SN(ran) = 135.752745
SN(data+ran) = 6797.29828
############################
13 columns: k_central k_mean P_0(k) sigma^{lin}_{P_0(k)} P^img_1(k) sigma^{lin}_{P_1(k)} P_2(k) sigma^{lin}_{P_2(k)} P^img_3(k) sigma^{lin}_{P_3(k)} P_4(k) sigma^{lin}_{P_4(k)} N_modes
### header ###
0.00050000 0 0 0 0 0 0 0 0 0 0 0 0
0.00150000 0.00179520 95025.12079523 0 30048.29829626 0 40861.07216244 0 57371.54382655 0 -73903.43540720 0 3
0.00250000 0.00253879 97472.48356636 0 21957.06213285 0 37823.94768942 0 21537.34161451 0 23843.11324506 0 6
0.00350000 0.00331552 82292.57317902 0 -1014.90530371 0 -12453.10008974 0 113947.36521531 0 53725.54449535 0 7
0.00450000 0.00420575 64878.18103719 0 -12202.32229771 0 52277.00890905 0 47406.99865511 0 27108.49713632 0 24
0.00550000 0.00557378 40520.98979532 0 7903.98215462 0 36424.29345111 0 37391.81460407 0 36334.32980166 0 45
0.00650000 0.00659388 48350.02421122 0 2158.65524997 0 4847.31612699 0 57646.92706116 0 40414.76897846 0 40
0.00750000 0.00754703 82609.03871509 0 -12959.81842292 0 9006.25105944 0 25338.00372766 0 22141.49310649 0 57
0.00850000 0.00846663 84925.24568959 0 -13154.46504906 0 -7861.10936784 0 69.42821069 0 -12355.33739377 0 75
0.00950000 0.00948925 83330.28575078 0 14757.55357158 0 1199.16381956 0 -30698.58499308 0 15892.04022778 0 112
0.01050000 0.01054430 73723.28841686 0 4729.39674032 0 24062.25546806 0 -27483.40059852 0 26280.37020941 0 105
0.01150000 0.01145670 61873.90043619 0 4105.97830804 0 28261.76741163 0 5451.93995558 0 9801.41328403 0 144
0.01250000 0.01249090 70945.39985677 0 -5756.08080121 0 33434.18294874 0 1415.84549830 0 908.00454180 0 169
0.01350000 0.01339930 67175.49454685 0 3411.54461402 0 32394.16361674 0 13223.99739350 0 -6761.50971416 0 180
0.01450000 0.01448870 65762.98835861 0 4765.75567557 0 43853.70911650 0 5139.90120226 0 19748.94335255 0 267
0.01550000 0.01550050 65566.91373804 0 4018.10172739 0 38335.27954308 0 4084.31673091 0 26984.81084905 0 238
0.01650000 0.01653350 62792.54024117 0 857.24483191 0 43781.54047464 0 16025.39293892 0 21242.84522361 0 315
0.01750000 0.01747870 69535.52996595 0 -2603.44256293 0 31927.64881921 0 17027.29580407 0 30189.88943684 0 297
0.01850000 0.01844180 75545.95854528 0 -2971.73331244 0 50637.01222265 0 11711.42174905 0 35328.58233612 0 388
0.01950000 0.01947590 79499.63575449 0 -4227.06125161 0 26246.97710876 0 5447.73286428 0 27347.74112714 0 399
0.02050000 0.02045430 79855.09652322 0 -1062.48058602 0 28897.44462692 0 7015.76961570 0 28844.49898707 0 462
0.02150000 0.02154770 78028.25225722 0 110.24007197 0 39606.85366510 0 -2672.56847819 0 28867.23705232 0 571
0.02250000 0.02255340 75520.58418262 0 4938.41118740 0 35801.90756865 0 -4399.67282515 0 25301.53494669 0 510
0.02350000 0.02348930 75965.12983499 0 9834.71850810 0 52093.89608412 0 -249.78258976 0 9512.89250061 0 555
0.02450000 0.02439640 64143.86236012 0 7373.60305211 0 52099.93759904 0 -7399.46073596 0 21132.77980634 0 592
0.02550000 0.02547300 64193.18309101 0 -727.86524067 0 52470.11769503 0 11887.72413898 0 16505.30891500 0 837
0.02650000 0.02652900 62067.77814225 0 -5415.95449580 0 43230.77400541 0 18545.36373481 0 24459.56745833 0 723
0.02750000 0.02749970 63235.21851620 0 -691.94678679 0 35386.36118789 0 9437.52734813 0 12911.37645784 0 826
0.02850000 0.02848090 65059.31663905 0 2349.52318314 0 25366.23407919 0 4747.79589940 0 17359.68897038 0 831
0.02950000 0.02946900 67563.03026752 0 506.60189671 0 27210.10443270 0 59.45696493 0 11541.81994839 0 996
0.03050000 0.03053250 60671.74881289 0 1396.69938829 0 19089.75915194 0 -4339.81788915 0 4210.55143902 0 1041
0.03150000 0.03150510 61073.12509501 0 2149.74676160 0 26222.37166618 0 1122.71119439 0 4149.42229260 0 1036
0.03250000 0.03246190 56533.42093859 0 216.63444508 0 16386.34599394 0 5974.30032011 0 156.22368971 0 1059
0.03350000 0.03345080 56709.50363707 0 1086.42256041 0 22157.09119955 0 5238.18017315 0 2219.03744545 0 1302
0.03450000 0.03451200 54953.72955567 0 324.06466338 0 13248.49299036 0 1447.94241938 0 -7603.40031051 0 1339
0.03550000 0.03553350 54109.01592416 0 -141.66254030 0 15204.62567564 0 -2165.27894723 0 -359.93039132 0 1365
0.03650000 0.03647120 51832.90263958 0 3116.34521047 0 12474.73969773 0 -52.37982451 0 -6024.24717164 0 1308
0.03750000 0.03744890 52432.55045680 0 1755.23583735 0 15293.49086783 0 -3804.22111466 0 -4373.36477382 0 1579
0.03850000 0.03847530 50202.46253134 0 1133.27835322 0 15825.14418076 0 -1189.78299458 0 -5225.65776040 0 1662
0.03950000 0.03950240 47727.41863731 0 2765.84946855 0 19577.69386600 0 230.39921298 0 -4868.00007716 0 1683
0.04050000 0.04050350 44556.83160743 0 1056.29627165 0 22653.70372596 0 -823.06633432 0 -877.62780479 0 1822
0.04150000 0.04152450 43112.36031298 0 2039.25294601 0 21493.29347846 0 5947.72863904 0 -938.02098484 0 1887
0.04250000 0.04250150 42523.14783972 0 285.96357492 0 26772.14952388 0 -682.39679939 0 6322.55520923 0 1920
0.04350000 0.04349210 40502.97509628 0 1023.95768997 0 21602.26043847 0 735.63902269 0 3657.45624040 0 2005
0.04450000 0.04448520 40432.78367749 0 548.79363999 0 24975.73252393 0 3787.72228664 0 11111.22470321 0 2151
0.04550000 0.04548030 41721.49373273 0 -693.07050856 0 19643.82099294 0 6162.05961925 0 7976.28261135 0 2274
0.04650000 0.04648670 40240.22412014 0 -341.72126535 0 18991.00784443 0 1250.68146497 0 11009.94694401 0 2311
0.04750000 0.04749250 41458.74275659 0 515.46754524 0 17370.89323441 0 2205.19688399 0 7328.81894969 0 2568
0.04850000 0.04851840 40247.03455514 0 1058.37235587 0 19013.74590968 0 -3538.60316507 0 10562.39151875 0 2493
0.04950000 0.04949480 38478.07898664 0 1686.38453641 0 18238.67446834 0 592.11789271 0 5956.96666458 0 2644
0.05050000 0.05050630 37889.74527918 0 -200.00380219 0 17365.73048530 0 951.36284670 0 2540.86345294 0 2829
0.05150000 0.05149060 37439.37780335 0 1162.05793338 0 19490.69605116 0 -1371.50077879 0 -2233.91055672 0 2784
0.05250000 0.05249300 36648.59842322 0 1417.40530761 0 18152.00619067 0 -1086.59391975 0 -596.57323535 0 3055
0.05350000 0.05348950 33170.88274396 0 666.87889370 0 19458.73094495 0 -333.36639944 0 1619.18092135 0 3009
0.05450000 0.05448610 33914.42846199 0 223.39984333 0 19849.89157457 0 1905.09836107 0 -5568.56316268 0 3336
0.05550000 0.05550870 33161.32616582 0 -240.12275663 0 17577.07366176 0 4135.72453059 0 -940.66167609 0 3349
0.05650000 0.05647670 33941.23081909 0 54.82356237 0 13370.09220883 0 2329.61913762 0 -3226.98182551 0 3324
0.05750000 0.05747970 34991.02642069 0 -870.27692882 0 12497.36791725 0 -142.67861326 0 -4153.31083130 0 3639
0.05850000 0.05849280 34092.92776644 0 215.77105767 0 11386.38824637 0 1316.11656383 0 -1493.96777850 0 3846
0.05950000 0.05951020 33066.08992154 0 -116.41120485 0 9740.40496792 0 -1337.25088148 0 -4716.74251271 0 3787
0.06050000 0.06049470 33092.89227864 0 1454.86270011 0 11254.35368394 0 385.60133744 0 -5329.26424899 0 3930
0.06150000 0.06148310 32330.78263294 0 1000.47706762 0 11525.89231815 0 -445.34972308 0 -4108.02143854 0 4083
0.06250000 0.06249100 31438.06641926 0 -130.31987065 0 11130.88708813 0 -8.76494197 0 -4173.23684596 0 4303
0.06350000 0.06350600 31706.63921887 0 679.28377152 0 12337.87192336 0 -187.34078692 0 -7748.79211319 0 4470
0.06450000 0.06451750 29911.10098472 0 577.13383725 0 12491.54609378 0 -281.90367690 0 -2623.92879080 0 4479
0.06550000 0.06550280 30210.21089611 0 255.17162106 0 13208.28945471 0 697.55990338 0 -3734.93043082 0 4636
0.06650000 0.06648880 29369.56155646 0 -329.68986300 0 11392.42976129 0 2270.84068974 0 -3967.72647753 0 4653
0.06750000 0.06749660 30523.49090613 0 453.82761620 0 12439.25952829 0 208.63547932 0 -3578.38928696 0 5220
0.06850000 0.06852730 29649.22877438 0 426.84401365 0 10813.87232343 0 -172.88838477 0 -1640.34819272 0 5029
0.06950000 0.06949320 29731.72291447 0 -361.31884129 0 11103.97488530 0 1232.01867615 0 -2615.21802474 0 5040
0.07050000 0.07048030 29394.49653622 0 235.80252423 0 10404.15875072 0 -44.08910851 0 -3401.77932900 0 5475
0.07150000 0.07148790 29135.70000621 0 361.58356949 0 10731.56492108 0 -15.37192072 0 -912.73449876 0 5509
0.07250000 0.07249820 28278.13442478 0 180.57538866 0 9663.27129925 0 1416.65835667 0 -1757.05927639 0 5916
0.07350000 0.07351270 29541.57996309 0 -197.80359230 0 9075.55272786 0 1965.81009373 0 -447.36099832 0 5721
0.07450000 0.07449140 29134.71139467 0 -416.62726269 0 8916.61694718 0 1465.02342975 0 -892.67447231 0 6028
0.07550000 0.07549160 28503.97723705 0 695.41571481 0 7996.76883922 0 -1077.42399856 0 -731.77794542 0 6183
0.07650000 0.07648840 27739.12144821 0 1190.10154718 0 8532.02509196 0 -2006.43104314 0 -999.58292342 0 6330
0.07750000 0.07749960 27091.80058600 0 443.31647870 0 9712.42726155 0 -870.59218605 0 -736.73857840 0 6583
0.07850000 0.07848650 26574.97644604 0 338.89163945 0 10563.50096058 0 1298.95866146 0 -2037.91282815 0 6549
0.07950000 0.07947320 26436.90036870 0 364.33300801 0 9754.12469907 0 758.34962650 0 -1428.12625045 0 6828
0.08050000 0.08048110 25637.77271340 0 413.47688728 0 10433.79512754 0 -614.68679554 0 -1025.60537586 0 7147
0.08150000 0.08149960 25094.69544498 0 256.04489458 0 10201.81193920 0 657.64636045 0 -1440.30814144 0 7386
0.08250000 0.08250610 24742.85958520 0 547.35685790 0 9989.10667573 0 -239.41535015 0 -1803.08463551 0 7227
0.08350000 0.08350160 24049.18382669 0 220.34613215 0 10573.26624561 0 408.02853928 0 -935.80649501 0 7798
0.08450000 0.08449610 23778.52395829 0 481.35495509 0 9898.06653818 0 841.35125384 0 -1267.91625935 0 7371
0.08550000 0.08548940 23145.04365752 0 469.45207224 0 9721.92891684 0 607.94116951 0 -218.92143309 0 8256
0.08650000 0.08650700 22701.59646241 0 -2.33689092 0 8514.94408160 0 1192.92458233 0 -496.38734266 0 8037
0.08750000 0.08749060 22051.96883995 0 864.27715527 0 9267.26647312 0 -198.55164169 0 136.67334743 0 8155
0.08850000 0.08849210 21378.50469499 0 696.62511625 0 9019.15793223 0 -93.91776603 0 291.02965980 0 8718
0.08950000 0.08949900 20579.70657687 0 79.10408130 0 9537.84944952 0 -198.48902963 0 205.73115833 0 8571
0.09050000 0.09049190 20086.05988507 0 283.64033782 0 8731.42803803 0 980.24568184 0 -488.22580524 0 8932
0.09150000 0.09150830 19595.70856504 0 221.49401999 0 8302.64524732 0 316.42049932 0 685.54497789 0 9285
0.09250000 0.09250820 19283.08762937 0 166.76668247 0 8584.22378087 0 396.05425671 0 566.40959904 0 9204
0.09350000 0.09350330 19737.29970561 0 392.24810231 0 8642.28823153 0 537.11923625 0 571.01543032 0 9349
0.09450000 0.09448040 18956.07690362 0 168.58682615 0 7461.60046305 0 470.04304224 0 1741.97745824 0 9564
0.09550000 0.09549270 19318.34810736 0 -305.88739267 0 7712.75173055 0 1149.50256692 0 1569.01437837 0 10155
0.09650000 0.09649430 18998.03797088 0 211.31132120 0 7164.37989815 0 170.96278920 0 1705.67344586 0 9913
0.09750000 0.09749140 18638.18337312 0 796.57154525 0 8024.70260729 0 -862.04948395 0 1199.17480413 0 10476
0.09850000 0.09850240 17930.66705316 0 735.80598819 0 8358.21620001 0 -608.72436954 0 2036.91323205 0 10575
0.09950000 0.09950330 17362.76465070 0 -100.82200928 0 8201.83982474 0 504.11389102 0 1443.51563663 0 10882
0.10050000 0.10051200 17548.29408160 0 -4.41339256 0 8185.92317907 0 1072.66658017 0 1186.55353024 0 10875
0.10150000 0.10150300 17255.33553085 0 167.94093328 0 7376.65676328 0 438.26467376 0 747.53970862 0 11118
0.10250000 0.10250800 16588.35228372 0 200.49151721 0 6938.22951784 0 -229.79835686 0 1045.74119586 0 11575
0.10350000 0.10349800 16904.70797406 0 112.30077779 0 5996.24749613 0 767.17023828 0 1060.23863475 0 11364
0.10450000 0.10450100 16483.99884419 0 -261.01211831 0 6079.37874143 0 1154.01722625 0 535.36719693 0 12093
0.10550000 0.10551000 16463.78723064 0 451.45055469 0 5561.51106708 0 32.57958320 0 142.10631703 0 12067
0.10650000 0.10649700 15994.74598142 0 480.18619656 0 6042.87700674 0 -788.17823334 0 758.57810561 0 12054
0.10750000 0.10749900 15301.18006863 0 297.14696827 0 5824.51468839 0 151.64971369 0 107.50952692 0 12807
0.10850000 0.10850100 15491.65255719 0 66.85375642 0 6120.28528972 0 -81.24200866 0 494.01797036 0 12736
0.10950000 0.10950300 14792.70420384 0 253.79305721 0 6276.23326666 0 -114.78878348 0 -564.30275802 0 12933
0.11050000 0.11050200 14925.17814917 0 242.92601955 0 6483.00686093 0 103.14898114 0 -59.49661924 0 13428
0.11150000 0.11150900 14622.99255746 0 -37.07018632 0 6000.45458743 0 315.69551753 0 128.98194971 0 13453
0.11250000 0.11250000 14831.58959078 0 73.30356790 0 5857.30363755 0 486.39357853 0 196.91603884 0 13668
0.11350000 0.11349100 14583.88747907 0 -143.42776111 0 5555.26084528 0 352.67068730 0 156.35660304 0 13791
0.11450000 0.11448600 14616.62150536 0 167.57185164 0 5464.98962781 0 207.19540186 0 639.18019548 0 14205
0.11550000 0.11549300 14664.73393327 0 49.76121225 0 4819.36038977 0 515.28959516 0 -158.16026986 0 14776
0.11650000 0.11649800 14328.27647510 0 221.14031675 0 4933.51206803 0 252.05419937 0 651.51587049 0 14553
0.11750000 0.11747300 14189.32163195 0 -49.91785226 0 4915.62918387 0 -130.78891190 0 694.14589822 0 14568
0.11850000 0.11849100 14382.21072648 0 -2.86471062 0 4368.44368530 0 626.84561893 0 263.86700872 0 16015
0.11950000 0.11950300 14058.60521823 0 100.08659215 0 4035.16076861 0 91.80554257 0 986.31026437 0 15270
0.12050000 0.12050700 14113.08869824 0 298.12129986 0 4438.90971841 0 -320.77917772 0 136.73156566 0 15999
0.12150000 0.12150000 13647.67235796 0 192.56834501 0 4603.23892423 0 -125.27245955 0 394.49444740 0 15670
0.12250000 0.12250700 13701.05738071 0 189.09172779 0 4685.52435743 0 -166.63706452 0 -550.98835759 0 16887
0.12350000 0.12352200 13148.64322559 0 -114.19012427 0 4798.67643960 0 177.37777959 0 707.86343246 0 16407
0.12450000 0.12449800 13447.75313698 0 49.14080359 0 4151.54231511 0 382.68163805 0 -792.24362366 0 16306
0.12550000 0.12549900 13357.24025891 0 229.96532236 0 3991.20050914 0 324.01303589 0 -17.98108624 0 17523
0.12650000 0.12650100 13257.28064842 0 239.86461917 0 4439.79946879 0 -172.04476960 0 -115.83890861 0 17154
0.12750000 0.12750600 12804.71625807 0 21.48230891 0 4220.89890639 0 460.86103802 0 316.98840172 0 18007
0.12850000 0.12850300 12784.39479880 0 28.62953090 0 3687.94941389 0 233.62208657 0 79.23380910 0 17496
0.12950000 0.12949900 12658.73128847 0 126.59170671 0 3658.37894450 0 346.11289747 0 440.34625027 0 18405
0.13050000 0.13049000 12429.81279587 0 328.61557180 0 3539.84442177 0 -119.66593370 0 756.15930273 0 18100
0.13150000 0.13148800 12139.60038827 0 229.69839725 0 4130.35307460 0 -284.91125287 0 293.80436283 0 19059
0.13250000 0.13249300 11911.23112431 0 147.04278395 0 4055.04284498 0 -96.63337207 0 826.41662896 0 18957
0.13350000 0.13349100 11742.28839800 0 86.27041645 0 4413.52437118 0 296.56698284 0 744.13229421 0 19468
0.13450000 0.13450700 11605.53046937 0 -1.63866755 0 3828.69474237 0 229.78847074 0 935.84933484 0 19953
0.13550000 0.13551000 12008.22490020 0 -43.00108659 0 4246.21834619 0 377.83744154 0 1040.31152163 0 19956
0.13650000 0.13649900 12020.52762149 0 1.10485028 0 3420.18947264 0 411.05259211 0 1794.64848377 0 19723
0.13750000 0.13749600 12051.72380762 0 -102.68356480 0 3551.51003785 0 262.42473434 0 1178.16131678 0 20946
0.13850000 0.13851100 11809.95336511 0 201.93049622 0 3426.70332419 0 -313.34481900 0 1129.85116657 0 20955
0.13950000 0.13949800 11493.48782904 0 578.47285665 0 4191.17465298 0 -506.02191128 0 1255.75633750 0 20506
0.14050000 0.14048300 11226.89225249 0 140.60802133 0 3991.77170691 0 -208.82331551 0 1344.67645255 0 21447
0.14150000 0.14148400 10911.87668000 0 28.45059221 0 4511.10032942 0 392.52820891 0 870.22639978 0 21771
0.14250000 0.14249400 10920.52153862 0 -1.85025239 0 4051.23119830 0 163.28896679 0 807.73736328 0 22470
0.14350000 0.14350900 10760.82782243 0 123.33917477 0 3793.90660101 0 415.36074148 0 999.66311079 0 22519
0.14450000 0.14449900 10704.19136620 0 211.92206344 0 3847.95069811 0 13.05022146 0 1091.99613254 0 22218
0.14550000 0.14550500 10677.74051543 0 74.87644885 0 3489.90855482 0 305.99064765 0 716.22379065 0 23559
0.14650000 0.14650700 10264.35809547 0 198.11884953 0 3532.74838789 0 -355.72659539 0 845.17608201 0 23044
0.14750000 0.14750500 9904.16297596 0 327.56764358 0 3613.14447461 0 -48.21744042 0 620.67009222 0 23649
0.14850000 0.14849900 9772.51287357 0 -35.69239138 0 3657.48919412 0 325.28724631 0 1286.02981953 0 23640
0.14950000 0.14949500 9852.09610192 0 -165.86484906 0 3154.40675447 0 715.69323579 0 511.57680963 0 24457
0.15050000 0.15050000 10082.64031126 0 48.96955410 0 2906.53987417 0 3.31494628 0 276.32790786 0 24591
0.15150000 0.15149900 9633.75575273 0 229.05140592 0 2658.71693216 0 -20.26247212 0 1093.68336289 0 25020
0.15250000 0.15250500 9661.50278307 0 60.94438590 0 2734.99380417 0 -112.38975282 0 883.48697580 0 25297
0.15350000 0.15350100 9521.01009975 0 136.76891321 0 2757.03984134 0 252.02124565 0 579.41643144 0 25452
0.15450000 0.15450400 9430.55214454 0 129.67068241 0 2793.84914406 0 21.56842795 0 515.40273626 0 26061
0.15550000 0.15549900 9306.84388813 0 9.26371846 0 2613.11997138 0 62.51616840 0 687.54636701 0 26128
0.15650000 0.15649500 9242.19967849 0 57.28092110 0 2605.10123339 0 -70.77404052 0 304.00573539 0 26331
0.15750000 0.15749700 9049.68405943 0 138.38144847 0 2860.23990074 0 -158.66116636 0 562.73306260 0 27345
0.15850000 0.15849900 9071.06003767 0 152.06712744 0 2801.58228315 0 165.88022747 0 433.73353758 0 26980
0.15950000 0.15949700 9164.17625945 0 -39.97769284 0 2657.01432341 0 82.10748313 0 179.69222903 0 27777
0.16050000 0.16050000 8995.98048408 0 6.16715646 0 2625.09315549 0 49.70804692 0 -94.65285363 0 28224
0.16150000 0.16150500 8779.25486705 0 209.19349561 0 2743.75949309 0 -231.04620430 0 247.10674788 0 28075
0.16250000 0.16249700 8757.16489159 0 21.21307703 0 2543.32399719 0 407.06299535 0 340.69970010 0 28590
0.16350000 0.16349900 8779.11206761 0 -148.77834641 0 2397.52576532 0 107.12363888 0 -299.53721126 0 29163
0.16450000 0.16449100 8708.59111163 0 230.37394846 0 2258.24138499 0 182.22417301 0 -8.56896621 0 28996
0.16550000 0.16550500 8665.56454083 0 139.46342886 0 2193.92671253 0 -50.42643797 0 418.89997076 0 30777
0.16650000 0.16650700 8494.55671489 0 -117.50416982 0 1876.69225638 0 316.65117535 0 276.98039147 0 29211
0.16750000 0.16749900 8505.35454973 0 93.46223581 0 1986.53798219 0 12.21143949 0 -39.81764761 0 30922
0.16850000 0.16850800 8363.73045544 0 244.11345185 0 1849.34067065 0 -77.57722571 0 364.71417267 0 30867
0.16950000 0.16949900 8425.67246023 0 43.44618147 0 2057.65210508 0 202.53574617 0 560.25164765 0 30852
0.17050000 0.17049200 8251.36926251 0 -61.42605941 0 2144.18856788 0 -227.12361344 0 354.83025427 0 31257
0.17150000 0.17149500 8240.08810647 0 142.75770218 0 2168.51939615 0 60.96690428 0 297.77967965 0 32608
0.17250000 0.17250900 8134.15288849 0 7.72498854 0 2034.14511976 0 70.24502351 0 294.42279427 0 32361
0.17350000 0.17350400 8184.35238519 0 -25.31295890 0 2278.02460021 0 99.96817846 0 698.72316961 0 32508
0.17450000 0.17449800 7993.46248287 0 132.94078967 0 2074.66720801 0 -80.78537998 0 471.48531662 0 32791
0.17550000 0.17549800 8112.63411081 0 109.96216228 0 2001.43306261 0 110.95516764 0 420.09509226 0 33633
0.17650000 0.17650100 7990.71633973 0 -34.39676104 0 2134.55509772 0 234.66342406 0 282.53309291 0 33984
0.17750000 0.17750300 7937.92448390 0 192.13445439 0 2249.93704812 0 -148.24449619 0 130.33964288 0 34069
0.17850000 0.17849800 7727.42711952 0 185.58545222 0 2238.15060174 0 -313.10535532 0 659.27097873 0 34536
