### header ###
fiducial parameters:
Omega_m = 0.31
Omega_nu = 0
Omega_de = 0.69
Omega_k = 0
H_0 = 100
w_de = -1
zeff = 0
beta = 0
fgrowth = 0
b_1 = 2
gamma = 0.55
Lx = 3500 Ly = 3500 Lz = 3500
nx = 700 ny = 700 nz = 700
xoffset = -983.599254 yoffset = -42.9823471 zoffset = 800.977702
bins = 400 dk = 0.001
kx_ny = 0.628318531 ky_ny = 0.628318531 kz_ny = 0.628318531
############################
A(data) = 9.06758261 (not used)
A(ran) = 9.06685813 (used)
Ngal = 503196
weighted Ngal = 0
Nran = 25229228
weighted Nran = 0
SN(data) = 6733.34102
SN(ran) = 134.591262
SN(data+ran) = 6867.93229
############################
13 columns: k_central k_mean P_0(k) sigma^{lin}_{P_0(k)} P^img_1(k) sigma^{lin}_{P_1(k)} P_2(k) sigma^{lin}_{P_2(k)} P^img_3(k) sigma^{lin}_{P_3(k)} P_4(k) sigma^{lin}_{P_4(k)} N_modes
### header ###
0.00050000 0 0 0 0 0 0 0 0 0 0 0 0
0.00150000 0.00179520 1562.21492795 0 1645.22534294 0 6106.63146600 0 4010.79698663 0 -14618.92826561 0 3
0.00250000 0.00253879 6699.99610770 0 -2691.39603559 0 -8683.17281068 0 19470.26474616 0 8869.46017709 0 6
0.00350000 0.00331552 7140.09300817 0 -13311.54443697 0 -4618.83701729 0 853.83851595 0 18753.52138522 0 7
0.00450000 0.00420575 43468.80969325 0 -27118.16356019 0 -33549.63080657 0 3212.11969881 0 -17964.60938243 0 24
0.00550000 0.00557378 61021.38775815 0 -12164.53536803 0 -38366.14619203 0 -25463.55739226 0 -17711.63467588 0 45
0.00650000 0.00659388 60642.20031264 0 16069.33122925 0 -17197.11729617 0 -32353.52069819 0 -10917.33601257 0 40
0.00750000 0.00754703 62306.14336727 0 14860.25932522 0 8281.79652856 0 -24903.78357352 0 -10198.90102746 0 57
0.00850000 0.00846663 50915.58098332 0 -4354.22964838 0 15315.24032154 0 -7772.23319108 0 -13762.57098716 0 75
0.00950000 0.00948925 54587.28421436 0 -9057.71378199 0 23836.41265579 0 889.64382873 0 -44201.04130152 0 112
0.01050000 0.01054430 74151.68674753 0 269.51637440 0 17521.05234160 0 -11645.62415929 0 -20315.85714347 0 105
0.01150000 0.01145670 60088.24831737 0 10489.62970997 0 28853.72602804 0 -12364.56443474 0 -18693.21608175 0 144
0.01250000 0.01249090 56886.13556418 0 -2554.80287554 0 30022.48455070 0 12729.36209016 0 274.35178325 0 169
0.01350000 0.01339930 76327.51088445 0 -13652.28587845 0 13962.92959105 0 13719.40161692 0 -34219.90942548 0 180
0.01450000 0.01448870 69908.23651364 0 -1840.50907429 0 9467.86673760 0 8762.56930130 0 6155.50182942 0 267
0.01550000 0.01550050 75786.08130191 0 4585.65262353 0 19083.49794557 0 -13231.46690286 0 403.12392762 0 238
0.01650000 0.01653350 73037.19201343 0 2619.26034745 0 14350.68500317 0 2031.14633144 0 -2577.22238818 0 315
0.01750000 0.01747870 87911.29190010 0 -2415.46357235 0 20968.01121762 0 5892.24556293 0 -19398.42564147 0 297
0.01850000 0.01844180 72740.05932511 0 -6151.31670726 0 9788.39656553 0 -6303.02463918 0 -5926.07804648 0 388
0.01950000 0.01947590 77772.42156180 0 8427.58377586 0 17162.95527545 0 -246.36638768 0 -14045.09419396 0 399
0.02050000 0.02045430 71683.34344278 0 5449.41350389 0 21373.89117450 0 -10231.34945487 0 -7050.60169535 0 462
0.02150000 0.02154770 72284.19956298 0 4818.61343883 0 33448.90227600 0 3616.01144805 0 -18615.11577070 0 571
0.02250000 0.02255340 65270.00074116 0 -841.67310181 0 33384.64252640 0 2498.61678679 0 330.12814745 0 510
0.02350000 0.02348930 63125.81217329 0 -433.67531934 0 24181.10854339 0 9986.81090006 0 5706.21084169 0 555
0.02450000 0.02439640 66254.54798163 0 -2474.62648027 0 31620.08078693 0 10464.43110047 0 5408.27627957 0 592
0.02550000 0.02547300 65099.63002043 0 3198.12535334 0 21603.35889573 0 4949.36280627 0 4039.17013760 0 837
0.02650000 0.02652900 60272.78913673 0 4714.33689132 0 23454.25937568 0 -4909.32403921 0 19724.55760141 0 723
0.02750000 0.02749970 58251.18839886 0 2816.67508588 0 18670.36817078 0 -1045.58191956 0 8881.66403723 0 826
0.02850000 0.02848090 54975.36916365 0 -403.50289537 0 32410.75032133 0 11199.32097531 0 14873.00142941 0 831
0.02950000 0.02946900 56116.77610058 0 720.83621268 0 29829.26591899 0 5172.56932112 0 11625.74208292 0 996
0.03050000 0.03053250 56479.70637867 0 -719.89813018 0 24830.40662867 0 -7043.15415514 0 7552.32204800 0 1041
0.03150000 0.03150510 50927.00493880 0 2886.58090579 0 23456.89567310 0 -741.47842147 0 10420.65757873 0 1036
0.03250000 0.03246190 53274.40809943 0 -1002.81019084 0 28857.35093700 0 6451.10766215 0 2206.83358531 0 1059
0.03350000 0.03345080 54804.99844292 0 -212.55587328 0 22328.56037755 0 7246.89600738 0 10083.05772502 0 1302
0.03450000 0.03451200 53902.50595964 0 1522.59357465 0 20781.16363801 0 1008.96594531 0 3415.38921443 0 1339
0.03550000 0.03553350 51801.81629918 0 2069.82301150 0 19555.61487511 0 -278.17002068 0 8721.94835189 0 1365
0.03650000 0.03647120 50583.40750846 0 -1527.19611056 0 17604.97447612 0 7159.42585591 0 5341.10561823 0 1308
0.03750000 0.03744890 51967.68334516 0 -1611.10726051 0 14286.53509929 0 1849.08802548 0 3643.25318805 0 1579
0.03850000 0.03847530 52868.19860538 0 1187.30048117 0 9841.16645221 0 905.24961100 0 3755.10909065 0 1662
0.03950000 0.03950240 48445.26045550 0 2008.89158739 0 12305.68712570 0 -5671.87306780 0 -2548.17917827 0 1683
0.04050000 0.04050350 46698.82326079 0 3610.59605377 0 18398.49999940 0 -6885.18501685 0 -1168.13240202 0 1822
0.04150000 0.04152450 41661.40812071 0 2402.76540644 0 15611.60408978 0 2551.95787124 0 -6352.11469405 0 1887
0.04250000 0.04250150 43586.56431132 0 -339.42329276 0 20669.34068914 0 3601.47885853 0 -1516.66190545 0 1920
0.04350000 0.04349210 42336.19041438 0 -1258.81004868 0 12810.42823581 0 5730.58560825 0 -4279.22698680 0 2005
0.04450000 0.04448520 42567.63535867 0 -60.39263082 0 15944.98586763 0 1302.35289439 0 -5505.31399375 0 2151
0.04550000 0.04548030 41225.43043496 0 2668.49320176 0 12975.63620744 0 -5368.55606512 0 -3614.26490101 0 2274
0.04650000 0.04648670 38322.31774744 0 2448.36236723 0 20821.47701939 0 -2937.32963111 0 -91.99282953 0 2311
0.04750000 0.04749250 36181.31470561 0 928.92905411 0 17863.66116041 0 2044.18501910 0 -1808.40116864 0 2568
0.04850000 0.04851840 37097.53790462 0 -703.04999275 0 21406.84489225 0 4575.66764705 0 -78.31374130 0 2493
0.04950000 0.04949480 37211.77745946 0 340.49428859 0 17957.24971880 0 2420.27481514 0 944.01526610 0 2644
0.05050000 0.05050630 35915.26835769 0 1299.57379753 0 19462.90508253 0 -2891.39214858 0 3339.12332699 0 2829
0.05150000 0.05149060 34216.28451653 0 1459.05880683 0 20356.28037057 0 -1341.61175679 0 5371.14842424 0 2784
0.05250000 0.05249300 34472.77428630 0 85.51896184 0 22469.49244377 0 1060.94384431 0 2066.71437746 0 3055
0.05350000 0.05348950 34504.30000961 0 -220.73278911 0 21867.09848341 0 3581.49792100 0 2951.41185316 0 3009
0.05450000 0.05448610 33847.09303207 0 88.69306393 0 19835.72147594 0 1106.24532009 0 4024.39588748 0 3336
0.05550000 0.05550870 34349.74707339 0 274.68241888 0 18206.05028777 0 449.52386066 0 4511.40789745 0 3349
0.05650000 0.05647670 34253.85175476 0 -332.59528245 0 20131.75570701 0 2372.68964672 0 5132.34381633 0 3324
0.05750000 0.05747970 34982.45845408 0 -102.89864273 0 17639.35618830 0 1991.33824041 0 5318.33459927 0 3639
0.05850000 0.05849280 34239.68165613 0 332.39756014 0 18522.29613239 0 -339.34640076 0 5892.58608468 0 3846
0.05950000 0.05951020 33406.06244293 0 871.24357120 0 16188.51384175 0 717.28819573 0 5312.94117414 0 3787
0.06050000 0.06049470 33550.28988092 0 519.43736977 0 17329.48139578 0 1453.29190623 0 4802.72974688 0 3930
0.06150000 0.06148310 32838.92896055 0 504.45111740 0 15404.32520517 0 1264.82959445 0 4529.55441135 0 4083
0.06250000 0.06249100 32488.19155803 0 -227.13240109 0 16027.58985344 0 1811.76244785 0 6313.94330433 0 4303
0.06350000 0.06350600 31575.81295943 0 -752.17080442 0 13902.29475040 0 1303.83581169 0 4953.52595927 0 4470
0.06450000 0.06451750 32962.83493927 0 596.47766957 0 13276.50365044 0 2179.07557040 0 4204.61976982 0 4479
0.06550000 0.06550280 32020.24876607 0 1233.34780943 0 12907.97124034 0 -1676.69614339 0 5719.64497396 0 4636
0.06650000 0.06648880 30458.46223645 0 527.06835234 0 13433.91257553 0 -1784.60858443 0 3961.73988548 0 4653
0.06750000 0.06749660 30530.74072404 0 348.07693904 0 14006.42849847 0 750.72743158 0 1876.06613574 0 5220
0.06850000 0.06852730 30097.39933570 0 362.38434483 0 14169.00017267 0 -472.15976938 0 -596.55016775 0 5029
0.06950000 0.06949320 28413.90374189 0 1192.25452341 0 14488.21185189 0 -620.01760861 0 1547.88006073 0 5040
0.07050000 0.07048030 28137.64174147 0 -317.74963260 0 14158.12544582 0 1953.76001761 0 1148.47001710 0 5475
0.07150000 0.07148790 28711.14627594 0 -498.20528943 0 12217.15147070 0 3204.29868313 0 984.47254537 0 5509
0.07250000 0.07249820 28973.01848628 0 381.77541081 0 12706.73387065 0 648.80158260 0 340.23834805 0 5916
0.07350000 0.07351270 27544.80435925 0 977.82578050 0 10296.07055652 0 -182.88324736 0 2902.26687543 0 5721
0.07450000 0.07449140 27515.58539618 0 -134.65877682 0 10522.06715281 0 1697.30320155 0 2672.27189473 0 6028
0.07550000 0.07549160 26812.46290525 0 -298.21576718 0 9270.00163169 0 1915.67650447 0 2811.23772245 0 6183
0.07650000 0.07648840 27319.73046706 0 428.85858426 0 8022.76932252 0 1061.18880028 0 2876.38722243 0 6330
0.07750000 0.07749960 26335.84230095 0 712.08809907 0 8650.88915186 0 -1389.36169381 0 1665.14037303 0 6583
0.07850000 0.07848650 25118.09258458 0 1115.69205251 0 8522.45752924 0 -1570.16775849 0 391.37592724 0 6549
0.07950000 0.07947320 23746.77854353 0 779.38618145 0 8673.93478514 0 -15.89983927 0 224.31595668 0 6828
0.08050000 0.08048110 23798.40603466 0 -37.37347037 0 8881.98258983 0 433.09313699 0 -1379.16801045 0 7147
0.08150000 0.08149960 22989.83164694 0 126.21273896 0 7888.28520040 0 335.17446009 0 -2605.17812540 0 7386
0.08250000 0.08250610 22369.97221618 0 718.03185130 0 7587.46169569 0 1087.74290604 0 -1943.41255024 0 7227
0.08350000 0.08350160 22744.65598693 0 155.07580187 0 8088.78660373 0 -370.74470302 0 -2401.93057893 0 7798
0.08450000 0.08449610 22170.82191528 0 245.58538457 0 6889.80952191 0 -356.40983580 0 -3459.53621163 0 7371
0.08550000 0.08548940 21366.42166515 0 309.70343319 0 7909.21081117 0 -60.51763526 0 -1973.78489342 0 8256
0.08650000 0.08650700 21192.09649828 0 -105.30272629 0 7450.58293676 0 556.80249186 0 -1758.01493421 0 8037
0.08750000 0.08749060 21730.12086332 0 -82.33541301 0 7544.74269292 0 825.72569934 0 -2314.84488750 0 8155
0.08850000 0.08849210 21372.90256297 0 338.32373705 0 7524.98144685 0 377.58809174 0 -2364.62697044 0 8718
0.08950000 0.08949900 20892.21766681 0 463.08102014 0 7191.88526789 0 -1206.71022092 0 -755.43432094 0 8571
0.09050000 0.09049190 20354.96222186 0 429.93726929 0 7717.61789621 0 764.03963510 0 -708.16550820 0 8932
0.09150000 0.09150830 20695.81350906 0 -160.93497289 0 7291.94373954 0 1828.78853535 0 674.94596380 0 9285
0.09250000 0.09250820 20535.32890364 0 -193.45260310 0 6733.33428548 0 1275.46266071 0 559.71120668 0 9204
0.09350000 0.09350330 20469.09193098 0 499.28067908 0 6537.58920208 0 -116.98130416 0 1149.54650521 0 9349
0.09450000 0.09448040 19568.35697931 0 444.38308069 0 6628.04715729 0 -623.71831111 0 2022.90790201 0 9564
0.09550000 0.09549270 19024.95017371 0 524.36614749 0 6979.31181930 0 -580.82794901 0 1446.18488777 0 10155
0.09650000 0.09649430 18710.79139788 0 437.48916294 0 8012.74040775 0 13.63328257 0 1492.70455265 0 9913
0.09750000 0.09749140 18369.83026496 0 146.66601311 0 7609.98006948 0 15.15980862 0 521.88912637 0 10476
0.09850000 0.09850240 17848.83198742 0 460.61058977 0 7528.57340208 0 617.61418413 0 1276.81376314 0 10575
0.09950000 0.09950330 17595.74743515 0 191.28315002 0 7442.61912163 0 -271.56719410 0 203.14319303 0 10882
0.10050000 0.10051200 17206.67387432 0 302.73482034 0 7108.12790196 0 408.49428515 0 779.79261064 0 10875
0.10150000 0.10150300 16772.78325736 0 249.12351540 0 7650.00785197 0 447.29838626 0 1512.63056731 0 11118
0.10250000 0.10250800 16618.12047541 0 -50.58318782 0 6581.84604502 0 389.55688202 0 921.95494898 0 11575
0.10350000 0.10349800 16653.93018203 0 -116.03333555 0 6901.58498371 0 1073.64420713 0 798.87830550 0 11364
0.10450000 0.10450100 16378.32725596 0 422.06572458 0 5681.72622941 0 89.94849073 0 1112.86901736 0 12093
0.10550000 0.10551000 15948.39108513 0 202.11943087 0 6146.71417135 0 392.86104146 0 1902.08858819 0 12067
0.10650000 0.10649700 16056.25958788 0 35.55826975 0 5921.34369570 0 -123.12607406 0 900.11652023 0 12054
0.10750000 0.10749900 15854.36314383 0 222.82974401 0 5829.85319067 0 320.18271543 0 700.71137725 0 12807
0.10850000 0.10850100 15310.40710960 0 135.47932439 0 5629.54950965 0 -497.46163386 0 787.22037861 0 12736
0.10950000 0.10950300 15223.73883194 0 390.23133478 0 6034.93516076 0 -111.15398841 0 1098.25733891 0 12933
0.11050000 0.11050200 15169.36519766 0 -24.76570750 0 5861.68648201 0 1.84175033 0 478.27268402 0 13428
0.11150000 0.11150900 14799.95402175 0 327.70604919 0 6211.95154791 0 585.79627119 0 11.32630263 0 13453
0.11250000 0.11250000 14498.64719584 0 47.78322027 0 5786.46412897 0 243.78501313 0 751.31730313 0 13668
0.11350000 0.11349100 14895.84934038 0 165.12009504 0 6015.44852900 0 -276.55968234 0 -23.17514139 0 13791
0.11450000 0.11448600 14467.23131826 0 64.10937080 0 5947.27827156 0 168.29573498 0 496.72676596 0 14205
0.11550000 0.11549300 14314.21622220 0 -15.13718040 0 5738.50548508 0 -275.99837068 0 -282.31449991 0 14776
0.11650000 0.11649800 14175.70076195 0 134.62911847 0 5324.27725304 0 289.39735231 0 -127.34195302 0 14553
0.11750000 0.11747300 14427.68685697 0 -89.03688105 0 5337.35987898 0 745.51964572 0 -702.17781769 0 14568
0.11850000 0.11849100 14424.94071382 0 47.79793959 0 4974.05612543 0 360.00618487 0 105.24055360 0 16015
0.11950000 0.11950300 14315.64421664 0 -131.18545497 0 4252.90795089 0 514.01648320 0 341.12480306 0 15270
0.12050000 0.12050700 14477.11743358 0 51.64946028 0 4289.55248502 0 637.09752052 0 -108.45991214 0 15999
0.12150000 0.12150000 14127.03910541 0 406.21938017 0 3954.36923728 0 -461.52560466 0 652.26501834 0 15670
0.12250000 0.12250700 13712.70102765 0 385.09275173 0 4526.87417564 0 -174.56572901 0 754.15351977 0 16887
0.12350000 0.12352200 13169.62375922 0 51.37638380 0 5108.69403156 0 -252.58804959 0 1282.05340426 0 16407
0.12450000 0.12449800 13153.80597471 0 219.97045977 0 4826.02802532 0 630.02784960 0 657.28496801 0 16306
0.12550000 0.12549900 13162.04440414 0 63.42063810 0 4751.69542266 0 526.30712146 0 1056.61372580 0 17523
0.12650000 0.12650100 13176.87357713 0 -85.88771394 0 4355.97619542 0 374.57831885 0 1637.11872838 0 17154
0.12750000 0.12750600 13298.03341270 0 -89.16594978 0 4389.95147842 0 545.55209262 0 1491.61707997 0 18007
0.12850000 0.12850300 13235.75088616 0 175.47195624 0 3796.74062073 0 -272.86007829 0 1622.27857082 0 17496
0.12950000 0.12949900 12812.95468751 0 250.68662008 0 3939.51809515 0 -213.16661551 0 1665.42597192 0 18405
0.13050000 0.13049000 12657.08360258 0 351.17898234 0 4243.16463501 0 -137.62900524 0 1479.76472615 0 18100
0.13150000 0.13148800 12254.38917175 0 223.92380744 0 4614.87158659 0 -181.89024200 0 717.10695029 0 19059
0.13250000 0.13249300 11867.84206261 0 298.47610155 0 4764.29472742 0 -227.43118147 0 958.54126488 0 18957
0.13350000 0.13349100 11703.40301107 0 169.89948257 0 4544.42752263 0 -40.78802475 0 590.11430667 0 19468
0.13450000 0.13450700 11582.46286695 0 9.62939488 0 4329.55829836 0 744.56728328 0 741.03574320 0 19953
0.13550000 0.13551000 11589.27330195 0 -126.93332692 0 4295.55006165 0 237.51392064 0 593.40967845 0 19956
0.13650000 0.13649900 11499.41949823 0 217.32976852 0 3538.68005708 0 299.03521630 0 642.01531366 0 19723
0.13750000 0.13749600 11503.59363581 0 108.99760696 0 3904.57616976 0 33.33048858 0 874.78499740 0 20946
0.13850000 0.13851100 11080.24820853 0 145.37971966 0 3534.58281151 0 -281.55876132 0 740.17125733 0 20955
0.13950000 0.13949800 11239.74420241 0 23.71931711 0 3982.87420312 0 484.68767441 0 843.74149683 0 20506
0.14050000 0.14048300 10985.23165570 0 -170.16530923 0 3416.31191852 0 144.85246017 0 503.69318189 0 21447
0.14150000 0.14148400 11266.65640523 0 111.30008322 0 3487.93133175 0 156.31486166 0 876.52605216 0 21771
0.14250000 0.14249400 11092.11154691 0 -32.29914706 0 2720.53810665 0 349.97727010 0 738.42031646 0 22470
0.14350000 0.14350900 11195.91575781 0 55.17012564 0 3070.37477422 0 419.33825521 0 1055.60644049 0 22519
0.14450000 0.14449900 11033.23423788 0 138.66375198 0 2692.85698374 0 -287.06642601 0 426.31016342 0 22218
0.14550000 0.14550500 10774.28392385 0 224.18963410 0 2991.70326539 0 -26.93768703 0 710.27125077 0 23559
0.14650000 0.14650700 10549.14412422 0 223.74695582 0 3156.99911360 0 -561.94876412 0 704.62408200 0 23044
0.14750000 0.14750500 10142.00094149 0 332.71611275 0 3563.16466936 0 -39.94012560 0 549.62407368 0 23649
0.14850000 0.14849900 9998.87196076 0 6.77995281 0 3655.35818704 0 189.85845095 0 572.54338437 0 23640
0.14950000 0.14949500 10138.77147715 0 8.33072181 0 3454.76890713 0 206.90101531 0 -163.77668182 0 24457
0.15050000 0.15050000 10167.67188761 0 112.86208944 0 3443.16919848 0 -267.10635917 0 227.15437024 0 24591
0.15150000 0.15149900 9896.97906549 0 119.88452670 0 3385.88465247 0 -51.86937142 0 329.98315109 0 25020
0.15250000 0.15250500 9864.29996206 0 43.85667495 0 3653.93019260 0 166.75020561 0 332.52168581 0 25297
0.15350000 0.15350100 9850.09690971 0 -29.28201451 0 3668.61656614 0 405.19451955 0 496.16106047 0 25452
0.15450000 0.15450400 9766.99861814 0 67.37640238 0 3238.69137988 0 247.32314396 0 579.36480394 0 26061
0.15550000 0.15549900 9791.09877038 0 73.97318744 0 3261.37452226 0 -10.05099376 0 268.79139261 0 26128
0.15650000 0.15649500 9680.80267709 0 174.40205887 0 3264.48315630 0 -38.33286294 0 554.37709824 0 26331
0.15750000 0.15749700 9396.49996954 0 169.07893500 0 3416.44373339 0 -14.62584855 0 1032.18293792 0 27345
0.15850000 0.15849900 9166.48301969 0 158.00099355 0 3177.19974257 0 -220.87888392 0 544.44155234 0 26980
0.15950000 0.15949700 9212.31065650 0 117.36686266 0 3393.07954751 0 248.15577456 0 497.30235756 0 27777
0.16050000 0.16050000 8933.56614267 0 95.20867300 0 3220.10548308 0 108.42750765 0 354.85551878 0 28224
0.16150000 0.16150500 9005.71281539 0 -40.61941157 0 3209.42847853 0 276.29934797 0 783.03415800 0 28075
0.16250000 0.16249700 8886.61807946 0 -1.49224320 0 2833.70117338 0 103.28453076 0 154.54854239 0 28590
0.16350000 0.16349900 8847.53497022 0 164.82461004 0 3025.37098035 0 -152.54056252 0 632.06109399 0 29163
0.16450000 0.16449100 8696.36528235 0 210.87962750 0 2872.43277630 0 -2.52690206 0 118.20388709 0 28996
0.16550000 0.16550500 8437.48087575 0 132.40034869 0 3114.15928053 0 -159.17963819 0 339.84400189 0 30777
0.16650000 0.16650700 8456.31941773 0 -50.50179213 0 2967.41637541 0 269.66796150 0 87.49014339 0 29211
0.16750000 0.16749900 8333.80847973 0 -16.19323721 0 2840.85213013 0 221.55773051 0 -189.40698502 0 30922
0.16850000 0.16850800 8377.91153865 0 13.89888953 0 2584.54909809 0 186.56088226 0 168.17160931 0 30867
0.16950000 0.16949900 8305.27056016 0 135.89014740 0 2314.82291836 0 100.82541450 0 -19.74938274 0 30852
0.17050000 0.17049200 8310.11475667 0 152.63502985 0 2549.45338869 0 -154.62763131 0 151.72111341 0 31257
0.17150000 0.17149500 8160.31814038 0 30.73505377 0 2349.13872310 0 34.55340105 0 -303.90248041 0 32608
0.17250000 0.17250900 8062.12704608 0 57.14328441 0 2389.28733589 0 152.86241050 0 -26.75775973 0 32361
0.17350000 0.17350400 7932.67385821 0 52.48747332 0 2167.54176919 0 223.15928119 0 38.02979858 0 32508
0.17450000 0.17449800 7952.91842547 0 9.50949827 0 2223.62899679 0 63.79784832 0 126.63894038 0 32791
0.17550000 0.17549800 7958.25692775 0 128.98744199 0 2224.50776259 0 34.85229127 0 -13.12151133 0 33633
0.17650000 0.17650100 7668.22027331 0 97.03145298 0 2067.91169587 0 -92.70342153 0 9.26305938 0 33984
0.17750000 0.17750300 7584.56176853 0 117.42727781 0 2170.02428259 0 25.10875570 0 285.84164617 0 34069
0.17850000 0.17849800 7613.58300929 0 22.17060222 0 2364.11069553 0 176.26504238 0 138.42318984 0 34536
