### header ###
fiducial parameters:
Omega_m = 0.31
Omega_nu = 0
Omega_de = 0.69
Omega_k = 0
H_0 = 100
w_de = -1
zeff = 0
beta = 0
fgrowth = 0
b_1 = 2
gamma = 0.55
Lx = 3500 Ly = 3500 Lz = 3500
nx = 700 ny = 700 nz = 700
xoffset = -983.599254 yoffset = -42.9823471 zoffset = 800.977702
bins = 400 dk = 0.001
kx_ny = 0.628318531 ky_ny = 0.628318531 kz_ny = 0.628318531
############################
A(data) = 9.0237232 (not used)
A(ran) = 9.03433327 (used)
Ngal = 501698
weighted Ngal = 0
Nran = 25229228
weighted Nran = 0
SN(data) = 6702.5217
SN(ran) = 134.108453
SN(data+ran) = 6836.63015
############################
13 columns: k_central k_mean P_0(k) sigma^{lin}_{P_0(k)} P^img_1(k) sigma^{lin}_{P_1(k)} P_2(k) sigma^{lin}_{P_2(k)} P^img_3(k) sigma^{lin}_{P_3(k)} P_4(k) sigma^{lin}_{P_4(k)} N_modes
### header ###
0.00050000 0 0 0 0 0 0 0 0 0 0 0 0
0.00150000 0.00179520 171195.66213749 0 -43194.19537871 0 -8727.93494395 0 128276.74014767 0 -108561.51943295 0 3
0.00250000 0.00253879 206055.20322438 0 41483.34819917 0 58488.01578372 0 -103829.36556490 0 75349.33469608 0 6
0.00350000 0.00331552 154623.23748402 0 69651.08766951 0 43286.46578840 0 -146455.10931253 0 104870.04397126 0 7
0.00450000 0.00420575 76615.19684035 0 40195.84644691 0 57224.35055396 0 28971.37080039 0 53832.09484939 0 24
0.00550000 0.00557378 62523.85759583 0 -7214.30478053 0 46433.65567868 0 66230.82130485 0 -26203.36835562 0 45
0.00650000 0.00659388 80924.88404692 0 2973.49084405 0 37271.86307148 0 42116.05957985 0 5209.89489875 0 40
0.00750000 0.00754703 62018.89679426 0 6534.79912065 0 21936.41113639 0 -14129.67540283 0 -14041.35943928 0 57
0.00850000 0.00846663 71806.59034714 0 1867.81672173 0 22037.35935842 0 12267.13127594 0 9582.50173706 0 75
0.00950000 0.00948925 55566.11947708 0 -5703.60749799 0 3691.02509421 0 14493.70413818 0 4060.64497700 0 112
0.01050000 0.01054430 63156.01974788 0 -3737.58869738 0 8249.79846863 0 23907.81237757 0 28823.51845344 0 105
0.01150000 0.01145670 87080.63852150 0 -2981.82813464 0 -2548.36591601 0 5897.08975944 0 844.81468957 0 144
0.01250000 0.01249090 77121.47579063 0 -4030.61315556 0 -25226.51031596 0 5468.23007672 0 23180.96320986 0 169
0.01350000 0.01339930 77724.63867107 0 5985.36178470 0 1217.67282436 0 -16206.63838651 0 -15075.11756491 0 180
0.01450000 0.01448870 67031.15726313 0 6618.29285684 0 10805.56798656 0 -8801.50961110 0 13272.76889576 0 267
0.01550000 0.01550050 64539.52666450 0 6662.90120609 0 9070.34604046 0 -2093.37393512 0 5219.90184437 0 238
0.01650000 0.01653350 60926.15151387 0 -8634.28047812 0 1068.04317357 0 7486.11802906 0 7551.35540562 0 315
0.01750000 0.01747870 67794.80474899 0 2637.43981507 0 11228.64978410 0 8837.74771605 0 -13611.53311417 0 297
0.01850000 0.01844180 66354.39774639 0 -298.06967237 0 -467.12224439 0 -7635.65101561 0 4891.88053795 0 388
0.01950000 0.01947590 70224.70204970 0 -110.67176567 0 7179.46171630 0 -6152.89848571 0 -13542.44015263 0 399
0.02050000 0.02045430 65190.80197285 0 -50.52881418 0 15179.14146725 0 -10774.65739931 0 -9070.26914845 0 462
0.02150000 0.02154770 65446.63266827 0 2907.50651656 0 16707.42505050 0 1024.06643724 0 -6592.36926555 0 571
0.02250000 0.02255340 65928.30617596 0 150.10857815 0 23136.80522808 0 -5266.86089216 0 -16444.45438290 0 510
0.02350000 0.02348930 64364.54242328 0 2195.67325957 0 24828.09986843 0 -6028.06980290 0 -11789.30236865 0 555
0.02450000 0.02439640 67781.18387898 0 3469.94958644 0 35649.00231831 0 -3272.91930805 0 -12463.75512515 0 592
0.02550000 0.02547300 60919.23123315 0 -396.10698266 0 33893.88731127 0 2562.66782951 0 -2698.53600777 0 837
0.02650000 0.02652900 66441.83494414 0 31.57449481 0 33445.16752132 0 3835.43926994 0 -15611.05486115 0 723
0.02750000 0.02749970 65094.35742559 0 1829.31579483 0 33239.86585977 0 2562.97539754 0 -10022.60962210 0 826
0.02850000 0.02848090 65613.15878861 0 -1256.88774848 0 32764.78309563 0 7673.77846704 0 16.74279537 0 831
0.02950000 0.02946900 60494.01842852 0 -183.64777362 0 28090.51792509 0 4800.90630783 0 -8153.35392136 0 996
0.03050000 0.03053250 60025.74609938 0 5002.42927641 0 27005.24215405 0 206.89991686 0 4868.37355262 0 1041
0.03150000 0.03150510 57322.88217001 0 3112.02827345 0 27972.76330702 0 4968.69565401 0 3637.57416403 0 1036
0.03250000 0.03246190 54210.73306627 0 -1470.87820693 0 20039.04591442 0 13322.41916383 0 10595.98234171 0 1059
0.03350000 0.03345080 55983.20369799 0 -2583.16504195 0 14928.80305813 0 5090.94296227 0 8204.60793703 0 1302
0.03450000 0.03451200 55565.02101982 0 2028.24640428 0 14653.85920642 0 732.65231740 0 10604.74803063 0 1339
0.03550000 0.03553350 52781.85986489 0 2941.96512074 0 16612.73803485 0 -4395.98200876 0 13293.74942939 0 1365
0.03650000 0.03647120 50683.36711895 0 2060.03575733 0 15458.80868518 0 -2641.39426120 0 6054.72936055 0 1308
0.03750000 0.03744890 49473.96567774 0 449.83472406 0 18182.98268535 0 3353.75477767 0 12212.53795021 0 1579
0.03850000 0.03847530 49327.10194233 0 -1101.03863269 0 17151.09193706 0 1978.56318250 0 5983.81295997 0 1662
0.03950000 0.03950240 48054.31951733 0 1790.26563931 0 16664.36552598 0 3990.40961991 0 7805.95582891 0 1683
0.04050000 0.04050350 48912.32448166 0 1321.90543358 0 14284.22833905 0 618.69616453 0 11362.77141532 0 1822
0.04150000 0.04152450 46196.60860237 0 521.36626071 0 16991.59594318 0 -1945.22500471 0 5792.24201415 0 1887
0.04250000 0.04250150 43096.32283701 0 2464.26802833 0 17427.13424603 0 -1531.55698587 0 7543.21583733 0 1920
0.04350000 0.04349210 42725.70335812 0 989.73086027 0 17570.04353531 0 -828.81236424 0 2611.59311579 0 2005
0.04450000 0.04448520 39475.47817702 0 402.91412228 0 14726.24753973 0 4383.32778115 0 610.05899511 0 2151
0.04550000 0.04548030 39948.14433520 0 1871.76018329 0 15510.98540494 0 1540.67418111 0 -1553.42726988 0 2274
0.04650000 0.04648670 37318.87704213 0 -1448.92004634 0 12256.25654909 0 105.54592472 0 -87.12600481 0 2311
0.04750000 0.04749250 39415.17287355 0 439.95629794 0 7229.16690723 0 4780.12349651 0 -3585.43039799 0 2568
0.04850000 0.04851840 37596.67688271 0 -361.91640204 0 7932.95945709 0 -104.54006741 0 -2347.40316063 0 2493
0.04950000 0.04949480 37159.05151107 0 355.49262399 0 5445.53594977 0 -2646.95245493 0 -4997.38735759 0 2644
0.05050000 0.05050630 36833.68847121 0 1645.45601897 0 9509.81682029 0 -2762.75181908 0 -8010.54349323 0 2829
0.05150000 0.05149060 36166.26584117 0 727.36983645 0 9748.14909159 0 426.45076595 0 -6176.01002642 0 2784
0.05250000 0.05249300 35848.81169357 0 -419.45798705 0 10061.44008618 0 94.06935313 0 -4354.39441697 0 3055
0.05350000 0.05348950 36756.13738879 0 -274.57586853 0 9671.24609895 0 1986.21942959 0 -5435.03469838 0 3009
0.05450000 0.05448610 36811.27994315 0 710.24928162 0 9793.40553062 0 -904.99586737 0 -6478.72287762 0 3336
0.05550000 0.05550870 35918.01450083 0 1287.01843107 0 10770.24160114 0 512.03376785 0 -183.33251638 0 3349
0.05650000 0.05647670 34733.21850221 0 199.62153906 0 11763.48862309 0 -505.06076117 0 364.43626299 0 3324
0.05750000 0.05747970 33345.42760228 0 -113.78149817 0 11578.50842082 0 995.34837069 0 124.20146372 0 3639
0.05850000 0.05849280 35118.44746263 0 -37.98388307 0 12152.01295529 0 2911.59277756 0 2559.52624175 0 3846
0.05950000 0.05951020 34016.58498700 0 -675.75223143 0 9868.52902251 0 2333.00238598 0 2507.22869169 0 3787
0.06050000 0.06049470 34546.37092260 0 515.35989643 0 7922.38131370 0 228.22426761 0 2994.18577880 0 3930
0.06150000 0.06148310 34205.51963540 0 799.35393749 0 9138.40645217 0 -1639.23875089 0 -303.83876989 0 4083
0.06250000 0.06249100 32240.15990915 0 2333.63949119 0 10655.82629313 0 -1595.49818287 0 3619.05417466 0 4303
0.06350000 0.06350600 32325.83957528 0 254.44883619 0 11825.00222954 0 -504.29623492 0 1437.00178509 0 4470
0.06450000 0.06451750 31392.48044304 0 -899.30695723 0 11496.01428073 0 2938.64777982 0 1086.75539296 0 4479
0.06550000 0.06550280 31082.38595907 0 129.68715927 0 10328.78261366 0 1013.24773171 0 -1131.42196045 0 4636
0.06650000 0.06648880 31127.64239811 0 781.91153469 0 10637.74568666 0 -926.80024395 0 3200.95937307 0 4653
0.06750000 0.06749660 31101.49911536 0 719.86737337 0 10549.51759969 0 -660.98896588 0 934.12036312 0 5220
0.06850000 0.06852730 28846.14667296 0 723.99427729 0 12547.78710539 0 -1653.49672610 0 1289.03959242 0 5029
0.06950000 0.06949320 29185.13058282 0 256.64135688 0 12670.81431831 0 573.17060347 0 1345.25863489 0 5040
0.07050000 0.07048030 28775.95525417 0 -135.42330307 0 11738.00441470 0 1632.02188670 0 -220.10557001 0 5475
0.07150000 0.07148790 29050.56956870 0 200.59587065 0 10864.74187905 0 2134.84069661 0 1081.06538437 0 5509
0.07250000 0.07249820 29075.72423991 0 355.06642258 0 11227.66117257 0 -208.38283415 0 -396.68586963 0 5916
0.07350000 0.07351270 27941.23758371 0 1080.97201550 0 10611.85504909 0 -905.81202112 0 2220.82793078 0 5721
0.07450000 0.07449140 26651.64876266 0 -92.44012133 0 10483.80788650 0 424.38896168 0 1296.71780865 0 6028
0.07550000 0.07549160 27002.82554809 0 257.79583545 0 11415.60720944 0 521.43436506 0 -4.70206712 0 6183
0.07650000 0.07648840 26848.82184050 0 682.30672589 0 9454.68525050 0 903.36355989 0 -109.21872641 0 6330
0.07750000 0.07749960 25303.18263258 0 174.15600445 0 9416.96422826 0 135.82204305 0 225.04093847 0 6583
0.07850000 0.07848650 25545.28261227 0 -54.81774055 0 10503.89866976 0 822.92353488 0 1251.81287594 0 6549
0.07950000 0.07947320 25029.22739240 0 826.66268338 0 9875.60308725 0 -149.92184042 0 -602.06881701 0 6828
0.08050000 0.08048110 24272.06080437 0 565.01785370 0 9472.62305753 0 -343.35796666 0 622.14202495 0 7147
0.08150000 0.08149960 23683.39755973 0 519.67134117 0 10127.35850624 0 1114.73639470 0 343.88302923 0 7386
0.08250000 0.08250610 23080.89375364 0 28.88755851 0 8860.14525954 0 984.07600230 0 2309.18783262 0 7227
0.08350000 0.08350160 22980.05537735 0 44.40238852 0 9164.96714867 0 1096.03076605 0 1441.83499703 0 7798
0.08450000 0.08449610 22860.98261057 0 786.48660917 0 8862.74860324 0 -16.92382113 0 2046.65654793 0 7371
0.08550000 0.08548940 22085.47178632 0 598.25607187 0 8450.33282567 0 88.58706281 0 3355.49034014 0 8256
0.08650000 0.08650700 21958.92951019 0 -436.17211269 0 9154.78444989 0 749.96949608 0 2617.67856900 0 8037
0.08750000 0.08749060 21141.45761868 0 401.30378394 0 8449.69572046 0 -187.18480599 0 1755.69718939 0 8155
0.08850000 0.08849210 20738.10411350 0 913.00911307 0 9822.48169425 0 -1002.71352660 0 810.19351371 0 8718
0.08950000 0.08949900 20293.88799831 0 238.98914874 0 8575.08461648 0 -253.94464431 0 978.48705177 0 8571
0.09050000 0.09049190 19846.92573997 0 238.40696639 0 9402.69526848 0 18.11707525 0 -998.23291944 0 8932
0.09150000 0.09150830 19073.72167597 0 582.36139534 0 9323.44157730 0 248.25134034 0 398.63123743 0 9285
0.09250000 0.09250820 19011.43914943 0 -245.43819130 0 9261.27988106 0 1169.95584107 0 707.62726415 0 9204
0.09350000 0.09350330 19109.75107404 0 -265.78601355 0 7230.10059590 0 1659.02196611 0 -997.07514549 0 9349
0.09450000 0.09448040 19259.14126114 0 109.31077713 0 6548.65066667 0 1054.03125279 0 133.14729963 0 9564
0.09550000 0.09549270 18898.62758902 0 25.65710556 0 5564.12539535 0 387.88612854 0 750.41107589 0 10155
0.09650000 0.09649430 18557.55661037 0 276.38173226 0 5065.97502879 0 702.63038208 0 1464.45223197 0 9913
0.09750000 0.09749140 17924.51569251 0 521.32451934 0 4563.74938580 0 251.14138138 0 1691.65713124 0 10476
0.09850000 0.09850240 17699.77133750 0 154.35741083 0 4326.25194202 0 307.05505274 0 569.76209059 0 10575
0.09950000 0.09950330 17444.59971643 0 202.84770803 0 4273.27334846 0 143.58264358 0 428.31484792 0 10882
0.10050000 0.10051200 16814.19509599 0 512.09308454 0 4416.81974295 0 80.76769481 0 1328.86965260 0 10875
0.10150000 0.10150300 16708.74319921 0 235.87941624 0 4467.88702088 0 -79.29719008 0 837.26059901 0 11118
0.10250000 0.10250800 16032.09352820 0 170.93972160 0 4558.14725378 0 -640.62686369 0 682.43195002 0 11575
0.10350000 0.10349800 15939.60342706 0 318.24723374 0 4915.13487810 0 -447.13251921 0 -102.22221275 0 11364
0.10450000 0.10450100 15438.04784300 0 162.88363607 0 5166.31909932 0 225.50888127 0 41.06933966 0 12093
0.10550000 0.10551000 15802.73565270 0 -12.40883226 0 5227.93156693 0 390.73882203 0 354.97305371 0 12067
0.10650000 0.10649700 15938.50496980 0 -153.36770084 0 5091.78877436 0 534.61475370 0 -140.00936212 0 12054
0.10750000 0.10749900 15796.03506342 0 256.84457147 0 5091.10773086 0 114.17364741 0 1055.94696224 0 12807
0.10850000 0.10850100 15289.42657597 0 -146.37931576 0 4952.63620890 0 425.24356143 0 1064.18099785 0 12736
0.10950000 0.10950300 15807.56886463 0 241.17617714 0 5488.21101424 0 -144.96340436 0 329.69535529 0 12933
0.11050000 0.11050200 15325.01659114 0 606.80536471 0 5476.05109240 0 -1163.85940328 0 821.80530539 0 13428
0.11150000 0.11150900 14637.82173045 0 169.96099618 0 5566.42117102 0 185.47450804 0 784.12822143 0 13453
0.11250000 0.11250000 14630.90144972 0 67.61850236 0 6503.72376482 0 -10.72765441 0 342.43196719 0 13668
0.11350000 0.11349100 14359.58250696 0 27.48098399 0 5394.84214730 0 795.78614831 0 573.38809800 0 13791
0.11450000 0.11448600 14640.12849069 0 -70.06289930 0 5046.29067472 0 804.85940527 0 261.50971944 0 14205
0.11550000 0.11549300 14765.79200102 0 -7.96171707 0 4928.10765832 0 -51.12110234 0 -58.62477371 0 14776
0.11650000 0.11649800 14567.30077447 0 348.41746079 0 4628.18488856 0 287.16748408 0 326.12976303 0 14553
0.11750000 0.11747300 14290.59939115 0 -191.36773123 0 4362.01771034 0 181.54312951 0 1603.04458423 0 14568
0.11850000 0.11849100 14069.04056218 0 132.95726652 0 4442.07327531 0 115.14907746 0 299.00006566 0 16015
0.11950000 0.11950300 14245.89218074 0 475.45623961 0 5084.05563526 0 -219.45528332 0 1001.86002531 0 15270
0.12050000 0.12050700 13533.10326594 0 81.55726589 0 4504.39974014 0 -247.06940033 0 500.01994082 0 15999
0.12150000 0.12150000 13680.84576716 0 101.49942787 0 5030.60470508 0 115.81803793 0 429.86806648 0 15670
0.12250000 0.12250700 13164.90039301 0 214.55177012 0 5152.95087449 0 74.76715235 0 985.50839057 0 16887
0.12350000 0.12352200 13228.61091399 0 156.91571778 0 5323.76097813 0 176.74396975 0 553.67957788 0 16407
0.12450000 0.12449800 13048.02454075 0 91.56058660 0 4708.54802157 0 62.17399896 0 383.09355952 0 16306
0.12550000 0.12549900 12994.41982655 0 99.14796042 0 4916.76059484 0 285.17598107 0 262.35443308 0 17523
0.12650000 0.12650100 12838.43889590 0 72.56232894 0 4556.48858332 0 -26.03761116 0 789.97201405 0 17154
0.12750000 0.12750600 12733.53622774 0 -16.66139969 0 4525.17156689 0 521.32781471 0 -6.15452420 0 18007
0.12850000 0.12850300 12740.01712557 0 169.74130473 0 4004.39298081 0 -310.84033645 0 -446.03516041 0 17496
0.12950000 0.12949900 12424.54020103 0 163.69649444 0 4086.92007461 0 171.77894294 0 -208.49817217 0 18405
0.13050000 0.13049000 12479.24337249 0 -207.91708828 0 3817.34767890 0 375.82287093 0 206.34190057 0 18100
0.13150000 0.13148800 12661.03804871 0 -202.16666453 0 2668.13071086 0 915.45977122 0 -683.83467994 0 19059
0.13250000 0.13249300 13029.79015026 0 -40.25790928 0 2717.31962688 0 163.47570453 0 -664.71163753 0 18957
0.13350000 0.13349100 12498.57622023 0 242.30429274 0 2656.92644683 0 -468.34592578 0 -422.22060705 0 19468
0.13450000 0.13450700 12279.32415151 0 230.44974201 0 2669.54772073 0 212.24500987 0 -274.40121383 0 19953
0.13550000 0.13551000 12296.56993046 0 73.09661855 0 2495.17861557 0 51.26368209 0 -785.85389779 0 19956
0.13650000 0.13649900 12301.84252530 0 125.82168818 0 2512.97362315 0 84.94358993 0 -1060.46711386 0 19723
0.13750000 0.13749600 11948.90820826 0 254.31482440 0 2784.68801052 0 -342.50446537 0 -444.89606023 0 20946
0.13850000 0.13851100 11603.55324630 0 367.12968019 0 2876.67282132 0 -21.54909511 0 -270.19412253 0 20955
0.13950000 0.13949800 11380.67626863 0 -112.03934496 0 3100.20887335 0 85.31640632 0 -61.82578801 0 20506
0.14050000 0.14048300 11325.53371427 0 75.11657160 0 3050.09725323 0 136.97542317 0 -395.92463875 0 21447
0.14150000 0.14148400 11072.66885345 0 419.61177106 0 3405.94248201 0 -170.62336591 0 251.13808601 0 21771
0.14250000 0.14249400 11149.56086151 0 -29.49895982 0 3295.05322180 0 285.92073509 0 565.89771796 0 22470
0.14350000 0.14350900 10937.10824322 0 -76.53995252 0 3648.70153605 0 340.02305043 0 548.98037773 0 22519
0.14450000 0.14449900 10882.95430039 0 376.42262859 0 3299.67772685 0 -247.85260035 0 483.96159416 0 22218
0.14550000 0.14550500 10821.06721847 0 7.71541000 0 3558.70493290 0 164.85207147 0 890.43142259 0 23559
0.14650000 0.14650700 10686.37438948 0 -87.64326833 0 3376.93222582 0 261.45479658 0 904.20717506 0 23044
0.14750000 0.14750500 10529.10826383 0 295.68492166 0 3224.76294185 0 174.31967458 0 696.40981863 0 23649
0.14850000 0.14849900 10435.40985971 0 176.66488083 0 3127.15402989 0 -258.14075103 0 1256.03095181 0 23640
0.14950000 0.14949500 10061.42910161 0 159.00498349 0 3254.02584321 0 181.47832053 0 700.63997753 0 24457
0.15050000 0.15050000 9900.04376124 0 147.72712282 0 3156.06542493 0 175.05014866 0 689.23249890 0 24591
0.15150000 0.15149900 9698.21322463 0 180.74455108 0 2988.49577020 0 268.93419205 0 1111.95729784 0 25020
0.15250000 0.15250500 9478.21420497 0 -3.64335205 0 2727.85383199 0 112.97852591 0 942.22258385 0 25297
0.15350000 0.15350100 9429.67337874 0 104.27292261 0 2534.97572203 0 220.91183764 0 557.04854629 0 25452
0.15450000 0.15450400 9303.02125687 0 190.74490596 0 2910.03296825 0 -205.34889521 0 742.41979934 0 26061
0.15550000 0.15549900 9126.11471545 0 174.42292956 0 2604.78268079 0 11.09057371 0 1046.55295577 0 26128
0.15650000 0.15649500 9013.58875393 0 54.67373280 0 2604.62889677 0 6.36431855 0 544.15595345 0 26331
0.15750000 0.15749700 8972.19888444 0 1.41452735 0 2706.88428293 0 350.14203869 0 999.56424964 0 27345
0.15850000 0.15849900 8941.24435891 0 113.51017923 0 2648.44635680 0 -3.36255342 0 842.31240394 0 26980
0.15950000 0.15949700 8795.24840473 0 97.34396407 0 2691.91231050 0 -87.76387894 0 950.61369885 0 27777
0.16050000 0.16050000 8762.96474591 0 100.10823176 0 3058.15992951 0 -143.86384864 0 561.35559720 0 28224
0.16150000 0.16150500 8604.77591617 0 -49.59864058 0 2707.45548070 0 7.30333474 0 815.67591389 0 28075
0.16250000 0.16249700 8644.08970144 0 4.99791462 0 2892.21599152 0 319.49398273 0 609.83161446 0 28590
0.16350000 0.16349900 8718.25753551 0 28.39182475 0 2491.60862948 0 -160.05071480 0 273.28627971 0 29163
0.16450000 0.16449100 8935.68616518 0 109.66041607 0 2535.19541348 0 351.26356355 0 618.91805289 0 28996
0.16550000 0.16550500 8581.91702063 0 -23.10253336 0 2464.76233409 0 -79.67418061 0 270.00518788 0 30777
0.16650000 0.16650700 8614.90369209 0 66.76895552 0 2477.17490111 0 -86.34104725 0 476.55140150 0 29211
0.16750000 0.16749900 8449.66276675 0 68.51154811 0 2350.23718036 0 224.55542037 0 310.50091316 0 30922
0.16850000 0.16850800 8409.42627738 0 91.15591495 0 2332.03574359 0 230.77598382 0 269.38455953 0 30867
0.16950000 0.16949900 8395.90426853 0 171.21543437 0 2239.57859617 0 -107.68780653 0 208.81562631 0 30852
0.17050000 0.17049200 8161.68022738 0 53.14566891 0 2181.11870090 0 203.23985727 0 623.25366369 0 31257
0.17150000 0.17149500 8123.82739027 0 14.50216226 0 2286.01038448 0 -39.03071283 0 382.88924647 0 32608
0.17250000 0.17250900 8055.39350308 0 100.77180979 0 2042.29567261 0 -211.44752990 0 156.49061482 0 32361
0.17350000 0.17350400 8030.78806050 0 29.98107271 0 2140.84925781 0 195.32217736 0 449.19761886 0 32508
0.17450000 0.17449800 8035.30271983 0 40.64072164 0 2093.48378084 0 298.74522358 0 244.62752984 0 32791
0.17550000 0.17549800 8058.33736854 0 99.29943768 0 1899.17767645 0 16.44895806 0 242.71841113 0 33633
0.17650000 0.17650100 7827.26589972 0 103.94821864 0 2027.85095967 0 -144.06266940 0 197.88268122 0 33984
0.17750000 0.17750300 7672.52622576 0 156.64989113 0 2069.84498065 0 45.80028522 0 293.51107475 0 34069
0.17850000 0.17849800 7618.13062234 0 -97.97733452 0 1995.38056312 0 239.21872630 0 582.17795298 0 34536
