### header ###
fiducial parameters:
Omega_m = 0.31
Omega_nu = 0
Omega_de = 0.69
Omega_k = 0
H_0 = 100
w_de = -1
zeff = 0
beta = 0
fgrowth = 0
b_1 = 2
gamma = 0.55
Lx = 3500 Ly = 3500 Lz = 3500
nx = 700 ny = 700 nz = 700
xoffset = -983.599254 yoffset = -42.9823471 zoffset = 800.977702
bins = 400 dk = 0.001
kx_ny = 0.628318531 ky_ny = 0.628318531 kz_ny = 0.628318531
############################
A(data) = 9.05088992 (not used)
A(ran) = 9.04152682 (used)
Ngal = 501285
weighted Ngal = 0
Nran = 25229228
weighted Nran = 0
SN(data) = 6757.17896
SN(ran) = 134.215237
SN(data+ran) = 6891.3942
############################
13 columns: k_central k_mean P_0(k) sigma^{lin}_{P_0(k)} P^img_1(k) sigma^{lin}_{P_1(k)} P_2(k) sigma^{lin}_{P_2(k)} P^img_3(k) sigma^{lin}_{P_3(k)} P_4(k) sigma^{lin}_{P_4(k)} N_modes
### header ###
0.00050000 0 0 0 0 0 0 0 0 0 0 0 0
0.00150000 0.00179520 93580.64950079 0 -25971.70371988 0 -50770.14524234 0 63338.91288136 0 -65307.78767084 0 3
0.00250000 0.00253879 111508.79010225 0 14211.29077711 0 9008.49191225 0 -26222.04212901 0 60860.02438693 0 6
0.00350000 0.00331552 97109.33359682 0 19906.79166054 0 71036.90134637 0 -134580.78635210 0 65649.29803240 0 7
0.00450000 0.00420575 59331.85064942 0 25587.24367953 0 20923.85323585 0 21521.41398427 0 2208.18468774 0 24
0.00550000 0.00557378 43527.13777365 0 1661.25183434 0 37427.62431068 0 29784.77840004 0 -690.59678282 0 45
0.00650000 0.00659388 49970.02897551 0 -5842.01311252 0 27322.14707303 0 52160.35274823 0 5335.05311874 0 40
0.00750000 0.00754703 44571.99031759 0 -4258.76272808 0 19952.26779103 0 20846.30215342 0 27868.62955895 0 57
0.00850000 0.00846663 55084.22627794 0 1489.06865913 0 -3161.71149523 0 -13162.92316995 0 -1244.36533573 0 75
0.00950000 0.00948925 59515.95208588 0 -6292.16089690 0 -758.41114011 0 2616.61306546 0 22648.76066829 0 112
0.01050000 0.01054430 56314.49840705 0 -2894.45684433 0 10676.43335129 0 976.62626518 0 -2650.95083935 0 105
0.01150000 0.01145670 78031.98701189 0 -7989.95840422 0 569.12169001 0 -4928.56901037 0 -3776.77066778 0 144
0.01250000 0.01249090 76114.84955927 0 248.23046965 0 13531.56542578 0 -4715.45731772 0 -22756.07994241 0 169
0.01350000 0.01339930 79922.43195314 0 6958.49605426 0 7560.34078599 0 -15501.64851824 0 12561.18828394 0 180
0.01450000 0.01448870 78562.65171330 0 -104.23777197 0 32603.63941586 0 -3070.86907999 0 -3975.13007945 0 267
0.01550000 0.01550050 74762.97821169 0 614.99436357 0 52836.23349916 0 -6527.80194791 0 11141.10274063 0 238
0.01650000 0.01653350 67085.97028031 0 4089.09501999 0 38744.23518028 0 8131.02228531 0 1730.47661075 0 315
0.01750000 0.01747870 74349.29920827 0 4636.39036428 0 44026.38659748 0 23781.59963861 0 20064.63996853 0 297
0.01850000 0.01844180 73501.29020499 0 -2870.74115213 0 35307.60180249 0 12942.90218115 0 20718.22203712 0 388
0.01950000 0.01947590 70832.47845063 0 1029.05233474 0 38164.57928517 0 9502.30337264 0 26290.47601619 0 399
0.02050000 0.02045430 70102.33391115 0 2537.23854398 0 34460.69125646 0 2469.93606778 0 31063.38264851 0 462
0.02150000 0.02154770 67046.75535620 0 721.78967358 0 24636.85845979 0 9737.65882477 0 20892.87674117 0 571
0.02250000 0.02255340 70514.25538295 0 -674.75702915 0 31046.02702383 0 -975.60689684 0 9069.71991982 0 510
0.02350000 0.02348930 68340.73800628 0 4831.77295678 0 29428.76840268 0 803.42152471 0 16862.30752389 0 555
0.02450000 0.02439640 65841.96743547 0 3375.85573771 0 31881.51361436 0 -4346.10106467 0 20221.27997354 0 592
0.02550000 0.02547300 59457.29446829 0 -1644.92875948 0 29937.35411319 0 4448.12577481 0 8232.55268968 0 837
0.02650000 0.02652900 62157.52210024 0 3195.92843882 0 31111.93445932 0 10739.30904475 0 13280.56794230 0 723
0.02750000 0.02749970 60635.49972337 0 -2447.70329287 0 22754.32241080 0 8643.70524140 0 24882.03411981 0 826
0.02850000 0.02848090 64247.33703384 0 -433.41498497 0 29047.71357983 0 4689.61061844 0 13188.18768689 0 831
0.02950000 0.02946900 59105.01922561 0 3098.49528003 0 20345.29579799 0 -1250.05534433 0 8714.13832079 0 996
0.03050000 0.03053250 63754.01987921 0 263.72860311 0 24204.28599154 0 -4278.54594330 0 10656.63915150 0 1041
0.03150000 0.03150510 55293.70207706 0 867.00352619 0 22791.01088322 0 -4919.88021346 0 2350.01748891 0 1036
0.03250000 0.03246190 61271.17693865 0 1349.10323530 0 25610.09159050 0 5603.30736575 0 -109.35548434 0 1059
0.03350000 0.03345080 58342.58004274 0 -1823.24132620 0 17949.78020945 0 6116.46265846 0 1332.20896267 0 1302
0.03450000 0.03451200 55323.68996021 0 816.19328726 0 19977.97169087 0 163.98099487 0 -4864.03464645 0 1339
0.03550000 0.03553350 58165.83826991 0 4626.25160379 0 23824.00008877 0 -6955.12379047 0 -1989.28412534 0 1365
0.03650000 0.03647120 53405.34420460 0 3573.36933729 0 25353.05259210 0 -3261.53929085 0 -5722.39111711 0 1308
0.03750000 0.03744890 51406.92091488 0 360.62571476 0 26844.53785719 0 249.50028624 0 -2957.56321381 0 1579
0.03850000 0.03847530 49289.42485837 0 -595.33747093 0 27168.80243979 0 2494.21197318 0 -7983.15895379 0 1662
0.03950000 0.03950240 47232.45379679 0 3032.44504510 0 25859.66107955 0 588.80165025 0 -5890.76264563 0 1683
0.04050000 0.04050350 47622.51596916 0 411.48318735 0 26262.35551038 0 2397.28410472 0 -5046.97171822 0 1822
0.04150000 0.04152450 46893.36004121 0 1524.96624232 0 26479.19097313 0 3636.99198168 0 -7373.71289783 0 1887
0.04250000 0.04250150 45490.19073967 0 746.86964969 0 25234.74874539 0 -335.97633389 0 -3040.39787564 0 1920
0.04350000 0.04349210 40795.49426412 0 774.97367864 0 24095.64856871 0 -25.34009080 0 -4474.30201127 0 2005
0.04450000 0.04448520 41429.74348497 0 1362.26275325 0 22970.82833638 0 3240.25118919 0 -1553.71286877 0 2151
0.04550000 0.04548030 41332.09063472 0 -236.27046702 0 19099.75511299 0 4675.64922668 0 -2870.80705956 0 2274
0.04650000 0.04648670 39326.08798992 0 157.23317193 0 16655.57786791 0 5278.14204820 0 2615.73429965 0 2311
0.04750000 0.04749250 41017.38263027 0 -773.16781491 0 15123.66937572 0 2830.33989417 0 1569.04733209 0 2568
0.04850000 0.04851840 40018.88498262 0 -674.64608497 0 10343.04058888 0 3026.10694672 0 2664.58269392 0 2493
0.04950000 0.04949480 38924.60186207 0 1493.58331846 0 10386.80312604 0 182.30985268 0 2423.61412520 0 2644
0.05050000 0.05050630 37806.92160192 0 2049.11709219 0 11175.81398998 0 -2031.25617717 0 4144.39135836 0 2829
0.05150000 0.05149060 36407.04767215 0 1928.69322298 0 13055.71374156 0 -3006.25782406 0 1169.36267415 0 2784
0.05250000 0.05249300 32563.32603449 0 1143.70271260 0 17171.63308778 0 -712.89326824 0 488.12255025 0 3055
0.05350000 0.05348950 34172.45607193 0 -644.93940688 0 13151.38936874 0 301.35186265 0 335.37657622 0 3009
0.05450000 0.05448610 33201.52970146 0 227.33341877 0 13142.82140213 0 2319.80991431 0 -3079.40409288 0 3336
0.05550000 0.05550870 33619.60253391 0 631.28558316 0 14281.37235018 0 196.47665593 0 -1077.80406477 0 3349
0.05650000 0.05647670 32652.30107240 0 -107.18438357 0 11591.03083356 0 1875.01161677 0 -159.44985868 0 3324
0.05750000 0.05747970 33185.82176267 0 254.01933940 0 13085.70162470 0 1005.96386163 0 -1600.25450280 0 3639
0.05850000 0.05849280 32018.38138873 0 245.65458738 0 10891.84081961 0 -435.91067986 0 -1006.83933206 0 3846
0.05950000 0.05951020 32384.71688432 0 636.90858587 0 10793.15541954 0 2194.31117257 0 -594.61248914 0 3787
0.06050000 0.06049470 31809.78435541 0 -269.78879180 0 10387.04478664 0 -83.58490814 0 710.95119581 0 3930
0.06150000 0.06148310 31891.28988396 0 -2.54080853 0 10037.02138133 0 1144.80116986 0 -962.29579179 0 4083
0.06250000 0.06249100 31579.43786838 0 622.46606984 0 10032.35293798 0 819.86982370 0 2130.34800643 0 4303
0.06350000 0.06350600 30894.54976793 0 89.00271903 0 11027.52226014 0 -650.00329484 0 475.06628728 0 4470
0.06450000 0.06451750 30853.35762075 0 764.21099443 0 10353.60774770 0 -467.74506966 0 -656.34908242 0 4479
0.06550000 0.06550280 30580.83037501 0 -237.53808670 0 11495.46505210 0 -232.38742062 0 -671.16068009 0 4636
0.06650000 0.06648880 30131.12197353 0 330.66529304 0 11432.30375976 0 148.69266675 0 1066.92494408 0 4653
0.06750000 0.06749660 30798.87414075 0 -396.82976753 0 10864.11575842 0 2670.29467166 0 1599.79315075 0 5220
0.06850000 0.06852730 30916.29922164 0 -499.39711555 0 7838.65690148 0 1927.95725661 0 -1779.76438792 0 5029
0.06950000 0.06949320 31097.87420641 0 849.57650179 0 8573.66760662 0 -1099.51177710 0 -1022.65931349 0 5040
0.07050000 0.07048030 29984.80746674 0 1422.62297958 0 8878.31374259 0 -1850.53798906 0 180.14699033 0 5475
0.07150000 0.07148790 28111.05907582 0 133.65039305 0 9309.19458666 0 866.21483388 0 1781.81850299 0 5509
0.07250000 0.07249820 28404.56685519 0 -193.69646061 0 9100.43278476 0 2279.87000840 0 -525.89410153 0 5916
0.07350000 0.07351270 28318.55765188 0 278.13267313 0 6976.33500013 0 1052.69333185 0 -154.23438361 0 5721
0.07450000 0.07449140 28175.64836260 0 504.94212779 0 7290.12030049 0 142.56437370 0 -308.73679080 0 6028
0.07550000 0.07549160 27200.65770028 0 909.19856484 0 7676.03030442 0 -1719.94240564 0 813.21536963 0 6183
0.07650000 0.07648840 26581.12780669 0 269.15278505 0 8109.63532249 0 122.13526562 0 814.65984092 0 6330
0.07750000 0.07749960 25896.67908915 0 -172.46108490 0 8475.65226547 0 1079.65606370 0 1496.06583186 0 6583
0.07850000 0.07848650 25957.75331270 0 221.22050413 0 8087.58928532 0 923.19840260 0 984.23527860 0 6549
0.07950000 0.07947320 25667.32121365 0 907.56296199 0 7711.04912180 0 128.93801142 0 1329.85826413 0 6828
0.08050000 0.08048110 25232.44198515 0 282.22662333 0 8980.77783563 0 -288.42302073 0 841.46439494 0 7147
0.08150000 0.08149960 23976.02657330 0 775.18677935 0 8575.38119994 0 -447.11274698 0 1368.62282077 0 7386
0.08250000 0.08250610 23566.19217029 0 203.57049291 0 8273.41529968 0 561.22597924 0 2189.48894520 0 7227
0.08350000 0.08350160 23119.44960340 0 83.31128244 0 8557.30059347 0 955.37331415 0 2007.69426898 0 7798
0.08450000 0.08449610 22722.02776741 0 342.99547577 0 7006.45469815 0 724.51494603 0 386.51195851 0 7371
0.08550000 0.08548940 22710.71365765 0 463.34355143 0 7730.08538609 0 868.89397113 0 2331.44257667 0 8256
0.08650000 0.08650700 21545.14066105 0 373.24479174 0 6577.00184851 0 223.57339958 0 1790.27662388 0 8037
0.08750000 0.08749060 21181.33161715 0 388.55618746 0 7096.02290298 0 -272.69530970 0 1659.75793247 0 8155
0.08850000 0.08849210 20579.37703969 0 407.16734879 0 6382.39916066 0 -209.91408357 0 2070.59193158 0 8718
0.08950000 0.08949900 20378.57905291 0 -139.26900193 0 6671.05175895 0 554.98124973 0 103.36043416 0 8571
0.09050000 0.09049190 20136.25938176 0 264.78641745 0 6625.54267474 0 -884.87762269 0 -856.84719038 0 8932
0.09150000 0.09150830 19920.52237627 0 622.30130125 0 6999.07306537 0 -263.95708222 0 -124.65952040 0 9285
0.09250000 0.09250820 19571.21296818 0 271.80885470 0 6960.90167565 0 -248.05142112 0 -947.60831979 0 9204
0.09350000 0.09350330 19459.71955648 0 -28.65446588 0 7629.57654697 0 479.85336402 0 -1428.22511160 0 9349
0.09450000 0.09448040 19287.37161268 0 45.30707791 0 6631.35351364 0 599.97186211 0 -2400.40372334 0 9564
0.09550000 0.09549270 18801.08458450 0 -20.24588542 0 5865.72880472 0 569.86754249 0 -974.59302079 0 10155
0.09650000 0.09649430 18775.60037611 0 198.28471658 0 6091.47275584 0 354.21731512 0 -722.84199563 0 9913
0.09750000 0.09749140 18562.71935949 0 391.25839232 0 5495.44984758 0 -99.04975834 0 -1154.76417719 0 10476
0.09850000 0.09850240 18322.04737423 0 237.33377365 0 5141.64774930 0 560.32414583 0 -1290.86303147 0 10575
0.09950000 0.09950330 17614.97043717 0 209.58454639 0 5002.75881358 0 -83.10378386 0 -1250.05534433 0 10882
0.10050000 0.10051200 17691.09352516 0 104.16626241 0 4704.30797655 0 233.41557661 0 -1063.80862084 0 10875
0.10150000 0.10150300 17160.09928657 0 426.04543523 0 4864.48501393 0 237.38540114 0 -801.34873587 0 11118
0.10250000 0.10250800 16708.08412485 0 357.08758393 0 4524.96286001 0 -464.46507629 0 -1304.89033066 0 11575
0.10350000 0.10349800 16196.09319684 0 560.77780868 0 5265.83932691 0 168.98556613 0 -1294.30120269 0 11364
0.10450000 0.10450100 15697.28375592 0 285.85372920 0 5765.71427137 0 -363.00387472 0 -714.79689467 0 12093
0.10550000 0.10551000 15559.75690720 0 83.63631594 0 5553.17377649 0 15.92817947 0 -871.49731483 0 12067
0.10650000 0.10649700 15428.71095630 0 -102.26560181 0 5717.31624457 0 866.11816964 0 -1730.79516335 0 12054
0.10750000 0.10749900 15367.85642420 0 168.81420680 0 5168.42813726 0 -409.77288940 0 -1123.10663901 0 12807
0.10850000 0.10850100 14881.13001312 0 418.76486052 0 5350.98074899 0 -65.54725135 0 -1389.18594064 0 12736
0.10950000 0.10950300 15002.18000297 0 64.80150872 0 5740.71338417 0 -81.98247870 0 -1437.69381316 0 12933
0.11050000 0.11050200 15192.32295435 0 104.17647806 0 5751.03888240 0 68.78605258 0 -2011.95628314 0 13428
0.11150000 0.11150900 14388.36208712 0 -142.63906880 0 4939.75130526 0 320.88133425 0 -1829.06314966 0 13453
0.11250000 0.11250000 14627.05684932 0 48.86531051 0 4847.15135840 0 295.75632138 0 -1420.11849703 0 13668
0.11350000 0.11349100 14660.88933287 0 27.47571140 0 4294.07812893 0 751.09431631 0 -1493.35264243 0 13791
0.11450000 0.11448600 14991.74465902 0 27.59643185 0 3995.07806326 0 1025.97885133 0 -819.05366996 0 14205
0.11550000 0.11549300 14716.58111585 0 -121.29494581 0 3463.61148806 0 353.39566909 0 -325.61019274 0 14776
0.11650000 0.11649800 14439.76988680 0 159.28069626 0 3209.97770716 0 151.90126040 0 -499.90130743 0 14553
0.11750000 0.11747300 14342.22688228 0 428.96952845 0 3796.97129676 0 -182.61961762 0 -180.34690956 0 14568
0.11850000 0.11849100 14159.99282316 0 190.39010427 0 3449.15579054 0 -550.25348969 0 -177.11634676 0 16015
0.11950000 0.11950300 13652.83510708 0 -1.67632267 0 3877.99350412 0 498.77319183 0 89.26854569 0 15270
0.12050000 0.12050700 13784.86966951 0 -134.56760487 0 3319.07648203 0 432.24842336 0 103.92570027 0 15999
0.12150000 0.12150000 13922.61620968 0 155.68105182 0 3142.23584805 0 624.28072123 0 403.64020253 0 15670
0.12250000 0.12250700 13368.44452295 0 326.40547580 0 3355.47935557 0 -407.34749578 0 355.93310535 0 16887
0.12350000 0.12352200 13363.17192811 0 340.88753629 0 3391.32201590 0 55.13058117 0 967.47062393 0 16407
0.12450000 0.12449800 13014.74128583 0 102.20782296 0 3319.24125062 0 378.26803678 0 1015.85437078 0 16306
0.12550000 0.12549900 12792.30369105 0 96.67632175 0 3863.21925400 0 -444.61815055 0 430.43377197 0 17523
0.12650000 0.12650100 12561.40797540 0 428.81135060 0 3669.12185648 0 -344.54320204 0 419.56673432 0 17154
0.12750000 0.12750600 12341.38698659 0 -20.90067579 0 4176.97160064 0 -21.75219985 0 821.13414800 0 18007
0.12850000 0.12850300 12358.74261127 0 88.43108187 0 4076.97903643 0 -30.97528638 0 2.17993237 0 17496
0.12950000 0.12949900 12453.64931837 0 -51.66593714 0 4270.32948301 0 14.63968911 0 -407.59025483 0 18405
0.13050000 0.13049000 12410.58979385 0 -159.63439950 0 3721.14479223 0 339.79566977 0 -16.73818185 0 18100
0.13150000 0.13148800 12486.71288184 0 -157.80546816 0 3347.36175643 0 569.97299439 0 69.32781170 0 19059
0.13250000 0.13249300 12538.12068152 0 283.07133696 0 3303.15983636 0 311.55872750 0 506.14933232 0 18957
0.13350000 0.13349100 12355.00785659 0 311.54664447 0 3512.80040408 0 -288.97005244 0 -110.90683552 0 19468
0.13450000 0.13450700 12034.69772012 0 259.11508262 0 3320.48250732 0 -148.68827292 0 307.00342525 0 19953
0.13550000 0.13551000 11778.31779607 0 69.77960717 0 3588.63789318 0 -6.31854584 0 304.85813822 0 19956
0.13650000 0.13649900 11803.69215873 0 -78.23937574 0 3318.57119169 0 -69.22631425 0 -150.59409626 0 19723
0.13750000 0.13749600 11757.22741671 0 91.08583338 0 3004.13780155 0 580.89605336 0 -407.36507109 0 20946
0.13850000 0.13851100 11596.19358267 0 -112.68633628 0 2567.53399516 0 502.19928002 0 -234.37562825 0 20955
0.13950000 0.13949800 11597.62157711 0 -53.12534745 0 2176.58207242 0 217.55605072 0 304.59670539 0 20506
0.14050000 0.14048300 11541.38056549 0 312.82085489 0 2810.51274066 0 105.73529875 0 -439.53888418 0 21447
0.14150000 0.14148400 11287.96647604 0 333.46855597 0 2693.96642557 0 -646.15430061 0 290.78909766 0 21771
0.14250000 0.14249400 10868.15808113 0 92.48405962 0 3000.46895431 0 3.29600888 0 319.41818918 0 22470
0.14350000 0.14350900 11093.53954135 0 77.82646566 0 3115.80696642 0 103.32506384 0 -269.91511438 0 22519
0.14450000 0.14449900 10757.15897519 0 79.37089656 0 2929.58550744 0 119.95922179 0 227.51795959 0 22218
0.14550000 0.14550500 10601.30985941 0 166.02192845 0 3204.69412774 0 -70.34454374 0 656.75770852 0 23559
0.14650000 0.14650700 10462.11335566 0 215.75567927 0 3291.92261861 0 -184.01795371 0 150.86211983 0 23044
0.14750000 0.14750500 10350.58699024 0 172.25896876 0 3438.91816890 0 -17.44119450 0 494.09486237 0 23649
0.14850000 0.14849900 10153.98511018 0 37.32272164 0 3330.98375871 0 -70.69385314 0 -64.22536789 0 23640
0.14950000 0.14949500 9990.53467017 0 97.33122196 0 3280.77327744 0 336.79138917 0 269.27141843 0 24457
0.15050000 0.15050000 9996.24664791 0 180.94556876 0 2887.22899557 0 310.19444358 0 233.40019821 0 24591
0.15150000 0.15149900 9807.61956754 0 -56.40742789 0 2937.57129171 0 79.63881029 0 249.48271092 0 25020
0.15250000 0.15250500 9528.22696394 0 156.44997190 0 2793.33286915 0 122.74710631 0 48.92221060 0 25297
0.15350000 0.15350100 9618.98150260 0 164.69389363 0 2633.99065928 0 95.77317019 0 422.93021044 0 25452
0.15450000 0.15450400 9495.31718448 0 -155.38996065 0 2718.36316128 0 419.29761229 0 477.70588008 0 26061
0.15550000 0.15549900 9604.22922163 0 113.09935621 0 2355.21319174 0 41.36647235 0 289.33474025 0 26128
0.15650000 0.15649500 9443.28326416 0 136.74255024 0 2244.73036072 0 -63.53619580 0 222.36619505 0 26331
0.15750000 0.15749700 9395.85187976 0 -12.91906566 0 2312.26351295 0 38.06582798 0 536.27122725 0 27345
0.15850000 0.15849900 9364.50190961 0 23.41174908 0 2281.49572514 0 56.56406790 0 -72.54387486 0 26980
0.15950000 0.15949700 9101.47631915 0 240.50062592 0 2295.11659515 0 -382.38944842 0 403.26453015 0 27777
0.16050000 0.16050000 9050.84842412 0 74.32469377 0 2396.78979896 0 72.81365596 0 -50.29132772 0 28224
0.16150000 0.16150500 9065.67759711 0 64.07564816 0 2183.85385947 0 326.52630610 0 -368.00185525 0 28075
0.16250000 0.16249700 9073.87208825 0 17.65660197 0 1992.11814506 0 113.77051360 0 -223.47673534 0 28590
0.16350000 0.16349900 8951.76757944 0 50.80606479 0 1990.64621234 0 104.30543694 0 -243.14900637 0 29163
0.16450000 0.16449100 8722.08016676 0 41.94557901 0 2077.72091919 0 -146.39689108 0 52.87061521 0 28996
0.16550000 0.16550500 8711.74368396 0 148.01162325 0 1795.43937299 0 320.50566186 0 -275.40740067 0 30777
0.16650000 0.16650700 8673.84690856 0 133.37797565 0 1958.97768958 0 88.15295250 0 62.29581787 0 29211
0.16750000 0.16749900 8492.94198272 0 37.58755969 0 1691.22873291 0 -235.50154694 0 49.38543002 0 30922
0.16850000 0.16850800 8392.87252650 0 127.95818754 0 2163.64224592 0 100.02617700 0 520.07447498 0 30867
0.16950000 0.16949900 8191.81090997 0 141.59114057 0 2009.88019893 0 41.61681076 0 129.40815112 0 30852
0.17050000 0.17049200 8175.99312546 0 31.02526618 0 2201.17653043 0 250.44495948 0 743.30845126 0 31257
0.17150000 0.17149500 8151.18996057 0 113.35639521 0 1995.65517743 0 17.68626031 0 500.94484183 0 32608
0.17250000 0.17250900 8009.79654230 0 90.77727673 0 2009.22112457 0 32.26454566 0 538.07489407 0 32361
0.17350000 0.17350400 8154.30957918 0 -25.28363009 0 1966.75476697 0 71.63556055 0 476.26031032 0 32508
0.17450000 0.17449800 7990.69437058 0 48.58948789 0 2003.58603884 0 -156.29838480 0 300.15564270 0 32791
0.17550000 0.17549800 7711.38964355 0 167.92665334 0 2077.49024316 0 -216.66739880 0 475.24204045 0 33633
0.17650000 0.17650100 7676.79922450 0 16.22179710 0 2192.96007014 0 118.10832131 0 -12.67092416 0 33984
0.17750000 0.17750300 7811.90946725 0 173.45079489 0 2010.37450469 0 -128.42722879 0 -228.75811784 0 34069
0.17850000 0.17849800 7515.02942409 0 49.22132051 0 2204.52682507 0 -10.62017037 0 -210.03052004 0 34536
