### header ###
fiducial parameters:
Omega_m = 0.31
Omega_nu = 0
Omega_de = 0.69
Omega_k = 0
H_0 = 100
w_de = -1
zeff = 0
beta = 0
fgrowth = 0
b_1 = 2
gamma = 0.55
Lx = 3500 Ly = 3500 Lz = 3500
nx = 700 ny = 700 nz = 700
xoffset = -983.599254 yoffset = -42.9823471 zoffset = 800.977702
bins = 400 dk = 0.001
kx_ny = 0.628318531 ky_ny = 0.628318531 kz_ny = 0.628318531
############################
A(data) = 9.06408761 (not used)
A(ran) = 9.06216501 (used)
Ngal = 503861
weighted Ngal = 0
Nran = 25229228
weighted Nran = 0
SN(data) = 6744.34273
SN(ran) = 134.521596
SN(data+ran) = 6878.86433
############################
13 columns: k_central k_mean P_0(k) sigma^{lin}_{P_0(k)} P^img_1(k) sigma^{lin}_{P_1(k)} P_2(k) sigma^{lin}_{P_2(k)} P^img_3(k) sigma^{lin}_{P_3(k)} P_4(k) sigma^{lin}_{P_4(k)} N_modes
### header ###
0.00050000 0 0 0 0 0 0 0 0 0 0 0 0
0.00150000 0.00179520 26090.77648666 0 1924.00281049 0 580.47863960 0 9361.47016758 0 -79620.79559006 0 3
0.00250000 0.00253879 56025.05491953 0 -6976.37893842 0 2484.85311734 0 -5458.62956028 0 21869.40524365 0 6
0.00350000 0.00331552 45094.63628101 0 -6350.13747098 0 15045.23952749 0 -21083.12953828 0 85277.30124082 0 7
0.00450000 0.00420575 49555.91058920 0 1135.54117517 0 36271.05866360 0 -6648.00612567 0 16367.56237483 0 24
0.00550000 0.00557378 43570.41698962 0 8997.82589227 0 33468.23512374 0 33062.35516686 0 15195.72817185 0 45
0.00650000 0.00659388 50536.06400063 0 -10165.70564912 0 53418.19615452 0 4666.60892345 0 13478.29024876 0 40
0.00750000 0.00754703 58235.37061435 0 -2881.01172749 0 42086.40123388 0 11158.89774821 0 -7428.75659104 0 57
0.00850000 0.00846663 66955.80309522 0 11106.72102845 0 49757.91687897 0 27371.90718682 0 32637.91128232 0 75
0.00950000 0.00948925 65469.91996214 0 -13110.52675874 0 17551.80914483 0 15411.68486880 0 32811.13799192 0 112
0.01050000 0.01054430 64295.77899892 0 2259.43870340 0 53302.96798815 0 9511.99176566 0 21511.74756040 0 105
0.01150000 0.01145670 71546.36582269 0 11206.24125603 0 31281.86579715 0 -7401.31712873 0 9536.33357850 0 144
0.01250000 0.01249090 77076.76858022 0 -2894.37995232 0 35629.55962484 0 24960.57381376 0 21036.11556763 0 169
0.01350000 0.01339930 61793.82290207 0 477.65754796 0 31769.14143686 0 -1469.03279874 0 14922.65169748 0 180
0.01450000 0.01448870 65524.29359642 0 1805.83077866 0 29764.12740359 0 5772.06335432 0 18881.60150152 0 267
0.01550000 0.01550050 68853.60770010 0 1812.59727537 0 27984.29710823 0 13608.78697103 0 30700.23267897 0 238
0.01650000 0.01653350 69791.36066137 0 -7102.37198593 0 14381.22211495 0 24685.08073342 0 13703.58383240 0 315
0.01750000 0.01747870 73652.32807799 0 -1987.44970172 0 11416.26628379 0 1612.02996460 0 8233.06896459 0 297
0.01850000 0.01844180 68891.39462978 0 5899.39651968 0 13776.19185717 0 -4432.73638862 0 15612.04347269 0 388
0.01950000 0.01947590 66188.86023759 0 4482.91391617 0 16467.74167677 0 -8823.35792596 0 16170.93852562 0 399
0.02050000 0.02045430 66403.38894011 0 31.97707940 0 24546.34558172 0 -3196.82917378 0 11119.79266982 0 462
0.02150000 0.02154770 64720.00319202 0 -1749.20530700 0 18461.88098319 0 7612.91295036 0 -4957.10692994 0 571
0.02250000 0.02255340 65942.03689169 0 -1268.37761140 0 15263.17344750 0 -4458.96754794 0 -3975.63536979 0 510
0.02350000 0.02348930 66706.56314335 0 2603.87096126 0 19072.95275589 0 1391.81125349 0 -8590.40809523 0 555
0.02450000 0.02439640 67334.44131210 0 385.25202803 0 26941.75132453 0 -2929.59649202 0 4194.38214818 0 592
0.02550000 0.02547300 65205.30160866 0 1848.20925967 0 23220.17813398 0 -3977.99705290 0 -10237.00650975 0 837
0.02650000 0.02652900 63831.57096164 0 3511.83376169 0 30315.00371854 0 231.83160124 0 -3379.79919926 0 723
0.02750000 0.02749970 61282.93043131 0 1987.74628517 0 29737.87427512 0 3948.16295377 0 -2539.22675162 0 826
0.02850000 0.02848090 61157.92599534 0 -2313.16424790 0 28684.45376456 0 7882.21073177 0 1616.72037709 0 831
0.02950000 0.02946900 61934.31558539 0 252.42987175 0 25080.74503780 0 3890.95529976 0 -1407.58509972 0 996
0.03050000 0.03053250 57155.03790097 0 1695.01841045 0 28187.62154671 0 -3896.01918772 0 2164.04867511 0 1041
0.03150000 0.03150510 54281.25402224 0 7118.12386301 0 29310.46455598 0 -1423.46879167 0 6983.29921915 0 1036
0.03250000 0.03246190 47971.71553152 0 3152.68217657 0 33093.44150726 0 -60.51972233 0 7242.69990065 0 1059
0.03350000 0.03345080 51553.12557594 0 -1446.54737866 0 31896.01325017 0 11524.13478654 0 9391.68872675 0 1302
0.03450000 0.03451200 51319.70340858 0 -2636.92354016 0 24979.90666151 0 11385.17994338 0 11148.02302135 0 1339
0.03550000 0.03553350 54099.67903747 0 -2076.06224873 0 18624.89204030 0 5294.43216934 0 16088.88376844 0 1365
0.03650000 0.03647120 56333.39187189 0 776.76745935 0 18387.18588964 0 -999.13365440 0 9192.01116637 0 1308
0.03750000 0.03744890 52104.22158234 0 3004.33552386 0 17026.85642116 0 -3832.66017307 0 9078.66136190 0 1579
0.03850000 0.03847530 47940.73903684 0 3436.72125438 0 21140.57885288 0 -4767.44729975 0 8302.65623189 0 1662
0.03950000 0.03950240 46859.30786620 0 1040.79484283 0 24997.26228619 0 3471.17985857 0 7131.50307241 0 1683
0.04050000 0.04050350 44490.70448049 0 1013.19610422 0 19908.98857506 0 4211.01279107 0 6222.05735469 0 1822
0.04150000 0.04152450 41481.37097610 0 -569.20077893 0 18698.92805949 0 3824.25697505 0 5022.27839906 0 1887
0.04250000 0.04250150 43341.27880558 0 949.60311817 0 13673.59594926 0 3271.96365023 0 2740.14556871 0 1920
0.04350000 0.04349210 41733.57676257 0 643.64212886 0 14987.13113853 0 -641.15192626 0 883.09922039 0 2005
0.04450000 0.04448520 39753.93709196 0 976.48346573 0 12592.60416153 0 -2719.05518935 0 3424.64920911 0 2151
0.04550000 0.04548030 38701.39534722 0 1195.94533979 0 13038.79749978 0 255.50774899 0 -3306.89459104 0 2274
0.04650000 0.04648670 38779.49565827 0 -501.49736583 0 12469.46710289 0 -482.50064601 0 -2469.20010141 0 2311
0.04750000 0.04749250 37741.45354933 0 1196.52752214 0 15654.99315148 0 -1885.64468303 0 -4845.20708905 0 2568
0.04850000 0.04851840 35468.74548225 0 2341.11998512 0 17045.31050310 0 -635.96281417 0 -2394.37319299 0 2493
0.04950000 0.04949480 36506.01867111 0 -109.74631543 0 16929.97249100 0 -839.80242910 0 92.60203393 0 2644
0.05050000 0.05050630 36966.27226227 0 -754.39298346 0 17701.41902338 0 5635.66791658 0 -3853.77252158 0 2829
0.05150000 0.05149060 37440.58610633 0 -471.99500079 0 15298.43392549 0 210.76758486 0 -2650.70917875 0 2784
0.05250000 0.05249300 36665.07528209 0 574.92264279 0 16450.38605209 0 822.13374411 0 127.66050563 0 3055
0.05350000 0.05348950 36640.25014805 0 -446.60416127 0 15111.58634588 0 473.02315678 0 3051.58017053 0 3009
0.05450000 0.05448610 37615.68019328 0 223.81396172 0 14063.43843017 0 3302.09433282 0 1194.05599331 0 3336
0.05550000 0.05550870 36963.96550203 0 360.67624379 0 14059.70367549 0 218.91154697 0 -851.79099162 0 3349
0.05650000 0.05647670 36112.44143552 0 1137.04606161 0 13128.32176632 0 -1352.75011339 0 -2111.24583471 0 3324
0.05750000 0.05747970 34464.64570259 0 1887.52304494 0 14113.08869824 0 280.78544741 0 1767.93400325 0 3639
0.05850000 0.05849280 32338.58167947 0 -223.46245539 0 13317.69579762 0 1557.59042289 0 426.23436987 0 3846
0.05950000 0.05951020 33531.61610753 0 -619.07293537 0 13165.22993019 0 1065.18828316 0 -1273.23279248 0 3787
0.06050000 0.06049470 32268.50010641 0 834.94834648 0 11532.59290743 0 -176.41333411 0 -1649.30061937 0 3930
0.06150000 0.06148310 32916.15050580 0 1061.99067408 0 11221.83934910 0 598.65151648 0 853.90881721 0 4083
0.06250000 0.06249100 31514.51904442 0 -287.84193684 0 12310.95972054 0 -16.57462157 0 2039.60445233 0 4303
0.06350000 0.06350600 30886.42118422 0 130.10457303 0 11135.39076289 0 2440.33264467 0 -1161.83824193 0 4470
0.06450000 0.06451750 32113.94717019 0 -323.63516659 0 10398.41381926 0 49.61599620 0 1812.03706216 0 4479
0.06550000 0.06550280 30928.71178866 0 640.27096354 0 11927.70798318 0 804.79130092 0 1927.53984286 0 4636
0.06650000 0.06648880 31130.16884980 0 1027.00041658 0 10736.32124100 0 -191.99714723 0 2951.73040577 0 4653
0.06750000 0.06749660 31120.06304303 0 -178.61683937 0 11562.58079057 0 1065.27835665 0 3054.33729825 0 5220
0.06850000 0.06852730 30605.54566332 0 37.00329027 0 11358.59727774 0 -387.16883595 0 3400.34034999 0 5029
0.06950000 0.06949320 28574.93757593 0 1141.26413748 0 11798.41956389 0 -901.81034133 0 3603.97235650 0 5040
0.07050000 0.07048030 28450.04298568 0 1195.67072548 0 13423.58707730 0 -497.20459486 0 2768.22213622 0 5475
0.07150000 0.07148790 28752.33842312 0 65.70158460 0 14226.11995010 0 1429.75196719 0 3686.15892856 0 5509
0.07250000 0.07249820 27711.76986249 0 364.83829834 0 12099.83623553 0 544.02853241 0 926.90569585 0 5916
0.07350000 0.07351270 27086.08860825 0 -75.41491259 0 11473.38606121 0 1664.25062265 0 2892.72128186 0 5721
0.07450000 0.07449140 27045.00630680 0 184.83850128 0 12137.73301093 0 273.13798798 0 2700.45830797 0 6028
0.07550000 0.07549160 26692.62121839 0 181.48381282 0 9813.41942187 0 460.05586885 0 2162.77446469 0 6183
0.07650000 0.07648840 26551.57930645 0 545.78276865 0 10770.29652400 0 349.01392308 0 1376.45482102 0 6330
0.07750000 0.07749960 25953.46932939 0 -13.41392065 0 9047.83865124 0 -410.06178366 0 275.95992467 0 6583
0.07850000 0.07848650 25099.19911974 0 403.52815989 0 10275.10100746 0 1124.00737396 0 1017.60311473 0 6549
0.07950000 0.07947320 25070.41953958 0 952.79303805 0 9743.57950939 0 -937.17736967 0 -275.97640153 0 6828
0.08050000 0.08048110 23977.01518483 0 623.90285193 0 10049.76348553 0 134.18204637 0 1012.71168456 0 7147
0.08150000 0.08149960 24276.23494195 0 74.57558140 0 10327.83794042 0 952.20206804 0 -214.37931233 0 7386
0.08250000 0.08250610 22936.77616138 0 474.05460815 0 10632.57195297 0 58.96353793 0 579.47025584 0 7227
0.08350000 0.08350160 22505.96122474 0 139.45134583 0 9461.31993234 0 577.66768748 0 319.82132299 0 7798
0.08450000 0.08449610 22205.64301036 0 329.90406216 0 9430.96955830 0 -26.05375848 0 -524.63746643 0 7371
0.08550000 0.08548940 21823.92911316 0 452.51276286 0 9733.57256377 0 33.32510614 0 333.35431641 0 8256
0.08650000 0.08650700 21592.15463169 0 49.61434852 0 8715.17087061 0 849.34143193 0 216.02480130 0 8037
0.08750000 0.08749060 21900.93096696 0 -40.83613718 0 9196.73453258 0 -264.52498462 0 -1897.92543518 0 8155
0.08850000 0.08849210 20786.87561576 0 508.90755849 0 8484.73650700 0 -165.34967261 0 -1313.77684987 0 8718
0.08950000 0.08949900 20443.38803114 0 622.56493099 0 8854.29048235 0 -40.27636336 0 -1709.89152173 0 8571
0.09050000 0.09049190 20347.82224968 0 284.40156870 0 9217.96771138 0 236.91965526 0 -1196.57146043 0 8932
0.09150000 0.09150830 20133.29354717 0 -222.68914148 0 7754.65787495 0 1349.67443307 0 -1613.06251443 0 9285
0.09250000 0.09250820 19789.58627110 0 110.23897351 0 7864.36080132 0 840.83827430 0 -2069.69119663 0 9204
0.09350000 0.09350330 19448.51529245 0 292.48621412 0 7319.63584701 0 -1115.53826850 0 -1228.53656664 0 9349
0.09450000 0.09448040 18927.18747774 0 458.33019250 0 7276.53238420 0 827.21960121 0 -951.11129999 0 9564
0.09550000 0.09549270 18605.33950110 0 162.38164110 0 7576.85059858 0 -357.41053037 0 -1496.66998335 0 10155
0.09650000 0.09649430 18122.89707333 0 336.07849041 0 6414.62789661 0 1221.50644019 0 -2185.85305168 0 9913
0.09750000 0.09749140 17854.87350234 0 258.75369018 0 6422.97617177 0 316.91919892 0 -1250.34094322 0 10476
0.09850000 0.09850240 17432.29699514 0 336.10375493 0 5839.20106194 0 131.60396718 0 -713.05034763 0 10575
0.09950000 0.09950330 16960.61944850 0 206.61871180 0 5736.39644715 0 599.13593613 0 -1249.81368373 0 10882
0.10050000 0.10051200 16579.67447138 0 364.53292723 0 5337.83221561 0 533.30429420 0 -880.16743797 0 10875
0.10150000 0.10150300 16553.64103436 0 212.95571172 0 5838.06965096 0 61.14177867 0 680.54809582 0 11118
0.10250000 0.10250800 15935.42928948 0 260.98465687 0 5552.44879470 0 490.57320840 0 29.00838881 0 11575
0.10350000 0.10349800 15802.40611552 0 -34.17124777 0 6175.41685951 0 156.92780081 0 1352.05808532 0 11364
0.10450000 0.10450100 15838.76505076 0 55.84699500 0 5709.47325975 0 -295.72117075 0 1321.46605068 0 12093
0.10550000 0.10551000 15280.41922645 0 422.83354620 0 6083.92635448 0 -10.56329225 0 1812.70712109 0 12067
0.10650000 0.10649700 15585.46080704 0 33.98604788 0 6673.44639577 0 134.20401551 0 1689.67990818 0 12054
0.10750000 0.10749900 15758.57767092 0 -64.22415959 0 6146.29675759 0 969.08425764 0 2966.55957875 0 12807
0.10850000 0.10850100 15955.09167440 0 -62.36194500 0 6552.71495853 0 673.51247708 0 2154.14059064 0 12736
0.10950000 0.10950300 15448.26349550 0 77.62017539 0 5994.86343999 0 -453.26300917 0 2797.46306844 0 12933
0.11050000 0.11050200 15436.51000284 0 526.65313550 0 6920.02808108 0 -759.00540548 0 1910.09634160 0 13428
0.11150000 0.11150900 14937.04148756 0 364.81742766 0 7344.76854908 0 -389.84028400 0 2424.44895272 0 13453
0.11250000 0.11250000 14342.77611091 0 355.38167981 0 7115.56445760 0 66.14569087 0 1784.25707811 0 13668
0.11350000 0.11349100 14148.01963904 0 46.20792271 0 7187.63423830 0 665.03897779 0 1147.83291189 0 13791
0.11450000 0.11448600 14129.12617420 0 -199.30738029 0 6240.51143662 0 785.23766326 0 1790.50729990 0 14205
0.11550000 0.11549300 14094.85430775 0 108.75781374 0 6283.59293029 0 638.17400863 0 1068.10139181 0 14776
0.11650000 0.11649800 13851.43617935 0 -9.76684483 0 5310.74425962 0 290.80557452 0 2319.19477824 0 14553
0.11750000 0.11747300 14296.75075180 0 -309.11905393 0 4797.73176635 0 679.89011992 0 1000.95929036 0 14568
0.11850000 0.11849100 14308.72393591 0 118.83220464 0 4213.50628904 0 195.79780935 0 806.43239606 0 16015
0.11950000 0.11950300 14443.17510430 0 184.73085247 0 4437.92110688 0 -33.46493975 0 390.62128711 0 15270
0.12050000 0.12050700 13725.99236047 0 184.66384658 0 4320.64981000 0 -840.66142268 0 -70.68451626 0 15999
0.12150000 0.12150000 13993.24701137 0 45.46437699 0 4189.07659962 0 635.21586323 0 538.84930644 0 15670
0.12250000 0.12250700 13744.00705950 0 -295.09065628 0 3520.76421920 0 576.72740807 0 -611.20798140 0 16887
0.12350000 0.12352200 14014.22754500 0 216.09290565 0 3506.49525942 0 365.09643580 0 -706.71664308 0 16407
0.12450000 0.12449800 13586.81782586 0 416.62286887 0 3258.01324305 0 -111.21110819 0 -523.18530593 0 16306
0.12550000 0.12549900 13206.75161455 0 214.47377965 0 3382.34762010 0 -174.40096042 0 106.88593273 0 17523
0.12650000 0.12650100 12846.12809670 0 157.97133521 0 3119.94815028 0 301.75939030 0 -0.22292311 0 17154
0.12750000 0.12750600 12604.79703709 0 142.50176164 0 3111.85252029 0 -139.03503053 0 -314.66516462 0 18007
0.12850000 0.12850300 12406.74519345 0 142.68740092 0 3448.91412994 0 98.59214105 0 343.49966765 0 17496
0.12950000 0.12949900 12321.94429312 0 231.52293475 0 3441.90597264 0 -178.58608257 0 226.77210711 0 18405
0.13050000 0.13049000 12054.36010504 0 112.29748241 0 3300.02923318 0 192.60239718 0 55.99287012 0 18100
0.13150000 0.13148800 12345.01189554 0 -37.81889479 0 3448.14520986 0 11.85828548 0 55.05346947 0 19059
0.13250000 0.13249300 12249.11657691 0 91.82443604 0 3530.83707226 0 153.71041950 0 335.33593331 0 18957
0.13350000 0.13349100 11983.61945762 0 53.81550814 0 3579.44380593 0 95.74834505 0 480.84197555 0 19468
0.13450000 0.13450700 11776.23072728 0 33.16758737 0 3163.27130454 0 386.92937226 0 509.48205164 0 19953
0.13550000 0.13551000 12078.85570190 0 93.18377689 0 3305.60939605 0 151.90565423 0 274.17712854 0 19956
0.13650000 0.13649900 11745.14438688 0 299.37463959 0 3310.61836115 0 -85.42910803 0 368.28525722 0 19723
0.13750000 0.13749600 11544.12670864 0 223.89195218 0 3290.18705614 0 -191.00304342 0 1174.55837698 0 20946
0.13850000 0.13851100 11509.74499646 0 -145.97837886 0 3157.61424966 0 313.83253402 0 73.94946077 0 20955
0.13950000 0.13949800 11301.80703749 0 20.62309564 0 3176.05734702 0 68.37786586 0 454.73713881 0 20506
0.14050000 0.14048300 11394.29713863 0 209.31652282 0 2958.48591791 0 -55.91674703 0 -2.61551461 0 21447
0.14150000 0.14148400 11165.26880031 0 13.47093059 0 3269.98642717 0 -262.02379744 0 215.15152778 0 21771
0.14250000 0.14249400 11145.16703248 0 233.67810789 0 3294.41611659 0 -17.72141095 0 -163.37244955 0 22470
0.14350000 0.14350900 10775.62404170 0 182.85908130 0 3413.70857482 0 -36.96791995 0 -0.21875007 0 22519
0.14450000 0.14449900 10764.16713250 0 110.36309918 0 3340.91381233 0 485.02270387 0 455.63347993 0 22218
0.14550000 0.14550500 10878.91197768 0 -55.14145590 0 3122.58444770 0 368.76088921 0 451.04083013 0 23559
0.14650000 0.14650700 10852.59294178 0 50.97819305 0 3205.92439987 0 194.03917928 0 497.15296737 0 23044
0.14750000 0.14750500 10636.10898535 0 67.04884242 0 2987.33140550 0 -85.15339526 0 958.58740008 0 23649
0.14850000 0.14849900 10431.56525931 0 72.90878236 0 2733.67565546 0 98.49635558 0 904.30383930 0 23640
0.14950000 0.14949500 10426.75401652 0 203.53204690 0 3184.75712851 0 -278.82250429 0 653.77100324 0 24457
0.15050000 0.15050000 10086.56180367 0 271.39144094 0 2985.37615158 0 58.06379159 0 629.47532560 0 24591
0.15150000 0.15149900 9928.41691222 0 68.28878098 0 3343.95653893 0 106.46258730 0 824.67447575 0 25020
0.15250000 0.15250500 9799.87544387 0 71.89128140 0 2990.79154587 0 300.68839447 0 695.87047611 0 25297
0.15350000 0.15350100 9770.07429846 0 23.79148575 0 2898.21356815 0 498.12070822 0 1083.54789777 0 25452
0.15450000 0.15450400 9906.81025795 0 25.29164883 0 2519.10301465 0 178.23457625 0 951.03330952 0 26061
0.15550000 0.15549900 9622.96890245 0 78.16457080 0 2307.00190268 0 -90.78914007 0 1128.75270931 0 26128
0.15650000 0.15649500 9474.17188226 0 156.59057443 0 2536.85408394 0 -22.23046814 0 804.17286948 0 26331
0.15750000 0.15749700 9102.26720838 0 266.98662733 0 2688.67186159 0 -349.60709000 0 973.63626452 0 27345
0.15850000 0.15849900 8965.78389405 0 294.18772442 0 2811.57824420 0 -91.88715795 0 599.88508398 0 26980
0.15950000 0.15949700 9032.36138847 0 -128.91933764 0 2474.23103566 0 374.17738195 0 484.30870665 0 27777
0.16050000 0.16050000 8975.72493224 0 -145.51812527 0 2501.94511228 0 221.15349824 0 -24.46813542 0 28224
0.16150000 0.16150500 8898.84390874 0 218.65121260 0 2019.81025254 0 -150.91155041 0 170.37181919 0 28075
0.16250000 0.16249700 8782.42940853 0 107.68956406 0 2348.99592366 0 -7.95892699 0 415.79902592 0 28590
0.16350000 0.16349900 8643.23290478 0 7.58559432 0 2432.46769070 0 -13.03561197 0 -72.88044216 0 29163
0.16450000 0.16449100 8533.84853101 0 344.62668480 0 2491.75142892 0 -47.43533885 0 144.61079958 0 28996
0.16550000 0.16550500 8346.23203132 0 17.52797262 0 2683.58600449 0 -313.41402181 0 -159.89583232 0 30777
0.16650000 0.16650700 8118.97220919 0 148.57183645 0 2749.82297715 0 84.23135024 0 190.58013737 0 29211
0.16750000 0.16749900 8280.87382446 0 86.48362700 0 2892.20500695 0 100.42041331 0 312.99111576 0 30922
0.16850000 0.16850800 8040.84992899 0 -37.99772363 0 2767.82669161 0 164.37973485 0 321.82490903 0 30867
0.16950000 0.16949900 8171.12695980 0 80.95487193 0 2661.04566155 0 393.25319070 0 237.78853495 0 30852
0.17050000 0.17049200 8020.23188625 0 92.17989681 0 2336.22086575 0 -16.10096680 0 369.63855656 0 31257
0.17150000 0.17149500 7983.97181216 0 139.06468888 0 2471.95722913 0 114.10444460 0 622.77363787 0 32608
0.17250000 0.17250900 7768.08102265 0 -9.11346049 0 2375.51268187 0 112.15248606 0 538.46814177 0 32361
0.17350000 0.17350400 7736.18182387 0 45.55214373 0 2126.79998948 0 366.12019797 0 860.97848813 0 32508
0.17450000 0.17449800 7559.67072706 0 -21.52437982 0 1923.99182591 0 217.87570178 0 782.90344159 0 32791
0.17550000 0.17549800 7685.21340709 0 173.98903894 0 1837.00499564 0 76.33014718 0 894.95596804 0 33633
0.17650000 0.17650100 7625.16074879 0 73.87278845 0 1691.29464035 0 87.80210525 0 887.78304214 0 33984
0.17750000 0.17750300 7585.97877839 0 -59.51551270 0 1740.73620154 0 -6.86539082 0 851.56580788 0 34069
0.17850000 0.17849800 7346.20752809 0 207.96102657 0 1874.16580468 0 -289.41053380 0 338.95425151 0 34536
