### header ###
fiducial parameters:
Omega_m = 0.31
Omega_nu = 0
Omega_de = 0.69
Omega_k = 0
H_0 = 100
w_de = -1
zeff = 0
beta = 0
fgrowth = 0
b_1 = 2
gamma = 0.55
Lx = 3500 Ly = 3500 Lz = 3500
nx = 700 ny = 700 nz = 700
xoffset = -983.599254 yoffset = -42.9823471 zoffset = 800.977702
bins = 400 dk = 0.001
kx_ny = 0.628318531 ky_ny = 0.628318531 kz_ny = 0.628318531
############################
A(data) = 9.03769924 (not used)
A(ran) = 9.04485432 (used)
Ngal = 502130
weighted Ngal = 0
Nran = 25229228
weighted Nran = 0
SN(data) = 6726.24225
SN(ran) = 134.264631
SN(data+ran) = 6860.50688
############################
13 columns: k_central k_mean P_0(k) sigma^{lin}_{P_0(k)} P^img_1(k) sigma^{lin}_{P_1(k)} P_2(k) sigma^{lin}_{P_2(k)} P^img_3(k) sigma^{lin}_{P_3(k)} P_4(k) sigma^{lin}_{P_4(k)} N_modes
### header ###
0.00050000 0 0 0 0 0 0 0 0 0 0 0 0
0.00150000 0.00179520 10891.87377333 0 -8525.53320957 0 -15491.21317429 0 27041.16170640 0 32674.16037183 0 3
0.00250000 0.00253879 13632.51364780 0 -3630.66486788 0 -279.82759268 0 -22820.77907492 0 -14344.09425962 0 6
0.00350000 0.00331552 15027.11498273 0 -3876.34581823 0 -10341.35994927 0 -21251.74272740 0 -19902.39783151 0 7
0.00450000 0.00420575 19767.94666311 0 -9258.29207732 0 -20720.41895164 0 12190.89834223 0 4975.46215072 0 24
0.00550000 0.00557378 36422.64576522 0 -14398.24820245 0 -31288.89592360 0 -5156.57578344 0 -5194.81308060 0 45
0.00650000 0.00659388 43720.79578826 0 -11562.03156194 0 -30885.65226414 0 -719.52245780 0 5683.43982273 0 40
0.00750000 0.00754703 50606.14557370 0 5051.44243926 0 -27701.55420999 0 -14084.96819243 0 -1542.28891328 0 57
0.00850000 0.00846663 50993.68129437 0 -4257.26882621 0 -22333.17389803 0 -8150.55285536 0 7345.59239202 0 75
0.00950000 0.00948925 72074.06468950 0 -7880.62895332 0 -18688.82225272 0 -14732.61859182 0 -20034.43239393 0 112
0.01050000 0.01054430 61178.46714607 0 3804.69345128 0 -11756.23880518 0 -19563.96315028 0 14737.56164948 0 105
0.01150000 0.01145670 66756.87248577 0 1045.32597902 0 -12976.51497324 0 10063.50518583 0 18238.23508543 0 144
0.01250000 0.01249090 71030.20075709 0 -13219.82325592 0 3728.76808560 0 1390.49310478 0 17140.65659311 0 169
0.01350000 0.01339930 78075.26622786 0 -740.75563660 0 -12148.38804634 0 9952.86857079 0 -3925.88624057 0 180
0.01450000 0.01448870 86193.08505693 0 3935.01442039 0 9947.92551312 0 -7780.83411141 0 4862.32105313 0 267
0.01550000 0.01550050 79853.00945443 0 10450.14017154 0 25830.55196221 0 -33775.58346457 0 20342.65950057 0 238
0.01650000 0.01653350 73136.16301239 0 1742.74637832 0 26171.51309513 0 -3044.14361490 0 1546.89144920 0 315
0.01750000 0.01747870 81507.50577663 0 -3848.09349755 0 52669.15815020 0 -614.64834953 0 -6894.93931730 0 297
0.01850000 0.01844180 76433.40216413 0 4198.14985657 0 41371.30555884 0 -7875.67491108 0 -2638.56024147 0 388
0.01950000 0.01947590 73548.30417564 0 4037.61032830 0 51835.20939983 0 -1370.62201298 0 -5833.56597620 0 399
0.02050000 0.02045430 73167.02966134 0 283.03069405 0 62055.58526669 0 9144.03055333 0 -5849.28489957 0 462
0.02150000 0.02154770 73218.76699820 0 2653.76288993 0 52005.03089193 0 13247.61422455 0 2663.06682290 0 571
0.02250000 0.02255340 71112.58505145 0 -508.13314613 0 50943.04241477 0 10712.83622483 0 4097.19064998 0 510
0.02350000 0.02348930 70074.54294252 0 562.29917198 0 44222.57106378 0 8573.16231628 0 4530.59794575 0 555
0.02450000 0.02439640 72785.64530132 0 2619.24936288 0 45454.49087878 0 12506.15557531 0 8651.83382511 0 592
0.02550000 0.02547300 68347.87797846 0 303.13465878 0 35037.49116271 0 908.52191517 0 19855.93308949 0 837
0.02650000 0.02652900 71101.49063315 0 -1500.15209286 0 34765.73283705 0 8478.43136234 0 15267.67712226 0 723
0.02750000 0.02749970 65859.54275160 0 -772.61199554 0 26824.76562654 0 8848.57850461 0 6610.42790287 0 826
0.02850000 0.02848090 70337.73330157 0 1495.99992443 0 21464.07451540 0 30.52733551 0 10420.64659416 0 831
0.02950000 0.02946900 67859.61372722 0 202.87297255 0 16351.30520741 0 1527.18512598 0 1170.59294628 0 996
0.03050000 0.03053250 64334.88407731 0 4841.83482527 0 26450.41139297 0 -5880.60191599 0 4762.93264042 0 1041
0.03150000 0.03150510 58825.24216196 0 4834.43122335 0 25419.83879339 0 -3968.08896843 0 -2.75310736 0 1036
0.03250000 0.03246190 55191.10616915 0 1851.63644632 0 35463.80242459 0 969.73564280 0 -1482.11542468 0 1059
0.03350000 0.03345080 52509.00308197 0 1858.79838764 0 25296.37219758 0 9710.62579165 0 1531.41418643 0 1302
0.03450000 0.03451200 52048.31010790 0 -1541.70673094 0 25339.21203064 0 6015.84397362 0 9126.79575895 0 1339
0.03550000 0.03553350 52689.15007230 0 2700.73292228 0 20837.73418681 0 6058.68380668 0 -348.98646165 0 1365
0.03650000 0.03647120 49284.59164644 0 658.32630549 0 20026.19396450 0 -4126.53044334 0 10215.31197890 0 1308
0.03750000 0.03744890 47724.89218561 0 1346.40103044 0 19191.03691114 0 2258.85652105 0 7782.67951961 0 1579
0.03850000 0.03847530 44914.81882785 0 -758.14860882 0 21163.09722667 0 -740.16906042 0 7987.25619936 0 1662
0.03950000 0.03950240 45286.20722683 0 1640.98529793 0 20383.08272767 0 5063.36070052 0 2513.68762037 0 1683
0.04050000 0.04050350 44921.29972568 0 1062.46301070 0 18302.16529786 0 -4242.46162237 0 1606.25207942 0 1822
0.04150000 0.04152450 42486.89875020 0 2238.07370973 0 18500.21714150 0 1297.89315792 0 -562.06190521 0 1887
0.04250000 0.04250150 41764.77294870 0 2113.00336632 0 22304.17462642 0 674.55381456 0 2386.38740872 0 1920
0.04350000 0.04349210 39762.83459575 0 104.02225466 0 19457.52264196 0 3460.85436034 0 3917.69174943 0 2005
0.04450000 0.04448520 40423.88617370 0 -408.75571798 0 20301.24766194 0 2954.31178032 0 85.99690059 0 2151
0.04550000 0.04548030 38416.23584301 0 -630.69241624 0 14813.02566312 0 843.29881856 0 2857.90018678 0 2274
0.04650000 0.04648670 40348.86154297 0 1202.60199078 0 15555.91230680 0 1427.17059263 0 1255.50369233 0 2311
0.04750000 0.04749250 38167.43527404 0 773.16891337 0 17087.38141609 0 -1366.28310681 0 2305.62883111 0 2568
0.04850000 0.04851840 37465.19154891 0 269.61523555 0 17069.91594568 0 -2193.89375881 0 -154.94398700 0 2493
0.04950000 0.04949480 37006.25610646 0 1513.05896564 0 17531.04830265 0 -44.02671613 0 -1433.91512020 0 2644
0.05050000 0.05050630 35335.28292539 0 1238.71926543 0 18672.34539385 0 1912.17242582 0 -2448.62599697 0 2829
0.05150000 0.05149060 35665.69886864 0 -313.89294917 0 16701.05399840 0 -268.17296117 0 -2354.68593225 0 2784
0.05250000 0.05249300 33913.22015901 0 451.42748709 0 17076.94607213 0 3121.47500587 0 -642.80839980 0 3055
0.05350000 0.05348950 35132.72740699 0 -227.23345916 0 13507.83874900 0 2769.28763976 0 64.18813019 0 3009
0.05450000 0.05448610 32886.27246838 0 436.19188492 0 12916.20966977 0 736.06522410 0 1229.78880792 0 3336
0.05550000 0.05550870 33344.87837365 0 299.84697621 0 12349.95495320 0 2268.91838954 0 2186.63295633 0 3349
0.05650000 0.05647670 32558.27313110 0 335.81156530 0 10554.38376534 0 689.35882149 0 -1264.21445839 0 3324
0.05750000 0.05747970 32261.03059705 0 997.28495083 0 11493.04844613 0 -800.09649459 0 620.38009951 0 3639
0.05850000 0.05849280 31851.41588549 0 -31.93325095 0 10549.39676939 0 -350.49244655 0 732.08771037 0 3846
0.05950000 0.05951020 31936.32663155 0 -917.20082597 0 11056.52153175 0 896.55642026 0 -2395.76823371 0 3787
0.06050000 0.06049470 31626.12230185 0 812.12679849 0 10518.92556505 0 -305.37111776 0 -610.77409078 0 3930
0.06150000 0.06148310 31053.71622463 0 535.76044463 0 11604.98124074 0 -550.66101733 0 1314.97416829 0 4083
0.06250000 0.06249100 30586.10296985 0 157.47263561 0 11325.75340572 0 2693.15356720 0 649.48482302 0 4303
0.06350000 0.06350600 31356.01166207 0 666.79760786 0 11156.37129652 0 826.73847693 0 1034.99718542 0 4470
0.06450000 0.06451750 30512.50633355 0 -18.43441955 0 10830.74462691 0 809.98041300 0 2007.06814835 0 4479
0.06550000 0.06550280 31466.07707934 0 -96.67522329 0 11168.45432635 0 -112.06680639 0 1933.83400295 0 4636
0.06650000 0.06648880 29524.44402986 0 100.15974940 0 10917.46782744 0 -550.00633681 0 2957.91472013 0 4653
0.06750000 0.06749660 29937.90334182 0 538.83282958 0 12195.29217126 0 -1744.10846532 0 504.83118361 0 5220
0.06850000 0.06852730 27818.21037080 0 1587.64421347 0 12276.35831691 0 -546.77687247 0 487.04166831 0 5029
0.06950000 0.06949320 29058.69815241 0 361.14308813 0 13018.47604050 0 987.85579373 0 518.58496694 0 5040
0.07050000 0.07048030 28809.78773772 0 -1156.51072423 0 10887.60077460 0 2583.92297745 0 -1610.03077239 0 5475
0.07150000 0.07148790 28601.30055012 0 -167.92116105 0 10410.90327828 0 2949.62136783 0 269.72947511 0 5509
0.07250000 0.07249820 28599.76270996 0 865.91715196 0 8690.35672115 0 -1345.63211036 0 882.91797494 0 5916
0.07350000 0.07351270 27392.99756618 0 434.91657604 0 8421.57521466 0 171.14952693 0 712.22540623 0 5721
0.07450000 0.07449140 27162.76092487 0 123.53360171 0 9746.36959083 0 888.00163513 0 1283.64616728 0 6028
0.07550000 0.07549160 26110.76840876 0 623.52058881 0 7872.46741589 0 -302.83258304 0 319.21497459 0 6183
0.07650000 0.07648840 25992.68425351 0 255.74831113 0 7866.86528387 0 467.51109826 0 720.24194730 0 6330
0.07750000 0.07749960 25494.53388694 0 640.77295850 0 8397.24438639 0 -372.10679002 0 -2159.45712377 0 6583
0.07850000 0.07848650 24707.92864439 0 730.52131032 0 8768.94035340 0 -532.99562771 0 -1530.39262118 0 6549
0.07950000 0.07947320 24255.03471686 0 -2.51945452 0 7780.04322219 0 -138.13100021 0 -1324.73945331 0 6828
0.08050000 0.08048110 23929.56183128 0 -360.52795206 0 8029.21726662 0 1505.84210146 0 -2026.74151784 0 7147
0.08150000 0.08149960 24354.44509873 0 692.84642328 0 7076.74497809 0 -265.49492238 0 -3554.84934792 0 7386
0.08250000 0.08250610 23451.18369536 0 1092.09279678 0 8660.37982257 0 -730.45759980 0 -1126.31413420 0 7227
0.08350000 0.08350160 23017.18323267 0 167.88601042 0 8945.95674054 0 -173.92972225 0 -2588.74520482 0 7798
0.08450000 0.08449610 22457.07987675 0 -168.51652488 0 8931.13855213 0 208.06647846 0 -1595.25652227 0 7371
0.08550000 0.08548940 22373.04789650 0 398.70922790 0 9133.50733280 0 -370.63266038 0 -3343.79177034 0 8256
0.08650000 0.08650700 21310.51019071 0 701.71536718 0 9745.90823878 0 -680.95782038 0 -1550.51635815 0 8037
0.08750000 0.08749060 21085.87568142 0 534.85751276 0 10155.83051837 0 182.80635536 0 -1178.06245563 0 8155
0.08850000 0.08849210 20938.02333448 0 91.28344584 0 10739.22116817 0 1067.92344173 0 -2031.60768349 0 8718
0.08950000 0.08949900 20692.51813728 0 -136.17574629 0 9248.68057631 0 1914.62198550 0 -172.32267928 0 8571
0.09050000 0.09049190 20616.50489502 0 -312.64839710 0 7867.18383648 0 1079.21009006 0 -150.64792067 0 8932
0.09150000 0.09150830 20234.68115209 0 497.82632167 0 7181.16432505 0 1302.22107952 0 1462.44205519 0 9285
0.09250000 0.09250820 20335.62937411 0 363.14996954 0 6639.04271445 0 765.68622253 0 1436.45255646 0 9204
0.09350000 0.09350330 19448.51529245 0 6.39874420 0 6473.79080453 0 -109.76015599 0 1455.33503673 0 9349
0.09450000 0.09448040 19322.74193639 0 320.22335835 0 5416.93212276 0 429.28588414 0 1472.45998538 0 9564
0.09550000 0.09549270 18767.03240950 0 77.00998238 0 5129.86130292 0 401.62563192 0 1175.48108107 0 10155
0.09650000 0.09649430 18492.30824924 0 339.10913399 0 4784.82489357 0 505.60779289 0 299.95023119 0 9913
0.09750000 0.09749140 18575.13192650 0 386.53502611 0 4722.27873729 0 29.92812707 0 976.55376700 0 10476
0.09850000 0.09850240 18031.83496663 0 307.82397282 0 4800.58775522 0 -765.44236501 0 -444.54455391 0 10575
0.09950000 0.09950330 17348.92408925 0 574.04058161 0 5616.12636195 0 -781.97414675 0 -798.07313632 0 10882
0.10050000 0.10051200 16811.22926139 0 -52.57029700 0 5310.39275330 0 52.25789575 0 198.48902963 0 10875
0.10150000 0.10150300 16847.80788809 0 -164.77517946 0 5767.32900354 0 549.26817353 0 -363.50916506 0 11118
0.10250000 0.10250800 17036.08346213 0 310.17357289 0 5273.75920374 0 1640.09554755 0 -383.03094745 0 11575
0.10350000 0.10349800 16786.84351026 0 293.45725034 0 4739.71125398 0 -602.27093315 0 166.56127097 0 11364
0.10450000 0.10450100 16441.70823975 0 425.38636087 0 5325.24389543 0 -517.17125245 0 482.42045863 0 12093
0.10550000 0.10551000 15759.45643673 0 337.64598892 0 6283.86754460 0 -701.28916577 0 426.53424871 0 12067
0.10650000 0.10649700 15037.55032668 0 203.19262361 0 6170.63857043 0 247.42310357 0 335.82474679 0 12054
0.10750000 0.10749900 15464.41081719 0 -227.70250041 0 6277.29877020 0 807.16067322 0 52.93959833 0 12807
0.10850000 0.10850100 15516.91707413 0 89.39278120 0 5580.77800739 0 721.91929153 0 22.23771796 0 12736
0.10950000 0.10950300 15560.85536446 0 247.98111985 0 5357.73626112 0 -252.63088943 0 -391.80542403 0 12933
0.11050000 0.11050200 15039.74724120 0 269.00339486 0 5464.39646089 0 -151.07741745 0 1049.68026359 0 13428
0.11150000 0.11150900 14732.39890037 0 60.08440372 0 5255.85435043 0 520.71926939 0 924.94275272 0 13453
0.11250000 0.11250000 14696.25965658 0 131.24037783 0 5633.76758552 0 420.98374418 0 1257.11842450 0 13668
0.11350000 0.11349100 15054.68625991 0 69.63570927 0 5351.60686962 0 367.79754220 0 498.14926811 0 13791
0.11450000 0.11448600 14391.32792172 0 33.08597200 0 5546.35235692 0 -347.70895586 0 1580.84476304 0 14205
0.11550000 0.11549300 14155.59899413 0 404.73756133 0 5484.61905901 0 -327.89827921 0 869.66618658 0 14776
0.11650000 0.11649800 13873.95455314 0 283.55246124 0 5534.77461742 0 -182.85688439 0 808.85010048 0 14553
0.11750000 0.11747300 13891.96925217 0 54.72118615 0 5660.08662142 0 507.31809084 0 405.76132350 0 14568
0.11850000 0.11849100 13609.88542828 0 169.32608788 0 5435.55097329 0 256.53810189 0 -117.41519478 0 16015
0.11950000 0.11950300 13744.66613386 0 34.26000312 0 5371.32417741 0 -328.81549102 0 -195.09479670 0 15270
0.12050000 0.12050700 13412.82219617 0 72.83496603 0 4840.49470741 0 101.66254878 0 -449.84351172 0 15999
0.12150000 0.12150000 13090.09545374 0 -94.94778940 0 4541.91205551 0 860.29195234 0 123.86753271 0 15670
0.12250000 0.12250700 13331.53635907 0 48.31102898 0 4168.63431005 0 149.84384995 0 -1265.13716248 0 16887
0.12350000 0.12352200 13140.73433334 0 338.31604785 0 3918.19703977 0 -336.14989013 0 -1011.16835212 0 16407
0.12450000 0.12449800 12627.86463951 0 235.83987178 0 3839.77817611 0 89.02666540 0 -764.47242726 0 16306
0.12550000 0.12549900 12739.90727984 0 -69.25322645 0 3736.56713213 0 397.05165590 0 -1030.61434096 0 17523
0.12650000 0.12650100 12224.51113433 0 92.61730249 0 3684.09382891 0 241.13004193 0 -1379.76117737 0 17154
0.12750000 0.12750600 12379.94283635 0 63.77489057 0 2974.01810354 0 348.46689137 0 -868.32716718 0 18007
0.12850000 0.12850300 12471.22463450 0 46.90006063 0 3156.84532958 0 286.10527591 0 -795.74440694 0 17496
0.12950000 0.12949900 12224.40128860 0 127.17059369 0 2708.60886083 0 -99.66017104 0 -1187.37737318 0 18405
0.13050000 0.13049000 11894.86411116 0 264.43600958 0 3115.29069150 0 -147.39099490 0 -263.18706368 0 18100
0.13150000 0.13148800 12062.26899730 0 25.83099135 0 3384.56650376 0 57.14317456 0 -917.16567534 0 19059
0.13250000 0.13249300 11662.43055534 0 84.25013386 0 3243.94200558 0 -27.84402412 0 -187.89221246 0 18957
0.13350000 0.13349100 11741.40963220 0 42.10979837 0 3050.51466699 0 585.10753849 0 -229.09204884 0 19468
0.13450000 0.13450700 11949.45743689 0 -6.62433437 0 3114.75244745 0 -46.53185776 0 -258.82508991 0 19953
0.13550000 0.13551000 11627.71930598 0 224.37966720 0 3150.15572488 0 140.29496101 0 -4.13006748 0 19956
0.13650000 0.13649900 11291.81107644 0 107.96989035 0 2992.81270722 0 19.13534513 0 359.35589817 0 19723
0.13750000 0.13749600 11500.18841831 0 72.10240489 0 3184.63629821 0 -113.82214109 0 -52.27118709 0 20946
0.13850000 0.13851100 11118.69421256 0 221.80927722 0 2937.37356940 0 33.64486705 0 17.97603334 0 20955
0.13950000 0.13949800 10797.27463426 0 30.02248455 0 2983.09136049 0 499.58714866 0 315.68453296 0 20506
0.14050000 0.14048300 10985.89073005 0 43.51538428 0 3193.01752709 0 258.00783771 0 386.90300929 0 21447
0.14150000 0.14148400 10875.21017672 0 173.67268325 0 2651.34628396 0 0.11535559 0 284.91015441 0 21771
0.14250000 0.14249400 10844.81586439 0 44.42216075 0 2781.23885473 0 75.91569926 0 -147.33167820 0 22470
0.14350000 0.14350900 10744.55967044 0 91.55806015 0 2363.12208400 0 -20.54345749 0 286.15141112 0 22519
0.14450000 0.14449900 10495.01215054 0 45.75305156 0 2722.60320629 0 -20.89760011 0 346.43694236 0 22218
0.14550000 0.14550500 10461.19065156 0 91.97031116 0 2431.25938772 0 37.14125650 0 -6.15777564 0 23559
0.14650000 0.14650700 10389.36253145 0 273.27419668 0 2634.67170278 0 -264.96876135 0 64.27886276 0 23044
0.14750000 0.14750500 9909.36966336 0 109.05725319 0 2890.60125935 0 71.37280958 0 -14.29169785 0 23649
0.14850000 0.14849900 10119.93293518 0 50.94469010 0 2814.54407880 0 97.41887885 0 -0.21139041 0 23640
0.14950000 0.14949500 9894.84805841 0 157.38695595 0 2934.41871938 0 -298.03891556 0 -290.18934000 0 24457
0.15050000 0.15050000 9870.13277010 0 79.00774659 0 2638.47236489 0 135.20471007 0 174.33175761 0 24591
0.15150000 0.15149900 9755.00346488 0 -44.26541090 0 2874.65165996 0 276.94853621 0 -156.70151862 0 25020
0.15250000 0.15250500 9753.28987156 0 43.59743904 0 2725.18458085 0 -73.97066099 0 -260.24429668 0 25297
0.15350000 0.15350100 9679.07809920 0 211.42885613 0 3114.59866343 0 -26.43459361 0 -155.27242572 0 25452
0.15450000 0.15450400 9697.99353318 0 61.56523395 0 2928.09160557 0 -29.97371305 0 -163.72395587 0 26061
0.15550000 0.15549900 9271.15501181 0 137.17094857 0 2973.93022696 0 207.67323077 0 116.04981241 0 26128
0.15650000 0.15649500 9304.91060336 0 19.42709538 0 2967.83378917 0 -156.12702547 0 135.43209073 0 26331
0.15750000 0.15749700 9248.20823969 0 135.31126043 0 3005.13739766 0 269.44167931 0 312.39135810 0 27345
0.15850000 0.15849900 9139.55983229 0 88.13186212 0 2793.37680744 0 317.65077145 0 389.75680125 0 26980
0.15950000 0.15949700 9019.99275974 0 42.22601515 0 2723.71264812 0 165.41338313 0 247.54613078 0 27777
0.16050000 0.16050000 8878.77509464 0 170.09061414 0 2770.73760335 0 -168.29903035 0 583.37636985 0 28224
0.16150000 0.16150500 8765.35938273 0 205.93656984 0 2623.02805584 0 120.33818954 0 395.21723228 0 28075
0.16250000 0.16249700 8643.76016426 0 -41.87406945 0 2411.44321878 0 179.59336788 0 559.47064454 0 28590
0.16350000 0.16349900 8537.27571766 0 -42.35870879 0 2426.09663861 0 406.98061105 0 110.16977070 0 29163
0.16450000 0.16449100 8544.53652013 0 165.84727375 0 2161.50025427 0 -436.91247288 0 169.92145172 0 28996
0.16550000 0.16550500 8449.08058440 0 62.77837014 0 2020.27160459 0 97.58760189 0 102.11445409 0 30777
0.16650000 0.16650700 8439.99634288 0 36.23579819 0 2147.62673910 0 -34.87261273 0 -197.76185093 0 29211
0.16750000 0.16749900 8194.91954401 0 97.06803160 0 2150.64749656 0 -137.88274887 0 -449.46783934 0 30922
0.16850000 0.16850800 8157.17655262 0 202.80267128 0 2361.24372209 0 48.88848796 0 -152.21871455 0 30867
0.16950000 0.16949900 8247.37087809 0 -31.30097895 0 2163.20286302 0 420.81677868 0 27.81667253 0 30852
0.17050000 0.17049200 8257.57554602 0 -232.60930898 0 1914.66592379 0 399.43640660 0 154.45737044 0 31257
0.17150000 0.17149500 8240.39567450 0 118.68061754 0 1829.26087197 0 0.99223424 0 133.10336134 0 32608
0.17250000 0.17250900 8038.25756986 0 247.40223288 0 1991.39316327 0 -240.96856872 0 591.88831514 0 32361
0.17350000 0.17350400 7954.01688273 0 81.89372335 0 2266.34799956 0 -33.62795081 0 660.51662926 0 32508
0.17450000 0.17449800 7888.01058609 0 74.93818214 0 2119.12177325 0 -22.44247040 0 293.04972270 0 32791
0.17550000 0.17549800 7925.43502487 0 47.84649140 0 2143.84804613 0 88.64780749 0 371.08632323 0 33633
0.17650000 0.17650100 7643.02166381 0 55.77482636 0 2165.94900616 0 133.82394930 0 476.72605620 0 33984
0.17750000 0.17750300 7700.47097841 0 29.86639377 0 2076.90806082 0 64.95287613 0 554.54296528 0 34069
0.17850000 0.17849800 7740.42186889 0 37.19024770 0 2221.50897428 0 35.83530067 0 370.61508507 0 34536
