### header ###
fiducial parameters:
Omega_m = 0.31
Omega_nu = 0
Omega_de = 0.69
Omega_k = 0
H_0 = 100
w_de = -1
zeff = 0
beta = 0
fgrowth = 0
b_1 = 2
gamma = 0.55
Lx = 3500 Ly = 3500 Lz = 3500
nx = 700 ny = 700 nz = 700
xoffset = -983.599254 yoffset = -42.9823471 zoffset = 800.977702
bins = 400 dk = 0.001
kx_ny = 0.628318531 ky_ny = 0.628318531 kz_ny = 0.628318531
############################
A(data) = 9.04659377 (not used)
A(ran) = 9.04614301 (used)
Ngal = 501623
weighted Ngal = 0
Nran = 25229228
weighted Nran = 0
SN(data) = 6756.59494
SN(ran) = 134.283761
SN(data+ran) = 6890.8787
############################
13 columns: k_central k_mean P_0(k) sigma^{lin}_{P_0(k)} P^img_1(k) sigma^{lin}_{P_1(k)} P_2(k) sigma^{lin}_{P_2(k)} P^img_3(k) sigma^{lin}_{P_3(k)} P_4(k) sigma^{lin}_{P_4(k)} N_modes
### header ###
0.00050000 0 0 0 0 0 0 0 0 0 0 0 0
0.00150000 0.00179520 -1579.15313887 0 627.14330084 0 11460.97349420 0 -20311.02393153 0 -26873.42728308 0 3
0.00250000 0.00253879 10250.66033347 0 -21294.69240619 0 -30256.12640950 0 30983.74449729 0 -2341.94382806 0 6
0.00350000 0.00331552 18277.34016382 0 -16093.71698038 0 5758.05802428 0 -6541.81826253 0 -6440.51853418 0 7
0.00450000 0.00420575 22222.44940641 0 -2251.47488828 0 -2918.37025884 0 -4074.71621448 0 1638.29407764 0 24
0.00550000 0.00557378 53107.11305902 0 -24692.66008850 0 -28342.06463720 0 19978.08153659 0 -2150.36189767 0 45
0.00650000 0.00659388 77269.65767475 0 -26567.17739951 0 -50641.62574314 0 -28868.00597240 0 -27269.53097036 0 40
0.00750000 0.00754703 72262.55995500 0 14592.34559996 0 -2315.28427041 0 -48732.83656568 0 -15470.89171502 0 57
0.00850000 0.00846663 68130.05390417 0 21500.43345064 0 -14597.83788625 0 -47352.51517511 0 -9124.56589072 0 75
0.00950000 0.00948925 54037.61620239 0 -3132.80010020 0 9416.87635168 0 3587.62731250 0 -8951.76757944 0 112
0.01050000 0.01054430 59625.90765742 0 -6425.18407086 0 136.89853117 0 20921.87601278 0 -18211.32288261 0 105
0.01150000 0.01145670 61664.64432852 0 -1346.66466018 0 4803.61949726 0 -2350.20422664 0 -25084.91917538 0 144
0.01250000 0.01249090 68906.00411131 0 5985.86707504 0 -7443.10244283 0 -9156.78364210 0 -14544.01348060 0 169
0.01350000 0.01339930 63195.34451773 0 -7152.43966775 0 6174.13166451 0 -6112.47525861 0 6205.40474265 0 180
0.01450000 0.01448870 64158.91122456 0 1683.56150125 0 1901.89086588 0 3845.68787616 0 -13918.33222637 0 267
0.01550000 0.01550050 76014.78010306 0 -5083.58329864 0 -7.85680342 0 9946.28881181 0 -2654.09242710 0 238
0.01650000 0.01653350 69949.09912364 0 -546.84058299 0 845.05305480 0 -5290.76332209 0 3479.94554749 0 315
0.01750000 0.01747870 81522.33494962 0 -2254.04527826 0 6760.37830318 0 15245.70797710 0 26043.76251601 0 297
0.01850000 0.01844180 81195.65376105 0 -10327.57431068 0 -6083.13546525 0 7853.67281220 0 16221.35771377 0 388
0.01950000 0.01947590 89862.81106490 0 -2134.89561947 0 -6432.38995047 0 1932.29616278 0 2288.44895959 0 399
0.02050000 0.02045430 86491.97527687 0 4801.14796843 0 -1888.24802673 0 -5600.11085513 0 23572.34353093 0 462
0.02150000 0.02154770 85471.39863833 0 6893.01701710 0 2146.27563667 0 -5381.01257042 0 14989.10836160 0 571
0.02250000 0.02255340 75239.26927881 0 4419.73065468 0 26457.00213652 0 -7255.46397399 0 9790.59348004 0 510
0.02350000 0.02348930 73380.78944378 0 7383.35735256 0 18946.30063403 0 -4637.55472897 0 13649.10035240 0 555
0.02450000 0.02439640 71168.93590880 0 -2581.66015550 0 25059.32512127 0 -822.04696598 0 13601.42730740 0 592
0.02550000 0.02547300 64630.91830838 0 711.83435545 0 22458.39802546 0 4445.91787572 0 15602.81643172 0 837
0.02650000 0.02652900 65785.94611531 0 3030.65455977 0 17243.58203819 0 8711.72171482 0 -1799.70138715 0 723
0.02750000 0.02749970 65552.19441078 0 2635.92394405 0 18923.34287733 0 -456.87144126 0 11043.55973611 0 826
0.02850000 0.02848090 59110.40166618 0 608.49369352 0 14321.35619438 0 -25.16917085 0 8966.65167529 0 831
0.02950000 0.02946900 60416.35750037 0 -146.02451407 0 14560.92972238 0 4499.30289846 0 5772.16221547 0 996
0.03050000 0.03053250 60469.19329449 0 1277.71449809 0 13812.22125523 0 4357.34926699 0 2958.57379449 0 1041
0.03150000 0.03150510 54335.73750224 0 1060.17712115 0 13025.28647551 0 -5667.22659360 0 -2369.76775041 0 1036
0.03250000 0.03246190 57410.97844212 0 2042.19681146 0 10465.29888171 0 809.14558549 0 4012.46664166 0 1059
0.03350000 0.03345080 54314.09789426 0 -568.08145099 0 11653.75274300 0 3005.98320975 0 -3685.22523989 0 1302
0.03450000 0.03451200 54777.42716574 0 653.23385764 0 11854.88026696 0 1324.68453045 0 -7095.30890576 0 1339
0.03550000 0.03553350 51998.11061121 0 2125.70153222 0 10722.20606524 0 -3389.35577741 0 -1346.85139792 0 1365
0.03650000 0.03647120 50253.32110239 0 1478.08408655 0 11717.79280115 0 1587.43550659 0 2717.82491722 0 1308
0.03750000 0.03744890 50651.84139564 0 -825.62354282 0 9474.51240401 0 4113.30501795 0 -3263.01122358 0 1579
0.03850000 0.03847530 49349.07108749 0 979.40316513 0 12169.14888852 0 -4465.65715265 0 -4566.96786556 0 1662
0.03950000 0.03950240 47504.21212245 0 2444.07838392 0 13036.71043099 0 -1665.09643474 0 -3129.96608047 0 1683
0.04050000 0.04050350 45172.07751771 0 1513.92674688 0 15061.60654063 0 -2335.34209994 0 -3340.89184318 0 1822
0.04150000 0.04152450 43919.61655198 0 453.24104002 0 14101.00566840 0 1808.82956697 0 -6187.85139567 0 1887
0.04250000 0.04250150 43885.45453126 0 1315.30370546 0 16600.98454218 0 1527.41580201 0 -5595.79391811 0 1920
0.04350000 0.04349210 41481.37097610 0 1126.80843997 0 13486.52867820 0 -532.75616402 0 -2762.09274472 0 2005
0.04450000 0.04448520 39384.63576178 0 814.78836042 0 16334.27911991 0 1385.63792370 0 -1054.23995967 0 2151
0.04550000 0.04548030 40668.18306791 0 335.12063568 0 14883.10723619 0 1703.02616387 0 -4131.81402275 0 2274
0.04650000 0.04648670 40825.26245582 0 -7.50906480 0 15101.15100193 0 750.52641391 0 42.32114155 0 2311
0.04750000 0.04749250 39032.90974772 0 650.99300483 0 13974.13385508 0 275.67652270 0 -1641.06218993 0 2568
0.04850000 0.04851840 38626.91994512 0 948.53322080 0 15175.95594121 0 -606.38026175 0 1133.98136586 0 2493
0.04950000 0.04949480 39200.31463386 0 -163.71297130 0 15694.64745850 0 2356.44346387 0 -524.90219463 0 2644
0.05050000 0.05050630 37799.45209256 0 710.97536187 0 14604.64832125 0 -490.99391753 0 -1813.70671720 0 2829
0.05150000 0.05149060 36964.07534775 0 1692.42605133 0 16475.76041476 0 -1635.91042539 0 -1641.63338771 0 2784
0.05250000 0.05249300 34703.56015624 0 1093.74817187 0 15889.73346754 0 -575.35653341 0 102.77297922 0 3055
0.05350000 0.05348950 34302.18387412 0 -214.87801192 0 16622.29461299 0 1841.38784010 0 -1237.22536355 0 3009
0.05450000 0.05448610 33261.17593058 0 636.18580099 0 15281.84722089 0 1494.11057794 0 -3868.66760200 0 3336
0.05550000 0.05550870 33239.53632260 0 1129.78525914 0 14347.93886002 0 2231.04358328 0 -666.77563872 0 3349
0.05650000 0.05647670 32707.66331821 0 -313.70071915 0 12610.17947766 0 457.66013357 0 207.77209192 0 3324
0.05750000 0.05747970 32742.04503039 0 -659.30283399 0 13852.97401951 0 1811.69654041 0 -1762.95799187 0 3639
0.05850000 0.05849280 33380.24869736 0 462.23850342 0 11825.99084107 0 -522.10442399 0 -1751.81963527 0 3846
0.05950000 0.05951020 32395.26207399 0 523.45882179 0 12279.54384296 0 -932.37271762 0 -721.05700259 0 3787
0.06050000 0.06049470 32432.06039214 0 -336.24545592 0 12115.21463714 0 1415.64777599 0 -1373.36815613 0 3930
0.06150000 0.06148310 33255.02456994 0 -513.27502455 0 11451.63660750 0 2302.36641305 0 -412.60910604 0 4083
0.06250000 0.06249100 32532.78892271 0 887.63255350 0 12909.06969759 0 1309.32809798 0 1467.96729520 0 4303
0.06350000 0.06350600 31778.36847783 0 1003.52528651 0 11693.07751284 0 -774.89568818 0 1351.86036301 0 4470
0.06450000 0.06451750 31217.38635610 0 290.21680143 0 11797.54079809 0 2464.42181234 0 3419.23381483 0 4479
0.06550000 0.06550280 30616.31054445 0 -556.52348372 0 9522.28431017 0 259.50173958 0 2304.17886753 0 4636
0.06650000 0.06648880 30867.63756511 0 77.86985472 0 8902.53472513 0 1664.62409812 0 2702.71014535 0 4653
0.06750000 0.06749660 29706.67808898 0 1166.13320981 0 10270.00416578 0 -738.45656555 0 2174.86847910 0 5220
0.06850000 0.06852730 28487.17084100 0 1722.09538187 0 9430.02488506 0 -1458.38874791 0 2025.67601430 0 5029
0.06950000 0.06949320 27488.56334763 0 299.44274394 0 9605.19586401 0 2005.94772194 0 2725.67888662 0 5040
0.07050000 0.07048030 27190.99127641 0 -1121.66766000 0 7832.00025050 0 1834.14900677 0 1408.77143356 0 5475
0.07150000 0.07148790 28159.72073235 0 -174.80519269 0 6916.08461952 0 3083.21573957 0 2989.33059771 0 5509
0.07250000 0.07249820 27158.03755866 0 315.37476801 0 6293.73169078 0 -1638.09635534 0 1683.77020813 0 5916
0.07350000 0.07351270 27028.09006502 0 942.80366774 0 6057.65125686 0 -441.89068117 0 2471.94624456 0 5721
0.07450000 0.07449140 25945.56043713 0 791.66803205 0 6992.59216755 0 -834.63748308 0 2326.54345730 0 6028
0.07550000 0.07549160 25752.56149688 0 -50.24947650 0 8843.61347780 0 351.38549230 0 2235.84384150 0 6183
0.07650000 0.07648840 25501.34432194 0 458.96949462 0 8293.60494408 0 -234.19328435 0 1172.81182994 0 6330
0.07750000 0.07749960 25432.14151468 0 65.47255626 0 8675.53853274 0 47.07054120 0 2002.24592098 0 6583
0.07850000 0.07848650 24865.11787803 0 490.59407909 0 9459.01317210 0 -153.37429158 0 534.66638120 0 6549
0.07950000 0.07947320 24511.74417809 0 652.57807866 0 10430.10431115 0 -909.06565152 0 2013.40624672 0 6828
0.08050000 0.08048110 24285.57182864 0 470.87127902 0 10734.49780196 0 689.68945712 0 1642.02883232 0 7147
0.08150000 0.08149960 23501.16350061 0 168.48796500 0 10083.94747540 0 734.39007678 0 2988.58364678 0 7386
0.08250000 0.08250610 23487.21309343 0 222.16957120 0 10532.74415735 0 593.27237129 0 586.25322941 0 7227
0.08350000 0.08350160 23306.07749156 0 27.52283521 0 9479.26872394 0 -356.33184534 0 2666.63680899 0 7798
0.08450000 0.08449610 22626.24229450 0 748.34048396 0 9997.34510517 0 208.69150064 0 1381.28803296 0 7371
0.08550000 0.08548940 21722.76119969 0 439.24559610 0 10713.60514491 0 -1104.60861878 0 1612.48033208 0 8256
0.08650000 0.08650700 21185.61560046 0 641.74289626 0 10049.70856266 0 -193.06374923 0 -321.49317494 0 8037
0.08750000 0.08749060 21010.63135924 0 86.94124430 0 10005.23202828 0 1530.51345148 0 -219.52448612 0 8155
0.08850000 0.08849210 20770.39875688 0 91.41580994 0 10077.93891420 0 139.60842522 0 -1450.96317684 0 8718
0.08950000 0.08949900 20584.64963453 0 295.25872024 0 9171.26130876 0 436.62467708 0 -383.08916569 0 8571
0.09050000 0.09049190 19975.33539345 0 154.04984280 0 8171.41255869 0 846.16249663 0 -720.48360790 0 8932
0.09150000 0.09150830 19954.02532264 0 319.57636702 0 8278.64395623 0 441.40845844 0 -293.92958696 0 9285
0.09250000 0.09250820 19494.98003446 0 213.19737232 0 7500.13434367 0 792.49846574 0 285.81418474 0 9204
0.09350000 0.09350330 18989.47000427 0 -87.03197686 0 7557.36396682 0 724.15575051 0 545.94863569 0 9349
0.09450000 0.09448040 18756.15768264 0 110.52237548 0 6154.34844929 0 768.49827311 0 1327.79316449 0 9564
0.09550000 0.09549270 18405.63997157 0 249.70899312 0 6456.39124156 0 838.79624226 0 2198.11183468 0 10155
0.09650000 0.09649430 18688.93209845 0 -63.80608675 0 5837.25679259 0 838.93684478 0 2445.91280754 0 9913
0.09750000 0.09749140 18450.67671916 0 299.82171169 0 5297.25520449 0 162.22126634 0 625.78341076 0 10476
0.09850000 0.09850240 18490.00148900 0 315.56480112 0 5728.01521827 0 164.70158283 0 2308.89124916 0 10575
0.09950000 0.09950330 18116.41617551 0 -59.27659825 0 5104.88238487 0 -402.29129702 0 1962.36093794 0 10882
0.10050000 0.10051200 17793.25005016 0 222.58808342 0 5337.73335445 0 16.52694852 0 993.69848788 0 10875
0.10150000 0.10150300 17299.05412973 0 236.73181907 0 5144.04238613 0 -321.19768994 0 1682.59485886 0 11118
0.10250000 0.10250800 17228.75286521 0 94.60210491 0 5345.76307701 0 1025.44719802 0 390.76188964 0 11575
0.10350000 0.10349800 17121.54343681 0 307.11217252 0 5339.75451581 0 -736.66937560 0 367.78985300 0 11364
0.10450000 0.10450100 16246.84192216 0 813.59873121 0 4977.35149720 0 -625.52197793 0 -88.69965467 0 12093
0.10550000 0.10551000 15612.81239277 0 451.42089635 0 6472.22001065 0 -214.67040350 0 1037.05020203 0 12067
0.10650000 0.10649700 15672.67831333 0 -298.28936382 0 5289.95046372 0 649.70231755 0 -614.99106820 0 12054
0.10750000 0.10749900 15647.74333358 0 -68.40258115 0 5524.83357923 0 916.92731011 0 -989.47382127 0 12807
0.10850000 0.10850100 15499.67129518 0 -4.27107643 0 4488.48309447 0 95.50778291 0 778.98414609 0 12736
0.10950000 0.10950300 15546.13603720 0 215.40197603 0 5136.35318532 0 373.56663972 0 337.34720855 0 12933
0.11050000 0.11050200 15005.25568329 0 501.35127101 0 4658.59018547 0 39.03389836 0 429.44625890 0 13428
0.11150000 0.11150900 14830.71082497 0 184.49688108 0 5222.15368175 0 -292.51367555 0 540.18612892 0 13453
0.11250000 0.11250000 14381.33196067 0 -18.14761236 0 4678.07681722 0 762.67535118 0 1867.16863195 0 13668
0.11350000 0.11349100 14218.76028647 0 316.76211953 0 4875.15103391 0 158.61503116 0 687.37171231 0 13791
0.11450000 0.11448600 14109.46378928 0 154.89235951 0 4843.77909461 0 626.02726827 0 2493.59683712 0 14205
0.11550000 0.11549300 14130.11478574 0 -21.74560911 0 4038.59893983 0 319.97840238 0 1001.53048813 0 14776
0.11650000 0.11649800 13841.00083540 0 134.28749826 0 4397.36606491 0 -603.56491580 0 955.76216802 0 14553
0.11750000 0.11747300 13496.30494779 0 527.67799612 0 4432.12125256 0 -675.07338485 0 1074.58448654 0 14568
0.11850000 0.11849100 12973.65898437 0 124.36733077 0 4989.35763503 0 424.31097121 0 1104.38892733 0 16015
0.11950000 0.11950300 13609.99527401 0 -253.14057359 0 4134.40638188 0 461.55965684 0 41.95118115 0 15270
0.12050000 0.12050700 13280.89747947 0 48.20546724 0 4256.73058215 0 426.96484395 0 667.05135149 0 15999
0.12150000 0.12150000 13445.66606819 0 51.43734818 0 3779.75847152 0 104.24809747 0 704.75699533 0 15670
0.12250000 0.12250700 13011.77545123 0 135.82753534 0 4162.97725517 0 10.29190740 0 747.37274312 0 16887
0.12350000 0.12352200 13068.01646285 0 208.14446893 0 4177.05947722 0 -68.30899259 0 1026.51489847 0 16407
0.12450000 0.12449800 13014.19205720 0 135.66935749 0 4005.20583918 0 329.16699734 0 1409.12293988 0 16306
0.12550000 0.12549900 12915.00136679 0 -185.46132655 0 3621.92114810 0 170.02470670 0 957.01440929 0 17523
0.12650000 0.12650100 12798.23536025 0 142.24472264 0 4050.87969198 0 206.84828936 0 1127.08305428 0 17154
0.12750000 0.12750600 12604.13796274 0 208.03132783 0 3602.00611801 0 -378.57780173 0 540.82103721 0 18007
0.12850000 0.12850300 12755.61521863 0 101.44659208 0 3747.73844245 0 335.16127860 0 760.44767986 0 17496
0.12950000 0.12949900 12533.17762386 0 -55.65619297 0 3470.49881507 0 -41.41403555 0 470.06281447 0 18405
0.13050000 0.13049000 12405.75658192 0 189.99465965 0 3593.99836460 0 -74.86744150 0 74.34215924 0 18100
0.13150000 0.13148800 12261.41929820 0 236.76916662 0 3361.50988592 0 154.22669441 0 -222.13002674 0 19059
0.13250000 0.13249300 12078.30647327 0 -10.58723862 0 3508.05506872 0 14.87563773 0 356.34282991 0 18957
0.13350000 0.13349100 12067.10220923 0 20.59124038 0 3213.74541555 0 227.08846280 0 -142.03931113 0 19468
0.13450000 0.13450700 11758.43571970 0 364.39891544 0 3725.04431549 0 -494.19372352 0 2.65137924 0 19953
0.13550000 0.13551000 11422.41764444 0 370.16142222 0 4074.74916819 0 -217.03538198 0 544.64476693 0 19956
0.13650000 0.13649900 11245.23648870 0 11.60959476 0 4326.50458719 0 209.38572563 0 573.03439477 0 19723
0.13750000 0.13749600 11232.71407596 0 -133.25824381 0 3780.53837618 0 594.82229448 0 1157.87281123 0 20946
0.13850000 0.13851100 11384.30117758 0 107.31400152 0 4183.49643675 0 344.89910220 0 120.62159152 0 20955
0.13950000 0.13949800 11174.49584127 0 186.38073527 0 3868.61267913 0 -167.87392739 0 1700.49971217 0 20506
0.14050000 0.14048300 11012.91277860 0 179.64609382 0 4053.75764999 0 -128.95119290 0 1148.41509423 0 21447
0.14150000 0.14148400 10839.34554725 0 29.61188123 0 3859.14397757 0 550.29193569 0 1692.29423645 0 21771
0.14250000 0.14249400 10939.06349714 0 -61.71945735 0 3561.53895262 0 417.01391965 0 1096.03296297 0 22470
0.14350000 0.14350900 10725.02910039 0 211.03450998 0 3541.94247514 0 54.77028719 0 1302.77030815 0 22519
0.14450000 0.14449900 10828.33900552 0 245.82045443 0 3267.88837380 0 -24.56908365 0 1570.36548080 0 22218
0.14550000 0.14550500 10470.00027877 0 -126.00183517 0 3022.82255951 0 302.97538248 0 1320.86189919 0 23559
0.14650000 0.14650700 10323.51001883 0 -42.72240799 0 2904.35394422 0 560.76462719 0 1673.82916995 0 23044
0.14750000 0.14750500 10453.46849704 0 25.58592553 0 2643.99760490 0 -33.29698564 0 1032.54433036 0 23649
0.14850000 0.14849900 10116.80233199 0 357.94767596 0 2691.62671161 0 -497.42648323 0 1405.36621606 0 23640
0.14950000 0.14949500 9891.97010039 0 326.49005701 0 3154.74727622 0 10.31632611 0 956.58491250 0 24457
0.15050000 0.15050000 9936.22694332 0 -5.20919189 0 3320.28478502 0 -83.33237282 0 827.25475184 0 24591
0.15150000 0.15149900 9636.27121985 0 56.15763871 0 3449.61714259 0 -347.81880159 0 398.44669661 0 25020
0.15250000 0.15250500 9600.82400413 0 129.68166698 0 3409.89692814 0 -329.52619287 0 564.28628116 0 25297
0.15350000 0.15350100 9566.79379827 0 49.30831832 0 3215.52491631 0 377.32226508 0 172.37760215 0 25452
0.15450000 0.15450400 9725.11444288 0 -3.10627236 0 3616.79135271 0 14.41307738 0 -347.51672584 0 26061
0.15550000 0.15549900 9350.02424295 0 229.21178068 0 3345.08794991 0 -128.33166301 0 -67.44461658 0 26128
0.15650000 0.15649500 9289.69697033 0 74.48067470 0 3205.39714039 0 364.15176256 0 83.13981326 0 26331
0.15750000 0.15749700 9317.31218580 0 -86.62093416 0 3157.62523423 0 -95.48163963 0 -415.18498831 0 27345
0.15850000 0.15849900 9172.06318256 0 114.87226623 0 2986.84808431 0 33.47856062 0 -451.63399705 0 26980
0.15950000 0.15949700 8929.19428279 0 186.98928059 0 2939.93297482 0 -54.22644101 0 -289.09198120 0 27777
0.16050000 0.16050000 8863.85804507 0 54.70361084 0 2844.10356362 0 110.99800748 0 -424.98981780 0 28224
0.16150000 0.16150500 8916.19953342 0 -5.00482391 0 2548.95908293 0 695.66945844 0 -325.60689737 0 28075
0.16250000 0.16249700 8938.97055238 0 -71.01339436 0 2296.94003419 0 467.05194313 0 -215.18228458 0 28590
0.16350000 0.16349900 8979.19605718 0 64.29182455 0 2142.05756080 0 -189.57944281 0 -248.48201636 0 29163
0.16450000 0.16449100 8657.62269486 0 230.38053921 0 2460.92871826 0 -384.75222998 0 -138.52974020 0 28996
0.16550000 0.16550500 8364.56528296 0 351.24818515 0 2552.25445470 0 -324.12068470 0 17.36100712 0 30777
0.16650000 0.16650700 8303.93044231 0 12.16816028 0 2854.48398471 0 192.77265806 0 -134.68184442 0 29211
0.16750000 0.16749900 8177.08059814 0 44.92129973 0 2805.65755958 0 216.11157942 0 -82.38165806 0 30922
0.16850000 0.16850800 8409.66793798 0 -35.46534026 0 2681.58681228 0 386.26700254 0 193.23620702 0 30867
0.16950000 0.16949900 8261.72771445 0 -66.23235915 0 2080.78561494 0 302.66122371 0 406.13589742 0 30852
0.17050000 0.17049200 8186.48339227 0 137.98380694 0 2247.01515181 0 -128.32836764 0 261.31309559 0 31257
0.17150000 0.17149500 7978.89693963 0 162.62440015 0 2368.74618516 0 2.79440936 0 871.22160206 0 32608
0.17250000 0.17250900 7831.71465161 0 96.52671187 0 2063.17734509 0 329.49982989 0 577.50950964 0 32361
0.17350000 0.17350400 7929.33454814 0 -71.92467450 0 2012.71421865 0 274.76590164 0 1006.86569504 0 32508
0.17450000 0.17449800 7938.72635770 0 35.91746527 0 1860.75364156 0 13.23750842 0 294.07787869 0 32791
0.17550000 0.17549800 7772.13432993 0 181.73426107 0 1937.09642100 0 -72.73017321 0 732.14153478 0 33633
0.17650000 0.17650100 7735.12730490 0 101.95429903 0 2010.53927328 0 -238.15541968 0 303.52680802 0 33984
0.17750000 0.17750300 7683.67556693 0 22.76640544 0 2051.99505020 0 -64.70374602 0 431.10053553 0 34069
0.17850000 0.17849800 7680.53397917 0 -41.13195172 0 2164.57593459 0 148.47187684 0 -27.87939444 0 34536
