### header ###
fiducial parameters:
Omega_m = 0.31
Omega_nu = 0
Omega_de = 0.69
Omega_k = 0
H_0 = 100
w_de = -1
zeff = 0
beta = 0
fgrowth = 0
b_1 = 2
gamma = 0.55
Lx = 3500 Ly = 3500 Lz = 3500
nx = 700 ny = 700 nz = 700
xoffset = -983.599254 yoffset = -42.9823471 zoffset = 800.977702
bins = 400 dk = 0.001
kx_ny = 0.628318531 ky_ny = 0.628318531 kz_ny = 0.628318531
############################
A(data) = 9.10632669 (not used)
A(ran) = 9.12788793 (used)
Ngal = 507148
weighted Ngal = 0
Nran = 25229228
weighted Nran = 0
SN(data) = 6681.55116
SN(ran) = 135.497208
SN(data+ran) = 6817.04837
############################
13 columns: k_central k_mean P_0(k) sigma^{lin}_{P_0(k)} P^img_1(k) sigma^{lin}_{P_1(k)} P_2(k) sigma^{lin}_{P_2(k)} P^img_3(k) sigma^{lin}_{P_3(k)} P_4(k) sigma^{lin}_{P_4(k)} N_modes
### header ###
0.00050000 0 0 0 0 0 0 0 0 0 0 0 0
0.00150000 0.00179520 28446.41807673 0 4131.39660900 0 13500.03970247 0 -6844.90458919 0 -74356.98840908 0 3
0.00250000 0.00253879 43319.19981469 0 -3475.51876474 0 32924.71847241 0 1987.29591770 0 12302.72129110 0 6
0.00350000 0.00331552 32726.44693732 0 -3841.82130661 0 15686.51887479 0 2145.79231548 0 21509.44080016 0 7
0.00450000 0.00420575 37409.60961165 0 -13340.32401714 0 15717.27567801 0 13295.72665246 0 0.45339153 0 24
0.00550000 0.00557378 65091.39159099 0 -4438.74494982 0 40088.41732706 0 3520.58846604 0 5799.73349265 0 45
0.00650000 0.00659388 81448.29893042 0 -9928.23017449 0 -12067.65143786 0 -24934.86991392 0 -36134.63027214 0 40
0.00750000 0.00754703 101359.92380289 0 -2809.65594400 0 79699.77466692 0 -16852.97063720 0 16714.23548550 0 57
0.00850000 0.00846663 91004.54753901 0 509.97855432 0 29338.91459896 0 -2956.13521937 0 -16740.26892252 0 75
0.00950000 0.00948925 95678.26348092 0 5663.54676179 0 62769.91202165 0 16546.39121645 0 7479.09888718 0 112
0.01050000 0.01054430 104528.64345543 0 919.71519463 0 59988.17886115 0 6927.48660586 0 -13867.25396387 0 105
0.01150000 0.01145670 107482.50486828 0 7002.64305146 0 72562.21909501 0 19533.86542140 0 -11368.15385588 0 144
0.01250000 0.01249090 91490.72472146 0 6117.75883803 0 60498.30241183 0 -3000.97424465 0 -6833.19503482 0 169
0.01350000 0.01339930 87778.59826332 0 5459.46438780 0 47125.13452267 0 -6605.88028982 0 -2787.46710739 0 180
0.01450000 0.01448870 78812.11135662 0 7598.02885452 0 68445.53082870 0 12204.84874940 0 -9770.32694363 0 267
0.01550000 0.01550050 72569.68860437 0 4853.99474711 0 53141.05538830 0 11540.83133686 0 5254.48127886 0 238
0.01650000 0.01653350 79826.64648023 0 -1313.12876009 0 56359.64500036 0 21271.51495805 0 4969.80509584 0 315
0.01750000 0.01747870 69165.45971569 0 -6768.07848856 0 32287.28372552 0 18802.51257894 0 7608.74979735 0 297
0.01850000 0.01844180 72952.06157593 0 179.34951036 0 22194.21905488 0 7962.42008076 0 6352.74081469 0 388
0.01950000 0.01947590 79155.81863269 0 2679.15922173 0 24161.88554137 0 -1811.16928093 0 -3319.91130955 0 399
0.02050000 0.02045430 72818.26948189 0 7053.57851452 0 29595.51421446 0 -1010.04463034 0 104.12803609 0 462
0.02150000 0.02154770 63803.99968446 0 3140.47831643 0 33580.27776407 0 -7066.05698897 0 5822.41663503 0 571
0.02250000 0.02255340 61833.80674627 0 167.28405584 0 36991.53677921 0 6908.99957021 0 5491.28669457 0 510
0.02350000 0.02348930 63445.79277258 0 1112.55046476 0 34985.86367158 0 984.46265926 0 -14399.23681398 0 555
0.02450000 0.02439640 59624.04028008 0 5071.66503739 0 30659.15037751 0 2074.65622344 0 374.09939149 0 592
0.02550000 0.02547300 61559.08258601 0 -968.65585931 0 36159.56525189 0 472.08397583 0 -2136.65315109 0 837
0.02650000 0.02652900 60071.99114995 0 -2625.18103207 0 28607.01252787 0 11834.44896196 0 -3124.23213359 0 723
0.02750000 0.02749970 60844.09675669 0 -5574.80239990 0 22526.50237546 0 9704.01307896 0 3280.83918488 0 826
0.02850000 0.02848090 62194.75980129 0 594.90797415 0 14544.78240068 0 8759.25196038 0 -1823.84547769 0 831
0.02950000 0.02946900 65420.15984835 0 4746.34593582 0 13780.25614902 0 -2995.81149554 0 7303.15898814 0 996
0.03050000 0.03053250 59440.48807225 0 1859.91881405 0 14192.39731227 0 1086.86304177 0 988.10184815 0 1041
0.03150000 0.03150510 58978.80648665 0 -1103.26850092 0 13761.25283846 0 3774.52981497 0 8503.09172778 0 1036
0.03250000 0.03246190 60466.66684279 0 -1923.60736587 0 6430.91801775 0 4547.48123381 0 -5603.19752003 0 1059
0.03350000 0.03345080 57108.57315895 0 1871.27686209 0 10192.71671310 0 -2726.34894554 0 3022.74566751 0 1302
0.03450000 0.03451200 57038.49158588 0 3143.72974992 0 13199.94117955 0 -4671.26638222 0 -2335.35308451 0 1339
0.03550000 0.03553350 53146.10829168 0 3176.85922082 0 18722.98427345 0 -9262.93855152 0 77.56766913 0 1365
0.03650000 0.03647120 48388.03083235 0 2688.46315471 0 20239.84390121 0 -237.50842835 0 -4988.98415957 0 1308
0.03750000 0.03744890 48848.94349786 0 -376.92242664 0 19998.84237877 0 5700.07046562 0 4191.55911302 0 1579
0.03850000 0.03847530 48093.42459572 0 -651.41481242 0 24378.50131268 0 8346.69338337 0 2234.21812475 0 1662
0.03950000 0.03950240 48366.17153291 0 2403.12789734 0 17989.65420792 0 -1622.33349368 0 3755.10909065 0 1683
0.04050000 0.04050350 44494.76877234 0 3384.22598201 0 24482.74490648 0 272.05600758 0 9892.68409761 0 1822
0.04150000 0.04152450 42249.85167389 0 458.31481410 0 18729.13563409 0 43.91049936 0 7723.64842656 0 1887
0.04250000 0.04250150 43043.04765999 0 318.14288030 0 25854.05894753 0 1930.00038711 0 4513.94533371 0 1920
0.04350000 0.04349210 41021.88630503 0 701.38033772 0 19497.50648616 0 -2204.15334960 0 -261.60198985 0 2005
0.04450000 0.04448520 39306.20591355 0 1516.93651977 0 19656.01386851 0 -1590.65398636 0 149.34295344 0 2151
0.04550000 0.04548030 38680.52465931 0 -8.59974498 0 21808.55071155 0 713.82366154 0 1092.30260212 0 2274
0.04650000 0.04648670 39081.13202135 0 441.19096390 0 19185.43477912 0 4387.89736334 0 -5060.32895848 0 2311
0.04750000 0.04749250 40424.87478523 0 -1039.63926579 0 17723.05863137 0 2756.18304468 0 -2912.22988277 0 2568
0.04850000 0.04851840 38489.28325067 0 121.48827429 0 13130.18914366 0 102.55218931 0 -8182.17743982 0 2493
0.04950000 0.04949480 38260.69429525 0 1778.33639348 0 14463.93594648 0 154.78910453 0 38.61450738 0 2644
0.05050000 0.05050630 37482.76686504 0 1303.71498139 0 16505.30891500 0 -1297.02537669 0 -6702.59945140 0 2829
0.05150000 0.05149060 36104.09316036 0 508.86032483 0 16464.66599645 0 -960.05164361 0 -1340.70003727 0 2784
0.05250000 0.05249300 34506.27723268 0 2.21060129 0 15257.68116121 0 3275.88514264 0 -4217.59255004 0 3055
0.05350000 0.05348950 35577.71244226 0 -401.88596629 0 14640.67771932 0 560.50099745 0 380.75164864 0 3009
0.05450000 0.05448610 36067.95391657 0 509.81488419 0 14879.81186441 0 3507.90128471 0 -1948.13591645 0 3336
0.05550000 0.05550870 35085.16420771 0 398.15011316 0 14457.56489439 0 -1022.10678949 0 1235.75343083 0 3349
0.05650000 0.05647670 33881.14520707 0 504.49285877 0 13984.45935331 0 178.84422003 0 -434.91547758 0 3324
0.05750000 0.05747970 33742.73959255 0 241.07072524 0 14220.95720098 0 1906.92180012 0 3442.75178473 0 3639
0.05850000 0.05849280 34458.82387913 0 -854.03184443 0 12888.85808404 0 3334.99312770 0 3869.95279699 0 3846
0.05950000 0.05951020 34915.67225278 0 29.66691394 0 11728.77737373 0 461.18727983 0 423.83643768 0 3787
0.06050000 0.06049470 35055.50586174 0 701.76040393 0 10734.95915400 0 -1110.73801028 0 3341.84750099 0 3930
0.06150000 0.06148310 32523.23234457 0 1025.88328555 0 12414.54423998 0 -1679.24456423 0 1768.45027816 0 4083
0.06250000 0.06249100 32159.97252930 0 1303.37445964 0 13087.78869349 0 234.31631156 0 157.36059297 0 4303
0.06350000 0.06350600 31922.70576154 0 364.84488909 0 14200.74558743 0 253.43166477 0 876.78418961 0 4470
0.06450000 0.06451750 29997.43972521 0 848.40225098 0 13744.22675095 0 1111.56185322 0 42.47163019 0 4479
0.06550000 0.06550280 29810.81183706 0 349.02161229 0 13250.03083052 0 -220.85691478 0 501.29195432 0 4636
0.06650000 0.06648880 30055.43826844 0 -241.79790395 0 12270.64633917 0 2654.60870202 0 -16.71094011 0 4653
0.06750000 0.06749660 30141.44747175 0 -495.80076649 0 11651.22629130 0 1261.95163644 0 2258.51599930 0 5220
0.06850000 0.06852730 28984.99167039 0 250.81843495 0 9742.26136068 0 1555.83289128 0 752.01811886 0 5029
0.06950000 0.06949320 29975.69027150 0 498.88193910 0 9592.99200388 0 -574.03508933 0 540.96163974 0 5040
0.07050000 0.07048030 28225.07893921 0 1182.22560864 0 10628.12320108 0 -548.04888597 0 -442.13124331 0 5475
0.07150000 0.07148790 27719.12952612 0 606.61752852 0 11125.39480184 0 -1440.31912601 0 983.64760397 0 5509
0.07250000 0.07249820 27045.22599825 0 193.89967521 0 11290.27323628 0 1897.43112941 0 1802.39260744 0 5916
0.07350000 0.07351270 27249.86858544 0 -421.39676411 0 9120.10615425 0 1769.31805939 0 -497.92737974 0 5721
0.07450000 0.07449140 27307.75728295 0 42.68978381 0 9460.41919739 0 381.99290535 0 769.35726668 0 6028
0.07550000 0.07549160 26089.01895505 0 1121.06350851 0 9193.82362084 0 501.24691757 0 1957.54969515 0 6183
0.07650000 0.07648840 26075.17839359 0 192.48156689 0 8707.13016348 0 -149.98774785 0 2033.79361344 0 6330
0.07750000 0.07749960 25762.33776648 0 321.27348349 0 9921.90306068 0 -12.02195562 0 -982.86989623 0 6583
0.07850000 0.07848650 24550.84925648 0 771.36524655 0 10062.64838916 0 -962.80327904 0 503.20436841 0 6549
0.07950000 0.07947320 23980.64009378 0 242.30319429 0 9958.26199592 0 -671.49900493 0 379.77951397 0 6828
0.08050000 0.08048110 23663.73517481 0 -6.02485132 0 9897.23171066 0 1012.29207389 0 -1591.77441276 0 7147
0.08150000 0.08149960 23994.15111806 0 262.11167402 0 9588.04894621 0 512.49841527 0 -1392.81084960 0 7386
0.08250000 0.08250610 23401.09404439 0 750.11559089 0 8936.08160979 0 -221.08319697 0 -2398.89883689 0 7227
0.08350000 0.08350160 23103.74166461 0 162.96492190 0 9822.37184852 0 -1266.59811064 0 -2477.66920688 0 7798
0.08450000 0.08449610 22144.01955818 0 101.15011847 0 8897.83332807 0 1621.08125241 0 -2485.18265452 0 7371
0.08550000 0.08548940 22451.69743618 0 198.00900381 0 8740.35849554 0 147.86772535 0 -2236.48094671 0 8256
0.08650000 0.08650700 22245.29731738 0 400.03726272 0 8341.09125135 0 350.54956633 0 -2929.55255373 0 8037
0.08750000 0.08749060 21338.41100507 0 87.50607102 0 8091.08237940 0 1411.46265384 0 -591.83888457 0 8155
0.08850000 0.08849210 21230.98188522 0 182.93926868 0 7188.12854407 0 681.15224731 0 -1734.12348884 0 8718
0.08950000 0.08949900 20877.71803100 0 479.45791940 0 7408.00673343 0 167.35435711 0 -1312.78823834 0 8571
0.09050000 0.09049190 20356.06067912 0 -24.73077656 0 7055.79739818 0 314.27411384 0 -1226.92183447 0 8932
0.09150000 0.09150830 19761.90514819 0 528.62376782 0 6318.67765511 0 146.25519009 0 -561.69611895 0 9285
0.09250000 0.09250820 19411.05789994 0 673.43888045 0 7115.59741132 0 -588.76210579 0 -1592.59825571 0 9204
0.09350000 0.09350330 19412.70558583 0 101.61937941 0 6499.28599749 0 1367.24974920 0 -51.37319828 0 9349
0.09450000 0.09448040 18713.31784958 0 -278.15134690 0 6206.26153931 0 1087.61878037 0 -808.04383286 0 9564
0.09550000 0.09549270 18814.26607160 0 587.44725245 0 5397.67616703 0 251.62030875 0 -497.11891520 0 10155
0.09650000 0.09649430 18000.63878050 0 326.34945448 0 5578.26254027 0 -324.06795875 0 481.61858483 0 9913
0.09750000 0.09749140 17478.65189143 0 552.07912565 0 5859.47858292 0 364.54391180 0 950.55328370 0 10476
0.09850000 0.09850240 16965.56250616 0 108.23637608 0 5985.24095440 0 116.46832462 0 1412.39634251 0 10575
0.09950000 0.09950330 16361.41101418 0 196.54256337 0 6174.73581601 0 80.21253452 0 1587.49042946 0 10882
0.10050000 0.10051200 16741.03784260 0 353.78232604 0 6332.29852511 0 -56.61602492 0 -102.33019110 0 10875
0.10150000 0.10150300 16562.64838388 0 493.92350303 0 6202.16429374 0 -962.61434439 0 -39.37991240 0 11118
0.10250000 0.10250800 15901.70665166 0 186.67182645 0 7277.92742492 0 -131.31397447 0 9.60994120 0 11575
0.10350000 0.10349800 15535.15146462 0 54.85717516 0 6903.60614507 0 -463.53468299 0 -40.80131609 0 11364
0.10450000 0.10450100 15431.45709945 0 -88.52994303 0 7172.01417609 0 914.22620371 0 -527.27046848 0 12093
0.10550000 0.10551000 15626.10372559 0 -103.40206569 0 6137.45417666 0 841.96199607 0 -492.70970776 0 12067
0.10650000 0.10649700 15447.71426687 0 25.18092434 0 5891.95996404 0 80.78175507 0 -694.85660006 0 12054
0.10750000 0.10749900 15770.11147213 0 73.89684466 0 5716.52535535 0 391.33198895 0 -617.81300489 0 12807
0.10850000 0.10850100 16086.57700820 0 194.66859529 0 5943.24693343 0 -389.88751766 0 -976.87891035 0 12736
0.10950000 0.10950300 15382.79544291 0 68.62556797 0 5458.34396140 0 -113.33881989 0 -259.44132443 0 12933
0.11050000 0.11050200 15365.11028106 0 110.78161140 0 6430.06122109 0 258.29563351 0 -145.02272105 0 13428
0.11150000 0.11150900 15094.99964128 0 110.36200072 0 5840.84874782 0 473.04292901 0 -160.91739757 0 13453
0.11250000 0.11250000 15195.06909750 0 176.24636861 0 5607.53642620 0 529.23780543 0 -211.73971954 0 13668
0.11350000 0.11349100 14703.83901166 0 215.35913620 0 5803.95156852 0 196.52279114 0 523.33579458 0 13791
0.11450000 0.11448600 14589.16007391 0 45.87552955 0 5179.68732415 0 540.31025459 0 1568.79468692 0 14205
0.11550000 0.11549300 14892.88350579 0 10.57642980 0 5317.76340150 0 382.37516847 0 919.93598454 0 14776
0.11650000 0.11649800 14068.27164210 0 449.19322503 0 4877.76536218 0 -133.86898605 0 1111.89139040 0 14553
0.11750000 0.11747300 14031.91270686 0 182.66355591 0 5064.93149439 0 43.36149042 0 473.58117307 0 14568
0.11850000 0.11849100 13793.10809894 0 136.11752806 0 4913.66294538 0 157.93508612 0 1066.57453622 0 16015
0.11950000 0.11950300 13727.96958353 0 -36.24458584 0 5148.33735400 0 203.67264943 0 986.61014320 0 15270
0.12050000 0.12050700 13744.55628813 0 18.73902175 0 4554.26969966 0 345.35935579 0 667.97185867 0 15999
0.12150000 0.12150000 13661.62276514 0 -81.04208944 0 4350.87935374 0 341.54111836 0 1561.66569932 0 15670
0.12250000 0.12250700 13742.46921934 0 128.77543974 0 4520.90955273 0 -95.54820614 0 325.57723902 0 16887
0.12350000 0.12352200 13530.90635142 0 440.34954564 0 4351.07707605 0 -395.67748587 0 680.42726552 0 16407
0.12450000 0.12449800 13033.52490494 0 244.98892228 0 4837.35311965 0 -44.42424782 0 613.14126617 0 16306
0.12550000 0.12549900 13088.55761357 0 -51.15240837 0 4963.42305917 0 86.69903447 0 885.71135175 0 17523
0.12650000 0.12650100 12829.32170065 0 -206.71317912 0 4088.38102277 0 1140.68195514 0 271.83961150 0 17154
0.12750000 0.12750600 13039.23688268 0 201.01548132 0 4043.36624433 0 287.13782573 0 862.81071483 0 18007
0.12850000 0.12850300 12892.48299300 0 106.31638264 0 3426.51658645 0 32.75061300 0 1332.21994724 0 17496
0.12950000 0.12949900 12758.91059041 0 204.37016979 0 3923.05222085 0 96.73508921 0 735.43031581 0 18405
0.13050000 0.13049000 12371.70440692 0 424.94148568 0 3922.84351397 0 -446.99301514 0 808.50738182 0 18100
0.13150000 0.13148800 11908.59482689 0 178.71350361 0 4067.53230401 0 -390.48727532 0 922.70519529 0 19059
0.13250000 0.13249300 11707.68699437 0 -143.16632828 0 4028.41624105 0 824.63053745 0 1398.41298161 0 18957
0.13350000 0.13349100 12085.33659972 0 -104.86268431 0 3327.47968006 0 798.32687995 0 513.00150869 0 19468
0.13450000 0.13450700 12009.43320318 0 20.66593547 0 3190.97439659 0 -11.92693906 0 502.41347918 0 19953
0.13550000 0.13551000 11955.82848899 0 298.36515737 0 3400.80170204 0 -326.01991730 0 865.78314017 0 19956
0.13650000 0.13649900 11773.26489268 0 81.22311519 0 3163.61182629 0 -95.38233910 0 871.58189604 0 19723
0.13750000 0.13749600 11427.03116492 0 159.52784914 0 3588.02275712 0 -66.04331465 0 236.49235539 0 20946
0.13850000 0.13851100 11250.17954636 0 362.68092829 0 3860.06668166 0 -307.10008949 0 203.33322614 0 20955
0.13950000 0.13949800 11066.51749280 0 25.10963446 0 3574.66551686 0 223.87217995 0 532.52329109 0 20506
0.14050000 0.14048300 11102.65673659 0 -27.48790427 0 3613.63878037 0 354.16568762 0 162.49038837 0 21447
0.14150000 0.14148400 10983.73775383 0 137.03693678 0 3524.49897388 0 224.46864224 0 510.85072938 0 21771
0.14250000 0.14249400 10755.87378020 0 250.98320354 0 3556.93641671 0 -428.65646813 0 194.09739751 0 22470
0.14350000 0.14350900 10443.67025829 0 14.54027873 0 3613.06758260 0 115.65656471 0 711.22361321 0 22519
0.14450000 0.14449900 10606.11011763 0 -21.97848205 0 3137.94088017 0 425.24905371 0 -64.11343509 0 22218
0.14550000 0.14550500 10591.53358981 0 -112.40293431 0 3127.37372134 0 380.43089912 0 427.74474860 0 23559
0.14650000 0.14650700 10749.68946584 0 176.50340761 0 2722.01003937 0 341.57297362 0 502.76388705 0 23044
0.14750000 0.14750500 10362.13177602 0 68.72047468 0 2619.29330117 0 52.25361177 0 838.91048181 0 23649
0.14850000 0.14849900 10283.70192779 0 154.80008910 0 2374.76573093 0 87.08887695 0 395.13484798 0 23640
0.14950000 0.14949500 10200.72446651 0 201.09017642 0 2540.68769977 0 -97.43469664 0 778.85782351 0 24457
0.15050000 0.15050000 9829.25917553 0 129.02808491 0 2850.93596776 0 -70.28489751 0 168.64065056 0 24591
0.15150000 0.15149900 9831.53298205 0 178.18404721 0 2798.50660283 0 -171.23960043 0 404.10484995 0 25020
0.15250000 0.15250500 9752.27929088 0 -70.16780196 0 2586.30662970 0 219.48274475 0 323.66043111 0 25297
0.15350000 0.15350100 9836.54194715 0 -130.51759295 0 2584.90060441 0 -146.42435251 0 -413.30113412 0 25452
0.15450000 0.15450400 9721.90694769 0 173.93082071 0 2719.92297058 0 -114.80965416 0 -636.65374378 0 26061
0.15550000 0.15549900 9749.25853342 0 270.04143697 0 2319.23871653 0 -87.33262462 0 -465.57451812 0 26128
0.15650000 0.15649500 9584.32517611 0 -9.44164656 0 2752.96456491 0 -46.24153550 0 -407.35408652 0 26331
0.15750000 0.15749700 9222.24071011 0 114.57019048 0 2962.87974694 0 206.28148542 0 -149.96797562 0 27345
0.15850000 0.15849900 9337.84235196 0 0.97334957 0 2733.99420806 0 196.40086238 0 -20.99755972 0 26980
0.15950000 0.15949700 9122.51177564 0 153.72799482 0 2725.36033401 0 132.61125249 0 27.39563386 0 27777
0.16050000 0.16050000 9088.69027667 0 286.96097412 0 2805.96512761 0 -109.55474449 0 18.74824879 0 28224
0.16150000 0.16150500 8909.54288244 0 85.15647094 0 2913.76772293 0 112.33592842 0 527.22653019 0 28075
0.16250000 0.16249700 8890.91304734 0 -67.65321361 0 2922.18190552 0 73.66704741 0 576.98993935 0 28590
0.16350000 0.16349900 8762.59127044 0 137.07977661 0 2767.99146020 0 185.76340229 0 419.44260865 0 29163
0.16450000 0.16449100 8669.95836987 0 133.18464718 0 2703.20445112 0 -201.00779212 0 624.80798071 0 28996
0.16550000 0.16550500 8431.79086716 0 18.62577081 0 2883.36242602 0 416.53059846 0 741.15547504 0 30777
0.16650000 0.16650700 8601.16199179 0 -17.16361435 0 2683.71781936 0 138.91090486 0 604.88196605 0 29211
0.16750000 0.16749900 8576.06224344 0 101.37277575 0 2462.96086419 0 58.61258084 0 488.50810875 0 30922
0.16850000 0.16850800 8365.71866308 0 135.24974682 0 2580.26511478 0 -301.58144022 0 565.21667446 0 30867
0.16950000 0.16949900 8238.94571092 0 72.91921770 0 2570.71952121 0 -112.45236489 0 107.13176747 0 30852
0.17050000 0.17049200 8124.51941834 0 67.22492512 0 2649.01755457 0 96.58723686 0 130.74607206 0 31257
0.17150000 0.17149500 8131.24197676 0 32.66789917 0 2557.62591069 0 93.81264367 0 -73.58795848 0 32608
0.17250000 0.17250900 7989.60689789 0 103.18468100 0 2573.94898555 0 -74.20990498 0 -167.98706849 0 32361
0.17350000 0.17350400 8076.12139155 0 124.02680902 0 2410.38869981 0 79.60091351 0 157.90982160 0 32508
0.17450000 0.17449800 7844.77530841 0 24.79723322 0 2632.26608139 0 -33.04038602 0 -212.77556473 0 32791
0.17550000 0.17549800 8034.83038321 0 21.69617853 0 2471.36406221 0 82.89991020 0 -30.77536716 0 33633
0.17650000 0.17650100 7814.01850518 0 59.25012543 0 2614.74568812 0 -6.96220884 0 -406.60493867 0 33984
0.17750000 0.17750300 7773.71610838 0 65.82395274 0 2468.77170308 0 67.45362392 0 130.60656799 0 34069
0.17850000 0.17849800 7867.61223481 0 -42.37265920 0 2469.74933004 0 299.20987100 0 146.03989247 0 34536
