### header ###
fiducial parameters:
Omega_m = 0.31
Omega_nu = 0
Omega_de = 0.69
Omega_k = 0
H_0 = 100
w_de = -1
zeff = 0
beta = 0
fgrowth = 0
b_1 = 2
gamma = 0.55
Lx = 3500 Ly = 3500 Lz = 3500
nx = 700 ny = 700 nz = 700
xoffset = -983.599254 yoffset = -42.9823471 zoffset = 800.977702
bins = 400 dk = 0.001
kx_ny = 0.628318531 ky_ny = 0.628318531 kz_ny = 0.628318531
############################
A(data) = 9.00834058 (not used)
A(ran) = 9.00178917 (used)
Ngal = 500077
weighted Ngal = 0
Nran = 25229228
weighted Nran = 0
SN(data) = 6723.62226
SN(ran) = 133.625359
SN(data+ran) = 6857.24762
############################
13 columns: k_central k_mean P_0(k) sigma^{lin}_{P_0(k)} P^img_1(k) sigma^{lin}_{P_1(k)} P_2(k) sigma^{lin}_{P_2(k)} P^img_3(k) sigma^{lin}_{P_3(k)} P_4(k) sigma^{lin}_{P_4(k)} N_modes
### header ###
0.00050000 0 0 0 0 0 0 0 0 0 0 0 0
0.00150000 0.00179520 42552.91603141 0 -35010.24942271 0 17465.25071288 0 -71644.56790157 0 -9154.50983557 0 3
0.00250000 0.00253879 56925.46033402 0 -6200.25297811 0 -13340.87324577 0 -13449.40082287 0 29766.76370100 0 6
0.00350000 0.00331552 55567.98685442 0 1350.71796746 0 -15066.76928975 0 -7080.18314931 0 -21839.19766905 0 7
0.00450000 0.00420575 59513.09609701 0 -9803.90678201 0 -204.68542702 0 -21266.02267175 0 14118.58098453 0 24
0.00550000 0.00557378 87880.09571397 0 -10981.76053076 0 -13355.15319012 0 -6725.84280698 0 -32574.20076134 0 45
0.00650000 0.00659388 96045.47774231 0 10659.63793981 0 10417.24137666 0 -31643.80746370 0 15566.12795930 0 40
0.00750000 0.00754703 65946.43072072 0 17280.49020207 0 14702.30117150 0 -38750.38654093 0 -2190.87300135 0 57
0.00850000 0.00846663 76924.08302134 0 6039.62557325 0 43917.63932892 0 -2165.43273125 0 -11107.48994853 0 75
0.00950000 0.00948925 69146.56625085 0 -5361.25132435 0 27103.11469575 0 5594.87121401 0 -32578.92412755 0 112
0.01050000 0.01054430 74832.73024758 0 -3613.50696550 0 40822.29662122 0 20322.77742419 0 -6268.51111213 0 105
0.01150000 0.01145670 78452.25675886 0 -10249.44104591 0 19997.08484716 0 23027.94811380 0 -1789.87019469 0 144
0.01250000 0.01249090 95436.38319268 0 -1320.56531573 0 21548.76557000 0 94.19721356 0 -21873.13999833 0 169
0.01350000 0.01339930 89697.27355610 0 9807.11427720 0 22037.68889559 0 -23619.57719303 0 -10819.52937831 0 180
0.01450000 0.01448870 81880.32217004 0 1143.20840683 0 18484.72889416 0 -1217.04670372 0 -4503.61983549 0 267
0.01550000 0.01550050 76489.64317575 0 -5952.67169670 0 32084.61836139 0 19560.44808705 0 14505.67732229 0 238
0.01650000 0.01653350 85976.90866853 0 377.49142750 0 12672.13246701 0 20119.23329426 0 9598.81382734 0 315
0.01750000 0.01747870 81970.06612803 0 3677.44816250 0 1867.20158567 0 11659.57456647 0 16093.60713465 0 297
0.01850000 0.01844180 95707.81198116 0 -528.20415715 0 19475.31764954 0 66.25059354 0 -6916.83157046 0 388
0.01950000 0.01947590 89506.14199319 0 -2527.28652123 0 5372.34574266 0 -12314.80432094 0 -832.78987797 0 399
0.02050000 0.02045430 88667.90925951 0 1956.26450016 0 13942.49828605 0 -20284.33142016 0 -4403.04508893 0 462
0.02150000 0.02154770 75982.37561394 0 8167.46909713 0 24657.50945624 0 -15925.32348271 0 -19737.18985988 0 571
0.02250000 0.02255340 74532.52187893 0 4920.72602555 0 37650.83082554 0 970.90549978 0 -10207.56785523 0 510
0.02350000 0.02348930 72732.47997003 0 1431.81706683 0 36773.60285919 0 10499.91126991 0 -26793.78913186 0 555
0.02450000 0.02439640 68260.88016361 0 828.33453533 0 30583.90605533 0 -108.65137324 0 -20581.24441703 0 592
0.02550000 0.02547300 68386.87321112 0 3204.45246715 0 35943.60855495 0 1472.13044821 0 -17124.28957996 0 837
0.02650000 0.02652900 66666.90883633 0 930.06266201 0 31396.76442635 0 10275.49645207 0 -2020.73295664 0 723
0.02750000 0.02749970 63596.94049130 0 2625.55450754 0 33708.79726327 0 -1256.17375126 0 -14864.43346280 0 826
0.02850000 0.02848090 60710.30466265 0 628.70201169 0 25231.34352789 0 9578.93175097 0 456.76049708 0 831
0.02950000 0.02946900 58591.92984034 0 1232.93039568 0 24515.25924132 0 5652.74892694 0 -2152.98721052 0 996
0.03050000 0.03053250 59475.74855023 0 -1541.30030175 0 21699.14436864 0 7062.10254284 0 5430.92646823 0 1041
0.03150000 0.03150510 59197.17978957 0 100.89846191 0 19172.69267493 0 2558.04332445 0 1186.22399306 0 1036
0.03250000 0.03246190 58353.89415250 0 3066.57411211 0 15821.29958036 0 -10006.73691472 0 -8923.07587586 0 1059
0.03350000 0.03345080 55679.37042039 0 2561.45952653 0 23025.31181638 0 -5095.75420506 0 3544.41400397 0 1302
0.03450000 0.03451200 54742.93560783 0 -424.37468174 0 25824.40060156 0 1780.14884796 0 -6504.70139178 0 1339
0.03550000 0.03553350 51539.50470594 0 357.96964511 0 23303.66088559 0 3462.38121593 0 -2458.08371396 0 1365
0.03650000 0.03647120 54297.51118966 0 1936.15174776 0 27416.28486005 0 1896.17888814 0 -5097.01743090 0 1308
0.03750000 0.03744890 50048.23913229 0 3324.99716665 0 25087.55547280 0 -1969.62174042 0 -2629.30024679 0 1579
0.03850000 0.03847530 49177.16252659 0 461.09500942 0 24471.21110526 0 2393.51639633 0 -1675.21322609 0 1662
0.03950000 0.03950240 46377.41466706 0 473.49109958 0 23518.18958811 0 4612.24627374 0 361.58356949 0 1683
0.04050000 0.04050350 46396.19828617 0 1747.08528449 0 21656.85376420 0 2212.84214651 0 2004.19019033 0 1822
0.04150000 0.04152450 43871.94350698 0 -143.13557148 0 22234.64228198 0 3942.70362119 0 -676.42558573 0 1887
0.04250000 0.04250150 42990.21186588 0 1120.03095868 0 18055.45179768 0 3101.32929975 0 4509.87005729 0 1920
0.04350000 0.04349210 40898.85909212 0 143.69248931 0 16090.64130005 0 1209.59916351 0 2694.15316331 0 2005
0.04450000 0.04448520 38757.19697593 0 1397.22664777 0 16148.20046038 0 853.95385396 0 7128.36148465 0 2151
0.04550000 0.04548030 41757.85266798 0 -19.64766559 0 11391.33130403 0 4959.94094966 0 2898.37833674 0 2274
0.04650000 0.04648670 39563.68429485 0 -908.63395781 0 11643.97647340 0 2695.75691091 0 6804.93172957 0 2311
0.04750000 0.04749250 41409.42202570 0 642.23280820 0 10131.66445869 0 978.24539118 0 4907.42370815 0 2568
0.04850000 0.04851840 39438.24047597 0 157.71100084 0 10835.66571543 0 -2741.04630366 0 3959.14752635 0 2493
0.04950000 0.04949480 40602.27563242 0 672.67215728 0 9677.12284528 0 -1793.22048933 0 3564.71349410 0 2644
0.05050000 0.05050630 36983.84757840 0 1530.59034348 0 15072.26157604 0 -2490.24654248 0 -387.46322249 0 2829
0.05150000 0.05149060 35782.90425808 0 1388.12043710 0 14273.68314937 0 -796.47378256 0 -354.88627559 0 2784
0.05250000 0.05249300 37253.84837245 0 -53.48937618 0 15534.27269881 0 309.76384834 0 -4878.01800735 0 3055
0.05350000 0.05348950 36543.80560079 0 -271.42769003 0 14093.42631331 0 1364.49262148 0 -332.20972395 0 3009
0.05450000 0.05448610 37744.08984675 0 -417.94760832 0 12046.12167560 0 1482.13739383 0 -6501.06549825 0 3336
0.05550000 0.05550870 36371.01827409 0 523.01834043 0 13430.39751231 0 173.19485435 0 -3704.90959395 0 3349
0.05650000 0.05647670 36127.38045423 0 1040.72673848 0 12698.49544121 0 402.76583055 0 -5372.07112834 0 3324
0.05750000 0.05747970 35136.24247022 0 -395.90926035 0 12209.46226989 0 75.48169880 0 -3602.09399459 0 3639
0.05850000 0.05849280 34988.06058609 0 1170.20848624 0 11466.24608904 0 394.94371642 0 -4811.34165178 0 3846
0.05950000 0.05951020 33119.58479001 0 991.91459330 0 11323.55649120 0 837.52752412 0 -3412.29156496 0 3787
0.06050000 0.06049470 33176.15533880 0 285.93501504 0 11897.06102568 0 1069.56893070 0 -1093.04406077 0 3930
0.06150000 0.06148310 31668.96213492 0 711.42023706 0 12062.26899730 0 183.64337979 0 -2527.02289148 0 4083
0.06250000 0.06249100 31654.90188201 0 731.24519365 0 11508.09731057 0 1171.98798699 0 -1269.19046977 0 4303
0.06350000 0.06350600 31623.04662153 0 -368.92126397 0 11969.88874189 0 -656.05030205 0 -171.32857547 0 4470
0.06450000 0.06451750 30024.35192804 0 599.49293474 0 11404.73248258 0 298.18171501 0 572.31929909 0 4479
0.06550000 0.06550280 31078.76105012 0 -87.92667030 0 11856.96733575 0 462.09790089 0 359.51737139 0 4636
0.06650000 0.06648880 30327.63597701 0 596.47766957 0 12175.51994061 0 -119.11890199 0 -2937.41750769 0 4653
0.06750000 0.06749660 29854.31074448 0 1461.61821225 0 13585.38983143 0 -1593.36717579 0 -823.02129757 0 5220
0.06850000 0.06852730 28698.18448029 0 98.67891917 0 13413.37142480 0 817.13466513 0 594.58722463 0 5029
0.06950000 0.06949320 28346.12892906 0 -803.26774070 0 12604.90688282 0 2432.40178327 0 -666.21103169 0 5040
0.07050000 0.07048030 28811.32557788 0 461.74309920 0 11642.87801614 0 2026.86234814 0 708.34785211 0 5475
0.07150000 0.07148790 28711.58565884 0 476.76120683 0 11471.95806678 0 196.51620039 0 79.29378486 0 5509
0.07250000 0.07249820 28238.04073486 0 836.78716393 0 11095.51676441 0 -556.09508539 0 1265.73032940 0 5916
0.07350000 0.07351270 26337.05060393 0 334.30777731 0 12278.88476860 0 -812.53542459 0 860.85326400 0 5721
0.07450000 0.07449140 26348.80409659 0 608.40581693 0 11334.98044669 0 733.33445936 0 1440.45094088 0 6028
0.07550000 0.07549160 25371.61651976 0 10.90071635 0 12558.55198652 0 896.14449879 0 138.00357917 0 6183
0.07650000 0.07648840 25372.05590266 0 293.08267641 0 11253.47491813 0 931.77405841 0 1709.19949366 0 6330
0.07750000 0.07749960 25556.37703058 0 73.72658379 0 10920.12609401 0 1430.86140902 0 1284.72265540 0 6583
0.07850000 0.07848650 24965.40702570 0 274.81203684 0 10087.45155405 0 -97.30222269 0 3061.37840928 0 6549
0.07950000 0.07947320 25473.44350759 0 -39.00083480 0 9239.84897996 0 1087.47817784 0 864.25079230 0 6828
0.08050000 0.08048110 25166.75424112 0 19.76684821 0 9413.25144273 0 151.00931310 0 -97.07418296 0 7147
0.08150000 0.08149960 24569.85256705 0 696.57129184 0 9553.75511062 0 -633.64946318 0 763.37946228 0 7386
0.08250000 0.08250610 24404.53474970 0 367.61409984 0 8826.36769885 0 352.46747270 0 696.45924920 0 7227
0.08350000 0.08350160 23677.02650763 0 -154.90224563 0 9314.58801180 0 291.75683850 0 306.10488721 0 7798
0.08450000 0.08449610 23187.66379913 0 708.34565519 0 8710.63424213 0 -276.17961613 0 -1937.06346728 0 7371
0.08550000 0.08548940 22170.27268665 0 684.73321797 0 8961.88437079 0 -111.20232053 0 -153.32046718 0 8256
0.08650000 0.08650700 21993.97029672 0 594.83657442 0 8570.05368224 0 1440.48389460 0 -608.27180515 0 8037
0.08750000 0.08749060 21648.17595186 0 -120.60511466 0 8240.15401390 0 -68.50407860 0 -1257.63469941 0 8155
0.08850000 0.08849210 20907.48622270 0 393.19167709 0 7908.06841562 0 -526.87831924 0 -1960.76817491 0 8718
0.08950000 0.08949900 20469.42146816 0 283.34704974 0 8560.82664127 0 265.33235070 0 -1054.11693245 0 8571
0.09050000 0.09049190 19965.11974095 0 54.84245584 0 7278.59748385 0 866.50592505 0 -1494.03368593 0 8932
0.09150000 0.09150830 20222.92765943 0 251.35228518 0 8166.61230047 0 947.37984068 0 180.85659372 0 9285
0.09250000 0.09250820 20184.81119257 0 92.75285211 0 7293.08613508 0 586.15656517 0 14.31992820 0 9204
0.09350000 0.09350330 19729.83019625 0 278.90488858 0 7513.22795419 0 -372.78453815 0 -676.23665108 0 9349
0.09450000 0.09448040 19570.11451092 0 826.70552322 0 8497.41270376 0 -539.11183772 0 -119.59123861 0 9564
0.09550000 0.09549270 18753.96076813 0 363.77828709 0 8735.48134531 0 -478.48908010 0 989.30246194 0 10155
0.09650000 0.09649430 18176.83132470 0 70.71703059 0 8888.03508932 0 261.21533290 0 631.78208584 0 9913
0.09750000 0.09749140 17784.57223782 0 7.67085657 0 8761.44887490 0 650.91940820 0 762.66546507 0 10476
0.09850000 0.09850240 17728.66076338 0 451.63948934 0 8959.23708880 0 478.19798893 0 886.11887939 0 10575
0.09950000 0.09950330 17172.95123649 0 443.42961979 0 7742.98127430 0 726.69977752 0 1617.57717376 0 10882
0.10050000 0.10051200 17142.30427899 0 49.39586537 0 7780.93297257 0 708.04797328 0 998.64264400 0 10875
0.10150000 0.10150300 17036.30315358 0 136.20760155 0 7697.68089697 0 -646.29600160 0 527.25069625 0 11118
0.10250000 0.10250800 16305.60938547 0 458.78385535 0 7482.66887327 0 -406.18203263 0 612.06807343 0 11575
0.10350000 0.10349800 16018.25296674 0 -16.41951940 0 7568.39247769 0 815.84287939 0 1232.02966072 0 11364
0.10450000 0.10450100 16288.25376079 0 -384.17883529 0 6580.86841806 0 970.25740999 0 -322.67950878 0 12093
0.10550000 0.10551000 16548.91766815 0 136.38555163 0 6614.62400960 0 418.23760103 0 -261.89417948 0 12067
0.10650000 0.10649700 15927.74008867 0 543.13219128 0 6352.37832379 0 -120.82700302 0 535.60556215 0 12054
0.10750000 0.10749900 15877.87012915 0 -13.49641479 0 6246.19046065 0 181.29377971 0 212.51962419 0 12807
0.10850000 0.10850100 15829.86754697 0 -140.88702947 0 6544.28979136 0 -153.46985736 0 196.32836420 0 12736
0.10950000 0.10950300 15589.52509889 0 536.84572040 0 6312.81189335 0 669.51738803 0 602.05234015 0 12933
0.11050000 0.11050200 15467.15696034 0 214.14753785 0 6599.67400631 0 -693.31216916 0 362.87205985 0 13428
0.11150000 0.11150900 15055.01579709 0 217.78233291 0 6670.03019370 0 483.61997395 0 989.62980220 0 13453
0.11250000 0.11250000 15074.67818201 0 -92.24250887 0 6619.56706726 0 717.92969477 0 1147.47042099 0 13668
0.11350000 0.11349100 14803.46908497 0 10.59637779 0 6196.30951656 0 928.73902101 0 1460.24514067 0 13791
0.11450000 0.11448600 14917.70863982 0 146.58912110 0 5981.94558263 0 -270.54233348 0 1444.33947958 0 14205
0.11550000 0.11549300 14749.31514215 0 409.09074745 0 6010.41759476 0 131.68635148 0 2036.04545081 0 14776
0.11650000 0.11649800 14471.29561011 0 -111.73397384 0 5862.97167700 0 2.26566696 0 1470.68048463 0 14553
0.11750000 0.11747300 14217.00275486 0 -3.79989319 0 5468.46075274 0 439.22143004 0 1491.66101826 0 14568
0.11850000 0.11849100 13874.28409032 0 494.39913503 0 5490.93518824 0 14.17493184 0 927.76468942 0 16015
0.11950000 0.11950300 13624.82444699 0 395.33037337 0 5347.97097610 0 -512.25895159 0 685.91296107 0 15270
0.12050000 0.12050700 13351.52828117 0 116.95054736 0 5452.81872139 0 691.64251413 0 758.54625035 0 15999
0.12150000 0.12150000 13141.83279059 0 -59.66677027 0 4921.78054451 0 513.32775050 0 860.94773132 0 15670
0.12250000 0.12250700 13349.00182948 0 -220.70862305 0 4211.35331282 0 352.71572404 0 81.42896608 0 16887
0.12350000 0.12352200 12928.95177397 0 413.82619669 0 4374.86966026 0 -152.87339507 0 48.73382518 0 16407
0.12450000 0.12449800 12812.29561315 0 187.31991623 0 4185.85811985 0 -231.87993336 0 -120.21076850 0 16306
0.12550000 0.12549900 12642.25442959 0 1.16329919 0 4456.27632766 0 -6.54570680 0 -26.73633982 0 17523
0.12650000 0.12650100 12499.45498604 0 30.44154599 0 4514.11010230 0 -24.31369233 0 -1039.10102173 0 17154
0.12750000 0.12750600 12388.95018587 0 145.84876091 0 3926.61122236 0 191.97517809 0 -417.33576763 0 18007
0.12850000 0.12850300 12556.13538056 0 94.88902194 0 4587.43212428 0 73.77744236 0 -506.47777104 0 17496
0.12950000 0.12949900 12190.89834223 0 83.92740712 0 3930.75240623 0 -57.71711848 0 -352.44879893 0 18405
0.13050000 0.13049000 12225.49974586 0 242.02198923 0 4461.15347789 0 554.90435772 0 -109.80475336 0 18100
0.13150000 0.13148800 12054.14041359 0 -28.46728876 0 3798.72882837 0 435.26918082 0 794.70087254 0 19059
0.13250000 0.13249300 12078.52616472 0 -139.75232312 0 3420.20045722 0 976.42744441 0 1194.84688254 0 18957
0.13350000 0.13349100 12196.72016569 0 -6.51805863 0 3277.45593652 0 257.39709547 0 795.10840019 0 19468
0.13450000 0.13450700 12044.58383544 0 191.78844036 0 3272.97423091 0 -120.24701759 0 1313.90866474 0 19953
0.13550000 0.13551000 11662.97978397 0 224.88166217 0 3154.79121451 0 -523.03152192 0 1095.27063363 0 19956
0.13650000 0.13649900 11533.14213606 0 81.57945473 0 3304.69767652 0 303.93433567 0 1642.79775240 0 19723
0.13750000 0.13749600 11767.88245212 0 -70.09365610 0 3333.07082750 0 -28.90798982 0 552.18238063 0 20946
0.13850000 0.13851100 11648.37030243 0 163.10991826 0 2805.52574471 0 515.00948856 0 444.30838560 0 20955
0.13950000 0.13949800 11643.42724477 0 75.74433993 0 3006.77409897 0 -134.15238802 0 448.82524184 0 20506
0.14050000 0.14048300 11234.36176184 0 82.64221212 0 3158.49301547 0 -239.58780794 0 322.74102238 0 21447
0.14150000 0.14148400 11023.89735118 0 365.25021982 0 3365.76091550 0 -331.76594722 0 -339.33761310 0 21771
0.14250000 0.14249400 10768.64883811 0 317.34649879 0 3431.29487552 0 -262.45549114 0 139.24813124 0 22470
0.14350000 0.14350900 10714.09945067 0 -101.00259566 0 3618.82349863 0 312.87687621 0 -83.27140844 0 22519
0.14450000 0.14449900 10422.54692522 0 -54.51983894 0 3234.50625773 0 411.24701904 0 -105.36072483 0 22218
0.14550000 0.14550500 10693.28368563 0 80.48286485 0 3010.59673023 0 200.66946729 0 -165.45512451 0 23559
0.14650000 0.14650700 10526.62575043 0 153.58409692 0 2882.74728996 0 11.42736070 0 403.27441626 0 23044
0.14750000 0.14750500 10350.20253020 0 154.52767170 0 3182.96664318 0 -101.74998598 0 -137.12041953 0 23649
0.14850000 0.14849900 10236.81977201 0 42.44296046 0 2916.20629804 0 221.66208395 0 503.06047051 0 23640
0.14950000 0.14949500 10247.66154515 0 128.25916483 0 3387.94975212 0 -53.54913226 0 122.77127237 0 24457
0.15050000 0.15050000 9987.51391271 0 71.62787135 0 2916.79946496 0 -19.22113464 0 425.29409046 0 24591
0.15150000 0.15149900 9786.56214190 0 97.37812609 0 3172.16880833 0 167.34666790 0 86.76812743 0 25020
0.15250000 0.15250500 9724.52127596 0 258.46699284 0 2903.53010128 0 -234.91057694 0 366.29704958 0 25297
0.15350000 0.15350100 9529.21557547 0 133.23627467 0 3190.91947373 0 467.90764133 0 334.95147327 0 25452
0.15450000 0.15450400 9447.34755602 0 131.67866228 0 3197.62006300 0 -69.06802656 0 280.84366564 0 26061
0.15550000 0.15549900 9252.10776296 0 133.62073471 0 3172.84985183 0 -138.67913038 0 232.97399679 0 26128
0.15650000 0.15649500 9056.16495725 0 99.85481767 0 2905.99064554 0 -5.26274168 0 252.42987175 0 26331
0.15750000 0.15749700 8941.56291151 0 -37.45497590 0 2861.01980539 0 579.23518599 0 672.76991998 0 27345
0.15850000 0.15849900 9001.62655439 0 -4.07259619 0 2465.71799191 0 524.12009306 0 576.81967848 0 26980
0.15950000 0.15949700 8870.61355721 0 78.37141030 0 2474.11020536 0 132.58049569 0 892.58659573 0 27777
0.16050000 0.16050000 8936.02668693 0 182.90411805 0 2422.32893021 0 -144.05498020 0 649.08059075 0 28224
0.16150000 0.16150500 8742.32473403 0 93.83560143 0 2131.45744826 0 -311.88057547 0 610.85317971 0 28075
0.16250000 0.16249700 8611.10302997 0 9.86074096 0 2468.36527390 0 264.14601686 0 460.98516369 0 28590
0.16350000 0.16349900 8642.59579957 0 9.07604703 0 2461.82945321 0 -262.79052061 0 255.73952347 0 29163
0.16450000 0.16449100 8491.16248196 0 149.03099158 0 2388.41955465 0 -4.45189348 0 70.53886083 0 28996
0.16550000 0.16550500 8672.83632788 0 18.50384205 0 2371.94269578 0 111.20341898 0 -3.61772504 0 30777
0.16650000 0.16650700 8457.92316533 0 -0.09927999 0 2404.78656780 0 210.96091334 0 23.13109325 0 29211
0.16750000 0.16749900 8458.77996199 0 13.22355801 0 2120.48386025 0 33.74328882 0 -99.86536286 0 30922
0.16850000 0.16850800 8442.50082542 0 110.98043216 0 2218.66396998 0 27.23196373 0 -63.93120103 0 30867
0.16950000 0.16949900 8338.34510821 0 125.86672492 0 2370.04236472 0 -218.71382467 0 -41.16139038 0 30852
0.17050000 0.17049200 8101.86922968 0 148.47407375 0 2276.51971377 0 -198.45827283 0 -13.26837507 0 31257
0.17150000 0.17149500 8092.69711157 0 -22.65754833 0 2328.75135639 0 502.17291704 0 130.03097639 0 32608
0.17250000 0.17250900 8238.36352857 0 -5.27817500 0 2231.43902789 0 74.41773310 0 -34.72706714 0 32361
0.17350000 0.17350400 8089.57749296 0 168.55387243 0 2003.43225482 0 -9.71326209 0 9.19727278 0 32508
0.17450000 0.17449800 8031.15055140 0 87.28440234 0 2235.28362830 0 -177.75345197 0 -178.18844104 0 32791
0.17550000 0.17549800 7753.30677252 0 85.15295588 0 2128.86508913 0 -7.12185862 0 418.48695083 0 33633
0.17650000 0.17650100 7913.78039337 0 -27.17352581 0 2266.73245960 0 299.23952935 0 -231.01654596 0 33984
0.17750000 0.17750300 7867.44746622 0 -2.07839098 0 1828.55785933 0 186.81682281 0 213.46649435 0 34069
0.17850000 0.17849800 7879.50852691 0 -41.66679056 0 1876.75816381 0 183.34240250 0 -74.98244997 0 34536
