### header ###
fiducial parameters:
Omega_m = 0.31
Omega_nu = 0
Omega_de = 0.69
Omega_k = 0
H_0 = 100
w_de = -1
zeff = 0
beta = 0
fgrowth = 0
b_1 = 2
gamma = 0.55
Lx = 3500 Ly = 3500 Lz = 3500
nx = 700 ny = 700 nz = 700
xoffset = -983.599254 yoffset = -42.9823471 zoffset = 800.977702
bins = 400 dk = 0.001
kx_ny = 0.628318531 ky_ny = 0.628318531 kz_ny = 0.628318531
############################
A(data) = 9.04965275 (not used)
A(ran) = 9.05154779 (used)
Ngal = 502131
weighted Ngal = 0
Nran = 25229228
weighted Nran = 0
SN(data) = 6736.77625
SN(ran) = 134.363991
SN(data+ran) = 6871.14024
############################
13 columns: k_central k_mean P_0(k) sigma^{lin}_{P_0(k)} P^img_1(k) sigma^{lin}_{P_1(k)} P_2(k) sigma^{lin}_{P_2(k)} P^img_3(k) sigma^{lin}_{P_3(k)} P_4(k) sigma^{lin}_{P_4(k)} N_modes
### header ###
0.00050000 0 0 0 0 0 0 0 0 0 0 0 0
0.00150000 0.00179520 43533.83836293 0 -15169.36519766 0 22294.06881964 0 -16757.40485574 0 56484.42974488 0 3
0.00250000 0.00253879 46192.65415624 0 12808.89039565 0 20289.38432355 0 -74290.97112787 0 11852.57350672 0 6
0.00350000 0.00331552 18392.67817593 0 20274.33545911 0 -3235.72554529 0 -7198.61881088 0 18174.96394736 0 7
0.00450000 0.00420575 25786.94320906 0 -9065.04049190 0 -6711.40907861 0 20477.98943477 0 -10899.51903585 0 24
0.00550000 0.00557378 45937.92191808 0 -9295.13433376 0 9822.56957083 0 -17553.34698499 0 -15289.64626742 0 45
0.00650000 0.00659388 60304.42470577 0 105.04799405 0 8269.65857586 0 -15467.15696034 0 -22649.30989692 0 40
0.00750000 0.00754703 64295.01007884 0 10928.66110690 0 41003.43222309 0 394.05176913 0 28745.52798812 0 57
0.00850000 0.00846663 61936.95188281 0 -10676.25759813 0 33182.52639090 0 13061.97494793 0 3808.05473049 0 75
0.00950000 0.00948925 72731.16182132 0 -9796.70090240 0 32960.41833330 0 32392.07654795 0 20498.42073977 0 112
0.01050000 0.01054430 87552.97514250 0 -6085.72782438 0 16833.96732663 0 32988.31914766 0 9552.68960707 0 105
0.01150000 0.01145670 93244.74127125 0 2970.37122544 0 32107.13673519 0 -14553.57005875 0 45749.75618976 0 144
0.01250000 0.01249090 87546.16470750 0 9553.12898998 0 23988.98836894 0 -4728.23237563 0 16616.91217243 0 169
0.01350000 0.01339930 86926.52496819 0 -2184.15044293 0 57474.24958018 0 -6852.63772829 0 34091.71946346 0 180
0.01450000 0.01448870 88592.00586297 0 -3283.75009661 0 33072.46097363 0 14249.95647260 0 -1948.78400623 0 267
0.01550000 0.01550050 90169.93971428 0 -1756.01574200 0 45198.66018336 0 6311.64752866 0 15677.62137100 0 238
0.01650000 0.01653350 94978.43636176 0 7214.63431771 0 38748.84870077 0 1611.45876683 0 -7964.46321126 0 315
0.01750000 0.01747870 93668.19654426 0 2906.25427528 0 27342.35868658 0 -1717.88829057 0 2894.40192147 0 297
0.01850000 0.01844180 93598.44450837 0 -650.69642137 0 46592.38275248 0 7109.12749806 0 -11559.28541880 0 388
0.01950000 0.01947590 82093.53272385 0 1940.34785449 0 37160.14996833 0 1180.32527758 0 17541.15410942 0 399
0.02050000 0.02045430 73545.88756967 0 4256.28021467 0 23096.05246381 0 7818.13771990 0 -9526.83192322 0 462
0.02150000 0.02154770 80988.81425934 0 2881.06665035 0 32484.34695763 0 375.57461959 0 -7780.92198799 0 571
0.02250000 0.02255340 73811.27484324 0 189.30922232 0 30052.91181675 0 5673.14727822 0 -8977.17489582 0 510
0.02350000 0.02348930 81454.56013679 0 -993.84238578 0 20039.04591442 0 8068.00379241 0 -5348.39937443 0 555
0.02450000 0.02439640 67509.42555332 0 -1304.71457749 0 19945.67704748 0 8444.34623362 0 6327.88272693 0 592
0.02550000 0.02547300 75217.19028793 0 2746.97797285 0 12326.99719651 0 1014.51095755 0 -7255.85941861 0 837
0.02650000 0.02652900 66664.93161327 0 5554.83244695 0 15840.63242810 0 -4587.78363061 0 4822.87545299 0 723
0.02750000 0.02749970 66678.77217472 0 86.57622695 0 16615.26448654 0 4559.04798873 0 -2901.19038732 0 826
0.02850000 0.02848090 64332.02808844 0 956.69695514 0 15058.42101459 0 3619.68029529 0 6405.70842367 0 831
0.02950000 0.02946900 64962.10317171 0 -1828.82148907 0 8506.33217669 0 4317.92563600 0 -3228.86018742 0 996
0.03050000 0.03053250 60732.71319071 0 3162.50238446 0 8897.49280632 0 -1646.52152251 0 3685.03850215 0 1041
0.03150000 0.03150510 61551.94261383 0 2760.80754973 0 14043.66619952 0 1952.50777633 0 2178.43846519 0 1036
0.03250000 0.03246190 59431.92010563 0 -624.06322669 0 11570.37983711 0 -3939.41923399 0 -4452.87111016 0 1059
0.03350000 0.03345080 57484.35538696 0 2876.26639213 0 16460.38201314 0 -2230.52730837 0 -3242.23939683 0 1302
0.03450000 0.03451200 52254.27084380 0 2280.25446844 0 17859.92640573 0 -5697.74173623 0 1468.16501750 0 1339
0.03550000 0.03553350 51255.88304189 0 2971.09620723 0 23471.06577173 0 3752.08833319 0 -1622.24561710 0 1365
0.03650000 0.03647120 50846.37817605 0 2046.63457878 0 24708.69756447 0 -697.89273593 0 -1687.02164162 0 1308
0.03750000 0.03744890 48155.81696798 0 -798.09290856 0 23534.99598416 0 2212.84214651 0 670.00729997 0 1579
0.03850000 0.03847530 47343.83736277 0 460.53479622 0 25282.42179040 0 723.63398331 0 -492.14619919 0 1662
0.03950000 0.03950240 49131.79624183 0 2295.91846894 0 22119.74365278 0 2827.54981274 0 2480.52519575 0 1683
0.04050000 0.04050350 47074.71533452 0 -732.03937825 0 22987.96426961 0 6561.94199950 0 7023.76638454 0 1822
0.04150000 0.04152450 46747.81445450 0 -1368.07359214 0 13961.28190516 0 6313.04256938 0 6753.13946985 0 1887
0.04250000 0.04250150 49026.34434505 0 -403.27990855 0 14823.90038997 0 2421.14259637 0 4572.14159925 0 1920
0.04350000 0.04349210 46545.69831901 0 1511.70786322 0 11244.02818571 0 -3635.08066605 0 3671.73618476 0 2005
0.04450000 0.04448520 43430.25384349 0 2580.63859025 0 13208.94852907 0 -1114.53867239 0 6760.07073515 0 2151
0.04550000 0.04548030 41566.61125934 0 667.07551755 0 15253.28733218 0 220.67457087 0 3632.69701380 0 2274
0.04650000 0.04648670 41727.64509338 0 993.20747749 0 12809.11008710 0 1899.69395136 0 -211.99126625 0 2311
0.04750000 0.04749250 40089.62563005 0 666.94260422 0 14264.12657123 0 99.94895545 0 -2175.14309341 0 2568
0.04850000 0.04851840 40012.62377625 0 519.73395323 0 12853.92714324 0 -768.47410705 0 -2728.23829203 0 2493
0.04950000 0.04949480 39389.13943654 0 58.03402340 0 14005.11034976 0 79.48755272 0 -982.21192033 0 2644
0.05050000 0.05050630 39449.00535710 0 705.67201023 0 11466.02639758 0 906.67980235 0 -2125.92122368 0 2829
0.05150000 0.05149060 37811.53512240 0 -212.31860651 0 13018.47604050 0 492.61084661 0 -3511.73490054 0 2784
0.05250000 0.05249300 38844.08494505 0 454.47790290 0 13759.27561539 0 204.47452323 0 -829.17265822 0 3055
0.05350000 0.05348950 37291.96483931 0 1372.01705370 0 14481.29157116 0 860.15025135 0 674.59226057 0 3009
0.05450000 0.05448610 37051.62239123 0 710.11966367 0 13238.16749213 0 -773.51602586 0 -1390.15258303 0 3336
0.05550000 0.05550870 35082.30821884 0 1032.85189839 0 13457.52940658 0 104.71065782 0 -537.14669768 0 3349
0.05650000 0.05647670 34430.37383614 0 -37.97564464 0 15044.90999031 0 1014.71307369 0 215.75128544 0 3324
0.05750000 0.05747970 33972.97623385 0 252.31013991 0 11482.39341073 0 3172.19077748 0 693.51977758 0 3639
0.05850000 0.05849280 34907.10428617 0 -716.26663048 0 11407.14908855 0 1450.10638018 0 390.01493870 0 3846
0.05950000 0.05951020 34223.53433443 0 938.34283282 0 11433.62190847 0 436.76527961 0 609.87445429 0 3787
0.06050000 0.06049470 33212.62411977 0 1381.10129522 0 10683.43052403 0 -1651.91494765 0 1467.70366546 0 3930
0.06150000 0.06148310 31044.15964649 0 477.93765456 0 12150.36526940 0 -1019.40458464 0 666.84484152 0 4083
0.06250000 0.06249100 31294.27836417 0 675.50947238 0 14142.52735275 0 512.84442931 0 387.12819303 0 4303
0.06350000 0.06350600 30727.47441897 0 -215.47886804 0 12876.77505421 0 1162.73897688 0 1575.14376987 0 4470
0.06450000 0.06451750 30781.73820752 0 216.88599179 0 12981.56787663 0 1486.71796059 0 3807.20891840 0 4479
0.06550000 0.06550280 31910.18334880 0 122.25389900 0 14242.59680897 0 1081.33450639 0 772.34616888 0 4636
0.06650000 0.06648880 31482.33424676 0 230.57496614 0 12839.86689033 0 -413.51643174 0 4008.67696412 0 4653
0.06750000 0.06749660 30866.42926212 0 188.77317518 0 13774.10478838 0 -308.32926316 0 2169.44210024 0 5220
0.06850000 0.06852730 30277.32663459 0 185.03732205 0 13140.07525898 0 821.19236624 0 3851.02637843 0 5029
0.06950000 0.06949320 29951.19467465 0 455.23254303 0 12825.80663743 0 519.49778492 0 2556.59336087 0 5040
0.07050000 0.07048030 30345.87036749 0 -170.92654011 0 12883.58548921 0 -377.02018934 0 216.34664928 0 5475
0.07150000 0.07148790 30155.28803321 0 382.15547702 0 11844.33507728 0 1307.32890577 0 1295.91593486 0 5509
0.07250000 0.07249820 29957.89526392 0 105.04612667 0 11910.68189568 0 -613.72454698 0 -1688.54849720 0 5916
0.07350000 0.07351270 28674.34795779 0 504.19078303 0 11353.76406580 0 -1298.13481852 0 -1846.10022174 0 5721
0.07450000 0.07449140 27857.97452354 0 1062.32240817 0 12735.84298799 0 227.17963476 0 -2475.18669347 0 6028
0.07550000 0.07549160 27375.86163295 0 619.16081195 0 11990.10035544 0 -195.09259979 0 -4713.22744949 0 6183
0.07650000 0.07648840 27101.13747269 0 511.47135773 0 11266.87609668 0 1734.98028551 0 -3645.72471688 0 6330
0.07750000 0.07749960 25986.86243004 0 293.04862424 0 10978.83863446 0 1034.43916913 0 -2279.62834781 0 6583
0.07850000 0.07848650 25897.55785495 0 324.10750321 0 10459.82856456 0 884.11639181 0 -261.55036236 0 6549
0.07950000 0.07947320 24844.68657303 0 -77.31425504 0 9272.27543822 0 606.24515151 0 -3156.26314723 0 6828
0.08050000 0.08048110 23930.11105991 0 1467.87941862 0 10148.81137649 0 -892.43281171 0 -1493.46248816 0 7147
0.08150000 0.08149960 23179.42536970 0 1017.67671137 0 10861.85293646 0 -813.47021171 0 -1343.61094900 0 7386
0.08250000 0.08250610 22083.82410044 0 63.02750025 0 10635.96618590 0 1021.27415889 0 -1247.14443260 0 7227
0.08350000 0.08350160 22239.14595674 0 -441.76106322 0 10259.23928465 0 2220.99269937 0 -162.92647590 0 7798
0.08450000 0.08449610 22246.06623746 0 -259.52920101 0 8377.30738715 0 2266.30406126 0 552.01871050 0 7371
0.08550000 0.08548940 22421.38001586 0 82.64506811 0 7573.21470505 0 710.99183873 0 704.06496726 0 8256
0.08650000 0.08650700 22474.21580998 0 758.87798444 0 7096.64902361 0 -3.35427105 0 911.99413857 0 8037
0.08750000 0.08749060 21066.32314223 0 429.25512733 0 6930.14487242 0 172.63683806 0 1547.26492466 0 8155
0.08850000 0.08849210 20677.57911857 0 487.23499679 0 7300.78632046 0 -232.75979763 0 1863.08237095 0 8718
0.08950000 0.08949900 19790.57488263 0 334.70541884 0 6704.02744584 0 522.74262766 0 2094.51633067 0 8571
0.09050000 0.09049190 19695.33863835 0 82.00269031 0 6197.36403552 0 1916.58822399 0 1637.00888265 0 8932
0.09150000 0.09150830 19583.40584374 0 129.51799685 0 5711.40654452 0 1060.75161429 0 3127.70325852 0 9285
0.09250000 0.09250820 19097.33850702 0 90.16181113 0 4572.05372267 0 -343.94234592 0 2876.77168247 0 9204
0.09350000 0.09350330 19411.93666575 0 75.29254446 0 5090.36077992 0 283.95559506 0 2105.46794953 0 9349
0.09450000 0.09448040 18530.97394473 0 509.28542779 0 4927.59138341 0 -587.27040083 0 1925.07929860 0 9564
0.09550000 0.09549270 18609.29394723 0 61.35290216 0 4881.34633284 0 -170.19496758 0 1857.13971718 0 10155
0.09650000 0.09649430 18093.56826454 0 201.98432063 0 5693.64449066 0 131.25136240 0 960.45477742 0 9913
0.09750000 0.09749140 17959.00725042 0 203.61882503 0 5073.93884391 0 -458.22693752 0 46.81877479 0 10476
0.09850000 0.09850240 17540.49503507 0 260.67159656 0 5678.43085764 0 -181.18283553 0 78.35691067 0 10575
0.09950000 0.09950330 17498.64381353 0 266.61644724 0 5535.71929066 0 -136.57119090 0 -332.29979744 0 10882
0.10050000 0.10051200 17149.22455972 0 445.14760694 0 5969.13757100 0 -566.50736174 0 -1337.97586327 0 10875
0.10150000 0.10150300 16744.22336864 0 359.48881150 0 6117.78080717 0 -186.96840991 0 -1075.93119514 0 11118
0.10250000 0.10250800 16263.97785539 0 330.98494411 0 6241.45610986 0 198.80538532 0 -1235.37995536 0 11575
0.10350000 0.10349800 16053.07406183 0 97.15755587 0 6086.98006565 0 593.82709220 0 -73.40440627 0 11364
0.10450000 0.10450100 15702.00712213 0 -170.89358639 0 5825.34951591 0 331.99552478 0 -550.18099151 0 12093
0.10550000 0.10551000 15575.68453744 0 84.69687643 0 5425.66485797 0 905.72743991 0 179.92180660 0 12067
0.10650000 0.10649700 15727.49133052 0 216.08631491 0 5029.28655637 0 148.48615678 0 -787.66195843 0 12054
0.10750000 0.10749900 15285.03274694 0 635.04670082 0 5660.04268313 0 -639.08572815 0 945.77279771 0 12807
0.10850000 0.10850100 14838.18033433 0 245.61504292 0 6329.45352081 0 -500.58894168 0 330.39177719 0 12736
0.10950000 0.10950300 14832.79789377 0 -151.12684803 0 6217.30103476 0 551.81769282 0 363.89472356 0 12933
0.11050000 0.11050200 14462.06856914 0 398.82017208 0 6034.96811448 0 808.59196303 0 303.89698812 0 13428
0.11150000 0.11150900 15112.35526596 0 -490.94558541 0 5263.59847410 0 568.67571637 0 1048.59608627 0 13453
0.11250000 0.11250000 14707.68361206 0 -35.43513269 0 5707.39717553 0 172.63573960 0 588.93346512 0 13668
0.11350000 0.11349100 14585.86470214 0 392.09212138 0 5217.63902242 0 -41.50147274 0 1373.41209442 0 13791
0.11450000 0.11448600 14347.82901430 0 138.28478423 0 5429.75111897 0 82.25665363 0 1480.33592392 0 14205
0.11550000 0.11549300 14445.15232737 0 45.21502720 0 5061.93270608 0 404.72767522 0 -24.35334664 0 14776
0.11650000 0.11649800 14417.47120446 0 168.57034929 0 5556.91951574 0 50.16797097 0 730.67948817 0 14553
0.11750000 0.11747300 14214.14676598 0 -40.45057869 0 5070.59953385 0 -383.15507312 0 931.48077033 0 14568
0.11850000 0.11849100 14187.34440889 0 94.80158474 0 4913.03682474 0 172.90376317 0 36.59136880 0 16015
0.11950000 0.11950300 13991.81901694 0 58.12596427 0 4612.13642802 0 87.02165137 0 140.68711025 0 15270
0.12050000 0.12050700 13966.99388290 0 108.73024247 0 4868.51635207 0 225.38365714 0 -144.83708177 0 15999
0.12150000 0.12150000 13937.00599976 0 138.88014806 0 4460.73606413 0 -81.22652041 0 -160.94485900 0 15670
0.12250000 0.12250700 13777.40016015 0 159.78928197 0 5038.87608823 0 3.85372858 0 -488.94309783 0 16887
0.12350000 0.12352200 13477.19179150 0 106.71116818 0 4438.93168756 0 -46.36269534 0 -93.54143458 0 16407
0.12450000 0.12449800 13273.97719875 0 -70.71538291 0 4569.03296521 0 253.88422916 0 -645.23269497 0 16306
0.12550000 0.12549900 13271.12120988 0 436.91027597 0 4661.96244925 0 -33.09585811 0 -580.43799669 0 17523
0.12650000 0.12650100 13040.77472284 0 173.73968915 0 4594.71489590 0 323.64285579 0 -21.25481841 0 17154
0.12750000 0.12750600 12839.64719888 0 -121.64864905 0 4267.44054042 0 373.33266832 0 261.48335647 0 18007
0.12850000 0.12850300 12903.90694848 0 83.70958304 0 4208.06892561 0 844.17428899 0 370.77545983 0 17496
0.12950000 0.12949900 12887.53993534 0 113.22348188 0 4002.66840292 0 -275.22615523 0 716.02936371 0 18405
0.13050000 0.13049000 12841.29488477 0 17.54346087 0 4009.33603847 0 187.75270839 0 519.06279584 0 18100
0.13150000 0.13148800 12429.04387579 0 219.54206144 0 4005.12894717 0 -80.12586624 0 689.66529106 0 19059
0.13250000 0.13249300 12263.28667554 0 169.37332155 0 4128.12320637 0 230.92976783 0 1096.43280141 0 18957
0.13350000 0.13349100 12146.08128609 0 262.34674387 0 4188.28571040 0 -235.19288045 0 421.75815655 0 19468
0.13450000 0.13450700 12190.56880505 0 -9.48317923 0 4020.11190417 0 356.61524731 0 716.28530426 0 19953
0.13550000 0.13551000 11769.85967518 0 -56.98301949 0 3598.16151761 0 297.36226589 0 590.61410472 0 19956
0.13650000 0.13649900 11828.18775559 0 198.00460998 0 3373.74669977 0 348.61188773 0 912.72790801 0 19723
0.13750000 0.13749600 11731.41367115 0 85.64836010 0 3449.10086768 0 27.81744145 0 737.88317087 0 20946
0.13850000 0.13851100 11466.90516339 0 167.00834307 0 3231.07907108 0 -6.33906502 0 519.53952629 0 20955
0.13950000 0.13949800 11430.21669097 0 107.79567503 0 3204.91381920 0 76.38452082 0 578.76724320 0 20506
0.14050000 0.14048300 11315.09837032 0 87.87965633 0 3150.05686372 0 294.94456147 0 638.79024315 0 21447
0.14150000 0.14148400 11205.58218168 0 -7.04583439 0 3195.29133361 0 -393.00274244 0 101.66298816 0 21771
0.14250000 0.14249400 10936.49310715 0 385.24653574 0 3174.47556857 0 -262.05565270 0 -285.60547786 0 22470
0.14350000 0.14350900 10776.52477665 0 120.89840274 0 3557.56253735 0 117.86775917 0 109.32846229 0 22519
0.14450000 0.14449900 10631.78106375 0 -129.04236486 0 3226.11404428 0 351.98634842 0 -187.91967389 0 22218
0.14550000 0.14550500 10836.98386414 0 136.51626804 0 3228.00339076 0 151.31688114 0 -160.00567805 0 23559
0.14650000 0.14650700 10447.32812096 0 316.03054699 0 3190.94144287 0 -182.04512448 0 -310.70742312 0 23044
0.14750000 0.14750500 10369.49143965 0 211.35416104 0 3436.34777891 0 -466.30499219 0 -30.68177860 0 23649
0.14850000 0.14849900 10049.65363980 0 -68.80110144 0 3489.91953939 0 -16.82254337 0 199.94778087 0 23640
0.14950000 0.14949500 9843.70388847 0 90.12589158 0 3722.35309521 0 369.75169766 0 210.88182442 0 24457
0.15050000 0.15050000 9932.20658976 0 227.85738288 0 3512.29511374 0 49.62148849 0 411.98847769 0 24591
0.15150000 0.15149900 10023.91678624 0 2.58866831 0 3532.19915926 0 168.93943093 0 -144.11978918 0 25020
0.15250000 0.15250500 9452.16978338 0 282.17829121 0 3980.28184399 0 -241.36291487 0 530.30111205 0 25297
0.15350000 0.15350100 9456.06930665 0 155.32075784 0 3934.30042317 0 27.08575907 0 530.73500267 0 25452
0.15450000 0.15450400 9528.98489944 0 -52.90521661 0 3694.86969461 0 533.96227009 0 618.82358557 0 26061
0.15550000 0.15549900 9394.48979276 0 -20.26785456 0 3694.30948141 0 155.50749558 0 354.74018077 0 26128
0.15650000 0.15649500 9326.27559703 0 242.83484760 0 3427.63701285 0 176.70881912 0 705.31940545 0 26331
0.15750000 0.15749700 9132.67250528 0 -22.14841339 0 3483.32879584 0 -326.01772039 0 678.85757010 0 27345
0.15850000 0.15849900 9063.28296029 0 111.57469754 0 3670.09948344 0 -77.42168416 0 53.42632474 0 26980
0.15950000 0.15949700 8989.04921878 0 125.13515239 0 3265.12026151 0 88.40032507 0 376.95208499 0 27777
0.16050000 0.16050000 8938.50920033 0 -0.72697879 0 3462.53499995 0 193.59430409 0 -50.50827303 0 28224
0.16150000 0.16150500 8903.71007440 0 140.69260254 0 3173.22332730 0 34.12148766 0 -335.69512883 0 28075
0.16250000 0.16249700 8827.07071150 0 6.17827285 0 3028.50158354 0 286.31068742 0 -181.06530060 0 28590
0.16350000 0.16349900 8769.57745861 0 -114.08796774 0 2698.49206948 0 294.38434827 0 -95.34729831 0 29163
0.16450000 0.16449100 8671.77082434 0 70.37002794 0 2285.72478559 0 14.09386570 0 -201.72838008 0 28996
0.16550000 0.16550500 8732.28483469 0 58.71748350 0 2348.60047904 0 391.54069583 0 21.91872597 0 30777
0.16650000 0.16650700 8573.66760662 0 63.67130605 0 1985.73610839 0 77.13773296 0 -41.97282075 0 29211
0.16750000 0.16749900 8535.91363066 0 144.77007588 0 1898.68337069 0 177.04384858 0 -13.05659251 0 30922
0.16850000 0.16850800 8429.37426119 0 49.66707446 0 1969.69863242 0 -68.51077919 0 -59.58746165 0 30867
0.16950000 0.16949900 8203.17994259 0 116.55510275 0 2068.46092450 0 -1.28684268 0 -4.53992385 0 30852
0.17050000 0.17049200 8329.87600275 0 79.60212182 0 2064.73715440 0 35.90461332 0 74.52560160 0 31257
0.17150000 0.17149500 8236.00184547 0 -81.28056451 0 2037.37458410 0 41.76883724 0 214.49684725 0 32608
0.17250000 0.17250900 8327.63514994 0 -3.62996186 0 1874.02300524 0 509.45788558 0 64.07674662 0 32361
0.17350000 0.17350400 8307.70913528 0 103.67019911 0 1669.16072660 0 -115.06889008 0 387.73893526 0 32508
0.17450000 0.17449800 8125.34326128 0 168.00574226 0 2023.68780666 0 -95.95441564 0 431.16095068 0 32791
0.17550000 0.17549800 7962.49697276 0 112.91371694 0 2077.85273406 0 11.69296767 0 569.08104709 0 33633
0.17650000 0.17650100 8001.11872996 0 100.34198346 0 2156.27159772 0 -119.59892781 0 405.76352041 0 33984
0.17750000 0.17750300 7799.77151454 0 -15.31952430 0 2018.72277985 0 -27.95529784 0 246.39165220 0 34069
0.17850000 0.17849800 7704.23868680 0 61.58643417 0 1830.05176120 0 154.05972891 0 187.26609182 0 34536
