### header ###
fiducial parameters:
Omega_m = 0.31
Omega_nu = 0
Omega_de = 0.69
Omega_k = 0
H_0 = 100
w_de = -1
zeff = 0
beta = 0
fgrowth = 0
b_1 = 2
gamma = 0.55
Lx = 3500 Ly = 3500 Lz = 3500
nx = 700 ny = 700 nz = 700
xoffset = -983.599254 yoffset = -42.9823471 zoffset = 800.977702
bins = 400 dk = 0.001
kx_ny = 0.628318531 ky_ny = 0.628318531 kz_ny = 0.628318531
############################
A(data) = 9.01141966 (not used)
A(ran) = 9.009252 (used)
Ngal = 500642
weighted Ngal = 0
Nran = 25229228
weighted Nran = 0
SN(data) = 6756.08333
SN(ran) = 133.736139
SN(data+ran) = 6889.81947
############################
13 columns: k_central k_mean P_0(k) sigma^{lin}_{P_0(k)} P^img_1(k) sigma^{lin}_{P_1(k)} P_2(k) sigma^{lin}_{P_2(k)} P^img_3(k) sigma^{lin}_{P_3(k)} P_4(k) sigma^{lin}_{P_4(k)} N_modes
### header ###
0.00050000 0 0 0 0 0 0 0 0 0 0 0 0
0.00150000 0.00179520 63705.35822268 0 -18275.36294076 0 2576.70611327 0 -62713.34147286 0 -14928.03413805 0 3
0.00250000 0.00253879 72485.32708695 0 16482.35115831 0 -9621.46401601 0 -2625.03823263 0 35732.81460711 0 6
0.00350000 0.00331552 93902.93686032 0 -9354.94533147 0 26231.04947852 0 -49561.40287549 0 -10783.74164084 0 7
0.00450000 0.00420575 79538.96052433 0 -7917.66893206 0 14155.70883985 0 -13409.19728722 0 -11792.15835752 0 24
0.00550000 0.00557378 72962.82645706 0 14055.20000073 0 43565.58377769 0 -4229.29111984 0 14909.79974756 0 45
0.00650000 0.00659388 56567.25342214 0 20361.88250258 0 41081.97191705 0 6775.54799791 0 36418.47162764 0 40
0.00750000 0.00754703 43756.27595770 0 2534.16286366 0 46496.48743384 0 34495.84188872 0 13623.72598974 0 57
0.00850000 0.00846663 45838.73122767 0 274.28477736 0 46167.60933076 0 37666.20922715 0 20439.98281364 0 75
0.00950000 0.00948925 56949.07716507 0 -14364.63541035 0 10475.65733365 0 24669.59248608 0 6285.29553904 0 112
0.01050000 0.01054430 57486.00307285 0 -114.99639190 0 6993.10844246 0 -539.34580912 0 4679.98813285 0 105
0.01150000 0.01145670 63551.13482364 0 5740.61452302 0 22150.28076455 0 -43532.19067704 0 2729.87499334 0 144
0.01250000 0.01249090 52034.46954645 0 7290.43885309 0 12839.53735315 0 5233.14923891 0 -3823.99334531 0 169
0.01350000 0.01339930 56701.70459054 0 -9043.19217703 0 17419.88442812 0 6668.50333811 0 -14499.41611592 0 180
0.01450000 0.01448870 64447.14640910 0 -609.86786355 0 16191.69936780 0 7446.29895345 0 -15022.94084515 0 267
0.01550000 0.01550050 58964.74623375 0 846.88308459 0 19133.36790509 0 -147.96109421 0 -1920.19116380 0 238
0.01650000 0.01653350 71391.59319502 0 -2019.20610105 0 13948.32010952 0 -4264.89211958 0 -16547.16013654 0 315
0.01750000 0.01747870 63262.46025620 0 3230.82642591 0 22728.28897378 0 7020.30624417 0 405.62621325 0 297
0.01850000 0.01844180 69112.18453867 0 -8485.99973285 0 11429.22807944 0 1854.64621921 0 -10014.43710010 0 388
0.01950000 0.01947590 66255.20705598 0 2811.05098472 0 19565.50099044 0 -4574.60214351 0 -6642.50285481 0 399
0.02050000 0.02045430 67703.41310511 0 7381.38012949 0 19754.32579311 0 -10232.38200469 0 -8702.40679727 0 462
0.02150000 0.02154770 65653.36232425 0 3908.89310679 0 28474.75827399 0 -8646.35252339 0 -11970.76750770 0 571
0.02250000 0.02255340 63741.60731220 0 -886.20785443 0 31927.97835638 0 1736.92455485 0 -26784.23255372 0 510
0.02350000 0.02348930 61193.62585623 0 -290.57819387 0 34562.95762720 0 -272.52175346 0 -18181.77438237 0 555
0.02450000 0.02439640 62530.22864793 0 1178.64463798 0 35334.29431386 0 4037.58835915 0 -14720.97494489 0 592
0.02550000 0.02547300 63655.04888025 0 468.86110223 0 28048.66670356 0 6311.65851323 0 -12304.14928554 0 837
0.02650000 0.02652900 68049.97637005 0 -2420.80207462 0 24395.85693736 0 10649.92757765 0 -9098.44457712 0 723
0.02750000 0.02749970 64608.07039741 0 912.44121067 0 28751.02027441 0 3168.34617707 0 101.43780442 0 826
0.02850000 0.02848090 64045.66028125 0 2054.25787215 0 27854.56930604 0 -1834.18196049 0 5392.64523279 0 831
0.02950000 0.02946900 59597.01823153 0 3074.70269582 0 23333.75861447 0 5324.50792906 0 4394.65287548 0 996
0.03050000 0.03053250 57015.09444628 0 553.02489735 0 27595.33339312 0 -2203.97759644 0 4532.66304539 0 1041
0.03150000 0.03150510 59912.38531034 0 1270.88209394 0 28493.98127600 0 369.02781433 0 2127.65678614 0 1036
0.03250000 0.03246190 55147.38757028 0 1954.41909196 0 25463.44754654 0 4059.72227290 0 1569.88215961 0 1059
0.03350000 0.03345080 53038.56932611 0 1147.43746727 0 26535.21229330 0 -5570.68318518 0 74.25790756 0 1302
0.03450000 0.03451200 52672.67321343 0 911.06154835 0 27326.21136488 0 4892.90210320 0 -10239.81856033 0 1339
0.03550000 0.03553350 52454.84913914 0 -712.29241212 0 23578.60473730 0 4285.32342458 0 988.29517663 0 1365
0.03650000 0.03647120 53682.26527938 0 -2264.78819025 0 18774.61176458 0 7444.79406701 0 -5248.17613420 0 1308
0.03750000 0.03744890 54905.61712776 0 1209.95066983 0 16878.34499986 0 552.48006255 0 -1085.78765212 0 1579
0.03850000 0.03847530 51423.28792803 0 2683.91554166 0 14674.83974005 0 663.65382319 0 -881.68440744 0 1662
0.03950000 0.03950240 49388.39585733 0 -414.52481550 0 15977.06081956 0 -999.07873153 0 -662.99145346 0 1683
0.04050000 0.04050350 50170.71711658 0 2775.48293870 0 17411.86569014 0 3349.95411556 0 -1030.15189045 0 1822
0.04150000 0.04152450 45564.88583322 0 -849.15689111 0 14015.10631081 0 628.90852166 0 1634.97673672 0 1887
0.04250000 0.04250150 47076.25317469 0 197.67946663 0 15155.63448193 0 2137.53191689 0 492.04184575 0 1920
0.04350000 0.04349210 44180.71984224 0 3132.94289964 0 12411.90794256 0 -1334.62556863 0 -389.11749912 0 2005
0.04450000 0.04448520 43486.38500938 0 1842.03592988 0 14125.61111098 0 1790.14480901 0 -2291.76630051 0 2151
0.04550000 0.04548030 42161.53571034 0 -3.85657359 0 16333.18066265 0 -3189.89790848 0 -5225.98729758 0 2274
0.04650000 0.04648670 39748.88418857 0 784.19632578 0 15747.26356116 0 -606.08477675 0 -5252.69079353 0 2311
0.04750000 0.04749250 38590.78070132 0 1370.36936781 0 17250.72201037 0 -3810.94367308 0 -7988.77207038 0 2568
0.04850000 0.04851840 37840.42454829 0 567.91338703 0 16440.28024532 0 1290.62137087 0 -9294.62904342 0 2493
0.04950000 0.04949480 37735.96126304 0 -1133.69576698 0 14282.25111599 0 3566.00967366 0 -9892.84886620 0 2644
0.05050000 0.05050630 39363.76507387 0 -732.75886776 0 13330.76743899 0 3024.14070822 0 -10793.58381787 0 2829
0.05150000 0.05149060 40123.78765078 0 -366.11250876 0 9547.50488882 0 904.64985334 0 -8396.56334289 0 2784
0.05250000 0.05249300 39071.13606031 0 1368.04063843 0 9916.01532978 0 1203.76635547 0 -7266.03113282 0 3055
0.05350000 0.05348950 38499.16936599 0 328.17728735 0 8807.89164777 0 -1162.81586889 0 -5249.91169666 0 3009
0.05450000 0.05448610 36564.67628869 0 460.69626943 0 9239.61830393 0 1283.79995130 0 -6160.08239618 0 3336
0.05550000 0.05550870 37436.85135165 0 2341.77905947 0 11127.81140780 0 -584.14748685 0 -4895.87892237 0 3349
0.05650000 0.05647670 34399.61703291 0 752.41136656 0 11117.70560103 0 149.75267800 0 -1649.11388164 0 3324
0.05750000 0.05747970 32829.15269096 0 409.29286358 0 10952.16809223 0 324.65233801 0 -684.60579693 0 3639
0.05850000 0.05849280 31787.81521025 0 815.07286085 0 11823.57423511 0 307.12755092 0 -1151.61160486 0 3846
0.05950000 0.05951020 32051.00556929 0 16.68831189 0 12114.33587133 0 1847.49526246 0 -1392.65706558 0 3787
0.06050000 0.06049470 31839.22300993 0 106.27024744 0 10352.20172241 0 1151.88621917 0 464.48484852 0 3930
0.06150000 0.06148310 31565.04807830 0 888.63324806 0 11048.17325659 0 -1514.83846640 0 -1917.37911322 0 4083
0.06250000 0.06249100 30728.90241340 0 797.84685413 0 13054.72513002 0 -2738.78348171 0 71.03272721 0 4303
0.06350000 0.06350600 30266.89129063 0 -28.08952931 0 13880.32560524 0 995.94922681 0 -2637.09929332 0 4470
0.06450000 0.06451750 30966.60856406 0 -346.26009074 0 13669.42181168 0 588.62589709 0 -2449.54870107 0 4479
0.06550000 0.06550280 31543.29862459 0 50.76871725 0 13667.88397151 0 1256.36048899 0 -3144.83919175 0 4636
0.06650000 0.06648880 31270.77137884 0 354.33594850 0 13224.87615931 0 -857.37994215 0 -2842.49981602 0 4653
0.06750000 0.06749660 29470.61962421 0 914.93800402 0 16019.02188682 0 -1349.35588046 0 295.14228377 0 5220
0.06850000 0.06852730 28875.25579030 0 1222.58292830 0 16008.14715997 0 86.82502752 0 -1405.30030862 0 5029
0.06950000 0.06949320 28398.08595737 0 189.98587200 0 15825.14418076 0 1300.38665590 0 878.88773526 0 5040
0.07050000 0.07048030 27548.97849683 0 -131.27113463 0 14248.63832389 0 3877.12572288 0 1141.09936890 0 5475
0.07150000 0.07148790 29248.73125807 0 -476.80184975 0 13083.28501873 0 2388.17789405 0 3315.57240338 0 5509
0.07250000 0.07249820 28409.18037568 0 -118.62459622 0 9771.70001520 0 2210.62326285 0 2648.28158821 0 5916
0.07350000 0.07351270 28254.73728518 0 -13.67546333 0 11085.41095764 0 423.32235968 0 3418.16831129 0 5721
0.07450000 0.07449140 26464.03226297 0 1011.83511567 0 7812.28294271 0 -1414.07698211 0 3968.85788851 0 6028
0.07550000 0.07549160 26592.11237927 0 847.45318391 0 9240.10162513 0 1001.23060930 0 3432.00887274 0 6183
0.07650000 0.07648840 26157.34299650 0 -185.37125305 0 8751.52980585 0 215.29542568 0 937.72769675 0 6330
0.07750000 0.07749960 25551.43397291 0 364.55160100 0 8259.51981536 0 862.91836364 0 167.06875822 0 6583
0.07850000 0.07848650 24859.29605456 0 1116.34014230 0 8414.21555103 0 -1191.20000444 0 -1010.98051593 0 6549
0.07950000 0.07947320 24150.02220299 0 745.35048331 0 9221.79034263 0 -1309.07545281 0 -399.77363298 0 6828
0.08050000 0.08048110 23372.53415568 0 85.81785206 0 9014.87394892 0 1147.83291189 0 -2308.95715660 0 7147
0.08150000 0.08149960 22545.28599458 0 -7.84379768 0 9354.27527254 0 157.46165104 0 -417.08971320 0 7386
0.08250000 0.08250610 22614.92818474 0 527.29024071 0 7430.78873696 0 353.11885786 0 -1281.87765110 0 7227
0.08350000 0.08350160 22056.25282326 0 -212.74261101 0 8789.73414929 0 1023.33596317 0 374.25756933 0 7798
0.08450000 0.08449610 22329.87852626 0 532.39477159 0 7769.02569589 0 661.33388146 0 -1586.93021625 0 7371
0.08550000 0.08548940 21813.82330639 0 475.51335939 0 7507.49400730 0 -679.36286044 0 -441.15251790 0 8256
0.08650000 0.08650700 21238.01201167 0 294.19211825 0 7666.27600396 0 370.19327748 0 -830.10634689 0 8037
0.08750000 0.08749060 20958.45463948 0 106.63998815 0 7299.03977342 0 431.45094339 0 -852.28529739 0 8155
0.08850000 0.08849210 20561.80172356 0 412.31471950 0 7609.15622654 0 241.85172835 0 -487.66009975 0 8718
0.08950000 0.08949900 19924.58666812 0 548.03460603 0 7052.83156359 0 296.11331999 0 -1405.50901550 0 8571
0.09050000 0.09049190 19502.33969809 0 521.14986463 0 6571.21297876 0 -37.38324664 0 -477.73773534 0 8932
0.09150000 0.09150830 19251.34221461 0 -10.41171614 0 7502.50701135 0 194.67848140 0 -953.53559515 0 9285
0.09250000 0.09250820 18569.09041158 0 -56.37491356 0 6680.14698505 0 1138.35322575 0 578.53766563 0 9204
0.09350000 0.09350330 18432.33248295 0 146.34746050 0 5726.97168387 0 762.17775004 0 -341.39502354 0 9349
0.09450000 0.09448040 18456.16900545 0 155.63711353 0 5874.50547821 0 308.17657760 0 732.85003971 0 9564
0.09550000 0.09549270 18097.30301921 0 523.18530593 0 5590.27966267 0 -94.18930467 0 -326.30551619 0 10155
0.09650000 0.09649430 17756.78126919 0 361.28918294 0 5830.81983306 0 -792.73792942 0 65.94555195 0 9913
0.09750000 0.09749140 17182.28812319 0 444.87299263 0 6023.64302015 0 -231.16593615 0 -890.83235949 0 10476
0.09850000 0.09850240 16972.92216979 0 -23.84970399 0 6970.48022294 0 -351.09000730 0 15.28854781 0 10575
0.09950000 0.09950330 16537.05432976 0 172.79940973 0 6781.18308365 0 394.33517110 0 -1584.73330174 0 10882
0.10050000 0.10051200 16506.51721798 0 176.16618123 0 6255.12091816 0 218.73469536 0 -1055.84151035 0 10875
0.10150000 0.10150300 16360.42240265 0 -129.98044736 0 5818.07772886 0 813.26809558 0 -618.90157604 0 11118
0.10250000 0.10250800 16676.55840154 0 -101.65057559 0 6011.29636057 0 819.09211596 0 -683.23602073 0 11575
0.10350000 0.10349800 16987.20211414 0 61.37267439 0 5209.54339243 0 431.48279865 0 -119.20128628 0 11364
0.10450000 0.10450100 16163.57886199 0 204.57777821 0 4564.24369156 0 -295.70908772 0 20.29289939 0 12093
0.10550000 0.10551000 15801.63719544 0 402.45826252 0 5718.27190239 0 -437.85714612 0 219.02468807 0 12067
0.10650000 0.10649700 15625.00526833 0 444.55553848 0 5256.65622423 0 250.33950759 0 -524.26948325 0 12054
0.10750000 0.10749900 15326.55443130 0 171.21763128 0 5613.29234223 0 344.52672518 0 201.31426170 0 12807
0.10850000 0.10850100 14984.38499539 0 77.10455955 0 5300.36383853 0 739.47373698 0 401.32904846 0 12736
0.10950000 0.10950300 15084.34460588 0 -21.77252131 0 4796.80906226 0 354.20413363 0 389.47669464 0 12933
0.11050000 0.11050200 14979.44193773 0 -8.51217597 0 4025.68108247 0 681.92116739 0 973.01893154 0 13428
0.11150000 0.11150900 15016.13041015 0 13.97457324 0 4052.18685611 0 -198.59887536 0 -128.04167029 0 13453
0.11250000 0.11250000 14491.83676084 0 276.25431122 0 4229.47785758 0 -777.48914576 0 170.53109550 0 13668
0.11350000 0.11349100 14482.49987415 0 232.80263746 0 4230.12594736 0 182.85139210 0 -396.30800033 0 13791
0.11450000 0.11448600 14584.43670770 0 -70.38980018 0 4382.17440103 0 241.66169525 0 -512.71371289 0 14205
0.11550000 0.11549300 14237.54390558 0 274.50776418 0 4164.44918789 0 -195.74288649 0 -356.22749190 0 14776
0.11650000 0.11649800 13808.04711765 0 12.57953252 0 4139.07482523 0 166.15264487 0 -300.98278102 0 14553
0.11750000 0.11747300 13667.11505143 0 385.06419184 0 4478.32236483 0 -41.17885585 0 -53.48717927 0 14568
0.11850000 0.11849100 14009.72387025 0 115.86966542 0 4094.34564568 0 459.59451680 0 -40.99365595 0 16015
0.11950000 0.11950300 13897.13200129 0 -394.16600868 0 4082.31753870 0 556.77503043 0 73.95605151 0 15270
0.12050000 0.12050700 13685.34944192 0 37.30448725 0 3579.54266708 0 -399.61765205 0 -628.71519318 0 15999
0.12150000 0.12150000 13852.86417378 0 340.11312392 0 4164.61395648 0 -31.38852600 0 176.32655599 0 15670
0.12250000 0.12250700 13562.65176618 0 186.99257597 0 3622.93172878 0 -154.64191126 0 -628.50319093 0 16887
0.12350000 0.12352200 13245.08777286 0 252.32991214 0 4126.00318386 0 53.15599441 0 -632.61471645 0 16407
0.12450000 0.12449800 13254.09512237 0 221.27872236 0 3671.06612583 0 390.73003438 0 -749.24561274 0 16306
0.12550000 0.12549900 12724.85841541 0 -142.28316865 0 4100.87048179 0 20.63023561 0 -530.47247138 0 17523
0.12650000 0.12650100 12532.18901233 0 206.98449806 0 3255.30005363 0 329.52179904 0 -142.24362418 0 17154
0.12750000 0.12750600 12786.15233041 0 291.36578772 0 3606.87228366 0 340.63818649 0 -206.47371544 0 18007
0.12850000 0.12850300 12564.15411854 0 -248.15028227 0 3323.09683560 0 -111.86908408 0 52.84524085 0 17496
0.12950000 0.12949900 12489.12948781 0 95.26260725 0 3447.00281432 0 181.99679236 0 -633.06947775 0 18405
0.13050000 0.13049000 12235.60555263 0 211.01913157 0 3767.34590451 0 -454.67232983 0 456.82201068 0 18100
0.13150000 0.13148800 12133.66871908 0 243.66308437 0 3518.67715041 0 -130.91523448 0 -158.97862051 0 19059
0.13250000 0.13249300 12050.40565891 0 140.04561121 0 3951.95263131 0 432.12869152 0 136.85459288 0 18957
0.13350000 0.13349100 12096.98024666 0 -124.90008254 0 3562.14310411 0 343.77318351 0 -151.63982757 0 19468
0.13450000 0.13450700 11703.29316534 0 275.28107809 0 3250.51077998 0 403.42380645 0 456.83629063 0 19953
0.13550000 0.13551000 11781.39347639 0 221.82136025 0 3511.88868455 0 -204.12411536 0 409.76520020 0 19956
0.13650000 0.13649900 11390.78207540 0 180.72587731 0 3521.75283073 0 265.12584074 0 937.58929114 0 19723
0.13750000 0.13749600 11051.24893691 0 -43.47902535 0 2879.78145536 0 589.73753583 0 1072.63582337 0 20946
0.13850000 0.13851100 10957.19902647 0 115.53793133 0 2908.57202010 0 240.50282284 0 965.18363592 0 20955
0.13950000 0.13949800 11145.60641539 0 90.62579948 0 2624.15946682 0 368.04359662 0 1549.81334550 0 20506
0.14050000 0.14048300 10970.28165241 0 30.46461360 0 2366.29662547 0 287.56183024 0 1456.16986425 0 21447
0.14150000 0.14148400 10947.12617341 0 -111.34621843 0 2127.19543409 0 329.93481897 0 1864.40051966 0 21771
0.14250000 0.14249400 10883.92094278 0 247.76692069 0 2273.07055798 0 -242.75466022 0 1292.49973278 0 22470
0.14350000 0.14350900 10669.99639176 0 299.29664912 0 2414.52988368 0 -186.99696980 0 1629.77004932 0 22519
0.14450000 0.14449900 10356.41979828 0 83.69332587 0 2449.27408675 0 -150.10857815 0 1755.93884999 0 22218
0.14550000 0.14550500 10222.27619792 0 -98.03302631 0 2802.06560435 0 29.08846634 0 938.94259048 0 23559
0.14650000 0.14650700 10444.07668748 0 309.68695633 0 2638.51630318 0 -151.42892378 0 853.01137763 0 23044
0.14750000 0.14750500 10073.33637829 0 80.09049591 0 2649.16035402 0 -324.65673184 0 793.29594571 0 23649
0.14850000 0.14849900 10020.58846075 0 61.06115191 0 3063.50941636 0 35.02595736 0 511.73828285 0 23640
0.14950000 0.14949500 9922.52918132 0 38.39053194 0 2829.54900495 0 26.83882588 0 351.00322918 0 24457
0.15050000 0.15050000 10057.91403838 0 22.18718893 0 2788.85116353 0 324.49416017 0 495.51626606 0 24591
0.15150000 0.15149900 10022.07137805 0 -77.56063900 0 2559.80085607 0 217.39018367 0 53.71368116 0 25020
0.15250000 0.15250500 10125.80968151 0 46.67608520 0 2396.54813836 0 -34.46442601 0 512.41603098 0 25297
0.15350000 0.15350100 9950.25424251 0 313.49530764 0 2888.72289744 0 -337.05941274 0 428.79377529 0 25452
0.15450000 0.15450400 9560.78523707 0 227.24224682 0 2981.08118371 0 -386.21317813 0 512.92241977 0 26061
0.15550000 0.15549900 9494.80090957 0 -32.73446568 0 3028.56749097 0 343.82810637 0 438.85124994 0 26128
0.15650000 0.15649500 9551.08585948 0 -8.39008245 0 3015.11138956 0 271.12231891 0 131.56771809 0 26331
0.15750000 0.15749700 9401.20136661 0 175.03367180 0 2853.72604920 0 7.93083943 0 615.24810720 0 27345
0.15850000 0.15849900 9296.93580366 0 163.55699036 0 2884.50482157 0 -245.94128472 0 54.31157144 0 26980
0.15950000 0.15949700 8987.01707285 0 164.16224031 0 3146.26718618 0 -184.37934615 0 460.96758838 0 27777
0.16050000 0.16050000 8932.80820716 0 58.94717092 0 2866.23747737 0 221.85211705 0 -282.59021268 0 28224
0.16150000 0.16150500 8850.89624943 0 -1.64109514 0 2928.98135595 0 154.13112863 0 -118.42028317 0 28075
0.16250000 0.16249700 8866.24169732 0 131.31617138 0 2786.34668098 0 78.44083280 0 -66.74325162 0 28590
0.16350000 0.16349900 8828.60855166 0 14.17119709 0 2588.23991448 0 94.66241021 0 -167.72893103 0 29163
0.16450000 0.16449100 8681.47020193 0 -6.09175835 0 2616.23958999 0 -39.25358981 0 -201.36259382 0 28996
0.16550000 0.16550500 8606.43458663 0 186.98049294 0 2458.44620486 0 -91.48973611 0 -323.88231948 0 30777
0.16650000 0.16650700 8470.19293290 0 118.04241387 0 2506.73438593 0 233.21675585 0 -15.68498103 0 29211
0.16750000 0.16749900 8522.28177608 0 -165.10581510 0 2438.09179186 0 501.17881322 0 -98.06004835 0 30922
0.16850000 0.16850800 8497.24793517 0 -8.84804026 0 2139.25649479 0 113.90123001 0 19.08108134 0 30867
0.16950000 0.16949900 8462.29502522 0 259.17989160 0 2159.90749124 0 -212.44383064 0 -142.67421943 0 30852
0.17050000 0.17049200 8352.77883658 0 46.21539222 0 1924.17856365 0 67.30983587 0 64.52129227 0 31257
0.17150000 0.17149500 8254.59872685 0 69.46149395 0 2423.10883486 0 18.58919218 0 -41.21378679 0 32608
0.17250000 0.17250900 8161.87794969 0 42.76096384 0 1873.21014687 0 144.05937403 0 -194.87620371 0 32361
0.17350000 0.17350400 8168.10620234 0 10.03342943 0 1910.23914104 0 157.76482524 0 261.63164820 0 32508
0.17450000 0.17449800 8003.12890674 0 70.51271754 0 2033.25536938 0 -64.64047489 0 -15.02085378 0 32791
0.17550000 0.17549800 8019.56182732 0 211.54419414 0 2252.34266951 0 -376.77303645 0 -113.33772144 0 33633
0.17650000 0.17650100 7899.46749529 0 152.05174904 0 2157.58974643 0 36.94770833 0 -88.20710644 0 33984
0.17750000 0.17750300 7563.26268230 0 40.24527702 0 2325.65370692 0 118.78716789 0 156.06221649 0 34069
0.17850000 0.17849800 7701.59140481 0 -16.36031256 0 2315.49297728 0 366.33110176 0 158.57878207 0 34536
