### header ###
fiducial parameters:
Omega_m = 0.31
Omega_nu = 0
Omega_de = 0.69
Omega_k = 0
H_0 = 100
w_de = -1
zeff = 0
beta = 0
fgrowth = 0
b_1 = 2
gamma = 0.55
Lx = 3500 Ly = 3500 Lz = 3500
nx = 700 ny = 700 nz = 700
xoffset = -983.599254 yoffset = -42.9823471 zoffset = 800.977702
bins = 400 dk = 0.001
kx_ny = 0.628318531 ky_ny = 0.628318531 kz_ny = 0.628318531
############################
A(data) = 9.05727742 (not used)
A(ran) = 9.07247449 (used)
Ngal = 504095
weighted Ngal = 0
Nran = 25229228
weighted Nran = 0
SN(data) = 6727.21004
SN(ran) = 134.674633
SN(data+ran) = 6861.88467
############################
13 columns: k_central k_mean P_0(k) sigma^{lin}_{P_0(k)} P^img_1(k) sigma^{lin}_{P_1(k)} P_2(k) sigma^{lin}_{P_2(k)} P^img_3(k) sigma^{lin}_{P_3(k)} P_4(k) sigma^{lin}_{P_4(k)} N_modes
### header ###
0.00050000 0 0 0 0 0 0 0 0 0 0 0 0
0.00150000 0.00179520 28133.68729534 0 -1158.56483930 0 -8253.69799190 0 -32756.87420337 0 -95357.29427009 0 3
0.00250000 0.00253879 27091.25135737 0 -5022.89353513 0 -26018.93738198 0 20926.37968754 0 35102.84936957 0 6
0.00350000 0.00331552 48551.92065526 0 -41793.00330024 0 -24246.24705880 0 29963.71708739 0 -27348.51004722 0 7
0.00450000 0.00420575 77855.46493051 0 -31346.12554675 0 -30116.51249199 0 -14430.87238301 0 -45210.74321320 0 24
0.00550000 0.00557378 90384.24872534 0 16849.56541970 0 -858.49487627 0 -58532.17376549 0 17939.78424840 0 45
0.00650000 0.00659388 70559.95120489 0 12373.13240135 0 29956.68696094 0 -9117.36001110 0 50793.32269049 0 40
0.00750000 0.00754703 63731.94088832 0 366.35526782 0 34757.49440761 0 8839.87872313 0 -6323.60972820 0 57
0.00850000 0.00846663 94279.59785414 0 -8115.76471399 0 28587.78952585 0 43118.18213645 0 906.72374064 0 75
0.00950000 0.00948925 78556.61019838 0 3600.05086409 0 44164.68236627 0 7651.10630923 0 10260.06312760 0 112
0.01050000 0.01054430 87407.53940152 0 1987.07622625 0 31083.70410778 0 7084.88454638 0 35330.23002200 0 105
0.01150000 0.01145670 88969.54562259 0 -7934.35449781 0 27900.37497371 0 17726.57369459 0 34124.45348975 0 144
0.01250000 0.01249090 93255.17661520 0 807.64948670 0 23307.94486890 0 9568.26573100 0 -8019.93530279 0 169
0.01350000 0.01339930 87946.99176099 0 17658.02996169 0 44499.93152146 0 -28817.14740135 0 37738.81725191 0 180
0.01450000 0.01448870 75262.55657269 0 10146.15310993 0 54781.38161187 0 8312.97074554 0 34807.03482995 0 267
0.01550000 0.01550050 63548.71821767 0 -4638.74106281 0 53386.78027694 0 17170.64447625 0 25134.56944345 0 238
0.01650000 0.01653350 74479.57623909 0 -3999.06546311 0 43965.86160255 0 28383.14693866 0 14863.55469699 0 315
0.01750000 0.01747870 72833.09865487 0 -3401.60357584 0 19349.98367639 0 17860.91501726 0 30867.30802793 0 297
0.01850000 0.01844180 76159.88630686 0 -473.95025471 0 34805.49698979 0 5129.50979660 0 27114.53865124 0 388
0.01950000 0.01947590 73118.58769626 0 8218.93181968 0 26145.25996666 0 -5805.07199493 0 18833.70876507 0 399
0.02050000 0.02045430 71824.71489190 0 5443.25115867 0 30926.95425705 0 -9691.38082049 0 1727.30206927 0 462
0.02150000 0.02154770 63684.92691768 0 2614.98734871 0 39101.23378918 0 -1178.65562255 0 15633.46338922 0 571
0.02250000 0.02255340 60931.20441726 0 -3864.46051070 0 31376.77250425 0 10800.21849971 0 8607.31335243 0 510
0.02350000 0.02348930 59698.62552791 0 -714.29819508 0 27265.02729560 0 13203.12670560 0 -6874.04666025 0 555
0.02450000 0.02439640 62732.67432060 0 4037.61032830 0 18863.14741959 0 -3604.11515595 0 -3306.64194587 0 592
0.02550000 0.02547300 60094.83906092 0 2795.52978366 0 24849.62963069 0 -1920.79531529 0 -1333.96649428 0 837
0.02650000 0.02652900 59509.25149660 0 -983.67067157 0 19146.65923791 0 7958.88304838 0 2662.01230394 0 723
0.02750000 0.02749970 58312.48231387 0 -2879.83637822 0 20532.03353187 0 3078.93175626 0 -6423.18487865 0 826
0.02850000 0.02848090 56260.23461849 0 2996.36072417 0 17110.00963560 0 3287.53977415 0 942.83003072 0 831
0.02950000 0.02946900 54499.73717088 0 2746.34086764 0 15499.89098663 0 -5926.77007455 0 2009.40786231 0 996
0.03050000 0.03053250 55772.08021298 0 -231.26919113 0 21071.04650844 0 4972.26564010 0 -3318.59316084 0 1041
0.03150000 0.03150510 52049.84794807 0 -2238.63392293 0 16663.15722299 0 1724.55592613 0 -3810.08687642 0 1036
0.03250000 0.03246190 55449.46331627 0 2700.13975537 0 16321.64686144 0 1320.92780662 0 4145.65458421 0 1059
0.03350000 0.03345080 52793.06412892 0 -195.33645730 0 15588.86602454 0 -1908.21797969 0 -653.67983129 0 1302
0.03450000 0.03451200 55481.31857675 0 1298.81586202 0 16766.96143389 0 1893.52062157 0 -3820.91766498 0 1339
0.03550000 0.03553350 53459.27845598 0 -561.94876412 0 14228.42671034 0 -683.00644316 0 -1582.45949521 0 1365
0.03650000 0.03647120 51148.12438486 0 2422.52665252 0 20164.27004185 0 1378.23432178 0 2368.37270969 0 1308
0.03750000 0.03744890 50408.86265014 0 1663.04231967 0 18354.45186334 0 -530.49773590 0 5680.67171044 0 1579
0.03850000 0.03847530 48996.90569053 0 1022.43962204 0 18215.60686592 0 4446.08264431 0 -287.32456347 0 1662
0.03950000 0.03950240 45677.47770218 0 484.96009181 0 17779.62918016 0 1783.53209631 0 6122.77878770 0 1683
0.04050000 0.04050350 46444.96978844 0 1982.50664405 0 18229.77696455 0 2503.95528906 0 6941.68965821 0 1822
0.04150000 0.04152450 45251.49597747 0 279.98247515 0 15847.99209173 0 1858.32605102 0 7274.66500687 0 1887
0.04250000 0.04250150 43440.68918744 0 283.28773304 0 18271.07895745 0 -869.24108362 0 8048.59405266 0 1920
0.04350000 0.04349210 42347.50452414 0 1383.23230231 0 20819.71948777 0 -580.93669628 0 8027.60253445 0 2005
0.04450000 0.04448520 41959.41957484 0 901.69500331 0 15133.66533677 0 -537.58717905 0 5158.28937676 0 2151
0.04550000 0.04548030 41068.79042995 0 -459.02881132 0 19036.48397492 0 1715.23002400 0 1796.31813880 0 2274
0.04650000 0.04648670 41690.62708378 0 -1025.76245525 0 16513.65719016 0 1641.92997117 0 2050.92954666 0 2311
0.04750000 0.04749250 43906.43506489 0 748.12079251 0 15543.17020260 0 -1261.98459015 0 -5672.18063584 0 2568
0.04850000 0.04851840 41476.09838126 0 1733.21176932 0 14876.62633836 0 -3098.46232631 0 -6256.79057319 0 2493
0.04950000 0.04949480 40641.60040226 0 1171.62549610 0 17079.03314092 0 -911.66679830 0 -5322.98107348 0 2644
0.05050000 0.05050630 39430.00204654 0 33.66211283 0 18761.86966039 0 1815.36538766 0 -5504.49015081 0 2829
0.05150000 0.05149060 38045.94590129 0 1004.11076423 0 14421.64534205 0 -199.76104314 0 -6692.27395318 0 2784
0.05250000 0.05249300 37928.30112894 0 784.28090699 0 17441.74372756 0 1041.61319348 0 -6969.66736457 0 3055
0.05350000 0.05348950 36514.80632918 0 817.66082615 0 14818.40810368 0 1891.16992304 0 -4193.38255207 0 3009
0.05450000 0.05448610 35707.55009017 0 902.09154638 0 17388.68824199 0 2242.79707594 0 -876.91380757 0 3336
0.05550000 0.05550870 33820.07098352 0 239.54057428 0 13590.00335191 0 1674.15870712 0 917.66217802 0 3349
0.05650000 0.05647670 34521.87532574 0 -388.28926235 0 15048.53489926 0 4779.50836044 0 1982.03430743 0 3324
0.05750000 0.05747970 33506.79097350 0 798.08741627 0 12149.15696642 0 -1007.32375171 0 3638.91428188 0 3639
0.05850000 0.05849280 32744.57148208 0 891.47276007 0 12500.00421467 0 -451.56040042 0 1969.02857350 0 3846
0.05950000 0.05951020 32009.81342211 0 1163.01359119 0 14338.27243615 0 1755.94983456 0 2613.61427714 0 3787
0.06050000 0.06049470 31485.08038990 0 -828.42021500 0 10140.11159501 0 1937.30512788 0 4666.80664576 0 3930
0.06150000 0.06148310 32201.71390511 0 -2060.47514024 0 9177.59940714 0 3402.17477361 0 2193.68505193 0 4083
0.06250000 0.06249100 33506.35159060 0 220.40105502 0 6625.85024278 0 1340.51329954 0 578.05763981 0 4303
0.06350000 0.06350600 32594.08283772 0 1190.63979124 0 6829.69095617 0 -2817.90535801 0 429.18372761 0 4470
0.06450000 0.06451750 31446.63438587 0 554.72091536 0 6079.41169514 0 346.61818780 0 1529.56877823 0 4479
0.06550000 0.06550280 30636.74184945 0 559.56071804 0 7224.23483414 0 -596.12945862 0 -2230.18678662 0 4636
0.06650000 0.06648880 30830.83924696 0 308.14362388 0 6939.37191339 0 -1079.32103424 0 -2401.31544286 0 4653
0.06750000 0.06749660 30236.57387031 0 17.14219443 0 7882.49633065 0 480.50584763 0 -4089.56735661 0 5220
0.06850000 0.06852730 29627.91870358 0 1075.20621335 0 8341.27798909 0 -1439.28657619 0 -3526.81671869 0 5029
0.06950000 0.06949320 29070.89102798 0 1207.20452669 0 9572.70349832 0 -1258.76611039 0 -2581.02305029 0 5040
0.07050000 0.07048030 28997.07470023 0 169.67979112 0 10040.56939828 0 222.98572494 0 -3276.13778781 0 5475
0.07150000 0.07148790 27129.14813277 0 -302.35914796 0 10511.47802484 0 296.78887120 0 -3244.35941934 0 5509
0.07250000 0.07249820 27188.79436189 0 654.79586386 0 9553.94184835 0 2166.42134278 0 -730.59820233 0 5916
0.07350000 0.07351270 27518.77092223 0 387.00516581 0 9379.88031123 0 1561.96228278 0 1525.37267151 0 5721
0.07450000 0.07449140 27687.71364853 0 -330.24568237 0 8172.04966390 0 1612.41442464 0 839.90019180 0 6028
0.07550000 0.07549160 27599.17799353 0 -138.39023612 0 7792.67548066 0 957.33735572 0 865.44042151 0 6183
0.07650000 0.07648840 25419.39941049 0 1097.35221013 0 8104.86801799 0 -1885.23825385 0 2216.14850286 0 6330
0.07750000 0.07749960 24861.49296908 0 1457.29029065 0 9412.44956893 0 -1699.46716235 0 922.44705783 0 6583
0.07850000 0.07848650 24401.01968647 0 481.13086981 0 9636.52386502 0 354.99282594 0 1140.00091164 0 6549
0.07950000 0.07947320 23667.25023804 0 -769.81642182 0 9097.42301187 0 1937.45891190 0 -133.67236220 0 6828
0.08050000 0.08048110 24192.42265315 0 -67.19581601 0 7961.07996290 0 2062.05691869 0 1325.99169458 0 7147
0.08150000 0.08149960 24228.78158839 0 425.01178695 0 7774.13352214 0 -103.66503636 0 925.29206213 0 7386
0.08250000 0.08250610 23566.63155319 0 758.92411965 0 7163.94051525 0 -772.56036805 0 -51.94373698 0 7227
0.08350000 0.08350160 22011.43576712 0 632.33460985 0 8680.56946698 0 -602.34562824 0 1649.50932625 0 7798
0.08450000 0.08449610 21214.17548917 0 952.36903355 0 8953.40428075 0 968.79975721 0 2151.11983318 0 7371
0.08550000 0.08548940 21142.22653876 0 370.37891675 0 8648.09907043 0 335.93569097 0 3078.92077169 0 8256
0.08650000 0.08650700 20558.50635179 0 -54.69976624 0 7967.50593786 0 1166.74834587 0 1115.15380846 0 8037
0.08750000 0.08749060 20497.21243679 0 193.25158542 0 8084.62345072 0 1249.15460938 0 3401.95508216 0 8155
0.08850000 0.08849210 20026.52350168 0 -285.62854546 0 7462.44627514 0 142.89171397 0 5100.23591067 0 8718
0.08950000 0.08949900 19932.49556038 0 -14.74470162 0 6396.39350612 0 -206.75601896 0 2409.18039683 0 8571
0.09050000 0.09049190 20222.37843080 0 891.99342881 0 7192.72009541 0 -428.51696406 0 1099.36897766 0 8932
0.09150000 0.09150830 19515.30149374 0 270.77300950 0 7662.49731100 0 -894.35511191 0 1850.93343367 0 9285
0.09250000 0.09250820 19352.51012808 0 201.03415510 0 8723.12370116 0 94.21709564 0 1044.16820507 0 9204
0.09350000 0.09350330 18720.89720466 0 230.61231369 0 7866.98611417 0 300.50055828 0 1036.91399333 0 9349
0.09450000 0.09448040 18629.72525223 0 8.43139542 0 7572.37987754 0 681.32031127 0 862.02421944 0 9564
0.09550000 0.09549270 18657.84575804 0 406.50607752 0 8149.53129011 0 415.35964302 0 438.29433211 0 10155
0.09650000 0.09649430 18080.93600607 0 163.97660104 0 7381.48997522 0 -365.30184731 0 1739.11048480 0 9913
0.09750000 0.09749140 17649.57184080 0 157.10135706 0 7473.14524884 0 80.94289875 0 804.47274831 0 10476
0.09850000 0.09850240 17354.96560417 0 396.02679528 0 7757.14038836 0 552.31090013 0 839.29164648 0 10575
0.09950000 0.09950330 17169.54601899 0 116.41450022 0 7663.81545970 0 -94.79795983 0 986.70021669 0 10882
0.10050000 0.10051200 17237.76021472 0 157.57918597 0 6994.52545232 0 568.24402266 0 565.98779145 0 10875
0.10150000 0.10150300 16835.28547534 0 244.99221765 0 7072.16441133 0 278.48527791 0 810.48570334 0 11118
0.10250000 0.10250800 16370.85774660 0 295.92877917 0 6976.25810812 0 -78.51992173 0 109.13952764 0 11575
0.10350000 0.10349800 16262.33016950 0 356.42082038 0 6733.80662211 0 599.68516476 0 554.14971758 0 11364
0.10450000 0.10450100 15474.29693252 0 57.37659673 0 7155.92177726 0 -179.36488877 0 639.12746953 0 12093
0.10550000 0.10551000 15454.30501042 0 548.58273620 0 6533.73361711 0 -260.21463834 0 121.65963362 0 12067
0.10650000 0.10649700 15038.09955531 0 104.11232815 0 6798.25310944 0 328.14653055 0 312.79009808 0 12054
0.10750000 0.10749900 14972.08227410 0 -247.23636583 0 6603.51860672 0 724.44025094 0 128.60957270 0 12807
0.10850000 0.10850100 15175.84609548 0 -151.60357848 0 5783.53124809 0 308.96526991 0 294.90721392 0 12736
0.10950000 0.10950300 15095.76856136 0 199.03276597 0 5743.16294386 0 1099.37996223 0 739.11893528 0 12933
0.11050000 0.11050200 15095.65871564 0 -24.01359381 0 5272.71566934 0 -102.67972020 0 -77.88995649 0 13428
0.11150000 0.11150900 15070.94342733 0 284.34774430 0 5173.97534641 0 -35.50082043 0 784.16117515 0 13453
0.11250000 0.11250000 15004.70645466 0 129.56852588 0 5324.45300620 0 58.46165281 0 816.92925362 0 13668
0.11350000 0.11349100 14363.31726164 0 164.75760415 0 5636.59062067 0 -112.22278732 0 622.99442778 0 13791
0.11450000 0.11448600 14579.82318722 0 34.89172588 0 5304.75766756 0 192.96598654 0 399.53966159 0 14205
0.11550000 0.11549300 14123.52404219 0 202.82903426 0 5440.73569155 0 158.15477757 0 429.93067855 0 14776
0.11650000 0.11649800 14187.89363751 0 305.39418536 0 5502.78754206 0 -401.25655028 0 587.96462582 0 14553
0.11750000 0.11747300 13680.07684708 0 275.08445424 0 6263.89759165 0 -328.55625511 0 -8.00345844 0 14568
0.11850000 0.11849100 13497.40340505 0 244.70991414 0 5724.33538645 0 -216.36861842 0 -19.75904916 0 16015
0.11950000 0.11950300 13336.58926246 0 -50.37634832 0 5899.15485908 0 840.46479883 0 -167.12038571 0 15270
0.12050000 0.12050700 13497.73294223 0 -65.85767537 0 5526.88769430 0 -123.13925555 0 -686.19855996 0 15999
0.12150000 0.12150000 13289.57529181 0 287.76394637 0 4951.48282877 0 743.54791495 0 -187.74501919 0 15670
0.12250000 0.12250700 13213.67189528 0 -145.53789750 0 4350.06649537 0 598.26485953 0 138.21448296 0 16887
0.12350000 0.12352200 13382.61462158 0 -285.30889440 0 4067.89479490 0 667.49073439 0 -5.11056141 0 16407
0.12450000 0.12449800 13192.69136164 0 151.28282896 0 3473.37677308 0 402.22209421 0 -179.32095048 0 16306
0.12550000 0.12549900 13156.33242640 0 320.90440185 0 3391.02543244 0 -382.95625236 0 -115.34899668 0 17523
0.12650000 0.12650100 13110.08737583 0 176.88237536 0 3664.51932057 0 -566.35028235 0 -270.95095958 0 17154
0.12750000 0.12750600 12636.65229758 0 72.57616950 0 3591.03253000 0 188.41288120 0 -636.98328096 0 18007
0.12850000 0.12850300 12824.48848872 0 -46.87194012 0 3569.54670603 0 338.24574658 0 -613.72784235 0 17496
0.12950000 0.12949900 12446.06996329 0 118.63558079 0 3329.48985684 0 270.38854946 0 -842.16411221 0 18405
0.13050000 0.13049000 12520.98474830 0 101.74745952 0 3308.10289402 0 -26.80016018 0 -162.01255946 0 18100
0.13150000 0.13148800 12333.36824861 0 208.25761003 0 3338.98052755 0 304.66041592 0 -849.08768831 0 19059
0.13250000 0.13249300 12092.69626335 0 154.67266806 0 3175.32138066 0 284.14782508 0 538.41102199 0 18957
0.13350000 0.13349100 11910.68189568 0 52.16430719 0 3171.20216594 0 -148.47736912 0 -310.88647165 0 19468
0.13450000 0.13450700 11717.13372679 0 157.08378174 0 3148.62886929 0 -206.62969637 0 -240.70603743 0 19953
0.13550000 0.13551000 11957.80571205 0 95.04379457 0 3238.92205591 0 0.41089661 0 -1089.26536780 0 19956
0.13650000 0.13649900 11463.49994589 0 88.33189118 0 3210.36216720 0 -172.99823050 0 -856.42428433 0 19723
0.13750000 0.13749600 11355.30190596 0 131.30848218 0 3522.03842962 0 -373.93242599 0 -1071.71971001 0 20946
0.13850000 0.13851100 11247.54324894 0 34.40466994 0 2984.37655548 0 491.72109623 0 -806.82674221 0 20955
0.13950000 0.13949800 11474.04513557 0 -55.37092362 0 3032.13747706 0 552.86232568 0 -512.51708904 0 20506
0.14050000 0.14048300 11250.72877499 0 20.01103525 0 2682.28982492 0 165.34088495 0 -616.31031536 0 21447
0.14150000 0.14148400 11448.56092718 0 186.57076838 0 2471.05649418 0 502.57934623 0 -509.67867549 0 21771
0.14250000 0.14249400 11047.18464506 0 185.00217141 0 2587.10850350 0 -267.74895667 0 -150.45459219 0 22470
0.14350000 0.14350900 10667.34910977 0 237.21184489 0 2722.75699031 0 -185.82381744 0 541.52404986 0 22519
0.14450000 0.14449900 10615.52389633 0 234.09662011 0 3124.17721072 0 86.65191065 0 -150.78522782 0 22218
0.14550000 0.14550500 10325.11376642 0 81.01363939 0 3054.35926740 0 168.83617595 0 -161.56658581 0 23559
0.14650000 0.14650700 10245.68432209 0 18.26152238 0 2817.22431451 0 143.22125114 0 327.12057147 0 23044
0.14750000 0.14750500 10185.90627810 0 21.41793931 0 2804.78977835 0 35.64845309 0 103.73423917 0 23649
0.14850000 0.14849900 10142.34146324 0 31.07909059 0 2598.62033557 0 347.58373173 0 443.59219147 0 23640
0.14950000 0.14949500 10110.56309476 0 23.29586184 0 2136.26869105 0 296.79985578 0 392.24370848 0 24457
0.15050000 0.15050000 9938.19318182 0 230.28497342 0 2109.07088934 0 133.52846430 0 846.06912776 0 24591
0.15150000 0.15149900 9688.86535337 0 302.39759396 0 2514.88493878 0 -113.49589928 0 621.21273011 0 25020
0.15250000 0.15250500 9494.21872722 0 181.02465768 0 2454.63455817 0 -91.73919575 0 649.52436748 0 25297
0.15350000 0.15350100 9292.32228318 0 41.78344672 0 2595.33594837 0 -79.77084485 0 639.10440193 0 25452
0.15450000 0.15450400 9122.37996077 0 171.28134180 0 2757.23756364 0 -226.34920107 0 680.13837126 0 26061
0.15550000 0.15549900 8827.91652359 0 114.11982300 0 2784.99557856 0 146.31999907 0 764.84370581 0 26128
0.15650000 0.15649500 9013.25921675 0 -39.90047129 0 2800.52776419 0 200.11804174 0 946.80644599 0 26331
0.15750000 0.15749700 8973.41817200 0 -60.06781701 0 2579.71588616 0 239.18687104 0 368.88831026 0 27345
0.15850000 0.15849900 9062.26139504 0 161.88403996 0 2508.39305639 0 -108.46221890 0 387.03043033 0 26980
0.15950000 0.15949700 8719.85029853 0 198.03756370 0 2677.00624551 0 -400.31736933 0 318.14397876 0 27777
0.16050000 0.16050000 8832.18952232 0 115.54232515 0 2852.96811369 0 27.29336749 0 390.86843999 0 28224
0.16150000 0.16150500 8743.39023757 0 -90.28780418 0 2656.64084794 0 135.28819283 0 384.64458117 0 28075
0.16250000 0.16249700 8541.09834891 0 88.43393786 0 2917.31573987 0 -28.87789209 0 86.70013293 0 28590
0.16350000 0.16349900 8617.33128263 0 76.32915857 0 2699.57954216 0 70.88048103 0 -2.35462002 0 29163
0.16450000 0.16449100 8609.74094297 0 109.12788400 0 2962.40741032 0 179.13531120 0 57.17898427 0 28996
0.16550000 0.16550500 8394.53119696 0 60.43876603 0 2766.55248119 0 -152.35052942 0 228.84928979 0 30777
0.16650000 0.16650700 8456.42926346 0 66.20742417 0 2787.66482969 0 20.27400592 0 335.14809711 0 29211
0.16750000 0.16749900 8343.73853334 0 23.58080165 0 2887.11914984 0 185.77218995 0 355.31247700 0 30922
0.16850000 0.16850800 8449.00369239 0 70.11287910 0 2696.99816761 0 142.83679110 0 114.07698317 0 30867
0.16950000 0.16949900 8355.78860947 0 71.14575846 0 2685.46436640 0 -49.19792337 0 536.55243231 0 30852
0.17050000 0.17049200 8074.98998057 0 15.28854781 0 2605.68341574 0 65.46442768 0 502.45961439 0 31257
0.17150000 0.17149500 8170.27016314 0 154.89345797 0 2804.58107147 0 54.08726647 0 347.08942597 0 32608
0.17250000 0.17250900 8016.58500815 0 140.18841065 0 2786.48948043 0 40.15487399 0 371.31370388 0 32361
0.17350000 0.17350400 7993.01211540 0 -58.26898341 0 2367.81249649 0 102.36687957 0 354.11296168 0 32508
0.17450000 0.17449800 7932.79468850 0 -26.02838411 0 2400.43667706 0 236.87242160 0 178.73766967 0 32791
0.17550000 0.17549800 7804.33011217 0 71.79835192 0 2413.05795095 0 -5.29988052 0 226.92149730 0 33633
0.17650000 0.17650100 7827.25491514 0 35.41481123 0 1899.77084337 0 271.93847265 0 -16.98566427 0 33984
0.17750000 0.17750300 7970.51571075 0 -33.53622963 0 1873.24310059 0 424.90963042 0 407.15965959 0 34069
0.17850000 0.17849800 7885.44019611 0 -30.62619666 0 1587.25975343 0 -33.78722711 0 -252.85936854 0 34536
