### header ###
fiducial parameters:
Omega_m = 0.31
Omega_nu = 0
Omega_de = 0.69
Omega_k = 0
H_0 = 100
w_de = -1
zeff = 0
beta = 0
fgrowth = 0
b_1 = 2
gamma = 0.55
Lx = 3500 Ly = 3500 Lz = 3500
nx = 700 ny = 700 nz = 700
xoffset = -983.599254 yoffset = -42.9823471 zoffset = 800.977702
bins = 400 dk = 0.001
kx_ny = 0.628318531 ky_ny = 0.628318531 kz_ny = 0.628318531
############################
A(data) = 8.99772068 (not used)
A(ran) = 8.98695968 (used)
Ngal = 499177
weighted Ngal = 0
Nran = 25229228
weighted Nran = 0
SN(data) = 6764.90432
SN(ran) = 133.405225
SN(data+ran) = 6898.30954
############################
13 columns: k_central k_mean P_0(k) sigma^{lin}_{P_0(k)} P^img_1(k) sigma^{lin}_{P_1(k)} P_2(k) sigma^{lin}_{P_2(k)} P^img_3(k) sigma^{lin}_{P_3(k)} P_4(k) sigma^{lin}_{P_4(k)} N_modes
### header ###
0.00050000 0 0 0 0 0 0 0 0 0 0 0 0
0.00150000 0.00179520 55525.14702135 0 -25868.22904616 0 -38185.88935598 0 41406.45619110 0 -11074.53623078 0 3
0.00250000 0.00253879 50009.02420818 0 9145.54642435 0 26741.72225783 0 -17248.63494158 0 56737.18475998 0 6
0.00350000 0.00331552 48464.92284042 0 11219.09320595 0 2978.95017662 0 21125.74967989 0 49837.55503018 0 7
0.00450000 0.00420575 49111.80431973 0 -11656.60873187 0 2387.69457286 0 17136.15291835 0 -12071.27634682 0 24
0.00550000 0.00557378 69826.95067653 0 -8720.45445002 0 5157.89393215 0 -10145.28532869 0 -20166.13741918 0 45
0.00650000 0.00659388 82684.39288300 0 12933.78498590 0 9741.55834804 0 -12021.84577020 0 12845.90840525 0 40
0.00750000 0.00754703 46351.27138432 0 9605.77804636 0 12431.13094458 0 -10219.27740960 0 16934.80570293 0 57
0.00850000 0.00846663 58395.74537403 0 500.27478290 0 31889.97173525 0 5875.61492004 0 -10546.84834855 0 75
0.00950000 0.00948925 56992.35638104 0 -2053.10449203 0 15249.66242323 0 6182.32615566 0 -19620.97308197 0 112
0.01050000 0.01054430 59807.26295074 0 -2583.83510087 0 10967.51354012 0 -6183.66627351 0 -22076.68412826 0 105
0.01150000 0.01145670 62881.40543335 0 618.31609832 0 18145.96467575 0 -6237.88612378 0 -21886.32148542 0 144
0.01250000 0.01249090 60836.84693879 0 -1444.35046415 0 18398.39015367 0 -8363.11531938 0 -25907.33412455 0 169
0.01350000 0.01339930 70991.09567870 0 2212.46867104 0 18746.71095022 0 -7529.78170507 0 -25944.46197987 0 180
0.01450000 0.01448870 68914.90161511 0 -854.39543378 0 15747.81278979 0 3437.79774249 0 -33355.53340906 0 267
0.01550000 0.01550050 64053.89871068 0 -1210.99420423 0 29776.75966205 0 411.34588020 0 506.91056320 0 238
0.01650000 0.01653350 70582.24988723 0 -238.13894282 0 23618.25904432 0 1632.69194563 0 -20989.98036279 0 315
0.01750000 0.01747870 72240.59080983 0 600.25306716 0 27646.08211845 0 10798.54884468 0 14718.00911029 0 297
0.01850000 0.01844180 75367.56908656 0 -115.54232515 0 29199.84991008 0 -1172.03192528 0 -11301.36765459 0 388
0.01950000 0.01947590 75928.66105402 0 3667.88059978 0 30322.69291935 0 7435.41324202 0 -2966.53760961 0 399
0.02050000 0.02045430 71075.56704186 0 1599.63936673 0 37150.59339018 0 -14323.66295462 0 319.74113561 0 462
0.02150000 0.02154770 64836.00027848 0 5501.52431621 0 44406.56265452 0 5257.99634208 0 5987.26211576 0 571
0.02250000 0.02255340 66787.73913473 0 -438.57883254 0 40080.17889763 0 9877.58031031 0 405.71408983 0 510
0.02350000 0.02348930 68923.46958172 0 -3403.77852121 0 35639.11620299 0 14085.07803815 0 804.78910400 0 555
0.02450000 0.02439640 66350.55314599 0 322.52023248 0 25512.65843170 0 7924.84185796 0 4097.23458827 0 592
0.02550000 0.02547300 63936.80316697 0 2672.01924956 0 20669.67022631 0 2633.97967471 0 8423.81606746 0 837
0.02650000 0.02652900 60522.90785441 0 331.85602071 0 20612.98983179 0 3860.60492572 0 19564.73207036 0 723
0.02750000 0.02749970 61570.06715859 0 -1308.69099277 0 7328.85190341 0 8568.85636383 0 7172.43158985 0 826
0.02850000 0.02848090 64157.81276730 0 1099.72048398 0 8867.92233693 0 2502.43941805 0 2879.11139643 0 831
0.02950000 0.02946900 55576.77451248 0 3861.69239841 0 12346.65958143 0 -11451.30707032 0 -2573.78421696 0 996
0.03050000 0.03053250 54115.82635916 0 4623.16493889 0 16592.85595847 0 -5037.21741777 0 -1739.24229967 0 1041
0.03150000 0.03150510 53144.79014297 0 -666.97555794 0 20399.66943226 0 -3210.94434954 0 -10223.90191466 0 1036
0.03250000 0.03246190 50014.73618592 0 473.24943898 0 16565.94375565 0 4494.74430084 0 -9871.43993424 0 1059
0.03350000 0.03345080 52248.99824897 0 -1994.85330363 0 13442.26085069 0 5752.26915453 0 -4336.66531682 0 1302
0.03450000 0.03451200 52663.88555536 0 631.17244207 0 17294.33076352 0 1585.32646866 0 -11002.58728038 0 1339
0.03550000 0.03553350 50019.56939786 0 3652.26053757 0 15424.97620163 0 -6701.79757760 0 -4371.04702900 0 1365
0.03650000 0.03647120 46451.01130336 0 1958.25270779 0 18853.04161281 0 477.59054206 0 2091.14406688 0 1308
0.03750000 0.03744890 46819.43386773 0 -751.14484534 0 16468.84013403 0 3286.96857638 0 -3331.35723418 0 1579
0.03850000 0.03847530 48737.01070326 0 -1029.22039870 0 16914.92362656 0 2803.41670677 0 -4624.35127273 0 1662
0.03950000 0.03950240 47175.33401937 0 -549.47028966 0 15532.62501292 0 2789.75189848 0 -2437.87210041 0 1683
0.04050000 0.04050350 48244.24277726 0 1856.43670454 0 14828.18437328 0 -1939.82059500 0 -2632.52971113 0 1822
0.04150000 0.04152450 47462.58059237 0 1043.41576184 0 14335.96567591 0 -789.09654361 0 -4108.88921978 0 1887
0.04250000 0.04250150 46167.38963930 0 1784.66350729 0 18195.72478954 0 -4332.32641065 0 -4165.78930575 0 1920
0.04350000 0.04349210 41995.22928146 0 2631.76079105 0 20971.96566375 0 -3913.01232151 0 -5399.40074492 0 2005
0.04450000 0.04448520 40903.91199550 0 2008.79272624 0 25207.83654257 0 575.12366047 0 -6178.15201808 0 2151
0.04550000 0.04548030 40089.07640142 0 -300.86963992 0 23270.92685930 0 1674.04886140 0 -8334.62133810 0 2274
0.04650000 0.04648670 39592.35402929 0 631.25262945 0 22446.42484135 0 3095.24384654 0 -7247.24751370 0 2311
0.04750000 0.04749250 37873.81764894 0 19.65140035 0 21056.87640981 0 395.64233523 0 -4708.47112956 0 2568
0.04850000 0.04851840 37404.22717109 0 761.14080639 0 21414.20455588 0 4918.66092590 0 -964.91780926 0 2493
0.04950000 0.04949480 37212.65622527 0 -111.27262179 0 16027.37016199 0 3168.31322335 0 829.91082149 0 2644
0.05050000 0.05050630 37954.77394886 0 -1188.81635219 0 13889.44280048 0 4693.35635769 0 248.94336841 0 2829
0.05150000 0.05149060 40169.59331844 0 213.78285004 0 11136.26952869 0 2376.32554024 0 -1682.75962745 0 2784
0.05250000 0.05249300 38441.17082277 0 2410.83906729 0 10759.01536796 0 -2359.69489735 0 2140.39889034 0 3055
0.05350000 0.05348950 36542.26776063 0 -1922.60776977 0 10115.53910614 0 2498.88041653 0 2137.35616373 0 3009
0.05450000 0.05448610 35933.94213107 0 638.60350542 0 10529.88816848 0 1475.90914117 0 1097.06880816 0 3336
0.05550000 0.05550870 35536.52029508 0 1749.94127336 0 11728.00845365 0 -1812.05903131 0 3265.40586040 0 3349
0.05650000 0.05647670 34977.62524214 0 -226.13829727 0 11725.59184768 0 -174.18566279 0 574.97427028 0 3324
0.05750000 0.05747970 33124.30815622 0 1190.69471410 0 13434.35195843 0 -300.34787272 0 1799.70138715 0 3639
0.05850000 0.05849280 33190.32543743 0 1295.97085772 0 12441.01705990 0 -46.94861244 0 4829.99345602 0 3846
0.05950000 0.05951020 32941.19533129 0 -146.72862517 0 14379.35473761 0 1489.00275169 0 2011.38508537 0 3787
0.06050000 0.06049470 31961.59114848 0 -334.74606176 0 12631.37970274 0 300.06007692 0 3320.43856903 0 3930
0.06150000 0.06148310 33252.49811824 0 117.07686994 0 13500.69877683 0 768.08745009 0 2313.10932503 0 4083
0.06250000 0.06249100 32075.50116615 0 -480.50584763 0 12150.47511513 0 61.94991368 0 3263.11008473 0 4303
0.06350000 0.06350600 33343.77991639 0 802.09348989 0 12044.47398972 0 1241.97069891 0 2157.39202412 0 4470
0.06450000 0.06451750 33335.43164123 0 597.46957647 0 14278.18682413 0 -1768.75784619 0 972.32360810 0 4479
0.06550000 0.06550280 31427.41138385 0 748.28995493 0 13063.84232527 0 -1742.84523947 0 1223.90107701 0 4636
0.06650000 0.06648880 31333.71297973 0 741.08956760 0 15116.52940354 0 511.06712546 0 -3.93020318 0 4653
0.06750000 0.06749660 29997.43972521 0 330.60158252 0 15614.35023293 0 160.55161131 0 -667.04366229 0 5220
0.06850000 0.06852730 29086.26942959 0 955.20195481 0 15528.23118389 0 728.18049790 0 -1488.45352306 0 5029
0.06950000 0.06949320 29209.62617968 0 171.09130870 0 15092.03380668 0 666.58011333 0 409.56967481 0 5040
0.07050000 0.07048030 28512.98458657 0 -50.05340188 0 14187.78379179 0 2321.11707845 0 -956.45749146 0 5475
0.07150000 0.07148790 28201.02272526 0 576.26935139 0 13447.31375408 0 135.86378443 0 1010.26432179 0 5509
0.07250000 0.07249820 27141.78039124 0 354.73468848 0 12033.48941714 0 1228.61345865 0 1513.71804000 0 5916
0.07350000 0.07351270 27603.35213111 0 46.32930224 0 12179.14484956 0 1907.94336537 0 1158.45499357 0 5721
0.07450000 0.07449140 26478.31220733 0 484.92933501 0 9748.72028936 0 1076.85280078 0 2650.87394734 0 6028
0.07550000 0.07549160 26449.31293571 0 149.27704601 0 10637.96537811 0 287.03347229 0 1366.48082912 0 6183
0.07650000 0.07648840 24928.27917037 0 720.61761968 0 9249.51540383 0 -499.36086646 0 2027.36763848 0 6330
0.07750000 0.07749960 24967.71378594 0 642.99513754 0 10694.00866742 0 255.15404575 0 704.75919225 0 6583
0.07850000 0.07848650 24722.31843447 0 394.21873463 0 10889.83064283 0 -35.16194637 0 1567.70721424 0 6549
0.07950000 0.07947320 23532.46953246 0 390.36974040 0 9570.36378436 0 523.15674605 0 840.59112142 0 6828
0.08050000 0.08048110 23101.10536719 0 240.17108875 0 10281.93341161 0 -382.65857044 0 -181.00927928 0 7147
0.08150000 0.08149960 22911.84118162 0 92.41057283 0 8716.98332509 0 1248.24288985 0 -517.19432005 0 7386
0.08250000 0.08250610 23349.57639898 0 -310.34163685 0 8505.14584286 0 1205.98523913 0 211.59582163 0 7227
0.08350000 0.08350160 22405.01300271 0 240.87190448 0 7516.75400199 0 -697.63569693 0 -706.73531685 0 7798
0.08450000 0.08449610 22707.74782306 0 356.13631995 0 7582.52962260 0 13.14765461 0 -1853.52579280 0 7371
0.08550000 0.08548940 22329.76868053 0 766.80555047 0 8203.68523293 0 -55.98496123 0 -2199.92428916 0 8256
0.08650000 0.08650700 22268.25507408 0 32.60056374 0 8190.15223951 0 31.89436556 0 -1888.43476447 0 8037
0.08750000 0.08749060 20929.78490504 0 255.13756889 0 8659.34727275 0 -128.94240525 0 -1037.78287302 0 8155
0.08850000 0.08849210 20962.95831424 0 721.35797987 0 8774.97088374 0 21.88544272 0 -3276.08286495 0 8718
0.08950000 0.08949900 20273.56653903 0 274.81643067 0 8833.73834705 0 -32.20039576 0 -294.10094629 0 8571
0.09050000 0.09049190 19462.46569962 0 142.74781607 0 9330.64745692 0 725.37503807 0 139.44805046 0 8932
0.09150000 0.09150830 19456.31433898 0 277.64605657 0 8125.73870590 0 1114.04436663 0 695.25314313 0 9285
0.09250000 0.09250820 19322.85178212 0 62.22584614 0 7942.32929750 0 2017.38266200 0 1592.42250254 0 9204
0.09350000 0.09350330 19487.51052511 0 -162.12679901 0 7095.37481319 0 429.33641317 0 1416.20798919 0 9349
0.09450000 0.09448040 18821.40604378 0 407.69570673 0 6649.03867550 0 522.93595614 0 3168.73063711 0 9564
0.09550000 0.09549270 18632.58124110 0 192.50353603 0 7107.62261162 0 -584.99988968 0 1331.71465690 0 10155
0.09650000 0.09649430 18064.23945574 0 782.77711901 0 6465.66222082 0 34.72091578 0 1691.32759407 0 9913
0.09750000 0.09749140 17380.01042965 0 295.25872024 0 7203.01263992 0 -25.84450237 0 2483.87549038 0 10476
0.09850000 0.09850240 16794.53271107 0 50.67446962 0 6331.87012678 0 487.00651768 0 2178.51535719 0 10575
0.09950000 0.09950330 17340.02658546 0 144.73822062 0 6524.66036016 0 858.32791076 0 1070.68935711 0 10882
0.10050000 0.10051200 16529.36512895 0 233.98457747 0 6677.43379562 0 -466.89486374 0 1209.91771612 0 10875
0.10150000 0.10150300 16565.39452702 0 393.62446925 0 6200.29691640 0 -358.95386281 0 681.84427538 0 11118
0.10250000 0.10250800 16156.43888982 0 21.58182913 0 6632.53984748 0 -872.78141137 0 -798.99584042 0 11575
0.10350000 0.10349800 16193.23720796 0 -160.59884497 0 5951.61717773 0 382.06869890 0 -974.27227127 0 11364
0.10450000 0.10450100 16351.30520741 0 350.28044430 0 6730.09383657 0 194.47636527 0 -2105.78650213 0 12093
0.10550000 0.10551000 15989.03400368 0 240.58410868 0 5730.66250026 0 -122.33628330 0 -1369.32583342 0 12067
0.10650000 0.10649700 15887.31686157 0 54.18887377 0 6177.92134205 0 194.81688702 0 -1805.78684036 0 12054
0.10750000 0.10749900 15542.18159107 0 -164.60382013 0 5646.45476685 0 1113.53907629 0 -724.36335893 0 12807
0.10850000 0.10850100 15629.94832599 0 -155.46355729 0 4691.44504206 0 1461.48639738 0 70.08497829 0 12736
0.10950000 0.10950300 15533.83331591 0 110.10056790 0 4923.38429211 0 80.63203534 0 303.65313061 0 12933
0.11050000 0.11050200 15144.86960080 0 530.80200856 0 4644.36516397 0 -441.90166575 0 997.52880834 0 13428
0.11150000 0.11150900 15170.68334637 0 138.57697386 0 4519.50352744 0 584.70110930 0 865.18118560 0 13453
0.11250000 0.11250000 15009.21012942 0 68.39983501 0 5083.51739120 0 -111.33193848 0 486.09150278 0 13668
0.11350000 0.11349100 14698.23687964 0 422.32825586 0 5441.05424415 0 -541.16155896 0 575.48395445 0 13791
0.11450000 0.11448600 14601.02341230 0 -105.24505728 0 5193.79151535 0 442.72550869 0 1223.70335471 0 14205
0.11550000 0.11549300 14623.76147754 0 60.33671935 0 5070.64347214 0 229.31174029 0 33.42967927 0 14776
0.11650000 0.11649800 14288.62216809 0 176.49352149 0 4791.85502002 0 -310.44599029 0 694.10305839 0 14553
0.11750000 0.11747300 14320.69712002 0 230.19489993 0 5201.37087043 0 108.40487943 0 399.71871012 0 14568
0.11850000 0.11849100 13960.95236798 0 58.39717337 0 5228.20618124 0 113.34760755 0 297.97959887 0 16015
0.11950000 0.11950300 13929.42664468 0 37.57371913 0 4946.19924936 0 918.03565349 0 702.72704632 0 15270
0.12050000 0.12050700 14115.94468711 0 -26.86189348 0 4487.37365264 0 95.08267996 0 91.25927978 0 15999
0.12150000 0.12150000 14165.48510945 0 -150.59519472 0 3934.33337689 0 299.36255656 0 361.56709263 0 15670
0.12250000 0.12250700 14287.41386510 0 83.30688861 0 4167.78849796 0 187.10242169 0 303.55756483 0 16887
0.12350000 0.12352200 13678.53900692 0 134.77960712 0 3641.49565644 0 -58.31907306 0 883.63526753 0 16407
0.12450000 0.12449800 13542.22046118 0 100.36625937 0 3188.68960549 0 -9.76827283 0 493.93229069 0 16306
0.12550000 0.12549900 13523.54668779 0 297.04261483 0 3661.90499230 0 686.00523148 0 -37.62095279 0 17523
0.12650000 0.12650100 13563.20099481 0 135.08827361 0 3420.96937730 0 -192.06525158 0 258.32529185 0 17154
0.12750000 0.12750600 12773.19053476 0 275.17892156 0 3586.22128721 0 -412.62228753 0 107.95923532 0 18007
0.12850000 0.12850300 12571.29409072 0 363.09065285 0 3667.70484662 0 -173.39697048 0 -136.66675669 0 17496
0.12950000 0.12949900 12242.41598763 0 155.65359039 0 3643.27515720 0 226.91930039 0 158.49200395 0 18405
0.13050000 0.13049000 12247.79842820 0 -112.42490346 0 3172.67409867 0 539.38315666 0 -256.36564410 0 18100
0.13150000 0.13148800 12388.51080296 0 138.26281508 0 3141.87335715 0 182.03633682 0 -671.90543411 0 19059
0.13250000 0.13249300 11987.90344092 0 293.97682062 0 2958.56280991 0 -300.37423569 0 -468.54145117 0 18957
0.13350000 0.13349100 11639.80233582 0 11.40649001 0 3035.75140144 0 78.01759722 0 385.99019131 0 19468
0.13450000 0.13450700 11604.76154929 0 -118.17203183 0 2892.39174468 0 430.59963902 0 -456.49027659 0 19953
0.13550000 0.13551000 12032.61065133 0 -2.09703180 0 2543.63156523 0 364.16274713 0 -170.79033141 0 19956
0.13650000 0.13649900 12056.55701956 0 -5.22020941 0 2546.72921469 0 74.36951082 0 -35.29189386 0 19723
0.13750000 0.13749600 11914.85603326 0 103.99841814 0 2460.70902681 0 252.78796881 0 98.90190600 0 20946
0.13850000 0.13851100 11789.85159728 0 -6.63223228 0 2650.00616610 0 -238.54427355 0 13.71401918 0 20955
0.13950000 0.13949800 11549.94853210 0 303.77505937 0 2643.38246884 0 -314.73326897 0 22.04625686 0 20506
0.14050000 0.14048300 11597.95111429 0 286.72919963 0 3482.04360085 0 -125.33507161 0 391.18040185 0 21447
0.14150000 0.14148400 11164.71957168 0 131.82256018 0 3065.27793254 0 -93.90678146 0 616.54208985 0 21771
0.14250000 0.14249400 11163.18173152 0 216.07752725 0 3730.52561721 0 -451.38245034 0 -474.51376328 0 22470
0.14350000 0.14350900 10664.18555286 0 299.39880565 0 3633.77350192 0 -83.31567627 0 139.01525830 0 22519
0.14450000 0.14449900 10557.60224511 0 46.81416127 0 4295.20953990 0 392.65013766 0 440.00353160 0 22218
0.14550000 0.14550500 10358.59474365 0 -10.62251008 0 3671.62633903 0 286.26125684 0 379.63561607 0 23559
0.14650000 0.14650700 10310.28459344 0 68.77342032 0 3348.44922912 0 493.88615549 0 394.36043561 0 23044
0.14750000 0.14750500 10356.73835088 0 102.24571974 0 3357.20393346 0 -41.62801502 0 533.09229195 0 23649
0.14850000 0.14849900 10184.07185448 0 139.11521791 0 3092.81625600 0 198.73178868 0 503.44053672 0 23640
0.14950000 0.14949500 10035.74717091 0 -35.09087619 0 2859.96528642 0 228.64387828 0 863.74769887 0 24457
0.15050000 0.15050000 10054.02549969 0 9.37208126 0 2960.83661644 0 96.18157660 0 712.74937034 0 24591
0.15150000 0.15149900 9971.34462187 0 202.33692541 0 2601.41041700 0 218.68636324 0 581.17066768 0 25020
0.15250000 0.15250500 9938.61059558 0 47.75356192 0 2680.49933959 0 -35.22269106 0 654.29057352 0 25297
0.15350000 0.15350100 9758.05717606 0 166.96660169 0 2476.24121244 0 -283.08781382 0 71.50165861 0 25452
0.15450000 0.15450400 9532.99426844 0 186.86954875 0 2886.78961267 0 145.63456174 0 484.21753470 0 26061
0.15550000 0.15549900 9346.66296374 0 37.28746116 0 2990.53890070 0 -167.84976133 0 637.90928043 0 26128
0.15650000 0.15649500 9054.18773419 0 143.29374932 0 2856.98846725 0 267.93679286 0 466.33684745 0 26331
0.15750000 0.15749700 9277.53704848 0 -104.98856751 0 2811.46839848 0 436.17211269 0 508.37260981 0 27345
0.15850000 0.15849900 9341.46726091 0 87.07679392 0 2491.88324380 0 63.85134319 0 244.17606391 0 26980
0.15950000 0.15949700 9071.48843600 0 272.20759468 0 2598.13701437 0 -373.64023635 0 305.36342856 0 27777
0.16050000 0.16050000 8879.45613814 0 171.92833313 0 2667.51557480 0 -260.52550174 0 149.66260451 0 28224
0.16150000 0.16150500 8783.14340574 0 86.89543863 0 2924.42275833 0 260.85723583 0 -106.41414534 0 28075
0.16250000 0.16249700 8748.06966549 0 -125.44491734 0 2317.00884830 0 335.25574593 0 94.71041279 0 28590
0.16350000 0.16349900 8808.16626208 0 -87.66271102 0 2306.76024208 0 45.65067535 0 -539.90931769 0 29163
0.16450000 0.16449100 8611.97081121 0 264.59967971 0 1907.49299790 0 -114.93377983 0 -2.77669124 0 28996
0.16550000 0.16550500 8702.89011846 0 -98.81359003 0 1943.11596678 0 337.75803156 0 -80.04655762 0 30777
0.16650000 0.16650700 8461.09770680 0 -83.99287517 0 1436.19991129 0 496.26541391 0 77.20847361 0 29211
0.16750000 0.16749900 8688.66509697 0 101.39101014 0 1546.34222057 0 235.59381735 0 7.27682897 0 30922
0.16850000 0.16850800 8455.33080620 0 140.97710297 0 1415.08756279 0 -22.84626328 0 380.49790502 0 30867
0.16950000 0.16949900 8432.91129356 0 76.66517665 0 1086.66312255 0 326.12427074 0 331.33754889 0 30852
0.17050000 0.17049200 8450.81614687 0 -15.21495117 0 1051.58498847 0 200.47943418 0 682.61649084 0 31257
0.17150000 0.17149500 8228.14787607 0 35.03804039 0 1143.83452747 0 64.81919388 0 941.46354989 0 32608
0.17250000 0.17250900 8295.15376882 0 214.45071205 0 1279.35119940 0 -156.73776771 0 771.69478373 0 32361
0.17350000 0.17350400 8006.44624766 0 266.35391595 0 1463.00226839 0 -516.11343811 0 777.51111491 0 32508
0.17450000 0.17449800 7848.04871104 0 127.42653423 0 1789.78231811 0 -55.08697242 0 626.10306182 0 32791
0.17550000 0.17549800 7658.59778773 0 48.55862124 0 1979.91428492 0 -70.12210614 0 926.96501254 0 33633
0.17650000 0.17650100 7677.65602116 0 62.46552952 0 1921.63014281 0 -35.56925432 0 601.67996314 0 33984
0.17750000 0.17750300 7558.53931609 0 56.79716053 0 1986.26336788 0 88.67790522 0 546.04200456 0 34069
0.17850000 0.17849800 7566.23950146 0 123.11618795 0 2199.84739715 0 87.01264402 0 624.06432515 0 34536
