### header ###
fiducial parameters:
Omega_m = 0.31
Omega_nu = 0
Omega_de = 0.69
Omega_k = 0
H_0 = 100
w_de = -1
zeff = 0
beta = 0
fgrowth = 0
b_1 = 2
gamma = 0.55
Lx = 3500 Ly = 3500 Lz = 3500
nx = 700 ny = 700 nz = 700
xoffset = -983.599254 yoffset = -42.9823471 zoffset = 800.977702
bins = 400 dk = 0.001
kx_ny = 0.628318531 ky_ny = 0.628318531 kz_ny = 0.628318531
############################
A(data) = 9.0595497 (not used)
A(ran) = 9.06304978 (used)
Ngal = 503363
weighted Ngal = 0
Nran = 25229228
weighted Nran = 0
SN(data) = 6740.04542
SN(ran) = 134.53473
SN(data+ran) = 6874.58015
############################
13 columns: k_central k_mean P_0(k) sigma^{lin}_{P_0(k)} P^img_1(k) sigma^{lin}_{P_1(k)} P_2(k) sigma^{lin}_{P_2(k)} P^img_3(k) sigma^{lin}_{P_3(k)} P_4(k) sigma^{lin}_{P_4(k)} N_modes
### header ###
0.00050000 0 0 0 0 0 0 0 0 0 0 0 0
0.00150000 0.00179520 38415.79646010 0 -57286.08385187 0 -58365.64764516 0 6690.56035985 0 21152.44219126 0 3
0.00250000 0.00253879 55333.35638408 0 -38514.76745906 0 -22981.59321751 0 -61631.25122787 0 -52177.15914428 0 6
0.00350000 0.00331552 97670.64525572 0 -26762.59294573 0 -37244.95086866 0 -138490.19573380 0 -73359.69906442 0 7
0.00450000 0.00420575 106819.03668437 0 7542.02950350 0 -36806.88611411 0 -73529.52055653 0 23004.11159130 0 24
0.00550000 0.00557378 78136.66998859 0 12819.54543106 0 -5463.04535846 0 -25557.03610493 0 27213.94903310 0 45
0.00650000 0.00659388 77771.10341309 0 3276.00597294 0 -430.49858095 0 -18633.46000691 0 2902.01423027 0 40
0.00750000 0.00754703 78147.32502400 0 9847.86704148 0 28959.50746200 0 -8802.27853118 0 -65898.53798427 0 57
0.00850000 0.00846663 74460.46308280 0 -2323.06134779 0 10668.81005792 0 26536.31075056 0 14437.68281801 0 75
0.00950000 0.00948925 68265.49368410 0 -10162.76178367 0 14652.32136625 0 9998.14697897 0 -19635.03333488 0 112
0.01050000 0.01054430 79972.41175839 0 7460.76563554 0 4473.79672093 0 3681.97380640 0 -6230.22987669 0 105
0.01150000 0.01145670 71768.80341746 0 12246.37043376 0 16890.53787543 0 -14284.00864760 0 13945.57396637 0 144
0.01250000 0.01249090 58691.77960510 0 -1946.27952368 0 17565.86939773 0 9311.20476345 0 1691.60220838 0 169
0.01350000 0.01339930 71502.97676100 0 8229.98229969 0 35617.47659501 0 -7946.54737338 0 -26402.29896506 0 180
0.01450000 0.01448870 57355.06696768 0 1368.50199047 0 31860.20354356 0 -8691.54305499 0 -682.25839377 0 267
0.01550000 0.01550050 57652.41934745 0 -3102.42775701 0 30331.81011459 0 9159.11237149 0 -19616.90879012 0 238
0.01650000 0.01653350 59214.42556852 0 -1370.73185871 0 33313.90187897 0 1002.86731062 0 -7671.37284564 0 315
0.01750000 0.01747870 59271.65519167 0 4962.75300024 0 27242.06953891 0 3930.36794619 0 -697.78508711 0 297
0.01850000 0.01844180 63395.04404725 0 -3033.23593432 0 31781.33431242 0 8882.50984931 0 -3958.98275776 0 388
0.01950000 0.01947590 69271.79037827 0 -3028.44666068 0 21865.01141462 0 8547.43644729 0 -7463.39094839 0 399
0.02050000 0.02045430 63124.27433312 0 -476.44704806 0 15838.65520504 0 5222.07678974 0 -8811.76920189 0 462
0.02150000 0.02154770 73791.39276687 0 -3974.24032908 0 16521.89561960 0 -2560.55879157 0 -2341.93284349 0 571
0.02250000 0.02255340 70136.93531478 0 920.53354529 0 12710.02924242 0 -1895.72852066 0 -16357.01718515 0 510
0.02350000 0.02348930 72814.42488148 0 8615.51882815 0 18591.71863110 0 -8597.32837596 0 -538.35280375 0 555
0.02450000 0.02439640 62864.37934585 0 -1231.80996927 0 16793.43425381 0 4749.77312246 0 -2494.17901946 0 592
0.02550000 0.02547300 66070.44654517 0 -712.02658547 0 24569.19349269 0 6884.81154138 0 -7094.84755371 0 837
0.02650000 0.02652900 63207.64723902 0 2975.49003626 0 19850.99003183 0 -2774.15380542 0 1295.31178336 0 723
0.02750000 0.02749970 63350.22699112 0 1385.26444823 0 16761.46914760 0 3377.27274757 0 4010.74206376 0 826
0.02850000 0.02848090 61197.58030236 0 1384.75915789 0 24774.60499996 0 -21.58765096 0 1426.16001195 0 831
0.02950000 0.02946900 59151.48396763 0 5225.69071412 0 28362.82547938 0 -7392.57340895 0 -4032.52447119 0 996
0.03050000 0.03053250 53512.77332445 0 2969.07504587 0 31861.30200082 0 -5842.33166512 0 -85.32365614 0 1041
0.03150000 0.03150510 53130.18066144 0 1186.83912912 0 40801.86531622 0 3340.57329058 0 7231.33086803 0 1036
0.03250000 0.03246190 51176.57442785 0 -2439.69553946 0 35479.18082621 0 9502.30337264 0 5396.48983319 0 1059
0.03350000 0.03345080 53831.54562076 0 -265.40814425 0 32731.60968643 0 10962.07617670 0 8570.97638634 0 1302
0.03450000 0.03451200 53019.56601555 0 1744.04255789 0 29629.23685229 0 1854.82197237 0 10906.88968405 0 1339
0.03550000 0.03553350 54160.75326102 0 520.87415186 0 30060.38132610 0 2576.70611327 0 19793.76040868 0 1365
0.03650000 0.03647120 51979.10730064 0 879.68301832 0 34921.93345915 0 3943.56041786 0 18949.37631435 0 1308
0.03750000 0.03744890 48852.34871536 0 2405.85207134 0 28094.47237122 0 -985.61603938 0 17730.30844927 0 1579
0.03850000 0.03847530 51776.88131942 0 1007.71260558 0 34221.88664855 0 1335.31759671 0 15781.31573616 0 1662
0.03950000 0.03950240 49618.52265291 0 -1421.35975374 0 32704.80732934 0 1280.27390350 0 12825.91648315 0 1683
0.04050000 0.04050350 48305.53669226 0 -407.38044950 0 32024.53274937 0 6093.17536459 0 13141.50325342 0 1822
0.04150000 0.04152450 49350.16954475 0 1127.78606693 0 26254.11708094 0 2133.32482560 0 8958.24847726 0 1887
0.04250000 0.04250150 46776.26449749 0 2143.15601806 0 28615.03126585 0 -326.18907972 0 15741.22204624 0 1920
0.04350000 0.04349210 46304.25741367 0 1169.90091820 0 25875.47886406 0 3906.27877851 0 13085.48193325 0 2005
0.04450000 0.04448520 46074.46015527 0 901.88064259 0 28439.60764173 0 1779.17122100 0 8778.84843786 0 2151
0.04550000 0.04548030 42697.03362368 0 984.33194284 0 25027.14032361 0 -240.26335916 0 7178.62688879 0 2274
0.04650000 0.04648670 40472.21829306 0 2626.14767446 0 27487.35504465 0 83.97540970 0 6979.02622041 0 2311
0.04750000 0.04749250 40762.21100920 0 326.48895855 0 23416.69213746 0 3480.40689954 0 7619.14120302 0 2568
0.04850000 0.04851840 39458.23239807 0 -1572.33171929 0 22798.91977548 0 2945.49116854 0 6354.28963942 0 2493
0.04950000 0.04949480 38832.66098956 0 -113.22128497 0 18267.89343140 0 2666.58188613 0 2710.39934616 0 2644
0.05050000 0.05050630 38377.89968470 0 1442.13158049 0 16704.01983300 0 1824.33978345 0 4577.11761063 0 2829
0.05150000 0.05149060 37003.72965477 0 1184.86190606 0 17282.46742513 0 -687.48595186 0 5055.05636364 0 2784
0.05250000 0.05249300 37236.38290204 0 253.17901960 0 14255.00937599 0 1494.54996084 0 1450.83136197 0 3055
0.05350000 0.05348950 35828.81977147 0 -21.59006756 0 16805.18774647 0 207.29206610 0 647.46366166 0 3009
0.05450000 0.05448610 35131.95848691 0 1503.21678861 0 13103.93601519 0 -120.63037917 0 -1402.05985971 0 3336
0.05550000 0.05550870 34729.92313043 0 464.41015342 0 15079.18185676 0 -801.64531933 0 -626.01518524 0 3349
0.05650000 0.05647670 34132.91161064 0 602.88497076 0 14870.36513199 0 1627.78184168 0 -472.87156968 0 3324
0.05750000 0.05747970 33103.32762259 0 -219.50251698 0 14529.73353625 0 1950.69532186 0 -369.33428390 0 3639
0.05850000 0.05849280 34718.93855785 0 -1266.90567867 0 11489.86292009 0 2086.46463896 0 35.70711071 0 3846
0.05950000 0.05951020 34485.29669905 0 -142.13048309 0 12836.35182711 0 1859.28170884 0 148.51911050 0 3787
0.06050000 0.06049470 34849.32543439 0 869.99352684 0 10973.42324017 0 -2438.63003592 0 2626.98250197 0 3930
0.06150000 0.06148310 33352.67742018 0 537.87497485 0 12102.47253295 0 324.48207714 0 1929.74774195 0 4083
0.06250000 0.06249100 34376.98881339 0 501.46001828 0 12855.35513767 0 874.66965939 0 366.50685492 0 4303
0.06350000 0.06350600 33117.38787549 0 686.76097007 0 13206.86146027 0 640.53679019 0 1548.39633564 0 4470
0.06450000 0.06451750 32101.64444889 0 156.33353543 0 14092.76723896 0 -1862.46723488 0 -737.92381378 0 4479
0.06550000 0.06550280 32421.07581956 0 552.77005527 0 13390.85305101 0 113.53873912 0 -276.77717687 0 4636
0.06650000 0.06648880 30631.35940888 0 293.16066688 0 12808.67070420 0 624.07421126 0 880.29156364 0 4653
0.06750000 0.06749660 30857.75144978 0 245.62822441 0 13419.41293972 0 2217.07120696 0 -70.92639655 0 5220
0.06850000 0.06852730 30521.84322025 0 1216.68421283 0 12751.77061823 0 -77.59743732 0 -1245.55166957 0 5029
0.06950000 0.06949320 29866.94300295 0 529.07193838 0 11817.20318301 0 -170.96608457 0 294.55900297 0 5040
0.07050000 0.07048030 28159.39119518 0 210.87743059 0 12315.57324102 0 289.69064040 0 143.65184639 0 5475
0.07150000 0.07148790 28870.31273264 0 127.81978193 0 11872.12604592 0 2074.38160912 0 -810.16385537 0 5509
0.07250000 0.07249820 27785.36649878 0 517.94456636 0 10839.83985301 0 -405.00009262 0 -756.34274509 0 5916
0.07350000 0.07351270 26854.86335542 0 271.37935791 0 10122.12984969 0 1000.73520508 0 -88.07869679 0 5721
0.07450000 0.07449140 27150.45820358 0 467.77912183 0 11024.00719691 0 837.49127503 0 -948.45742725 0 6028
0.07550000 0.07549160 25969.50680536 0 573.13984666 0 8993.95932272 0 -370.31081240 0 -831.80675872 0 6183
0.07650000 0.07648840 24969.36147183 0 -57.78818866 0 9495.95428969 0 1190.26631577 0 670.23248371 0 6330
0.07750000 0.07749960 24947.94155530 0 202.64229652 0 8301.48088262 0 693.14520366 0 -771.07086001 0 6583
0.07850000 0.07848650 25314.16720516 0 649.60894869 0 8269.09836265 0 637.88181900 0 -239.70644133 0 6549
0.07950000 0.07947320 24194.39987621 0 85.66110221 0 7304.91651975 0 -240.89716900 0 -1284.88742398 0 6828
0.08050000 0.08048110 24083.12615597 0 63.60331154 0 8170.13834827 0 45.56730244 0 -1122.56839495 0 7147
0.08150000 0.08149960 23591.78622440 0 1009.40203285 0 8825.98323881 0 -1028.71071453 0 -1529.26121020 0 7386
0.08250000 0.08250610 23467.44086278 0 1.42897206 0 8171.65421929 0 -266.52747220 0 -1860.90742558 0 7227
0.08350000 0.08350160 23316.07345261 0 -340.32512617 0 8518.50308311 0 453.37615027 0 -2589.77775464 0 7798
0.08450000 0.08449610 23150.86548099 0 467.02777707 0 7673.63566759 0 2254.18807771 0 -2479.18507789 0 7371
0.08550000 0.08548940 23172.61493470 0 95.32181410 0 7075.72341284 0 577.69954274 0 111.74056458 0 8256
0.08650000 0.08650700 22153.13675342 0 115.22596946 0 6810.73158389 0 690.06073568 0 -703.48058800 0 8037
0.08750000 0.08749060 21570.95440661 0 822.95758705 0 6433.80696034 0 535.29140338 0 1888.11621186 0 8155
0.08850000 0.08849210 20964.49615440 0 138.84170206 0 6309.53849072 0 358.52875985 0 1300.18893359 0 8718
0.08950000 0.08949900 21023.70300061 0 510.88368310 0 6404.37929039 0 290.36729007 0 826.80438437 0 8571
0.09050000 0.09049190 20561.69187784 0 588.22496019 0 5514.33232784 0 -219.71451923 0 1018.72134422 0 8932
0.09150000 0.09150830 19936.99923514 0 -53.28550252 0 6439.96930555 0 -531.07003213 0 624.04235600 0 9285
0.09250000 0.09250820 18944.43325669 0 493.40612967 0 6469.84734298 0 -254.65534615 0 2.12616288 0 9204
0.09350000 0.09350330 18543.05697457 0 857.44255421 0 7327.74246158 0 -633.13428673 0 378.81067467 0 9349
0.09450000 0.09448040 18468.47172674 0 169.83467359 0 7354.69860269 0 306.26086814 0 -112.30517161 0 9564
0.09550000 0.09549270 18306.22958971 0 -302.02082312 0 7165.68706229 0 1453.89605772 0 -276.81232751 0 10155
0.09650000 0.09649430 18205.28136769 0 234.14605069 0 6345.97431798 0 -653.04382453 0 83.12773023 0 9913
0.09750000 0.09749140 17695.37750846 0 465.07032624 0 6788.36699412 0 161.40950642 0 -189.69587928 0 10476
0.09850000 0.09850240 17069.47656278 0 462.65921255 0 6751.22815422 0 40.11741660 0 -458.75309854 0 10575
0.09950000 0.09950330 16949.85456737 0 -109.84528643 0 6282.23084329 0 891.48264618 0 709.25517780 0 10882
0.10050000 0.10051200 16782.99890986 0 53.85922674 0 5979.13353205 0 852.45445980 0 4.17986054 0 10875
0.10150000 0.10150300 16750.81411219 0 81.60636693 0 5098.32459504 0 649.98132570 0 526.65862778 0 11118
0.10250000 0.10250800 16460.05247597 0 34.10929478 0 4804.27857161 0 728.40018936 0 629.82024118 0 11575
0.10350000 0.10349800 16596.81040460 0 -68.72344052 0 4345.04654570 0 258.52850645 0 1133.81659727 0 11364
0.10450000 0.10450100 16589.67043243 0 351.18008080 0 3698.56051100 0 -301.84616842 0 66.55486620 0 12093
0.10550000 0.10551000 15677.62137100 0 565.06289044 0 5136.70469164 0 -1003.69994122 0 704.07924720 0 12067
0.10650000 0.10649700 15305.35420621 0 720.67913329 0 5518.58335743 0 -900.50537410 0 -340.23285576 0 12054
0.10750000 0.10749900 14790.72698078 0 53.28363514 0 6038.66991544 0 518.08516888 0 726.07695226 0 12807
0.10850000 0.10850100 14884.09584772 0 -355.03786269 0 5721.45742844 0 1076.49909754 0 187.97349830 0 12736
0.10950000 0.10950300 15283.82444396 0 -209.65704457 0 4903.35941630 0 923.48949377 0 817.61249403 0 12933
0.11050000 0.11050200 15449.58164421 0 214.49465034 0 4769.76504456 0 2.64319573 0 1000.91315515 0 13428
0.11150000 0.11150900 15121.58230693 0 120.70507427 0 4521.65650367 0 -58.96826130 0 2044.31683397 0 13453
0.11250000 0.11250000 14925.61753208 0 35.17216202 0 4670.32170898 0 540.23006721 0 1629.86891047 0 13668
0.11350000 0.11349100 15019.97501055 0 38.32978726 0 4646.75980080 0 178.11484441 0 2106.30277705 0 13791
0.11450000 0.11448600 14914.08373087 0 70.73482560 0 4270.51622074 0 637.21505544 0 1926.80387649 0 14205
0.11550000 0.11549300 15078.08339951 0 185.81942362 0 4566.50651352 0 -437.65832536 0 1736.47418738 0 14776
0.11650000 0.11649800 14272.80438357 0 593.65792979 0 4966.32298633 0 -740.65457853 0 1933.84498752 0 14553
0.11750000 0.11747300 13893.50709233 0 329.91175137 0 5685.65870639 0 -530.74708570 0 1848.86833403 0 14568
0.11850000 0.11849100 13594.83656385 0 57.87463725 0 5468.07629270 0 382.90572333 0 1590.55512521 0 16015
0.11950000 0.11950300 13735.21940144 0 -129.04566023 0 5603.80167152 0 319.26440516 0 1245.65053072 0 15270
0.12050000 0.12050700 13875.60223903 0 133.91512125 0 4929.83223622 0 155.29659178 0 79.92935223 0 15999
0.12150000 0.12150000 13503.55476570 0 133.76353415 0 5241.33274548 0 -231.07366574 0 663.75378280 0 15670
0.12250000 0.12250700 13283.97315980 0 243.41153766 0 5372.94989415 0 -321.62718672 0 365.41279149 0 16887
0.12350000 0.12352200 13462.69215569 0 -37.65610342 0 5115.66923515 0 181.43877607 0 -547.94343408 0 16407
0.12450000 0.12449800 13281.55655383 0 -77.16881930 0 5064.19552803 0 192.62216941 0 -1211.18094196 0 16306
0.12550000 0.12549900 13220.81186745 0 274.37814622 0 4862.68354403 0 59.84878464 0 -1057.56828516 0 17523
0.12650000 0.12650100 13231.90628576 0 171.16051151 0 4928.73377896 0 98.09366115 0 -216.70364788 0 17154
0.12750000 0.12750600 12672.46200419 0 -140.67063339 0 4866.76980503 0 232.30723324 0 -898.89503576 0 18007
0.12850000 0.12850300 12712.88523129 0 219.02358961 0 3993.15576306 0 24.35323680 0 -625.57470388 0 17496
0.12950000 0.12949900 12640.71658943 0 299.91178519 0 4821.05201394 0 335.88296502 0 -654.76950089 0 18405
0.13050000 0.13049000 12509.89032999 0 228.71967183 0 4601.27268574 0 -148.11707514 0 164.47530063 0 18100
0.13150000 0.13148800 11938.03348140 0 190.33188603 0 4658.28261743 0 252.93186672 0 -322.69598564 0 19059
0.13250000 0.13249300 11927.70798318 0 -117.05709771 0 4184.03468081 0 739.91311988 0 758.52647812 0 18957
0.13350000 0.13349100 12005.36891133 0 21.77032440 0 4290.96949489 0 558.71380749 0 523.97180133 0 19468
0.13450000 0.13450700 11948.13928818 0 49.47517398 0 3660.61979731 0 528.77645338 0 1400.56595784 0 19953
0.13550000 0.13551000 11817.53272019 0 18.69332593 0 3715.26804590 0 -251.75102516 0 1292.49973278 0 19956
0.13650000 0.13649900 11675.06281381 0 372.56704361 0 3677.32733220 0 59.80056236 0 950.67521245 0 19723
0.13750000 0.13749600 11518.75234597 0 80.72749128 0 4210.93589906 0 -626.08328959 0 1862.77480292 0 20946
0.13850000 0.13851100 11225.24456660 0 94.03870618 0 4247.55846404 0 234.01862964 0 780.80319131 0 20955
0.13950000 0.13949800 11278.30005217 0 145.11389300 0 4230.59828398 0 340.75022913 0 682.87572675 0 20506
0.14050000 0.14048300 11095.07738151 0 189.79254352 0 4425.81610789 0 -380.41771764 0 1108.12368201 0 21447
0.14150000 0.14148400 10990.72394199 0 239.14622813 0 4474.73040960 0 81.97731595 0 1088.17679666 0 21771
0.14250000 0.14249400 10687.83533763 0 110.80687591 0 4499.88508081 0 140.22136437 0 1046.65071847 0 22470
0.14350000 0.14350900 10732.86110064 0 -161.29966070 0 4250.00802373 0 442.51790027 0 875.52975142 0 22519
0.14450000 0.14449900 10547.39757718 0 63.41767227 0 4065.93954098 0 -17.98262408 0 1362.95478132 0 22218
0.14550000 0.14550500 10424.33741055 0 273.57627242 0 3971.91159969 0 -277.70317634 0 525.52392144 0 23559
0.14650000 0.14650700 10392.94350211 0 42.94374712 0 3884.15584934 0 412.59812147 0 992.27378882 0 23044
0.14750000 0.14750500 10252.86823255 0 55.40563487 0 3762.82026060 0 175.65320169 0 438.95011109 0 23649
0.14850000 0.14849900 10030.39768406 0 202.73676385 0 3146.49786221 0 198.33744253 0 332.80508778 0 23640
0.14950000 0.14949500 10138.96919946 0 60.69382780 0 3190.46910625 0 159.99029965 0 194.71692741 0 24457
0.15050000 0.15050000 9666.18221099 0 2.35819001 0 3234.30853542 0 89.75823793 0 -7.26995263 0 24591
0.15150000 0.15149900 9668.40109465 0 200.69692872 0 2847.06939821 0 230.67492575 0 444.62803666 0 25020
0.15250000 0.15250500 9586.76375122 0 -20.46074366 0 2574.00390841 0 210.79614475 0 54.76292753 0 25297
0.15350000 0.15350100 9446.02940731 0 0.13559027 0 2601.19072555 0 65.35370318 0 400.96436065 0 25452
0.15450000 0.15450400 9352.67152494 0 204.22077960 0 2617.97515246 0 -121.97928469 0 466.66199080 0 26061
0.15550000 0.15549900 9166.29628195 0 209.88222831 0 2791.44352266 0 -226.89293741 0 417.03479034 0 26128
0.15650000 0.15649500 9020.77266440 0 117.55140348 0 2999.09588274 0 78.09415969 0 344.05988085 0 26331
0.15750000 0.15749700 9003.40605514 0 -30.25272119 0 2875.09104287 0 381.41841220 0 326.19017817 0 27345
0.15850000 0.15849900 9034.10793551 0 -61.54853740 0 2580.12231534 0 220.81846877 0 438.14164655 0 26980
0.15950000 0.15949700 9146.16156041 0 89.25239837 0 2785.83040607 0 108.05029743 0 794.45481812 0 27777
0.16050000 0.16050000 8914.94729215 0 145.64334940 0 2607.17731761 0 -344.93425283 0 458.75529546 0 28224
0.16150000 0.16150500 8760.20761819 0 131.28541458 0 3020.01050893 0 -168.58572769 0 450.08187695 0 28075
0.16250000 0.16249700 8715.56631522 0 308.11945782 0 2905.34255576 0 -100.85759930 0 262.53128469 0 28590
0.16350000 0.16349900 8330.10667877 0 -6.62988158 0 3101.37323804 0 -94.93230116 0 291.39764298 0 29163
0.16450000 0.16449100 8419.88359048 0 98.75723918 0 3133.06372994 0 265.74866600 0 44.77026185 0 28996
0.16550000 0.16550500 8274.49178779 0 -0.71341833 0 2866.61095284 0 457.73153329 0 341.24563335 0 30777
0.16650000 0.16650700 8236.12267577 0 -7.77630847 0 2773.42882363 0 92.70045570 0 693.76473355 0 29211
0.16750000 0.16749900 8286.67367878 0 37.51846673 0 2603.71717725 0 88.46996726 0 256.54908647 0 30922
0.16850000 0.16850800 8177.14650558 0 158.39314279 0 2248.33330052 0 257.01593080 0 571.91616528 0 30867
0.16950000 0.16949900 8151.64032804 0 17.24742664 0 2438.34443703 0 -30.46285607 0 467.23868086 0 30852
0.17050000 0.17049200 8099.29883969 0 79.74558033 0 2512.57817854 0 -14.75107267 0 570.86164631 0 31257
0.17150000 0.17149500 7892.85478260 0 167.46530129 0 2477.25179312 0 -74.90226259 0 491.51788164 0 32608
0.17250000 0.17250900 7742.30023080 0 10.95367298 0 2493.68471370 0 71.67279825 0 228.78777618 0 32361
0.17350000 0.17350400 7850.83879247 0 146.36064199 0 2544.60919219 0 -302.72054040 0 257.26747751 0 32508
0.17450000 0.17449800 7566.36033176 0 43.07709983 0 2554.03395546 0 -0.24226804 0 54.86739082 0 32791
0.17550000 0.17549800 7594.19523868 0 43.61402574 0 2545.37811227 0 241.69245205 0 334.30777731 0 33633
0.17650000 0.17650100 7553.18982924 0 46.56393271 0 2433.24759536 0 185.61950439 0 206.94385515 0 33984
0.17750000 0.17750300 7648.75561070 0 13.77674109 0 2305.26634021 0 47.05494310 0 225.23316849 0 34069
0.17850000 0.17849800 7524.52009480 0 48.05069461 0 2311.24194770 0 74.58546752 0 207.27558924 0 34536
