### header ###
fiducial parameters:
Omega_m = 0.31
Omega_nu = 0
Omega_de = 0.69
Omega_k = 0
H_0 = 100
w_de = -1
zeff = 0
beta = 0
fgrowth = 0
b_1 = 2
gamma = 0.55
Lx = 3500 Ly = 3500 Lz = 3500
nx = 700 ny = 700 nz = 700
xoffset = -983.599254 yoffset = -42.9823471 zoffset = 800.977702
bins = 400 dk = 0.001
kx_ny = 0.628318531 ky_ny = 0.628318531 kz_ny = 0.628318531
############################
A(data) = 9.07261223 (not used)
A(ran) = 9.07909102 (used)
Ngal = 504396
weighted Ngal = 0
Nran = 25229228
weighted Nran = 0
SN(data) = 6714.68865
SN(ran) = 134.772851
SN(data+ran) = 6849.4615
############################
13 columns: k_central k_mean P_0(k) sigma^{lin}_{P_0(k)} P^img_1(k) sigma^{lin}_{P_1(k)} P_2(k) sigma^{lin}_{P_2(k)} P^img_3(k) sigma^{lin}_{P_3(k)} P_4(k) sigma^{lin}_{P_4(k)} N_modes
### header ###
0.00050000 0 0 0 0 0 0 0 0 0 0 0 0
0.00150000 0.00179520 12054.90933367 0 -17127.47510601 0 -3697.24236229 0 -36643.32582838 0 -29355.83084074 0 3
0.00250000 0.00253879 15023.59991950 0 -10489.04752763 0 -9327.23125484 0 -14803.02970207 0 -12320.18676151 0 6
0.00350000 0.00331552 24835.23984061 0 -8272.52554930 0 -11641.99925034 0 -3255.27808448 0 19476.08656962 0 7
0.00450000 0.00420575 21922.68042067 0 -5205.21547083 0 -24760.98412996 0 12712.99507702 0 23164.48635099 0 24
0.00550000 0.00557378 42294.55888430 0 -16674.69102420 0 -8947.48359613 0 -242.47784899 0 -14267.53178873 0 45
0.00650000 0.00659388 58636.41735929 0 -7502.05664387 0 -27934.20745726 0 -8013.72901928 0 29294.31723428 0 40
0.00750000 0.00754703 61937.39126571 0 4138.19605942 0 -19688.96758625 0 -5491.42949401 0 -3757.67948063 0 57
0.00850000 0.00846663 76880.58411392 0 -6309.30781470 0 -32339.13090810 0 -21938.05882228 0 -9629.04337109 0 75
0.00950000 0.00948925 76051.24888403 0 -6844.45422172 0 -7227.53020592 0 -9780.83917959 0 -31164.77025343 0 112
0.01050000 0.01054430 68212.21850708 0 13924.04420411 0 6116.36379731 0 -25906.67505019 0 -4693.76278687 0 105
0.01150000 0.01145670 68765.40158227 0 906.56556280 0 19396.99764704 0 -19496.18833745 0 -4317.74988284 0 144
0.01250000 0.01249090 69724.79415153 0 40.64983883 0 19241.67579074 0 6192.46491615 0 -22984.77874356 0 169
0.01350000 0.01339930 71219.57478840 0 -2628.54231128 0 26694.37875000 0 17474.91713676 0 -18824.81126128 0 180
0.01450000 0.01448870 79880.47088588 0 -3482.57086033 0 11922.65507979 0 9001.73640011 0 -11795.34388357 0 267
0.01550000 0.01550050 79402.64197859 0 -1917.65372753 0 10762.28877059 0 -1940.36982363 0 9926.00030625 0 238
0.01650000 0.01653350 83034.03182826 0 -2509.56840565 0 14325.20079478 0 2615.48165448 0 2312.17563636 0 315
0.01750000 0.01747870 85289.49411639 0 -40.53845527 0 3367.33170938 0 13648.77081522 0 32222.25505584 0 297
0.01850000 0.01844180 89332.80543785 0 -6460.04910423 0 -466.71801212 0 1813.25634972 0 -8171.97277189 0 388
0.01950000 0.01947590 97574.64009136 0 -4949.18705310 0 -4726.63961261 0 10346.35792979 0 4418.42349055 0 399
0.02050000 0.02045430 95307.75384775 0 7182.93284124 0 5046.89482622 0 -14383.41902946 0 -3567.00926977 0 462
0.02150000 0.02154770 87882.07293704 0 6919.50082159 0 12719.91535774 0 -12265.04420715 0 3011.14595886 0 571
0.02250000 0.02255340 81711.26959802 0 7896.72135215 0 17228.09379085 0 -15250.43134331 0 -11249.52047201 0 510
0.02350000 0.02348930 72897.46825020 0 6152.54697939 0 32094.94385962 0 -1944.26934690 0 -5013.01840438 0 555
0.02450000 0.02439640 71092.92266653 0 3083.18278585 0 35704.14487267 0 6349.21476689 0 498.90610516 0 592
0.02550000 0.02547300 66951.84864909 0 -4262.84898908 0 24542.28128987 0 9458.03554514 0 -285.78892022 0 837
0.02650000 0.02652900 69768.62259613 0 1198.61459093 0 20184.37180967 0 8635.34598166 0 256.46999754 0 723
0.02750000 0.02749970 64228.99279763 0 4806.67320843 0 20164.48973330 0 459.41876364 0 879.63139083 0 826
0.02850000 0.02848090 65047.12376349 0 2778.41581958 0 18653.23223756 0 6666.59202248 0 13758.50669531 0 831
0.02950000 0.02946900 60157.78066181 0 -1084.77487453 0 15221.43207169 0 9001.30800178 0 13101.08002632 0 996
0.03050000 0.03053250 60684.49091708 0 -997.12237916 0 16493.99480524 0 -1517.37590267 0 7451.81320888 0 1041
0.03150000 0.03150510 56005.39253461 0 6384.83773577 0 22701.37677096 0 -7655.26946224 0 13134.25343551 0 1036
0.03250000 0.03246190 53456.86185001 0 6860.84320401 0 22826.49105266 0 -7494.82879511 0 6878.26473612 0 1059
0.03350000 0.03345080 50188.73181561 0 -1143.71369717 0 28661.71569932 0 6459.22526129 0 12848.10531977 0 1302
0.03450000 0.03451200 49950.69612777 0 -1409.74906052 0 26632.42576064 0 7987.44293710 0 10694.51395776 0 1339
0.03550000 0.03553350 53553.85562590 0 -718.36138847 0 23878.70326023 0 1398.53381191 0 9479.32364680 0 1365
0.03650000 0.03647120 50571.76386152 0 2408.76298307 0 22575.49356918 0 721.83141495 0 7389.15720688 0 1308
0.03750000 0.03744890 50223.00368206 0 1161.06932185 0 26070.56487311 0 -3699.16466249 0 8003.87585768 0 1579
0.03850000 0.03847530 49407.94839653 0 292.15997232 0 23749.08530377 0 1997.59944678 0 5851.07538490 0 1662
0.03950000 0.03950240 48427.79498509 0 618.94771124 0 24348.07404663 0 3327.47968006 0 5144.51472275 0 1683
0.04050000 0.04050350 47307.14889035 0 176.58689036 0 20668.90130623 0 3499.79467014 0 2812.99525407 0 1822
0.04150000 0.04152450 47754.22099441 0 -602.96405968 0 16311.32136321 0 3605.29050521 0 2172.07839766 0 1887
0.04250000 0.04250150 47861.97965143 0 -446.59647207 0 13225.75492511 0 4731.56070112 0 5172.42652168 0 1920
0.04350000 0.04349210 48759.63892278 0 95.93563202 0 10977.35571716 0 2155.16215589 0 -580.94328702 0 2005
0.04450000 0.04448520 47801.45465651 0 830.01956876 0 10634.29653087 0 -3110.49043329 0 5020.91631206 0 2151
0.04550000 0.04548030 43176.40037113 0 2467.13500177 0 11198.66190095 0 -390.96290732 0 1449.99653446 0 2274
0.04650000 0.04648670 43320.73765485 0 1484.42218492 0 12034.25833722 0 -388.71216839 0 -890.39956733 0 2311
0.04750000 0.04749250 39678.03369542 0 1950.65138357 0 13527.61097965 0 -949.80523431 0 -2358.00327317 0 2568
0.04850000 0.04851840 38875.72051408 0 967.70898916 0 16584.28799186 0 -1170.29636282 0 -853.58147695 0 2493
0.04950000 0.04949480 37174.75944986 0 1448.50263258 0 14217.99136639 0 2193.98163539 0 -592.66382597 0 2644
0.05050000 0.05050630 35784.11256106 0 291.63820512 0 16645.80159832 0 -1866.54251131 0 -2425.36067224 0 2829
0.05150000 0.05149060 35003.32914198 0 1725.64339881 0 15981.67434005 0 158.30526621 0 -616.98586658 0 2784
0.05250000 0.05249300 33698.58161077 0 172.04916343 0 17787.75776387 0 1909.40431352 0 3471.91582493 0 3055
0.05350000 0.05348950 34940.05800391 0 -1164.21090961 0 15982.22356868 0 1440.43995631 0 -1988.03188406 0 3009
0.05450000 0.05448610 35431.28808975 0 240.81258779 0 15380.48868267 0 2426.38223749 0 1076.70011522 0 3336
0.05550000 0.05550870 33938.92405885 0 570.05977251 0 14981.30931506 0 575.58830789 0 3121.12349955 0 3349
0.05650000 0.05647670 34477.16811534 0 -194.91464971 0 14617.82980835 0 1132.57534057 0 4786.20894972 0 3324
0.05750000 0.05747970 35297.05661281 0 125.31310247 0 13412.71235045 0 986.86278837 0 971.69419209 0 3639
0.05850000 0.05849280 33990.77124143 0 342.75051980 0 13619.66169788 0 272.47342134 0 2357.21238395 0 3846
0.05950000 0.05951020 33148.58406162 0 549.75918392 0 11973.40380512 0 -491.93090157 0 -555.21192575 0 3787
0.06050000 0.06049470 33070.59359630 0 523.01394660 0 13482.68407779 0 1150.83170020 0 2642.56961047 0 3930
0.06150000 0.06148310 32533.66768852 0 440.93612182 0 11791.05990027 0 -107.23798828 0 -439.62236694 0 4083
0.06250000 0.06249100 30970.45316447 0 1130.68599409 0 13422.15908287 0 -1279.05461594 0 -558.88516682 0 4303
0.06350000 0.06350600 30517.66908267 0 979.00003131 0 14221.39658389 0 -1182.37939266 0 -2628.67412615 0 4470
0.06450000 0.06451750 29493.35768945 0 -4.20581709 0 13162.37394132 0 1783.03779055 0 -359.50858373 0 4479
0.06550000 0.06550280 30032.26082030 0 -399.36171151 0 14536.87350842 0 1248.45159673 0 -3788.98551249 0 4636
0.06650000 0.06648880 29557.94697623 0 730.87281664 0 13378.66017545 0 82.95571183 0 -690.93840302 0 4653
0.06750000 0.06749660 29735.89705205 0 520.21178214 0 14142.30766130 0 117.38773335 0 -623.89186736 0 5220
0.06850000 0.06852730 29311.12363033 0 -562.97142782 0 12270.86603062 0 885.93433857 0 -1456.11494138 0 5029
0.06950000 0.06949320 29226.54242145 0 254.41368556 0 11917.05294777 0 2926.11438251 0 326.84266179 0 5040
0.07050000 0.07048030 29820.69795238 0 374.95948352 0 11220.52120039 0 616.55417288 0 565.95703465 0 5475
0.07150000 0.07148790 28966.31789700 0 -499.89361823 0 10928.96867494 0 544.43386314 0 2924.20306688 0 5509
0.07250000 0.07249820 28302.41033019 0 492.28240789 0 9765.76834601 0 1926.50729303 0 573.24749547 0 5916
0.07350000 0.07351270 27080.04709333 0 852.64449291 0 8578.52278770 0 148.53558736 0 4329.67912866 0 5721
0.07450000 0.07449140 27027.76052785 0 1698.13802907 0 10242.85030236 0 -739.43309406 0 2154.96443358 0 6028
0.07550000 0.07549160 24715.94738238 0 232.25560575 0 8545.76679226 0 -144.38561584 0 2331.91491329 0 6183
0.07650000 0.07648840 24625.54435003 0 54.16514709 0 8993.75061585 0 2279.83705469 0 2668.67993949 0 6330
0.07750000 0.07749960 24422.87898591 0 -345.75150503 0 6978.91637469 0 1541.12454859 0 2351.92880454 0 6583
0.07850000 0.07848650 24538.65638091 0 -181.49479739 0 5745.52462696 0 2033.81558258 0 2868.40143817 0 6549
0.07950000 0.07947320 25749.59566228 0 -341.27858707 0 3772.64046849 0 39.87641508 0 731.42863602 0 6828
0.08050000 0.08048110 24263.16330057 0 426.10365346 0 3932.14744694 0 -465.14062750 0 1727.98311277 0 7147
0.08150000 0.08149960 23610.02061489 0 936.05474635 0 4796.13900333 0 -1927.60575029 0 57.00597725 0 7386
0.08250000 0.08250610 23039.70160646 0 1566.22429694 0 7369.71451341 0 -1363.69074768 0 -653.78418473 0 7227
0.08350000 0.08350160 21828.98201655 0 438.89738515 0 7399.71338113 0 -585.06250174 0 -1115.28562333 0 7798
0.08450000 0.08449610 21294.47271474 0 -287.86061061 0 7890.11962403 0 1211.10404996 0 -713.16898101 0 7371
0.08550000 0.08548940 21413.32579007 0 285.34294657 0 7360.82799419 0 752.76177443 0 -284.72231822 0 8256
0.08650000 0.08650700 20571.35830171 0 287.83314918 0 6975.41229603 0 -96.83669651 0 1700.64251162 0 8037
0.08750000 0.08749060 20455.36121525 0 577.43591300 0 7527.13442308 0 995.46590561 0 2216.82954636 0 8155
0.08850000 0.08849210 20283.56250008 0 57.98920634 0 7012.40833649 0 238.74858660 0 1321.33423581 0 8718
0.08950000 0.08949900 20189.75425023 0 22.79090104 0 7410.67598457 0 -88.51950768 0 1846.34188234 0 8571
0.09050000 0.09049190 19226.62692630 0 608.42888454 0 8123.36603822 0 -343.42497255 0 1936.67900724 0 8932
0.09150000 0.09150830 18822.50450103 0 251.55989360 0 7984.79565510 0 -182.44276600 0 2883.62605576 0 9285
0.09250000 0.09250820 18785.37664571 0 276.25431122 0 8068.49809817 0 821.84265293 0 2500.86862417 0 9204
0.09350000 0.09350330 18779.22528506 0 41.35493855 0 7892.67902944 0 91.56706750 0 1250.16519006 0 9349
0.09450000 0.09448040 18886.87409636 0 429.17054612 0 7559.00066813 0 -111.41322432 0 798.18627742 0 9564
0.09550000 0.09549270 17961.31401066 0 530.22531850 0 8758.91143863 0 -473.24284824 0 1277.94517411 0 10155
0.09650000 0.09649430 17571.47152975 0 -352.14232936 0 7201.40889232 0 285.25946382 0 716.76533008 0 9913
0.09750000 0.09749140 18072.14834800 0 -217.85812646 0 7254.38748588 0 1467.93434148 0 -35.12701543 0 10476
0.09850000 0.09850240 18199.78908140 0 -89.78504029 0 6217.37792677 0 362.71717738 0 -412.52342638 0 10575
0.09950000 0.09950330 18084.89045220 0 -63.22313549 0 5400.31246445 0 118.74872189 0 -988.31714578 0 10882
0.10050000 0.10051200 17664.95024241 0 628.08358026 0 5362.53651934 0 -205.41150727 0 -778.93801089 0 10875
0.10150000 0.10150300 17472.50053079 0 462.93382687 0 5809.70748455 0 -702.08225191 0 -1470.30700916 0 11118
0.10250000 0.10250800 16935.57462301 0 356.06162485 0 6250.56232053 0 53.36832620 0 -1790.66108392 0 11575
0.10350000 0.10349800 16561.22038944 0 84.56352371 0 6142.45215719 0 751.42605040 0 -1252.38407372 0 11364
0.10450000 0.10450100 15981.45464860 0 -127.79781278 0 5584.88623753 0 386.69759778 0 -578.37289704 0 12093
0.10550000 0.10551000 16021.98772142 0 214.33757095 0 5023.34390260 0 1129.46670653 0 368.71036018 0 12067
0.10650000 0.10649700 16085.25885949 0 266.65599170 0 4610.21412782 0 606.54393188 0 220.91842838 0 12054
0.10750000 0.10749900 15936.52774674 0 139.24703278 0 5111.83561932 0 -351.37011390 0 189.58823047 0 12807
0.10850000 0.10850100 15554.81384954 0 138.91310178 0 4594.75883420 0 -129.65640246 0 325.64314646 0 12736
0.10950000 0.10950300 15161.89568830 0 361.62531086 0 5445.81056408 0 -473.52295484 0 1057.24973255 0 12933
0.11050000 0.11050200 14993.83172781 0 -131.07121541 0 4694.72942926 0 567.39381674 0 600.10148006 0 13428
0.11150000 0.11150900 15398.50338170 0 148.48945215 0 5255.31610637 0 803.72360046 0 -132.19933102 0 13453
0.11250000 0.11250000 15371.04195025 0 -40.96377792 0 4280.35839777 0 464.41344879 0 848.93719966 0 13668
0.11350000 0.11349100 15109.82881427 0 136.08896817 0 4618.37566525 0 29.96217925 0 908.23741474 0 13791
0.11450000 0.11448600 14616.62150536 0 250.21867729 0 4796.74315482 0 -735.79939745 0 1508.78596691 0 14205
0.11550000 0.11549300 14351.01454035 0 454.11760891 0 5067.21628549 0 54.18327163 0 924.31553363 0 14776
0.11650000 0.11649800 14246.88079228 0 196.72600573 0 5378.62891817 0 -211.07844827 0 918.51677776 0 14553
0.11750000 0.11747300 14034.32931283 0 71.03865888 0 5060.12025160 0 122.29234501 0 521.10922172 0 14568
0.11850000 0.11849100 13855.93985411 0 -108.67378176 0 5002.70389072 0 560.65697838 0 260.50902488 0 16015
0.11950000 0.11950300 14033.99977565 0 -147.54368046 0 4901.75566870 0 706.67160633 0 1265.43374594 0 15270
0.12050000 0.12050700 14113.41823541 0 70.82720586 0 3842.23872037 0 406.45115465 0 905.58573892 0 15999
0.12150000 0.12150000 14239.08174574 0 121.89140811 0 4294.68228042 0 165.86924289 0 1227.99832259 0 15670
0.12250000 0.12250700 13849.23926483 0 220.75256134 0 3937.80450182 0 -663.94491436 0 104.85422619 0 16887
0.12350000 0.12352200 13648.55112377 0 73.54314143 0 4175.80723594 0 321.44703973 0 768.79265965 0 16407
0.12450000 0.12449800 13259.47756294 0 178.31915746 0 4089.98477036 0 -266.71091456 0 258.23302144 0 16306
0.12550000 0.12549900 13087.12961914 0 397.91943713 0 4515.16462127 0 -366.46840892 0 22.52639253 0 17523
0.12650000 0.12650100 12984.20417405 0 259.71374183 0 4338.10429583 0 323.50994246 0 339.69021788 0 17154
0.12750000 0.12750600 12678.17398193 0 -142.04809879 0 4221.34927387 0 730.45430443 0 -271.29477670 0 18007
0.12850000 0.12850300 12789.11816501 0 -43.58118187 0 3957.47787132 0 313.42610484 0 379.79818774 0 17496
0.12950000 0.12949900 12582.71804620 0 170.83866353 0 3658.52174394 0 -51.95109664 0 466.64221857 0 18405
0.13050000 0.13049000 12672.46200419 0 45.47942586 0 3474.54113778 0 -24.34060454 0 578.84852903 0 18100
0.13150000 0.13148800 12574.25992532 0 126.16440684 0 3844.66631091 0 -179.28030756 0 76.86498602 0 19059
0.13250000 0.13249300 12195.29217126 0 188.24042341 0 3856.43078814 0 -336.07080121 0 235.37632282 0 18957
0.13350000 0.13349100 12022.39499883 0 246.10056103 0 4295.79172225 0 294.61941812 0 14.37792674 0 19468
0.13450000 0.13450700 11882.12200696 0 67.80491056 0 3711.32458434 0 143.91767305 0 343.54799977 0 19953
0.13550000 0.13551000 11899.80716882 0 174.49762466 0 4221.56896532 0 6.95380564 0 -138.12990175 0 19956
0.13650000 0.13649900 11529.51722710 0 120.50405659 0 3990.22288218 0 307.09679411 0 619.83636316 0 19723
0.13750000 0.13749600 11659.57456647 0 -11.86531561 0 3588.91250749 0 289.57090856 0 600.33545146 0 20946
0.13850000 0.13851100 11473.60575266 0 -82.67944983 0 3222.12664443 0 367.18460305 0 53.56451066 0 20955
0.13950000 0.13949800 11401.32726508 0 128.86331632 0 3385.71988388 0 326.62187188 0 612.57006840 0 20506
0.14050000 0.14048300 11393.30852710 0 164.64006922 0 3003.13820545 0 -115.17324352 0 1016.65294921 0 21447
0.14150000 0.14148400 11077.39221966 0 -9.25451338 0 2763.25710942 0 121.93974023 0 450.93208287 0 21771
0.14250000 0.14249400 11261.16411894 0 210.28536213 0 2985.12350642 0 -120.56776711 0 -11.41000508 0 22470
0.14350000 0.14350900 10915.80915698 0 263.54076691 0 3088.91673274 0 -40.12246950 0 722.26860094 0 22519
0.14450000 0.14449900 10664.60296662 0 -26.08627281 0 3104.67959439 0 146.71544368 0 660.77806209 0 22218
0.14550000 0.14550500 10735.17884546 0 75.94294100 0 3106.62386374 0 186.99147751 0 420.60148105 0 23559
0.14650000 0.14650700 10604.38553973 0 105.07699332 0 2820.42082513 0 -2.39765758 0 417.70265235 0 23044
0.14750000 0.14750500 10476.87662121 0 -13.30088940 0 3307.56464997 0 418.23979795 0 1356.57274465 0 23649
0.14850000 0.14849900 10632.82459814 0 36.04587493 0 2579.70490158 0 142.43146038 0 1046.19376025 0 23640
0.14950000 0.14949500 10306.76953021 0 170.57393533 0 2976.59947809 0 190.39120272 0 784.32484528 0 24457
0.15050000 0.15050000 10216.24566757 0 491.77382218 0 3133.52508199 0 -574.05596002 0 1044.32748137 0 24591
0.15150000 0.15149900 9682.72497729 0 246.67175880 0 3196.01631540 0 -226.95225410 0 1154.58842402 0 25020
0.15250000 0.15250500 9607.00831849 0 -1.47499742 0 3809.15318775 0 399.96366609 0 1213.70739366 0 25297
0.15350000 0.15350100 9570.70430611 0 -188.61170197 0 2963.96721962 0 287.04775224 0 1202.88758967 0 25452
0.15450000 0.15450400 9679.50649753 0 96.12632420 0 2964.81303171 0 106.07109714 0 623.28002667 0 26061
0.15550000 0.15549900 9500.20531928 0 119.55498952 0 2943.53591462 0 -12.29437302 0 1092.76834799 0 26128
0.15650000 0.15649500 9326.46233476 0 -20.30080828 0 2786.72015645 0 249.23336113 0 975.16202165 0 26331
0.15750000 0.15749700 9399.37792756 0 266.89655384 0 2829.50506666 0 -216.44441197 0 913.62864297 0 27345
0.15850000 0.15849900 9120.47962972 0 110.76513454 0 2834.96439923 0 -25.60624699 0 565.87794573 0 26980
0.15950000 0.15949700 9121.74285556 0 56.82769764 0 2864.39206917 0 287.93201033 0 811.16894376 0 27777
0.16050000 0.16050000 8969.13418869 0 37.64676653 0 2537.91958748 0 365.57536317 0 818.26497764 0 28224
0.16150000 0.16150500 9062.44813277 0 -62.12390931 0 2197.11223858 0 277.79105292 0 920.11173770 0 28075
0.16250000 0.16249700 8918.81386170 0 -23.64967492 0 2251.77147174 0 252.00586725 0 1375.94953068 0 28590
0.16350000 0.16349900 8852.68673476 0 137.09405656 0 2036.12234282 0 23.52434095 0 948.09493635 0 29163
0.16450000 0.16449100 8828.31196820 0 154.93410089 0 2086.02525606 0 -304.96798395 0 1187.81675608 0 28996
0.16550000 0.16550500 8500.15884690 0 255.30563285 0 2275.12467305 0 -285.04087083 0 931.56974536 0 30777
0.16650000 0.16650700 8519.08526546 0 -7.60444384 0 2512.53424025 0 215.47886804 0 873.09447168 0 29211
0.16750000 0.16749900 8507.35374194 0 -52.31501553 0 2435.03808069 0 105.52604265 0 348.64703836 0 30922
0.16850000 0.16850800 8563.08946322 0 93.75892911 0 2309.02306403 0 -119.64725993 0 177.11524830 0 30867
0.16950000 0.16949900 8469.75355000 0 67.62355526 0 2343.67939053 0 -246.81455824 0 155.70082405 0 30852
0.17050000 0.17049200 8242.44978957 0 101.54325632 0 2283.47294821 0 111.09137634 0 244.46276126 0 31257
0.17150000 0.17149500 8302.20586441 0 -25.92688666 0 2247.14696668 0 420.94310126 0 588.44794701 0 32608
0.17250000 0.17250900 8191.37152707 0 -48.32882399 0 1774.42588565 0 516.69122662 0 133.57020567 0 32361
0.17350000 0.17350400 8209.81462443 0 207.41179794 0 1843.88133808 0 69.74511561 0 617.91625988 0 32508
0.17450000 0.17449800 7853.23342930 0 349.23690991 0 1937.83238737 0 -423.28391368 0 725.33439515 0 32791
0.17550000 0.17549800 7664.63930265 0 139.27669113 0 2048.85346244 0 -59.44444252 0 795.41267285 0 33633
0.17650000 0.17650100 7522.99323921 0 -95.42089495 0 1818.27629939 0 150.66220061 0 372.10898694 0 33984
0.17750000 0.17750300 7560.24192484 0 19.55737241 0 1952.93617466 0 96.94061056 0 276.71346635 0 34069
0.17850000 0.17849800 7531.35249895 0 24.72275782 0 1679.65099341 0 -63.01376953 0 143.81991035 0 34536
