### header ###
fiducial parameters:
Omega_m = 0.31
Omega_nu = 0
Omega_de = 0.69
Omega_k = 0
H_0 = 100
w_de = -1
zeff = 0
beta = 0
fgrowth = 0
b_1 = 2
gamma = 0.55
Lx = 3500 Ly = 3500 Lz = 3500
nx = 700 ny = 700 nz = 700
xoffset = -983.599254 yoffset = -42.9823471 zoffset = 800.977702
bins = 400 dk = 0.001
kx_ny = 0.628318531 ky_ny = 0.628318531 kz_ny = 0.628318531
############################
A(data) = 9.14123125 (not used)
A(ran) = 9.14183265 (used)
Ngal = 507923
weighted Ngal = 0
Nran = 25229228
weighted Nran = 0
SN(data) = 6706.59308
SN(ran) = 135.704207
SN(data+ran) = 6842.29729
############################
13 columns: k_central k_mean P_0(k) sigma^{lin}_{P_0(k)} P^img_1(k) sigma^{lin}_{P_1(k)} P_2(k) sigma^{lin}_{P_2(k)} P^img_3(k) sigma^{lin}_{P_3(k)} P_4(k) sigma^{lin}_{P_4(k)} N_modes
### header ###
0.00050000 0 0 0 0 0 0 0 0 0 0 0 0
0.00150000 0.00179520 -4529.31275076 0 464.93082216 0 700.08635507 0 3665.47497839 0 4541.87910179 0 3
0.00250000 0.00253879 -2562.17352374 0 -4235.81595595 0 -2108.51067613 0 373.59190424 0 -1458.43268620 0 6
0.00350000 0.00331552 4830.64154581 0 -9029.08798584 0 -17083.20727850 0 6194.22244776 0 -9549.95444850 0 7
0.00450000 0.00420575 18072.58773091 0 -11145.71626111 0 -12152.67202964 0 -6415.94604532 0 8253.77488390 0 24
0.00550000 0.00557378 28098.97604598 0 -8522.64426698 0 -11181.41612200 0 -7786.26049027 0 -1586.15031160 0 45
0.00650000 0.00659388 24610.49548560 0 -3233.80324508 0 -7826.16744246 0 -12097.96885819 0 5287.06152113 0 40
0.00750000 0.00754703 49622.14756186 0 -4834.84863711 0 -13897.57138419 0 485.04577147 0 -29367.03510477 0 57
0.00850000 0.00846663 54339.14271974 0 -14095.62322783 0 -18278.98784971 0 -5604.43877673 0 17241.16543222 0 75
0.00950000 0.00948925 63796.64002083 0 -8196.22670815 0 -9156.35524377 0 12405.42704474 0 -9574.60382937 0 112
0.01050000 0.01054430 76513.58954398 0 -650.79857790 0 -11512.38129388 0 -25137.53527805 0 -10403.65346038 0 105
0.01150000 0.01145670 82250.39242031 0 5171.69055531 0 10150.83253785 0 -23674.60990167 0 -27139.69332245 0 144
0.01250000 0.01249090 71435.42163962 0 3968.26472159 0 14632.32944416 0 -17564.88078620 0 -44.02561768 0 169
0.01350000 0.01339930 68616.45077807 0 -702.84677816 0 7732.74365265 0 5011.79911682 0 -1985.26377177 0 180
0.01450000 0.01448870 79069.04050930 0 -5561.32432935 0 27799.09721451 0 8690.74118119 0 -14030.70440388 0 267
0.01550000 0.01550050 78909.10513251 0 7749.87958588 0 35498.84321113 0 -11178.45028740 0 -5371.97226719 0 238
0.01650000 0.01653350 74447.83082433 0 8007.24812146 0 25631.07212413 0 -5455.59781825 0 -17695.04797129 0 315
0.01750000 0.01747870 67479.43767018 0 933.45909185 0 43413.00806453 0 3382.95177159 0 5397.59927502 0 297
0.01850000 0.01844180 67474.71430397 0 -622.90655120 0 33460.65576866 0 5926.34167622 0 -12391.58648329 0 388
0.01950000 0.01947590 73031.26034424 0 -3903.34589764 0 31826.48090573 0 11479.42757613 0 -88.92714517 0 399
0.02050000 0.02045430 74125.21392761 0 -603.45616853 0 23951.20143926 0 10166.07912459 0 -1694.35933610 0 462
0.02150000 0.02154770 71055.24558258 0 -2550.40904651 0 13067.57707994 0 8664.01571610 0 13100.20126051 0 571
0.02250000 0.02255340 72486.86492711 0 -963.04603810 0 17361.11696481 0 7628.22544454 0 4731.14328737 0 510
0.02350000 0.02348930 73732.40561210 0 6229.82344750 0 15117.84755225 0 -6885.71227633 0 1463.40869758 0 555
0.02450000 0.02439640 68751.23148364 0 9073.77322710 0 21309.74127063 0 -12647.63687016 0 15608.63825519 0 592
0.02550000 0.02547300 61225.15157954 0 1753.93965778 0 33224.04807526 0 -5020.53185202 0 -1267.97118221 0 837
0.02650000 0.02652900 57502.04054882 0 3956.20366090 0 39135.72534708 0 2292.78786576 0 7076.61316322 0 723
0.02750000 0.02749970 58545.46509832 0 -1332.24191638 0 34045.03502999 0 4957.35957511 0 -1722.60067221 0 826
0.02850000 0.02848090 56852.08338918 0 -1980.54040556 0 37476.28596722 0 7137.12717357 0 2051.94012734 0 831
0.02950000 0.02946900 59454.43847942 0 2619.30428574 0 31420.38125740 0 17.81642750 0 -7354.06149748 0 996
0.03050000 0.03053250 55123.99043068 0 3983.29161688 0 28401.60102060 0 5146.92034414 0 6577.40827769 0 1041
0.03150000 0.03150510 55104.32804576 0 -1711.35246988 0 26508.62962765 0 4346.97983048 0 7302.08250003 0 1036
0.03250000 0.03246190 53104.91614450 0 -1896.92583907 0 24564.79966366 0 10424.24953397 0 -742.45275306 0 1059
0.03350000 0.03345080 55235.92322528 0 233.13986384 0 14406.15709471 0 2499.46259888 0 3324.48089174 0 1302
0.03450000 0.03451200 50425.88873764 0 1730.33381130 0 11768.21198930 0 1387.84582279 0 5943.41170201 0 1339
0.03550000 0.03553350 52014.69731581 0 -267.65558780 0 10917.88524120 0 -1344.34691537 0 -788.45065074 0 1365
0.03650000 0.03647120 49738.25449405 0 1890.55478697 0 10012.07541700 0 4061.16125191 0 -5112.20909478 0 1308
0.03750000 0.03744890 48460.08962848 0 1821.15425741 0 8223.98472306 0 -2021.64467616 0 767.81722961 0 1579
0.03850000 0.03847530 45136.92688545 0 1581.43792996 0 10668.30476758 0 -3034.80672820 0 -1777.10612135 0 1662
0.03950000 0.03950240 42669.02296360 0 1477.41402762 0 9758.16702178 0 1765.03407609 0 -5632.29565279 0 1683
0.04050000 0.04050350 40345.01694256 0 1461.03602990 0 15191.22449709 0 914.35911704 0 -529.84085846 0 1822
0.04150000 0.04152450 40062.49373577 0 1248.86901049 0 9025.33126202 0 3123.68290496 0 3127.02221502 0 1887
0.04250000 0.04250150 42576.09347956 0 -1386.69244267 0 12743.64203452 0 2901.08054160 0 -73.03960862 0 1920
0.04350000 0.04349210 41599.12559418 0 -377.14651192 0 9113.81199416 0 -2469.92508321 0 -964.02586197 0 2005
0.04450000 0.04448520 39491.95503590 0 2463.40024709 0 14940.55655079 0 -3911.86992596 0 4267.38561755 0 2151
0.04550000 0.04548030 36558.30523660 0 836.54220796 0 13289.57529181 0 974.07345051 0 3523.21377889 0 2274
0.04650000 0.04648670 39351.24266113 0 -931.26986653 0 16797.05916276 0 2756.95196476 0 -48.76963488 0 2311
0.04750000 0.04749250 38262.01244396 0 1127.75311321 0 13869.12134120 0 1079.65716216 0 -1325.54132711 0 2568
0.04850000 0.04851840 35381.08859305 0 2117.85854740 0 15054.35672273 0 -2279.57342494 0 1633.34003541 0 2493
0.04950000 0.04949480 34759.91101358 0 248.46663796 0 14325.09094906 0 -1402.98256381 0 3185.21848056 0 2644
0.05050000 0.05050630 35614.73045186 0 753.46478707 0 17882.77431670 0 2597.66467775 0 -3274.87456197 0 2829
0.05150000 0.05149060 34420.04833791 0 -791.05179753 0 12634.12584588 0 578.93750407 0 -643.85522957 0 2784
0.05250000 0.05249300 35209.61941506 0 -977.81809130 0 12762.86503654 0 3504.68280494 0 -1349.15815816 0 3055
0.05350000 0.05348950 36380.68469796 0 -427.79088381 0 12378.29515046 0 228.72186875 0 307.20883675 0 3009
0.05450000 0.05448610 35560.57650903 0 1037.29076417 0 11188.66593990 0 -57.34594977 0 -2193.46536048 0 3336
0.05550000 0.05550870 36573.02456386 0 625.54394708 0 10155.18242859 0 237.96868194 0 -401.14231073 0 3349
0.05650000 0.05647670 34979.16308230 0 -539.32713534 0 11245.45618015 0 -115.01836104 0 -1186.42171537 0 3324
0.05750000 0.05747970 36239.97232319 0 583.18304137 0 11643.97647340 0 244.16507934 0 1122.54642581 0 3639
0.05850000 0.05849280 33823.03681812 0 85.82631018 0 12345.89066135 0 -467.23428703 0 -594.12038029 0 3846
0.05950000 0.05951020 34461.24048509 0 1823.41707936 0 13717.09485668 0 -1418.58065687 0 -3006.62031496 0 3787
0.06050000 0.06049470 32472.26392779 0 1640.66674532 0 15101.48053910 0 -1665.92027769 0 -609.76680548 0 3930
0.06150000 0.06148310 32370.32709423 0 -621.07761986 0 14722.51278505 0 4231.05963603 0 1834.78611198 0 4083
0.06250000 0.06249100 32260.37152270 0 -1450.99613056 0 11772.60581833 0 3076.36136628 0 1524.60375143 0 4303
0.06350000 0.06350600 32535.53506586 0 687.08611342 0 11265.66779370 0 -227.61572229 0 -783.60535578 0 4470
0.06450000 0.06451750 32366.37264811 0 1393.38204737 0 11805.66938180 0 834.76380566 0 1252.09847483 0 4479
0.06550000 0.06550280 30332.13965177 0 995.80972273 0 13004.30594187 0 -2902.71724291 0 2753.23917922 0 4636
0.06650000 0.06648880 29483.25188268 0 627.59037295 0 13090.64468236 0 -859.35716521 0 -1019.79343851 0 4653
0.06750000 0.06749660 28776.94386570 0 767.46572328 0 15270.75280258 0 -559.66177610 0 -1598.22235687 0 5220
0.06850000 0.06852730 28675.33656932 0 -271.90991276 0 13381.07678141 0 2528.03347216 0 401.70032701 0 5029
0.06950000 0.06949320 28629.75059311 0 -292.94646771 0 14061.46120710 0 865.44481534 0 -2503.77953590 0 5040
0.07050000 0.07048030 28519.24579294 0 1154.88500748 0 13832.32302306 0 -367.77337614 0 637.84556991 0 5475
0.07150000 0.07148790 27603.02259393 0 340.10213935 0 12634.12584588 0 835.09224438 0 866.42573767 0 5509
0.07250000 0.07249820 27893.01531008 0 -619.19156875 0 13261.01540310 0 2575.89325490 0 2650.62130217 0 5916
0.07350000 0.07351270 27652.34332482 0 -238.81559249 0 11089.47524950 0 2388.11198662 0 1111.89139040 0 5721
0.07450000 0.07449140 27371.57764964 0 1088.48656160 0 10994.78823384 0 -754.08980925 0 2659.38699109 0 6028
0.07550000 0.07549160 26163.71404860 0 937.96276661 0 10342.51332939 0 -176.98782726 0 3363.28938667 0 6183
0.07650000 0.07648840 25104.14217740 0 306.68597110 0 11287.30740169 0 1349.94904738 0 4758.16533592 0 6330
0.07750000 0.07749960 25028.45847232 0 41.27980407 0 9531.98368776 0 1649.68507941 0 2757.21559450 0 6583
0.07850000 0.07848650 24730.99624681 0 59.32778636 0 8704.90029525 0 441.67318664 0 4231.10357432 0 6549
0.07950000 0.07947320 24696.39484318 0 433.27438244 0 8524.88511978 0 932.63524890 0 3000.11744799 0 6828
0.08050000 0.08048110 23505.99671254 0 23.55366976 0 7519.50014513 0 1517.51870211 0 5813.54110039 0 7147
0.08150000 0.08149960 24115.09126218 0 184.93846089 0 7261.32973575 0 -586.18512506 0 2697.12998248 0 7386
0.08250000 0.08250610 23412.62784560 0 555.17677512 0 7737.01665139 0 -967.27400008 0 2945.90858230 0 7227
0.08350000 0.08350160 22468.83336941 0 488.72999712 0 9155.38860138 0 -882.52253033 0 2746.39579051 0 7798
0.08450000 0.08449610 22777.39001322 0 7.87076481 0 8664.56494473 0 -92.40826607 0 48.16680154 0 7371
0.08550000 0.08548940 22531.33558740 0 522.00007055 0 9358.15282666 0 -718.78868835 0 -112.63800416 0 8256
0.08650000 0.08650700 22130.72822536 0 158.32284153 0 8975.53819451 0 399.71980858 0 -280.18788666 0 8037
0.08750000 0.08749060 21977.27374640 0 68.90907979 0 9439.47161748 0 667.00411783 0 159.73545756 0 8155
0.08850000 0.08849210 21552.72001613 0 561.10075511 0 9100.58656877 0 -603.29030148 0 -1868.00345947 0 8718
0.08950000 0.08949900 21277.77616442 0 549.96569389 0 9579.43704131 0 132.54754197 0 -475.54960848 0 8571
0.09050000 0.09049190 20307.06948540 0 -72.70337085 0 9029.45047674 0 897.18913164 0 -496.01496565 0 8932
0.09150000 0.09150830 19841.32360795 0 593.15703328 0 9049.21172281 0 589.71227132 0 -213.53020487 0 9285
0.09250000 0.09250820 19313.40504970 0 391.31880747 0 7985.58654433 0 573.74619507 0 254.14785890 0 9204
0.09350000 0.09350330 19373.38081599 0 45.28598754 0 7803.13279375 0 411.57765468 0 538.16057373 0 9349
0.09450000 0.09448040 18944.43325669 0 210.84777224 0 7420.95754450 0 1098.06510889 0 515.08747903 0 9564
0.09550000 0.09549270 18915.65367652 0 -35.54311104 0 6782.87470783 0 474.20399834 0 1537.89508425 0 10155
0.09650000 0.09649430 18587.76418497 0 -28.99454825 0 5976.56314207 0 366.31792027 0 1510.73023626 0 9913
0.09750000 0.09749140 18115.64725543 0 455.47200671 0 6285.76787566 0 -57.47842372 0 387.06008868 0 10476
0.09850000 0.09850240 17351.12100376 0 1018.58843090 0 6914.27216504 0 -649.51228445 0 1181.51161142 0 10575
0.09950000 0.09950330 16957.21423100 0 387.62359725 0 6908.71397132 0 49.69717219 0 1266.40038833 0 10882
0.10050000 0.10051200 16634.26779711 0 -5.41345001 0 8079.94402280 0 -14.87146359 0 709.25078397 0 10875
0.10150000 0.10150300 16023.19602441 0 468.85780686 0 7224.67421705 0 -72.46687301 0 832.63170012 0 11118
0.10250000 0.10250800 15981.34480287 0 80.29327112 0 7536.17472631 0 1063.30992125 0 1189.16785851 0 11575
0.10350000 0.10349800 15990.35215239 0 -478.69119624 0 6764.69524020 0 494.88575159 0 1155.78574244 0 11364
0.10450000 0.10450100 15598.20291123 0 150.31398966 0 6230.24086126 0 914.12953948 0 948.11910241 0 12093
0.10550000 0.10551000 15824.37526068 0 653.91819651 0 6184.38027073 0 -387.51265307 0 1494.45109969 0 12067
0.10650000 0.10649700 15529.10994970 0 286.54795419 0 5996.07174297 0 -194.40496554 0 1029.94757740 0 12054
0.10750000 0.10749900 15057.21271160 0 -142.66872714 0 6497.19892870 0 -64.34312251 0 797.16141680 0 12807
0.10850000 0.10850100 14632.21959843 0 119.50995277 0 5961.65707707 0 753.88329929 0 1096.17356549 0 12736
0.10950000 0.10950300 14993.83172781 0 107.57389651 0 5898.37495443 0 255.28695908 0 948.68590636 0 12933
0.11050000 0.11050200 15061.60654063 0 -68.55988023 0 5332.88915794 0 367.34278089 0 892.74477357 0 13428
0.11150000 0.11150900 15004.37691749 0 195.87799673 0 5620.41034526 0 45.91430509 0 384.89393096 0 13453
0.11250000 0.11250000 14739.31918110 0 153.62913367 0 4781.39770692 0 169.45021355 0 989.96812703 0 13668
0.11350000 0.11349100 14552.58144722 0 30.41375503 0 5331.32934864 0 -23.91561142 0 731.75817319 0 13791
0.11450000 0.11448600 14288.51232236 0 49.29744360 0 5095.54549818 0 218.24258650 0 660.91976307 0 14205
0.11550000 0.11549300 14050.25694307 0 392.00424480 0 5013.13923467 0 389.14276364 0 324.66881487 0 14776
0.11650000 0.11649800 13982.04274734 0 23.42635856 0 4735.76779242 0 244.40344456 0 1421.01923199 0 14553
0.11750000 0.11747300 13993.79624000 0 -115.34020902 0 4521.90914884 0 523.65105181 0 1116.47195717 0 14568
0.11850000 0.11849100 13844.73559007 0 65.04558592 0 4340.80650069 0 225.25953147 0 507.16210991 0 16015
0.11950000 0.11950300 13565.17821788 0 297.46771779 0 3870.99633138 0 18.14662375 0 1584.90905490 0 15270
0.12050000 0.12050700 13535.30018046 0 118.44994152 0 4485.49529073 0 -274.38473697 0 912.67408361 0 15999
0.12150000 0.12150000 13402.38685222 0 62.32932082 0 4614.05872822 0 -7.50671410 0 1361.49383317 0 15670
0.12250000 0.12250700 13366.02791698 0 -13.95249425 0 4290.24451310 0 283.44810780 0 895.54474113 0 16887
0.12350000 0.12352200 13585.38983143 0 -42.57334734 0 4067.81790290 0 1.01593785 0 1177.67799559 0 16407
0.12450000 0.12449800 13366.57714561 0 270.59066560 0 4492.42655603 0 85.11560833 0 -331.91533740 0 16306
0.12550000 0.12549900 13387.88721642 0 332.93690265 0 4659.89734960 0 -259.25348824 0 498.73694274 0 17523
0.12650000 0.12650100 12900.06234808 0 -205.23685257 0 4581.31371736 0 151.79580850 0 1061.20527714 0 17154
0.12750000 0.12750600 12978.38235058 0 -45.32586153 0 4427.87022297 0 588.86975460 0 432.63837569 0 18007
0.12850000 0.12850300 12880.83934606 0 98.19878351 0 3974.84448057 0 321.52612866 0 588.73025053 0 17496
0.12950000 0.12949900 12900.61157671 0 425.40942847 0 3899.19372920 0 -266.73947445 0 487.95448629 0 18405
0.13050000 0.13049000 12335.34547167 0 155.23068435 0 4193.00907661 0 -83.18660754 0 906.65673475 0 18100
0.13150000 0.13148800 11999.76677931 0 288.23298762 0 4213.96764109 0 270.58627177 0 682.18150176 0 19059
0.13250000 0.13249300 11836.31633930 0 212.87332743 0 3992.56259614 0 -30.71912614 0 934.66190254 0 18957
0.13350000 0.13349100 11688.46399236 0 219.11476157 0 4479.53066782 0 179.30117825 0 977.62036900 0 19468
0.13450000 0.13450700 11446.91324129 0 -200.96495229 0 3930.21416217 0 478.36385597 0 1421.94193608 0 19953
0.13550000 0.13551000 11469.21192363 0 -67.17132041 0 3522.10433705 0 357.15568828 0 1244.62896547 0 19956
0.13650000 0.13649900 11644.52570203 0 68.45838278 0 3258.57345626 0 167.46749820 0 1042.57544204 0 19723
0.13750000 0.13749600 11604.21232066 0 160.22646796 0 3444.37750147 0 -202.63021349 0 927.39670624 0 20946
0.13850000 0.13851100 11380.56642290 0 242.51959037 0 3370.14375996 0 -257.15982870 0 749.37742761 0 20955
0.13950000 0.13949800 11439.55357766 0 -111.02437045 0 3631.98301659 0 190.91626529 0 289.89385499 0 20506
0.14050000 0.14048300 11196.35514071 0 -94.31551741 0 3390.20158950 0 71.94730272 0 105.42048090 0 21447
0.14150000 0.14148400 11359.03666064 0 49.62994661 0 3144.98199119 0 198.79440075 0 236.63735175 0 21771
0.14250000 0.14249400 11391.55099548 0 105.14048415 0 3038.92594292 0 -281.46319554 0 -38.77740859 0 22470
0.14350000 0.14350900 11303.01534048 0 132.61125249 0 3222.15959815 0 -90.20443127 0 -325.71454618 0 22519
0.14450000 0.14449900 11110.01640022 0 177.78750414 0 3364.39882850 0 44.31780731 0 -386.44275570 0 22218
0.14550000 0.14550500 10823.89025362 0 229.36117087 0 3725.58255955 0 -320.92966637 0 191.87741539 0 23559
0.14650000 0.14650700 10787.69608697 0 54.04585463 0 3597.88690329 0 348.88430513 0 -259.99824226 0 23044
0.14750000 0.14750500 10635.04348180 0 177.98193108 0 3601.52279682 0 119.93505573 0 -149.34954419 0 23649
0.14850000 0.14849900 10311.24025125 0 172.69505629 0 3690.57472673 0 49.06918418 0 653.81603999 0 23640
0.14950000 0.14949500 10326.09139338 0 59.98213735 0 3645.05465796 0 279.23991805 0 495.38994347 0 24457
0.15050000 0.15050000 10280.36261773 0 209.89980363 0 3714.45518753 0 40.26230311 0 438.69087518 0 24591
0.15150000 0.15149900 9946.94788616 0 78.99599310 0 3760.07411746 0 -159.90681690 0 531.28972358 0 25020
0.15250000 0.15250500 9810.27783411 0 48.40835229 0 3621.05336687 0 79.74107666 0 365.86755280 0 25297
0.15350000 0.15350100 9856.39106980 0 50.50530720 0 3794.64256737 0 178.78490333 0 84.61482167 0 25452
0.15450000 0.15450400 9727.76172488 0 141.93166232 0 3358.63192790 0 -15.55085940 0 106.12239509 0 26061
0.15550000 0.15549900 9510.04749631 0 181.29158280 0 3729.61389769 0 -152.96896085 0 27.32632121 0 26128
0.15650000 0.15649500 9174.91917143 0 275.45683125 0 3503.93585400 0 -67.88224195 0 165.55728103 0 26331
0.15750000 0.15749700 9261.11511248 0 31.71301027 0 3624.06313975 0 499.13568272 0 427.02525910 0 27345
0.15850000 0.15849900 9186.13442004 0 -286.65670145 0 2876.17851555 0 452.80055866 0 30.79876430 0 26980
0.15950000 0.15949700 9284.56717494 0 87.54495640 0 2867.06132031 0 155.24166892 0 -293.64618499 0 27777
0.16050000 0.16050000 9065.04049190 0 293.50997629 0 2509.03016159 0 -85.88112320 0 470.44837297 0 28224
0.16150000 0.16150500 8878.92887865 0 -22.31702658 0 2757.46823967 0 72.76191862 0 393.84086533 0 28075
0.16250000 0.16249700 8707.27296292 0 99.80758401 0 2509.24985305 0 112.25683950 0 -77.14871753 0 28590
0.16350000 0.16349900 8865.41785438 0 194.89268057 0 2661.95738107 0 85.56268044 0 131.84672624 0 29163
0.16450000 0.16449100 8579.11595462 0 -10.05442094 0 2478.93243272 0 4.83903376 0 33.57610363 0 28996
0.16550000 0.16550500 8551.42384714 0 168.93284019 0 2598.74116587 0 -60.40603200 0 42.35936786 0 30777
0.16650000 0.16650700 8259.99215198 0 190.80751802 0 2735.70780138 0 -236.78674194 0 102.25000372 0 29211
0.16750000 0.16749900 8169.79782652 0 157.00469282 0 2774.13183627 0 71.03942780 0 110.10935556 0 30922
0.16850000 0.16850800 8147.10369957 0 -123.29633494 0 2708.13652420 0 346.44902539 0 95.18780232 0 30867
0.16950000 0.16949900 8165.21725975 0 -6.59893804 0 2694.39482391 0 23.31859990 0 -202.45006650 0 30852
0.17050000 0.17049200 8008.73103876 0 204.94795831 0 2516.95003843 0 -53.52309882 0 31.42290771 0 31257
0.17150000 0.17149500 8034.12737057 0 74.02140972 0 2684.17917140 0 -258.65702594 0 32.56047005 0 32608
0.17250000 0.17250900 7965.27606963 0 50.88954755 0 2507.40444485 0 199.91812252 0 -14.55752450 0 32361
0.17350000 0.17350400 7985.08125399 0 -100.00113217 0 2722.35056112 0 225.29797747 0 -160.47362084 0 32508
0.17450000 0.17449800 7967.64873730 0 -82.99426768 0 2123.23000339 0 419.78972114 0 215.33936397 0 32791
0.17550000 0.17549800 8158.15417958 0 122.94482862 0 2290.47012094 0 60.50610146 0 279.62218117 0 33633
0.17650000 0.17650100 7927.10467991 0 57.24071757 0 2210.93083088 0 -71.81493862 0 432.11990386 0 33984
0.17750000 0.17750300 7941.43954713 0 142.03052348 0 2234.67947680 0 113.50468694 0 605.81675318 0 34069
0.17850000 0.17849800 7751.50530262 0 -14.19766991 0 2271.82930127 0 86.28557516 0 926.83978841 0 34536
