### header ###
fiducial parameters:
Omega_m = 0.31
Omega_nu = 0
Omega_de = 0.69
Omega_k = 0
H_0 = 100
w_de = -1
zeff = 0
beta = 0
fgrowth = 0
b_1 = 2
gamma = 0.55
Lx = 3500 Ly = 3500 Lz = 3500
nx = 700 ny = 700 nz = 700
xoffset = -983.599254 yoffset = -42.9823471 zoffset = 800.977702
bins = 400 dk = 0.001
kx_ny = 0.628318531 ky_ny = 0.628318531 kz_ny = 0.628318531
############################
A(data) = 9.07942265 (not used)
A(ran) = 9.07187823 (used)
Ngal = 503796
weighted Ngal = 0
Nran = 25229228
weighted Nran = 0
SN(data) = 6745.48214
SN(ran) = 134.665782
SN(data+ran) = 6880.14792
############################
13 columns: k_central k_mean P_0(k) sigma^{lin}_{P_0(k)} P^img_1(k) sigma^{lin}_{P_1(k)} P_2(k) sigma^{lin}_{P_2(k)} P^img_3(k) sigma^{lin}_{P_3(k)} P_4(k) sigma^{lin}_{P_4(k)} N_modes
### header ###
0.00050000 0 0 0 0 0 0 0 0 0 0 0 0
0.00150000 0.00179520 19889.76557304 0 -250.15716368 0 -7489.54521570 0 1110.00204392 0 -29340.89182203 0 3
0.00250000 0.00253879 33153.52711928 0 -3795.94973151 0 -9380.87990733 0 2994.50433140 0 -8295.23066083 0 6
0.00350000 0.00331552 20643.08756067 0 2011.18736306 0 10225.80224571 0 15344.23959315 0 58879.61579624 0 7
0.00450000 0.00420575 31809.12528105 0 -5464.95667409 0 7976.37048793 0 -8012.85025348 0 -25853.18018172 0 24
0.00550000 0.00557378 35457.32152677 0 -3969.86846919 0 -3100.40659566 0 11309.93562120 0 25408.19514645 0 45
0.00650000 0.00659388 42639.14492618 0 -14606.51569859 0 -16383.05062217 0 38417.77368317 0 38843.20617924 0 40
0.00750000 0.00754703 44127.33481950 0 -24775.92314867 0 -29087.36788685 0 23084.29897114 0 27869.28863330 0 57
0.00850000 0.00846663 77873.58947527 0 -6137.45417666 0 -46078.85398430 0 18933.22899265 0 -2852.71546852 0 75
0.00950000 0.00948925 91579.91945082 0 -1989.74547738 0 -29182.82382258 0 -42507.65959238 0 -7877.03699808 0 112
0.01050000 0.01054430 80883.69189974 0 11404.18325395 0 4385.89817113 0 -49598.09134791 0 12342.81498103 0 105
0.01150000 0.01145670 73277.31477006 0 8048.70389838 0 7514.71087149 0 -25581.53170179 0 -18654.22084909 0 144
0.01250000 0.01249090 83043.03917778 0 -2448.01086091 0 47843.85510667 0 185.21966595 0 1467.95631063 0 169
0.01350000 0.01339930 72971.28457794 0 -4289.11310212 0 30289.51951015 0 28285.93347131 0 -16081.52410481 0 180
0.01450000 0.01448870 89612.25296432 0 1482.20330126 0 61020.61883807 0 -522.86565487 0 -4497.34764454 0 267
0.01550000 0.01550050 77586.89213090 0 10815.90446936 0 31480.79640660 0 -4890.58435838 0 21639.82767670 0 238
0.01650000 0.01653350 86732.86695358 0 -1565.23568541 0 67852.47375504 0 26137.68061158 0 28986.85904773 0 315
0.01750000 0.01747870 82892.44068769 0 -5696.98380072 0 33111.23651485 0 21880.38981623 0 24781.85481787 0 297
0.01850000 0.01844180 80278.77148768 0 2084.36658560 0 27702.54282152 0 19299.12510534 0 36063.88962471 0 388
0.01950000 0.01947590 82121.10400103 0 4379.53810361 0 28192.89414155 0 -748.39760374 0 28540.77555520 0 399
0.02050000 0.02045430 75487.41077343 0 5034.20764488 0 30674.96816203 0 -8106.49373473 0 32222.14521011 0 462
0.02150000 0.02154770 69929.32689299 0 2240.69902258 0 23666.48131796 0 8125.68378303 0 23303.33134842 0 571
0.02250000 0.02255340 66834.64325965 0 -6330.18948718 0 15550.42002050 0 6913.79982842 0 12430.69156168 0 510
0.02350000 0.02348930 72767.74044801 0 1842.93666483 0 19145.34108920 0 4928.54704122 0 465.04176635 0 555
0.02450000 0.02439640 67164.50997427 0 9524.92060759 0 19750.04180980 0 -14342.00719083 0 7966.71504864 0 592
0.02550000 0.02547300 60938.01485226 0 852.18094395 0 20501.71611154 0 6549.65026278 0 5209.64225358 0 837
0.02650000 0.02652900 61174.73239139 0 -3450.22129408 0 22928.31804049 0 5802.32585178 0 925.85007842 0 723
0.02750000 0.02749970 63423.27439879 0 2090.80354513 0 21834.91368574 0 -1886.85298602 0 -577.72370880 0 826
0.02850000 0.02848090 56915.02499007 0 3753.20875959 0 23288.06279253 0 -3778.37441538 0 17101.66136044 0 831
0.02950000 0.02946900 57248.73630509 0 1137.72710511 0 23373.30307576 0 7.68112715 0 2488.21439655 0 996
0.03050000 0.03053250 60655.38179974 0 -2304.43151269 0 25212.55990878 0 6196.37542399 0 -445.40135057 0 1041
0.03150000 0.03150510 57414.71319679 0 2233.29542066 0 26226.32611231 0 841.95101150 0 4266.37503688 0 1036
0.03250000 0.03246190 55029.19356930 0 5263.43370551 0 26933.51289510 0 -5371.88439061 0 5852.32762617 0 1059
0.03350000 0.03345080 53406.55250759 0 107.53578005 0 29510.05423978 0 3659.70807778 0 10748.58002401 0 1302
0.03450000 0.03451200 53147.42644039 0 354.32166856 0 30940.57512705 0 5447.18363565 0 1516.55205973 0 1339
0.03550000 0.03553350 51757.98785458 0 -282.89558380 0 22926.56050888 0 4959.16104501 0 9315.55465419 0 1365
0.03650000 0.03647120 51945.49450854 0 -394.55266563 0 25576.03941550 0 331.71761510 0 2220.78399249 0 1308
0.03750000 0.03744890 48590.80604220 0 4125.75053869 0 23893.42258749 0 -4241.84648630 0 2780.38205807 0 1579
0.03850000 0.03847530 46370.38454061 0 2861.59100317 0 27915.42383814 0 1709.74872229 0 6624.77375466 0 1662
0.03950000 0.03950240 45622.44499354 0 -885.07534500 0 25172.35637313 0 3287.26515984 0 2837.08442174 0 1683
0.04050000 0.04050350 44479.17067928 0 654.65086750 0 25662.48800171 0 3133.31637511 0 163.74262964 0 1822
0.04150000 0.04152450 43522.85379035 0 877.80136103 0 22049.44238826 0 2491.96013580 0 4647.46281344 0 1887
0.04250000 0.04250150 43878.31455908 0 -535.71211251 0 20898.69856463 0 3232.94644842 0 8413.69927612 0 1920
0.04350000 0.04349210 43031.84339596 0 -842.85723874 0 16602.41253662 0 6816.10303988 0 4623.84598239 0 2005
0.04450000 0.04448520 42975.27284717 0 488.27633427 0 14091.66878170 0 386.69320395 0 9845.27468235 0 2151
0.04550000 0.04548030 42105.18485300 0 1388.12043710 0 16626.35890485 0 1002.50811509 0 11954.51034028 0 2274
0.04650000 0.04648670 39715.49108793 0 1837.64210085 0 15859.19635577 0 -242.07581363 0 9427.59729452 0 2311
0.04750000 0.04749250 38776.09044077 0 3386.32403538 0 20331.23554508 0 -277.98438140 0 7684.56531731 0 2568
0.04850000 0.04851840 36106.61961205 0 155.85460807 0 18501.75498166 0 -368.52691782 0 10087.67124550 0 2493
0.04950000 0.04949480 35890.44322365 0 -532.69904425 0 20784.12947261 0 2541.86304904 0 8886.78284805 0 2644
0.05050000 0.05050630 34886.34344399 0 156.87397641 0 17024.22012374 0 1124.72137118 0 8427.06750095 0 2829
0.05150000 0.05149060 33415.28948390 0 -72.94898590 0 17304.32672457 0 834.56059107 0 8810.95634352 0 2784
0.05250000 0.05249300 34920.83500190 0 418.79342041 0 16227.72876587 0 -34.25495021 0 3971.34040191 0 3055
0.05350000 0.05348950 35080.11130433 0 1233.02925683 0 14351.34407752 0 2438.57511306 0 2816.49933272 0 3009
0.05450000 0.05448610 34338.76250081 0 193.63055318 0 16817.49046776 0 -84.81671811 0 2905.02400315 0 3336
0.05550000 0.05550870 33299.18255171 0 -538.57359366 0 14611.56860198 0 467.28701298 0 6119.81295310 0 3349
0.05650000 0.05647670 33564.89936246 0 -637.11839121 0 13528.27005400 0 2045.14067691 0 4025.54926760 0 3324
0.05750000 0.05747970 34538.79156752 0 560.78110405 0 11323.55649120 0 1404.84994115 0 224.81685319 0 3639
0.05850000 0.05849280 34067.99278668 0 1096.94687940 0 11860.15286180 0 805.50639659 0 4445.23683222 0 3846
0.05950000 0.05951020 32696.67874563 0 -151.00491928 0 12932.35699147 0 -763.46514195 0 2809.87563545 0 3787
0.06050000 0.06049470 32632.74853320 0 593.44263216 0 14019.71983129 0 -1245.67249987 0 4356.43754747 0 3930
0.06150000 0.06148310 30664.75250953 0 960.74696705 0 12096.43101803 0 1672.65382068 0 2628.38852726 0 4083
0.06250000 0.06249100 31740.36185669 0 -647.28681004 0 12014.81564375 0 1721.57910696 0 930.90298181 0 4303
0.06350000 0.06350600 31757.38794420 0 874.23576877 0 11301.25780886 0 1309.04249909 0 963.39754442 0 4470
0.06450000 0.06451750 30085.75568877 0 895.37777562 0 11449.65938444 0 -1566.01559006 0 1798.62489904 0 4479
0.06550000 0.06550280 29999.30710255 0 -488.68166500 0 9121.29248809 0 2673.94154976 0 2981.34481345 0 4636
0.06650000 0.06648880 29353.41423477 0 -557.38577267 0 8936.90545274 0 2237.63432683 0 1771.37217447 0 4653
0.06750000 0.06749660 30703.30835929 0 16.07229706 0 7243.19420642 0 1289.14943815 0 1302.33092524 0 5220
0.06850000 0.06852730 29076.05377709 0 584.08487478 0 6649.77464186 0 -112.29308858 0 2643.88775918 0 5029
0.06950000 0.06949320 28867.12720659 0 548.19937462 0 6231.44916424 0 1217.17851859 0 5360.60323457 0 5040
0.07050000 0.07048030 29310.13501880 0 -308.87849179 0 6434.44406555 0 865.98635477 0 3348.61399770 0 5475
0.07150000 0.07148790 29314.30915638 0 269.28569837 0 5155.04892785 0 -1203.61257146 0 1646.06017046 0 5509
0.07250000 0.07249820 28551.54043633 0 204.37785899 0 6487.42265911 0 -78.06977394 0 2863.39247307 0 5916
0.07350000 0.07351270 28503.09847125 0 -114.40542189 0 6444.91236322 0 -1638.11832448 0 737.94468447 0 5721
0.07450000 0.07449140 28244.96101559 0 1292.15921103 0 8085.35941709 0 -1153.75359651 0 -1049.23209303 0 6028
0.07550000 0.07549160 27825.78972588 0 1052.91741713 0 9481.83911393 0 -2335.24323879 0 -2271.87323956 0 6183
0.07650000 0.07648840 26368.02709861 0 191.50833375 0 9916.33388238 0 321.33939092 0 -1184.74107576 0 6330
0.07750000 0.07749960 26172.50170666 0 -40.74386677 0 10542.31172007 0 419.39207961 0 -2357.45404454 0 6583
0.07850000 0.07848650 26011.46787262 0 444.87738646 0 8974.51662926 0 1742.39487200 0 -1984.03349964 0 6549
0.07950000 0.07947320 25211.57129725 0 -101.70901352 0 9276.72419011 0 1020.02521299 0 -2523.54078197 0 6828
0.08050000 0.08048110 25191.13999225 0 520.88403798 0 7390.59618589 0 -366.43215983 0 -566.78636988 0 7147
0.08150000 0.08149960 25114.35782990 0 202.72248390 0 7708.55562383 0 979.43831576 0 -1332.28585467 0 7386
0.08250000 0.08250610 24335.22209671 0 357.84881481 0 7532.56080193 0 -102.06271676 0 -1350.82781319 0 7227
0.08350000 0.08350160 23811.36783030 0 595.58022999 0 7720.38600850 0 -454.99417781 0 -1695.55665451 0 7798
0.08450000 0.08449610 23389.99962608 0 501.98947468 0 7988.82699324 0 103.74017084 0 -2528.57171622 0 7371
0.08550000 0.08548940 22492.56004619 0 472.98471078 0 8276.73264060 0 -527.74610047 0 -1471.60318872 0 8256
0.08650000 0.08650700 21804.37657397 0 37.68993590 0 7907.77183216 0 162.85068235 0 -2227.31981317 0 8037
0.08750000 0.08749060 22096.23666745 0 257.28505283 0 7952.97334834 0 1339.78831775 0 -2693.69181126 0 8155
0.08850000 0.08849210 21412.99625289 0 440.70874116 0 6961.84634889 0 -441.76875242 0 -1662.80065907 0 8718
0.08950000 0.08949900 20921.21693843 0 159.95075519 0 7570.02917901 0 205.25223097 0 -2264.42569935 0 8571
0.09050000 0.09049190 20584.75948026 0 549.70206415 0 7801.51806158 0 654.60033847 0 -1951.20061220 0 8932
0.09150000 0.09150830 20130.76709547 0 159.14997984 0 7200.45323451 0 355.84303186 0 -1485.33390445 0 9285
0.09250000 0.09250820 20289.71386072 0 123.60390297 0 6696.28332217 0 190.35605209 0 -1003.04635915 0 9204
0.09350000 0.09350330 19185.98400775 0 274.74722786 0 6888.78795666 0 -219.73978375 0 -1541.27833261 0 9349
0.09450000 0.09448040 18979.80358040 0 621.08750598 0 7077.56882104 0 140.61900590 0 -610.95533623 0 9564
0.09550000 0.09549270 18450.78656488 0 380.10355886 0 7334.30025141 0 894.00580251 0 -108.82723624 0 10155
0.09650000 0.09649430 17910.12590243 0 51.56773506 0 6777.04189979 0 1082.96132159 0 934.28293479 0 9913
0.09750000 0.09749140 17596.07697233 0 714.50360658 0 6739.28792382 0 640.86742583 0 369.82639275 0 10476
0.09850000 0.09850240 17054.86708125 0 326.22093498 0 6102.87474218 0 -888.77604750 0 1849.49445467 0 10575
0.09950000 0.09950330 16844.40267059 0 53.03560349 0 7148.93558910 0 391.61978476 0 858.40809814 0 10882
0.10050000 0.10051200 16707.20535905 0 -37.24000781 0 6348.77538398 0 -29.36055421 0 1493.56134931 0 10875
0.10150000 0.10150300 16521.45623670 0 -123.32928866 0 5485.73948541 0 966.14808139 0 1267.48786102 0 11118
0.10250000 0.10250800 16649.20681582 0 -119.41658390 0 5525.16311641 0 380.11234652 0 578.23668834 0 11575
0.10350000 0.10349800 17029.49271858 0 408.51735276 0 5661.48166214 0 85.73601699 0 1112.39668074 0 11364
0.10450000 0.10450100 16719.39823461 0 224.05672077 0 5789.02353438 0 -301.71764892 0 522.68111405 0 12093
0.10550000 0.10551000 15940.37234714 0 90.09886953 0 5778.65409787 0 -59.81813768 0 1347.55441056 0 12067
0.10650000 0.10649700 15931.58468908 0 149.95699105 0 6075.95155478 0 -40.88282162 0 -441.53368257 0 12054
0.10750000 0.10749900 15682.56442866 0 613.26099802 0 6152.99734687 0 -395.69725810 0 1118.13062763 0 12807
0.10850000 0.10850100 15192.98202871 0 85.63495892 0 6187.67564251 0 375.99532872 0 1105.30064685 0 12736
0.10950000 0.10950300 15136.19178846 0 -65.14115170 0 6345.53493507 0 847.64651238 0 875.34191523 0 12933
0.11050000 0.11050200 15376.31454509 0 98.79952978 0 5818.25348202 0 402.49670853 0 -59.09952694 0 13428
0.11150000 0.11150900 14889.69797974 0 273.75971479 0 5955.91214561 0 -314.30706756 0 1515.28883388 0 13453
0.11250000 0.11250000 14907.71267877 0 36.25238489 0 5709.63802834 0 -141.05838880 0 1032.77171101 0 13668
0.11350000 0.11349100 14853.11935304 0 191.21284875 0 6142.57298749 0 467.84283235 0 1033.59994779 0 13791
0.11450000 0.11448600 14851.25197570 0 -89.83238380 0 5248.42877937 0 487.44590058 0 1000.23760394 0 14205
0.11550000 0.11549300 14734.59581489 0 -21.38059176 0 5191.01241848 0 422.98513330 0 819.60289858 0 14776
0.11650000 0.11649800 14653.41982351 0 68.08380885 0 5082.06742762 0 214.42654599 0 882.76858476 0 14553
0.11750000 0.11747300 14303.01195817 0 419.90725607 0 5095.54549818 0 154.16188544 0 1396.99597175 0 14568
0.11850000 0.11849100 13958.09637911 0 218.38318903 0 4656.56902411 0 79.20788551 0 1638.94216743 0 16015
0.11950000 0.11950300 14011.92078476 0 -129.85302631 0 4755.85857567 0 180.99829471 0 798.08851473 0 15270
0.12050000 0.12050700 13749.38950007 0 158.63150802 0 4361.87491090 0 188.27008176 0 1123.69980593 0 15999
0.12150000 0.12150000 13696.22416877 0 -121.08514048 0 4284.97191826 0 213.86852970 0 935.54506218 0 15670
0.12250000 0.12250700 13797.28223652 0 31.07008324 0 3709.36933042 0 557.29020688 0 639.43833293 0 16887
0.12350000 0.12352200 13835.06916620 0 13.80672897 0 4049.22102152 0 -164.40609782 0 -0.55431229 0 16407
0.12450000 0.12449800 13746.42366547 0 340.59314974 0 3107.57952155 0 19.88778835 0 216.06434576 0 16306
0.12550000 0.12549900 13566.93574949 0 114.73495907 0 3978.35954379 0 -277.47359878 0 161.93456899 0 17523
0.12650000 0.12650100 13228.72075971 0 390.15004894 0 3696.23178161 0 195.97905480 0 191.16671355 0 17154
0.12750000 0.12750600 13013.31329139 0 57.34715808 0 3696.48442678 0 -49.56316041 0 264.19984127 0 18007
0.12850000 0.12850300 12606.11518580 0 -77.67872316 0 3673.97703756 0 459.09801412 0 317.29487130 0 17496
0.12950000 0.12949900 12625.77757072 0 109.73642932 0 3873.23718419 0 238.98585337 0 770.77098117 0 18405
0.13050000 0.13049000 12442.33520861 0 220.15280368 0 3194.39059866 0 68.65775277 0 711.43122163 0 18100
0.13150000 0.13148800 12635.99322322 0 164.77298255 0 3521.61003129 0 -107.71098398 0 53.14632798 0 19059
0.13250000 0.13249300 12363.46597748 0 210.91697505 0 3539.78949891 0 -173.92203305 0 250.07697630 0 18957
0.13350000 0.13349100 12121.03646061 0 25.41764188 0 3570.32661069 0 -55.39344200 0 -39.27248328 0 19468
0.13450000 0.13450700 11973.29395939 0 296.52853683 0 3796.61979043 0 -206.56598585 0 -332.24157921 0 19953
0.13550000 0.13551000 11773.81412131 0 98.94562460 0 3798.89359696 0 -53.60361574 0 -62.30702213 0 19956
0.13650000 0.13649900 11492.27952605 0 -56.12446530 0 3991.21149371 0 483.63205698 0 -95.92245053 0 19723
0.13750000 0.13749600 11342.01057314 0 178.19063796 0 3508.00014586 0 198.69224422 0 230.76170387 0 20946
0.13850000 0.13851100 11411.21338040 0 153.27103660 0 3645.61487116 0 410.21446922 0 620.62176010 0 20955
0.13950000 0.13949800 11209.09724491 0 121.02033150 0 3555.72811373 0 372.91525456 0 472.38385466 0 20506
0.14050000 0.14048300 11070.47193893 0 -13.24563700 0 3368.69379638 0 -71.78121598 0 878.05290775 0 21447
0.14150000 0.14148400 10962.64737447 0 201.48891640 0 3359.69743144 0 158.16905751 0 1173.50385801 0 21771
0.14250000 0.14249400 10755.97264135 0 133.39005868 0 3245.88627492 0 -155.89744790 0 784.78949270 0 22470
0.14350000 0.14350900 10862.79760971 0 23.93823964 0 3495.46674854 0 205.93986521 0 991.32472175 0 22519
0.14450000 0.14449900 10683.68316920 0 34.30888446 0 3124.32001017 0 -25.71301704 0 596.55675849 0 22218
0.14550000 0.14550500 10518.59602787 0 53.38502275 0 3491.69904015 0 -254.83439469 0 298.99347492 0 23559
0.14650000 0.14650700 10476.81071377 0 254.94863424 0 3153.58291152 0 39.05619704 0 552.56134839 0 23044
0.14750000 0.14750500 10390.01062123 0 -37.98761782 0 3028.12810807 0 217.02110203 0 263.53307771 0 23649
0.14850000 0.14849900 10279.89028110 0 157.15188609 0 3216.05217579 0 100.33945701 0 210.27108218 0 23640
0.14950000 0.14949500 10197.03365012 0 332.20203475 0 3424.47345595 0 -269.70970288 0 222.28930304 0 24457
0.15050000 0.15050000 9696.31289358 0 8.65369022 0 3064.82756507 0 522.35157688 0 720.89223400 0 24591
0.15150000 0.15149900 9959.47029891 0 -96.73333168 0 2868.22568500 0 477.18740825 0 337.09456338 0 25020
0.15250000 0.15250500 9736.46150636 0 108.16552559 0 2706.86231378 0 175.80259188 0 1156.90616884 0 25297
0.15350000 0.15350100 9620.65115764 0 191.55776433 0 2803.85608968 0 -77.08215102 0 1114.57162611 0 25452
0.15450000 0.15450400 9502.11663491 0 151.72550724 0 2366.80191581 0 228.16385246 0 1062.86175068 0 26061
0.15550000 0.15549900 9441.53671712 0 121.91447571 0 3103.04289308 0 -94.64142967 0 1147.33860612 0 26128
0.15650000 0.15649500 9022.38739657 0 176.55833047 0 2957.34352236 0 -432.62848957 0 745.82281993 0 26331
0.15750000 0.15749700 8846.76605013 0 260.62875672 0 3226.54244261 0 -352.10608027 0 1083.92686552 0 27345
0.15850000 0.15849900 8693.14680258 0 -85.77347438 0 3102.97698564 0 391.17930340 0 1007.49620950 0 26980
0.15950000 0.15949700 8878.11602028 0 -107.23974581 0 3043.74817028 0 664.91485212 0 567.35097691 0 27777
0.16050000 0.16050000 9024.49643450 0 121.82769759 0 2581.34160290 0 -20.78270148 0 593.29653735 0 28224
0.16150000 0.16150500 8931.89648764 0 1.18706981 0 2610.49465853 0 113.21469422 0 935.53627452 0 28075
0.16250000 0.16249700 8887.29912296 0 -96.82768916 0 2240.87477574 0 107.84170039 0 996.82689415 0 28590
0.16350000 0.16349900 8909.65272816 0 41.82936224 0 2109.00498190 0 262.01061595 0 427.72058254 0 29163
0.16450000 0.16449100 8728.89060176 0 207.33490593 0 2290.49209009 0 -168.55167552 0 406.99598945 0 28996
0.16550000 0.16550500 8570.62488001 0 281.52800452 0 2226.47400109 0 -399.10027868 0 590.51414511 0 30777
0.16650000 0.16650700 8678.40550618 0 -76.22074084 0 2371.44839001 0 133.87887216 0 194.20834170 0 29211
0.16750000 0.16749900 8468.52327787 0 -67.73241238 0 2240.79788373 0 191.80052339 0 174.14611833 0 30922
0.16850000 0.16850800 8353.59169495 0 7.69099129 0 1936.51423866 0 228.94375711 0 220.27363397 0 30867
0.16950000 0.16949900 8293.79168182 0 217.56373992 0 2216.66477777 0 -5.99140330 0 360.74654506 0 30852
0.17050000 0.17049200 8399.07881001 0 168.63625673 0 2064.13300291 0 39.13528596 0 259.24140521 0 31257
0.17150000 0.17149500 7990.34286426 0 93.52528725 0 2318.30502787 0 -84.41830766 0 532.40136233 0 32608
0.17250000 0.17250900 8039.34504254 0 85.23940447 0 2290.22846035 0 84.08261913 0 365.14696483 0 32361
0.17350000 0.17350400 8065.10386525 0 -65.03064690 0 2085.15747483 0 65.73695492 0 733.27184730 0 32508
0.17450000 0.17449800 8053.92157036 0 -40.76232085 0 2051.85225076 0 274.50886264 0 679.81212946 0 32791
0.17550000 0.17549800 8032.46870011 0 -9.76595508 0 1877.23050043 0 66.12251342 0 544.88972290 0 33633
0.17650000 0.17650100 7957.14748592 0 180.55341952 0 2145.14422569 0 -187.16723067 0 320.72315640 0 33984
0.17750000 0.17750300 7856.50683193 0 272.05600758 0 2289.17394138 0 -298.01914333 0 456.92306875 0 34069
0.17850000 0.17849800 7729.85471006 0 -27.83369862 0 2214.50081697 0 -11.05531323 0 483.91216358 0 34536
