### header ###
fiducial parameters:
Omega_m = 0.31
Omega_nu = 0
Omega_de = 0.69
Omega_k = 0
H_0 = 100
w_de = -1
zeff = 0
beta = 0
fgrowth = 0
b_1 = 2
gamma = 0.55
Lx = 3500 Ly = 3500 Lz = 3500
nx = 700 ny = 700 nz = 700
xoffset = -983.599254 yoffset = -42.9823471 zoffset = 800.977702
bins = 400 dk = 0.001
kx_ny = 0.628318531 ky_ny = 0.628318531 kz_ny = 0.628318531
############################
A(data) = 9.00023845 (not used)
A(ran) = 8.99950032 (used)
Ngal = 499707
weighted Ngal = 0
Nran = 25229228
weighted Nran = 0
SN(data) = 6774.07924
SN(ran) = 133.591382
SN(data+ran) = 6907.67062
############################
13 columns: k_central k_mean P_0(k) sigma^{lin}_{P_0(k)} P^img_1(k) sigma^{lin}_{P_1(k)} P_2(k) sigma^{lin}_{P_2(k)} P^img_3(k) sigma^{lin}_{P_3(k)} P_4(k) sigma^{lin}_{P_4(k)} N_modes
### header ###
0.00050000 0 0 0 0 0 0 0 0 0 0 0 0
0.00150000 0.00179520 41424.14135296 0 30996.26691003 0 20524.67386824 0 53219.04585362 0 -90698.07796399 0 3
0.00250000 0.00253879 61397.16998616 0 35317.70760926 0 23252.14324019 0 -13978.30799266 0 49691.57006058 0 6
0.00350000 0.00331552 43244.28502968 0 15327.76273428 0 13600.65838732 0 27914.54507234 0 51114.40174704 0 7
0.00450000 0.00420575 34433.33967074 0 -6810.97324449 0 5053.52950806 0 43121.47750822 0 1623.13536748 0 24
0.00550000 0.00557378 45598.27893387 0 -19758.06054779 0 -13670.95965184 0 -17270.05485811 0 -14161.75035477 0 45
0.00650000 0.00659388 55728.91084274 0 -110.04564503 0 -13703.69367813 0 10908.62524652 0 12071.05665536 0 40
0.00750000 0.00754703 79992.29383476 0 -2942.00905903 0 -22854.28202129 0 -3910.82639156 0 -13326.15391851 0 57
0.00850000 0.00846663 74246.37376319 0 -7261.39564319 0 -18506.47834787 0 -25029.33723812 0 7233.16529165 0 75
0.00950000 0.00948925 72479.83480065 0 6492.23390190 0 6816.92688283 0 -2892.53454413 0 2973.63364350 0 112
0.01050000 0.01054430 66021.89473436 0 7470.17941424 0 21100.92454586 0 2307.17765584 0 21480.22183709 0 105
0.01150000 0.01145670 75810.46705304 0 -6508.38122359 0 5802.55652780 0 21449.57487959 0 37441.79440931 0 144
0.01250000 0.01249090 76401.43705792 0 -5385.26360001 0 4351.08806062 0 34177.61882104 0 36479.21631401 0 169
0.01350000 0.01339930 83259.98448626 0 -12773.19053476 0 -11461.74241428 0 6515.40036547 0 44916.68620519 0 180
0.01450000 0.01448870 78891.31012493 0 7490.88533356 0 -315.06060924 0 -2373.65628910 0 23049.03849316 0 267
0.01550000 0.01550050 79573.78161941 0 9524.08578007 0 10642.02966997 0 -16575.61017952 0 63841.89645986 0 238
0.01650000 0.01653350 72104.60180128 0 -259.73461251 0 15445.95673526 0 -10130.98341519 0 19875.04624578 0 315
0.01750000 0.01747870 71118.29702920 0 7892.95364375 0 33225.58591542 0 -3383.89644484 0 10528.29540546 0 297
0.01850000 0.01844180 68623.04152162 0 1280.19701149 0 35103.06906102 0 824.47016270 0 14809.18106272 0 388
0.01950000 0.01947590 73352.22955506 0 -1195.22035800 0 27046.54414696 0 6352.82869127 0 11695.60396453 0 399
0.02050000 0.02045430 68812.85493582 0 -1666.55738290 0 30558.97107557 0 8332.28162414 0 14456.24674568 0 462
0.02150000 0.02154770 71051.07144500 0 4198.19379486 0 29970.30783094 0 2968.20726464 0 12215.50378481 0 571
0.02250000 0.02255340 71937.41660659 0 1797.59234922 0 31613.27035193 0 -624.13462641 0 17024.98904382 0 510
0.02350000 0.02348930 62769.36279302 0 3791.16045786 0 38735.22783077 0 3257.69469045 0 20624.96301591 0 555
0.02450000 0.02439640 63269.71007410 0 768.70038924 0 34090.51116047 0 3572.57844807 0 14950.88204901 0 592
0.02550000 0.02547300 61952.33028442 0 438.24490153 0 29882.54109601 0 9567.27711946 0 6022.03927255 0 837
0.02650000 0.02652900 62021.97247459 0 -65.14137140 0 31315.03920634 0 1853.48185451 0 9277.63590964 0 723
0.02750000 0.02749970 60594.19773046 0 532.42992222 0 27331.59380545 0 1001.37231029 0 3171.33398081 0 826
0.02850000 0.02848090 55672.66983112 0 3282.76148508 0 25989.16919028 0 -849.50949589 0 8440.65541723 0 831
0.02950000 0.02946900 56373.04617891 0 978.50572555 0 19807.82066158 0 -280.96669286 0 1283.52533698 0 996
0.03050000 0.03053250 54629.79451025 0 106.85177071 0 22003.41702914 0 7298.46857565 0 -1668.22703793 0 1041
0.03150000 0.03150510 53096.56786934 0 2722.93274347 0 21842.49304082 0 4505.38835167 0 6795.66075031 0 1036
0.03250000 0.03246190 52103.45266226 0 -69.66613653 0 14204.15080493 0 3694.96855577 0 9566.60706054 0 1059
0.03350000 0.03345080 48591.79465373 0 699.76560555 0 21819.75497558 0 3024.20661566 0 15673.99646204 0 1302
0.03450000 0.03451200 48496.44856373 0 2755.68873891 0 17815.54873250 0 703.90019867 0 8574.56834157 0 1339
0.03550000 0.03553350 45427.13929305 0 1600.05678049 0 20773.69412866 0 1830.57902068 0 20375.50337259 0 1365
0.03650000 0.03647120 43375.00144340 0 -239.56364188 0 15872.48768859 0 4579.60012403 0 12134.98686779 0 1308
0.03750000 0.03744890 46136.19345317 0 -864.59021559 0 19069.10815549 0 5703.93703517 0 19539.57739914 0 1579
0.03850000 0.03847530 45356.94787425 0 1636.76722206 0 19769.37465755 0 -4837.33115051 0 13720.93945708 0 1662
0.03950000 0.03950240 42600.47923069 0 2506.08629614 0 18659.60328965 0 -2208.03090372 0 13682.93283595 0 1683
0.04050000 0.04050350 41161.06083963 0 897.02655997 0 18570.62825174 0 1593.64179010 0 9907.64508547 0 1822
0.04150000 0.04152450 41420.07706110 0 -2406.51114569 0 17209.96924609 0 2717.48439547 0 5988.25072729 0 1887
0.04250000 0.04250150 43154.43122597 0 177.90943290 0 13684.80021329 0 6000.02618910 0 3083.78693734 0 1920
0.04350000 0.04349210 43928.18451860 0 -817.63226626 0 12249.33626836 0 1510.17002306 0 3770.90490602 0 2005
0.04450000 0.04448520 43968.71759142 0 195.44849994 0 10462.35501625 0 -348.90847119 0 1620.98239126 0 2151
0.04550000 0.04548030 40400.37918837 0 2822.13441845 0 10288.61203173 0 -5839.53059911 0 -2345.99713534 0 2274
0.04650000 0.04648670 38279.69760582 0 2946.83128640 0 16579.01539702 0 -2581.20978803 0 -1520.40764470 0 2311
0.04750000 0.04749250 37190.68708011 0 472.52006336 0 15239.00738782 0 -94.34188038 0 -2845.18005173 0 2568
0.04850000 0.04851840 36012.81136221 0 -943.81424842 0 18133.44226301 0 2998.93111415 0 -4922.40666515 0 2493
0.04950000 0.04949480 36358.05647844 0 1230.84332688 0 14260.39181655 0 455.62469227 0 -3618.81251406 0 2644
0.05050000 0.05050630 34930.72111722 0 1299.26622949 0 16091.73975731 0 -438.49534979 0 -2855.11010534 0 2829
0.05150000 0.05149060 35046.49851223 0 -398.63343435 0 15393.56032404 0 2396.71290695 0 -2713.98031682 0 2784
0.05250000 0.05249300 34134.88883370 0 -164.70707511 0 14690.87721601 0 691.66558173 0 -1609.19594488 0 3055
0.05350000 0.05348950 32437.33298698 0 1061.64026621 0 14107.92594912 0 -869.48494113 0 -2972.30451021 0 3009
0.05450000 0.05448610 32558.38297683 0 1307.63647380 0 15303.15729170 0 -227.46852901 0 -2408.44443047 0 3336
0.05550000 0.05550870 32211.05079181 0 967.68702001 0 15776.37267850 0 2812.85245462 0 -509.73579527 0 3349
0.05650000 0.05647670 31894.36556428 0 -1632.96655994 0 12021.73592447 0 3561.12153886 0 2150.69143485 0 3324
0.05750000 0.05747970 32560.79958280 0 -345.87123687 0 13438.63594174 0 2126.84392777 0 1541.89346867 0 3639
0.05850000 0.05849280 32857.38304249 0 -9.80643323 0 8639.83867185 0 2654.70756317 0 4484.40781804 0 3846
0.05950000 0.05951020 32746.65855087 0 -225.62202236 0 8989.46663254 0 840.14295085 0 5207.91767569 0 3787
0.06050000 0.06049470 31742.00954258 0 804.78251326 0 9131.02481939 0 -221.33803906 0 2819.47615189 0 3930
0.06150000 0.06148310 32411.84877859 0 760.46525518 0 9167.99889070 0 -1299.04653804 0 4201.37932091 0 4083
0.06250000 0.06249100 31594.70642427 0 5.19134196 0 10523.46219352 0 -932.61877204 0 3173.31120388 0 4303
0.06350000 0.06350600 31218.15527618 0 -205.29616926 0 10077.78513018 0 2331.40962295 0 2407.47778808 0 4470
0.06450000 0.06451750 31571.63882185 0 64.72769239 0 9594.80445835 0 -599.75876140 0 2933.55093815 0 4479
0.06550000 0.06550280 31568.67298725 0 412.29165190 0 10297.47658181 0 -72.59253652 0 3183.57079467 0 4636
0.06650000 0.06648880 30895.20884229 0 767.31193927 0 10496.67082100 0 -172.39737438 0 1863.65356872 0 4653
0.06750000 0.06749660 29815.20566609 0 804.43540076 0 10242.88325608 0 1293.71902034 0 4820.30506301 0 5220
0.06850000 0.06852730 29622.86580019 0 128.89407313 0 12577.99467999 0 -720.06619414 0 1562.01720564 0 5029
0.06950000 0.06949320 29535.20891099 0 838.73692556 0 11654.08228018 0 -831.60244567 0 2854.70367616 0 5040
0.07050000 0.07048030 27495.48362836 0 775.11318272 0 13261.12524883 0 -302.14604725 0 1971.45616404 0 5475
0.07150000 0.07148790 27551.39510280 0 -29.95690665 0 11666.60469292 0 834.87145447 0 4429.75956945 0 5509
0.07250000 0.07249820 27686.72503700 0 -782.53545841 0 10828.25112894 0 3745.77220396 0 3507.17630292 0 5916
0.07350000 0.07351270 29012.89248475 0 -461.54427844 0 9179.20315474 0 1292.51071736 0 2058.87139264 0 5721
0.07450000 0.07449140 28619.97432351 0 1250.48374266 0 8931.98436422 0 -1285.91997381 0 1850.29632846 0 6028
0.07550000 0.07549160 26586.40040153 0 1260.43576542 0 9587.42282558 0 -1791.06751311 0 1873.45180747 0 6183
0.07650000 0.07648840 25835.93440277 0 418.83955561 0 12331.17133409 0 -1471.19675954 0 1320.13691740 0 6330
0.07750000 0.07749960 24354.66479018 0 622.20353855 0 11057.07076038 0 213.72133643 0 64.53128824 0 6583
0.07850000 0.07848650 24195.05895057 0 490.03716126 0 12216.71208779 0 1050.48543276 0 -57.28586416 0 6549
0.07950000 0.07947320 24831.72477738 0 136.19442006 0 10538.93945629 0 512.70712215 0 -1099.43488509 0 6828
0.08050000 0.08048110 23985.47330572 0 -82.63023894 0 10559.93097449 0 1180.77564506 0 -1144.75723156 0 7147
0.08150000 0.08149960 23280.70312890 0 186.96731145 0 10146.88907629 0 -572.22593022 0 -1659.16476555 0 7386
0.08250000 0.08250610 23334.08815164 0 408.56458642 0 9450.96148040 0 1094.75435872 0 -649.19483030 0 7227
0.08350000 0.08350160 22788.92381443 0 -19.68028977 0 8891.30849195 0 962.80547596 0 -1652.57402200 0 7798
0.08450000 0.08449610 23321.78543035 0 -94.83860275 0 7247.80772690 0 1221.24281045 0 -897.89214429 0 7371
0.08550000 0.08548940 22693.79741588 0 -200.97264149 0 6510.58912268 0 1157.78493465 0 -991.80035374 0 8256
0.08650000 0.08650700 22354.59381457 0 758.83294769 0 5947.65174703 0 -181.64308912 0 -1563.10467833 0 8037
0.08750000 0.08749060 21992.54230228 0 759.74356876 0 6225.08909672 0 260.27505349 0 53.75652099 0 8155
0.08850000 0.08849210 21062.25885037 0 -339.65067342 0 5036.15191423 0 40.43574951 0 -958.32926263 0 8718
0.08950000 0.08949900 21034.68757319 0 601.88427619 0 5660.96538723 0 742.39563328 0 -1693.39269371 0 8571
0.09050000 0.09049190 20537.96520106 0 693.00899496 0 5693.31495348 0 -803.34573116 0 -624.11375573 0 8932
0.09150000 0.09150830 19704.56567932 0 47.49751153 0 6056.67362990 0 -340.46243333 0 -956.31469202 0 9285
0.09250000 0.09250820 19398.64533293 0 47.53727569 0 5474.56817510 0 1480.03934047 0 -176.34852514 0 9204
0.09350000 0.09350330 19178.73418985 0 579.67676581 0 5802.77621926 0 -514.10545824 0 -1651.09110470 0 9349
0.09450000 0.09448040 18986.72386113 0 706.03889495 0 5998.44441065 0 -250.06818864 0 376.75436268 0 9564
0.09550000 0.09549270 17990.31328227 0 174.04615872 0 6537.02898888 0 -5.63460241 0 -456.04210603 0 10155
0.09650000 0.09649430 17862.23316597 0 125.04727581 0 6261.67870799 0 465.54705669 0 857.94125381 0 9913
0.09750000 0.09749140 17211.94646916 0 305.54357555 0 6395.27307972 0 423.78810556 0 115.48191000 0 10476
0.09850000 0.09850240 16917.88946116 0 578.38607853 0 6340.49301626 0 -54.86804989 0 1633.82335660 0 10575
0.09950000 0.09950330 16694.90263775 0 7.89955537 0 6644.27137099 0 432.49118242 0 628.22418279 0 10882
0.10050000 0.10051200 16153.14351804 0 273.58176471 0 6401.57822438 0 330.02049863 0 466.41044409 0 10875
0.10150000 0.10150300 16524.42207129 0 152.55923630 0 5720.78736951 0 292.59825676 0 737.76234057 0 11118
0.10250000 0.10250800 15627.09233712 0 176.80108953 0 6319.90792724 0 -583.26872104 0 362.30415745 0 11575
0.10350000 0.10349800 15650.70916817 0 55.71803612 0 5227.36036915 0 -12.89962297 0 116.60233641 0 11364
0.10450000 0.10450100 15271.30203121 0 118.94864111 0 6176.58122420 0 330.69714830 0 -521.42447895 0 12093
0.10550000 0.10551000 15809.43624197 0 109.96326074 0 5622.89285866 0 -682.83508383 0 -1910.45883249 0 12067
0.10650000 0.10649700 15464.74035437 0 202.86528335 0 5579.93219530 0 940.47493835 0 -655.81742911 0 12054
0.10750000 0.10749900 15631.37632043 0 -388.33539755 0 5283.49153505 0 325.36523677 0 -1021.42354908 0 12807
0.10850000 0.10850100 15520.21244591 0 245.64140589 0 4673.10080585 0 158.74135374 0 -1371.20419533 0 12736
0.10950000 0.10950300 15506.48173018 0 254.06108078 0 5119.40398983 0 87.37304784 0 -400.46016877 0 12933
0.11050000 0.11050200 14887.28137377 0 -95.74702691 0 4806.37662497 0 204.05820793 0 343.59523343 0 13428
0.11150000 0.11150900 14871.35374353 0 213.69057963 0 5058.86801033 0 451.99209412 0 -488.09399037 0 13453
0.11250000 0.11250000 14783.80670005 0 232.34238387 0 4504.11414125 0 -91.17766440 0 1033.41650542 0 13668
0.11350000 0.11349100 14601.24310375 0 205.15776364 0 5046.42248959 0 263.14861767 0 -305.25797666 0 13791
0.11450000 0.11448600 14740.08810118 0 15.97771989 0 4687.89702511 0 267.30957377 0 354.07890950 0 14205
0.11550000 0.11549300 14562.35771681 0 -33.77909853 0 4450.30072018 0 162.88912835 0 526.71135373 0 14776
0.11650000 0.11649800 14560.49033947 0 102.47496777 0 4797.97342695 0 442.72770560 0 199.72040022 0 14553
0.11750000 0.11747300 14245.67248929 0 239.27804300 0 4005.78802153 0 75.98589068 0 361.74504271 0 14568
0.11850000 0.11849100 14056.84768662 0 353.00901213 0 4046.20026406 0 36.09058214 0 93.38084013 0 16015
0.11950000 0.11950300 13528.81928263 0 112.59186896 0 4308.17133555 0 164.89271439 0 903.80513971 0 15270
0.12050000 0.12050700 13414.14034488 0 163.34279120 0 4126.89293424 0 -256.64465225 0 242.08789666 0 15999
0.12150000 0.12150000 12779.12220396 0 195.38478942 0 4225.74310290 0 122.69218345 0 493.66756249 0 15670
0.12250000 0.12250700 13064.61124535 0 -17.02092475 0 3981.51211612 0 648.82245329 0 169.19537147 0 16887
0.12350000 0.12352200 12997.71519833 0 -12.09181750 0 3403.42701489 0 134.22268929 0 712.57910947 0 16407
0.12450000 0.12449800 13073.06936623 0 -99.18640643 0 3297.32702832 0 657.89241487 0 -256.66552294 0 16306
0.12550000 0.12549900 13261.45478600 0 -13.86033368 0 2865.17197383 0 -229.05250438 0 419.73919211 0 17523
0.12650000 0.12650100 12777.36467234 0 324.41067742 0 2920.23763618 0 115.91030834 0 300.83009546 0 17154
0.12750000 0.12750600 12727.60455855 0 98.08080920 0 3336.11355411 0 -708.13475140 0 686.55226319 0 18007
0.12850000 0.12850300 12609.41055758 0 347.15203803 0 3562.11015040 0 231.46471652 0 -214.11568258 0 17496
0.12950000 0.12949900 12399.82491272 0 100.64812350 0 3768.59814578 0 71.93521969 0 372.36382902 0 18405
0.13050000 0.13049000 12263.83590417 0 -66.76170570 0 3323.17372761 0 -10.37536819 0 42.53863609 0 18100
0.13150000 0.13148800 12271.63495070 0 99.86920746 0 3956.51122893 0 369.42435740 0 570.66062863 0 19059
0.13250000 0.13249300 11893.54596245 0 237.70615066 0 3606.63062307 0 -364.70977885 0 540.99239655 0 18957
0.13350000 0.13349100 12037.88324617 0 -13.59483656 0 3767.64248797 0 296.78228046 0 828.24116646 0 19468
0.13450000 0.13450700 11986.36560076 0 -5.76560443 0 3372.79104196 0 374.13673904 0 442.72111486 0 19953
0.13550000 0.13551000 11996.36156181 0 224.68064449 0 3484.97648173 0 -75.55496589 0 757.30059982 0 19956
0.13650000 0.13649900 12019.42916423 0 162.92647590 0 3867.21763842 0 -420.60917025 0 151.24877679 0 19723
0.13750000 0.13749600 11599.92833735 0 66.49445105 0 3709.00683953 0 -69.48961445 0 116.35078970 0 20946
0.13850000 0.13851100 11133.19384837 0 -3.32415135 0 3505.18809528 0 84.06921795 0 105.92610078 0 20955
0.13950000 0.13949800 11516.00620283 0 140.27628724 0 3568.42627963 0 196.94020490 0 -29.65516044 0 20506
0.14050000 0.14048300 11458.22735105 0 55.24515027 0 3236.11000533 0 682.91746813 0 85.58036560 0 21447
0.14150000 0.14148400 11406.27032274 0 25.44411470 0 2897.56547837 0 44.39964237 0 -87.27715252 0 21771
0.14250000 0.14249400 11228.53993837 0 75.50927007 0 3235.23123952 0 249.76391598 0 676.81773497 0 22470
0.14350000 0.14350900 11001.81836030 0 204.11862308 0 3061.48825500 0 30.23196035 0 860.21066650 0 22519
0.14450000 0.14449900 10729.17028425 0 233.24861111 0 3290.65939277 0 -270.42589701 0 616.67610163 0 22218
0.14550000 0.14550500 10823.90123820 0 210.49736438 0 3330.34665350 0 -67.45647991 0 285.17707953 0 23559
0.14650000 0.14650700 10501.91046212 0 99.54681025 0 3496.45536008 0 21.49274425 0 468.01638860 0 23044
0.14750000 0.14750500 10285.07499936 0 168.68568730 0 3692.65081095 0 -147.62936012 0 578.97375316 0 23649
0.14850000 0.14849900 10032.24309226 0 205.51915608 0 3481.54929508 0 52.97222251 0 652.93507726 0 23640
0.14950000 0.14949500 9903.51488618 0 79.69999436 0 3748.34259394 0 406.36767190 0 833.14687658 0 24457
0.15050000 0.15050000 9896.81429690 0 -85.59980829 0 3133.58000485 0 511.50760682 0 898.53693870 0 24591
0.15150000 0.15149900 10022.91719014 0 5.83973931 0 2874.22326163 0 280.37682131 0 284.02369941 0 25020
0.15250000 0.15250500 9655.98852763 0 262.85532959 0 2917.21687872 0 -337.17365230 0 981.10028159 0 25297
0.15350000 0.15350100 9463.34109370 0 33.46450037 0 2697.53641166 0 87.53342260 0 929.71554951 0 25452
0.15450000 0.15450400 9316.07092910 0 52.27426277 0 2770.27625130 0 59.44982496 0 596.92254476 0 26061
0.15550000 0.15549900 9458.42000518 0 115.86746850 0 2889.48083295 0 276.67831572 0 144.00994346 0 26128
0.15650000 0.15649500 9445.88660787 0 -91.94032328 0 2361.72704328 0 68.86876641 0 579.10337112 0 26331
0.15750000 0.15749700 9382.56054693 0 19.65645325 0 2246.90530609 0 213.13366180 0 280.13076688 0 27345
0.15850000 0.15849900 9373.79485802 0 265.74317372 0 2425.55839455 0 -299.05718544 0 287.43331074 0 26980
0.15950000 0.15949700 9203.21543040 0 67.84170887 0 2431.80861635 0 55.69013530 0 265.80029349 0 27777
0.16050000 0.16050000 9025.45209232 0 77.68092007 0 2483.88647496 0 0.64789755 0 321.24931743 0 28224
0.16150000 0.16150500 8925.47051268 0 -7.10210836 0 2208.37142547 0 368.23692510 0 527.38360957 0 28075
0.16250000 0.16249700 8858.65135767 0 -65.87470146 0 2242.74215308 0 342.05409790 0 396.82647216 0 28590
0.16350000 0.16349900 8880.01635134 0 320.34748402 0 2206.56995557 0 -281.68069008 0 283.25258241 0 29163
0.16450000 0.16449100 8630.71049203 0 348.69866585 0 2316.66832655 0 -378.18784940 0 544.79855095 0 28996
0.16550000 0.16550500 8440.68837095 0 -71.65302602 0 2444.38595195 0 48.42449961 0 307.41534672 0 30777
0.16650000 0.16650700 8430.04432012 0 27.43034511 0 2371.88777292 0 214.49025651 0 196.91603884 0 29211
0.16750000 0.16749900 8210.98997370 0 18.00195693 0 2197.26602259 0 339.13000468 0 667.97735096 0 30922
0.16850000 0.16850800 8407.91040636 0 42.76052445 0 2170.20003575 0 452.70718979 0 581.29149797 0 30867
0.16950000 0.16949900 8364.22476121 0 55.72133149 0 1824.87802751 0 24.22801267 0 1002.83875073 0 30852
0.17050000 0.17049200 8324.47159304 0 7.28097015 0 1803.04069722 0 122.98656999 0 892.32955673 0 31257
0.17150000 0.17149500 8031.88651776 0 183.32482718 0 2248.44314625 0 -284.68936451 0 926.21916006 0 32608
0.17250000 0.17250900 7954.97254055 0 215.98525684 0 1981.66083196 0 -202.61703201 0 696.30326827 0 32361
0.17350000 0.17350400 7792.35692805 0 92.66936936 0 2524.67219295 0 -36.00885692 0 1002.29940821 0 32508
0.17450000 0.17449800 7793.53227732 0 -46.39004693 0 2100.95329020 0 149.12765582 0 448.64948868 0 32791
0.17550000 0.17549800 7838.93151580 0 -47.81068170 0 2203.38442952 0 20.38824548 0 390.70916369 0 33633
0.17650000 0.17650100 7567.64552676 0 163.10662289 0 1994.38096701 0 -95.41540266 0 84.25958059 0 33984
0.17750000 0.17750300 7824.08037367 0 47.43391086 0 2109.91670142 0 325.04009343 0 641.04976973 0 34069
0.17850000 0.17849800 7643.24135526 0 -39.15022498 0 1711.60511505 0 143.80123658 0 247.38355910 0 34536
