### header ###
fiducial parameters:
Omega_m = 0.31
Omega_nu = 0
Omega_de = 0.69
Omega_k = 0
H_0 = 100
w_de = -1
zeff = 0
beta = 0
fgrowth = 0
b_1 = 2
gamma = 0.55
Lx = 3500 Ly = 3500 Lz = 3500
nx = 700 ny = 700 nz = 700
xoffset = -983.599254 yoffset = -42.9823471 zoffset = 800.977702
bins = 400 dk = 0.001
kx_ny = 0.628318531 ky_ny = 0.628318531 kz_ny = 0.628318531
############################
A(data) = 9.03804362 (not used)
A(ran) = 9.04479662 (used)
Ngal = 502720
weighted Ngal = 0
Nran = 25229228
weighted Nran = 0
SN(data) = 6736.24214
SN(ran) = 134.263774
SN(data+ran) = 6870.50592
############################
13 columns: k_central k_mean P_0(k) sigma^{lin}_{P_0(k)} P^img_1(k) sigma^{lin}_{P_1(k)} P_2(k) sigma^{lin}_{P_2(k)} P^img_3(k) sigma^{lin}_{P_3(k)} P_4(k) sigma^{lin}_{P_4(k)} N_modes
### header ###
0.00050000 0 0 0 0 0 0 0 0 0 0 0 0
0.00150000 0.00179520 57977.78238731 0 -47798.81835909 0 18480.88429376 0 -110639.91041106 0 54703.72068372 0 3
0.00250000 0.00253879 63677.45740832 0 -4213.44038161 0 -43250.76592751 0 28370.40483446 0 17520.28342152 0 6
0.00350000 0.00331552 80948.94026087 0 9288.08223816 0 25336.35604177 0 -16638.00255178 0 19266.50092477 0 7
0.00450000 0.00420575 65102.59585502 0 10482.64352181 0 36546.77143539 0 -47735.98660392 0 12872.71076235 0 24
0.00550000 0.00557378 48628.04374325 0 12126.41890117 0 48655.83471188 0 21776.36591388 0 -5766.52712974 0 45
0.00650000 0.00659388 40521.42917822 0 -2296.28095984 0 10821.91303056 0 37969.49327612 0 32395.81130262 0 40
0.00750000 0.00754703 54751.28388300 0 -22246.61546609 0 23642.20541255 0 23678.56434780 0 -23355.83760536 0 57
0.00850000 0.00846663 71720.03191520 0 -9102.54182269 0 24333.57441082 0 -9719.19375826 0 1084.92316626 0 75
0.00950000 0.00948925 75159.52128187 0 8860.01344467 0 13753.89317483 0 -11509.41545928 0 -10611.20695930 0 112
0.01050000 0.01054430 75255.19690906 0 1211.64229401 0 26678.12158258 0 -12729.36209016 0 721.99178971 0 105
0.01150000 0.01145670 73340.47606240 0 3054.28237539 0 38593.85638165 0 7909.00210429 0 -532.63753064 0 144
0.01250000 0.01249090 78349.11162232 0 -10027.86024780 0 27584.78820345 0 28353.15905551 0 -10480.05116268 0 169
0.01350000 0.01339930 72658.55379655 0 4477.85002821 0 12295.47147320 0 -15145.19913798 0 -8167.87552632 0 180
0.01450000 0.01448870 82339.69699539 0 355.34103689 0 20488.09524154 0 -2252.84795985 0 -2000.25771334 0 267
0.01550000 0.01550050 76396.82353744 0 4713.98538499 0 39140.33886757 0 -3134.64550839 0 3483.13107354 0 238
0.01650000 0.01653350 73614.10176540 0 2336.23185032 0 26127.90434198 0 -4773.40093809 0 -14412.74783825 0 315
0.01750000 0.01747870 73565.65980032 0 364.98988545 0 41133.92894536 0 5831.44595369 0 -4509.92498015 0 297
0.01850000 0.01844180 72444.24478549 0 1964.61277532 0 38311.00363768 0 2549.49732698 0 -3397.41845368 0 388
0.01950000 0.01947590 73681.21750388 0 2935.18763946 0 37494.74004916 0 2289.59135514 0 -8772.60920064 0 399
0.02050000 0.02045430 71391.70304075 0 432.82291651 0 40038.32767609 0 8256.87253337 0 1233.44667059 0 462
0.02150000 0.02154770 73629.48016702 0 -496.84539934 0 37809.66774506 0 1273.79300568 0 -765.33581466 0 571
0.02250000 0.02255340 69713.15050459 0 -2856.25250089 0 29945.48269690 0 15470.12279493 0 2569.02789703 0 510
0.02350000 0.02348930 74280.97516682 0 -1145.73485852 0 22708.18720596 0 13856.59892846 0 -2553.77032572 0 555
0.02450000 0.02439640 79220.18822802 0 2748.96618049 0 22874.05425194 0 -1855.03067925 0 14007.96633863 0 592
0.02550000 0.02547300 73161.42752933 0 2630.70627208 0 18457.81669133 0 -1712.79144889 0 4391.36848828 0 837
0.02650000 0.02652900 68291.52712111 0 1041.02112502 0 21494.61162717 0 -1959.99925483 0 -4777.69590596 0 723
0.02750000 0.02749970 63433.27035984 0 3208.86826532 0 16367.23283765 0 1735.27686897 0 -4857.92722410 0 826
0.02850000 0.02848090 58874.45304713 0 3161.33801977 0 23387.25348294 0 -2572.36720710 0 3691.93681373 0 831
0.02950000 0.02946900 59690.38709847 0 2365.57164368 0 18914.77491072 0 6661.87964084 0 3396.92414792 0 996
0.03050000 0.03053250 54673.51310912 0 1011.33751453 0 20656.48873922 0 652.32872886 0 -2577.67275566 0 1041
0.03150000 0.03150510 53568.90449034 0 3337.39874910 0 21084.33784126 0 -3558.54016431 0 -2247.93785591 0 1036
0.03250000 0.03246190 54204.36201417 0 1101.29127786 0 27431.22387876 0 -2091.41868120 0 -4386.20573917 0 1059
0.03350000 0.03345080 48431.09035687 0 1229.70093134 0 26529.72000701 0 3046.94468090 0 8763.34920595 0 1302
0.03450000 0.03451200 46945.64660669 0 445.49911327 0 28447.29684253 0 1418.20718140 0 4572.20750669 0 1339
0.03550000 0.03553350 47306.92919889 0 171.78004140 0 24529.64903140 0 2430.64425165 0 4987.73191829 0 1365
0.03650000 0.03647120 47450.05817963 0 1668.11719220 0 26950.42913687 0 6869.58692378 0 4603.71126085 0 1308
0.03750000 0.03744890 49660.04433727 0 -372.73400912 0 22534.74080490 0 3453.76931103 0 12254.27932602 0 1579
0.03850000 0.03847530 49306.45094588 0 -575.18627253 0 24289.74596622 0 5880.19548681 0 11661.44194381 0 1662
0.03950000 0.03950240 46623.02970998 0 -815.12558680 0 18574.25316070 0 -113.90891921 0 12398.39691829 0 1683
0.04050000 0.04050350 48691.86410995 0 1357.87990879 0 19804.19575263 0 1478.76513005 0 9351.84768200 0 1822
0.04150000 0.04152450 47925.69017240 0 1597.16783790 0 17464.37194708 0 -1675.21322609 0 9219.70327384 0 1887
0.04250000 0.04250150 48373.75088799 0 -1026.96416749 0 19750.92057561 0 2095.88940224 0 3460.05248654 0 1920
0.04350000 0.04349210 47230.25688228 0 487.83255754 0 20809.06445237 0 -500.48019441 0 1476.17277092 0 2005
0.04450000 0.04448520 45444.82445490 0 2674.66653155 0 19334.60527478 0 -3378.62385000 0 1809.77424021 0 2151
0.04550000 0.04548030 42351.78850745 0 1710.95702527 0 21686.62195589 0 -2875.58534863 0 31.53560942 0 2274
0.04650000 0.04648670 41859.45996435 0 496.20499876 0 21287.22289684 0 908.14514433 0 -1814.53056014 0 2311
0.04750000 0.04749250 40995.08394793 0 425.33033955 0 20780.28487221 0 4468.69987925 0 -2994.52630055 0 2568
0.04850000 0.04851840 38778.39720101 0 987.27910367 0 19927.33281127 0 1456.58727800 0 -5291.99359422 0 2493
0.04950000 0.04949480 39932.32655068 0 1418.65754888 0 19133.25805936 0 790.38942780 0 -1989.22920247 0 2644
0.05050000 0.05050630 36988.46109888 0 69.11954420 0 17390.99500223 0 496.65207086 0 -2595.65450097 0 2829
0.05150000 0.05149060 36228.10898480 0 -268.72218980 0 16453.90111532 0 1911.22775257 0 -4897.61448484 0 2784
0.05250000 0.05249300 35553.76607403 0 1442.70277826 0 15204.18629274 0 2199.21029194 0 -4996.32185405 0 3055
0.05350000 0.05348950 34398.18903848 0 1003.02548846 0 14724.59985384 0 -1698.54445825 0 -2338.57156428 0 3009
0.05450000 0.05448610 34090.62100620 0 -360.12481825 0 14487.11339463 0 63.55058560 0 -5331.28541035 0 3336
0.05550000 0.05550870 33839.62352271 0 77.74583890 0 12944.22032985 0 2686.51888536 0 -4967.22372128 0 3349
0.05650000 0.05647670 33801.61690158 0 436.82020247 0 11637.27588413 0 130.45937472 0 -4531.08126694 0 3324
0.05750000 0.05747970 33277.32325228 0 620.17578646 0 13151.16967729 0 129.17417973 0 -3689.69596093 0 3639
0.05850000 0.05849280 34566.47269042 0 -838.30633032 0 12652.14054492 0 1302.24304866 0 -1494.97835918 0 3846
0.05950000 0.05951020 32960.19864185 0 749.95301922 0 12251.42333715 0 380.33423489 0 -4715.12778054 0 3787
0.06050000 0.06049470 33059.71886944 0 761.74276097 0 13250.79975060 0 -1969.72060157 0 1164.01318730 0 3930
0.06150000 0.06148310 32011.79064518 0 603.41772253 0 14296.86059752 0 2076.78723052 0 604.51508133 0 4083
0.06250000 0.06249100 31668.74244346 0 86.67047458 0 13284.19285125 0 3895.82146542 0 3194.55536725 0 4303
0.06350000 0.06350600 32971.40290589 0 -559.36079882 0 11070.03255603 0 1710.96800984 0 2373.70022739 0 4470
0.06450000 0.06451750 31937.97431743 0 701.75601010 0 11276.98190346 0 632.39832037 0 6111.59649281 0 4479
0.06550000 0.06550280 31257.58989174 0 593.49535811 0 10682.26615933 0 -352.69595181 0 3380.34842789 0 4636
0.06650000 0.06648880 30478.56400428 0 618.10958835 0 12222.09452836 0 -1285.66732864 0 4929.22808472 0 4653
0.06750000 0.06749660 29563.10972535 0 930.65912430 0 11256.66044418 0 1743.51529840 0 4273.32827132 0 5220
0.06850000 0.06852730 28636.34133666 0 -627.88585795 0 10273.95861191 0 1937.23922045 0 5607.11901244 0 5029
0.06950000 0.06949320 30024.13223659 0 -580.78510918 0 9442.56926695 0 1995.35859397 0 2849.42009675 0 5040
0.07050000 0.07048030 28722.24069424 0 1372.73105092 0 9505.99418903 0 -1021.77944923 0 4108.73543576 0 5475
0.07150000 0.07148790 27618.40099555 0 736.55733295 0 8362.22556900 0 -243.83883753 0 5964.28238992 0 5509
0.07250000 0.07249820 28465.09185012 0 -491.75404995 0 9478.22518955 0 1548.50618136 0 3408.94127032 0 5916
0.07350000 0.07351270 27388.82342860 0 479.22394801 0 8094.41070489 0 -113.42010573 0 2254.16610856 0 5721
0.07450000 0.07449140 26890.89275348 0 962.50449867 0 8850.17126764 0 -635.24771849 0 2863.65610281 0 6028
0.07550000 0.07549160 25931.61002995 0 939.47644071 0 9709.41748867 0 -1826.18519165 0 1436.16695758 0 6183
0.07650000 0.07648840 25399.95671702 0 718.55581541 0 10833.40289348 0 -950.31601693 0 635.65414768 0 6330
0.07750000 0.07749960 24299.08285292 0 -315.27810377 0 10087.42958491 0 1255.21809344 0 -586.86836547 0 6583
0.07850000 0.07848650 23974.81827031 0 73.07651678 0 10693.17383991 0 1453.12713764 0 420.11156912 0 6549
0.07950000 0.07947320 24005.46522782 0 417.30830619 0 9463.56078515 0 -668.46067215 0 -1862.48920403 0 6828
0.08050000 0.08048110 23976.57580193 0 487.41843915 0 8545.06377962 0 988.95534944 0 -15.76593733 0 7147
0.08150000 0.08149960 23716.13158602 0 -397.52728789 0 8885.75029823 0 1464.30943253 0 -577.04266530 0 7386
0.08250000 0.08250610 23512.25791891 0 620.67558451 0 7702.25047917 0 966.98290891 0 695.28939222 0 7227
0.08350000 0.08350160 22689.62327830 0 156.73007851 0 7279.36640393 0 -351.15261937 0 1442.73573198 0 7798
0.08450000 0.08449610 22635.79887265 0 502.59362617 0 6696.18446101 0 1464.66093885 0 1186.94897485 0 7371
0.08550000 0.08548940 21565.79165750 0 48.28982875 0 6760.13664258 0 563.62610835 0 2223.56308935 0 8256
0.08650000 0.08650700 21493.84270709 0 507.31809084 0 7446.77129007 0 -121.57834779 0 2637.43981507 0 8037
0.08750000 0.08749060 20972.95427528 0 748.33499168 0 6477.33882148 0 -7.75899678 0 2703.52300372 0 8155
0.08850000 0.08849210 20393.40822589 0 -267.37328429 0 5966.34748956 0 913.28043202 0 1999.10433322 0 8718
0.08950000 0.08949900 20424.82410348 0 128.27674015 0 6163.05921535 0 -39.07750711 0 1580.64704074 0 8571
0.09050000 0.09049190 19839.56607634 0 778.45249278 0 6424.76665710 0 -295.03793033 0 839.79583836 0 8932
0.09150000 0.09150830 18779.77451369 0 400.43490425 0 6062.08902418 0 -669.66787668 0 1892.60890205 0 9285
0.09250000 0.09250820 19312.19674671 0 238.02799864 0 7144.73948237 0 952.88970229 0 471.63250990 0 9204
0.09350000 0.09350330 18487.58488303 0 194.99264018 0 6121.74623787 0 -155.34821927 0 301.86703911 0 9349
0.09450000 0.09448040 18595.56323150 0 75.02594888 0 6173.60440503 0 691.04385492 0 1715.92205208 0 9564
0.09550000 0.09549270 17830.81728839 0 154.73637858 0 5650.67284272 0 287.61126081 0 767.82601726 0 10155
0.09650000 0.09649430 17692.08213669 0 485.42034540 0 6307.58323680 0 -316.11952203 0 1193.73744070 0 9913
0.09750000 0.09749140 17568.28600370 0 655.95253935 0 5978.26575082 0 504.06116507 0 1361.43891030 0 10476
0.09850000 0.09850240 17217.10921827 0 -157.07389563 0 6361.27582758 0 -672.88086416 0 1617.28059030 0 10575
0.09950000 0.09950330 17055.30646415 0 -451.20450027 0 5924.50725260 0 358.53864597 0 80.33523219 0 10882
0.10050000 0.10051200 16773.00294881 0 271.96813100 0 5984.75763321 0 11.63639712 0 131.16568274 0 10875
0.10150000 0.10150300 16557.92501767 0 740.47223462 0 6426.98554076 0 -220.36919976 0 867.89327657 0 11118
0.10250000 0.10250800 16943.59336100 0 74.98530596 0 5928.85714334 0 257.57175017 0 -78.92931675 0 11575
0.10350000 0.10349800 16675.45994429 0 -416.11208624 0 6237.97400036 0 724.53361981 0 -598.87779868 0 11364
0.10450000 0.10450100 16721.37545768 0 284.30490446 0 5453.24711972 0 -384.19091832 0 -578.41244150 0 12093
0.10550000 0.10551000 15737.48729156 0 434.52882063 0 6207.14030512 0 -517.70290576 0 -269.01108406 0 12067
0.10650000 0.10649700 15914.99798448 0 441.76985088 0 6942.54645487 0 -442.60467839 0 -1410.57290346 0 12054
0.10750000 0.10749900 15168.37658613 0 261.50203024 0 6021.83056567 0 775.07583517 0 -801.61126715 0 12807
0.10850000 0.10850100 15472.64924663 0 -261.72611552 0 5766.91158978 0 865.44042151 0 -649.33433437 0 12736
0.10950000 0.10950300 15212.42472218 0 -24.91235154 0 5480.57673630 0 740.02076869 0 -167.63775908 0 12933
0.11050000 0.11050200 14868.27806320 0 413.54609009 0 5618.08161587 0 -295.50367621 0 -7.98944213 0 13428
0.11150000 0.11150900 14729.43306577 0 242.35701869 0 5172.87688915 0 -166.87433128 0 -358.45406476 0 13453
0.11250000 0.11250000 14406.26694043 0 235.48836546 0 5579.96514902 0 222.30248453 0 143.66392942 0 13668
0.11350000 0.11349100 14034.32931283 0 -48.85860992 0 5230.28226546 0 95.34279463 0 96.22793149 0 13791
0.11450000 0.11448600 14205.68864510 0 57.95317694 0 5007.48217979 0 905.55058829 0 457.70187495 0 14205
0.11550000 0.11549300 14444.16371584 0 16.83814146 0 4637.48882154 0 222.95716506 0 -340.58655900 0 14776
0.11650000 0.11649800 14225.79041292 0 179.48242369 0 4892.15515226 0 -312.61104955 0 391.95591268 0 14553
0.11750000 0.11747300 13749.27965434 0 122.84267209 0 4599.42727754 0 -64.95089891 0 232.75760071 0 14568
0.11850000 0.11849100 13720.82961136 0 172.65111800 0 4468.84267870 0 485.86412213 0 322.15774158 0 16015
0.11950000 0.11950300 13642.50960885 0 -9.87645988 0 4440.39263571 0 49.33413207 0 650.79418407 0 15270
0.12050000 0.12050700 13435.01103279 0 237.13714980 0 4620.92408608 0 344.35316894 0 178.15878270 0 15999
0.12150000 0.12150000 13182.58555487 0 157.11124317 0 4077.36349647 0 -201.72508471 0 857.18002293 0 15670
0.12250000 0.12250700 13366.24760843 0 166.21525693 0 4689.42388070 0 401.19174130 0 463.22272113 0 16887
0.12350000 0.12352200 12930.59945985 0 -158.42609651 0 4354.19669466 0 -18.03260389 0 835.38553247 0 16407
0.12450000 0.12449800 13439.18517037 0 5.01336991 0 4674.34206255 0 192.36073659 0 3.16244746 0 16306
0.12550000 0.12549900 12959.37904002 0 143.35086910 0 4290.69488057 0 -145.95421280 0 785.49360380 0 17523
0.12650000 0.12650100 13186.86953818 0 -19.35459720 0 4225.69916461 0 169.69077569 0 451.04961779 0 17154
0.12750000 0.12750600 13219.93310165 0 62.77672246 0 4305.20550095 0 19.63327580 0 108.45562815 0 18007
0.12850000 0.12850300 13216.41803842 0 129.49492925 0 3603.66478847 0 235.69597388 0 367.79534528 0 17496
0.12950000 0.12949900 12764.73241388 0 10.38243127 0 4680.22979345 0 -198.35611630 0 -181.17514633 0 18405
0.13050000 0.13049000 12648.95501887 0 542.77189730 0 4081.81224836 0 -216.18737297 0 266.11884610 0 18100
0.13150000 0.13148800 12380.82160216 0 184.80554757 0 4419.42308665 0 262.31488861 0 727.97398794 0 19059
0.13250000 0.13249300 12230.77234070 0 -278.13926387 0 4022.68229416 0 754.24139635 0 479.98847426 0 18957
0.13350000 0.13349100 12013.05811213 0 145.16442203 0 3903.19211362 0 387.87075013 0 234.66452251 0 19468
0.13450000 0.13450700 11854.88026696 0 424.82395075 0 4100.98032752 0 -320.51444952 0 977.50063715 0 19953
0.13550000 0.13551000 11816.76380011 0 -11.04377943 0 3461.40358897 0 110.74096848 0 394.14513799 0 19956
0.13650000 0.13649900 11833.02096753 0 -25.87130473 0 4170.47971824 0 57.24445232 0 125.69756251 0 19723
0.13750000 0.13749600 11335.09029241 0 255.16722724 0 3575.36852950 0 -264.11196469 0 107.70790830 0 20946
0.13850000 0.13851100 11245.56602588 0 53.81638691 0 3634.93786661 0 225.14089808 0 333.80797926 0 20955
0.13950000 0.13949800 11241.39188830 0 43.46221895 0 3693.89206765 0 513.21460940 0 -117.99627867 0 20506
0.14050000 0.14048300 11137.69752313 0 141.44175039 0 3018.51660706 0 282.23760791 0 -0.84320984 0 21447
0.14150000 0.14148400 10977.22390229 0 149.24299383 0 2985.94734936 0 -46.76099594 0 -11.02763211 0 21771
0.14250000 0.14249400 10636.26276936 0 275.70727951 0 3016.61627601 0 -240.29850979 0 -374.14772361 0 22470
0.14350000 0.14350900 10470.39572338 0 230.19819530 0 3176.70543681 0 -120.22614690 0 -261.12635786 0 22519
0.14450000 0.14449900 10436.54127069 0 -217.82846812 0 2943.25031574 0 410.76589476 0 206.31993142 0 22218
0.14550000 0.14550500 10590.00673422 0 -190.20226807 0 2242.21489359 0 694.08658153 0 -373.32058529 0 23559
0.14650000 0.14650700 10693.29467020 0 -77.15168337 0 1913.96291115 0 222.84622087 0 -609.55809860 0 23044
0.14750000 0.14750500 10438.47455546 0 372.64503408 0 2135.66453956 0 -144.36694206 0 258.64384446 0 23649
0.14850000 0.14849900 10293.70887341 0 276.03571823 0 2449.06537987 0 -548.47179202 0 -272.80515543 0 23640
0.14950000 0.14949500 9922.33145901 0 202.89713861 0 2409.53190315 0 253.89191836 0 108.93686228 0 24457
0.15050000 0.15050000 9942.27944282 0 2.79156435 0 2502.32957232 0 475.94725001 0 150.69625279 0 24591
0.15150000 0.15149900 9821.75671245 0 -50.92755417 0 2174.40712705 0 74.38148401 0 85.61958052 0 25020
0.15250000 0.15250500 9730.83740520 0 227.03024457 0 2500.04478122 0 9.81680267 0 647.95906589 0 25297
0.15350000 0.15350100 9714.87682124 0 133.09017985 0 2145.61656231 0 -187.88342480 0 766.34419842 0 25452
0.15450000 0.15450400 9411.40603453 0 -22.17906034 0 2580.82532799 0 246.35210774 0 393.96389254 0 26061
0.15550000 0.15549900 9533.63137365 0 40.89523418 0 2526.05624910 0 106.63515494 0 685.21983454 0 26128
0.15650000 0.15649500 9347.49779126 0 176.24307324 0 2670.31664081 0 -551.59909983 0 209.43186084 0 26331
0.15750000 0.15749700 9104.85956751 0 261.79531833 0 2768.48576597 0 -162.04661163 0 519.07817425 0 27345
0.15850000 0.15849900 9006.72339606 0 205.95853899 0 3138.80866140 0 -83.39795072 0 191.29413459 0 26980
0.15950000 0.15949700 8905.89600434 0 -56.59273763 0 2734.01617721 0 272.23944994 0 423.65409377 0 27777
0.16050000 0.16050000 8981.60167857 0 -38.27826961 0 2964.01115791 0 281.50933074 0 -24.71803445 0 28224
0.16150000 0.16150500 8850.29209793 0 75.00123359 0 2603.54142408 0 106.19335543 0 583.02376507 0 28075
0.16250000 0.16249700 8801.14712020 0 100.98622864 0 2569.58811024 0 6.31107633 0 491.00600056 0 28590
0.16350000 0.16349900 8787.42738905 0 -19.61207558 0 2513.08346888 0 119.37813790 0 387.27978013 0 29163
0.16450000 0.16449100 8669.63981726 0 21.35060388 0 2291.63448564 0 274.94934400 0 421.45168697 0 28996
0.16550000 0.16550500 8552.54427354 0 118.54660576 0 2244.13719380 0 186.74102925 0 470.17815249 0 30777
0.16650000 0.16650700 8714.17127451 0 54.93802162 0 2324.65411082 0 110.06541727 0 760.00939542 0 29211
0.16750000 0.16749900 8494.91920578 0 87.25990675 0 2127.96435418 0 -22.26682708 0 422.13932122 0 30922
0.16850000 0.16850800 8406.11992103 0 149.68127828 0 2393.12095172 0 -240.69395440 0 808.75233779 0 30867
0.16950000 0.16949900 8386.33670582 0 143.72434457 0 2342.37222639 0 -336.95286239 0 340.14168381 0 30852
0.17050000 0.17049200 8119.19190064 0 -24.07730433 0 2805.39392984 0 1.24485964 0 135.81764922 0 31257
0.17150000 0.17149500 8138.73345526 0 182.65586671 0 2643.70102144 0 -279.80342662 0 -344.41138717 0 32608
0.17250000 0.17250900 7985.72934377 0 155.71071017 0 2815.43382918 0 -78.10404581 0 -301.74291344 0 32361
0.17350000 0.17350400 7916.68032053 0 25.75256150 0 2787.01673991 0 89.08224734 0 -87.82176763 0 32508
0.17450000 0.17449800 7833.87861241 0 47.92415233 0 2602.73955029 0 295.50367621 0 -262.19076294 0 32791
0.17550000 0.17549800 7770.86011951 0 21.46715020 0 2526.77024631 0 286.61496008 0 -35.88462140 0 33633
0.17650000 0.17650100 7898.86334380 0 -13.47971824 0 2099.26166602 0 388.62868564 0 -22.15104968 0 33984
0.17750000 0.17750300 7711.51047385 0 14.82455946 0 1986.85653480 0 72.87308250 0 53.29154403 0 34069
0.17850000 0.17849800 7553.61822757 0 153.86090815 0 2012.71421865 0 237.19207266 0 434.32121221 0 34536
