### header ###
fiducial parameters:
Omega_m = 0.31
Omega_nu = 0
Omega_de = 0.69
Omega_k = 0
H_0 = 100
w_de = -1
zeff = 0
beta = 0
fgrowth = 0
b_1 = 2
gamma = 0.55
Lx = 3500 Ly = 3500 Lz = 3500
nx = 700 ny = 700 nz = 700
xoffset = -983.599254 yoffset = -42.9823471 zoffset = 800.977702
bins = 400 dk = 0.001
kx_ny = 0.628318531 ky_ny = 0.628318531 kz_ny = 0.628318531
############################
A(data) = 9.01784769 (not used)
A(ran) = 9.0283707 (used)
Ngal = 501660
weighted Ngal = 0
Nran = 25229228
weighted Nran = 0
SN(data) = 6729.09645
SN(ran) = 134.019943
SN(data+ran) = 6863.1164
############################
13 columns: k_central k_mean P_0(k) sigma^{lin}_{P_0(k)} P^img_1(k) sigma^{lin}_{P_1(k)} P_2(k) sigma^{lin}_{P_2(k)} P^img_3(k) sigma^{lin}_{P_3(k)} P_4(k) sigma^{lin}_{P_4(k)} N_modes
### header ###
0.00050000 0 0 0 0 0 0 0 0 0 0 0 0
0.00150000 0.00179520 54535.21734032 0 -60974.04425033 0 38153.70455831 0 -192893.48835742 0 -12369.50749240 0 3
0.00250000 0.00253879 97437.11324264 0 -56597.35115102 0 -103871.65616934 0 27362.02107150 0 26157.67253368 0 6
0.00350000 0.00331552 102240.99636964 0 843.52510075 0 10792.74899036 0 -100707.87957446 0 37737.16956603 0 7
0.00450000 0.00420575 107440.98318392 0 16848.13742526 0 -38619.01105286 0 -79440.09937110 0 -4328.86627029 0 24
0.00550000 0.00557378 103068.90360510 0 -1200.83347459 0 -18714.74584401 0 3608.69572271 0 -16184.77908708 0 45
0.00650000 0.00659388 75925.58537370 0 -742.59994633 0 -4540.34126163 0 -22698.63062781 0 -22542.21031426 0 40
0.00750000 0.00754703 100331.65796355 0 -1359.91205472 0 -21217.25116949 0 -46267.67878697 0 -22663.26030410 0 57
0.00850000 0.00846663 82646.27641614 0 5134.43088512 0 12344.79220409 0 -24115.97002798 0 -15295.13855371 0 75
0.00950000 0.00948925 76171.96933670 0 14286.97448220 0 42160.54709881 0 -15160.02831096 0 -36564.01721434 0 112
0.01050000 0.01054430 74798.67807258 0 -4621.68202159 0 25294.50482024 0 16462.13954476 0 -11450.09876734 0 105
0.01150000 0.01145670 87895.58396131 0 -3585.86978089 0 44246.84696918 0 21802.28950518 0 -15346.54635339 0 144
0.01250000 0.01249090 91842.45073551 0 -4684.98611338 0 27323.79475891 0 -7510.53673390 0 8246.19552882 0 169
0.01350000 0.01339930 93628.32254579 0 8496.28129278 0 49173.20808046 0 22147.09523850 0 1985.97776899 0 180
0.01450000 0.01448870 82050.03381642 0 8390.47788968 0 49527.02116331 0 -8821.44661033 0 27866.32279871 0 267
0.01550000 0.01550050 75601.97986545 0 4960.62199316 0 58510.97354041 0 3969.27530227 0 32550.58393029 0 238
0.01650000 0.01653350 73455.70422878 0 776.23360912 0 65367.76343714 0 13082.73579011 0 25965.77205068 0 315
0.01750000 0.01747870 72571.66582743 0 3202.81576583 0 51137.02996656 0 30002.49262860 0 28165.32286437 0 297
0.01850000 0.01844180 79337.94284609 0 -232.07106493 0 56131.60527357 0 12237.58277570 0 45825.00051194 0 388
0.01950000 0.01947590 76947.48016094 0 2810.55667895 0 48629.36189196 0 914.44919054 0 30334.33656628 0 399
0.02050000 0.02045430 73427.36403152 0 2983.98111087 0 47960.29157603 0 3678.19511344 0 23172.83462615 0 462
0.02150000 0.02154770 64991.87136340 0 216.86841647 0 52439.69042898 0 -125.26806572 0 25282.20209895 0 571
0.02250000 0.02255340 65718.28114821 0 -2014.59258056 0 39404.62768388 0 17417.24813070 0 27047.97214140 0 510
0.02350000 0.02348930 74948.94702549 0 431.94415070 0 48423.29131034 0 2759.03903355 0 -1678.34382928 0 555
0.02450000 0.02439640 69514.21989514 0 2645.55741421 0 26590.90407629 0 1424.76497124 0 8112.12882047 0 592
0.02550000 0.02547300 68569.98603605 0 1549.15427115 0 36779.97391129 0 -2027.46649963 0 -602.17207199 0 837
0.02650000 0.02652900 62615.46893116 0 1057.82093033 0 33509.42727092 0 10.12594150 0 7352.89713279 0 723
0.02750000 0.02749970 62417.96631614 0 4543.97715515 0 35405.14480701 0 8559.73916858 0 -8690.62035089 0 826
0.02850000 0.02848090 59307.13536111 0 -774.12017735 0 27445.17428594 0 7057.54394522 0 -648.93559439 0 831
0.02950000 0.02946900 59227.38736417 0 -713.88297823 0 30550.62280041 0 2998.97505244 0 -4761.02132479 0 996
0.03050000 0.03053250 55225.37803561 0 3404.30578069 0 22282.64486416 0 3031.34658784 0 1389.05412577 0 1041
0.03150000 0.03150510 54816.53224413 0 3231.45254655 0 26721.18110710 0 -4242.89002070 0 3874.56631747 0 1036
0.03250000 0.03246190 52398.71797325 0 1484.37824663 0 25762.55745793 0 920.70051079 0 -4061.83131084 0 1059
0.03350000 0.03345080 53258.48046919 0 811.84669188 0 35334.40415958 0 -1765.00112237 0 -1614.88595347 0 1302
0.03450000 0.03451200 48677.58416559 0 1663.84419347 0 29183.37305121 0 -717.08388268 0 4478.17956539 0 1339
0.03550000 0.03553350 50367.23112006 0 -733.76725152 0 34413.78713154 0 7487.44716234 0 4493.16252239 0 1365
0.03650000 0.03647120 49672.34705856 0 -683.36454023 0 31149.61154327 0 3727.28516830 0 2728.27124575 0 1308
0.03750000 0.03744890 50026.37983286 0 3141.89532630 0 32242.35682366 0 2096.44961544 0 6415.23204810 0 1579
0.03850000 0.03847530 45681.76168548 0 1147.97571133 0 31884.25975751 0 904.09842779 0 8425.25504647 0 1662
0.03950000 0.03950240 47158.19808614 0 334.19793159 0 27689.91056305 0 6285.19667788 0 12347.53834724 0 1683
0.04050000 0.04050350 46557.12227449 0 -386.80524659 0 25897.33816350 0 3157.49341936 0 4456.08958993 0 1822
0.04150000 0.04152450 44786.51902010 0 1068.41555058 0 22110.18707463 0 4460.24175836 0 10305.55024265 0 1887
0.04250000 0.04250150 41845.61940290 0 1767.12114488 0 24517.45615583 0 -27.45033704 0 7576.19152422 0 1920
0.04350000 0.04349210 40375.33436289 0 1238.64237342 0 20628.25838768 0 811.28867560 0 5784.82742766 0 2005
0.04450000 0.04448520 41076.69932221 0 629.38635056 0 19791.23395698 0 3561.95636638 0 7549.33424426 0 2151
0.04550000 0.04548030 38457.42799019 0 -948.48159331 0 17065.63196237 0 2575.91522404 0 6033.34239774 0 2274
0.04650000 0.04648670 39011.16029401 0 -1159.60837369 0 15545.14742567 0 2737.72896274 0 5246.73715519 0 2311
0.04750000 0.04749250 40926.75990647 0 282.37491506 0 12222.53391126 0 3988.52027343 0 5273.95692604 0 2568
0.04850000 0.04851840 41060.00277188 0 1501.42630328 0 11460.86364847 0 -1576.90130149 0 3991.10164799 0 2493
0.04950000 0.04949480 39089.48029652 0 757.92342508 0 13357.56979609 0 -1237.35717843 0 4612.63073379 0 2644
0.05050000 0.05050630 37696.63649320 0 657.15315314 0 13272.54920431 0 -168.01782529 0 2435.96078478 0 2829
0.05150000 0.05149060 38076.48301306 0 19.16654131 0 14370.78677099 0 -49.12905010 0 3936.99164345 0 2784
0.05250000 0.05249300 35520.59266484 0 1593.10354604 0 14483.26879423 0 272.89742584 0 3048.39464448 0 3055
0.05350000 0.05348950 35528.94094000 0 920.66316325 0 15249.66242323 0 -1965.08511194 0 2198.54023301 0 3009
0.05450000 0.05448610 34357.87565710 0 495.50967532 0 14189.10194050 0 3410.23744989 0 2300.54297400 0 3336
0.05550000 0.05550870 34378.08727065 0 -635.24002929 0 14014.11769928 0 1831.45778649 0 3558.36441115 0 3349
0.05650000 0.05647670 33883.78150449 0 692.37957895 0 13041.65348865 0 1785.98165600 0 2823.73816605 0 3324
0.05750000 0.05747970 33636.73846714 0 254.16323730 0 12450.68348378 0 411.43265832 0 4428.27665215 0 3639
0.05850000 0.05849280 34291.85837589 0 -79.63979890 0 11954.18080310 0 -1279.98830461 0 1944.31328519 0 3846
0.05950000 0.05951020 32522.13388731 0 151.95069097 0 13050.22145526 0 -396.36072628 0 556.26644472 0 3787
0.06050000 0.06049470 32819.70595854 0 1402.18069001 0 11850.81597511 0 -1264.73073330 0 -261.96338229 0 3930
0.06150000 0.06148310 31854.93094872 0 -232.25340883 0 13799.80868822 0 307.79651139 0 1266.21365060 0 4083
0.06250000 0.06249100 32306.83626471 0 475.41449824 0 13977.53907258 0 2389.86951823 0 136.56899399 0 4303
0.06350000 0.06350600 32036.50593349 0 568.59113516 0 12592.71400725 0 -122.50324880 0 207.14816820 0 4470
0.06450000 0.06451750 30465.05298000 0 322.66962266 0 12907.75154888 0 795.85315421 0 823.06303895 0 4479
0.06550000 0.06550280 31508.91691241 0 124.55406850 0 12548.44617975 0 2161.11579423 0 2353.26892239 0 4636
0.06650000 0.06648880 30420.12607814 0 116.37934958 0 12721.34335218 0 996.63576259 0 3717.03656208 0 4653
0.06750000 0.06749660 30248.10767152 0 221.25675322 0 10525.26366343 0 1713.59332269 0 3959.77364699 0 5220
0.06850000 0.06852730 30109.48236554 0 22.52760083 0 10875.22116130 0 -798.62895570 0 2211.62285896 0 5029
0.06950000 0.06949320 29389.11409566 0 935.62744647 0 10619.56621904 0 331.79340865 0 2429.77647042 0 5040
0.07050000 0.07048030 28718.17640239 0 827.96545369 0 10824.18683708 0 -1211.41161799 0 2506.21811101 0 5475
0.07150000 0.07148790 27281.28446302 0 347.61888237 0 10899.03571465 0 513.72758894 0 2153.75613060 0 5509
0.07250000 0.07249820 27502.84329199 0 44.34449982 0 10826.68033506 0 1460.87126131 0 1077.83592003 0 5916
0.07350000 0.07351270 27078.39940745 0 142.33479614 0 8693.36649404 0 1774.88723769 0 2504.74617829 0 5721
0.07450000 0.07449140 26845.08708582 0 -300.43245393 0 8414.85265624 0 1455.31306758 0 2082.99351403 0 6028
0.07550000 0.07549160 26697.56427605 0 841.93343618 0 7455.95439275 0 -968.36366968 0 -359.73925975 0 6183
0.07650000 0.07648840 25128.74761998 0 1355.79284000 0 9070.00551871 0 -2244.89512930 0 151.67058437 0 6330
0.07750000 0.07749960 23909.02068055 0 546.15624412 0 9463.23124797 0 -498.21956937 0 -155.93479545 0 6583
0.07850000 0.07848650 23890.12721571 0 -499.67282832 0 8989.34580224 0 522.64706188 0 -626.13162171 0 6549
0.07950000 0.07947320 23999.97294153 0 8.43128558 0 8663.44451832 0 1052.85590352 0 -3840.12968243 0 6828
0.08050000 0.08048110 24072.58096629 0 525.65903168 0 7620.23966027 0 838.53151406 0 -2737.39942556 0 7147
0.08150000 0.08149960 23789.28883942 0 157.58357979 0 7727.15250521 0 99.16454713 0 -1148.45903252 0 7386
0.08250000 0.08250610 22844.28606024 0 801.25976083 0 7708.66546955 0 477.88492861 0 -816.78974955 0 7227
0.08350000 0.08350160 22472.01889546 0 203.14868532 0 7941.57136200 0 501.24581912 0 -361.99988479 0 7798
0.08450000 0.08449610 21426.39743144 0 394.29013435 0 7697.63695868 0 326.50214004 0 1564.19215101 0 7371
0.08550000 0.08548940 21102.24269457 0 -84.78585146 0 7783.79994601 0 1471.63614244 0 3341.46304095 0 8256
0.08650000 0.08650700 21241.74676635 0 323.64395425 0 7183.93243734 0 704.26598494 0 2555.92330194 0 8037
0.08750000 0.08749060 21089.93997328 0 660.41996502 0 7600.59924450 0 -166.55687714 0 3318.50528426 0 8155
0.08850000 0.08849210 20620.89872405 0 252.99557724 0 7174.55161236 0 425.04254375 0 3474.80476752 0 8718
0.08950000 0.08949900 20615.62612921 0 45.81983776 0 7280.69553721 0 695.00269488 0 4449.26817036 0 8571
0.09050000 0.09049190 19961.60467772 0 380.85050980 0 7831.81351276 0 -831.37836039 0 2716.72645996 0 8932
0.09150000 0.09150830 19521.12331721 0 539.67754321 0 8412.63377257 0 -799.40336806 0 1841.00338006 0 9285
0.09250000 0.09250820 18947.61878274 0 233.76818139 0 8098.92536422 0 -719.29837252 0 2303.54176232 0 9204
0.09350000 0.09350330 18753.96076813 0 17.23973744 0 8509.86920906 0 771.02911863 0 540.51896147 0 9349
0.09450000 0.09448040 18819.31897499 0 -206.96362738 0 7779.72466958 0 1217.53002492 0 1724.81955587 0 9564
0.09550000 0.09549270 18494.72485521 0 296.49228774 0 6605.92422811 0 699.18781703 0 -246.28729876 0 10155
0.09650000 0.09649430 18410.25349206 0 426.04213985 0 6602.18947344 0 -364.67133284 0 1442.35127194 0 9913
0.09750000 0.09749140 17788.74637540 0 338.74774155 0 6392.82352004 0 343.38542809 0 60.36055587 0 10476
0.09850000 0.09850240 17599.04280692 0 156.16547147 0 7255.27723626 0 -171.98655136 0 216.52350089 0 10575
0.09950000 0.09950330 17141.42551319 0 404.63101098 0 6671.09569724 0 3.46681898 0 -115.68292768 0 10882
0.10050000 0.10051200 16985.99381116 0 -39.14791822 0 6506.71156856 0 -55.22581742 0 81.40337203 0 10875
0.10150000 0.10150300 16876.25793107 0 65.15718918 0 6358.81528332 0 31.49738311 0 -387.59613582 0 11118
0.10250000 0.10250800 16944.69181825 0 -27.48702551 0 6072.90882818 0 387.52253918 0 -1286.59003273 0 11575
0.10350000 0.10349800 16510.47166411 0 44.06406368 0 6390.45085236 0 186.47300568 0 -364.29675892 0 11364
0.10450000 0.10450100 16463.78723064 0 321.79415223 0 5626.93518137 0 166.79084853 0 -677.20768730 0 12093
0.10550000 0.10551000 16439.51132524 0 271.64518456 0 5965.29297060 0 -485.95199871 0 -661.24380797 0 12067
0.10650000 0.10649700 16262.65970668 0 369.75279612 0 6220.86003627 0 385.76171220 0 -1590.50020234 0 12054
0.10750000 0.10749900 15698.38221318 0 -57.61298473 0 6148.57056412 0 -75.08845110 0 -607.86208059 0 12807
0.10850000 0.10850100 15705.52218535 0 -92.49054052 0 6239.77547026 0 502.99016924 0 -458.70916025 0 12736
0.10950000 0.10950300 15870.18092835 0 134.36329181 0 5878.75650780 0 237.81489793 0 -703.73543008 0 12933
0.11050000 0.11050200 15701.12835632 0 377.57381180 0 5824.16318207 0 0.97124273 0 -1280.63639440 0 13428
0.11150000 0.11150900 15359.28845759 0 297.70059073 0 6318.16138020 0 -628.01108208 0 -1551.38413938 0 13453
0.11250000 0.11250000 14762.82616642 0 284.70254599 0 6266.02859873 0 -136.72607338 0 -765.07218492 0 13668
0.11350000 0.11349100 14849.16490691 0 25.68863128 0 6067.29571159 0 683.46230293 0 -1276.69293284 0 13791
0.11450000 0.11448600 14744.48193021 0 -151.05215294 0 5949.20057177 0 864.05856228 0 -495.66895162 0 14205
0.11550000 0.11549300 14693.29382198 0 15.39872307 0 5530.89706330 0 624.41253610 0 -142.96091677 0 14776
0.11650000 0.11649800 14601.57264093 0 336.33662787 0 5159.98100094 0 -47.74653179 0 137.28848349 0 14553
0.11750000 0.11747300 14360.24158132 0 165.71436042 0 5228.72245615 0 260.18058616 0 107.87772979 0 14568
0.11850000 0.11849100 13989.07287379 0 0.34843943 0 4932.23785761 0 -56.04416808 0 131.14700896 0 16015
0.11950000 0.11950300 14158.89436590 0 82.18129946 0 5467.82364753 0 381.14599480 0 324.38321599 0 15270
0.12050000 0.12050700 13994.78485153 0 130.23858481 0 5069.75372176 0 339.72866388 0 398.73668933 0 15999
0.12150000 0.12150000 13854.73155112 0 238.82987244 0 4812.87949194 0 -223.04833701 0 521.22565819 0 15670
0.12250000 0.12250700 13500.03970247 0 184.25631894 0 4975.22049012 0 -323.32100782 0 74.23978302 0 16887
0.12350000 0.12352200 13181.37725189 0 227.93317643 0 5066.89773289 0 504.68508879 0 590.48228985 0 16407
0.12450000 0.12449800 13572.20834433 0 -168.89659110 0 4780.99127774 0 719.79597365 0 295.37735363 0 16306
0.12550000 0.12549900 13402.82623513 0 99.55988189 0 4654.67967763 0 -39.28028232 0 276.54320548 0 17523
0.12650000 0.12650100 13133.15497825 0 52.71661150 0 4132.44014339 0 -82.53390424 0 747.53311788 0 17154
0.12750000 0.12750600 13138.64726454 0 139.04162128 0 4630.52460252 0 21.62499850 0 404.29378460 0 18007
0.12850000 0.12850300 12864.58217864 0 214.05636589 0 4432.81328063 0 185.62609514 0 362.50627359 0 17496
0.12950000 0.12949900 12515.16292483 0 332.16029337 0 4783.61659059 0 -333.26753829 0 473.29667264 0 18405
0.13050000 0.13049000 12327.98580804 0 362.11961663 0 5225.49299182 0 -294.69301476 0 296.01336038 0 18100
0.13150000 0.13148800 12060.07208278 0 81.20685803 0 5364.57964984 0 62.02559738 0 317.25972067 0 19059
0.13250000 0.13249300 12058.31455117 0 124.47058575 0 4983.59073443 0 272.45804294 0 285.20563942 0 18957
0.13350000 0.13349100 11959.45339794 0 -216.15222234 0 4528.49989238 0 715.61854070 0 703.88152490 0 19468
0.13450000 0.13450700 11950.33620269 0 -44.90701978 0 4676.01171758 0 261.00442911 0 358.89344766 0 19953
0.13550000 0.13551000 11912.10989011 0 181.19601702 0 4398.26679986 0 -63.68481707 0 629.83671804 0 19956
0.13650000 0.13649900 11892.33765947 0 209.94923420 0 4072.60717654 0 50.55232117 0 672.97423303 0 19723
0.13750000 0.13749600 11759.53417696 0 -150.86321829 0 4326.38375689 0 203.73635995 0 442.42562986 0 20946
0.13850000 0.13851100 11451.74645323 0 378.09557899 0 4211.01279107 0 67.18889573 0 -80.82789027 0 20955
0.13950000 0.13949800 11339.04473854 0 340.50307625 0 4461.99928998 0 -258.80531767 0 1016.86495146 0 20506
0.14050000 0.14048300 11076.29376240 0 -96.03723931 0 4034.04034221 0 239.98544947 0 269.56250960 0 21447
0.14150000 0.14148400 11186.02964249 0 8.09254333 0 4462.44965745 0 749.34008007 0 663.79442572 0 21771
0.14250000 0.14249400 11109.68686304 0 -23.81740935 0 3428.74645469 0 88.60859257 0 917.94997382 0 22470
0.14350000 0.14350900 10884.79970859 0 72.28892293 0 3689.52020777 0 335.50399727 0 1296.70682408 0 22519
0.14450000 0.14449900 10809.74212414 0 118.45543380 0 3378.00871393 0 7.16787299 0 772.81960396 0 22218
0.14550000 0.14550500 11019.61336788 0 79.33948069 0 3249.55512217 0 257.23012997 0 971.76998564 0 23559
0.14650000 0.14650700 10745.42745167 0 130.50001764 0 2965.87853525 0 219.96936131 0 1115.71402166 0 23044
0.14750000 0.14750500 10603.41889734 0 -37.31008938 0 3255.69549824 0 -195.29251901 0 588.96092655 0 23649
0.14850000 0.14849900 10296.77356916 0 242.04615529 0 2916.65666552 0 -55.75780027 0 528.69846291 0 23640
0.14950000 0.14949500 10229.60290783 0 435.66572389 0 3330.47846837 0 -343.81053105 0 79.12044831 0 24457
0.15050000 0.15050000 9843.58305817 0 220.13632682 0 3220.55585055 0 -15.80086828 0 688.17797993 0 24591
0.15150000 0.15149900 9695.33526662 0 -140.92437702 0 3397.08891651 0 607.85439139 0 57.22555886 0 25020
0.15250000 0.15250500 9747.02866518 0 -40.65335389 0 3016.30870797 0 110.79369443 0 256.57325253 0 25297
0.15350000 0.15350100 9460.24344423 0 286.88078674 0 2947.81989793 0 -123.43913438 0 567.23344199 0 25452
0.15450000 0.15450400 9308.29385171 0 151.02688842 0 3042.40805243 0 382.29827646 0 1193.01245891 0 26061
0.15550000 0.15549900 9326.53922677 0 -110.33234238 0 2750.82257326 0 452.01735864 0 824.36031697 0 26128
0.15650000 0.15649500 9430.60706741 0 39.61069827 0 2723.47098753 0 -31.49474681 0 650.17575263 0 26331
0.15750000 0.15749700 9301.97772248 0 321.51294717 0 2576.85989728 0 -295.66734634 0 789.52054811 0 27345
0.15850000 0.15849900 9104.81562922 0 -18.01557780 0 2961.47372165 0 -127.65061951 0 1162.25565569 0 26980
0.15950000 0.15949700 9071.67517374 0 -16.34196832 0 3025.53574894 0 224.82783777 0 840.56695536 0 27777
0.16050000 0.16050000 9068.76426200 0 4.49877564 0 2951.07133141 0 -154.85611042 0 396.13993637 0 28224
0.16150000 0.16150500 9065.51282852 0 115.48191000 0 2824.19951810 0 48.79533878 0 657.73972931 0 28075
0.16250000 0.16249700 8833.98000765 0 108.20463067 0 3173.24529644 0 -21.79932367 0 352.63663512 0 28590
0.16350000 0.16349900 8805.91442470 0 167.02262301 0 2808.61240961 0 84.24683849 0 624.60256921 0 29163
0.16450000 0.16449100 8994.36575191 0 -49.17430654 0 2981.91601122 0 306.18068076 0 838.78196231 0 28996
0.16550000 0.16550500 8825.86240851 0 -102.93862657 0 2883.26356487 0 86.03435798 0 548.81231377 0 30777
0.16650000 0.16650700 8576.91904010 0 190.57025126 0 2549.60717271 0 122.28795118 0 763.72327941 0 29211
0.16750000 0.16749900 8725.05698593 0 144.12747838 0 2542.80772228 0 117.36686266 0 747.25410973 0 30922
0.16850000 0.16850800 8527.80701609 0 110.48173257 0 2508.71160899 0 155.81506361 0 955.05805691 0 30867
0.16950000 0.16949900 8395.22322503 0 69.23598067 0 2405.47859587 0 252.31673065 0 851.75693944 0 30852
0.17050000 0.17049200 8361.17105003 0 5.91854263 0 2313.86726054 0 37.21243653 0 781.92032234 0 31257
0.17150000 0.17149500 8139.18382273 0 123.33587940 0 2184.39210353 0 -286.53696961 0 435.13187366 0 32608
0.17250000 0.17250900 8133.39495298 0 215.35474237 0 2376.95166088 0 -78.26310242 0 236.76916662 0 32361
0.17350000 0.17350400 7764.26937596 0 149.13973885 0 2577.58487908 0 -248.19861439 0 464.50901458 0 32508
0.17450000 0.17449800 7742.27826165 0 -84.60471586 0 2461.73059206 0 296.46592477 0 184.82861517 0 32791
0.17550000 0.17549800 7904.47646039 0 -6.08518958 0 2231.70265763 0 280.98646509 0 113.86168555 0 33633
0.17650000 0.17650100 7904.84993586 0 157.53524768 0 2123.23000339 0 -73.18877912 0 52.49670036 0 33984
0.17750000 0.17750300 7727.74567213 0 90.04998818 0 2153.73416145 0 -68.60228068 0 194.94430806 0 34069
0.17850000 0.17849800 7694.46241721 0 45.47437296 0 2366.31859462 0 102.52077343 0 394.75038794 0 34536
