### header ###
fiducial parameters:
Omega_m = 0.31
Omega_nu = 0
Omega_de = 0.69
Omega_k = 0
H_0 = 100
w_de = -1
zeff = 0
beta = 0
fgrowth = 0
b_1 = 2
gamma = 0.55
Lx = 3500 Ly = 3500 Lz = 3500
nx = 700 ny = 700 nz = 700
xoffset = -983.599254 yoffset = -42.9823471 zoffset = 800.977702
bins = 400 dk = 0.001
kx_ny = 0.628318531 ky_ny = 0.628318531 kz_ny = 0.628318531
############################
A(data) = 9.17642907 (not used)
A(ran) = 9.18710972 (used)
Ngal = 510875
weighted Ngal = 0
Nran = 25229228
weighted Nran = 0
SN(data) = 6667.17115
SN(ran) = 136.376314
SN(data+ran) = 6803.54746
############################
13 columns: k_central k_mean P_0(k) sigma^{lin}_{P_0(k)} P^img_1(k) sigma^{lin}_{P_1(k)} P_2(k) sigma^{lin}_{P_2(k)} P^img_3(k) sigma^{lin}_{P_3(k)} P_4(k) sigma^{lin}_{P_4(k)} N_modes
### header ###
0.00050000 0 0 0 0 0 0 0 0 0 0 0 0
0.00150000 0.00179520 52100.48682767 0 -13945.68381210 0 38800.69588335 0 -59975.43675696 0 -171396.67981573 0 3
0.00250000 0.00253879 30591.48541041 0 -583.61583353 0 22421.59970731 0 -27913.33676935 0 38588.25424963 0 6
0.00350000 0.00331552 50091.62819399 0 -9211.20121467 0 7293.65733286 0 -17349.91270078 0 -27833.69861814 0 7
0.00450000 0.00420575 42475.25510326 0 -6674.52288388 0 16547.16013654 0 -10101.25916179 0 2118.47368347 0 24
0.00550000 0.00557378 64592.03292144 0 -5579.93219530 0 24768.78317649 0 18971.23561379 0 3798.01483115 0 45
0.00650000 0.00659388 87622.28779549 0 -2583.48359455 0 48278.07526081 0 6437.91519048 0 52901.81139747 0 40
0.00750000 0.00754703 68933.24585132 0 -520.15685927 0 28203.21963978 0 1721.41433837 0 15821.29958036 0 57
0.00850000 0.00846663 82246.43797418 0 8414.79773337 0 45108.36699674 0 32640.10819683 0 31061.73496262 0 75
0.00950000 0.00948925 83592.15796112 0 1638.05241705 0 30756.03430768 0 27439.24261674 0 40020.31297706 0 112
0.01050000 0.01054430 89341.26355874 0 -9171.16244761 0 49744.95508332 0 7100.84513034 0 37288.66946753 0 105
0.01150000 0.01145670 77355.22749516 0 5850.25154195 0 44687.21848397 0 -649.41562021 0 17157.13345198 0 144
0.01250000 0.01249090 76947.69985239 0 13773.33586829 0 39948.47387238 0 7457.45927919 0 33697.92253642 0 169
0.01350000 0.01339930 73887.39793123 0 -5358.74684180 0 53951.05777044 0 2470.70498786 0 32674.59975474 0 180
0.01450000 0.01448870 71837.45699610 0 5582.28289383 0 52101.58528492 0 900.01216679 0 3072.67054989 0 267
0.01550000 0.01550050 68860.74767228 0 1171.12020576 0 56928.64586007 0 4188.64820129 0 28708.83951570 0 238
0.01650000 0.01653350 72528.60630292 0 -2720.27447691 0 42006.98277412 0 15242.85198823 0 -10051.59790915 0 315
0.01750000 0.01747870 81761.79863189 0 -2761.68631554 0 53538.14768711 0 10664.95447294 0 6199.28633572 0 297
0.01850000 0.01844180 82677.80213945 0 5213.84934488 0 35059.24061642 0 -10966.57985145 0 -27967.49071218 0 388
0.01950000 0.01947590 73049.49473472 0 -5476.47949073 0 43668.50922278 0 6.64319488 0 57.93790839 0 399
0.02050000 0.02045430 73507.00218274 0 873.54154379 0 35725.89432638 0 1373.54390929 0 -30055.87765135 0 462
0.02150000 0.02154770 76062.34330233 0 7909.95776211 0 48040.47895588 0 2083.82834154 0 -21727.37472017 0 571
0.02250000 0.02255340 71842.61974521 0 1689.74581562 0 38431.94378180 0 -1496.61506049 0 -22543.08908006 0 510
0.02350000 0.02348930 69990.95034517 0 -998.69536995 0 37055.57683735 0 12053.15180206 0 -24258.11039719 0 555
0.02450000 0.02439640 73593.34092323 0 664.85553543 0 38199.94960888 0 -577.30190121 0 -17292.90276908 0 592
0.02550000 0.02547300 66950.96988329 0 586.46852703 0 29249.71986960 0 1579.21904630 0 -19616.03002431 0 837
0.02650000 0.02652900 62392.92149066 0 2263.92040901 0 27076.31233866 0 3106.57992545 0 -13555.95117691 0 723
0.02750000 0.02749970 65323.82514681 0 3136.01857997 0 22916.34485638 0 1852.13075209 0 -20421.74842315 0 826
0.02850000 0.02848090 60852.77456903 0 -395.06125135 0 20615.18674631 0 10808.92926577 0 -6862.46892075 0 831
0.02950000 0.02946900 62215.74033492 0 -1224.43932107 0 24499.99068543 0 6402.28123703 0 -13288.58668028 0 996
0.03050000 0.03053250 55824.80616137 0 2094.96669814 0 14031.91270686 0 -6256.04362225 0 -10670.74334269 0 1041
0.03150000 0.03150510 54008.94646795 0 6021.72071995 0 17868.60421807 0 -480.59811804 0 -7331.08177164 0 1036
0.03250000 0.03246190 50775.30799145 0 987.09126748 0 17578.61150192 0 -4812.51700105 0 -8409.98649058 0 1059
0.03350000 0.03345080 51751.39711103 0 -527.27705922 0 15698.60190463 0 10081.35511627 0 -11823.13485220 0 1302
0.03450000 0.03451200 49866.33461035 0 670.90144418 0 15120.37400394 0 -422.97744410 0 -9498.28301908 0 1339
0.03550000 0.03553350 49098.62283264 0 1572.14498156 0 14066.51411049 0 -2450.09792970 0 -6717.94489930 0 1365
0.03650000 0.03647120 49748.03076365 0 -487.93471406 0 16736.97355074 0 -104.86400246 0 -9478.69752617 0 1308
0.03750000 0.03744890 49268.55417047 0 -1616.96203769 0 15269.54449960 0 1769.77941144 0 -8742.40162604 0 1579
0.03850000 0.03847530 50628.22456459 0 377.24866845 0 14775.45842489 0 -807.30786649 0 -11144.39811240 0 1662
0.03950000 0.03950240 48490.95627744 0 2408.80692136 0 17122.86158552 0 -1554.30603569 0 -6880.97792555 0 1683
0.04050000 0.04050350 47333.18232736 0 1677.67377035 0 18384.54959222 0 1752.72037022 0 -729.80841156 0 1822
0.04150000 0.04152450 48811.81564254 0 264.78751590 0 18743.08604127 0 6096.21809119 0 -3097.18811589 0 1887
0.04250000 0.04250150 47379.09784075 0 -436.47638535 0 17386.38148175 0 -437.22113937 0 3289.93441098 0 1920
0.04350000 0.04349210 42509.74666117 0 2396.27352405 0 18003.71446082 0 -1271.15670826 0 704.85036420 0 2005
0.04450000 0.04448520 42211.51551559 0 1540.76205769 0 20185.79980411 0 951.04209718 0 6361.26484301 0 2151
0.04550000 0.04548030 41066.70336116 0 1628.11137886 0 19979.07014812 0 191.87631694 0 1430.42202612 0 2274
0.04650000 0.04648670 40220.67158094 0 29.42865856 0 20862.11993794 0 901.55220387 0 -395.84554983 0 2311
0.04750000 0.04749250 39486.90213251 0 1048.11606045 0 18898.40789757 0 332.58649479 0 -217.83725578 0 2568
0.04850000 0.04851840 38828.70654344 0 -232.74112385 0 16910.41995180 0 3700.51576492 0 3277.95024229 0 2493
0.04950000 0.04949480 39042.57617159 0 -488.55863779 0 13928.32818742 0 3735.55655146 0 3841.62358430 0 2644
0.05050000 0.05050630 38445.56465180 0 731.82078526 0 13274.96581028 0 2601.20171012 0 -2248.04770163 0 2829
0.05150000 0.05149060 37728.60159941 0 1287.57864427 0 12669.71586105 0 -1946.00490937 0 3853.91532102 0 2784
0.05250000 0.05249300 35074.94855521 0 1193.08935092 0 12726.72579274 0 -710.28113688 0 2499.16601542 0 3055
0.05350000 0.05348950 34741.45693164 0 437.09591524 0 14649.79491456 0 1032.96943332 0 5693.49070664 0 3009
0.05450000 0.05448610 34270.76799653 0 -72.20137589 0 13951.28594411 0 -372.52090841 0 -2942.26170420 0 3336
0.05550000 0.05550870 34176.74005524 0 753.29342774 0 14735.36473497 0 567.76948913 0 469.89145514 0 3349
0.05650000 0.05647670 34404.99947348 0 -44.41007772 0 13501.35785118 0 259.85324590 0 1251.69204564 0 3324
0.05750000 0.05747970 34505.28862114 0 -723.57576508 0 11451.19722460 0 1065.54198639 0 -1457.70770441 0 3639
0.05850000 0.05849280 33702.97543980 0 778.26685350 0 13616.03678893 0 -1838.24625234 0 -4201.41227463 0 3846
0.05950000 0.05951020 32588.04132280 0 2507.98662720 0 14947.91621442 0 -1187.06980515 0 -1899.06783073 0 3787
0.06050000 0.06049470 31928.19804784 0 -478.20677659 0 13383.27369593 0 1371.44585593 0 -2011.01160990 0 3930
0.06150000 0.06148310 31421.15017748 0 -870.27583036 0 13419.85232263 0 2450.17482170 0 -3441.23591371 0 4083
0.06250000 0.06249100 32637.91128232 0 595.13315788 0 12992.77214066 0 1535.31370969 0 -3227.70680730 0 4303
0.06350000 0.06350600 31945.66351824 0 455.07546364 0 11521.49848912 0 -502.93744329 0 -681.59492559 0 4470
0.06450000 0.06451750 31140.05496512 0 405.49659530 0 12530.76101789 0 -295.53772839 0 -1259.38124645 0 4479
0.06550000 0.06550280 31111.05569351 0 141.98219136 0 12983.87463687 0 -684.66950745 0 -1447.62386678 0 4636
0.06650000 0.06648880 29561.02265656 0 452.23265626 0 12889.84669558 0 923.37745113 0 -3175.82667100 0 4653
0.06750000 0.06749660 29805.64908794 0 356.53505993 0 13398.43240609 0 369.30133018 0 -90.89283444 0 5220
0.06850000 0.06852730 29589.69239099 0 186.17312685 0 11401.98633943 0 1720.22800453 0 181.89024200 0 5029
0.06950000 0.06949320 28838.78700933 0 423.60686011 0 12414.87377716 0 3206.96793427 0 2175.27490828 0 5040
0.07050000 0.07048030 30042.03708989 0 -17.06793872 0 10960.52735196 0 -357.54564061 0 170.37621302 0 5475
0.07150000 0.07148790 28084.80594735 0 808.56450160 0 10461.34443558 0 -580.36659696 0 202.96414450 0 5509
0.07250000 0.07249820 27601.48475377 0 984.86579307 0 11747.34130139 0 -1262.02852844 0 1462.74962322 0 5916
0.07350000 0.07351270 25866.47151455 0 297.43915790 0 12298.43730780 0 -1153.33618275 0 -349.48955508 0 5721
0.07450000 0.07449140 25328.44714951 0 833.08316606 0 13010.34745679 0 1392.18472896 0 -251.62030875 0 6028
0.07550000 0.07549160 25839.33962027 0 -86.27019676 0 10948.33447640 0 1630.80259914 0 -1005.57061393 0 6183
0.07650000 0.07648840 25690.38881607 0 -294.59525206 0 10794.50652197 0 1520.23189154 0 -60.01454184 0 6330
0.07750000 0.07749960 25269.02061185 0 -1.75905847 0 9288.30192961 0 91.25818132 0 -960.52398023 0 6583
0.07850000 0.07848650 25546.27122380 0 735.13592926 0 10257.00941642 0 211.85395909 0 843.62725728 0 6549
0.07950000 0.07947320 24934.43053102 0 -173.52329307 0 9568.49640702 0 -381.84571207 0 -603.41442715 0 6828
0.08050000 0.08048110 24923.88534134 0 483.93632964 0 10696.60102655 0 832.42519016 0 314.06430850 0 7147
0.08150000 0.08149960 24088.83813371 0 366.91218565 0 9202.27075716 0 -205.28738160 0 -415.74629997 0 7386
0.08250000 0.08250610 24680.79675012 0 -105.65280461 0 9980.76938514 0 926.64096765 0 442.55634627 0 7227
0.08350000 0.08350160 23758.97141909 0 300.97948564 0 9422.85195916 0 540.03564027 0 -418.45619403 0 7798
0.08450000 0.08449610 23006.52819727 0 623.37669091 0 8499.99407831 0 -337.23955973 0 919.96783980 0 7371
0.08550000 0.08548940 22668.20336176 0 325.41796272 0 9545.60455776 0 221.34243289 0 978.91435165 0 8256
0.08650000 0.08650700 22505.96122474 0 571.50534226 0 10236.61106513 0 -268.00819258 0 -1931.01096779 0 8037
0.08750000 0.08749060 21876.32552437 0 713.12394427 0 9027.33045423 0 319.76200630 0 -236.70216073 0 8155
0.08850000 0.08849210 21431.01095193 0 -504.58732610 0 9424.08223129 0 707.36583132 0 46.81943387 0 8718
0.08950000 0.08949900 21121.57554231 0 142.51933696 0 8286.55284849 0 192.76496886 0 -919.85140333 0 8571
0.09050000 0.09049190 21187.15344062 0 496.44775781 0 8139.57926735 0 1091.89397602 0 -1763.60608165 0 8932
0.09150000 0.09150830 20222.81781370 0 191.74669898 0 8246.68983459 0 -320.88133425 0 -498.95114191 0 9285
0.09250000 0.09250820 20313.00115460 0 644.86141642 0 7428.33917728 0 397.09888956 0 -963.79848132 0 9204
0.09350000 0.09350330 19611.96573246 0 266.25944863 0 8167.15054453 0 -70.45537807 0 -1026.96197057 0 9349
0.09450000 0.09448040 19111.72829710 0 28.05800359 0 7220.13758857 0 358.29369000 0 -738.01498574 0 9564
0.09550000 0.09549270 18914.77491072 0 492.10006399 0 7166.74158125 0 536.97094452 0 -195.60228396 0 10155
0.09650000 0.09649430 18375.76193415 0 104.38145018 0 6934.07734941 0 124.99784523 0 -402.56481288 0 9913
0.09750000 0.09749140 18417.17377278 0 369.91097396 0 7274.58811486 0 5.95487960 0 -906.80832185 0 10476
0.09850000 0.09850240 17837.51787767 0 242.89526275 0 6905.28678467 0 328.82757405 0 -599.57641749 0 10575
0.09950000 0.09950330 17451.19045998 0 224.07868992 0 7400.54820865 0 -195.47266600 0 -770.59083418 0 10882
0.10050000 0.10051200 17244.46080400 0 362.69630669 0 7166.78551954 0 -89.64279008 0 -404.68922921 0 10875
0.10150000 0.10150300 16696.55032364 0 92.52151701 0 7589.64762564 0 552.18457755 0 478.44624027 0 11118
0.10250000 0.10250800 16834.18701809 0 -138.76700696 0 6893.30261599 0 1.84240941 0 -520.44026125 0 11575
0.10350000 0.10349800 16677.32732162 0 479.66662628 0 7467.60902426 0 263.13323927 0 30.92124228 0 11364
0.10450000 0.10450100 16132.27283014 0 392.94232729 0 7099.50501248 0 366.23663443 0 1287.49076769 0 12093
0.10550000 0.10551000 16181.70340675 0 81.39359576 0 7161.34815612 0 911.28233826 0 424.79648932 0 12067
0.10650000 0.10649700 16053.62329046 0 -128.24708180 0 6867.28016354 0 588.07996383 0 1008.82424433 0 12054
0.10750000 0.10749900 15955.31136585 0 -68.82966133 0 6166.05800367 0 1056.57088597 0 2116.67221356 0 12807
0.10850000 0.10850100 15742.10081205 0 162.76170731 0 5179.35778697 0 256.59961550 0 1777.40270481 0 12736
0.10950000 0.10950300 15806.03102447 0 14.21151047 0 5452.01684759 0 -169.97088229 0 1448.27195656 0 12933
0.11050000 0.11050200 15201.87953250 0 360.93657816 0 4635.12713843 0 213.43134371 0 1112.78114078 0 13428
0.11150000 0.11150900 14941.21562514 0 288.31866729 0 4740.04079116 0 250.17913283 0 954.79882100 0 13453
0.11250000 0.11250000 15134.54410257 0 -14.73624350 0 4351.87894985 0 327.59510501 0 675.83351727 0 13668
0.11350000 0.11349100 14762.27693779 0 -88.49501209 0 4241.47301083 0 203.41011815 0 449.61613107 0 13791
0.11450000 0.11448600 14809.73029134 0 69.34604609 0 3546.43516532 0 174.57012283 0 -60.30332625 0 14205
0.11550000 0.11549300 14407.14570624 0 443.42302905 0 4389.32535778 0 -577.38758088 0 -122.42196296 0 14776
0.11650000 0.11649800 14322.01526873 0 159.89143849 0 3844.97387894 0 -397.09559419 0 -110.44328656 0 14553
0.11750000 0.11747300 14299.27720349 0 83.97112572 0 4817.93239533 0 116.88354147 0 -552.28014333 0 14568
0.11850000 0.11849100 14117.70221872 0 37.39884473 0 4152.71766438 0 -173.18606669 0 -716.48522348 0 16015
0.11950000 0.11950300 13860.33368314 0 171.81848740 0 4724.62943582 0 -34.74947567 0 -803.01509553 0 15270
0.12050000 0.12050700 13952.16470992 0 376.47755145 0 4884.21330629 0 -206.06399088 0 -1214.27859143 0 15999
0.12150000 0.12150000 13709.62534732 0 86.12157549 0 4585.75148468 0 235.73002605 0 -385.50906703 0 15670
0.12250000 0.12250700 13347.13445214 0 -106.02693916 0 5080.89207836 0 796.74070767 0 -144.68549467 0 16887
0.12350000 0.12352200 13311.87397415 0 100.01596135 0 4299.85601410 0 401.05004032 0 216.82447818 0 16407
0.12450000 0.12449800 13148.31368842 0 43.11741322 0 3988.38845856 0 547.80173309 0 798.31260001 0 16306
0.12550000 0.12549900 13055.82358728 0 223.44817545 0 3974.09752963 0 471.05911521 0 879.50287133 0 17523
0.12650000 0.12650100 12871.39261364 0 376.77633183 0 4027.50452152 0 -361.59345560 0 1264.23642753 0 17154
0.12750000 0.12750600 12643.68242403 0 299.86784690 0 4196.01884949 0 -434.93305290 0 1140.83573915 0 18007
0.12850000 0.12850300 12075.99971303 0 68.50770351 0 4616.40942675 0 252.24642939 0 1305.26380612 0 17496
0.12950000 0.12949900 12228.13604328 0 -172.20294744 0 4297.60417672 0 752.82658341 0 1243.34377048 0 18405
0.13050000 0.13049000 12172.11472311 0 -60.88638736 0 3658.86226569 0 267.32934600 0 1519.18835714 0 18100
0.13150000 0.13148800 12532.84808668 0 197.56303016 0 3832.20980560 0 172.43582038 0 1149.32681376 0 19059
0.13250000 0.13249300 12076.76863311 0 170.10599254 0 3653.26013368 0 -414.77416530 0 1700.58758875 0 18957
0.13350000 0.13349100 12026.56913641 0 -69.21214415 0 3977.65653115 0 -31.81264034 0 790.46631981 0 19468
0.13450000 0.13450700 11970.43797052 0 75.62208163 0 3568.43726420 0 4.67743971 0 781.78301519 0 19953
0.13550000 0.13551000 11959.67308939 0 195.08491059 0 3992.51865785 0 -498.71497359 0 -104.97725340 0 19956
0.13650000 0.13649900 11969.77889616 0 78.38898562 0 3724.36327199 0 345.34507584 0 118.45763072 0 19723
0.13750000 0.13749600 11792.04851180 0 -21.66915649 0 3769.54281902 0 356.15828909 0 -161.51825369 0 20946
0.13850000 0.13851100 11553.68328678 0 160.61642028 0 3317.72537961 0 146.90327987 0 -107.67023121 0 20955
0.13950000 0.13949800 11429.22807944 0 154.62653286 0 3580.33355631 0 -240.25676841 0 88.52961349 0 20506
0.14050000 0.14048300 11147.14425555 0 149.96358180 0 2999.43640449 0 415.48047332 0 10.22714236 0 21447
0.14150000 0.14148400 11171.96938958 0 58.27733168 0 3405.86559000 0 204.75572829 0 444.18425993 0 21771
0.14250000 0.14249400 10971.77555429 0 209.25391076 0 3449.18874426 0 -329.89197913 0 -111.55492531 0 22470
0.14350000 0.14350900 10966.00865368 0 323.77027684 0 3392.01404397 0 -161.80275412 0 -260.47826808 0 22519
0.14450000 0.14449900 10547.66120692 0 -126.25887416 0 3582.25585651 0 190.58892503 0 111.32754465 0 22218
0.14550000 0.14550500 10724.66660950 0 -71.76089453 0 3739.95038049 0 -94.57431394 0 -337.55701388 0 23559
0.14650000 0.14650700 10440.89116143 0 319.21607304 0 3469.88367900 0 -92.51404750 0 -214.37162313 0 23044
0.14750000 0.14750500 10276.84755450 0 218.85332874 0 3752.85725327 0 -158.96653748 0 -326.37471899 0 23649
0.14850000 0.14849900 10166.16700117 0 121.21585689 0 3745.55251250 0 458.29504187 0 -80.40838944 0 23640
0.14950000 0.14949500 10066.88843418 0 37.78418354 0 3632.01597030 0 399.37159763 0 -70.50360035 0 24457
0.15050000 0.15050000 9857.99481740 0 107.94078124 0 3534.79151839 0 123.80711756 0 273.54881099 0 24591
0.15150000 0.15149900 9939.01702476 0 71.20771145 0 3245.73249091 0 167.43454449 0 582.60085903 0 25020
0.15250000 0.15250500 9487.02383218 0 105.26614766 0 3189.96381591 0 234.00874353 0 621.33026503 0 25297
0.15350000 0.15350100 9522.72369307 0 260.03449135 0 3116.33422590 0 131.75335737 0 845.12665143 0 25452
0.15450000 0.15450400 9232.32454774 0 86.03622536 0 3249.14869298 0 -125.62835970 0 902.24642886 0 26061
0.15550000 0.15549900 9138.47235960 0 75.26695040 0 3433.20619115 0 29.10549243 0 1116.99921665 0 26128
0.15650000 0.15649500 9063.19508370 0 -55.88730838 0 3120.67313207 0 341.56308750 0 1176.00834056 0 26331
0.15750000 0.15749700 9147.21607938 0 -47.46994026 0 2854.11050924 0 442.71781949 0 1288.54528665 0 27345
0.15850000 0.15849900 9180.41145772 0 169.36892772 0 3037.94831596 0 -169.13935015 0 925.55349496 0 26980
0.15950000 0.15949700 9139.09848024 0 87.70423271 0 2776.80108741 0 12.89577836 0 1375.29045633 0 27777
0.16050000 0.16050000 9071.00511481 0 10.06934898 0 2904.58462025 0 203.77590441 0 783.26593249 0 28224
0.16150000 0.16150500 9107.70457180 0 6.52881253 0 2717.48439547 0 -145.16881586 0 1026.02059270 0 28075
0.16250000 0.16249700 9100.34490818 0 99.00450190 0 2794.91464760 0 -131.36010967 0 625.30668031 0 28590
0.16350000 0.16349900 8758.24137970 0 67.55929551 0 2886.86650468 0 -193.54047968 0 558.14041280 0 29163
0.16450000 0.16449100 8754.77025477 0 37.61436204 0 2817.49892882 0 -98.75625056 0 360.33242667 0 28996
0.16550000 0.16550500 8741.91830485 0 88.58310836 0 2788.63147208 0 455.18970320 0 379.47633977 0 30777
0.16650000 0.16650700 8862.67171123 0 47.63580730 0 2844.63082310 0 133.13192123 0 410.10462350 0 29211
0.16750000 0.16749900 8620.62665440 0 210.24252229 0 2619.97434467 0 -371.50263853 0 -57.06452502 0 30922
0.16850000 0.16850800 8441.46827560 0 212.71954341 0 2972.34844850 0 -103.38152454 0 273.78937313 0 30867
0.16950000 0.16949900 8241.96646838 0 67.60718825 0 3002.32534708 0 82.15131158 0 -22.85603955 0 30852
0.17050000 0.17049200 8150.92633082 0 41.69161570 0 2873.25661925 0 -44.87505468 0 57.33507505 0 31257
0.17150000 0.17149500 7897.96260885 0 4.93857596 0 2879.03450442 0 492.96454985 0 291.13621015 0 32608
0.17250000 0.17250900 8145.00564620 0 102.10281045 0 2471.03452504 0 131.00860335 0 233.28156482 0 32361
0.17350000 0.17350400 8047.91300916 0 46.35083200 0 2505.66888239 0 265.02697958 0 467.73078971 0 32508
0.17450000 0.17449800 8002.45884782 0 34.35458029 0 2401.75482577 0 195.31119278 0 559.30038367 0 32791
0.17550000 0.17549800 7764.67580515 0 78.38316380 0 2355.58666721 0 -226.95664793 0 477.78716591 0 33633
0.17650000 0.17650100 7788.30362077 0 141.10781938 0 2323.97306732 0 205.58176815 0 560.79318708 0 33984
0.17750000 0.17750300 7820.46644929 0 -156.83223503 0 2219.07039917 0 221.93999363 0 673.84860500 0 34069
0.17850000 0.17849800 7855.80381928 0 -64.79568690 0 1974.71858209 0 320.22775218 0 565.36496619 0 34536
