### header ###
fiducial parameters:
Omega_m = 0.31
Omega_nu = 0
Omega_de = 0.69
Omega_k = 0
H_0 = 100
w_de = -1
zeff = 0
beta = 0
fgrowth = 0
b_1 = 2
gamma = 0.55
Lx = 3500 Ly = 3500 Lz = 3500
nx = 700 ny = 700 nz = 700
xoffset = -983.599254 yoffset = -42.9823471 zoffset = 800.977702
bins = 400 dk = 0.001
kx_ny = 0.628318531 ky_ny = 0.628318531 kz_ny = 0.628318531
############################
A(data) = 9.0497082 (not used)
A(ran) = 9.04002656 (used)
Ngal = 502707
weighted Ngal = 0
Nran = 25229228
weighted Nran = 0
SN(data) = 6735.45177
SN(ran) = 134.192966
SN(data+ran) = 6869.64474
############################
13 columns: k_central k_mean P_0(k) sigma^{lin}_{P_0(k)} P^img_1(k) sigma^{lin}_{P_1(k)} P_2(k) sigma^{lin}_{P_2(k)} P^img_3(k) sigma^{lin}_{P_3(k)} P_4(k) sigma^{lin}_{P_4(k)} N_modes
### header ###
0.00050000 0 0 0 0 0 0 0 0 0 0 0 0
0.00150000 0.00179520 24836.33829787 0 -20386.15840799 0 -8028.59114599 0 -16301.87463079 0 -43613.80605132 0 3
0.00250000 0.00253879 28434.88427552 0 -22080.52872866 0 -23462.71749657 0 827.96655215 0 10923.42146578 0 6
0.00350000 0.00331552 26170.41463787 0 -3916.02209439 0 -6396.49236728 0 10743.61499720 0 -29491.92969502 0 7
0.00450000 0.00420575 41031.11334599 0 -8573.46988431 0 3249.71989075 0 -26368.90586442 0 -35547.39502194 0 24
0.00550000 0.00557378 56321.85807068 0 -4927.61335256 0 -3523.35657833 0 -11746.24284413 0 -6928.73884713 0 45
0.00650000 0.00659388 62068.21752515 0 -1070.17967294 0 -19507.61229293 0 15266.46881928 0 40050.74024311 0 40
0.00750000 0.00754703 43207.04732863 0 6053.31235069 0 16083.06194497 0 -5523.02112475 0 13716.76531950 0 57
0.00850000 0.00846663 64954.08443372 0 5901.56048048 0 -540.76831127 0 21589.84787145 0 -217.62415507 0 75
0.00950000 0.00948925 62820.22136407 0 -13918.77160927 0 5518.25382025 0 7211.17417735 0 -6143.47372244 0 112
0.01050000 0.01054430 70707.91339756 0 2584.35137579 0 -1711.38542360 0 -21371.14503136 0 -4.37736316 0 105
0.01150000 0.01145670 54745.02267662 0 7901.13715032 0 5912.00680900 0 -7420.89163707 0 17530.16953684 0 144
0.01250000 0.01249090 69283.10448803 0 -4680.97674439 0 5459.35454207 0 11278.73943507 0 4211.68284999 0 169
0.01350000 0.01339930 72584.95716026 0 -7503.62743775 0 18042.70969349 0 -3566.06459653 0 -8382.72278144 0 180
0.01450000 0.01448870 74748.80811306 0 5384.37384963 0 6293.69873706 0 -2655.69617470 0 -23975.91672757 0 267
0.01550000 0.01550050 69029.47070713 0 3230.48590416 0 14468.32977552 0 -3191.88611611 0 10561.68850611 0 238
0.01650000 0.01653350 68654.78693638 0 -2518.26818714 0 20861.46086358 0 -4292.70505735 0 -4986.04029412 0 315
0.01750000 0.01747870 66493.46243527 0 838.95002627 0 25568.35021469 0 -80.98562873 0 -6337.23059820 0 297
0.01850000 0.01844180 69027.60332979 0 -608.90231962 0 14567.41062020 0 18286.12782189 0 -1271.92562834 0 388
0.01950000 0.01947590 69964.47752525 0 1038.96700995 0 9579.93134708 0 -3067.76044594 0 -3866.13016573 0 399
0.02050000 0.02045430 74839.54068258 0 1377.68509315 0 10501.63584780 0 -4603.71126085 0 -15215.93978540 0 462
0.02150000 0.02154770 70096.84162486 0 -1452.40215585 0 11802.70354720 0 -819.07783601 0 -1433.91512020 0 571
0.02250000 0.02255340 72847.37859923 0 -3110.16089611 0 8875.31495427 0 3849.89496745 0 -14849.38459836 0 510
0.02350000 0.02348930 72575.18089066 0 1466.19877901 0 9331.04290153 0 -7687.87167366 0 -22510.57474522 0 555
0.02450000 0.02439640 72104.16241837 0 6774.04311147 0 10404.41139589 0 -5697.88453568 0 -10006.33048554 0 592
0.02550000 0.02547300 62362.16468743 0 3328.02890869 0 20120.00221434 0 -4430.34175180 0 -13396.78472021 0 837
0.02650000 0.02652900 66099.22612533 0 -1344.79728284 0 20200.18959419 0 5325.50752517 0 -9725.22428861 0 723
0.02750000 0.02749970 57347.59745832 0 2189.75257495 0 22435.55011449 0 3190.23843023 0 -20494.24660219 0 826
0.02850000 0.02848090 61093.66624574 0 2770.45200446 0 18080.93600607 0 -405.31754676 0 -2006.01362938 0 831
0.02950000 0.02946900 57826.74451432 0 1507.61061764 0 20958.67433093 0 -1454.31347148 0 -6803.99804090 0 996
0.03050000 0.03053250 54747.76881977 0 1332.64834557 0 17884.31215686 0 4412.65658994 0 -2953.90535114 0 1041
0.03150000 0.03150510 56040.98254977 0 -667.40725164 0 19396.77795559 0 5220.84651761 0 -3368.03472203 0 1036
0.03250000 0.03246190 52213.40823380 0 185.20758292 0 15144.64990935 0 3450.48492382 0 -934.19615667 0 1059
0.03350000 0.03345080 53585.27150349 0 -36.87674800 0 13612.96110861 0 2512.76491627 0 121.03241453 0 1302
0.03450000 0.03451200 54458.87456088 0 602.95856739 0 13631.52503627 0 198.88337579 0 -1463.36475929 0 1339
0.03550000 0.03553350 50796.83775371 0 3812.94286529 0 14830.27144207 0 -5512.99220999 0 -1689.71286190 0 1365
0.03650000 0.03647120 46945.97614387 0 1506.63299068 0 16959.85052842 0 -3174.10209310 0 -533.71951104 0 1308
0.03750000 0.03744890 46997.05440637 0 867.51321036 0 20588.49423494 0 1617.69800405 0 -3861.07726234 0 1579
0.03850000 0.03847530 46484.95363263 0 -697.19082174 0 21667.17926243 0 2937.76901402 0 1000.45619694 0 1662
0.03950000 0.03950240 48046.19093362 0 -729.17570018 0 14399.23681398 0 5886.95099895 0 -1406.54156532 0 1683
0.04050000 0.04050350 47524.42373600 0 -1073.70681919 0 14227.43809881 0 2442.65038949 0 136.05271908 0 1822
0.04150000 0.04152450 48350.35374840 0 3187.65705567 0 15961.57257222 0 -2619.30428574 0 3081.52411539 0 1887
0.04250000 0.04250150 46159.92012995 0 1063.93054960 0 17796.98480484 0 -3040.12326133 0 5327.26505678 0 1920
0.04350000 0.04349210 43297.12082380 0 596.18328302 0 21041.05862529 0 1233.73226947 0 -3792.00626995 0 2005
0.04450000 0.04448520 43370.05838574 0 2096.92195206 0 21878.19290171 0 -2921.64366147 0 -796.56385605 0 2151
0.04550000 0.04548030 40926.97959792 0 676.72546456 0 22358.98764360 0 -760.71240806 0 -1207.59997130 0 2274
0.04650000 0.04648670 40536.36819693 0 -684.13236185 0 20817.52257326 0 3277.76350456 0 2729.49053330 0 2311
0.04750000 0.04749250 42634.97078860 0 -301.61549240 0 18581.72267005 0 4361.08402167 0 -3696.90184054 0 2568
0.04850000 0.04851840 42559.17723779 0 71.85635046 0 14072.99500831 0 3858.12241232 0 1342.02917055 0 2493
0.04950000 0.04949480 41990.28622380 0 148.98375792 0 14954.94634087 0 2627.86126778 0 -678.23144946 0 2644
0.05050000 0.05050630 40021.96066295 0 1184.13692427 0 14873.55065804 0 -6553.90129237 0 -1037.89930949 0 2829
0.05150000 0.05149060 39170.87597934 0 2671.54691294 0 17197.99606198 0 -538.41541582 0 -2591.39248681 0 2784
0.05250000 0.05249300 36595.10355474 0 931.41046906 0 17385.06333304 0 89.26986384 0 -1779.83029536 0 3055
0.05350000 0.05348950 35992.70959438 0 514.33723272 0 17990.53297372 0 1322.30087820 0 -1861.32483934 0 3009
0.05450000 0.05448610 35242.90266998 0 424.60425930 0 17786.21992371 0 2048.13946523 0 -3897.99641079 0 3336
0.05550000 0.05550870 35042.98344900 0 378.72389655 0 15733.86238261 0 817.68938604 0 -1874.20974297 0 3349
0.05650000 0.05647670 33289.29643639 0 441.71932184 0 17338.59859102 0 810.40990979 0 397.54706012 0 3324
0.05750000 0.05747970 32903.95763024 0 1326.10154031 0 16905.03751124 0 1302.78129272 0 1280.43867209 0 3639
0.05850000 0.05849280 32417.23121916 0 663.81529641 0 16033.08213973 0 843.27025867 0 1939.01872120 0 3846
0.05950000 0.05951020 33711.87294359 0 -1244.73881120 0 14354.52960357 0 4119.13782600 0 586.16315591 0 3787
0.06050000 0.06049470 32248.17864713 0 -535.84502583 0 14392.64607043 0 1163.67266555 0 5327.42982537 0 3930
0.06150000 0.06148310 32329.68417568 0 1098.02007215 0 11445.70493831 0 689.96736681 0 3211.86705364 0 4083
0.06250000 0.06249100 31442.67993974 0 431.97161213 0 12597.10783628 0 317.46293526 0 6063.70375635 0 4303
0.06350000 0.06350600 30611.69702396 0 1022.85813426 0 11251.60754080 0 342.65715093 0 3630.07170096 0 4470
0.06450000 0.06451750 29706.78793471 0 650.05492233 0 12437.50199668 0 509.61166960 0 4485.07787697 0 4479
0.06550000 0.06550280 28561.20686020 0 750.60440437 0 12665.98110637 0 -326.80641270 0 2698.71176093 0 4636
0.06650000 0.06648880 28917.98577764 0 491.06421879 0 11060.58582361 0 1989.06443388 0 2940.58106460 0 4653
0.06750000 0.06749660 28615.14111158 0 -1064.58962395 0 10305.49531979 0 1570.88175571 0 2627.94914436 0 5220
0.06850000 0.06852730 28659.95816771 0 -111.67246023 0 8083.20644086 0 -112.15138760 0 29.28607880 0 5029
0.06950000 0.06949320 28161.69795542 0 706.94402373 0 8606.03914201 0 -1100.10494402 0 215.34595471 0 5040
0.07050000 0.07048030 26965.36815558 0 668.47055827 0 8483.33048171 0 -174.71731611 0 -525.97538737 0 5475
0.07150000 0.07148790 27514.04755602 0 -47.29539540 0 9041.22593854 0 327.42923796 0 -2494.39871092 0 5509
0.07250000 0.07249820 26765.11939743 0 25.39907795 0 7806.36225809 0 1152.71006211 0 -2113.87114755 0 5916
0.07350000 0.07351270 26964.05000687 0 344.51574061 0 6853.42861752 0 653.34590028 0 -2396.43829264 0 5721
0.07450000 0.07449140 27056.97949091 0 -15.90280511 0 6789.58628167 0 139.26570656 0 -1350.72895204 0 6028
0.07550000 0.07549160 26120.43483263 0 655.33300946 0 6423.83296843 0 -26.06441351 0 -2016.82244880 0 6183
0.07650000 0.07648840 25068.88169942 0 284.20164948 0 6652.43290842 0 1572.54042617 0 1391.69042319 0 6330
0.07750000 0.07749960 25762.44761220 0 -67.04027446 0 6524.57248358 0 1017.89091054 0 1054.70021326 0 6583
0.07850000 0.07848650 25984.33597834 0 -256.89839587 0 5067.51286895 0 1712.57175744 0 2273.93833921 0 6549
0.07950000 0.07947320 25211.79098870 0 248.76651679 0 5187.15683351 0 911.63823841 0 2932.66118777 0 6828
0.08050000 0.08048110 25011.43238482 0 41.54727841 0 4351.99978015 0 -56.03779702 0 4115.57882448 0 7147
0.08150000 0.08149960 24490.98333591 0 821.34175642 0 5253.14116100 0 -619.45739541 0 2898.07076871 0 7386
0.08250000 0.08250610 23869.80575644 0 867.19795312 0 5900.35217750 0 -1308.74591563 0 2482.07402048 0 7227
0.08350000 0.08350160 22639.97301023 0 641.61877059 0 7233.03347678 0 -1122.99679328 0 1905.60365141 0 7798
0.08450000 0.08449610 22667.76397886 0 470.34841336 0 7337.52971575 0 429.57367994 0 1163.99121815 0 7371
0.08550000 0.08548940 22431.04643973 0 -310.92491766 0 7665.15557756 0 391.21665094 0 1257.81045257 0 8256
0.08650000 0.08650700 21410.46980120 0 204.95894288 0 6645.79822658 0 502.49915885 0 740.26352774 0 8037
0.08750000 0.08749060 21466.27142991 0 596.30740869 0 6663.64815703 0 -94.55706816 0 569.67421401 0 8155
0.08850000 0.08849210 21619.06683452 0 336.56510698 0 6357.20055115 0 -360.78389261 0 504.14464782 0 8718
0.08950000 0.08949900 20761.61109882 0 350.88239888 0 7411.58770409 0 -35.28156837 0 -505.49245488 0 8571
0.09050000 0.09049190 20040.91329176 0 420.11706140 0 7244.45743227 0 -801.55304892 0 -654.02914069 0 8932
0.09150000 0.09150830 19419.51602083 0 705.52042313 0 7607.17900348 0 -348.63385687 0 -681.28076681 0 9285
0.09250000 0.09250820 19150.94322122 0 79.64957517 0 7940.72554991 0 608.47611820 0 420.49163533 0 9204
0.09350000 0.09350330 19128.42484743 0 164.09523442 0 7328.68713482 0 1340.57920697 0 -1193.04541263 0 9349
0.09450000 0.09448040 18996.28043927 0 -191.55996125 0 6780.07364182 0 601.98862963 0 1222.83557347 0 9564
0.09550000 0.09549270 19019.45788742 0 79.80379857 0 6553.41797117 0 322.34997160 0 -699.02744227 0 10155
0.09650000 0.09649430 18363.67890431 0 418.19146583 0 5574.40695529 0 463.25347793 0 1793.67085681 0 9913
0.09750000 0.09749140 18727.70763966 0 -364.23194994 0 5650.11262952 0 1125.21567694 0 414.97298606 0 10476
0.09850000 0.09850240 18208.46689374 0 419.80619800 0 5761.88065554 0 -810.69550868 0 488.94090091 0 10575
0.09950000 0.09950330 17501.93918531 0 1239.25750948 0 6302.43147226 0 -794.83598279 0 790.99577621 0 10882
0.10050000 0.10051200 16545.51245065 0 333.40594390 0 6895.66429909 0 -621.08311215 0 1284.98628514 0 10875
0.10150000 0.10150300 16342.62739507 0 70.92002549 0 7230.63883996 0 1069.79631136 0 258.36703323 0 11118
0.10250000 0.10250800 16238.27395555 0 -161.21947332 0 5742.62469980 0 1330.73702994 0 940.24316387 0 11575
0.10350000 0.10349800 16487.84344460 0 -320.79565458 0 5494.61502006 0 784.18863658 0 918.60794972 0 11364
0.10450000 0.10450100 16297.48080176 0 250.37685513 0 4903.34843172 0 -81.13095463 0 1026.73898375 0 12093
0.10550000 0.10551000 15715.95752931 0 529.18178411 0 5050.06936769 0 -598.33845616 0 935.88119010 0 12067
0.10650000 0.10649700 15687.72717777 0 218.45239184 0 4739.66731569 0 272.27460057 0 925.28547139 0 12054
0.10750000 0.10749900 15648.07287075 0 -276.04780126 0 4856.38938394 0 804.76164257 0 218.60397894 0 12807
0.10850000 0.10850100 15473.30832098 0 271.54742187 0 4520.90955273 0 -70.54061836 0 958.13483569 0 12736
0.10950000 0.10950300 15117.84755225 0 444.78291913 0 4758.76948741 0 -356.96016289 0 752.63764876 0 12933
0.11050000 0.11050200 14688.35076432 0 193.68327913 0 5359.44985445 0 -483.39369176 0 474.59724603 0 13428
0.11150000 0.11150900 14341.12842502 0 250.95684057 0 5072.00555914 0 77.57590756 0 382.52785403 0 13453
0.11250000 0.11250000 14336.73459599 0 -168.77905617 0 5397.89585848 0 715.48672583 0 894.05083925 0 13668
0.11350000 0.11349100 14580.81179875 0 -25.30823554 0 4948.71471648 0 713.10856587 0 659.78285981 0 13791
0.11450000 0.11448600 14878.27402425 0 -102.75188884 0 4163.39466893 0 401.71131159 0 1064.67310670 0 14205
0.11550000 0.11549300 14733.16782045 0 -60.15393606 0 3678.15117515 0 257.78375242 0 1152.85286156 0 14776
0.11650000 0.11649800 14723.61124231 0 412.28286424 0 4295.11067875 0 -355.38277827 0 758.03217235 0 14553
0.11750000 0.11747300 14158.12544582 0 347.30252668 0 4538.73751403 0 -331.57811103 0 714.00380853 0 14568
0.11850000 0.11849100 13923.05559258 0 299.09013916 0 5128.51020050 0 -639.88760195 0 246.58498068 0 16015
0.11950000 0.11950300 13725.44313184 0 23.93011106 0 4717.88490826 0 242.36360943 0 315.60983786 0 15270
0.12050000 0.12050700 13900.64706451 0 -261.72172169 0 4859.26734195 0 924.29356449 0 283.22402252 0 15999
0.12150000 0.12150000 13757.07870087 0 26.51928466 0 3651.75524723 0 264.12514618 0 -115.79716724 0 15670
0.12250000 0.12250700 13870.87887282 0 243.45986978 0 4026.46098713 0 -166.53161262 0 -283.23171172 0 16887
0.12350000 0.12352200 13649.97911821 0 266.25835017 0 3904.90570694 0 -438.10100363 0 -196.80179928 0 16407
0.12450000 0.12449800 13108.43968995 0 355.99132359 0 4928.45916464 0 -525.90947993 0 -352.58720454 0 16306
0.12550000 0.12549900 13048.90330656 0 58.82029910 0 4321.26494606 0 -78.33658921 0 -920.92020225 0 17523
0.12650000 0.12650100 12687.73056008 0 -12.03568633 0 4596.17584406 0 174.62614415 0 -754.77195121 0 17154
0.12750000 0.12750600 12691.46531476 0 13.74444644 0 4272.08701462 0 751.48097326 0 -814.51813994 0 18007
0.12850000 0.12850300 12911.37645784 0 -91.78456204 0 3994.23225117 0 512.49292298 0 -870.37029768 0 17496
0.12950000 0.12949900 13014.52159438 0 67.98571662 0 3624.06313975 0 -46.63192721 0 -723.04630868 0 18405
0.13050000 0.13049000 12873.91906533 0 71.79033318 0 3209.59324712 0 352.41364830 0 -526.42465639 0 18100
0.13150000 0.13148800 12822.18172848 0 81.79244559 0 3222.18156729 0 27.85511853 0 -685.74709402 0 19059
0.13250000 0.13249300 12260.43068667 0 448.09037394 0 3587.97881882 0 -240.02060010 0 -403.43369257 0 18957
0.13350000 0.13349100 11954.40049455 0 390.56856116 0 3474.17864688 0 -70.77601775 0 -800.46337932 0 19468
0.13450000 0.13450700 11600.47756598 0 144.63606409 0 3808.12063793 0 264.25696105 0 -414.55447385 0 19953
0.13550000 0.13551000 11316.63621048 0 -5.62048724 0 3715.77333624 0 211.24431531 0 -208.32681283 0 19956
0.13650000 0.13649900 11084.64203756 0 158.47772400 0 2941.34998468 0 421.39237028 0 182.07697974 0 19723
0.13750000 0.13749600 11090.68355248 0 -50.33625463 0 3164.05120919 0 374.21033567 0 254.23244011 0 20946
0.13850000 0.13851100 11253.03553523 0 49.59710274 0 2515.54401314 0 345.21545789 0 258.79982539 0 20955
0.13950000 0.13949800 11100.67951353 0 155.49431409 0 2546.91595243 0 69.91263034 0 363.57177713 0 20506
0.14050000 0.14048300 11004.56450344 0 18.38323144 0 2453.96449924 0 -328.11137992 0 364.11221810 0 21447
0.14150000 0.14148400 10875.16623843 0 245.88746032 0 2907.07811823 0 10.54182840 0 107.47569443 0 21771
0.14250000 0.14249400 10657.27625671 0 140.40810211 0 2568.43473011 0 -255.20347633 0 195.84064918 0 22470
0.14350000 0.14350900 10439.19953725 0 81.55902342 0 3158.20741658 0 87.47388622 0 9.38085794 0 22519
0.14450000 0.14449900 10470.12110907 0 57.60979921 0 2814.76377025 0 220.79979500 0 -64.34345204 0 22218
0.14550000 0.14550500 10545.43133869 0 -33.94485573 0 2877.38681854 0 32.98645177 0 -341.60482888 0 23559
0.14650000 0.14650700 10362.87872696 0 126.26326799 0 2736.16915343 0 137.72896485 0 256.00754704 0 23044
0.14750000 0.14750500 10439.48513614 0 -21.91015801 0 2606.84778043 0 -22.72971697 0 -109.43303542 0 23649
0.14850000 0.14849900 10226.76888810 0 165.26728832 0 2639.71362160 0 -283.58871033 0 -363.32572270 0 23640
0.14950000 0.14949500 10172.28540810 0 338.47752106 0 2990.23133267 0 -85.47744015 0 -491.09387714 0 24457
0.15050000 0.15050000 9922.67198076 0 -27.95606676 0 2951.22511543 0 9.20860886 0 -248.82693194 0 24591
0.15150000 0.15149900 9799.21636952 0 -142.14146766 0 2777.85560638 0 681.67730988 0 -180.06460604 0 25020
0.15250000 0.15250500 10108.01467392 0 50.86362396 0 2623.64319191 0 365.86865125 0 205.90361612 0 25297
0.15350000 0.15350100 9721.18196590 0 92.02929832 0 2543.17021318 0 -115.20070495 0 611.87694187 0 25452
0.15450000 0.15450400 9734.51723701 0 142.92137231 0 2496.88122432 0 -146.47378309 0 227.43227992 0 26061
0.15550000 0.15549900 9617.41070872 0 248.18433445 0 2865.25985041 0 -149.46158683 0 632.76520509 0 26128
0.15650000 0.15649500 9595.61731672 0 38.02573429 0 2778.94307906 0 -97.07780787 0 132.78700565 0 26331
0.15750000 0.15749700 9419.15015820 0 161.51935215 0 3142.52144693 0 -172.70274550 0 270.75872956 0 27345
0.15850000 0.15849900 9160.39756648 0 251.42807873 0 3241.42653846 0 -146.20685797 0 -16.03978273 0 26980
0.15950000 0.15949700 9236.25702472 0 -31.73981263 0 3271.52426733 0 312.22878642 0 12.83514352 0 27777
0.16050000 0.16050000 9225.43722073 0 -18.64872856 0 2854.37413898 0 278.57095758 0 130.33415059 0 28224
0.16150000 0.16150500 8968.60692921 0 -73.27522770 0 2933.95736733 0 409.05339990 0 440.84385141 0 28075
0.16250000 0.16249700 9067.64383560 0 128.17348517 0 2809.59003657 0 91.13504426 0 629.87077022 0 28590
0.16350000 0.16349900 8780.50710832 0 269.76462574 0 2628.93775589 0 30.09992579 0 563.88095043 0 29163
0.16450000 0.16449100 8721.62979929 0 29.07100087 0 2825.39683651 0 -368.53131165 0 602.46645854 0 28996
0.16550000 0.16550500 8526.45591366 0 204.38774511 0 2700.63406113 0 200.35970234 0 333.01818849 0 30777
0.16650000 0.16650700 8501.13647386 0 73.96483917 0 2883.32947230 0 44.09130542 0 644.20124361 0 29211
0.16750000 0.16749900 8394.49824324 0 -112.98841203 0 2626.18062817 0 81.47378314 0 352.91564327 0 30922
0.16850000 0.16850800 8440.68837095 0 1.33943681 0 2345.56873701 0 459.80102677 0 403.40073885 0 30867
0.16950000 0.16949900 8379.51528624 0 107.88014640 0 2156.28258229 0 -33.96199166 0 26.00960050 0 30852
0.17050000 0.17049200 8445.03826169 0 123.57204771 0 2336.97880125 0 -104.20141304 0 527.19906876 0 31257
0.17150000 0.17149500 8232.92616514 0 -68.45113296 0 1977.80524699 0 239.01551171 0 239.94480655 0 32608
0.17250000 0.17250900 8263.58410722 0 31.26868431 0 2152.48192018 0 73.31103741 0 -51.87299633 0 32361
0.17350000 0.17350400 8286.64072507 0 155.42840665 0 1815.94757000 0 21.75154078 0 14.68922953 0 32508
0.17450000 0.17449800 8094.33381289 0 148.15771806 0 2135.07137264 0 -192.95939579 0 -152.38787696 0 32791
0.17550000 0.17549800 7889.28479651 0 162.11691290 0 2123.41674113 0 -363.47401443 0 -63.19874974 0 33633
0.17650000 0.17650100 7672.58114862 0 89.33917649 0 2401.22756628 0 131.89286144 0 82.74931171 0 33984
0.17750000 0.17750300 7650.76578748 0 13.91459747 0 2140.05836859 0 127.71433003 0 -301.75279955 0 34069
0.17850000 0.17849800 7717.01374472 0 46.75759072 0 2248.24542394 0 235.69487542 0 -352.45538967 0 34536
