### header ###
fiducial parameters:
Omega_m = 0.31
Omega_nu = 0
Omega_de = 0.69
Omega_k = 0
H_0 = 100
w_de = -1
zeff = 0
beta = 0
fgrowth = 0
b_1 = 2
gamma = 0.55
Lx = 3500 Ly = 3500 Lz = 3500
nx = 700 ny = 700 nz = 700
xoffset = -983.599254 yoffset = -42.9823471 zoffset = 800.977702
bins = 400 dk = 0.001
kx_ny = 0.628318531 ky_ny = 0.628318531 kz_ny = 0.628318531
############################
A(data) = 9.01845653 (not used)
A(ran) = 9.00600144 (used)
Ngal = 500092
weighted Ngal = 0
Nran = 25229228
weighted Nran = 0
SN(data) = 6767.94165
SN(ran) = 133.687887
SN(data+ran) = 6901.62954
############################
13 columns: k_central k_mean P_0(k) sigma^{lin}_{P_0(k)} P^img_1(k) sigma^{lin}_{P_1(k)} P_2(k) sigma^{lin}_{P_2(k)} P^img_3(k) sigma^{lin}_{P_3(k)} P_4(k) sigma^{lin}_{P_4(k)} N_modes
### header ###
0.00050000 0 0 0 0 0 0 0 0 0 0 0 0
0.00150000 0.00179520 61664.20494561 0 -5959.54803914 0 -49390.37308040 0 86376.30772759 0 -106686.34304759 0 3
0.00250000 0.00253879 89043.80133324 0 6492.89297625 0 26317.60791046 0 -25404.35054605 0 50027.47829011 0 6
0.00350000 0.00331552 84722.80001692 0 3389.25691626 0 37685.76176635 0 -87463.12133878 0 2700.80981429 0 7
0.00450000 0.00420575 56178.61924422 0 16919.64699277 0 30356.96478580 0 17242.92296384 0 23174.04292913 0 24
0.00550000 0.00557378 53793.09961672 0 -4169.83162846 0 32160.19222075 0 18747.91925321 0 9007.09687153 0 45
0.00650000 0.00659388 69663.28054507 0 -1925.80428039 0 29638.24420180 0 26407.24202273 0 -691.60736349 0 40
0.00750000 0.00754703 76408.57703010 0 -9146.00777640 0 34705.75707075 0 -5086.23058063 0 -3285.20006019 0 57
0.00850000 0.00846663 68118.41025723 0 13145.67739100 0 23145.70273187 0 -6939.11926822 0 25633.81826727 0 75
0.00950000 0.00948925 66110.97961799 0 1352.37663792 0 30571.05410541 0 22791.66995758 0 24735.17038439 0 112
0.01050000 0.01054430 73374.08885450 0 -1559.34795450 0 37378.30357979 0 22849.55865508 0 24701.99697520 0 105
0.01150000 0.01145670 70703.84910570 0 2591.23870279 0 22723.01637894 0 17573.55859854 0 26483.47495644 0 144
0.01250000 0.01249090 71947.63225909 0 -5210.03769819 0 12615.45207250 0 12317.98984699 0 19703.02783916 0 169
0.01350000 0.01339930 77653.12910356 0 -1653.01340490 0 24241.96307549 0 -1381.92513817 0 28975.76462942 0 180
0.01450000 0.01448870 86232.08028959 0 -3431.23995266 0 20113.30162507 0 -10684.12255210 0 17247.31679287 0 267
0.01550000 0.01550050 77976.62476608 0 3297.37096661 0 28020.10681485 0 -6747.60324527 0 10999.95098296 0 238
0.01650000 0.01653350 80879.40791643 0 6721.15239449 0 39180.87194039 0 9558.33567738 0 24561.94367479 0 315
0.01750000 0.01747870 80512.74288366 0 -8088.61085057 0 26954.16389155 0 17426.80470885 0 30406.17567096 0 297
0.01850000 0.01844180 93065.36320099 0 -6723.64589247 0 27869.06894185 0 29569.48077744 0 27092.56950608 0 388
0.01950000 0.01947590 94911.43046902 0 2402.24913153 0 22910.63287863 0 -12276.02877973 0 12244.72274787 0 399
0.02050000 0.02045430 86274.15120258 0 9884.01726985 0 22171.59083536 0 -7425.53811127 0 27374.98286714 0 462
0.02150000 0.02154770 81214.98660879 0 3855.76072921 0 45643.75506435 0 3673.50470094 0 30472.30279790 0 571
0.02250000 0.02255340 76249.63026485 0 -1613.58977391 0 35999.84956656 0 -184.16844236 0 26873.20759163 0 510
0.02350000 0.02348930 84266.50087189 0 1242.35515895 0 36695.61239386 0 8574.13994324 0 -12011.84980915 0 555
0.02450000 0.02439640 77845.68866091 0 4269.98896126 0 45971.86424736 0 -2894.34699860 0 18830.08385612 0 592
0.02550000 0.02547300 73702.52757468 0 1112.69326420 0 36634.75786176 0 3955.77526257 0 10387.67090727 0 837
0.02650000 0.02652900 79595.64091885 0 -3079.76658378 0 44419.63429589 0 6316.50270974 0 1148.90940000 0 723
0.02750000 0.02749970 67150.23002991 0 3164.20499321 0 29659.33458116 0 2448.28547522 0 -3853.03655521 0 826
0.02850000 0.02848090 73906.51108752 0 3950.41479115 0 36808.09441710 0 195.89007976 0 685.68448196 0 831
0.02950000 0.02946900 69770.81951064 0 2270.54410628 0 34190.03138806 0 -677.64926712 0 -2585.48278676 0 996
0.03050000 0.03053250 64355.53507377 0 1505.38074941 0 30847.42595156 0 4742.19376738 0 -6706.49897467 0 1041
0.03150000 0.03150510 62051.96035773 0 2223.14567559 0 29489.18355187 0 -294.01856200 0 -637.31721197 0 1036
0.03250000 0.03246190 59380.62215168 0 3245.84233663 0 26437.12006015 0 1243.29983219 0 -9885.10474253 0 1059
0.03350000 0.03345080 55540.52542297 0 960.17796619 0 24460.00684123 0 6380.27913815 0 -5247.45115241 0 1302
0.03450000 0.03451200 55356.86336940 0 1761.73870431 0 21263.82575724 0 4017.27788445 0 1908.40471742 0 1339
0.03550000 0.03553350 54112.09160449 0 312.90873147 0 21982.87587841 0 1805.09481229 0 126.34455383 0 1365
0.03650000 0.03647120 50900.20258170 0 -237.50732990 0 19229.04353227 0 2396.25155490 0 -2274.01523122 0 1308
0.03750000 0.03744890 51748.32143071 0 1733.44244534 0 18445.95335295 0 1320.99371406 0 -1632.62603819 0 1579
0.03850000 0.03847530 47174.01587066 0 2749.81199258 0 21619.94560033 0 -2629.33320051 0 4396.50926825 0 1662
0.03950000 0.03950240 43674.99012060 0 1599.80413532 0 21655.64546121 0 1361.02149655 0 2879.57274848 0 1683
0.04050000 0.04050350 46718.04626281 0 -1158.41105528 0 18777.02837055 0 4100.15648458 0 8618.26497130 0 1822
0.04150000 0.04152450 45259.84425263 0 946.04741203 0 20806.86753785 0 4812.01171071 0 1878.23009654 0 1887
0.04250000 0.04250150 43502.20279389 0 931.67409880 0 18113.99956954 0 950.68949240 0 9404.05735548 0 1920
0.04350000 0.04349210 45981.97005413 0 -37.53505343 0 17704.05532080 0 -98.30390587 0 75.76169555 0 2005
0.04450000 0.04448520 41344.39335601 0 2275.95950056 0 18134.32102881 0 374.92872672 0 7671.43875308 0 2151
0.04550000 0.04548030 41250.91464335 0 1432.37728003 0 19350.20336784 0 -3349.74540868 0 -1721.93061328 0 2274
0.04650000 0.04648670 40457.16942862 0 207.91049753 0 18618.52098820 0 1688.43865148 0 1346.29118471 0 2311
0.04750000 0.04749250 38403.05435591 0 -66.09450276 0 18193.74756648 0 1458.99289940 0 -2702.50143847 0 2568
0.04850000 0.04851840 37587.88922465 0 -24.16309384 0 15367.74657848 0 927.40219853 0 -2121.92283926 0 2493
0.04950000 0.04949480 37937.96755281 0 1232.56790478 0 16672.71380114 0 1087.28155399 0 -2828.90091516 0 2644
0.05050000 0.05050630 37563.50347352 0 1780.37952398 0 14035.42777009 0 54.31882126 0 -3632.32353834 0 2829
0.05150000 0.05149060 35669.76316049 0 -448.97243512 0 18210.22442535 0 -1245.29902440 0 -4221.95342536 0 2784
0.05250000 0.05249300 34929.84235141 0 1717.09740134 0 14936.49225893 0 97.61187779 0 -4734.80115003 0 3055
0.05350000 0.05348950 34048.22055603 0 -476.45363880 0 16177.30957772 0 625.64170977 0 -2815.01641542 0 3009
0.05450000 0.05448610 33832.04416763 0 -337.90961866 0 14455.80736277 0 2811.17181502 0 -3588.07767998 0 3336
0.05550000 0.05550870 34477.93703542 0 246.91451786 0 14589.70930254 0 3944.72478255 0 1927.84741089 0 3349
0.05650000 0.05647670 34490.67913961 0 509.09759160 0 12477.37599515 0 1076.03664704 0 641.93952011 0 3324
0.05750000 0.05747970 33661.78329262 0 844.95639056 0 15643.67904172 0 -1742.05435025 0 2046.28307246 0 3639
0.05850000 0.05849280 31939.40231187 0 1249.42922369 0 13419.30309400 0 825.20832597 0 3251.81794412 0 3846
0.05950000 0.05951020 32594.85175780 0 -1459.20160628 0 14037.51483888 0 2743.84736967 0 4475.41145310 0 3787
0.06050000 0.06049470 33137.48964332 0 -1130.18070375 0 10893.99379584 0 2501.11028476 0 3021.73508683 0 3930
0.06150000 0.06148310 34286.25624387 0 996.88730930 0 11727.45922502 0 -272.94136413 0 2365.87921171 0 4083
0.06250000 0.06249100 33373.76779954 0 641.96258771 0 11175.37460708 0 -575.01820857 0 4153.09113984 0 4303
0.06350000 0.06350600 31786.16752436 0 249.77050673 0 11878.27740656 0 -968.51196141 0 2343.96498942 0 4470
0.06450000 0.06451750 31534.07158362 0 1258.29377377 0 12084.01845101 0 60.13119800 0 264.24158265 0 4479
0.06550000 0.06550280 30048.73767917 0 1225.23021030 0 13285.29130851 0 987.54163495 0 5959.30637854 0 4636
0.06650000 0.06648880 29738.53334947 0 -494.36068902 0 11043.44989038 0 2035.40834561 0 3380.48024276 0 4653
0.06750000 0.06749660 29936.47534739 0 -840.76028383 0 10860.69955634 0 3297.39293576 0 3763.88576414 0 5220
0.06850000 0.06852730 30266.89129063 0 169.99394990 0 9796.50318009 0 -941.27461524 0 3821.13735644 0 5029
0.06950000 0.06949320 28945.11767192 0 1482.87336019 0 9449.33576366 0 -1508.59922918 0 5697.40121448 0 5040
0.07050000 0.07048030 28697.41556021 0 110.47294491 0 9703.03545200 0 310.94139452 0 2022.17193564 0 5475
0.07150000 0.07148790 29728.64723415 0 -26.96998168 0 11555.33097267 0 1300.04613415 0 898.91480799 0 5509
0.07250000 0.07249820 27884.22765201 0 1014.90090988 0 10151.06321387 0 -2645.55741421 0 -1018.33578573 0 5916
0.07350000 0.07351270 27306.65882569 0 1104.98209425 0 12488.79995063 0 -660.08713247 0 564.28737962 0 5721
0.07450000 0.07449140 26730.84753097 0 -574.07243687 0 10988.41718175 0 560.69322747 0 -419.01201340 0 6028
0.07550000 0.07549160 27236.46740689 0 -597.44101658 0 11121.33050998 0 2234.37190877 0 -3519.77560767 0 6183
0.07650000 0.07648840 27065.87699470 0 468.91163127 0 9247.47227333 0 262.76086226 0 -836.06547751 0 6330
0.07750000 0.07749960 26616.05874750 0 1052.11444487 0 9745.51279417 0 -523.41927733 0 -2300.20245225 0 6583
0.07850000 0.07848650 25234.41920822 0 385.27948946 0 9859.41182726 0 -609.16045707 0 -1581.88829744 0 6549
0.07950000 0.07947320 25026.70094070 0 333.37079327 0 9900.17557611 0 1726.30247317 0 -1599.12309182 0 6828
0.08050000 0.08048110 24631.80555640 0 -126.83995805 0 8308.71971596 0 1535.17091025 0 -1396.50166598 0 7147
0.08150000 0.08149960 24781.08589778 0 196.64801527 0 7186.75547250 0 1113.62695287 0 -691.69743699 0 7386
0.08250000 0.08250610 24135.85210436 0 637.82250231 0 7577.65247238 0 341.15336295 0 -98.27413767 0 7227
0.08350000 0.08350160 22644.36683926 0 614.35396299 0 7206.18718139 0 -725.16413427 0 265.45647637 0 7798
0.08450000 0.08449610 22376.12357683 0 1033.84929758 0 8055.70107112 0 -543.75281964 0 -336.41022450 0 7371
0.08550000 0.08548940 21196.16079014 0 511.03527020 0 8885.57454506 0 -697.10074824 0 812.92318000 0 8256
0.08650000 0.08650700 20588.93361784 0 278.14255925 0 8691.81766930 0 365.02503608 0 -1387.90074565 0 8037
0.08750000 0.08749060 20173.38723709 0 473.88983956 0 9587.73039361 0 216.56634073 0 -75.21773952 0 8155
0.08850000 0.08849210 19951.16933377 0 102.45409708 0 9515.83636606 0 109.85121810 0 -852.19742080 0 8718
0.08950000 0.08949900 20014.77000901 0 -13.65602063 0 8262.81518714 0 827.63152268 0 -113.84411023 0 8571
0.09050000 0.09049190 19888.44742433 0 -132.37728109 0 7912.14369205 0 732.86651657 0 -30.28765213 0 8932
0.09150000 0.09150830 19974.78616482 0 45.08947353 0 7828.93555475 0 742.28468910 0 298.49587378 0 9285
0.09250000 0.09250820 19707.64135964 0 343.41728335 0 7167.36770189 0 -116.44415856 0 -392.84456460 0 9204
0.09350000 0.09350330 19873.28871417 0 356.50430313 0 7189.29290876 0 439.63554842 0 203.27390945 0 9349
0.09450000 0.09448040 19127.32639017 0 -40.64797145 0 7194.96094822 0 316.35239497 0 -9.26276280 0 9564
0.09550000 0.09549270 18081.81477187 0 631.84799328 0 7034.35551250 0 -10.75151290 0 270.01507399 0 10155
0.09650000 0.09649430 17645.06816604 0 530.57682482 0 7025.06256410 0 261.69975255 0 1928.78109956 0 9913
0.09750000 0.09749140 17440.31573312 0 272.85897984 0 6939.55865113 0 836.34009183 0 673.26971803 0 10476
0.09850000 0.09850240 17141.75505036 0 115.69720763 0 6438.00306706 0 1175.15154390 0 2397.89924079 0 10575
0.09950000 0.09950330 17167.12941303 0 -127.10248934 0 5140.64815320 0 541.72177217 0 1102.47761170 0 10882
0.10050000 0.10051200 16867.79981018 0 57.17052615 0 5173.38217949 0 342.82851026 0 2844.41113165 0 10875
0.10150000 0.10150300 16900.64368220 0 311.64880099 0 4842.18633159 0 -299.86564998 0 1820.60502878 0 11118
0.10250000 0.10250800 16198.61964853 0 120.35686332 0 4747.22470162 0 577.36341482 0 1462.36516318 0 11575
0.10350000 0.10349800 16400.73578403 0 141.83499808 0 4788.63654026 0 719.83222274 0 3001.34772012 0 11364
0.10450000 0.10450100 16443.68546282 0 -130.20123726 0 4579.83080006 0 271.02675313 0 1876.96687069 0 12093
0.10550000 0.10551000 15953.99321714 0 247.84161578 0 3988.98162548 0 112.69073011 0 1986.80161193 0 12067
0.10650000 0.10649700 15861.83265319 0 481.04628860 0 4153.89301364 0 -603.46056236 0 1770.01008747 0 12054
0.10750000 0.10749900 15633.35354349 0 121.55308327 0 4652.81230029 0 -92.47384397 0 2382.85037635 0 12807
0.10850000 0.10850100 15231.09849556 0 -27.86511450 0 4911.80655261 0 519.61531985 0 1023.55455616 0 12736
0.10950000 0.10950300 15316.33877880 0 9.89151973 0 4773.03844719 0 -569.94992678 0 926.86065910 0 12933
0.11050000 0.11050200 14956.59402676 0 452.64238082 0 4640.78419331 0 -355.93420381 0 913.20463846 0 13428
0.11150000 0.11150900 14868.71744611 0 183.19081540 0 4995.04764363 0 -61.01325917 0 480.80133263 0 13453
0.11250000 0.11250000 14265.44471994 0 112.29967933 0 5152.72019846 0 368.38082300 0 696.96673646 0 13668
0.11350000 0.11349100 14705.81623472 0 499.35317726 0 5041.50140108 0 -23.96899645 0 -895.96654871 0 13791
0.11450000 0.11448600 13889.22310903 0 -109.29913348 0 4842.29617732 0 -112.75444063 0 620.50422518 0 14205
0.11550000 0.11549300 14063.76796735 0 -193.69206678 0 4143.96296003 0 1316.92942220 0 694.96315042 0 14776
0.11650000 0.11649800 14361.01050140 0 -78.45906719 0 3672.59298142 0 461.16201531 0 467.36280653 0 14553
0.11750000 0.11747300 14166.47372098 0 98.76734498 0 3168.97229771 0 485.03918073 0 1056.33142228 0 14568
0.11850000 0.11849100 14463.16702640 0 9.56599192 0 3252.04862014 0 35.34110475 0 575.77504562 0 16015
0.11950000 0.11950300 14090.24078727 0 -85.33914438 0 3292.97713758 0 -457.40638995 0 1075.68623917 0 15270
0.12050000 0.12050700 13985.77750202 0 304.37591549 0 3728.30673355 0 30.14342469 0 451.87236228 0 15999
0.12150000 0.12150000 13966.99388290 0 177.21520791 0 3502.79345846 0 -321.18560691 0 1092.64971461 0 15670
0.12250000 0.12250700 13692.70910555 0 175.95747435 0 3946.68003647 0 -253.91388750 0 106.12206555 0 16887
0.12350000 0.12352200 13274.85596455 0 410.90100501 0 4573.74534685 0 -356.80308350 0 419.59968803 0 16407
0.12450000 0.12449800 13127.77253769 0 324.34696690 0 4739.71125398 0 -247.78669292 0 102.02910396 0 16306
0.12550000 0.12549900 12770.22470017 0 149.27924292 0 4841.05492061 0 246.83103510 0 294.38874209 0 17523
0.12650000 0.12650100 12938.83788929 0 32.30650673 0 4911.24633941 0 -39.13935026 0 -518.58167157 0 17154
0.12750000 0.12750600 12532.73824096 0 59.49552078 0 4775.49899145 0 -44.36668866 0 531.99053932 0 18007
0.12850000 0.12850300 12634.23569161 0 -128.55245292 0 4381.78994099 0 1082.33520096 0 616.27626319 0 17496
0.12950000 0.12949900 12605.01672854 0 -277.01224673 0 3878.34501044 0 587.26381009 0 721.38214593 0 18405
0.13050000 0.13049000 13095.25820285 0 41.94524948 0 3422.69395519 0 327.24469714 0 -115.12161602 0 18100
0.13150000 0.13148800 12898.96389082 0 296.18252280 0 3136.17236398 0 43.41454590 0 406.38854259 0 19059
0.13250000 0.13249300 12652.47008209 0 171.38789216 0 3715.56462936 0 -388.46501551 0 903.48988247 0 18957
0.13350000 0.13349100 12213.19702457 0 81.11700422 0 2946.67750238 0 430.52384547 0 978.67928179 0 19468
0.13450000 0.13450700 12745.17987468 0 -39.95396616 0 3408.39204169 0 482.86093999 0 -109.88856565 0 19953
0.13550000 0.13551000 12241.75691328 0 76.34102191 0 2947.22673101 0 -336.32124947 0 215.60519063 0 19956
0.13650000 0.13649900 12000.09631649 0 504.33577938 0 3314.36410040 0 -365.60282460 0 164.59722939 0 19723
0.13750000 0.13749600 11690.66090687 0 141.63398041 0 3275.94006551 0 -189.82110341 0 907.94742203 0 20946
0.13850000 0.13851100 11434.39082855 0 -187.34298383 0 3431.61342813 0 691.74576911 0 147.14164510 0 20955
0.13950000 0.13949800 11690.77075260 0 -44.21576063 0 2944.59043359 0 308.58630216 0 -181.59585546 0 20506
0.14050000 0.14048300 11803.91185019 0 264.45688027 0 2387.62866543 0 -190.91187146 0 -128.23829414 0 21447
0.14150000 0.14148400 11621.23840816 0 128.80180272 0 2936.14329728 0 -128.57002824 0 -197.23568990 0 21771
0.14250000 0.14249400 11345.52563637 0 -6.30504580 0 2870.30176922 0 20.62045934 0 -336.83752438 0 22470
0.14350000 0.14350900 10737.68332800 0 245.21190911 0 2799.34143035 0 81.68644446 0 -227.60803309 0 22519
0.14450000 0.14449900 11115.61853224 0 255.14635655 0 2906.04556840 0 19.17653728 0 -37.60436608 0 22218
0.14550000 0.14550500 10686.46226606 0 91.61583900 0 3056.13876815 0 6.76134495 0 -393.72333040 0 23559
0.14650000 0.14650700 10649.97151594 0 261.28673262 0 3198.61965911 0 -106.22466146 0 -248.36887526 0 23044
0.14750000 0.14750500 10342.95271229 0 197.47405512 0 3162.99669023 0 -201.32524627 0 -344.28726150 0 23649
0.14850000 0.14849900 10000.84918382 0 8.35661245 0 3390.16863578 0 70.64925578 0 324.33598232 0 23640
0.14950000 0.14949500 9938.21515096 0 -19.52343008 0 2927.77305297 0 546.64615605 0 -39.89640700 0 24457
0.15050000 0.15050000 10133.50986689 0 56.08206485 0 2817.82846600 0 253.16803503 0 393.14224652 0 24591
0.15150000 0.15149900 10080.20173615 0 161.01735718 0 2573.26794205 0 202.85320032 0 -164.30723667 0 25020
0.15250000 0.15250500 9921.82616867 0 166.60191388 0 2770.52889647 0 87.42994793 0 876.45355398 0 25297
0.15350000 0.15350100 9730.78248234 0 -49.48736686 0 2495.69489048 0 -85.07738202 0 587.33520981 0 25452
0.15450000 0.15450400 9380.23181755 0 234.56785827 0 2552.62793017 0 97.04166863 0 756.80519559 0 26061
0.15550000 0.15549900 9329.45013850 0 135.98461473 0 2500.38530297 0 265.10606851 0 758.38367867 0 26128
0.15650000 0.15649500 9334.29433501 0 -61.67980304 0 2412.30001544 0 208.78047568 0 675.40511894 0 26331
0.15750000 0.15749700 9300.71449663 0 164.60162322 0 2513.50088264 0 109.58275515 0 454.62180080 0 27345
0.15850000 0.15849900 9261.04920504 0 88.64539089 0 2018.07469007 0 -283.81499253 0 721.95224525 0 26980
0.15950000 0.15949700 9049.50830627 0 61.01281979 0 2457.50153162 0 201.47793183 0 841.66870799 0 27777
0.16050000 0.16050000 9051.15599216 0 -8.44710336 0 2221.31125197 0 10.57256323 0 391.04639007 0 28224
0.16150000 0.16150500 8981.83235459 0 169.11738101 0 2438.66298964 0 -247.40333134 0 325.56625445 0 28075
0.16250000 0.16249700 8712.04026742 0 98.33389375 0 2494.47560292 0 -105.03228611 0 429.74284236 0 28590
0.16350000 0.16349900 8475.39962030 0 50.45016464 0 2738.27819137 0 -9.84137516 0 277.03751125 0 29163
0.16450000 0.16449100 8758.52697859 0 129.21152727 0 2599.42220937 0 130.28252310 0 412.00385609 0 28996
0.16550000 0.16550500 8546.07436029 0 32.20621758 0 2506.86620080 0 154.65289583 0 133.05722614 0 30777
0.16650000 0.16650700 8620.01151834 0 44.71358146 0 2744.15493770 0 -91.55256787 0 220.96895742 0 29211
0.16750000 0.16749900 8505.29962687 0 91.98997355 0 2338.06627394 0 -84.07767607 0 -117.02194708 0 30922
0.16850000 0.16850800 8485.82397968 0 57.56794798 0 2386.17870185 0 291.00219837 0 -161.87525230 0 30867
0.16950000 0.16949900 8430.47271845 0 -77.22440124 0 2085.97033320 0 100.22686514 0 -177.13392207 0 30852
0.17050000 0.17049200 8243.01000277 0 56.47630116 0 2138.03720723 0 116.22556557 0 -145.38740886 0 31257
0.17150000 0.17149500 8431.92268203 0 56.97104631 0 1895.57473664 0 -26.27301055 0 -80.18067925 0 32608
0.17250000 0.17250900 8235.59541628 0 48.95208863 0 1922.25626344 0 -105.07556532 0 -558.85770539 0 32361
0.17350000 0.17350400 8130.54994869 0 178.31256671 0 2055.59799001 0 31.32426625 0 -445.22779432 0 32508
0.17450000 0.17449800 8028.41539282 0 101.90816382 0 2182.63457191 0 -288.05064372 0 -527.58243034 0 32791
0.17550000 0.17549800 7954.96155597 0 69.74797160 0 2193.05893129 0 209.10012674 0 -216.26756035 0 33633
0.17650000 0.17650100 7905.36621077 0 37.44530947 0 2103.74337163 0 96.93171306 0 -268.69582683 0 33984
0.17750000 0.17750300 8040.10297805 0 2.48341414 0 1997.23695588 0 99.42982455 0 -356.76683441 0 34069
0.17850000 0.17849800 7863.98732585 0 121.90239268 0 2248.48708454 0 -103.78817342 0 -395.16121096 0 34536
