### header ###
fiducial parameters:
Omega_m = 0.31
Omega_nu = 0
Omega_de = 0.69
Omega_k = 0
H_0 = 100
w_de = -1
zeff = 0
beta = 0
fgrowth = 0
b_1 = 2
gamma = 0.55
Lx = 3500 Ly = 3500 Lz = 3500
nx = 700 ny = 700 nz = 700
xoffset = -983.599254 yoffset = -42.9823471 zoffset = 800.977702
bins = 400 dk = 0.001
kx_ny = 0.628318531 ky_ny = 0.628318531 kz_ny = 0.628318531
############################
A(data) = 9.01781656 (not used)
A(ran) = 9.02354294 (used)
Ngal = 501502
weighted Ngal = 0
Nran = 25229228
weighted Nran = 0
SN(data) = 6721.33224
SN(ran) = 133.948278
SN(data+ran) = 6855.28052
############################
13 columns: k_central k_mean P_0(k) sigma^{lin}_{P_0(k)} P^img_1(k) sigma^{lin}_{P_1(k)} P_2(k) sigma^{lin}_{P_2(k)} P^img_3(k) sigma^{lin}_{P_3(k)} P_4(k) sigma^{lin}_{P_4(k)} N_modes
### header ###
0.00050000 0 0 0 0 0 0 0 0 0 0 0 0
0.00150000 0.00179520 55838.64672282 0 -45641.00892121 0 -30618.50745896 0 -9139.46097114 0 -25720.15700776 0 3
0.00250000 0.00253879 54050.79768948 0 -11123.85696167 0 -30630.37079735 0 12222.31421981 0 27085.64922535 0 6
0.00350000 0.00331552 64005.01736270 0 2635.39668457 0 -15568.32487381 0 16238.71333845 0 118703.68514303 0 7
0.00450000 0.00420575 55408.27116909 0 -11914.96587898 0 -8426.01298198 0 -31783.75091839 0 1081.28397736 0 24
0.00550000 0.00557378 72784.65668979 0 -16956.88469382 0 -7033.94908332 0 -9685.62490445 0 -22589.88335926 0 45
0.00650000 0.00659388 81849.23582964 0 9165.92280649 0 3825.56413919 0 -16097.78127223 0 -4300.82265649 0 40
0.00750000 0.00754703 81282.43188444 0 13655.58125022 0 14640.89741077 0 -23886.83184394 0 11699.11902776 0 57
0.00850000 0.00846663 76325.20412421 0 10099.11717013 0 50406.33619845 0 -8312.89385354 0 -19664.25229794 0 75
0.00950000 0.00948925 67760.42303681 0 7421.25412796 0 45441.85862031 0 9928.39494307 0 2317.26149347 0 112
0.01050000 0.01054430 61192.41755324 0 -113.62991107 0 51544.99699223 0 14975.15795442 0 10400.81944065 0 105
0.01150000 0.01145670 60775.44317806 0 352.45429122 0 47579.01706173 0 29855.07966456 0 26767.75569485 0 144
0.01250000 0.01249090 65325.58267843 0 -6627.49792866 0 30488.99934823 0 14408.57370067 0 27469.88957425 0 169
0.01350000 0.01339930 71861.84274723 0 -2443.95755362 0 27640.15044926 0 33411.22519204 0 13118.87503390 0 180
0.01450000 0.01448870 78406.56093692 0 -4081.75732550 0 17260.60812569 0 -2487.32464617 0 30295.01179644 0 267
0.01550000 0.01550050 76903.76156206 0 2927.20185519 0 3758.94270648 0 -1302.94606131 0 7650.17262056 0 238
0.01650000 0.01653350 77785.71289462 0 4579.16074113 0 33322.35999986 0 -13262.22370608 0 -4146.43448886 0 315
0.01750000 0.01747870 73327.62411248 0 2538.27109381 0 20574.10444486 0 -20040.69360031 0 5333.19672598 0 297
0.01850000 0.01844180 73315.32139119 0 1383.19934859 0 47569.68017504 0 -30.03819249 0 -12155.41817279 0 388
0.01950000 0.01947590 66997.32477958 0 2993.52670444 0 38774.11321771 0 5930.29612235 0 -10530.96465660 0 399
0.02050000 0.02045430 74812.51863403 0 -399.61215977 0 43417.84127647 0 12762.75519081 0 -8865.02240976 0 462
0.02150000 0.02154770 78713.25020339 0 -1139.78122019 0 33624.54559157 0 4873.00904225 0 -9275.40604140 0 571
0.02250000 0.02255340 67958.14534327 0 -1462.71666950 0 36005.34185285 0 6387.96833895 0 9526.04103399 0 510
0.02350000 0.02348930 74871.83532597 0 3868.17329623 0 28928.75065877 0 4311.13717014 0 2239.26004357 0 555
0.02450000 0.02439640 66359.45064978 0 -686.39188843 0 21565.13258314 0 -2675.72105052 0 5350.08001403 0 592
0.02550000 0.02547300 68683.78620799 0 3751.38532054 0 28110.50984719 0 8025.24085135 0 -2099.19575859 0 837
0.02650000 0.02652900 66152.61114807 0 958.57531705 0 23281.69174043 0 7203.16642393 0 13907.45749951 0 723
0.02750000 0.02749970 64946.06569574 0 904.31702079 0 24395.41755445 0 2846.92659877 0 3381.60066917 0 826
0.02850000 0.02848090 62060.85786152 0 710.62495400 0 20502.70472308 0 6366.74614473 0 10810.54399794 0 831
0.02950000 0.02946900 59956.43344639 0 -471.45785519 0 12795.48921710 0 3764.47893106 0 13990.83040541 0 996
0.03050000 0.03053250 59108.97367174 0 2630.43165776 0 18029.30851494 0 1774.90920684 0 7646.88823336 0 1041
0.03150000 0.03150510 57359.68048816 0 3368.29835177 0 14724.05062521 0 -3851.24606988 0 11841.69877987 0 1036
0.03250000 0.03246190 57819.27500496 0 -883.69348577 0 18978.92481459 0 -818.27486376 0 -2179.53692244 0 1059
0.03350000 0.03345080 54000.15880988 0 2216.32425602 0 21592.81370605 0 -3937.63973323 0 1593.38914493 0 1302
0.03450000 0.03451200 51770.51026732 0 2729.47954873 0 23038.82284066 0 -3246.25975039 0 164.83010233 0 1339
0.03550000 0.03553350 51110.99652954 0 -1380.05776083 0 22956.54839202 0 2638.30759630 0 2275.04778104 0 1365
0.03650000 0.03647120 51938.90376499 0 504.95091545 0 25855.92632487 0 4958.28227920 0 -9846.68070764 0 1308
0.03750000 0.03744890 51038.05896760 0 2163.34566246 0 25017.91328264 0 -1817.71608619 0 1894.11378849 0 1579
0.03850000 0.03847530 46906.76121976 0 2855.46161167 0 26275.86653465 0 -1530.34868289 0 3331.67578678 0 1662
0.03950000 0.03950240 47184.12167743 0 1556.20636674 0 28400.06318043 0 1596.99208474 0 4255.17077284 0 1683
0.04050000 0.04050350 43403.78102356 0 -191.31061145 0 28353.26890124 0 3477.41909579 0 4565.93531574 0 1822
0.04150000 0.04152450 44743.89887849 0 303.47847591 0 24478.79046035 0 6425.82117607 0 3532.26506669 0 1887
0.04250000 0.04250150 46130.59132116 0 -1513.83887030 0 22474.43550143 0 3687.15852466 0 4569.05493435 0 1920
0.04350000 0.04349210 45853.12101775 0 1092.25207308 0 22691.49065564 0 -723.34179368 0 3154.17607844 0 2005
0.04450000 0.04448520 45035.31958907 0 1874.40746528 0 21186.60421199 0 -1792.98981331 0 2427.89810851 0 2151
0.04550000 0.04548030 43395.21305695 0 -1301.58397431 0 20052.77663015 0 1296.38827148 0 1050.35251943 0 2274
0.04650000 0.04648670 42130.66906139 0 1088.76337283 0 20031.57640506 0 136.71069498 0 -2393.97774838 0 2311
0.04750000 0.04749250 42761.62291046 0 737.88756469 0 19508.38121301 0 1719.99732850 0 -1062.02472625 0 2568
0.04850000 0.04851840 42601.68753368 0 -567.66623414 0 16211.80113563 0 4781.89201269 0 -1177.28255098 0 2493
0.04950000 0.04949480 41854.29721524 0 -30.49756731 0 16273.86397071 0 1374.98288830 0 986.10704977 0 2644
0.05050000 0.05050630 40937.96417050 0 290.63311673 0 13265.29938641 0 390.22913787 0 -1242.33318980 0 2829
0.05150000 0.05149060 41941.29503008 0 1621.43275873 0 13939.64229718 0 -37.60722207 0 1829.65631658 0 2784
0.05250000 0.05249300 40333.70283281 0 716.52696485 0 13747.96150563 0 1020.72932409 0 -3844.99584808 0 3055
0.05350000 0.05348950 37837.78825087 0 2129.78779322 0 15043.48199588 0 -2709.23498146 0 2629.46501538 0 3009
0.05450000 0.05448610 35452.15877766 0 606.02436160 0 15837.88628496 0 -271.83741459 0 -2939.42768448 0 3336
0.05550000 0.05550870 33624.87512875 0 1777.62239627 0 17305.09564465 0 185.29106567 0 -598.05066036 0 3349
0.05650000 0.05647670 34254.51082911 0 919.96564289 0 17151.53131996 0 1632.47225418 0 -571.51852375 0 3324
0.05750000 0.05747970 32680.09204103 0 -583.92230311 0 16502.12338895 0 2371.65709689 0 2323.02839408 0 3639
0.05850000 0.05849280 32728.53400611 0 486.25517292 0 15983.32202594 0 1017.77667098 0 1508.02803140 0 3846
0.05950000 0.05951020 31443.22916837 0 721.13718997 0 15609.18748381 0 275.83579900 0 2572.74068257 0 3787
0.06050000 0.06049470 32069.67934268 0 97.27366280 0 17009.94017939 0 2.46740962 0 4129.24363277 0 3930
0.06150000 0.06148310 31175.42528884 0 847.04345935 0 16204.88085490 0 757.77183798 0 734.96017610 0 4083
0.06250000 0.06249100 31689.39343992 0 -6.60411177 0 16170.16960554 0 -448.89883848 0 1019.59461774 0 4303
0.06350000 0.06350600 31359.85626248 0 -407.72756199 0 15154.09664177 0 1260.13918196 0 2982.19062554 0 4470
0.06450000 0.06451750 31745.74429726 0 -1331.73662604 0 12781.64865565 0 4300.37228902 0 455.79824852 0 4479
0.06550000 0.06550280 33288.85705349 0 -335.37657622 0 10655.33198736 0 678.71367220 0 -384.13270008 0 4636
0.06650000 0.06648880 32576.50752159 0 932.96368762 0 10956.04564635 0 -587.75921431 0 -72.61241859 0 4653
0.06750000 0.06749660 31644.90592096 0 1181.22601253 0 12861.83603549 0 -1999.44485497 0 -757.79820096 0 5220
0.06850000 0.06852730 30495.80978323 0 991.63228978 0 10414.40735694 0 -157.33203308 0 -2661.71572048 0 5029
0.06950000 0.06949320 29399.65928534 0 -14.29180769 0 12934.33421453 0 -558.71600441 0 -3721.86977402 0 5040
0.07050000 0.07048030 28757.17163505 0 512.32485902 0 12276.79769981 0 -224.05672077 0 -2829.60392781 0 5475
0.07150000 0.07148790 28963.46190813 0 484.68437904 0 12184.30759868 0 1003.58020938 0 -6382.33325322 0 5509
0.07250000 0.07249820 28415.66127350 0 -56.63700546 0 10356.18912225 0 558.34252894 0 -4471.63276013 0 5916
0.07350000 0.07351270 27900.04543653 0 226.38545016 0 10954.74946678 0 2157.73254587 0 -3436.43565549 0 5721
0.07450000 0.07449140 27753.40139257 0 -190.56256206 0 8374.92373490 0 1036.48559500 0 -1318.62104638 0 6028
0.07550000 0.07549160 27820.07774814 0 1110.54028797 0 9855.53427314 0 956.20155092 0 -2776.20792049 0 6183
0.07650000 0.07648840 26642.42172169 0 218.59299437 0 8664.99334306 0 -687.09380262 0 -1145.06479960 0 6330
0.07750000 0.07749960 25893.82310027 0 82.82191973 0 8649.24146598 0 2007.29882437 0 -489.92731553 0 6583
0.07850000 0.07848650 25734.87633502 0 298.56287968 0 7758.87595082 0 463.70933769 0 116.78687723 0 6549
0.07950000 0.07947320 25492.66650960 0 438.94242189 0 8436.82180140 0 -445.96376069 0 221.53466291 0 6828
0.08050000 0.08048110 24543.48959285 0 700.34559098 0 8416.66511071 0 -650.03954393 0 640.01282608 0 7147
0.08150000 0.08149960 23922.31201338 0 661.88970083 0 9504.77490147 0 -528.11847748 0 -1392.45934327 0 7386
0.08250000 0.08250610 23313.21746374 0 780.29570406 0 9534.92755321 0 -163.42078166 0 994.95512299 0 7227
0.08350000 0.08350160 22528.80913571 0 -219.84633410 0 9032.29548103 0 1975.44356388 0 737.01209426 0 7798
0.08450000 0.08449610 23106.59765348 0 97.89648807 0 9800.76519425 0 451.36926885 0 -1017.19888246 0 7371
0.08550000 0.08548940 22103.15694818 0 878.20229793 0 8927.19509058 0 -1928.62731554 0 -228.11002805 0 8256
0.08650000 0.08650700 21207.14536272 0 554.07831786 0 9962.75468611 0 -500.20008781 0 -542.28418228 0 8037
0.08750000 0.08749060 20704.38147567 0 191.94551974 0 10419.71290549 0 155.37897608 0 -466.15560201 0 8155
0.08850000 0.08849210 21219.99731264 0 42.20305739 0 10547.76006807 0 1197.49416453 0 -1784.86122960 0 8718
0.08950000 0.08949900 20193.59885064 0 316.14368809 0 8266.31926579 0 311.30388541 0 -1419.20677751 0 8571
0.09050000 0.09049190 20172.50847128 0 231.80853364 0 9038.51274911 0 906.72703601 0 -757.88497908 0 8932
0.09150000 0.09150830 19969.07418708 0 159.09945081 0 9213.56289777 0 356.22529498 0 -405.15936892 0 9285
0.09250000 0.09250820 19216.74081098 0 504.13256479 0 8748.56397126 0 188.13277460 0 -497.97131803 0 9204
0.09350000 0.09350330 18613.35823909 0 485.17319252 0 8284.88319345 0 -60.96712397 0 -666.80969089 0 9349
0.09450000 0.09448040 18321.60799133 0 -22.46246232 0 8242.43880500 0 196.84134374 0 -321.77657691 0 9564
0.09550000 0.09549270 17967.35552558 0 679.84068935 0 8341.73934113 0 971.93585269 0 52.37587006 0 10155
0.09650000 0.09649430 17683.73386153 0 -58.77086853 0 7950.87529497 0 50.01177035 0 -443.48454266 0 9913
0.09750000 0.09749140 17414.72167901 0 6.54936466 0 7435.59997975 0 1275.22100011 0 -228.90750802 0 10476
0.09850000 0.09850240 17437.89912716 0 176.61105642 0 6195.97997938 0 -10.56757624 0 -285.74937576 0 10575
0.09950000 0.09950330 17046.84834326 0 -99.75463837 0 6300.05880459 0 449.34261521 0 245.85999889 0 10882
0.10050000 0.10051200 17064.75319657 0 64.90750985 0 5910.06253966 0 516.48032283 0 -101.56907006 0 10875
0.10150000 0.10150300 17011.91740245 0 377.94289343 0 5876.94405333 0 -90.65743505 0 -142.11290777 0 11118
0.10250000 0.10250800 16860.00076365 0 58.45253561 0 5021.95984646 0 40.39708382 0 -762.89174726 0 11575
0.10350000 0.10349800 16302.64355087 0 67.62794909 0 5305.77923281 0 379.39505393 0 -339.82422966 0 11364
0.10450000 0.10450100 16666.12305759 0 222.10366377 0 5282.18437091 0 -93.63601175 0 -1149.79915038 0 12093
0.10550000 0.10551000 16021.87787570 0 340.24603725 0 5392.03009672 0 -226.80286392 0 -447.16217756 0 12067
0.10650000 0.10649700 15499.67129518 0 92.27502320 0 5602.48352281 0 -204.64917793 0 -987.48781055 0 12054
0.10750000 0.10749900 15082.14769136 0 272.59864546 0 5219.52836890 0 648.44568245 0 -27.75801491 0 12807
0.10850000 0.10850100 15204.62567564 0 0.57695808 0 4728.22139106 0 1008.84511502 0 -577.16129868 0 12736
0.10950000 0.10950300 15444.63858655 0 327.76097205 0 4771.48962246 0 499.00936014 0 -61.33367916 0 12933
0.11050000 0.11050200 14623.32209464 0 273.47301744 0 5115.64726600 0 -610.16005318 0 85.67999567 0 13428
0.11150000 0.11150900 14565.65308859 0 367.17361848 0 5259.66599712 0 -407.36067726 0 -0.66515102 0 13453
0.11250000 0.11250000 14156.25806848 0 31.78408046 0 5017.54404828 0 -92.26348940 0 -446.20981511 0 13668
0.11350000 0.11349100 14055.30984646 0 99.57624891 0 5321.03680413 0 -134.24246152 0 -773.06455993 0 13791
0.11450000 0.11448600 14295.54244881 0 -21.45221118 0 5680.94632476 0 49.82843783 0 -756.60857174 0 14205
0.11550000 0.11549300 14043.66619952 0 -60.66351038 0 5536.56510275 0 402.96684823 0 -461.43003888 0 14776
0.11650000 0.11649800 14208.98401687 0 -72.31978958 0 4683.64599552 0 461.69257017 0 -646.22020805 0 14553
0.11750000 0.11747300 14328.49616656 0 86.37323205 0 5193.06653356 0 346.25240154 0 -347.23332387 0 14568
0.11850000 0.11849100 14280.71327583 0 -88.02871698 0 4744.68726536 0 287.27842826 0 546.84717373 0 16015
0.11950000 0.11950300 14337.17397889 0 208.32132055 0 4626.17471178 0 109.86989187 0 824.13623169 0 15270
0.12050000 0.12050700 14066.84364767 0 276.24332665 0 4812.82456908 0 -82.07947247 0 329.92163748 0 15999
0.12150000 0.12150000 14022.24628299 0 84.22179366 0 4833.93691758 0 268.95506274 0 809.27849882 0 15670
0.12250000 0.12250700 13975.78154097 0 -17.27291085 0 5180.73085855 0 65.22419507 0 607.97741860 0 16887
0.12350000 0.12352200 13461.04446981 0 156.65867878 0 4671.59591940 0 42.42944944 0 1069.59419522 0 16407
0.12450000 0.12449800 13541.34169538 0 327.71263993 0 4991.09319750 0 118.65095919 0 708.71363838 0 16306
0.12550000 0.12549900 13157.43088366 0 53.46477074 0 4832.38809285 0 -120.48867819 0 656.35457471 0 17523
0.12650000 0.12650100 12936.64097477 0 242.22959765 0 5341.61090857 0 -245.29319494 0 608.51126883 0 17154
0.12750000 0.12750600 12574.80915394 0 196.26904751 0 4805.38801344 0 400.52827312 0 956.69585669 0 18007
0.12850000 0.12850300 12717.05936887 0 -62.87525407 0 4523.50191186 0 348.71514271 0 351.45689203 0 17496
0.12950000 0.12949900 12581.29005177 0 97.30398022 0 4498.68776240 0 613.01384513 0 865.01531855 0 18405
0.13050000 0.13049000 12442.88443724 0 173.08610708 0 4059.03024483 0 481.67350769 0 1360.09879245 0 18100
0.13150000 0.13148800 12366.98104071 0 136.62940914 0 3914.49523881 0 370.86443486 0 1330.91278310 0 19059
0.13250000 0.13249300 12388.40095724 0 -27.24953905 0 3700.24115061 0 190.95361284 0 1209.58817894 0 18957
0.13350000 0.13349100 11931.11320068 0 69.82189777 0 3224.59817326 0 124.38820145 0 1730.35578045 0 19468
0.13450000 0.13450700 11936.49564124 0 243.14790792 0 3806.47295204 0 -338.84001196 0 1568.14659714 0 19953
0.13550000 0.13551000 11623.65501413 0 218.67867403 0 3760.59039237 0 -382.99250145 0 1079.76041714 0 19956
0.13650000 0.13649900 11849.60767212 0 -9.38285713 0 3773.53021887 0 170.20155832 0 814.43795256 0 19723
0.13750000 0.13749600 11585.97793017 0 -57.77588594 0 3829.90304536 0 338.68073566 0 870.63722280 0 20946
0.13850000 0.13851100 11546.54331460 0 -56.56450728 0 3207.51716290 0 249.26961022 0 831.17624426 0 20955
0.13950000 0.13949800 11746.57238131 0 204.31305001 0 3554.89328621 0 -51.07035361 0 425.23037994 0 20506
0.14050000 0.14048300 11516.99481436 0 123.41826369 0 3053.66723932 0 -38.16051499 0 251.63788407 0 21447
0.14150000 0.14148400 11284.12187564 0 158.25913101 0 3276.42338670 0 124.34096779 0 534.66308582 0 21771
0.14250000 0.14249400 11013.79154441 0 203.50568393 0 3446.64032342 0 -398.49722565 0 460.39419369 0 22470
0.14350000 0.14350900 10807.45733304 0 195.43641691 0 3519.69871566 0 -78.68765615 0 47.53452954 0 22519
0.14450000 0.14449900 10599.58528151 0 232.73013928 0 3447.89256469 0 211.08394055 0 -35.98216440 0 22218
0.14550000 0.14550500 10600.02466442 0 -111.61973429 0 3264.94450835 0 423.98802478 0 -59.04119886 0 23559
0.14650000 0.14650700 10482.45678408 0 94.07045159 0 3472.27831583 0 -77.16827007 0 602.55872895 0 23044
0.14750000 0.14750500 10328.01369358 0 285.25726691 0 3026.55731419 0 78.47290776 0 -5.55669982 0 23649
0.14850000 0.14849900 10207.05158032 0 48.95538401 0 3258.46361053 0 -54.39395574 0 485.33027190 0 23640
0.14950000 0.14949500 10013.36061199 0 129.23129950 0 3103.65802914 0 438.45141150 0 473.81294755 0 24457
0.15050000 0.15050000 9746.31466797 0 47.89438414 0 3057.17131798 0 171.76246608 0 705.94991991 0 24591
0.15150000 0.15149900 9731.44155669 0 180.92359962 0 3310.11307081 0 33.03577250 0 939.75105502 0 25020
0.15250000 0.15250500 9512.10161139 0 183.88833576 0 3051.94266143 0 173.75396909 0 1343.70981016 0 25297
0.15350000 0.15350100 9494.86681701 0 -84.84319093 0 2896.99428060 0 302.41626774 0 1381.51870898 0 25452
0.15450000 0.15450400 9572.73645204 0 -77.28745268 0 2855.42865795 0 236.72083450 0 1048.19954320 0 26061
0.15550000 0.15549900 9333.16292404 0 161.99388569 0 2525.68277363 0 81.81628211 0 1347.74114830 0 26128
0.15650000 0.15649500 9392.66635371 0 115.93447440 0 2560.51485328 0 -156.74985074 0 1434.90373173 0 26331
0.15750000 0.15749700 9106.88072886 0 228.49558655 0 3095.63929116 0 -192.77924880 0 777.55175783 0 27345
0.15850000 0.15849900 9163.61604624 0 159.01486960 0 3086.20354331 0 -146.10799682 0 782.12683231 0 26980
0.15950000 0.15949700 8894.37318770 0 -93.87536558 0 2950.58801022 0 79.44284551 0 618.22163099 0 27777
0.16050000 0.16050000 9146.60094332 0 -94.00652138 0 2671.10753003 0 307.37470380 0 282.74839053 0 28224
0.16150000 0.16150500 9189.07828549 0 -47.19126165 0 2535.03064489 0 357.95316825 0 393.61787851 0 28075
0.16250000 0.16249700 9208.33424122 0 -27.11212205 0 2109.69700997 0 -37.45497590 0 165.44963222 0 28590
0.16350000 0.16349900 9074.90463808 0 206.91859063 0 2124.26255322 0 112.92909534 0 431.23894114 0 29163
0.16450000 0.16449100 8911.79471982 0 99.60162327 0 2031.97017439 0 -39.67638601 0 373.57762429 0 28996
0.16550000 0.16550500 8916.21051799 0 86.34148663 0 2138.16902210 0 207.11301756 0 308.84553807 0 30777
0.16650000 0.16650700 8730.81290197 0 142.10631703 0 1979.23324142 0 -141.92946541 0 81.94150624 0 29211
0.16750000 0.16749900 8489.97614812 0 177.30857678 0 2021.11741668 0 -35.21137695 0 156.11164707 0 30922
0.16850000 0.16850800 8280.35754955 0 163.24393005 0 2231.31819759 0 -120.41727847 0 106.55793339 0 30867
0.16950000 0.16949900 8128.46287990 0 108.36588420 0 2189.22531546 0 -70.93869927 0 120.89071354 0 30852
0.17050000 0.17049200 7932.93748795 0 79.09891855 0 2258.96636678 0 130.38138425 0 90.48442803 0 31257
0.17150000 0.17149500 7925.42404030 0 149.70764125 0 2236.65669987 0 211.95941099 0 275.70947642 0 32608
0.17250000 0.17250900 7907.09078866 0 49.84458516 0 2069.19689087 0 2.98570569 0 140.45313885 0 32361
0.17350000 0.17350400 7756.84380490 0 78.86571607 0 1977.98100015 0 221.41273415 0 473.41969985 0 32508
0.17450000 0.17449800 7767.97117692 0 -16.69644048 0 1962.11927734 0 150.18876553 0 663.47807003 0 32791
0.17550000 0.17549800 7576.40023110 0 43.97201296 0 2045.11870777 0 11.70032733 0 693.78450578 0 33633
0.17650000 0.17650100 7607.72823210 0 100.32715429 0 1979.95822321 0 -137.42579065 0 438.37561795 0 33984
0.17750000 0.17750300 7602.84009731 0 2.61611876 0 2125.44888705 0 -62.18201770 0 262.89816942 0 34069
0.17850000 0.17849800 7536.55918635 0 95.33126083 0 2099.00902085 0 -154.58149611 0 246.03245668 0 34536
