### header ###
fiducial parameters:
Omega_m = 0.31
Omega_nu = 0
Omega_de = 0.69
Omega_k = 0
H_0 = 100
w_de = -1
zeff = 0
beta = 0
fgrowth = 0
b_1 = 2
gamma = 0.55
Lx = 3500 Ly = 3500 Lz = 3500
nx = 700 ny = 700 nz = 700
xoffset = -983.599254 yoffset = -42.9823471 zoffset = 800.977702
bins = 400 dk = 0.001
kx_ny = 0.628318531 ky_ny = 0.628318531 kz_ny = 0.628318531
############################
A(data) = 8.95045474 (not used)
A(ran) = 8.93145007 (used)
Ngal = 496468
weighted Ngal = 0
Nran = 25229228
weighted Nran = 0
SN(data) = 6768.94468
SN(ran) = 132.581223
SN(data+ran) = 6901.5259
############################
13 columns: k_central k_mean P_0(k) sigma^{lin}_{P_0(k)} P^img_1(k) sigma^{lin}_{P_1(k)} P_2(k) sigma^{lin}_{P_2(k)} P^img_3(k) sigma^{lin}_{P_3(k)} P_4(k) sigma^{lin}_{P_4(k)} N_modes
### header ###
0.00050000 0 0 0 0 0 0 0 0 0 0 0 0
0.00150000 0.00179520 164691.69671208 0 -58734.61943817 0 67132.21533088 0 -213027.11144176 0 -68366.66159757 0 3
0.00250000 0.00253879 137806.95531924 0 49732.87205348 0 6447.52669149 0 12446.06996329 0 97146.57129787 0 6
0.00350000 0.00331552 119121.09890112 0 60447.55368650 0 91848.49225043 0 585.52385379 0 106984.79388462 0 7
0.00450000 0.00420575 67213.39132226 0 30020.06794473 0 111381.36906030 0 56787.16456522 0 22316.58719343 0 24
0.00550000 0.00557378 49352.91568789 0 795.56206303 0 84182.02950874 0 93571.20276837 0 11867.84206261 0 45
0.00650000 0.00659388 63492.58705178 0 -15641.04274430 0 66629.01206093 0 58534.91990864 0 73799.52135058 0 40
0.00750000 0.00754703 80524.71606778 0 -9671.83926586 0 41902.62933460 0 40656.86895815 0 49952.23396793 0 57
0.00850000 0.00846663 79795.66998555 0 -4552.00687771 0 6251.44108634 0 26083.85620593 0 48827.41373560 0 75
0.00950000 0.00948925 97065.72484367 0 -7689.23376066 0 1965.29381882 0 13834.41009185 0 32985.13362161 0 112
0.01050000 0.01054430 101335.42820604 0 13426.33322045 0 10964.44884437 0 -17576.52443313 0 7702.33835575 0 105
0.01150000 0.01145670 83829.97395750 0 4834.22251647 0 27166.27598810 0 -5561.09365332 0 31336.01973998 0 144
0.01250000 0.01249090 87512.00268677 0 -7917.57007091 0 17072.22270592 0 -11695.93350171 0 4027.65830554 0 169
0.01350000 0.01339930 84382.93734125 0 1180.78662963 0 15770.11147213 0 18945.97109685 0 -4202.26907129 0 180
0.01450000 0.01448870 95781.18892601 0 -6078.74163622 0 16545.95183355 0 3619.04319008 0 -732.12835329 0 267
0.01550000 0.01550050 96526.49217565 0 6543.96025418 0 10930.83605228 0 -16502.12338895 0 -4220.95382925 0 238
0.01650000 0.01653350 87241.67235554 0 4901.29431665 0 21811.18700897 0 -5737.90133359 0 -10224.67083474 0 315
0.01750000 0.01747870 87008.68957109 0 6286.91027121 0 31482.77362966 0 -4602.83249504 0 -10591.37980579 0 297
0.01850000 0.01844180 86065.00494063 0 5005.70267904 0 39995.92722593 0 -4435.13102544 0 -22191.58275746 0 388
0.01950000 0.01947590 73715.70906178 0 9118.41453007 0 58405.63148936 0 -11954.18080310 0 -2895.62120902 0 399
0.02050000 0.02045430 71021.96232766 0 2086.78319157 0 50213.00772101 0 12418.60853184 0 3199.88288495 0 462
0.02150000 0.02154770 69077.69298076 0 -1904.72488560 0 53724.55588382 0 19910.41656949 0 5286.11684789 0 571
0.02250000 0.02255340 71337.87863510 0 305.13934328 0 43087.42533322 0 7699.62516632 0 12657.52298548 0 510
0.02350000 0.02348930 67903.44217182 0 2316.28386651 0 38029.79857959 0 16805.84682083 0 26504.78502725 0 555
0.02450000 0.02439640 64285.01411779 0 274.08595659 0 30715.28154340 0 12709.26032234 0 39425.05898888 0 592
0.02550000 0.02547300 65760.35206120 0 1954.16644679 0 34037.45567490 0 11443.17848661 0 22692.69895862 0 837
0.02650000 0.02652900 69576.83195886 0 -1296.75076237 0 19822.53998884 0 2161.51123884 0 30788.10925962 0 723
0.02750000 0.02749970 61758.56242409 0 1717.66859912 0 22250.24037504 0 -551.72432396 0 16311.87059184 0 826
0.02850000 0.02848090 59973.02015099 0 1394.04112173 0 23240.38974753 0 -4392.78549814 0 24739.89375060 0 831
0.02950000 0.02946900 62728.28049157 0 147.10429755 0 20746.01300575 0 4916.59582626 0 4563.35394119 0 996
0.03050000 0.03053250 58236.68876306 0 2293.65564699 0 16994.78146923 0 -2918.20549025 0 -5283.61236534 0 1041
0.03150000 0.03150510 57657.03286794 0 3244.48024963 0 25517.05226073 0 -11902.55331197 0 -992.15515544 0 1036
0.03250000 0.03246190 53630.63778825 0 1431.89395884 0 27494.27532538 0 3852.94867863 0 -4406.43932186 0 1059
0.03350000 0.03345080 53914.80868093 0 650.45366232 0 23611.22891787 0 2652.70837096 0 -10596.42172461 0 1302
0.03450000 0.03451200 53072.95103829 0 -2115.06846597 0 19055.59713121 0 1293.93871179 0 -11858.39533019 0 1339
0.03550000 0.03553350 56016.48695291 0 1243.09112531 0 21901.04081268 0 4610.00542094 0 -13937.66507411 0 1365
0.03650000 0.03647120 52404.97917962 0 3165.76480252 0 17798.85218218 0 -4900.41555084 0 -5713.40573673 0 1308
0.03750000 0.03744890 49272.39877087 0 1639.88684067 0 20328.92878484 0 642.68537259 0 -7996.82376208 0 1579
0.03850000 0.03847530 49405.31209911 0 -333.70801965 0 24583.91281995 0 1892.91647008 0 -10159.69708792 0 1662
0.03950000 0.03950240 48096.28058459 0 1330.34158533 0 18492.19840351 0 699.91609420 0 -10191.15690379 0 1683
0.04050000 0.04050350 45122.42724964 0 1036.04950747 0 20504.35240896 0 429.66265498 0 -1730.15805814 0 1822
0.04150000 0.04152450 45077.06096488 0 -1285.61240578 0 16453.35188669 0 3987.55363104 0 -228.91849260 0 1887
0.04250000 0.04250150 47186.86782058 0 544.10212904 0 17987.12775622 0 4503.97134181 0 -2135.58764755 0 1920
0.04350000 0.04349210 42437.46817358 0 3232.48509637 0 14100.56628549 0 2495.53012189 0 -1198.69148294 0 2005
0.04450000 0.04448520 43676.19842358 0 2112.17952338 0 19201.80179227 0 -2054.13704186 0 3457.86655660 0 2151
0.04550000 0.04548030 41157.54577641 0 -691.35032450 0 17198.21575343 0 -389.87543463 0 4044.19008727 0 2274
0.04650000 0.04648670 38933.16982868 0 504.61808290 0 16988.95964576 0 4214.15437882 0 1980.32071411 0 2311
0.04750000 0.04749250 39664.41282542 0 510.47505700 0 14676.59727166 0 1242.58583497 0 4935.90670485 0 2568
0.04850000 0.04851840 37846.02668031 0 1225.97716123 0 15825.03433504 0 -994.44763573 0 1469.77974967 0 2493
0.04950000 0.04949480 36629.59511265 0 1569.58557615 0 17528.96123386 0 -748.32400710 0 3664.57424343 0 2644
0.05050000 0.05050630 35284.42435434 0 1280.97691615 0 16999.17529826 0 456.98238544 0 17.17350047 0 2829
0.05150000 0.05149060 33201.20016429 0 702.46341658 0 17453.93660313 0 -302.32509578 0 790.54540873 0 2784
0.05250000 0.05249300 32935.04397064 0 258.31540574 0 16632.94964840 0 1143.84551204 0 738.44448252 0 3055
0.05350000 0.05348950 32600.23419836 0 -100.01727950 0 15024.58853104 0 2360.72744717 0 1018.87402978 0 3009
0.05450000 0.05448610 33163.30338888 0 -518.66515432 0 13297.15464689 0 3776.88051351 0 454.04511074 0 3336
0.05550000 0.05550870 34324.04317355 0 -903.93475766 0 12509.56079281 0 2340.94423196 0 1657.49511052 0 3349
0.05650000 0.05647670 34860.96908133 0 818.73841272 0 9746.95177318 0 -116.03663092 0 2056.71841641 0 3324
0.05750000 0.05747970 33767.23518940 0 -107.27335861 0 10941.00776649 0 -1055.93817459 0 2654.36704142 0 3639
0.05850000 0.05849280 33794.14739223 0 225.24744844 0 10551.19823929 0 -387.59503736 0 1848.30812083 0 3846
0.05950000 0.05951020 33420.45223301 0 802.11875441 0 11408.57708298 0 -695.79138719 0 576.40006780 0 3787
0.06050000 0.06049470 32772.69198789 0 287.61895001 0 11410.22476887 0 760.01598616 0 -1472.09749449 0 3930
0.06150000 0.06148310 31836.91624968 0 877.05770547 0 12767.91793992 0 -621.40935396 0 -2305.85950713 0 4083
0.06250000 0.06249100 31204.86394335 0 2151.43838578 0 13492.02096449 0 -2140.31101376 0 -1140.80278544 0 4303
0.06350000 0.06350600 29558.71589631 0 -350.78243927 0 13749.38950007 0 648.32375370 0 -3218.60059663 0 4470
0.06450000 0.06451750 30145.07238071 0 -1036.79206458 0 13005.95362776 0 1293.71902034 0 -4638.71909367 0 4479
0.06550000 0.06550280 29504.78164494 0 -227.85408751 0 11417.25489532 0 828.42900265 0 -5245.50688306 0 4636
0.06650000 0.06648880 30236.57387031 0 1179.22682032 0 10617.92951772 0 285.98883944 0 -5159.95903180 0 4653
0.06750000 0.06749660 28709.60843578 0 947.70388557 0 11972.30534786 0 -1090.89218300 0 -3351.55786316 0 5220
0.06850000 0.06852730 28638.53825117 0 -62.67797115 0 10845.27721644 0 2223.99148768 0 -4936.84039352 0 5029
0.06950000 0.06949320 28255.06682236 0 48.11748081 0 10632.96739759 0 1596.28907209 0 -2513.69860494 0 5040
0.07050000 0.07048030 27972.32392412 0 283.51401524 0 10380.54191967 0 416.61737658 0 -2323.64353014 0 5475
0.07150000 0.07148790 28152.36106872 0 151.29710891 0 9831.65381235 0 -275.08006041 0 -2046.73343994 0 5509
0.07250000 0.07249820 27667.94141789 0 718.46574191 0 10201.22975685 0 -700.79156463 0 -1993.06281830 0 5916
0.07350000 0.07351270 26983.49270034 0 -209.06387765 0 9671.16920694 0 790.72775264 0 -1367.71110125 0 5721
0.07450000 0.07449140 26745.45701251 0 272.27350212 0 10834.65513475 0 494.03993950 0 -2226.66073882 0 6028
0.07550000 0.07549160 26631.98637774 0 369.06186650 0 9223.25129079 0 1884.07388915 0 -431.26091029 0 6183
0.07650000 0.07648840 26471.83130950 0 -79.10243361 0 9994.69782318 0 680.97869107 0 445.49801481 0 6330
0.07750000 0.07749960 25794.19302696 0 450.81894177 0 7965.56166851 0 547.98627391 0 2037.94578187 0 6583
0.07850000 0.07848650 25382.93062952 0 545.35327186 0 9434.74825127 0 1354.20007697 0 3035.86124717 0 6549
0.07950000 0.07947320 25242.54779193 0 326.88330470 0 8210.41877592 0 176.92521520 0 3075.73524564 0 6828
0.08050000 0.08048110 24070.60374322 0 807.89554113 0 9419.43575709 0 304.89878114 0 4214.79148403 0 7147
0.08150000 0.08149960 23685.15509134 0 280.55037756 0 9023.71652985 0 -464.12784991 0 4541.23101201 0 7386
0.08250000 0.08250610 23088.36326300 0 -233.81321814 0 9311.98466810 0 370.21195125 0 4228.68696835 0 7227
0.08350000 0.08350160 23267.52164180 0 462.00782740 0 9297.81456947 0 1429.33455343 0 3744.55291640 0 7798
0.08450000 0.08449610 23150.42609808 0 442.22790755 0 8408.33880470 0 -1033.09905128 0 2312.96652559 0 7371
0.08550000 0.08548940 21883.79503373 0 455.74991640 0 9807.31199951 0 -182.47901509 0 4225.97377892 0 8256
0.08650000 0.08650700 21868.63632357 0 488.66628660 0 10095.25060059 0 -200.24875816 0 2029.85015188 0 8037
0.08750000 0.08749060 20920.99724697 0 436.06116851 0 9418.30434611 0 264.32726231 0 2086.17904008 0 8155
0.08850000 0.08849210 21148.48774513 0 283.04387553 0 8883.53141456 0 -27.16473815 0 655.69769727 0 8718
0.08950000 0.08949900 20022.23951837 0 253.44924008 0 8527.78504695 0 22.99664208 0 900.33401477 0 8571
0.09050000 0.09049190 19586.59136979 0 600.89676312 0 9659.38276056 0 117.70189212 0 671.14420323 0 8932
0.09150000 0.09150830 19460.92785946 0 -6.15134966 0 9242.69398426 0 39.89278209 0 460.13166240 0 9285
0.09250000 0.09250820 19433.57627373 0 -166.78096242 0 7789.24829401 0 1261.75391413 0 -947.90819862 0 9204
0.09350000 0.09350330 19422.04247252 0 37.56778746 0 7164.06134554 0 660.33648227 0 -1155.59900470 0 9349
0.09450000 0.09448040 19112.27752573 0 524.00805042 0 7451.74730145 0 -448.90433077 0 -347.69028209 0 9564
0.09550000 0.09549270 18269.32142584 0 691.66887710 0 7977.83143609 0 -447.43129958 0 -1134.47567163 0 10155
0.09650000 0.09649430 17363.09418788 0 415.39699057 0 7921.52451704 0 225.89443976 0 -989.38704315 0 9913
0.09750000 0.09749140 17666.26839112 0 98.24184303 0 8363.34599540 0 339.58256907 0 -419.38219350 0 10476
0.09850000 0.09850240 17221.17351013 0 98.55852826 0 7006.98195763 0 783.07809629 0 -996.64125488 0 10575
0.09950000 0.09950330 16750.04519211 0 83.53481849 0 7028.54467361 0 -36.87125571 0 -1071.29350860 0 10882
0.10050000 0.10051200 16285.72730910 0 223.86339229 0 6376.12696971 0 599.32487078 0 -295.17743441 0 10875
0.10150000 0.10150300 16704.78875308 0 -15.30480498 0 6612.00968132 0 918.83862574 0 231.24502507 0 11118
0.10250000 0.10250800 16598.45809049 0 -50.96995462 0 5419.23888301 0 675.06349873 0 -1274.48503375 0 11575
0.10350000 0.10349800 16480.70347242 0 -30.28084170 0 4493.71175102 0 788.40231862 0 -457.34707325 0 11364
0.10450000 0.10450100 16382.61123927 0 -25.18235233 0 3813.75572366 0 304.62306837 0 313.66666697 0 12093
0.10550000 0.10551000 16247.50099652 0 254.13028358 0 4634.53397151 0 -230.46731733 0 298.92097674 0 12067
0.10650000 0.10649700 15736.16914285 0 719.98380984 0 4786.34076459 0 -678.02493950 0 -267.27332468 0 12054
0.10750000 0.10749900 15277.67308331 0 427.09226499 0 5027.85856193 0 28.92633405 0 827.58099365 0 12807
0.10850000 0.10850100 15410.36672009 0 -282.17389738 0 4850.42476103 0 338.00957827 0 430.57217759 0 12736
0.10950000 0.10950300 14952.63958063 0 58.17715238 0 5332.12023786 0 351.64253130 0 557.30448683 0 12933
0.11050000 0.11050200 15053.91733983 0 247.10345250 0 5625.11174233 0 -278.06127341 0 357.34242602 0 13428
0.11150000 0.11150900 14412.30845535 0 436.95750963 0 5704.15672662 0 -509.12944686 0 619.78363721 0 13453
0.11250000 0.11250000 14638.70049625 0 109.29704641 0 5633.98727697 0 242.14831181 0 421.69664294 0 13668
0.11350000 0.11349100 14540.05903447 0 -241.02459004 0 5759.65078730 0 694.63800707 0 -0.88674061 0 13791
0.11450000 0.11448600 14442.40618422 0 -31.48573946 0 4881.44519400 0 939.29080143 0 826.61215435 0 14205
0.11550000 0.11549300 14623.10240319 0 -117.38773335 0 4500.36840200 0 515.97393403 0 1025.51420391 0 14776
0.11650000 0.11649800 14384.51748672 0 395.10079581 0 4245.59222555 0 -111.92181003 0 1560.85284095 0 14553
0.11750000 0.11747300 14033.45054702 0 270.93777809 0 4454.87030237 0 67.94122910 0 1365.67895532 0 14568
0.11850000 0.11849100 13786.29766394 0 116.52983823 0 4648.90179245 0 133.84262307 0 1745.90993522 0 16015
0.11950000 0.11950300 13654.81233014 0 158.79298124 0 4679.80139512 0 -199.21291296 0 1090.22651790 0 15270
0.12050000 0.12050700 13392.17119972 0 455.43356071 0 4906.36918918 0 -18.64554304 0 1609.27283688 0 15999
0.12150000 0.12150000 13347.13445214 0 -97.12438246 0 4597.35119332 0 89.30292740 0 1813.58588690 0 15670
0.12250000 0.12250700 12977.28389332 0 -128.60737578 0 4689.52274185 0 465.42842330 0 1569.77231388 0 16887
0.12350000 0.12352200 13297.70387552 0 159.76401745 0 4808.33187889 0 397.36801159 0 1548.52815051 0 16407
0.12450000 0.12449800 13100.20126051 0 73.51666861 0 4077.34152732 0 1.59226872 0 1641.13908194 0 16306
0.12550000 0.12549900 13021.55172083 0 95.57050482 0 4294.78114157 0 574.24489466 0 1978.67302822 0 17523
0.12650000 0.12650100 13067.90661712 0 -41.46489412 0 4274.94300349 0 -438.91496046 0 1528.27259867 0 17154
0.12750000 0.12750600 12938.06896921 0 325.60250354 0 4113.10729565 0 -187.84827417 0 458.45651508 0 18007
0.12850000 0.12850300 12657.08360258 0 226.32942884 0 4422.79535043 0 -74.80592789 0 1158.96028391 0 17496
0.12950000 0.12949900 12489.01964208 0 -57.78269638 0 4223.51323466 0 134.25015072 0 1380.42025172 0 18405
0.13050000 0.13049000 12490.33779079 0 -63.22730962 0 4252.69924401 0 509.43481798 0 872.87368177 0 18100
0.13150000 0.13148800 12514.72354192 0 36.25611964 0 3397.44042283 0 322.37743303 0 682.85815143 0 19059
0.13250000 0.13249300 12400.15444990 0 116.15416585 0 3591.81243466 0 306.11806870 0 870.79869601 0 18957
0.13350000 0.13349100 12166.07320819 0 249.80346044 0 3582.67327027 0 -130.76035201 0 1304.71457749 0 19468
0.13450000 0.13450700 12029.20543383 0 135.95166101 0 3594.92106870 0 6.84502542 0 752.56185521 0 19953
0.13550000 0.13551000 11752.94343341 0 144.54708906 0 3566.84450118 0 29.24543589 0 854.53933168 0 19956
0.13650000 0.13649900 11609.04553259 0 261.49104567 0 3808.31836023 0 -96.71081330 0 755.29811224 0 19723
0.13750000 0.13749600 11286.75817306 0 280.31311079 0 4008.95157843 0 -306.46298428 0 885.06875425 0 20946
0.13850000 0.13851100 11102.32719942 0 -0.22844945 0 4107.48319449 0 63.90604636 0 890.69944616 0 20955
0.13950000 0.13949800 11004.89404062 0 188.08993477 0 4064.01724078 0 225.88675056 0 777.69455727 0 20506
0.14050000 0.14048300 11148.68209571 0 -108.17541171 0 4019.61759841 0 269.78879180 0 698.86157523 0 21447
0.14150000 0.14148400 10926.43123867 0 171.14623156 0 4255.67606318 0 -144.80632497 0 850.21580391 0 21771
0.14250000 0.14249400 10839.40047011 0 140.66074728 0 3921.00909035 0 -321.72055559 0 449.33931984 0 22470
0.14350000 0.14350900 10647.93937002 0 89.81107373 0 4180.62946331 0 140.97710297 0 575.99913091 0 22519
0.14450000 0.14449900 10651.23474179 0 44.53200647 0 3858.88034783 0 340.00217974 0 513.88356987 0 22218
0.14550000 0.14550500 10620.53286142 0 41.89120538 0 3820.32449807 0 306.85403506 0 297.19420193 0 23559
0.14650000 0.14650700 10449.12959087 0 321.83149977 0 3836.73544950 0 -575.16650030 0 -404.70350916 0 23044
0.14750000 0.14750500 9983.14205282 0 282.31120454 0 3691.56333827 0 -73.27215202 0 -16.05823681 0 23649
0.14850000 0.14849900 9706.02325574 0 -27.27117866 0 3766.25843182 0 466.00511336 0 227.08297052 0 23640
0.14950000 0.14949500 9909.44655537 0 -82.78665925 0 3547.56657630 0 588.84558854 0 -79.90222034 0 24457
0.15050000 0.15050000 9775.97301394 0 47.78805348 0 2690.55022350 0 129.30819151 0 21.01832056 0 24591
0.15150000 0.15149900 9803.24770766 0 36.64837873 0 2874.32212279 0 182.33182182 0 -141.87673946 0 25020
0.15250000 0.15250500 9534.29044800 0 208.00606331 0 2718.30823841 0 3.67547094 0 461.01482204 0 25297
0.15350000 0.15350100 9544.60496165 0 41.39810792 0 2777.80068352 0 277.13747086 0 226.09106361 0 25452
0.15450000 0.15450400 9584.62175957 0 -22.11150522 0 2539.29265906 0 197.89915808 0 193.88100143 0 26061
0.15550000 0.15549900 9454.34472875 0 75.31011977 0 2761.06019490 0 -173.94510065 0 -137.37526162 0 26128
0.15650000 0.15649500 9240.73873034 0 221.32595603 0 2738.75052799 0 -230.24103513 0 387.65655097 0 26331
0.15750000 0.15749700 9120.22698455 0 64.42330989 0 2815.20315315 0 -342.61211418 0 -128.05595024 0 27345
0.15850000 0.15849900 9065.69956625 0 112.59955816 0 2671.45903636 0 244.53965326 0 -403.47323703 0 26980
0.15950000 0.15949700 9027.41833081 0 80.06468217 0 2802.45006439 0 264.38438209 0 -166.87103591 0 27777
0.16050000 0.16050000 8996.77137331 0 -58.36334088 0 2477.40557713 0 395.68407661 0 310.89196394 0 28224
0.16150000 0.16150500 8988.84051190 0 -42.50831867 0 2367.32917530 0 289.02936913 0 -205.97062202 0 28075
0.16250000 0.16249700 8761.17426058 0 257.91776421 0 2243.67584175 0 -117.71177824 0 -160.36597203 0 28590
0.16350000 0.16349900 8604.69902416 0 293.27161106 0 2422.44976051 0 -392.80392168 0 152.00781075 0 29163
0.16450000 0.16449100 8327.18478246 0 56.39984854 0 2527.78082699 0 -75.53178845 0 220.48563622 0 28996
0.16550000 0.16550500 8192.85444437 0 88.73689238 0 2923.15953248 0 74.62951565 0 -69.31441052 0 30777
0.16650000 0.16650700 8192.84345979 0 76.38100575 0 2709.69633351 0 21.43584416 0 137.75972166 0 29211
0.16750000 0.16749900 8309.91703437 0 -83.44166932 0 2529.91183407 0 348.76127791 0 -118.99477632 0 30922
0.16850000 0.16850800 8310.85072304 0 101.58983091 0 2524.65022381 0 -158.38545359 0 -339.58476598 0 30867
0.16950000 0.16949900 8223.49041730 0 152.52628258 0 2597.66467775 0 -104.45603543 0 -76.79523398 0 30852
0.17050000 0.17049200 8074.25401421 0 -68.57855400 0 2597.58778575 0 -42.81292086 0 -318.57677092 0 31257
0.17150000 0.17149500 7968.85704029 0 22.03977596 0 2565.49086466 0 189.15543831 0 -185.12959246 0 32608
0.17250000 0.17250900 8002.56869354 0 62.53264525 0 2475.69198381 0 48.62617637 0 -357.62143416 0 32361
0.17350000 0.17350400 8027.83321048 0 111.34402151 0 2158.79804941 0 282.27166008 0 15.70068897 0 32508
0.17450000 0.17449800 8037.68637208 0 -32.01761247 0 2223.69490422 0 173.70014469 0 -266.38686967 0 32791
0.17550000 0.17549800 7940.73653448 0 108.45628723 0 2029.94901303 0 90.14884933 0 55.48120873 0 33633
0.17650000 0.17650100 7700.50393213 0 129.43341564 0 2092.97849050 0 -160.02545028 0 2.61790925 0 33984
0.17750000 0.17750300 7691.62839748 0 122.09242578 0 2142.87041917 0 -81.10678857 0 -55.63960627 0 34069
0.17850000 0.17849800 7447.24362669 0 94.54685251 0 2316.38272766 0 52.25778591 0 -196.52388960 0 34536
