### header ###
fiducial parameters:
Omega_m = 0.31
Omega_nu = 0
Omega_de = 0.69
Omega_k = 0
H_0 = 100
w_de = -1
zeff = 0
beta = 0
fgrowth = 0
b_1 = 2
gamma = 0.55
Lx = 3500 Ly = 3500 Lz = 3500
nx = 700 ny = 700 nz = 700
xoffset = -983.599254 yoffset = -42.9823471 zoffset = 800.977702
bins = 400 dk = 0.001
kx_ny = 0.628318531 ky_ny = 0.628318531 kz_ny = 0.628318531
############################
A(data) = 9.05297904 (not used)
A(ran) = 9.0477202 (used)
Ngal = 502517
weighted Ngal = 0
Nran = 25229228
weighted Nran = 0
SN(data) = 6736.33031
SN(ran) = 134.307173
SN(data+ran) = 6870.63748
############################
13 columns: k_central k_mean P_0(k) sigma^{lin}_{P_0(k)} P^img_1(k) sigma^{lin}_{P_1(k)} P_2(k) sigma^{lin}_{P_2(k)} P^img_3(k) sigma^{lin}_{P_3(k)} P_4(k) sigma^{lin}_{P_4(k)} N_modes
### header ###
0.00050000 0 0 0 0 0 0 0 0 0 0 0 0
0.00150000 0.00179520 15353.35678840 0 -28415.00219914 0 -7126.97742851 0 -48021.14610813 0 -45550.82558031 0 3
0.00250000 0.00253879 29145.03689290 0 -25296.70173475 0 -33513.38171705 0 -11094.63799861 0 -21733.85561799 0 6
0.00350000 0.00331552 71658.07892584 0 -33009.40952702 0 -16583.84860896 0 -62236.50117710 0 -53186.64136451 0 7
0.00450000 0.00420575 96880.19541277 0 -15484.95196792 0 -6710.34357507 0 -73669.24431976 0 7223.99317355 0 24
0.00550000 0.00557378 95522.83177889 0 22130.28884245 0 39942.54220318 0 -62841.53143488 0 10623.52066517 0 45
0.00650000 0.00659388 78328.35078014 0 22860.98261057 0 99131.26387186 0 5303.08801253 0 46146.62879713 0 40
0.00750000 0.00754703 93962.14370654 0 -13055.71374156 0 92280.40564433 0 34290.65007290 0 -33607.18996689 0 57
0.00850000 0.00846663 87314.50007176 0 1911.07396856 0 74082.59378600 0 52515.15444261 0 -12176.72824360 0 75
0.00950000 0.00948925 95852.36895633 0 5976.25557403 0 86382.89847113 0 -1196.20896954 0 4939.19109206 0 112
0.01050000 0.01054430 78748.51068138 0 18705.40895732 0 105938.62319197 0 12230.22311207 0 22905.79966670 0 105
0.01150000 0.01145670 78171.05170077 0 7093.96878790 0 92659.04386121 0 24348.62327526 0 31810.44342976 0 144
0.01250000 0.01249090 73024.34006351 0 287.43770457 0 89803.27468151 0 48783.58529100 0 26804.11463009 0 169
0.01350000 0.01339930 73863.67125445 0 -6556.98795726 0 59804.62665332 0 44725.00541365 0 47727.74817448 0 180
0.01450000 0.01448870 79442.07659416 0 -1396.49068141 0 57043.98387217 0 15221.21238024 0 25309.00445604 0 267
0.01550000 0.01550050 69797.84155919 0 9124.81853589 0 41326.37865698 0 3623.90935574 0 31910.73257743 0 238
0.01650000 0.01653350 71155.09534734 0 -77.49769740 0 44978.08996592 0 12518.78783378 0 44436.88007484 0 315
0.01750000 0.01747870 79950.33276750 0 -7607.79413954 0 30185.82514498 0 14380.67288632 0 25466.74291831 0 297
0.01850000 0.01844180 83742.97614266 0 -7206.70345630 0 22812.98002839 0 12796.14829146 0 -2288.81145048 0 388
0.01950000 0.01947590 87607.23893105 0 890.01620575 0 22341.19263602 0 -9343.57629884 0 9340.24797335 0 399
0.02050000 0.02045430 81262.54980807 0 9963.98495824 0 28480.25056028 0 -9136.13264565 0 16275.84119378 0 462
0.02150000 0.02154770 76867.40262682 0 1627.19965934 0 34305.58909162 0 -1112.75917164 0 10574.45257945 0 571
0.02250000 0.02255340 74507.47705344 0 2457.32577845 0 34037.34582918 0 16939.96845204 0 14178.66659655 0 510
0.02350000 0.02348930 76650.01793544 0 -2891.74365490 0 27659.26360555 0 9732.71576711 0 12989.36692316 0 555
0.02450000 0.02439640 77873.69932100 0 1775.99667952 0 27465.27605376 0 2063.64968171 0 17450.75107708 0 592
0.02550000 0.02547300 70723.07210772 0 3771.81662555 0 35085.82328207 0 -2196.51907166 0 15057.32255733 0 837
0.02650000 0.02652900 63980.74145729 0 6111.53058537 0 30756.14415341 0 1041.78894664 0 14250.28600978 0 723
0.02750000 0.02749970 63346.05285354 0 874.45546023 0 29220.72059799 0 9050.70562468 0 12955.97382252 0 826
0.02850000 0.02848090 65195.30564761 0 -3973.31762498 0 26000.70299149 0 11789.19252293 0 11935.72672116 0 831
0.02950000 0.02946900 65085.24023035 0 741.48391376 0 20396.70359767 0 -2191.93850489 0 6747.20780065 0 996
0.03050000 0.03053250 61489.22070439 0 3103.43833769 0 18546.24250061 0 1795.26361983 0 7405.44732802 0 1041
0.03150000 0.03150510 58128.82026031 0 3473.67335654 0 19504.20707543 0 -1089.07203932 0 14993.39234490 0 1036
0.03250000 0.03246190 56101.39769897 0 1195.70367920 0 16945.57058406 0 -1070.80799049 0 -907.61239256 0 1059
0.03350000 0.03345080 54170.30983917 0 2818.72920095 0 24353.23679574 0 817.06875769 0 3548.08285121 0 1302
0.03450000 0.03451200 47207.40897131 0 234.68868857 0 18075.44371978 0 2330.70661031 0 7082.65467814 0 1339
0.03550000 0.03553350 47533.54093125 0 -86.32325224 0 21367.30043095 0 5257.85354264 0 7932.50908962 0 1365
0.03650000 0.03647120 50216.08340134 0 481.39669646 0 10680.53059686 0 10942.69939066 0 5311.33742654 0 1308
0.03750000 0.03744890 50365.91297135 0 -1564.86220994 0 11561.70202477 0 1549.52774661 0 8046.82553647 0 1579
0.03850000 0.03847530 49735.83788808 0 2392.73649168 0 11092.44108409 0 -1233.38076315 0 8227.95015376 0 1662
0.03950000 0.03950240 45939.34991252 0 1225.53777833 0 12396.96892385 0 -1331.18739742 0 15242.41260532 0 1683
0.04050000 0.04050350 45499.96700926 0 -358.09267232 0 11997.46001907 0 3032.35716852 0 4990.65381460 0 1822
0.04150000 0.04152450 46708.37983894 0 1813.36619545 0 13775.86231999 0 -3497.15837272 0 3375.71293826 0 1887
0.04250000 0.04250150 44863.08149100 0 1357.19886529 0 16120.40949175 0 -3840.97549452 0 410.51764342 0 1920
0.04350000 0.04349210 41032.43149470 0 1983.35245614 0 19619.21555036 0 -2910.47235115 0 3042.33116042 0 2005
0.04450000 0.04448520 41920.97357081 0 1060.62309479 0 20350.34870137 0 1434.29958024 0 -365.58085545 0 2151
0.04550000 0.04548030 42712.41202529 0 -419.22072028 0 21894.12053196 0 3368.54001237 0 2768.16721336 0 2274
0.04650000 0.04648670 41072.85472180 0 -1086.87182943 0 19696.76663278 0 -325.23342190 0 2537.37035885 0 2311
0.04750000 0.04749250 40675.32304008 0 36.18548884 0 14256.76690760 0 5098.25868761 0 3875.22539183 0 2568
0.04850000 0.04851840 42982.30297362 0 -237.38210577 0 14728.22476279 0 5097.52272124 0 3661.66333170 0 2493
0.04950000 0.04949480 41648.55617079 0 923.99258720 0 12277.01739126 0 -873.79309050 0 4108.53771345 0 2644
0.05050000 0.05050630 41265.63397061 0 1059.08305772 0 14589.48961109 0 -708.90916377 0 5829.32593118 0 2829
0.05150000 0.05149060 38079.55869339 0 -147.95340501 0 9774.10563660 0 654.26311209 0 3467.25836616 0 2784
0.05250000 0.05249300 38294.30708735 0 1267.67459875 0 13012.87390849 0 -1279.63679829 0 131.71600982 0 3055
0.05350000 0.05348950 37710.47705465 0 2840.77523812 0 14359.47266124 0 -700.58066084 0 981.77253743 0 3009
0.05450000 0.05448610 34627.76660543 0 705.39629746 0 14207.22648526 0 -753.31649534 0 1544.34302836 0 3336
0.05550000 0.05550870 33466.91697503 0 240.71152972 0 13403.48530948 0 4438.54722752 0 1955.72625610 0 3349
0.05650000 0.05647670 33648.38211407 0 -892.22300638 0 13663.05075958 0 1513.36653368 0 2585.66952449 0 3324
0.05750000 0.05747970 33889.38363651 0 -13.87164779 0 9735.28615709 0 1818.48500627 0 1610.81067705 0 3639
0.05850000 0.05849280 34073.26538152 0 -131.18215960 0 10565.53310651 0 2316.92097172 0 7666.22108110 0 3846
0.05950000 0.05951020 32362.85758488 0 867.61866225 0 8430.95603964 0 -594.36863163 0 4441.21647865 0 3787
0.06050000 0.06049470 33468.23512374 0 382.30816258 0 9769.76673043 0 19.77288972 0 6996.09624620 0 3930
0.06150000 0.06148310 32738.96935006 0 -83.45858556 0 7917.87763894 0 3409.23785378 0 2789.34546930 0 4083
0.06250000 0.06249100 33280.17924115 0 200.89135565 0 7047.73472191 0 -92.72714821 0 2438.39935990 0 4303
0.06350000 0.06350600 32250.15587019 0 647.27472701 0 7695.92336536 0 -2568.34685353 0 796.14644229 0 4470
0.06450000 0.06451750 30276.00848588 0 1407.03587109 0 9094.50111556 0 -2074.15093310 0 2174.64878765 0 4479
0.06550000 0.06550280 29486.10787155 0 723.74163212 0 10097.20585450 0 -1760.81600022 0 -2376.85279972 0 4636
0.06650000 0.06648880 29093.51924749 0 305.56993853 0 10345.10568852 0 504.83008515 0 -2933.38616956 0 4653
0.06750000 0.06749660 28874.04748732 0 -236.84386171 0 10116.40688738 0 2117.08962732 0 -1808.88448983 0 5220
0.06850000 0.06852730 29247.19341791 0 -634.37444497 0 9548.62531522 0 926.21366777 0 -3217.78773826 0 5029
0.06950000 0.06949320 29462.71073195 0 1029.92011597 0 8292.68223999 0 -396.60128842 0 -1364.49262148 0 5040
0.07050000 0.07048030 28415.55142777 0 698.62430846 0 8758.69174718 0 482.70166369 0 -1592.83991630 0 5475
0.07150000 0.07148790 28453.55804890 0 -508.94270913 0 9759.86963053 0 32.99062591 0 -50.98236718 0 5509
0.07250000 0.07249820 28524.07900488 0 132.72549204 0 9164.17625945 0 929.76278317 0 -1940.96299055 0 5916
0.07350000 0.07351270 28572.96035286 0 -11.30795840 0 8097.14586347 0 856.55170538 0 -261.79751525 0 5721
0.07450000 0.07449140 27580.72391159 0 482.93563508 0 8520.66704391 0 -842.67928866 0 -720.89772628 0 6028
0.07550000 0.07549160 27282.05338310 0 1399.15993255 0 9081.33061304 0 -1042.73691526 0 -1263.87393664 0 6183
0.07650000 0.07648840 26328.59248304 0 1083.99606833 0 10406.87194015 0 -198.72849331 0 -1003.77683323 0 6330
0.07750000 0.07749960 24947.61201812 0 -417.41815192 0 10057.50760920 0 793.32999788 0 953.12916597 0 6583
0.07850000 0.07848650 25086.01763264 0 113.67275090 0 9045.09250809 0 1662.22946130 0 204.57118747 0 6549
0.07950000 0.07947320 24991.44046272 0 94.03299420 0 7880.65092246 0 1431.99281999 0 -527.89768757 0 6828
0.08050000 0.08048110 24404.64459542 0 749.81571206 0 8369.76098579 0 127.93292303 0 875.89663615 0 7147
0.08150000 0.08149960 23953.61804523 0 693.08259159 0 7958.55351121 0 -419.66779238 0 1418.16324311 0 7386
0.08250000 0.08250610 22970.16926202 0 25.41357759 0 7926.69825072 0 698.24863608 0 1356.40797606 0 7227
0.08350000 0.08350160 22831.32426460 0 -13.62702136 0 6925.46544450 0 1110.28764280 0 585.72487147 0 7798
0.08450000 0.08449610 22636.67763845 0 567.55638842 0 7277.08161283 0 508.01890657 0 275.49308034 0 7371
0.08550000 0.08548940 21884.23441663 0 271.37606254 0 5772.72242867 0 126.70924164 0 2314.30664345 0 8256
0.08650000 0.08650700 21651.25163218 0 368.33139243 0 6920.76404744 0 305.39638228 0 125.36912379 0 8037
0.08750000 0.08749060 20911.88005173 0 398.77513534 0 6312.58121733 0 -499.48169676 0 1054.28719333 0 8155
0.08850000 0.08849210 20815.21581302 0 124.64963428 0 5961.29458618 0 143.88801470 0 226.00758086 0 8718
0.08950000 0.08949900 19923.15867369 0 51.05706228 0 5986.49319568 0 101.63409873 0 369.82419584 0 8571
0.09050000 0.09049190 19692.92203238 0 841.63026198 0 6179.11866047 0 138.60663220 0 -21.64466089 0 8932
0.09150000 0.09150830 19566.26991052 0 82.34178406 0 5974.88250246 0 988.07109135 0 1093.48014830 0 9285
0.09250000 0.09250820 19377.66479930 0 -315.82184012 0 5619.99293150 0 574.21194095 0 686.39078998 0 9204
0.09350000 0.09350330 19167.52992581 0 289.30727882 0 4894.33009763 0 287.30588969 0 157.15957529 0 9349
0.09450000 0.09448040 19242.88409372 0 476.26909798 0 5396.62164806 0 -462.88988858 0 629.33582153 0 9564
0.09550000 0.09549270 18175.62302172 0 529.16530725 0 5621.06941962 0 -1199.37252644 0 35.38350520 0 10155
0.09650000 0.09649430 18283.16198729 0 290.89235264 0 6507.21685890 0 604.34152508 0 -293.30676170 0 9913
0.09750000 0.09749140 17574.10782717 0 92.92574928 0 6567.13770233 0 287.38607707 0 408.47341447 0 10476
0.09850000 0.09850240 17099.02506302 0 366.53102098 0 6128.57864202 0 30.01732180 0 975.94851705 0 10575
0.09950000 0.09950330 16690.06942582 0 462.26596486 0 6829.60307959 0 -352.36861155 0 -44.01386418 0 10882
0.10050000 0.10051200 16565.50437275 0 389.47779310 0 6520.06880882 0 358.75174668 0 396.59469768 0 10875
0.10150000 0.10150300 16190.82060200 0 255.44623538 0 7142.88308961 0 99.70169273 0 695.93638355 0 11118
0.10250000 0.10250800 15592.16139631 0 264.92921689 0 6630.16717980 0 -296.63398873 0 701.18371387 0 11575
0.10350000 0.10349800 15457.38069074 0 95.71506180 0 6586.89894840 0 832.64927544 0 663.71423834 0 11364
0.10450000 0.10450100 15496.04638623 0 -344.91557905 0 6347.32542040 0 797.03289730 0 1138.68276293 0 12093
0.10550000 0.10551000 15609.62686672 0 131.39416185 0 5971.54319240 0 58.99407504 0 -20.29191078 0 12067
0.10650000 0.10649700 15657.51960317 0 271.72647040 0 5521.34048515 0 -22.22519555 0 343.31183146 0 12054
0.10750000 0.10749900 15513.07247373 0 -36.92573919 0 5359.50477731 0 184.80005528 0 -147.77655339 0 12807
0.10850000 0.10850100 14935.94303030 0 133.38017257 0 5890.34523187 0 -165.84287992 0 392.29533597 0 12736
0.10950000 0.10950300 14982.18808087 0 377.09927826 0 5118.17371770 0 -1.27798911 0 353.61975437 0 12933
0.11050000 0.11050200 14716.25157868 0 93.27165347 0 6258.77878083 0 291.59646374 0 782.94957679 0 13428
0.11150000 0.11150900 14425.05055955 0 82.43603170 0 5710.17627240 0 -50.16083100 0 -647.07480779 0 13453
0.11250000 0.11250000 14525.55939867 0 272.94246259 0 6270.74098037 0 -350.34635174 0 -24.20878967 0 13668
0.11350000 0.11349100 14303.01195817 0 89.93102526 0 5622.12393858 0 263.30350015 0 -333.79369932 0 13791
0.11450000 0.11448600 14443.61448721 0 -38.37361570 0 6229.41701832 0 211.37393327 0 98.18648078 0 14205
0.11550000 0.11549300 14294.33414583 0 -269.07149921 0 5213.69556086 0 331.28262602 0 -143.13776839 0 14776
0.11650000 0.11649800 14303.12180389 0 186.65864496 0 5661.28393984 0 434.47279931 0 294.44915724 0 14553
0.11750000 0.11747300 14576.30812399 0 -97.40361030 0 4372.80456062 0 811.31943240 0 361.80106403 0 14568
0.11850000 0.11849100 14550.49437842 0 208.76949111 0 5069.22646227 0 203.99339895 0 171.42633816 0 16015
0.11950000 0.11950300 14251.27462131 0 376.71042439 0 5087.76842079 0 -500.05838682 0 217.09140330 0 15270
0.12050000 0.12050700 13795.19516773 0 167.12368108 0 4880.43461332 0 -67.90487017 0 522.66683411 0 15999
0.12150000 0.12150000 13429.18920932 0 93.38765056 0 4769.50141482 0 65.26692506 0 -503.04399365 0 15670
0.12250000 0.12250700 13302.53708746 0 -4.24592176 0 5170.42732947 0 -164.63567539 0 -88.07737864 0 16887
0.12350000 0.12352200 13300.66971012 0 401.00720048 0 4778.65156378 0 23.60617601 0 -857.24593036 0 16407
0.12450000 0.12449800 13003.09763889 0 217.64282884 0 4980.43816210 0 -43.65126344 0 -589.86275996 0 16306
0.12550000 0.12549900 12900.61157671 0 -60.13833797 0 4786.20894972 0 357.18864200 0 -781.29969399 0 17523
0.12650000 0.12650100 12822.40141993 0 48.22359178 0 4343.35492153 0 133.23847158 0 -1334.18618573 0 17154
0.12750000 0.12750600 12528.23456620 0 81.18807441 0 4431.51710106 0 176.50450607 0 -911.18237865 0 18007
0.12850000 0.12850300 12777.25482662 0 184.89342415 0 4335.59981328 0 548.20486690 0 -993.03831507 0 17496
0.12950000 0.12949900 12529.33302346 0 31.52528393 0 3539.00959426 0 374.22900944 0 -434.12568682 0 18405
0.13050000 0.13049000 12540.86682467 0 -99.63117177 0 3440.78554623 0 426.47603047 0 202.21829202 0 18100
0.13150000 0.13148800 12204.73890368 0 226.83032535 0 3182.23067682 0 9.12887184 0 -137.99149614 0 19059
0.13250000 0.13249300 12126.52874690 0 157.87686788 0 3677.57997737 0 329.69535529 0 684.18838317 0 18957
0.13350000 0.13349100 11813.35858261 0 166.34926871 0 3521.41230898 0 -203.42220118 0 375.56693039 0 19468
0.13450000 0.13450700 11875.75095487 0 171.96897605 0 3854.23387362 0 -200.52337247 0 140.74862386 0 19953
0.13550000 0.13551000 11569.50107130 0 239.77015185 0 4008.81976356 0 -78.82265655 0 486.61986073 0 19956
0.13650000 0.13649900 11530.28614718 0 -13.10349663 0 3765.20391285 0 60.07990004 0 207.58205881 0 19723
0.13750000 0.13749600 11637.38572985 0 -109.86439959 0 4018.32141884 0 212.30322811 0 42.82939772 0 20946
0.13850000 0.13851100 11433.07267984 0 188.94892834 0 3540.65728014 0 154.35960774 0 353.83285508 0 20955
0.13950000 0.13949800 11278.73943507 0 -62.56230360 0 3622.74499104 0 161.55999507 0 935.30120467 0 20506
0.14050000 0.14048300 11212.83199958 0 307.02759131 0 3761.97444851 0 -171.89757633 0 206.83400942 0 21447
0.14150000 0.14148400 11066.07810990 0 144.73822062 0 3736.98454589 0 81.53463767 0 712.88557904 0 21771
0.14250000 0.14249400 11010.05678973 0 13.55584133 0 3514.96436488 0 623.28881433 0 1011.12331537 0 22470
0.14350000 0.14350900 11137.36798595 0 -103.55090665 0 3416.87213173 0 374.87490231 0 987.66795754 0 22519
0.14450000 0.14449900 11082.99435167 0 18.38630712 0 3229.46433891 0 203.60015125 0 1217.78267009 0 22218
0.14550000 0.14550500 10990.61409626 0 145.00734265 0 3102.88910906 0 -20.25390415 0 881.16703407 0 23559
0.14650000 0.14650700 10847.58397668 0 162.09823913 0 2877.32091110 0 -379.07320595 0 724.36775276 0 23044
0.14750000 0.14750500 10632.54998383 0 92.17594236 0 3090.57540320 0 37.19508091 0 402.46705018 0 23649
0.14850000 0.14849900 10577.08887687 0 181.85509137 0 3503.61730140 0 -22.29176206 0 312.36389667 0 23640
0.14950000 0.14949500 10165.92534057 0 192.63095707 0 2838.80899963 0 -80.05084161 0 -56.30043815 0 24457
0.15050000 0.15050000 10180.16134664 0 110.11374938 0 3252.04862014 0 130.96136969 0 26.13537385 0 24591
0.15150000 0.15149900 9817.51666744 0 84.87482650 0 2828.81303858 0 26.12746496 0 -131.93460282 0 25020
0.15250000 0.15250500 9769.34931667 0 111.48352559 0 3284.33227896 0 123.55666931 0 -3.88048700 0 25297
0.15350000 0.15350100 9678.06751852 0 147.81829477 0 2862.71142957 0 151.68925815 0 -251.58076429 0 25452
0.15450000 0.15450400 9563.49842649 0 60.34298056 0 2787.07166277 0 214.20465762 0 261.81509056 0 26061
0.15550000 0.15549900 9582.17219988 0 -73.20086214 0 2309.78099954 0 136.10434657 0 -227.84859523 0 26128
0.15650000 0.15649500 9232.40143975 0 214.23541443 0 2485.06182422 0 189.12028768 0 305.76875929 0 26331
0.15750000 0.15749700 9198.68978650 0 122.78335540 0 2303.69554633 0 96.66423872 0 393.76617024 0 27345
0.15850000 0.15849900 9180.65311832 0 144.35376058 0 2308.21020566 0 189.48058166 0 508.29461934 0 26980
0.15950000 0.15949700 9145.62331636 0 95.24349410 0 2331.73916013 0 -161.72476366 0 99.63270961 0 27777
0.16050000 0.16050000 8778.62874641 0 101.86839967 0 2299.10399499 0 -50.48377744 0 572.36872967 0 28224
0.16150000 0.16150500 8686.90756536 0 -2.53203186 0 2459.88518387 0 262.83665581 0 640.36872623 0 28075
0.16250000 0.16249700 8626.00909497 0 50.21509479 0 2215.44549021 0 5.14213107 0 685.38240621 0 28590
0.16350000 0.16349900 8697.83721508 0 103.15754911 0 2433.02790390 0 100.76697657 0 253.91828133 0 29163
0.16450000 0.16449100 8731.09850085 0 165.04320303 0 2216.43410175 0 105.40169728 0 681.13577045 0 28996
0.16550000 0.16550500 8510.57222171 0 -7.23222062 0 2674.06238006 0 -279.44862493 0 203.30576471 0 30777
0.16650000 0.16650700 8388.29195973 0 170.56844304 0 2552.61694560 0 -109.90943633 0 769.32760834 0 29211
0.16750000 0.16749900 8191.59121852 0 40.73068529 0 2708.86150599 0 189.46080943 0 608.26741132 0 30922
0.16850000 0.16850800 8319.56148909 0 -19.93502201 0 2497.12288492 0 175.62134643 0 526.48507154 0 30867
0.16950000 0.16949900 8241.31837860 0 136.81065459 0 2496.60661001 0 383.83611662 0 602.74546668 0 30852
0.17050000 0.17049200 8165.60171979 0 45.73536640 0 2350.31407237 0 -129.38398506 0 713.22170696 0 31257
0.17150000 0.17149500 8102.98965608 0 49.47418537 0 2058.66268576 0 196.65021218 0 790.07856440 0 32608
0.17250000 0.17250900 7859.50562024 0 73.74899232 0 2087.25552819 0 15.49275101 0 744.83420839 0 32361
0.17350000 0.17350400 8016.63993102 0 74.97750691 0 1897.54097514 0 125.59320907 0 697.04692384 0 32508
0.17450000 0.17449800 7922.43623656 0 -73.05575594 0 1894.02591191 0 161.25682087 0 577.51719884 0 32791
0.17550000 0.17549800 7841.21630689 0 113.70790153 0 1764.91324579 0 -89.27184106 0 488.93760554 0 33633
0.17650000 0.17650100 7823.91560508 0 176.38697114 0 2005.17880186 0 -90.44861832 0 438.80731165 0 33984
0.17750000 0.17750300 7670.49407983 0 101.67726810 0 2034.62844095 0 -130.40994414 0 527.22872710 0 34069
0.17850000 0.17849800 7576.35629281 0 -37.96531914 0 1945.29091215 0 246.08408417 0 655.83280751 0 34536
