### header ###
fiducial parameters:
Omega_m = 0.31
Omega_nu = 0
Omega_de = 0.69
Omega_k = 0
H_0 = 100
w_de = -1
zeff = 0
beta = 0
fgrowth = 0
b_1 = 2
gamma = 0.55
Lx = 3500 Ly = 3500 Lz = 3500
nx = 700 ny = 700 nz = 700
xoffset = -983.599254 yoffset = -42.9823471 zoffset = 800.977702
bins = 400 dk = 0.001
kx_ny = 0.628318531 ky_ny = 0.628318531 kz_ny = 0.628318531
############################
A(data) = 9.07516681 (not used)
A(ran) = 9.07247449 (used)
Ngal = 504199
weighted Ngal = 0
Nran = 25229228
weighted Nran = 0
SN(data) = 6725.45247
SN(ran) = 134.674633
SN(data+ran) = 6860.1271
############################
13 columns: k_central k_mean P_0(k) sigma^{lin}_{P_0(k)} P^img_1(k) sigma^{lin}_{P_1(k)} P_2(k) sigma^{lin}_{P_2(k)} P^img_3(k) sigma^{lin}_{P_3(k)} P_4(k) sigma^{lin}_{P_4(k)} N_modes
### header ###
0.00050000 0 0 0 0 0 0 0 0 0 0 0 0
0.00150000 0.00179520 28696.97617731 0 -50143.25568512 0 -30504.81713275 0 -28104.13879509 0 12167.83073981 0 3
0.00250000 0.00253879 40643.68747105 0 -30020.50732763 0 -27156.38987277 0 8150.10248788 0 47345.81458583 0 6
0.00350000 0.00331552 61331.92162503 0 -1438.08925778 0 14127.25879687 0 -71662.80229205 0 13432.92396400 0 7
0.00450000 0.00420575 59913.81330478 0 20854.21104568 0 12976.18543607 0 -35385.15288491 0 36896.63007210 0 24
0.00550000 0.00557378 45384.84868861 0 6314.89896214 0 41273.32317141 0 10728.90665451 0 7532.48390992 0 45
0.00650000 0.00659388 41992.48313831 0 -67.66134219 0 51630.78650409 0 18892.47622838 0 12160.80061335 0 40
0.00750000 0.00754703 42593.33925851 0 -4478.69584030 0 32720.07588522 0 28674.78734069 0 -1077.07908298 0 57
0.00850000 0.00846663 46858.09956322 0 -4460.37357324 0 27877.52706274 0 15221.76160887 0 27323.35537601 0 75
0.00950000 0.00948925 64787.00908476 0 -3012.14555497 0 34805.82652697 0 24312.81356864 0 8994.44264392 0 112
0.01050000 0.01054430 81038.79406459 0 -14816.76041780 0 15486.16027090 0 2870.52146067 0 -20000.27037321 0 105
0.01150000 0.01145670 93430.60023932 0 -1340.04096292 0 35507.19148629 0 -31022.62988423 0 -9654.36281089 0 144
0.01250000 0.01249090 77720.35468776 0 12486.93257329 0 36524.03337014 0 -18735.39684046 0 8978.67978226 0 169
0.01350000 0.01339930 84261.44796850 0 -7330.77420361 0 42984.06050523 0 19867.90627360 0 6540.19254579 0 180
0.01450000 0.01448870 81327.68832347 0 -671.05193282 0 40362.15287579 0 18249.76888664 0 -12810.31839009 0 267
0.01550000 0.01550050 89382.89508883 0 6167.66175126 0 31408.73761046 0 17475.57621111 0 14184.37857429 0 238
0.01650000 0.01653350 81345.48333106 0 5660.56994262 0 44246.73712346 0 -3053.32671757 0 20048.49264684 0 315
0.01750000 0.01747870 75400.41295858 0 9762.28623650 0 43691.02759657 0 14749.86437078 0 26759.18772823 0 297
0.01850000 0.01844180 59747.61672162 0 -935.94160525 0 32680.09204103 0 7932.97044167 0 36866.75203468 0 388
0.01950000 0.01947590 66624.28869472 0 -3118.72886272 0 30989.78601221 0 20541.37041856 0 31155.98259537 0 399
0.02050000 0.02045430 69086.48063883 0 972.59602550 0 18081.70492615 0 13117.11750229 0 17695.48735419 0 462
0.02150000 0.02154770 68149.38675191 0 447.41701964 0 13499.16093666 0 986.05212691 0 29603.97233535 0 571
0.02250000 0.02255340 61765.37285909 0 3605.86170299 0 9881.56771016 0 5062.89934847 0 24352.79741284 0 510
0.02350000 0.02348930 62537.91784873 0 496.58836034 0 16096.57296925 0 -238.27075769 0 24097.95532895 0 555
0.02450000 0.02439640 65159.82547817 0 -4291.73841497 0 1722.72150250 0 8145.36813710 0 20072.32916934 0 592
0.02550000 0.02547300 68450.14434919 0 -42.40286677 0 6697.79919318 0 -3693.06822471 0 2341.29573828 0 837
0.02650000 0.02652900 61557.76443730 0 2874.53082967 0 3177.07891227 0 -11805.66938180 0 5524.09761287 0 723
0.02750000 0.02749970 59352.50164587 0 919.87447094 0 8950.76798333 0 6202.77942981 0 -2889.38197180 0 826
0.02850000 0.02848090 61846.98823337 0 3788.59006788 0 13537.60694070 0 -6992.29558409 0 -516.00688775 0 831
0.02950000 0.02946900 59910.18839582 0 2380.00537205 0 16878.01546269 0 -3940.29799980 0 -10760.33351667 0 996
0.03050000 0.03053250 55317.09921666 0 -841.97517756 0 19292.86389897 0 -7002.70895890 0 -13275.62488463 0 1041
0.03150000 0.03150510 54251.81536772 0 1766.27533279 0 19944.57859022 0 4169.61193701 0 -8959.45678025 0 1036
0.03250000 0.03246190 53798.70174874 0 1344.89614400 0 23054.20124227 0 122.44832594 0 -6995.08566553 0 1059
0.03350000 0.03345080 55069.06756777 0 -196.62824304 0 19802.54806674 0 3625.46916504 0 -10984.68242707 0 1302
0.03450000 0.03451200 54467.66221895 0 404.01148108 0 17392.20330522 0 1520.38567556 0 -9161.77063805 0 1339
0.03550000 0.03553350 52167.49272041 0 944.15916400 0 17220.95381868 0 1007.29189645 0 -2940.03183597 0 1365
0.03650000 0.03647120 51707.78835788 0 1148.01964962 0 20983.38961924 0 -3510.75727358 0 -5039.07381054 0 1308
0.03750000 0.03744890 51703.28468312 0 3.62607332 0 20463.59964469 0 -267.08109466 0 -10562.08395072 0 1579
0.03850000 0.03847530 50389.85933957 0 1669.98456954 0 22483.33300522 0 1232.57888935 0 -10776.19523948 0 1662
0.03950000 0.03950240 50572.53278160 0 855.21158752 0 17860.80517154 0 -3273.87496586 0 -10052.99294986 0 1683
0.04050000 0.04050350 49089.39579167 0 -45.61860039 0 24078.84217266 0 703.31362249 0 -11779.85563623 0 1822
0.04150000 0.04152450 47889.22139143 0 1412.00089790 0 21112.78788424 0 1050.79409925 0 -14505.56747657 0 1887
0.04250000 0.04250150 45891.56702179 0 1720.62344914 0 23334.74722600 0 -119.11670507 0 -10651.39951038 0 1920
0.04350000 0.04349210 43864.69368908 0 548.27077434 0 21355.98632120 0 -129.23569333 0 -8392.66381962 0 2005
0.04450000 0.04448520 44588.90655937 0 1078.35549031 0 23390.87839189 0 2735.26841848 0 -8756.05544976 0 2151
0.04550000 0.04548030 43021.18836056 0 1084.02902205 0 21322.81291200 0 1420.60181823 0 -9720.13843150 0 2274
0.04650000 0.04648670 41755.76559919 0 1128.52203329 0 19308.35214631 0 1196.07715466 0 -2717.37454975 0 2311
0.04750000 0.04749250 41052.75295398 0 -757.42802086 0 17347.49609481 0 6621.98367323 0 -1916.81890002 0 2568
0.04850000 0.04851840 41122.83452705 0 -582.16037767 0 14622.00394593 0 2306.30987461 0 -400.68754942 0 2493
0.04950000 0.04949480 41236.63469899 0 1090.08042308 0 12761.21735065 0 2828.13199508 0 1570.67304883 0 2644
0.05050000 0.05050630 38680.85419649 0 904.40160200 0 13544.08783852 0 -937.05653937 0 4925.09788543 0 2829
0.05150000 0.05149060 38181.27583549 0 1308.91068422 0 14334.09829857 0 1567.89395197 0 4349.94566507 0 2784
0.05250000 0.05249300 36641.01906813 0 919.03524959 0 13919.21099217 0 964.72667770 0 7021.85506891 0 3055
0.05350000 0.05348950 35815.52843865 0 97.06275901 0 13279.90886794 0 477.71686465 0 5905.92135579 0 3009
0.05450000 0.05448610 35502.13858290 0 -1.20427165 0 13230.36844560 0 2373.70022739 0 5344.30212886 0 3336
0.05550000 0.05550870 35365.71019144 0 641.24749204 0 12938.06896921 0 493.63460878 0 4925.37249975 0 3349
0.05650000 0.05647670 34637.10349212 0 1465.30902863 0 13443.46915368 0 -1989.42692478 0 2434.24719146 0 3324
0.05750000 0.05747970 33566.10766544 0 695.06750386 0 14235.45683679 0 273.40820846 0 5029.93464615 0 3639
0.05850000 0.05849280 33012.37536161 0 -470.99650314 0 12500.66328902 0 1181.16010510 0 3759.86541058 0 3846
0.05950000 0.05951020 32478.96451706 0 -250.53832835 0 12725.51748976 0 31.91040304 0 -820.61238080 0 3787
0.06050000 0.06049470 32530.81169965 0 1291.89558129 0 11254.57337539 0 411.86874585 0 455.95313099 0 3930
0.06150000 0.06148310 30751.09125002 0 853.70450416 0 12058.97362552 0 -1796.86736743 0 -1380.62895860 0 4083
0.06250000 0.06249100 30766.90903454 0 25.51957871 0 11295.98521402 0 2341.08703140 0 1241.35556285 0 4303
0.06350000 0.06350600 31722.56684911 0 -396.49913190 0 11148.24271281 0 1306.90050744 0 -2106.59936050 0 4470
0.06450000 0.06451750 31028.78124488 0 -111.61534046 0 8890.15511183 0 -252.54301285 0 -1626.05726379 0 4479
0.06550000 0.06550280 31574.16527354 0 -22.41434989 0 8921.66985057 0 -267.10745763 0 -1826.08633050 0 4636
0.06650000 0.06648880 31008.13024842 0 198.82186218 0 9760.74839634 0 -936.00531577 0 -4207.48674327 0 4653
0.06750000 0.06749660 30227.89605797 0 1349.57557192 0 10670.57857411 0 -707.96998281 0 -3110.12794239 0 5220
0.06850000 0.06852730 29755.55943697 0 -18.04908075 0 10088.83561020 0 -149.72411811 0 -3032.55489082 0 5029
0.06950000 0.06949320 30395.74032701 0 -252.08495617 0 12014.70579802 0 843.51191926 0 -4641.87166600 0 5040
0.07050000 0.07048030 29005.75251257 0 1088.75678209 0 10548.51800358 0 -703.89031256 0 -4504.88306133 0 5475
0.07150000 0.07148790 28677.31379239 0 805.80078314 0 11650.45737122 0 128.47116708 0 -2564.61209886 0 5509
0.07250000 0.07249820 28515.51103826 0 -452.11512133 0 10688.38456626 0 2504.48254855 0 -997.91985913 0 5916
0.07350000 0.07351270 28682.58638723 0 -271.83851304 0 10362.99955726 0 2159.27038603 0 -160.86467162 0 5721
0.07450000 0.07449140 28004.39887605 0 364.85697212 0 9608.99652613 0 96.25121879 0 466.15340509 0 6028
0.07550000 0.07549160 26933.07351220 0 1200.20735396 0 8696.51906637 0 304.77136010 0 1854.69015750 0 6183
0.07650000 0.07648840 26604.52494629 0 494.53644218 0 10644.99550456 0 274.50337035 0 2839.66579629 0 6330
0.07750000 0.07749960 25329.98498967 0 899.79027843 0 10398.47972669 0 -213.45660823 0 3411.03932368 0 6583
0.07850000 0.07848650 25316.03458250 0 394.64603450 0 10830.86545721 0 551.83746506 0 2551.73817979 0 6549
0.07950000 0.07947320 24266.67836380 0 156.87837023 0 11256.98998136 0 268.10925065 0 3046.38446770 0 6828
0.08050000 0.08048110 24479.01015180 0 239.14293275 0 10165.91435600 0 442.10597880 0 1926.68304620 0 7147
0.08150000 0.08149960 23361.32989165 0 -29.93504735 0 10208.95191137 0 161.51166295 0 2915.59116198 0 7386
0.08250000 0.08250610 23717.88911764 0 365.93016486 0 9393.25952063 0 1614.00718767 0 2291.77728508 0 7227
0.08350000 0.08350160 23480.51250415 0 7.65608232 0 8922.59255466 0 -283.02739867 0 1286.45821786 0 7798
0.08450000 0.08449610 23314.64545818 0 310.33834148 0 8368.45382165 0 1670.95121193 0 2525.18846786 0 7371
0.08550000 0.08548940 22656.99909773 0 234.44373260 0 9142.88815778 0 -435.48118307 0 2307.97952964 0 8256
0.08650000 0.08650700 22550.22905224 0 780.40884516 0 9217.33060617 0 -1869.56326877 0 97.52916396 0 8037
0.08750000 0.08749060 21649.05471767 0 713.48973053 0 9997.82842636 0 -337.87776340 0 646.34323526 0 8155
0.08850000 0.08849210 21751.76047130 0 -231.53391933 0 9520.69154715 0 666.38239102 0 -603.70222296 0 8718
0.08950000 0.08949900 20877.16880238 0 -120.68969587 0 10226.65904238 0 365.79395616 0 1114.31898094 0 8571
0.09050000 0.09049190 20964.49615440 0 196.89956198 0 8656.88672849 0 795.62467510 0 131.91702750 0 8932
0.09150000 0.09150830 20960.32201682 0 208.13458281 0 9297.43010943 0 1187.44328062 0 879.16674341 0 9285
0.09250000 0.09250820 20641.54972051 0 303.81789920 0 8111.25005466 0 612.80074442 0 768.68391238 0 9204
0.09350000 0.09350330 20886.39584334 0 -5.00297851 0 7984.24642648 0 1104.15825130 0 2169.49702311 0 9349
0.09450000 0.09448040 20477.87958904 0 165.91098427 0 7870.28148594 0 -136.25483521 0 1185.86150216 0 9564
0.09550000 0.09549270 19325.92746244 0 712.88228367 0 6803.63555000 0 -931.76197538 0 704.13746544 0 10155
0.09650000 0.09649430 18835.68598813 0 850.67056522 0 7415.21261304 0 -105.34479720 0 1310.28375579 0 9913
0.09750000 0.09749140 17984.16192163 0 362.90281666 0 7844.23706435 0 571.00005192 0 647.58229505 0 10476
0.09850000 0.09850240 17494.03029305 0 52.22999494 0 6403.90695377 0 1625.45311230 0 708.25338478 0 10575
0.09950000 0.09950330 17576.41458741 0 -202.84331420 0 5511.60815384 0 1804.96299742 0 1065.25199368 0 10882
0.10050000 0.10051200 17302.89873013 0 122.53620252 0 5045.00547973 0 177.30747832 0 1659.27461127 0 10875
0.10150000 0.10150300 17046.51880608 0 460.71714012 0 4247.98686237 0 -155.53715392 0 2016.74555679 0 11118
0.10250000 0.10250800 16759.38207881 0 -16.56989820 0 4176.77387833 0 448.69562389 0 1585.11776178 0 11575
0.10350000 0.10349800 16501.57416032 0 34.68949990 0 4188.60426300 0 190.44283021 0 2686.45297793 0 11364
0.10450000 0.10450100 16545.40260492 0 242.71621421 0 4022.73721702 0 203.88794705 0 1290.67629374 0 12093
0.10550000 0.10551000 16245.63361918 0 196.53926800 0 4530.20250113 0 -675.50288163 0 1063.67790443 0 12067
0.10650000 0.10649700 15714.30984342 0 450.50258608 0 5049.71786137 0 -590.11101130 0 538.18693671 0 12054
0.10750000 0.10749900 15612.92223849 0 395.54567100 0 5516.91370240 0 -435.83159094 0 1404.00412906 0 12807
0.10850000 0.10850100 15312.38433267 0 140.38942833 0 5804.57768916 0 -374.26525853 0 828.37847362 0 12736
0.10950000 0.10950300 14777.32580223 0 344.46191621 0 6038.59302343 0 430.56009456 0 574.62056705 0 12933
0.11050000 0.11050200 14613.76551649 0 259.51272415 0 6385.34302611 0 25.19553382 0 1058.48000468 0 13428
0.11150000 0.11150900 14305.20887268 0 16.00397302 0 5950.94711881 0 530.33296731 0 1153.69867365 0 13453
0.11250000 0.11250000 14604.09909262 0 58.35015940 0 5899.95673288 0 821.39008854 0 1351.08045836 0 13668
0.11350000 0.11349100 14356.39698091 0 76.93385929 0 5370.68707220 0 32.91263544 0 1309.81141917 0 13791
0.11450000 0.11448600 14241.60819744 0 86.60983974 0 5309.60186407 0 56.77123693 0 1087.14973912 0 14205
0.11550000 0.11549300 14002.25436089 0 70.91760889 0 4739.71125398 0 215.34375780 0 1174.23982437 0 14776
0.11650000 0.11649800 14003.46266387 0 -40.76418823 0 5246.64927861 0 57.86321330 0 399.06512805 0 14553
0.11750000 0.11747300 13888.56403467 0 405.85249545 0 4610.17018953 0 -462.08142404 0 -47.95963250 0 14568
0.11850000 0.11849100 13480.15762610 0 304.07713511 0 5049.03681787 0 253.03512170 0 493.71918998 0 16015
0.11950000 0.11950300 13473.01765392 0 -330.88718141 0 4608.37970420 0 130.32755985 0 172.65551183 0 15270
0.12050000 0.12050700 13436.21933577 0 25.67204458 0 4749.25684755 0 962.29139796 0 42.91167217 0 15999
0.12150000 0.12150000 13421.82954569 0 86.43397673 0 4134.57115047 0 -157.81205890 0 797.09990319 0 15670
0.12250000 0.12250700 13245.19761858 0 151.40585617 0 4090.78664416 0 63.76643245 0 454.52403810 0 16887
0.12350000 0.12352200 13323.40777536 0 157.95925218 0 4332.78776270 0 -53.16994481 0 98.60015979 0 16407
0.12450000 0.12449800 13312.42320278 0 190.70426304 0 4771.23697729 0 -54.62946497 0 424.68774205 0 16306
0.12550000 0.12549900 12912.58476082 0 236.76696970 0 4551.39174164 0 -28.62096294 0 451.20230335 0 17523
0.12650000 0.12650100 12926.97455090 0 -80.09214360 0 4687.00727473 0 -74.14377786 0 305.27884735 0 17154
0.12750000 0.12750600 12791.20523380 0 -28.53671126 0 4919.25409282 0 506.01312362 0 506.07134185 0 18007
0.12850000 0.12850300 12586.56264661 0 219.70683003 0 4505.13570650 0 -94.55761739 0 488.25985741 0 17496
0.12950000 0.12949900 12469.46710289 0 223.48003071 0 4218.66903816 0 95.78360553 0 688.45808654 0 18405
0.13050000 0.13049000 12423.88112668 0 -84.97939963 0 4593.35280890 0 736.22779578 0 1124.79826318 0 18100
0.13150000 0.13148800 12602.16073967 0 15.02645591 0 4092.61008321 0 154.88027648 0 873.74915221 0 19059
0.13250000 0.13249300 12555.47630620 0 -42.16724769 0 3699.26352365 0 139.38104457 0 969.35118276 0 18957
0.13350000 0.13349100 12153.66064118 0 94.39702294 0 3579.02639217 0 -79.25632747 0 645.34034378 0 19468
0.13450000 0.13450700 12232.74956376 0 338.03484279 0 4318.12335831 0 -507.26206952 0 193.81729091 0 19953
0.13550000 0.13551000 11878.82663519 0 387.07107325 0 4114.17279919 0 -145.53679904 0 825.78611449 0 19956
0.13650000 0.13649900 11519.41142033 0 -40.77561219 0 4125.20131006 0 727.69388134 0 703.54429852 0 19723
0.13750000 0.13749600 11634.20020380 0 -61.85302975 0 3895.51389738 0 333.61135541 0 591.18530250 0 20946
0.13850000 0.13851100 11510.29422509 0 203.39803512 0 3727.86735065 0 136.57558473 0 687.51670867 0 20955
0.13950000 0.13949800 11296.97382556 0 132.02907014 0 3433.27209859 0 -116.95274427 0 611.86046501 0 20506
0.14050000 0.14048300 11227.44148112 0 58.84578331 0 3691.54136912 0 123.95321238 0 87.97071844 0 21447
0.14150000 0.14148400 11055.97230312 0 160.11662223 0 3215.88740720 0 -318.16155408 0 237.68198460 0 21771
0.14250000 0.14249400 11044.10896473 0 -56.58054475 0 3241.03109384 0 277.60211828 0 -411.92037334 0 22470
0.14350000 0.14350900 11153.95469055 0 -90.75190237 0 2981.79518092 0 357.85760247 0 -907.91886214 0 22519
0.14450000 0.14449900 10904.58292381 0 202.58188137 0 2612.70255762 0 -90.19981775 0 -709.87690461 0 22218
0.14550000 0.14550500 10716.53802579 0 167.23462526 0 2720.20856947 0 -0.09816473 0 -1051.56411778 0 23559
0.14650000 0.14650700 10583.87734272 0 268.33223747 0 2792.28933475 0 -88.26521483 0 -621.62465158 0 23044
0.14750000 0.14750500 10274.34307195 0 41.36130960 0 2990.35216296 0 161.61821330 0 -363.22796000 0 23649
0.14850000 0.14849900 10272.69538606 0 128.21412808 0 2895.55530159 0 54.03772605 0 -646.63652335 0 23640
0.14950000 0.14949500 10008.96678296 0 121.93864177 0 2895.88483876 0 -24.91136293 0 -445.29589867 0 24457
0.15050000 0.15050000 9761.25368668 0 232.90808936 0 3062.32308252 0 116.15526430 0 -182.20549924 0 24591
0.15150000 0.15149900 9715.41506529 0 136.92050031 0 3094.42000360 0 221.98283347 0 273.79925925 0 25020
0.15250000 0.15250500 9524.71190071 0 168.73401942 0 3144.50965457 0 133.12752740 0 371.37741440 0 25297
0.15350000 0.15350100 9498.20612707 0 152.91733336 0 3006.23585492 0 78.73543904 0 357.89385156 0 25452
0.15450000 0.15450400 9268.36493038 0 -23.67263268 0 3021.76804055 0 222.40573951 0 984.39235799 0 26061
0.15550000 0.15549900 9202.20484972 0 -109.47203065 0 2658.58511729 0 275.88852495 0 651.24015772 0 26128
0.15650000 0.15649500 9198.47009504 0 173.04546416 0 2670.61322427 0 36.85433947 0 958.16778941 0 26331
0.15750000 0.15749700 8959.59957969 0 87.62580286 0 2609.51703157 0 149.38030099 0 1023.93352391 0 27345
0.15850000 0.15849900 8943.73785688 0 41.65064324 0 2622.33602777 0 30.95166955 0 531.79281701 0 26980
0.15950000 0.15949700 9030.81256374 0 202.41711279 0 2713.10155101 0 -189.78155895 0 322.56856459 0 27777
0.16050000 0.16050000 8886.95860121 0 73.15307925 0 2430.76508195 0 -81.76509400 0 673.68273796 0 28224
0.16150000 0.16150500 8571.98696701 0 -49.02557542 0 2662.93500803 0 331.18376487 0 874.97722742 0 28075
0.16250000 0.16249700 8744.82921658 0 85.66417789 0 2171.33144673 0 416.70635162 0 356.71740384 0 28590
0.16350000 0.16349900 8691.14761037 0 104.03389831 0 2404.66573750 0 -101.27303583 0 442.04556365 0 29163
0.16450000 0.16449100 8472.99399891 0 96.45630076 0 2253.03469759 0 -35.81882381 0 764.66355882 0 28996
0.16550000 0.16550500 8475.26780543 0 23.98909821 0 2198.38644899 0 -43.33886220 0 544.85896609 0 30777
0.16650000 0.16650700 8369.56326348 0 27.05763857 0 2030.58611824 0 240.84554150 0 725.44533933 0 29211
0.16750000 0.16749900 8426.18873514 0 -4.98954437 0 2288.92129621 0 -13.63163488 0 215.81389751 0 30922
0.16850000 0.16850800 8340.49808443 0 37.11291631 0 2065.42918247 0 -20.18832626 0 49.95904440 0 30867
0.16950000 0.16949900 8497.17104316 0 68.56592174 0 1875.09949335 0 0.95146610 0 91.17810379 0 30852
0.17050000 0.17049200 8267.20901617 0 45.13297244 0 1951.92559399 0 -146.48806303 0 294.26132105 0 31257
0.17150000 0.17149500 8163.07526810 0 135.69242510 0 1981.11160334 0 112.60724736 0 -144.64155638 0 32608
0.17250000 0.17250900 8074.80324284 0 210.42596465 0 2154.62391183 0 -83.85293171 0 57.31475359 0 32361
0.17350000 0.17350400 8071.96922311 0 68.78001106 0 2386.03590240 0 69.67613249 0 223.79309103 0 32508
0.17450000 0.17449800 7910.40812958 0 3.19065584 0 2188.28064222 0 -60.56530830 0 117.49318524 0 32791
0.17550000 0.17549800 7817.16009294 0 106.61955685 0 2297.89569201 0 74.30997444 0 320.22116143 0 33633
0.17650000 0.17650100 7712.90551457 0 -5.21552998 0 2193.44339133 0 106.59594002 0 340.66894329 0 33984
0.17750000 0.17750300 7713.87215696 0 84.40984954 0 2146.72600414 0 173.70234160 0 377.57820562 0 34069
0.17850000 0.17849800 7746.56224496 0 84.86054656 0 1995.39154769 0 120.11739963 0 365.36665629 0 34536
