### header ###
fiducial parameters:
Omega_m = 0.31
Omega_nu = 0
Omega_de = 0.69
Omega_k = 0
H_0 = 100
w_de = -1
zeff = 0
beta = 0
fgrowth = 0
b_1 = 2
gamma = 0.55
Lx = 3500 Ly = 3500 Lz = 3500
nx = 700 ny = 700 nz = 700
xoffset = -983.599254 yoffset = -42.9823471 zoffset = 800.977702
bins = 400 dk = 0.001
kx_ny = 0.628318531 ky_ny = 0.628318531 kz_ny = 0.628318531
############################
A(data) = 9.07785708 (not used)
A(ran) = 9.06799294 (used)
Ngal = 503529
weighted Ngal = 0
Nran = 25229228
weighted Nran = 0
SN(data) = 6719.53359
SN(ran) = 134.608108
SN(data+ran) = 6854.1417
############################
13 columns: k_central k_mean P_0(k) sigma^{lin}_{P_0(k)} P^img_1(k) sigma^{lin}_{P_1(k)} P_2(k) sigma^{lin}_{P_2(k)} P^img_3(k) sigma^{lin}_{P_3(k)} P_4(k) sigma^{lin}_{P_4(k)} N_modes
### header ###
0.00050000 0 0 0 0 0 0 0 0 0 0 0 0
0.00150000 0.00179520 13061.31587357 0 -4363.98394883 0 -17081.55959262 0 21637.74060791 0 -27828.31617757 0 3
0.00250000 0.00253879 28906.34213071 0 -10962.52654417 0 -29995.57234787 0 10689.74665326 0 3.69668215 0 6
0.00350000 0.00331552 26497.97459225 0 -9917.24560190 0 473.50098569 0 -34534.06820131 0 10177.57997208 0 7
0.00450000 0.00420575 41417.22107223 0 -13052.08883260 0 -30488.23042815 0 -9708.15426282 0 -14611.34891053 0 24
0.00550000 0.00557378 51861.13299112 0 -4044.88211535 0 -21282.16999345 0 -23558.06358658 0 -11287.74678459 0 45
0.00650000 0.00659388 65077.44118381 0 459.20895831 0 -19826.93381787 0 -13707.53827853 0 -10988.30733602 0 40
0.00750000 0.00754703 70678.47474304 0 170.56734459 0 -10219.42020904 0 -27143.86746003 0 -25692.58573058 0 57
0.00850000 0.00846663 67873.23459722 0 2780.32713521 0 19869.88349667 0 -1258.29377377 0 2349.54515229 0 75
0.00950000 0.00948925 58828.09815084 0 910.20145632 0 5218.19923562 0 -13041.87318010 0 -3815.71097758 0 112
0.01050000 0.01054430 56422.58660125 0 1055.57458523 0 19028.90461984 0 1664.79985128 0 1153.98427253 0 105
0.01150000 0.01145670 59869.54547727 0 4751.29997805 0 29581.01457865 0 2738.16834564 0 -16339.66156047 0 144
0.01250000 0.01249090 58820.95817866 0 -3855.98042066 0 20501.16688292 0 7650.24951257 0 473.28898344 0 169
0.01350000 0.01339930 65555.05039965 0 -3361.53185506 0 26503.57672426 0 -1041.41437272 0 -15967.50424142 0 180
0.01450000 0.01448870 65733.76939555 0 3133.41523626 0 21144.53329901 0 1138.17747259 0 364.63508375 0 267
0.01550000 0.01550050 67969.89883593 0 -7338.11189810 0 30570.72456823 0 9414.38285370 0 6448.80090191 0 238
0.01650000 0.01653350 75791.24405103 0 -6969.04124393 0 8460.30681758 0 9149.83040765 0 -4472.14903504 0 315
0.01750000 0.01747870 82419.22530088 0 4525.42421206 0 14872.89158369 0 -5594.33296995 0 -20093.63924015 0 297
0.01850000 0.01844180 80981.45459571 0 2075.45809724 0 12400.59383280 0 -11963.07830689 0 -7048.09721280 0 388
0.01950000 0.01947590 77835.58285414 0 5775.23789579 0 27897.51898484 0 -5668.65458804 0 -4103.18822661 0 399
0.02050000 0.02045430 68380.50215902 0 2764.09193693 0 23901.99055410 0 -1471.57023500 0 -4748.94927952 0 462
0.02150000 0.02154770 64832.37536952 0 2765.16842505 0 27729.01564144 0 16933.48755422 0 8292.48451768 0 571
0.02250000 0.02255340 67411.77270307 0 -3801.05755776 0 20579.15734824 0 18091.04181284 0 10385.07854814 0 510
0.02350000 0.02348930 65538.35384933 0 833.98829484 0 16682.05068783 0 5214.39857351 0 9300.47283603 0 555
0.02450000 0.02439640 65140.38278470 0 2006.84845689 0 12400.70367853 0 -173.43321957 0 18084.34122357 0 592
0.02550000 0.02547300 61561.27950053 0 2728.26026117 0 12509.34110136 0 -1438.24304179 0 17918.91356049 0 837
0.02650000 0.02652900 60112.41437705 0 1837.68603914 0 16409.41359637 0 -3786.37118422 0 5672.67494160 0 723
0.02750000 0.02749970 58086.63950159 0 3372.81301110 0 18444.19582133 0 -3960.52059792 0 2735.90552369 0 826
0.02850000 0.02848090 51290.37459979 0 -718.35809310 0 22552.09642958 0 -2771.97886005 0 -1361.96616979 0 831
0.02950000 0.02946900 55954.42411783 0 1342.91892093 0 24083.67538460 0 -2197.37586832 0 -5310.19503099 0 996
0.03050000 0.03053250 52399.92627623 0 2531.52656624 0 21352.58110370 0 1521.25345679 0 -5844.74827109 0 1041
0.03150000 0.03150510 51409.77690375 0 1696.64412720 0 25696.65002244 0 2706.20323943 0 -1848.12138309 0 1036
0.03250000 0.03246190 53018.13802111 0 -2452.03121447 0 21414.97347596 0 3085.45659237 0 -1925.65049637 0 1059
0.03350000 0.03345080 56583.29089811 0 -3723.17693816 0 16358.66487104 0 16067.57369763 0 6863.73214660 0 1302
0.03450000 0.03451200 55430.89938860 0 -293.54293001 0 13219.60356447 0 3059.00574160 0 11266.10717660 0 1339
0.03550000 0.03553350 53289.56680960 0 4178.12498076 0 8103.50593099 0 2072.54718550 0 15582.27528099 0 1365
0.03650000 0.03647120 51184.59316583 0 2434.42294462 0 17152.73962294 0 -1957.59363344 0 21445.29089628 0 1308
0.03750000 0.03744890 49216.92667934 0 1334.39489261 0 12590.62693846 0 4976.63749999 0 24298.75331574 0 1579
0.03850000 0.03847530 46754.95442668 0 2813.43463697 0 16803.32036913 0 -4006.51300332 0 21434.63586088 0 1662
0.03950000 0.03950240 42219.31456212 0 2552.95746735 0 17357.82159304 0 1460.94815332 0 18326.88058616 0 1683
0.04050000 0.04050350 40954.66072083 0 447.65208949 0 23838.49972458 0 -2433.22562621 0 18273.38571769 0 1822
0.04150000 0.04152450 39338.17101976 0 1524.83442745 0 20631.11437655 0 1713.45052325 0 14897.27733482 0 1887
0.04250000 0.04250150 39005.00893337 0 -169.04158745 0 22867.79304557 0 1254.72378768 0 14062.44981864 0 1920
0.04350000 0.04349210 40474.19551612 0 -978.44421194 0 19520.57408858 0 3117.89403521 0 10232.45889670 0 2005
0.04450000 0.04448520 41193.79486592 0 -1478.05113283 0 16561.22038944 0 3263.83506652 0 9185.68405256 0 2151
0.04550000 0.04548030 42701.42745271 0 -747.39690918 0 15326.66427702 0 1906.78998525 0 8287.68425946 0 2274
0.04650000 0.04648670 42778.53915223 0 1275.44069156 0 12443.76320305 0 -196.53048034 0 7060.83931700 0 2311
0.04750000 0.04749250 40685.75838404 0 734.10667481 0 12880.83934606 0 508.24848414 0 4611.08190905 0 2568
0.04850000 0.04851840 39800.18214253 0 458.14784859 0 13725.88251474 0 768.03142877 0 5648.53085107 0 2493
0.04950000 0.04949480 39477.01601719 0 1823.82350854 0 13971.82709484 0 -773.88730442 0 3846.84125628 0 2644
0.05050000 0.05050630 37422.90094447 0 728.42435542 0 12995.40843808 0 258.04957908 0 4146.48941172 0 2829
0.05150000 0.05149060 35986.66807946 0 -720.64288420 0 15013.27442128 0 1088.68318545 0 1464.32041710 0 2784
0.05250000 0.05249300 36508.76481426 0 1906.50438636 0 14724.27031666 0 -1162.04694881 0 1699.85162239 0 3055
0.05350000 0.05348950 37265.60186511 0 76.98669509 0 12901.71003397 0 -408.42398389 0 1377.19078739 0 3009
0.05450000 0.05448610 36340.59100804 0 -1826.34996024 0 11717.46326397 0 2021.60073787 0 -2958.72757850 0 3336
0.05550000 0.05550870 35994.02774309 0 174.63053798 0 12131.47180456 0 2811.49036762 0 2501.86822027 0 3349
0.05650000 0.05647670 37528.46268698 0 263.11566396 0 10856.98677081 0 551.88140335 0 275.84348821 0 3324
0.05750000 0.05747970 36146.60345625 0 934.88818474 0 10109.09116204 0 -83.39937871 0 1800.78885984 0 3639
0.05850000 0.05849280 34985.53413440 0 1509.10451952 0 10980.26662889 0 -696.75253729 0 45.76744135 0 3846
0.05950000 0.05951020 33003.91724073 0 698.58037017 0 12887.10055243 0 -625.82734905 0 2389.32028960 0 3787
0.06050000 0.06049470 32917.13911733 0 1046.89457598 0 13082.51609865 0 1403.22422440 0 1374.46661339 0 3930
0.06150000 0.06148310 32522.79296166 0 -36.89036887 0 12057.32593964 0 -1053.27002191 0 402.78779970 0 4083
0.06250000 0.06249100 31410.82467925 0 619.72871435 0 12142.23668569 0 1662.05370814 0 747.66053892 0 4303
0.06350000 0.06350600 31468.71337676 0 101.35992380 0 11312.35222717 0 1284.23933420 0 1095.82535454 0 4470
0.06450000 0.06451750 30582.25836944 0 461.84196035 0 10917.56668860 0 1688.55948178 0 2261.88826309 0 4479
0.06550000 0.06550280 30449.56473266 0 307.42523283 0 10484.79649804 0 33.79810184 0 873.36359371 0 4636
0.06650000 0.06648880 30435.83401693 0 157.51657390 0 10140.99036081 0 -857.31733009 0 2733.00559653 0 4653
0.06750000 0.06749660 28943.36014031 0 -205.18083125 0 10214.30139822 0 -400.33274773 0 353.53846853 0 5220
0.06850000 0.06852730 29143.27936129 0 246.38615991 0 9877.66818689 0 1006.41862293 0 -918.77711214 0 5029
0.06950000 0.06949320 29859.25380214 0 1050.15040329 0 11047.29449078 0 -612.31522632 0 498.62819547 0 5040
0.07050000 0.07048030 28920.18269216 0 948.20148671 0 11896.84133422 0 -788.50337669 0 -487.21632302 0 5475
0.07150000 0.07148790 28528.03345101 0 481.38351498 0 12224.40128860 0 -60.50027963 0 229.82362138 0 5509
0.07250000 0.07249820 27660.47190853 0 -177.26793386 0 11991.41850415 0 1295.23489136 0 254.27418148 0 5916
0.07350000 0.07351270 27228.88805181 0 -179.76253029 0 11748.98898728 0 1965.21692681 0 2502.25268031 0 5721
0.07450000 0.07449140 27187.58605891 0 26.43920713 0 10349.79610101 0 2060.21151049 0 2827.68162761 0 6028
0.07550000 0.07549160 27014.68888647 0 352.69375490 0 9430.98054287 0 -31.70180601 0 3351.81050833 0 6183
0.07650000 0.07648840 26724.47647888 0 807.04863058 0 8991.46582475 0 -140.02693744 0 2807.47001406 0 6330
0.07750000 0.07749960 26117.46899803 0 42.64375845 0 9633.06372465 0 1224.68098167 0 3253.37775342 0 6583
0.07850000 0.07848650 25540.22970888 0 239.85363460 0 9579.67870191 0 174.39546813 0 2525.36422102 0 6549
0.07950000 0.07947320 25779.03431680 0 463.74668524 0 8777.04696796 0 -300.94982730 0 1540.95978000 0 6828
0.08050000 0.08048110 24450.23057163 0 555.52608453 0 9337.82038281 0 -1240.49876618 0 1177.31550470 0 7147
0.08150000 0.08149960 24202.30876847 0 530.73500267 0 10167.66090304 0 432.48129630 0 10.92700244 0 7386
0.08250000 0.08250610 23395.05252947 0 554.85163177 0 9998.05910239 0 -1473.73419580 0 -549.44722206 0 7227
0.08350000 0.08350160 22866.80443403 0 255.57365642 0 10037.13122706 0 1266.42235748 0 1022.41765290 0 7798
0.08450000 0.08449610 23125.27142687 0 -681.70916514 0 9144.08547619 0 2110.03753172 0 -587.70538991 0 7371
0.08550000 0.08548940 23107.80595647 0 157.25843645 0 8174.79580704 0 1208.43479882 0 866.47736516 0 8256
0.08650000 0.08650700 22714.22872088 0 959.41673531 0 8036.60988397 0 572.69277456 0 1852.44930469 0 8037
0.08750000 0.08749060 21977.38359212 0 289.76094167 0 8253.07187126 0 -830.95765126 0 2806.42647966 0 8155
0.08850000 0.08849210 21352.03187507 0 413.38681378 0 7992.35304104 0 938.53725975 0 1826.59162083 0 8718
0.08950000 0.08949900 20811.59090406 0 188.80393199 0 8963.14759663 0 -624.62234144 0 2814.91755427 0 8571
0.09050000 0.09049190 20006.75127103 0 545.39830861 0 7852.82700011 0 -324.33817924 0 1537.91705340 0 8932
0.09150000 0.09150830 20163.17158459 0 520.30624946 0 8848.69933491 0 86.78021046 0 1117.18595439 0 9285
0.09250000 0.09250820 19803.86621545 0 101.52381363 0 8524.43475231 0 123.68189344 0 943.11892498 0 9204
0.09350000 0.09350330 19186.20369920 0 232.56317378 0 8615.63965845 0 365.45233595 0 1230.07440680 0 9349
0.09450000 0.09448040 19210.47960461 0 213.14684328 0 8149.09190720 0 914.55683935 0 262.24019352 0 9564
0.09550000 0.09549270 18667.95156482 0 308.44020734 0 7455.19645724 0 -52.23977121 0 -61.86994599 0 10155
0.09650000 0.09649430 18264.59805963 0 220.79649963 0 7485.89833760 0 367.14615704 0 218.96427292 0 9913
0.09750000 0.09749140 17278.73267045 0 640.84435822 0 7695.11050699 0 -520.18541916 0 127.90216622 0 10476
0.09850000 0.09850240 17289.38770586 0 501.40619388 0 7623.85358465 0 155.22958589 0 -459.73402088 0 10575
0.09950000 0.09950330 16789.91919058 0 -471.58637469 0 7138.48926057 0 765.33032237 0 -634.31402982 0 10882
0.10050000 0.10051200 16558.03486339 0 160.17923430 0 6525.35238823 0 607.92249574 0 -1073.71340994 0 10875
0.10150000 0.10150300 16563.30745823 0 224.97503104 0 6009.49489066 0 36.92958379 0 -785.71988600 0 11118
0.10250000 0.10250800 16413.91727112 0 79.61640176 0 5871.60555105 0 464.51670378 0 -847.09948067 0 11575
0.10350000 0.10349800 16687.87251130 0 15.83151523 0 5107.39785199 0 1072.35681522 0 -526.40488416 0 11364
0.10450000 0.10450100 16082.18317917 0 110.15549076 0 5458.94811289 0 102.61941490 0 328.97037350 0 12093
0.10550000 0.10551000 16211.91098135 0 456.06187826 0 4804.93764597 0 187.98008904 0 221.18095967 0 12067
0.10650000 0.10649700 15880.83596375 0 -143.13117765 0 4740.26048261 0 270.98830712 0 760.10166583 0 12054
0.10750000 0.10749900 15523.06843478 0 16.94908565 0 5456.94892068 0 376.50281597 0 1057.01576116 0 12807
0.10850000 0.10850100 16048.13100417 0 386.50976159 0 5084.38517244 0 -262.21822438 0 874.42140805 0 12736
0.10950000 0.10950300 15141.35453758 0 185.28557339 0 5115.76809630 0 -347.81440776 0 1072.60726348 0 12933
0.11050000 0.11050200 15018.65686184 0 101.19965889 0 5618.82856681 0 278.10740861 0 1125.91868959 0 13428
0.11150000 0.11150900 14767.21999545 0 369.20905978 0 5611.16133515 0 461.55526301 0 1336.17439337 0 13453
0.11250000 0.11250000 14771.28428731 0 139.11302100 0 5901.59343420 0 71.84932033 0 1625.45311230 0 13668
0.11350000 0.11349100 14722.73247650 0 66.85650256 0 5193.33016330 0 303.82998223 0 971.32950428 0 13791
0.11450000 0.11448600 14380.01381196 0 6.59476390 0 5132.28889346 0 258.33847334 0 1779.92915651 0 14205
0.11550000 0.11549300 14386.60455551 0 101.72757745 0 5472.88753549 0 148.70804515 0 1650.50892235 0 14776
0.11650000 0.11649800 14251.60415849 0 55.80338624 0 4978.19730929 0 -74.49341680 0 1484.07067860 0 14553
0.11750000 0.11747300 14024.11366033 0 116.44196165 0 5002.35238440 0 214.43533365 0 1304.12141057 0 14568
0.11850000 0.11849100 14005.33004121 0 322.51803556 0 4962.50035507 0 -165.15524568 0 848.39346332 0 16015
0.11950000 0.11950300 13949.63825823 0 161.49848146 0 4975.52805815 0 -25.08887362 0 1518.73798967 0 15270
0.12050000 0.12050700 13482.24469489 0 -114.07258934 0 4961.24811380 0 823.47166505 0 1555.37153923 0 15999
0.12150000 0.12150000 13930.74479339 0 -223.09337376 0 4681.56991131 0 591.13037964 0 1655.89136292 0 15670
0.12250000 0.12250700 13939.86198863 0 239.11547132 0 4152.53092664 0 -60.13009954 0 1107.56346880 0 16887
0.12350000 0.12352200 13553.75426239 0 250.65915865 0 4240.60522960 0 -324.81381123 0 1581.54777569 0 16407
0.12450000 0.12449800 13452.91588610 0 -27.14782191 0 4391.12682768 0 -404.14000058 0 1129.38981452 0 16306
0.12550000 0.12549900 13427.76121489 0 83.73737401 0 4549.08498140 0 606.10564744 0 958.27324131 0 17523
0.12650000 0.12650100 13213.34235810 0 114.34500674 0 3955.54458654 0 330.45988154 0 1458.24594846 0 17154
0.12750000 0.12750600 13226.63369092 0 -48.27379128 0 3920.17426283 0 346.79064559 0 1083.80273985 0 18007
0.12850000 0.12850300 12950.15199905 0 218.28542634 0 3485.15223489 0 147.13834973 0 1275.48462986 0 17496
0.12950000 0.12949900 12854.14683469 0 304.96578703 0 3688.81719512 0 10.73872686 0 1198.39489948 0 18405
0.13050000 0.13049000 12442.77459152 0 232.27977181 0 4003.17369325 0 -186.85746572 0 1614.62232373 0 18100
0.13150000 0.13148800 12332.48948280 0 175.48843310 0 4073.23329718 0 -135.20251316 0 703.21915517 0 19059
0.13250000 0.13249300 12101.48392141 0 79.83499476 0 4342.47615572 0 -223.58108878 0 653.06030139 0 18957
0.13350000 0.13349100 12139.16100537 0 -114.31534840 0 3854.03615132 0 440.55056332 0 727.23252929 0 19468
0.13450000 0.13450700 12137.40347376 0 -12.50560635 0 3846.68747226 0 501.90818884 0 786.67334690 0 19953
0.13550000 0.13551000 12190.67865077 0 320.01904530 0 4057.74504984 0 -600.64851178 0 502.34537483 0 19956
0.13650000 0.13649900 11861.36116479 0 286.07012528 0 4095.48804123 0 147.64473852 0 1147.56928215 0 19723
0.13750000 0.13749600 11667.81299590 0 -51.45470381 0 4189.59287453 0 501.83788758 0 1296.00381144 0 20946
0.13850000 0.13851100 11662.10101816 0 -24.50899803 0 3539.27322400 0 366.01804144 0 1382.22172163 0 20955
0.13950000 0.13949800 11357.49882048 0 206.41220183 0 4001.55896108 0 519.95254622 0 1904.09876497 0 20506
0.14050000 0.14048300 11234.58145329 0 196.60956926 0 3527.21216330 0 -458.07535042 0 1744.66867852 0 21447
0.14150000 0.14148400 11090.35401530 0 239.82068088 0 4029.27303771 0 21.19945616 0 1829.05216509 0 21771
0.14250000 0.14249400 10854.98757860 0 209.78336716 0 3817.58933949 0 -165.15744259 0 1481.56619605 0 22470
0.14350000 0.14350900 10669.01876480 0 15.57810114 0 4025.34056072 0 12.74847525 0 992.56927382 0 22519
0.14450000 0.14449900 10565.65393681 0 184.49797953 0 4018.28846513 0 -162.02683940 0 835.07906289 0 22218
0.14550000 0.14550500 10503.84374689 0 -14.26522503 0 3592.39461700 0 455.19299857 0 1059.97720192 0 23559
0.14650000 0.14650700 10531.22828634 0 -13.19400951 0 3760.24987062 0 127.18157826 0 665.88918371 0 23044
0.14750000 0.14750500 10322.60928387 0 236.67799467 0 3340.24375340 0 -56.80594818 0 430.97091757 0 23649
0.14850000 0.14849900 10139.44153608 0 170.24329969 0 3714.78472470 0 -257.79583545 0 1044.87671000 0 23640
0.14950000 0.14949500 9790.82415607 0 -44.62735256 0 3474.00289372 0 193.45260310 0 309.15749993 0 24457
0.15050000 0.15050000 10110.50817190 0 107.85685910 0 3468.14811653 0 334.75375096 0 247.66476416 0 24591
0.15150000 0.15149900 10022.07137805 0 -36.62355360 0 3301.10572129 0 -154.19154378 0 126.89158555 0 25020
0.15250000 0.15250500 9742.31628355 0 183.58406309 0 3539.35011601 0 -84.87054252 0 376.19964177 0 25297
0.15350000 0.15350100 9873.43912645 0 113.28609395 0 3165.96252482 0 166.62937532 0 24.60313582 0 25452
0.15450000 0.15450400 9777.33510094 0 152.26704667 0 3583.95846526 0 -112.27002098 0 -3.22478491 0 26061
0.15550000 0.15549900 9500.37008787 0 66.02859532 0 3550.16992000 0 -24.90949555 0 44.88823616 0 26128
0.15650000 0.15649500 9212.35459479 0 81.16841202 0 3444.81688437 0 399.81207899 0 206.45394321 0 26331
0.15750000 0.15749700 9327.95623663 0 130.59558342 0 3211.43865531 0 250.23735106 0 704.40548901 0 27345
0.15850000 0.15849900 9140.17496836 0 10.05570614 0 3231.12300937 0 261.33726165 0 431.43556499 0 26980
0.15950000 0.15949700 9072.60886241 0 121.26748438 0 3095.15596996 0 36.74130822 0 853.81105452 0 27777
0.16050000 0.16050000 8908.00504228 0 38.95118453 0 2818.59738608 0 316.32163817 0 1181.72031830 0 28224
0.16150000 0.16150500 8941.98032527 0 12.64060674 0 2763.18021741 0 508.68676858 0 1628.13334801 0 28075
0.16250000 0.16249700 8766.49079371 0 24.40530367 0 2316.36075852 0 383.60983443 0 1309.36105170 0 28590
0.16350000 0.16349900 8998.59481235 0 172.02829274 0 2483.69973722 0 -343.72485139 0 1247.72661494 0 29163
0.16450000 0.16449100 8575.19446221 0 180.19751937 0 2365.02241505 0 -336.26522815 0 1175.53600394 0 28996
0.16550000 0.16550500 8472.78529203 0 78.63317267 0 2885.20783422 0 -231.42956589 0 739.65608088 0 30777
0.16650000 0.16650700 8347.42934973 0 78.58264364 0 2663.18765320 0 -280.26697558 0 588.27768614 0 29211
0.16750000 0.16749900 8355.38218028 0 -24.77647238 0 2828.38464025 0 396.30909879 0 257.99026239 0 30922
0.16850000 0.16850800 8477.13518277 0 34.26604463 0 2566.90787453 0 148.19726252 0 162.52004671 0 30867
0.16950000 0.16949900 8382.05272251 0 75.55990895 0 2254.52859946 0 289.78291081 0 485.83446379 0 30852
0.17050000 0.17049200 8318.68272329 0 8.74228080 0 2353.89504303 0 254.70477673 0 619.20035641 0 31257
0.17150000 0.17149500 8123.86034398 0 80.43936594 0 2215.90684226 0 105.75551037 0 711.26205921 0 32608
0.17250000 0.17250900 8102.13285942 0 161.32272830 0 2358.56348638 0 -206.85817548 0 700.61690993 0 32361
0.17350000 0.17350400 7870.10573278 0 202.39624210 0 2287.17474917 0 35.98425147 0 837.23862986 0 32508
0.17450000 0.17449800 7911.24295710 0 -50.65414816 0 2464.10325974 0 17.76337201 0 1044.94261743 0 32791
0.17550000 0.17549800 7949.16170165 0 71.58755797 0 2592.58980522 0 -224.65318306 0 702.00865527 0 33633
0.17650000 0.17650100 7740.89420551 0 96.27648330 0 2612.54877360 0 96.56834340 0 1072.25905253 0 33984
0.17750000 0.17750300 7817.41273811 0 -31.76046362 0 2627.58665347 0 121.92106645 0 739.59456727 0 34069
0.17850000 0.17849800 7724.19765518 0 36.94452281 0 2588.50354422 0 125.62835970 0 830.25463862 0 34536
