### header ###
fiducial parameters:
Omega_m = 0.31
Omega_nu = 0
Omega_de = 0.69
Omega_k = 0
H_0 = 100
w_de = -1
zeff = 0
beta = 0
fgrowth = 0
b_1 = 2
gamma = 0.55
Lx = 3500 Ly = 3500 Lz = 3500
nx = 700 ny = 700 nz = 700
xoffset = -983.599254 yoffset = -42.9823471 zoffset = 800.977702
bins = 400 dk = 0.001
kx_ny = 0.628318531 ky_ny = 0.628318531 kz_ny = 0.628318531
############################
A(data) = 9.15688852 (not used)
A(ran) = 9.15208442 (used)
Ngal = 508480
weighted Ngal = 0
Nran = 25229228
weighted Nran = 0
SN(data) = 6720.6838
SN(ran) = 135.856388
SN(data+ran) = 6856.54018
############################
13 columns: k_central k_mean P_0(k) sigma^{lin}_{P_0(k)} P^img_1(k) sigma^{lin}_{P_1(k)} P_2(k) sigma^{lin}_{P_2(k)} P^img_3(k) sigma^{lin}_{P_3(k)} P_4(k) sigma^{lin}_{P_4(k)} N_modes
### header ###
0.00050000 0 0 0 0 0 0 0 0 0 0 0 0
0.00150000 0.00179520 49247.13425394 0 -40235.50075393 0 -68298.77693902 0 30012.81812683 0 -83653.01249322 0 3
0.00250000 0.00253879 81802.55139617 0 -20469.31162243 0 -11691.21013550 0 -33478.23108479 0 29988.54222142 0 6
0.00350000 0.00331552 71283.50500082 0 17161.96666391 0 2509.19493018 0 -49823.38493155 0 114360.38514436 0 7
0.00450000 0.00420575 70007.64689550 0 3115.75204355 0 -14627.27654077 0 -25485.30684597 0 13346.80491496 0 24
0.00550000 0.00557378 63522.35524347 0 -2823.21090657 0 -17128.13418036 0 748.94573391 0 -18596.99122594 0 45
0.00650000 0.00659388 79052.34395898 0 -554.38368898 0 -5862.57623239 0 -25970.82495407 0 -3027.55691030 0 40
0.00750000 0.00754703 60480.28771280 0 -5624.32085310 0 -24840.18289827 0 -27424.85282666 0 -22888.66373347 0 57
0.00850000 0.00846663 81440.39003816 0 -2504.50451769 0 -3501.54121718 0 -5587.67631897 0 -50039.12193705 0 75
0.00950000 0.00948925 79425.59973529 0 -7280.00350914 0 -18093.45841881 0 -14500.40472745 0 -43703.00078068 0 112
0.01050000 0.01054430 89294.57912527 0 3547.33590027 0 -18842.60626886 0 -10610.38311636 0 -10275.59531323 0 105
0.01150000 0.01145670 86503.61892380 0 4603.41467739 0 3460.39300829 0 -11366.39632427 0 -25968.18865665 0 144
0.01250000 0.01249090 84815.72950095 0 444.53247088 0 -4770.61085665 0 1543.88167631 0 -9477.47823861 0 169
0.01350000 0.01339930 79863.66448983 0 803.44678923 0 -7896.32590753 0 787.43128241 0 -36002.59570971 0 180
0.01450000 0.01448870 80515.26933536 0 1767.28591347 0 4340.70763953 0 -7480.09848328 0 -20790.93990761 0 267
0.01550000 0.01550050 65814.61584975 0 6105.59891618 0 15847.00348020 0 -8012.19117912 0 7730.75544502 0 238
0.01650000 0.01653350 67199.11137790 0 1412.35240422 0 19941.83244707 0 -7045.42796167 0 -14376.27905728 0 315
0.01750000 0.01747870 69301.99795287 0 1357.50643332 0 27102.12608422 0 -384.96972451 0 2141.51931674 0 297
0.01850000 0.01844180 67777.00974140 0 -2734.37866810 0 19977.86184514 0 3016.93482861 0 -7797.29998571 0 388
0.01950000 0.01947590 71524.39667753 0 2655.12497693 0 31136.21036472 0 7072.38410278 0 -5701.90488924 0 399
0.02050000 0.02045430 71858.65722118 0 4196.05180321 0 29453.37384526 0 -6359.47435768 0 -2133.90700794 0 462
0.02150000 0.02154770 67684.51964027 0 3315.04514390 0 39146.38038249 0 -835.22735462 0 5873.67065070 0 571
0.02250000 0.02255340 64357.73198828 0 -1409.38656962 0 31423.23724627 0 18286.12782189 0 10085.24365496 0 510
0.02350000 0.02348930 74386.86644650 0 -4069.98186369 0 33369.48381623 0 8606.70920094 0 8445.31287600 0 555
0.02450000 0.02439640 71171.35251476 0 -1540.81698056 0 25708.51336083 0 -2848.47542350 0 3139.61053520 0 592
0.02550000 0.02547300 67616.85467317 0 3667.02380312 0 24690.57301971 0 -1065.90667420 0 12169.03904279 0 837
0.02650000 0.02652900 64911.02490921 0 5320.49856007 0 32790.48699547 0 -1024.18287371 0 19266.50092477 0 723
0.02750000 0.02749970 63408.55507153 0 -1702.48791981 0 32193.03609277 0 13038.46796260 0 22675.23348822 0 826
0.02850000 0.02848090 62529.78926502 0 645.83904338 0 32610.44985086 0 7737.14846626 0 14424.72102237 0 831
0.02950000 0.02946900 66639.00802198 0 3698.59346472 0 27312.26095770 0 1110.83687143 0 13467.96475053 0 996
0.03050000 0.03053250 60144.04994608 0 783.26703094 0 29923.18401456 0 2710.17965470 0 26377.14429385 0 1041
0.03150000 0.03150510 58130.24825474 0 -1646.40069221 0 30224.16130329 0 4500.58809346 0 21002.17323835 0 1036
0.03250000 0.03246190 57208.86230662 0 2382.15834828 0 29871.00729480 0 2716.58366052 0 20877.05895665 0 1059
0.03350000 0.03345080 55032.48894108 0 2699.23902041 0 24305.23421356 0 298.70787603 0 17450.20184845 0 1302
0.03450000 0.03451200 54549.27759322 0 1400.73072643 0 28175.20897969 0 4329.02005431 0 19177.74557832 0 1339
0.03550000 0.03553350 53068.99659216 0 -0.77266033 0 24682.66412746 0 -1139.57251331 0 10860.12835857 0 1365
0.03650000 0.03647120 49883.25085212 0 130.80978258 0 24958.37689925 0 -1373.80753903 0 14464.04579221 0 1308
0.03750000 0.03744890 48772.71056415 0 2657.73930520 0 26127.35511335 0 1177.32648927 0 8087.30368643 0 1579
0.03850000 0.03847530 48045.20232209 0 492.33293692 0 21447.92719370 0 5617.11497349 0 5533.84092875 0 1662
0.03950000 0.03950240 49085.00196264 0 17.81104506 0 22739.60308354 0 4371.47542733 0 5792.68139705 0 1683
0.04050000 0.04050350 48217.76995734 0 1010.91131312 0 19373.82019889 0 627.57609300 0 4965.36732852 0 1822
0.04150000 0.04152450 46068.85802325 0 1773.81074958 0 18826.12940999 0 -1329.05639033 0 4566.73718954 0 1887
0.04250000 0.04250150 44002.00084634 0 1004.33265260 0 22286.48946456 0 -1161.94808765 0 6501.98820235 0 1920
0.04350000 0.04349210 42838.73460998 0 23.48117158 0 18185.72882849 0 2511.96304247 0 -936.84783249 0 2005
0.04450000 0.04448520 42498.43255141 0 1481.66505721 0 20567.51370131 0 -2222.16804863 0 -20.21326124 0 2151
0.04550000 0.04548030 39169.77752209 0 1299.95825757 0 19605.70452608 0 874.01607732 0 80.39740487 0 2274
0.04650000 0.04648670 41043.08653011 0 -496.10503915 0 22607.01929249 0 3028.73225956 0 2829.82361926 0 2311
0.04750000 0.04749250 38084.83128823 0 721.17014368 0 17944.83715179 0 3248.10515859 0 2260.89965155 0 2568
0.04850000 0.04851840 40580.96556161 0 366.70018340 0 16025.28309320 0 716.42370987 0 -2328.21311233 0 2493
0.04950000 0.04949480 38120.53114912 0 1016.42556855 0 16178.73757216 0 2024.36885016 0 1458.13610274 0 2644
0.05050000 0.05050630 36856.20684500 0 1570.99160144 0 19595.70856504 0 -2754.05203759 0 479.27228013 0 2829
0.05150000 0.05149060 33021.60240258 0 1479.02875979 0 16274.19350789 0 -295.19720664 0 5303.34065770 0 2784
0.05250000 0.05249300 35371.31232346 0 -632.27749007 0 16996.86853802 0 5315.00627378 0 -1002.44330612 0 3055
0.05350000 0.05348950 34933.24756891 0 -1712.49486543 0 15346.65619912 0 1607.31758297 0 2642.77831735 0 3009
0.05450000 0.05448610 35260.69767756 0 826.23098968 0 12575.24853685 0 2114.17871559 0 1798.63588361 0 3336
0.05550000 0.05550870 35217.41846159 0 -25.51166982 0 12776.92528944 0 -152.20004077 0 5535.60944493 0 3349
0.05650000 0.05647670 35052.86956432 0 409.45653371 0 13279.35963931 0 118.66414068 0 4190.51557863 0 3324
0.05750000 0.05747970 34432.24121348 0 1401.41176993 0 13791.24072160 0 -870.79430219 0 1790.99062110 0 3639
0.05850000 0.05849280 34262.74925855 0 733.85622656 0 15536.90899623 0 -1756.82860037 0 2768.81530314 0 3846
0.05950000 0.05951020 32983.04655282 0 287.04335841 0 14674.51020287 0 838.13606944 0 -646.46186864 0 3787
0.06050000 0.06049470 32904.72655032 0 64.89927142 0 15715.51814640 0 -29.29102186 0 1347.51047227 0 3930
0.06150000 0.06148310 32560.68973707 0 -85.14592575 0 14090.68017017 0 2319.98566747 0 1818.95734289 0 4083
0.06250000 0.06249100 32086.37589301 0 353.22211284 0 15586.33957285 0 346.43145007 0 1695.40287049 0 4303
0.06350000 0.06350600 31817.36371049 0 307.54935850 0 11718.89125841 0 290.44747745 0 409.43017074 0 4470
0.06450000 0.06451750 31365.78793167 0 853.94177093 0 14311.57992478 0 1699.91752983 0 1183.19225103 0 4479
0.06550000 0.06550280 30034.89711772 0 528.06794845 0 13062.85371373 0 -794.99086526 0 642.22621746 0 4636
0.06650000 0.06648880 30321.26492491 0 460.60729440 0 12470.12617724 0 -874.06331099 0 -1232.69971965 0 4653
0.06750000 0.06749660 29872.32544351 0 11.47646174 0 12685.31395411 0 2147.22030991 0 616.16641746 0 5220
0.06850000 0.06852730 30095.64180409 0 -436.08094074 0 11931.88212076 0 987.58777016 0 -1445.26218367 0 5029
0.06950000 0.06949320 29406.90910324 0 -258.70316115 0 10339.53651022 0 1825.69088588 0 -954.73730739 0 5040
0.07050000 0.07048030 30010.73105804 0 302.98636705 0 8501.89440937 0 875.67584624 0 -527.17709961 0 5475
0.07150000 0.07148790 30017.43164731 0 898.29417964 0 9429.84913190 0 -2331.26682351 0 467.68026068 0 5509
0.07250000 0.07249820 28599.32332706 0 355.22569888 0 9570.98990500 0 1032.74974187 0 -2980.16946418 0 5916
0.07350000 0.07351270 27929.92347395 0 50.55616577 0 11025.32534562 0 -339.20909360 0 -571.69867074 0 5721
0.07450000 0.07449140 27492.62763949 0 304.91965183 0 10623.07029769 0 24.74494665 0 -2334.86976332 0 6028
0.07550000 0.07549160 26773.02828969 0 1351.42098011 0 9300.52775890 0 685.31649878 0 -1724.79758672 0 6183
0.07650000 0.07648840 26686.36001202 0 -94.60089660 0 11053.99508006 0 105.26669689 0 -324.40079130 0 6330
0.07750000 0.07749960 26179.31214166 0 273.56199248 0 9948.20012744 0 953.58063190 0 -1339.77733317 0 6583
0.07850000 0.07848650 26078.47376537 0 299.76459192 0 10269.30115314 0 624.93100793 0 -802.58230337 0 6549
0.07950000 0.07947320 24938.05543997 0 350.70994109 0 9640.64307973 0 -572.73451593 0 -205.68172776 0 6828
0.08050000 0.08048110 25049.65869740 0 187.68350558 0 9674.95888448 0 878.32312823 0 360.55101967 0 7147
0.08150000 0.08149960 24848.86071061 0 98.22020342 0 9425.05985825 0 226.38984399 0 -1578.68080225 0 7386
0.08250000 0.08250610 24618.62406931 0 426.73966021 0 8689.99423025 0 514.57999177 0 397.93042170 0 7227
0.08350000 0.08350160 23962.18601185 0 431.58056135 0 8990.16964518 0 668.61225925 0 449.61613107 0 7798
0.08450000 0.08449610 23277.62744858 0 -223.96664728 0 8669.20043436 0 484.65472069 0 120.76329250 0 7371
0.08550000 0.08548940 23534.99598416 0 675.60503816 0 8169.44632020 0 263.71212625 0 291.28120651 0 8256
0.08650000 0.08650700 22647.66221104 0 723.05289942 0 8474.63070022 0 -523.18640439 0 -461.56954295 0 8037
0.08750000 0.08749060 21598.30599234 0 360.36538039 0 8828.50969050 0 104.67331028 0 1097.44228363 0 8155
0.08850000 0.08849210 21151.12404255 0 523.59612895 0 8573.32708487 0 503.26478356 0 -434.66722624 0 8718
0.08950000 0.08949900 21137.28348110 0 31.98993135 0 8566.64846474 0 596.92693859 0 -187.20677513 0 8571
0.09050000 0.09049190 20768.09199664 0 -153.30289186 0 7636.01350650 0 316.76102107 0 -38.37108925 0 8932
0.09150000 0.09150830 20310.03532000 0 84.00495820 0 7490.09444433 0 918.26742797 0 -494.08058242 0 9285
0.09250000 0.09250820 20110.66532765 0 929.01802915 0 6647.72052679 0 -295.26201561 0 226.16246333 0 9204
0.09350000 0.09350330 19885.15205255 0 98.31829566 0 6983.44201859 0 -290.93738939 0 -908.76247731 0 9349
0.09450000 0.09448040 19476.74564398 0 313.28440385 0 6854.88956567 0 420.52349059 0 -453.50576822 0 9564
0.09550000 0.09549270 18790.97877773 0 324.81820506 0 6676.41223037 0 388.19369657 0 -1160.27843262 0 10155
0.09650000 0.09649430 18797.89905845 0 -36.80589750 0 6603.17808497 0 -243.73118872 0 -310.79090587 0 9913
0.09750000 0.09749140 17943.73869453 0 453.33221197 0 6924.26812609 0 404.91880678 0 -803.68405600 0 10476
0.09850000 0.09850240 17761.39478968 0 273.93876332 0 6360.04555545 0 -192.48046843 0 -249.78698359 0 10575
0.09950000 0.09950330 17553.56667644 0 15.00272923 0 6737.23380875 0 573.08931763 0 -877.48830072 0 10882
0.10050000 0.10051200 17420.76319393 0 298.56617505 0 6734.46569646 0 -138.95704007 0 -469.47843521 0 10875
0.10150000 0.10150300 17055.41630987 0 365.40839766 0 6481.93037282 0 250.27250169 0 -64.24579919 0 11118
0.10250000 0.10250800 16932.49894269 0 1.38366070 0 6275.90372948 0 891.39037578 0 -100.71501955 0 11575
0.10350000 0.10349800 16818.80861647 0 253.41848328 0 6441.41926914 0 187.12219392 0 322.73882547 0 11364
0.10450000 0.10450100 16263.09908958 0 312.00470114 0 6472.39576381 0 168.19687382 0 724.20847646 0 12093
0.10550000 0.10551000 16205.32023780 0 28.27681628 0 6502.18592466 0 397.51190949 0 634.32281748 0 12067
0.10650000 0.10649700 15812.07253939 0 324.06905721 0 5613.22643479 0 -176.40344800 0 1315.67718093 0 12054
0.10750000 0.10749900 15625.11511406 0 6.44006817 0 6097.20670273 0 820.04008457 0 1381.62855471 0 12807
0.10850000 0.10850100 15812.07253939 0 -138.29686726 0 5505.19316345 0 125.85683881 0 468.21960319 0 12736
0.10950000 0.10950300 15526.58349800 0 307.24179047 0 5383.07767007 0 328.60348877 0 822.89497499 0 12933
0.11050000 0.11050200 15511.86417074 0 -4.00983034 0 5015.78651667 0 -92.60093547 0 1519.25426458 0 13428
0.11150000 0.11150900 15347.09558202 0 -79.51424524 0 4963.21435229 0 477.08635018 0 567.12579317 0 13453
0.11250000 0.11250000 15646.75472204 0 156.98711750 0 4704.08828510 0 53.39798454 0 566.10642484 0 13668
0.11350000 0.11349100 15269.76419105 0 430.84459499 0 5063.98682115 0 -121.83428833 0 197.39276929 0 13791
0.11450000 0.11448600 15034.69433781 0 130.04965016 0 4895.84596865 0 -232.45003268 0 223.20541640 0 14205
0.11550000 0.11549300 14808.96137126 0 62.01856726 0 5009.08592739 0 373.51391377 0 390.31921136 0 14776
0.11650000 0.11649800 14505.23793939 0 36.55226372 0 4882.08229921 0 311.32146073 0 972.70037894 0 14553
0.11750000 0.11747300 14521.49510681 0 62.23694056 0 4554.52234483 0 434.36295358 0 719.78718599 0 14568
0.11850000 0.11849100 14603.65970972 0 126.37421218 0 4458.04484385 0 162.64636930 0 425.51597883 0 16015
0.11950000 0.11950300 14486.12478310 0 43.10939448 0 4483.49609852 0 -9.19834926 0 668.79350470 0 15270
0.12050000 0.12050700 14311.57992478 0 9.16316568 0 3909.42036627 0 78.18313473 0 964.54762917 0 15999
0.12150000 0.12150000 14354.41975785 0 -137.28628658 0 3908.48667760 0 410.29136123 0 606.81964465 0 15670
0.12250000 0.12250700 14099.57767396 0 552.46907798 0 4387.96327078 0 -422.72479893 0 -294.84570031 0 16887
0.12350000 0.12352200 13481.58562053 0 744.11032506 0 4587.64083116 0 -637.15793567 0 908.88220915 0 16407
0.12450000 0.12449800 12983.32540824 0 -143.67052016 0 4949.24197597 0 63.20665863 0 537.03135967 0 16306
0.12550000 0.12549900 13236.51980624 0 75.86901482 0 4742.11687537 0 964.09945861 0 464.68366928 0 17523
0.12650000 0.12650100 13012.32467986 0 159.71678379 0 4633.97375831 0 120.05039374 0 974.34257254 0 17154
0.12750000 0.12750600 12856.45359493 0 35.15634424 0 4526.42380817 0 201.27691415 0 1875.84644429 0 18007
0.12850000 0.12850300 12742.32388581 0 63.02244735 0 4476.66369437 0 26.93614919 0 1325.26671279 0 17496
0.12950000 0.12949900 12460.34990765 0 314.73436743 0 4417.44586359 0 112.37986671 0 1755.34568307 0 18405
0.13050000 0.13049000 12560.41936386 0 218.63693266 0 4511.33100544 0 23.24840849 0 1163.27722094 0 18100
0.13150000 0.13148800 12461.77790208 0 -106.19225697 0 5074.16951994 0 -71.96575680 0 1700.51069675 0 19059
0.13250000 0.13249300 11977.46809697 0 -13.10305725 0 4177.15833837 0 95.78371538 0 520.29965872 0 18957
0.13350000 0.13349100 12274.05155667 0 111.08478560 0 4594.46225074 0 -137.30715727 0 599.60607584 0 19468
0.13450000 0.13450700 11995.26310455 0 192.32888133 0 4790.31717986 0 -241.20144166 0 811.06898415 0 19953
0.13550000 0.13551000 12004.27045407 0 212.91616726 0 4456.68275685 0 324.93793690 0 718.63600279 0 19956
0.13650000 0.13649900 11904.42068930 0 -78.72972706 0 4278.90843419 0 633.83839783 0 481.35934892 0 19723
0.13750000 0.13749600 11853.56211825 0 37.55372720 0 4281.16027157 0 -18.35060726 0 575.42024393 0 20946
0.13850000 0.13851100 11832.91112180 0 186.21486823 0 4047.34265960 0 -118.37524642 0 544.47999834 0 20955
0.13950000 0.13949800 11313.78022161 0 328.55625511 0 4378.68130695 0 -274.95703320 0 537.35320765 0 20506
0.14050000 0.14048300 11305.54179217 0 225.67694523 0 4419.02764204 0 129.67068241 0 129.07861395 0 21447
0.14150000 0.14148400 11108.91794296 0 13.54375830 0 4568.81327376 0 -115.99818492 0 379.26982980 0 21771
0.14250000 0.14249400 10818.29910618 0 16.62635890 0 4041.96021904 0 767.51954769 0 642.31299558 0 22470
0.14350000 0.14350900 10915.16106720 0 -176.74067438 0 3992.77130302 0 468.62603238 0 774.19597090 0 22519
0.14450000 0.14449900 10944.66562916 0 209.88772060 0 3314.69363757 0 70.62245342 0 373.87310929 0 22218
0.14550000 0.14550500 10653.06916541 0 283.62386096 0 3519.53394707 0 -176.67916077 0 648.42591022 0 23559
0.14650000 0.14650700 10422.48101778 0 183.11721876 0 3470.65259908 0 -84.26759933 0 490.43919661 0 23044
0.14750000 0.14750500 10355.15657243 0 72.73335874 0 3569.22815343 0 -216.64323274 0 -115.99049572 0 23649
0.14850000 0.14849900 10037.47174881 0 203.87147020 0 3709.44622243 0 87.33811690 0 85.00631184 0 23640
0.14950000 0.14949500 9954.21967321 0 90.03878392 0 3681.51245435 0 -9.61940990 0 -218.85882103 0 24457
0.15050000 0.15050000 9643.82860578 0 82.47326940 0 3621.52570349 0 5.67365257 0 -359.19772032 0 24591
0.15150000 0.15149900 9752.26830631 0 107.43230537 0 3294.32824001 0 613.25550573 0 -181.61782460 0 25020
0.15250000 0.15250500 9830.99473800 0 -162.80344869 0 3341.85848557 0 586.57068356 0 881.08245286 0 25297
0.15350000 0.15350100 9754.50915911 0 -55.87863057 0 2498.30921876 0 298.48818458 0 560.69981821 0 25452
0.15450000 0.15450400 9826.51303238 0 54.38066440 0 2389.48505819 0 296.21437806 0 761.50988803 0 26061
0.15550000 0.15549900 9877.54735660 0 62.99981913 0 2487.25873874 0 30.94079482 0 878.68232376 0 26128
0.15650000 0.15649500 9539.72781143 0 231.66573420 0 2569.00592789 0 -375.50541678 0 785.87147310 0 26331
0.15750000 0.15749700 9309.61200042 0 207.44914548 0 2840.89606842 0 -349.47527513 0 772.42635626 0 27345
0.15850000 0.15849900 9203.03967724 0 126.89488092 0 2843.52138127 0 -39.18790207 0 427.96224314 0 26980
0.15950000 0.15949700 9030.92240946 0 33.48097723 0 3004.64309189 0 164.55219264 0 138.95704007 0 27777
0.16050000 0.16050000 8903.45742923 0 3.14457556 0 2704.62146098 0 136.02415919 0 359.02636099 0 28224
0.16150000 0.16150500 8979.83316239 0 167.78385389 0 2461.22530172 0 170.57832916 0 90.44488357 0 28075
0.16250000 0.16249700 8917.93509589 0 109.38865775 0 2590.99704220 0 169.99834373 0 129.32686529 0 28590
0.16350000 0.16349900 8792.09583240 0 -36.52139707 0 2639.16439297 0 66.98776820 0 297.49517922 0 29163
0.16450000 0.16449100 8753.91345810 0 185.45363735 0 2330.19033540 0 -5.32370606 0 -156.20501594 0 28996
0.16550000 0.16550500 8358.15029257 0 223.37128344 0 2847.84930287 0 -459.77576225 0 427.45255897 0 30777
0.16650000 0.16650700 8197.64371801 0 123.82469288 0 2694.39482391 0 -58.01985330 0 249.00598047 0 29211
0.16750000 0.16749900 8290.91372380 0 87.35118854 0 2989.06696797 0 287.46736291 0 113.78589200 0 30922
0.16850000 0.16850800 8059.77634754 0 82.67725291 0 2987.37534379 0 54.63726402 0 71.14422062 0 30867
0.16950000 0.16949900 8146.24690290 0 118.68610983 0 3170.51013787 0 -88.21281842 0 382.78159766 0 30852
0.17050000 0.17049200 7865.38236657 0 17.78446239 0 2917.06309470 0 109.12195233 0 323.96030994 0 31257
0.17150000 0.17149500 7885.31936581 0 -19.79661640 0 3041.25467231 0 113.80456577 0 441.46338130 0 32608
0.17250000 0.17250900 7853.27736759 0 51.71932216 0 2799.95656641 0 236.97677504 0 534.57191387 0 32361
0.17350000 0.17350400 7917.77877779 0 10.95870391 0 2641.03177030 0 175.19734193 0 772.77237030 0 32508
0.17450000 0.17449800 8034.08343228 0 -16.86725058 0 2203.65904383 0 430.50407324 0 734.81957357 0 32791
0.17550000 0.17549800 8045.91381695 0 26.03387640 0 2350.57770211 0 101.92310284 0 883.79015001 0 33633
0.17650000 0.17650100 7812.46968045 0 63.28673616 0 2317.37133920 0 -144.51193842 0 878.19131336 0 33984
0.17750000 0.17750300 7710.43398574 0 9.66486406 0 2124.70193612 0 67.39035279 0 846.00541724 0 34069
0.17850000 0.17849800 7818.07181246 0 79.41571362 0 2133.55550162 0 107.35728074 0 835.78866628 0 34536
