### header ###
fiducial parameters:
Omega_m = 0.31
Omega_nu = 0
Omega_de = 0.69
Omega_k = 0
H_0 = 100
w_de = -1
zeff = 0
beta = 0
fgrowth = 0
b_1 = 2
gamma = 0.55
Lx = 3500 Ly = 3500 Lz = 3500
nx = 700 ny = 700 nz = 700
xoffset = -983.599254 yoffset = -42.9823471 zoffset = 800.977702
bins = 400 dk = 0.001
kx_ny = 0.628318531 ky_ny = 0.628318531 kz_ny = 0.628318531
############################
A(data) = 9.12799225 (not used)
A(ran) = 9.12481047 (used)
Ngal = 506830
weighted Ngal = 0
Nran = 25229228
weighted Nran = 0
SN(data) = 6727.44323
SN(ran) = 135.451525
SN(data+ran) = 6862.89476
############################
13 columns: k_central k_mean P_0(k) sigma^{lin}_{P_0(k)} P^img_1(k) sigma^{lin}_{P_1(k)} P_2(k) sigma^{lin}_{P_2(k)} P^img_3(k) sigma^{lin}_{P_3(k)} P_4(k) sigma^{lin}_{P_4(k)} N_modes
### header ###
0.00050000 0 0 0 0 0 0 0 0 0 0 0 0
0.00150000 0.00179520 27819.08913661 0 4249.31599566 0 16436.43564492 0 4715.32550285 0 -74886.55465323 0 3
0.00250000 0.00253879 66796.96617570 0 -1665.32711077 0 3754.61478488 0 -29440.74158679 0 590.17142645 0 6
0.00350000 0.00331552 68065.13508021 0 -12851.62038299 0 -34352.82275372 0 -1443.88911210 0 58385.96910444 0 7
0.00450000 0.00420575 60464.57977400 0 -5635.40428683 0 4237.84810188 0 -25143.46694724 0 6085.44222549 0 24
0.00550000 0.00557378 49737.59541969 0 11606.18954372 0 3402.71301767 0 2542.60999998 0 532.90665267 0 45
0.00650000 0.00659388 76200.85876258 0 -13439.84424473 0 -15086.87105757 0 20279.60805395 0 15368.40565283 0 40
0.00750000 0.00754703 75848.36382845 0 -19181.80987017 0 7169.97104559 0 -7637.01310261 0 -33219.76409195 0 57
0.00850000 0.00846663 101819.29862824 0 -11478.32911887 0 -34148.39985798 0 9419.71037141 0 -1374.19199907 0 75
0.00950000 0.00948925 97722.60228403 0 -3004.98361364 0 -24395.19786300 0 -34331.51268291 0 -24813.27069545 0 112
0.01050000 0.01054430 96702.68471986 0 14694.94150787 0 5187.48637068 0 -31020.98219834 0 -4375.25412030 0 105
0.01150000 0.01145670 92012.93130198 0 10171.21990456 0 11823.46438938 0 -26866.72669380 0 -28259.68034284 0 144
0.01250000 0.01249090 78847.04229743 0 1466.91277623 0 19587.47013560 0 8222.54574405 0 -12714.31322573 0 169
0.01350000 0.01339930 85498.86006979 0 1485.03732099 0 19091.18714637 0 -444.48853259 0 -37424.43878464 0 180
0.01450000 0.01448870 71462.66337962 0 7443.00358167 0 25531.77158799 0 -642.87650415 0 -17756.78126919 0 267
0.01550000 0.01550050 72818.37932761 0 -113.30916155 0 33465.26928914 0 9036.77718665 0 11546.43346888 0 238
0.01650000 0.01653350 75695.45857812 0 -5386.09842753 0 14459.87165463 0 21454.18840007 0 -3687.18049381 0 315
0.01750000 0.01747870 77173.65251039 0 1041.16941675 0 17148.45563964 0 -168.86693275 0 8769.59942775 0 297
0.01850000 0.01844180 74735.62662596 0 7765.25798749 0 20330.79616218 0 -3110.40255671 0 -2554.35250807 0 388
0.01950000 0.01947590 66781.14839118 0 4275.67896985 0 29599.13912341 0 -3148.11259438 0 24962.77072828 0 399
0.02050000 0.02045430 61805.79608619 0 -3077.40490067 0 27756.36722717 0 12606.00534008 0 4556.74122849 0 462
0.02150000 0.02154770 65932.26062209 0 -252.36506277 0 22068.33585310 0 9375.95881881 0 16928.98387946 0 571
0.02250000 0.02255340 69835.84818033 0 -6.07339215 0 22858.89554178 0 5931.79002422 0 16653.16126195 0 510
0.02350000 0.02348930 67117.38615789 0 4440.32672827 0 22599.87932031 0 -7014.18783724 0 6455.11703114 0 555
0.02450000 0.02439640 65706.63750127 0 5131.09157505 0 24553.15601672 0 -4586.87191108 0 13893.61693806 0 592
0.02550000 0.02547300 57739.08762512 0 -1008.66936185 0 25078.76781474 0 5395.95158913 0 13039.23688268 0 837
0.02650000 0.02652900 62483.76390591 0 -4106.31882979 0 23230.94301511 0 4708.24045353 0 5657.80183033 0 723
0.02750000 0.02749970 63948.11727673 0 -1210.17036129 0 15041.39492708 0 3698.34081955 0 -4526.79728363 0 826
0.02850000 0.02848090 59752.88931646 0 6122.66894197 0 27985.94479412 0 -9389.35999736 0 3909.11279824 0 831
0.02950000 0.02946900 58024.90620369 0 6228.70302110 0 19649.97235359 0 -4260.95964259 0 -2123.28492626 0 996
0.03050000 0.03053250 58955.29950133 0 -2006.05756767 0 33054.11673742 0 3067.82635338 0 -13328.68037020 0 1041
0.03150000 0.03150510 56476.74054407 0 583.94427225 0 28112.37722453 0 417.84655025 0 -8399.58410035 0 1036
0.03250000 0.03246190 54603.43153605 0 2042.49339492 0 26794.44820622 0 132.58488951 0 -9268.43083781 0 1059
0.03350000 0.03345080 53325.48636194 0 -1027.02238572 0 28996.41562587 0 1038.47270418 0 -925.98958249 0 1302
0.03450000 0.03451200 54148.56038546 0 1099.61063826 0 24838.64505811 0 6054.79526799 0 -13336.25972528 0 1339
0.03550000 0.03553350 53634.04300575 0 -161.98399957 0 23967.34876096 0 4241.51694912 0 -731.68237964 0 1365
0.03650000 0.03647120 52942.67400748 0 848.36819880 0 23386.37471713 0 221.62253949 0 3099.70358301 0 1308
0.03750000 0.03744890 50435.66500724 0 2436.64182828 0 21804.15688251 0 1678.82715047 0 -571.00224884 0 1579
0.03850000 0.03847530 47908.11485627 0 2496.05738138 0 20699.76795519 0 3654.49040580 0 2853.94574065 0 1662
0.03950000 0.03950240 46545.91801046 0 -1284.50296394 0 21882.58673075 0 3293.52636621 0 4374.58406137 0 1683
0.04050000 0.04050350 44482.57589678 0 1250.85721813 0 20343.53826637 0 2006.23332083 0 3046.18674540 0 1822
0.04150000 0.04152450 44749.39116478 0 2584.14266891 0 20361.33327396 0 1058.41519570 0 5963.46953155 0 1887
0.04250000 0.04250150 42960.33382846 0 -142.89171397 0 17095.40015407 0 325.38391055 0 6668.52530725 0 1920
0.04350000 0.04349210 40569.54160613 0 878.37914955 0 21132.66996062 0 -1313.86472645 0 -1828.98625766 0 2005
0.04450000 0.04448520 40640.94132791 0 2036.99012406 0 18508.12603376 0 -911.91944347 0 4236.93638236 0 2151
0.04550000 0.04548030 38498.94967454 0 -311.84981867 0 22375.35465674 0 1228.02029173 0 -3121.18940698 0 2274
0.04650000 0.04648670 39208.22352612 0 766.68911400 0 20258.51767459 0 -1921.93771084 0 -2070.50405500 0 2311
0.04750000 0.04749250 38248.61126541 0 1786.73959151 0 21338.74054224 0 -577.46007906 0 -5373.99342854 0 2568
0.04850000 0.04851840 36640.46983951 0 629.75103837 0 21086.09537287 0 -258.35495020 0 -964.39714052 0 2493
0.04950000 0.04949480 37787.47890845 0 -741.06210617 0 18189.46358317 0 6694.94320431 0 -3169.37872689 0 2644
0.05050000 0.05050630 37242.64410842 0 -1827.30561805 0 16345.26369249 0 2495.03581613 0 -3204.38655971 0 2829
0.05150000 0.05149060 37475.73673859 0 1270.94800138 0 14998.66493974 0 1605.86761938 0 381.18114543 0 2784
0.05250000 0.05249300 35195.55916216 0 1669.05088087 0 14843.12339199 0 336.93528707 0 35.39075502 0 3055
0.05350000 0.05348950 36583.13037063 0 -249.34430531 0 13977.42922686 0 2197.30996088 0 2871.87256310 0 3009
0.05450000 0.05448610 34734.09726801 0 -480.94742744 0 12117.74108883 0 1306.72475428 0 -220.45927325 0 3336
0.05550000 0.05550870 35374.27815805 0 531.88398896 0 14167.02294961 0 -255.80213553 0 4643.76101248 0 3349
0.05650000 0.05647670 34928.41435698 0 323.97019606 0 10845.62872276 0 1781.41207381 0 4980.41619295 0 3324
0.05750000 0.05747970 35609.01847412 0 188.55238527 0 15086.21198322 0 1244.50813518 0 3172.69606781 0 3639
0.05850000 0.05849280 34851.52234891 0 695.73646433 0 11088.26694651 0 -1192.10073939 0 3475.62861046 0 3846
0.05950000 0.05951020 35076.48639537 0 346.53250814 0 16405.67884169 0 -2340.26318846 0 635.79584867 0 3787
0.06050000 0.06049470 33654.42362899 0 844.74438831 0 15232.19695282 0 408.63598614 0 3263.14303845 0 3930
0.06150000 0.06148310 33697.59299924 0 -813.04181338 0 14460.09134608 0 2031.36602290 0 3564.60364837 0 4083
0.06250000 0.06249100 34409.28345678 0 -490.80717979 0 13121.73102277 0 3071.59406178 0 2009.57263089 0 4303
0.06350000 0.06350600 34480.57333284 0 1412.59406482 0 12890.17623275 0 1390.37227448 0 5085.56052170 0 4470
0.06450000 0.06451750 33282.04661849 0 449.46124860 0 12563.93442709 0 319.93226718 0 8639.16861292 0 4479
0.06550000 0.06550280 31914.24764066 0 -431.17852599 0 11372.32799346 0 2299.53239332 0 5065.17315499 0 4636
0.06650000 0.06648880 32483.46819182 0 1016.56397417 0 9986.26167143 0 -57.12977338 0 4924.86720941 0 4653
0.06750000 0.06749660 29728.64723415 0 1182.82976013 0 11034.55238659 0 -2063.42999026 0 3870.24938045 0 5220
0.06850000 0.06852730 29995.35265642 0 1919.80670376 0 13864.94720362 0 -3283.44252858 0 1578.57095652 0 5029
0.06950000 0.06949320 27199.55924302 0 145.70266609 0 12364.56443474 0 473.10663954 0 385.08945636 0 5040
0.07050000 0.07048030 28731.57758094 0 -884.39100613 0 12737.60051960 0 2523.67259685 0 -2363.82509664 0 5475
0.07150000 0.07148790 28194.21229026 0 -164.24901844 0 10527.63633110 0 1733.43146077 0 -965.97672206 0 5509
0.07250000 0.07249820 28800.67054248 0 205.75752131 0 10321.40098089 0 74.36962067 0 -1727.82932875 0 5916
0.07350000 0.07351270 28369.41622293 0 -78.24629602 0 9332.72354113 0 66.69195366 0 -2511.22707611 0 5721
0.07450000 0.07449140 28264.07417188 0 834.42877620 0 9434.07819234 0 -175.54774979 0 -2107.88455550 0 6028
0.07550000 0.07549160 27827.43741177 0 -236.42095567 0 9039.81991325 0 -142.43475575 0 -2187.37990727 0 6183
0.07650000 0.07648840 27567.10304159 0 66.49873503 0 9250.43810793 0 1008.50788864 0 -2081.46665844 0 6330
0.07750000 0.07749960 27153.75357535 0 975.22902755 0 9407.64931071 0 0.36860381 0 -2061.24406032 0 6583
0.07850000 0.07848650 26250.05278909 0 1014.40989949 0 10058.55114359 0 -1594.82812394 0 -568.08804173 0 6549
0.07950000 0.07947320 25262.10033112 0 344.76618887 0 11133.74307700 0 1294.90535418 0 -1169.83501077 0 6828
0.08050000 0.08048110 25168.07238983 0 -359.72717672 0 9517.96737315 0 1822.94474274 0 171.97446833 0 7147
0.08150000 0.08149960 25501.34432194 0 -57.86870558 0 8805.60685667 0 663.26387086 0 -445.09488100 0 7386
0.08250000 0.08250610 25390.72967605 0 573.40127949 0 8562.14478998 0 -3.80437490 0 -488.08630116 0 7227
0.08350000 0.08350160 23761.27817933 0 568.95911834 0 8555.01580237 0 -266.19024582 0 1430.44399526 0 7798
0.08450000 0.08449610 23000.81621953 0 701.16613856 0 9422.20386938 0 133.32744662 0 -927.38901704 0 7371
0.08550000 0.08548940 23212.48893317 0 461.93423076 0 8741.51187566 0 715.38347085 0 828.54653758 0 8256
0.08650000 0.08650700 22512.44212256 0 -53.02791429 0 7633.35523994 0 1207.72080160 0 -610.78946918 0 8037
0.08750000 0.08749060 21515.70200653 0 262.09959099 0 7431.45879589 0 389.75789970 0 679.27608231 0 8155
0.08850000 0.08849210 21463.19574959 0 673.81125746 0 6584.49332701 0 941.12852042 0 1903.71430493 0 8718
0.08950000 0.08949900 21449.13549669 0 -54.42668976 0 6889.34816986 0 338.55990536 0 359.48222075 0 8571
0.09050000 0.09049190 20442.17972815 0 757.54445733 0 6849.61697083 0 -781.68085866 0 555.01530190 0 8932
0.09150000 0.09150830 19553.52780632 0 481.82509479 0 7067.27627653 0 -434.76389048 0 918.77381676 0 9285
0.09250000 0.09250820 19020.33665322 0 592.03770533 0 8058.21653824 0 191.33917134 0 1844.86994961 0 9204
0.09350000 0.09350330 18942.23634217 0 35.14557936 0 7680.39117973 0 1192.37535370 0 1344.63251425 0 9349
0.09450000 0.09448040 18742.97619555 0 60.37285859 0 7863.67975782 0 -118.14017657 0 1932.96622171 0 9564
0.09550000 0.09549270 18611.82039892 0 378.52507578 0 7632.70715015 0 436.45112083 0 1102.76321059 0 10155
0.09650000 0.09649430 18126.96136518 0 392.10200749 0 7942.91147985 0 -30.13200074 0 2693.30735122 0 9913
0.09750000 0.09749140 17618.04611749 0 -81.77706719 0 7180.14275980 0 56.25056819 0 1283.48139869 0 10476
0.09850000 0.09850240 17540.38518934 0 280.88101319 0 8114.11702810 0 247.48791254 0 1918.02720300 0 10575
0.09950000 0.09950330 17375.39690917 0 414.60719980 0 7877.55327299 0 -155.96665071 0 1427.59899096 0 10882
0.10050000 0.10051200 16587.47351791 0 103.33044628 0 7670.49407983 0 -182.84480136 0 807.44517365 0 10875
0.10150000 0.10150300 16571.10650476 0 377.35851417 0 7538.10801108 0 -45.66330760 0 -473.38345076 0 11118
0.10250000 0.10250800 16381.40293628 0 165.83409226 0 6765.55203687 0 320.79565458 0 -804.69353822 0 11575
0.10350000 0.10349800 16085.36870522 0 -188.50844698 0 6713.23251766 0 1089.35653975 0 -58.11607816 0 11364
0.10450000 0.10450100 16269.03075878 0 100.87506477 0 5687.11965455 0 447.74655682 0 -981.80439269 0 12093
0.10550000 0.10551000 15858.86681859 0 309.04106346 0 5362.40470447 0 100.66262314 0 -522.08465176 0 12067
0.10650000 0.10649700 15243.84059976 0 113.81115652 0 4959.55648962 0 338.47971798 0 -343.99287496 0 12054
0.10750000 0.10749900 15283.49490678 0 -82.63067832 0 4633.69914400 0 521.81443128 0 -367.19558762 0 12807
0.10850000 0.10850100 15183.75498774 0 293.23096814 0 4516.15323280 0 426.54193791 0 -499.96282104 0 12736
0.10950000 0.10950300 14865.31222861 0 217.69116096 0 4325.96634313 0 -180.97742402 0 343.70288224 0 12933
0.11050000 0.11050200 14967.68844506 0 -48.32047571 0 4357.86554191 0 475.53972236 0 195.90875353 0 13428
0.11150000 0.11150900 14822.69208699 0 171.23630506 0 4386.51330720 0 515.26652756 0 616.08183625 0 13453
0.11250000 0.11250000 15158.16093362 0 -27.41606517 0 3934.39928432 0 -69.90274423 0 490.95986535 0 13668
0.11350000 0.11349100 14858.39194788 0 52.47956443 0 4592.99031801 0 -410.15734944 0 453.29266751 0 13791
0.11450000 0.11448600 14241.71804316 0 438.18448639 0 4732.04402232 0 -190.58562966 0 643.74648230 0 14205
0.11550000 0.11549300 14205.68864510 0 161.12390754 0 4790.36111815 0 -133.37907411 0 812.08945094 0 14776
0.11650000 0.11649800 14077.93806598 0 88.63374724 0 4848.39261510 0 443.30988795 0 191.07883697 0 14553
0.11750000 0.11747300 13907.23780806 0 322.84867120 0 4772.00589737 0 355.48163942 0 780.49782019 0 14568
0.11850000 0.11849100 13846.93250459 0 -100.76840457 0 4990.48904601 0 21.89390084 0 1307.35087491 0 16015
0.11950000 0.11950300 13495.42618199 0 136.85569133 0 4895.43953946 0 8.68311789 0 913.61106765 0 15270
0.12050000 0.12050700 13811.78187233 0 112.17775057 0 4734.48259743 0 84.15533700 0 620.72611354 0 15999
0.12150000 0.12150000 13348.01321795 0 38.04979050 0 4693.86164802 0 -55.86632785 0 1025.42852424 0 15670
0.12250000 0.12250700 13149.85152858 0 190.85804706 0 5114.41699387 0 -266.52966911 0 494.72757375 0 16887
0.12350000 0.12352200 13176.43419422 0 215.34705317 0 5008.45980675 0 218.31178931 0 311.55103830 0 16407
0.12450000 0.12449800 13215.86880979 0 112.46444792 0 5390.89868575 0 68.85360770 0 469.33124194 0 16306
0.12550000 0.12549900 12792.08399960 0 246.09067491 0 5292.65266858 0 -432.09573780 0 121.00715001 0 17523
0.12650000 0.12650100 12834.04506686 0 -70.41748130 0 5196.73538080 0 34.81747017 0 -174.49762466 0 17154
0.12750000 0.12750600 12913.90290953 0 -145.21385261 0 4989.97277110 0 703.91667553 0 257.27187134 0 18007
0.12850000 0.12850300 12907.31216598 0 -161.70059760 0 4583.67540046 0 637.29304591 0 322.15444621 0 17496
0.12950000 0.12949900 13127.11346333 0 51.69614471 0 4233.08079738 0 -29.29958983 0 -19.44181470 0 18405
0.13050000 0.13049000 12770.22470017 0 352.76844999 0 4057.10794463 0 409.96402097 0 259.06675050 0 18100
0.13150000 0.13148800 12825.03771735 0 45.14055179 0 3892.40526334 0 -52.49966620 0 377.87918291 0 19059
0.13250000 0.13249300 12546.79849386 0 105.95531974 0 3827.48643939 0 137.13360102 0 437.54957809 0 18957
0.13350000 0.13349100 12400.92336998 0 145.39399960 0 3732.46988656 0 318.96672325 0 165.60890852 0 19468
0.13450000 0.13450700 12147.94866343 0 246.04234279 0 3714.37829552 0 -179.97782792 0 133.02317396 0 19953
0.13550000 0.13551000 11882.34169842 0 310.17906518 0 3957.18128786 0 -15.70574188 0 202.95425838 0 19956
0.13650000 0.13649900 11554.89158977 0 -37.25890128 0 4039.03832273 0 157.02885888 0 422.85881072 0 19723
0.13750000 0.13749600 11404.73248258 0 130.19244961 0 3795.62019433 0 -316.36118263 0 -232.57305989 0 20946
0.13850000 0.13851100 11274.56529749 0 314.59925719 0 3520.58846604 0 300.30613134 0 -93.09655939 0 20955
0.13950000 0.13949800 11246.88417459 0 -156.30387709 0 3387.01606345 0 430.72925697 0 -7.86949060 0 20506
0.14050000 0.14048300 11224.03626362 0 -83.51746287 0 3108.46927193 0 864.13984812 0 412.68270268 0 21447
0.14150000 0.14148400 11318.50358782 0 148.73111275 0 2846.87167591 0 72.39558313 0 343.77867579 0 21771
0.14250000 0.14249400 11102.87642804 0 200.12902632 0 2644.32714208 0 93.60822078 0 705.16781835 0 22470
0.14350000 0.14350900 10834.97368736 0 111.52197159 0 2713.25533503 0 -83.03809612 0 536.46785110 0 22519
0.14450000 0.14449900 10577.69302836 0 179.16057572 0 2848.87086812 0 94.46710451 0 727.70925974 0 22218
0.14550000 0.14550500 10453.36963588 0 53.68160621 0 2648.02894304 0 99.81955719 0 988.68732587 0 23559
0.14650000 0.14650700 10361.95602286 0 130.79769956 0 2946.21615033 0 106.85012302 0 840.53400164 0 23044
0.14750000 0.14750500 10193.52957147 0 199.48533036 0 2703.44611171 0 -187.82410811 0 793.67491346 0 23649
0.14850000 0.14849900 10035.07711198 0 121.10051888 0 3078.25071276 0 -63.70502869 0 1002.60368088 0 23640
0.14950000 0.14949500 9938.79733331 0 124.16851000 0 3091.19053926 0 -115.81254564 0 433.47320320 0 24457
0.15050000 0.15050000 9939.34656194 0 85.19041327 0 2971.55755928 0 96.68148449 0 398.11056869 0 24591
0.15150000 0.15149900 9894.13406119 0 -28.87580502 0 3081.45820795 0 151.34434257 0 421.86360844 0 25020
0.15250000 0.15250500 9682.29657896 0 -38.90966284 0 2727.30460336 0 221.95647049 0 550.61158676 0 25297
0.15350000 0.15350100 9873.43912645 0 37.40851115 0 2794.58511042 0 144.60640575 0 585.05810791 0 25452
0.15450000 0.15450400 9547.25224365 0 249.52225539 0 2751.36081731 0 -441.70723881 0 -15.72320735 0 26061
0.15550000 0.15549900 9330.33988888 0 213.75429015 0 2678.46719366 0 119.79335474 0 437.83517698 0 26128
0.15650000 0.15649500 9532.64276211 0 22.35832857 0 2887.86610078 0 -46.65807050 0 -780.30778709 0 26331
0.15750000 0.15749700 9096.36849290 0 127.72641306 0 2743.40798676 0 -19.62306015 0 34.49606158 0 27345
0.15850000 0.15849900 9171.81053739 0 54.34771069 0 2629.55289196 0 -76.29686393 0 -370.38001521 0 26980
0.15950000 0.15949700 8914.78252356 0 46.48176811 0 2628.81692559 0 199.67096964 0 -210.29524824 0 27777
0.16050000 0.16050000 9011.16116339 0 114.43837561 0 2522.54118587 0 226.00977778 0 -660.26068872 0 28224
0.16150000 0.16150500 8768.67672365 0 -35.20160068 0 2270.66493658 0 80.28349485 0 -94.09176166 0 28075
0.16250000 0.16249700 9005.13063304 0 95.73615218 0 2487.26972331 0 95.23591474 0 -508.05954949 0 28590
0.16350000 0.16349900 8718.78479499 0 97.90285912 0 2275.92654685 0 -238.34764970 0 -287.69694048 0 29163
0.16450000 0.16449100 8632.74263796 0 86.25745465 0 2542.52212340 0 -42.95429231 0 -341.73774221 0 28996
0.16550000 0.16550500 8697.85918422 0 107.72866914 0 2801.23077683 0 40.49242991 0 -165.64076378 0 30777
0.16650000 0.16650700 8665.91604716 0 81.31758252 0 2680.74100019 0 33.47691294 0 -385.97591136 0 29211
0.16750000 0.16749900 8593.93414303 0 -77.53877970 0 2759.20380214 0 11.91595449 0 -119.61870004 0 30922
0.16850000 0.16850800 8473.63110412 0 60.17271968 0 2480.86571750 0 103.25487242 0 -52.81063945 0 30867
0.16950000 0.16949900 8369.33258746 0 195.24858072 0 2806.06398877 0 -13.67798978 0 220.56033132 0 30852
0.17050000 0.17049200 8271.47103033 0 166.45801598 0 2644.94227814 0 257.91446884 0 468.24047388 0 31257
0.17150000 0.17149500 8192.92035180 0 129.80139882 0 2846.02586382 0 -58.01985330 0 195.24198998 0 32608
0.17250000 0.17250900 7864.93199910 0 148.66190994 0 2821.39845209 0 247.74934537 0 314.68493685 0 32361
0.17350000 0.17350400 7931.00420317 0 -63.34001134 0 2627.90520607 0 119.60112472 0 932.83187275 0 32508
0.17450000 0.17449800 7882.71602211 0 -110.85630649 0 2400.88704453 0 318.62400458 0 684.21584460 0 32791
0.17550000 0.17549800 8036.43413081 0 13.99939837 0 2138.47659014 0 366.49147652 0 565.36496619 0 33633
0.17650000 0.17650100 7997.35102156 0 8.68655606 0 1937.32709703 0 144.75359902 0 929.79134306 0 33984
0.17750000 0.17750300 8046.27630784 0 105.24099299 0 1848.76947288 0 -47.96622325 0 660.98457205 0 34069
0.17850000 0.17849800 7759.97440808 0 126.30720628 0 1869.28865446 0 -36.31587572 0 794.85355810 0 34536
