### header ###
fiducial parameters:
Omega_m = 0.31
Omega_nu = 0
Omega_de = 0.69
Omega_k = 0
H_0 = 100
w_de = -1
zeff = 0
beta = 0
fgrowth = 0
b_1 = 2
gamma = 0.55
Lx = 3500 Ly = 3500 Lz = 3500
nx = 700 ny = 700 nz = 700
xoffset = -983.599254 yoffset = -42.9823471 zoffset = 800.977702
bins = 400 dk = 0.001
kx_ny = 0.628318531 ky_ny = 0.628318531 kz_ny = 0.628318531
############################
A(data) = 8.97016309 (not used)
A(ran) = 8.95558887 (used)
Ngal = 498146
weighted Ngal = 0
Nran = 25229228
weighted Nran = 0
SN(data) = 6802.02032
SN(ran) = 132.939547
SN(data+ran) = 6934.95987
############################
13 columns: k_central k_mean P_0(k) sigma^{lin}_{P_0(k)} P^img_1(k) sigma^{lin}_{P_1(k)} P_2(k) sigma^{lin}_{P_2(k)} P^img_3(k) sigma^{lin}_{P_3(k)} P_4(k) sigma^{lin}_{P_4(k)} N_modes
### header ###
0.00050000 0 0 0 0 0 0 0 0 0 0 0 0
0.00150000 0.00179520 37663.79262118 0 26323.64942538 0 22511.34366530 0 38318.36330131 0 -31676.32179855 0 3
0.00250000 0.00253879 46101.81174099 0 -12124.77121529 0 7496.91586390 0 40284.71163909 0 -18133.33241728 0 6
0.00350000 0.00331552 32871.77283257 0 -430.88743482 0 48190.30852589 0 7922.79872746 0 -24098.94394048 0 7
0.00450000 0.00420575 48132.63951983 0 9907.35948658 0 43713.21643318 0 24358.17985340 0 14507.76439108 0 24
0.00550000 0.00557378 40844.70514929 0 9793.46045349 0 48217.76995734 0 19279.46272042 0 24328.30181598 0 45
0.00650000 0.00659388 41766.96986322 0 -3757.48175833 0 37281.52949535 0 45101.77625319 0 59006.26791810 0 40
0.00750000 0.00754703 49195.72645426 0 -18015.13841631 0 25688.85097591 0 65077.55102954 0 28069.75708291 0 57
0.00850000 0.00846663 72068.68224893 0 -18291.62010818 0 17071.67347729 0 3872.97355445 0 27315.33663803 0 75
0.00950000 0.00948925 76499.96867397 0 1648.85025190 0 -112.99939660 0 -4538.66062202 0 10964.74542783 0 112
0.01050000 0.01054430 95619.27632616 0 6083.08054239 0 12265.59343578 0 -17647.59461773 0 3862.76888652 0 105
0.01150000 0.01145670 86309.96090919 0 1534.51183590 0 27197.14263705 0 -17347.16655763 0 19254.41789493 0 144
0.01250000 0.01249090 87468.72347080 0 4398.72815191 0 44942.82948794 0 -537.31586010 0 -12045.13306407 0 169
0.01350000 0.01339930 73192.62371546 0 4501.18126037 0 19258.37234106 0 795.63346275 0 -3070.53954281 0 180
0.01450000 0.01448870 68952.68854479 0 3775.94682484 0 43578.65541906 0 16059.55495965 0 24336.10086251 0 267
0.01550000 0.01550050 70917.49904241 0 -4638.45546392 0 48522.92138365 0 16633.82841420 0 11535.55874202 0 238
0.01650000 0.01653350 73301.92021264 0 7568.51330799 0 24468.79449930 0 12196.93985715 0 10933.88976345 0 315
0.01750000 0.01747870 72562.76832364 0 -3034.23553043 0 20735.46781608 0 4610.37889641 0 830.04043945 0 297
0.01850000 0.01844180 61319.61890374 0 -2560.80045217 0 8053.30643429 0 7944.09781369 0 17691.20337088 0 388
0.01950000 0.01947590 75412.05660552 0 -3794.47779878 0 14147.36056469 0 5744.34927770 0 -381.58318079 0 399
0.02050000 0.02045430 69746.32391379 0 6377.60988701 0 2306.62842721 0 -12653.56853935 0 -5301.96758613 0 462
0.02150000 0.02154770 69422.49871409 0 272.68871896 0 11704.50146832 0 -12098.40824109 0 -10856.75609479 0 571
0.02250000 0.02255340 65512.54010376 0 265.74317372 0 14096.17245646 0 1408.16728207 0 -18005.14245526 0 510
0.02350000 0.02348930 65100.17924906 0 1141.36299864 0 14281.04281300 0 -4232.64141448 0 -26252.68908651 0 555
0.02450000 0.02439640 67200.64921806 0 -957.81079080 0 15926.42193996 0 874.35550062 0 -13183.46432068 0 592
0.02550000 0.02547300 66538.93856576 0 -422.28651449 0 14091.00970735 0 4651.08772239 0 -19329.88190857 0 837
0.02650000 0.02652900 68933.24585132 0 3014.85874439 0 16992.14517181 0 -1912.87543846 0 -9357.92215064 0 723
0.02750000 0.02749970 60801.91599798 0 3497.05951157 0 16609.88204597 0 4514.14305602 0 2182.72244849 0 826
0.02850000 0.02848090 62419.39431058 0 -414.30951788 0 17735.36135266 0 7372.92200861 0 -1517.65051698 0 831
0.02950000 0.02946900 59659.41060379 0 943.53853565 0 17456.02367192 0 772.29014756 0 7623.38124803 0 996
0.03050000 0.03053250 57416.58057413 0 3856.91410933 0 21130.47304610 0 -621.95858259 0 13275.51503891 0 1041
0.03150000 0.03150510 53281.54807161 0 1495.14312776 0 23284.21819212 0 -1957.02243566 0 21758.79059775 0 1036
0.03250000 0.03246190 54733.92825832 0 1344.46774567 0 20522.91633663 0 6892.47877304 0 89.46725661 0 1059
0.03350000 0.03345080 54627.81728718 0 -531.60717773 0 25927.54573810 0 1780.62118458 0 20549.71869373 0 1302
0.03450000 0.03451200 50460.49014127 0 1351.32211896 0 19230.03214380 0 3965.69433161 0 19638.76808955 0 1339
0.03550000 0.03553350 53537.04922985 0 -669.47894203 0 22029.56031188 0 3909.50824285 0 17067.16980254 0 1365
0.03650000 0.03647120 50015.94448890 0 2414.49692996 0 20768.20184237 0 -1030.26613001 0 10400.72057950 0 1308
0.03750000 0.03744890 48067.06162152 0 2318.40388902 0 22706.31982862 0 -211.94732796 0 21019.19932585 0 1579
0.03850000 0.03847530 46003.38997067 0 94.25125766 0 20831.03359753 0 257.45201833 0 13562.87145764 0 1662
0.03950000 0.03950240 46498.02527400 0 129.78492196 0 19898.11384820 0 2839.39118198 0 5719.02983790 0 1683
0.04050000 0.04050350 45653.86087113 0 1256.84381018 0 19318.23826163 0 720.90212011 0 10636.19686193 0 1822
0.04150000 0.04152450 41744.01210652 0 847.51250060 0 16034.61997989 0 1092.89796595 0 7639.02327939 0 1887
0.04250000 0.04250150 41967.65800428 0 1875.03358592 0 19942.49152143 0 39.25402919 0 1046.75287499 0 1920
0.04350000 0.04349210 42357.83002237 0 2381.33450534 0 19088.00162033 0 451.29786913 0 4144.42431208 0 2005
0.04450000 0.04448520 41030.45427164 0 -977.99274601 0 19419.73571228 0 330.72900357 0 4146.76402604 0 2151
0.04550000 0.04548030 38728.74693295 0 -416.67669327 0 18906.20694410 0 1011.35289294 0 -551.25857808 0 2274
0.04650000 0.04648670 40412.46221821 0 780.14411696 0 16825.28951430 0 500.84817759 0 4104.49539074 0 2311
0.04750000 0.04749250 37091.60623542 0 294.97421981 0 17866.18761210 0 2004.38791264 0 6091.06632665 0 2568
0.04850000 0.04851840 39746.46758261 0 976.79103377 0 17242.04419803 0 3443.19116763 0 4081.07628200 0 2493
0.04950000 0.04949480 38981.94133095 0 493.95425984 0 17682.85509572 0 1347.29078082 0 8617.43014378 0 2644
0.05050000 0.05050630 38168.86326847 0 158.91490999 0 15734.52145697 0 4354.37244783 0 10343.20535746 0 2829
0.05150000 0.05149060 36951.88247219 0 952.92814829 0 15433.32447679 0 -901.98499603 0 12722.00242653 0 2784
0.05250000 0.05249300 34085.78779426 0 1389.35070923 0 17631.00791314 0 -1292.81828539 0 11906.72744955 0 3055
0.05350000 0.05348950 35046.82804940 0 848.97125184 0 16736.31447639 0 3488.50252953 0 13648.00189514 0 3009
0.05450000 0.05448610 33597.08416012 0 -546.87902899 0 16165.11670216 0 1344.52266853 0 8151.95888065 0 3336
0.05550000 0.05550870 33402.32768825 0 401.84752029 0 15342.59190727 0 1407.11276310 0 11324.87463991 0 3349
0.05650000 0.05647670 32708.54208401 0 264.15260761 0 12582.71804620 0 140.30594558 0 9626.78054914 0 3324
0.05750000 0.05747970 33480.09846213 0 -536.30088560 0 13756.85900942 0 -61.51086031 0 7198.24533542 0 3639
0.05850000 0.05849280 33435.17156027 0 643.05774960 0 12056.66686528 0 278.58304061 0 3950.40380657 0 3846
0.05950000 0.05951020 31941.04999776 0 1088.97317817 0 13167.75638189 0 -415.04658270 0 3553.38839977 0 3787
0.06050000 0.06049470 32339.35059956 0 158.73695992 0 11337.28720693 0 986.66506606 0 4160.58261835 0 3930
0.06150000 0.06148310 32598.58651247 0 -376.05574387 0 12928.73208252 0 1499.77861739 0 843.79861661 0 4083
0.06250000 0.06249100 32297.27968657 0 -305.08112505 0 11058.16921764 0 1388.83443432 0 2380.64247726 0 4303
0.06350000 0.06350600 31887.77482074 0 598.25057958 0 10191.24478037 0 -1773.77779586 0 983.47075235 0 4470
0.06450000 0.06451750 32013.87771397 0 -403.62921796 0 10314.55759217 0 2904.62855854 0 2254.08921655 0 4479
0.06550000 0.06550280 32230.05410237 0 -217.52090008 0 9914.07106043 0 2047.45842173 0 404.19052962 0 4636
0.06650000 0.06648880 31522.75747386 0 1011.73735298 0 8280.21475011 0 -1901.56132870 0 1904.41731757 0 4653
0.06750000 0.06749660 31355.02305054 0 907.13895749 0 9779.00475597 0 -904.59712739 0 524.93734526 0 5220
0.06850000 0.06852730 28741.46369626 0 1280.40571837 0 10528.42722033 0 -777.47376736 0 -974.31620956 0 5029
0.06950000 0.06949320 27560.95168095 0 1312.77725377 0 11638.92357001 0 -806.22259072 0 480.67391159 0 5040
0.07050000 0.07048030 26436.02160289 0 667.82576386 0 11749.64806163 0 -301.20357092 0 -1965.89797031 0 5475
0.07150000 0.07148790 26212.81508804 0 58.72143795 0 10965.18481074 0 1848.19827510 0 -1626.14514037 0 5509
0.07250000 0.07249820 26564.98048499 0 -645.11625850 0 9974.34341018 0 1690.54768941 0 -1948.25674674 0 5916
0.07350000 0.07351270 25978.73384633 0 -145.26328319 0 8090.77481137 0 69.28914600 0 -2342.38321096 0 5721
0.07450000 0.07449140 26791.26268017 0 347.96819177 0 9032.20760445 0 -210.77856943 0 -2653.04889271 0 6028
0.07550000 0.07549160 25680.50270074 0 841.21284822 0 8062.28083009 0 -1121.32713825 0 -1748.68903209 0 6183
0.07650000 0.07648840 25351.51475193 0 -165.95711947 0 9361.70084360 0 1016.33000277 0 -1926.55123132 0 6330
0.07750000 0.07749960 24706.50064996 0 107.91035397 0 8087.90783793 0 831.77490346 0 -2136.64216651 0 6583
0.07850000 0.07848650 25176.31081926 0 860.72584296 0 9165.47243901 0 390.17201809 0 -1619.19190593 0 6549
0.07950000 0.07947320 24404.42490397 0 501.54459949 0 8974.87912015 0 -912.65540984 0 -2040.83472446 0 6828
0.08050000 0.08048110 23937.58056926 0 439.71903117 0 9785.00233260 0 552.82827350 0 182.14288717 0 7147
0.08150000 0.08149960 23204.79973236 0 161.77968652 0 8235.63935457 0 1004.42382455 0 -738.82345028 0 7386
0.08250000 0.08250610 22951.93487154 0 -396.48814732 0 8777.64013488 0 1852.22961324 0 475.26071422 0 7227
0.08350000 0.08350160 23190.62963373 0 532.88907735 0 7390.35452529 0 1262.64366451 0 1500.26193859 0 7798
0.08450000 0.08449610 22776.18171024 0 330.74548042 0 7234.05504203 0 -956.15102189 0 1737.77036694 0 7371
0.08550000 0.08548940 22124.57686471 0 -199.89944875 0 6109.56434688 0 593.49865348 0 1043.70904993 0 8256
0.08650000 0.08650700 22757.06855395 0 179.49450672 0 7087.54281294 0 375.30439910 0 -84.59032607 0 8037
0.08750000 0.08749060 21592.92355178 0 853.69461805 0 6444.03359741 0 -814.60711497 0 1472.26226308 0 8155
0.08850000 0.08849210 21162.76768949 0 805.52397191 0 7503.36380801 0 -1058.88753232 0 -542.60603026 0 8718
0.08950000 0.08949900 20312.89130887 0 146.86044004 0 7684.38956415 0 643.92992466 0 103.43194373 0 8571
0.09050000 0.09049190 19387.88045180 0 262.38628834 0 7720.52880794 0 569.10850852 0 84.95896833 0 8932
0.09150000 0.09150830 19015.83297847 0 343.90829375 0 7546.46727082 0 596.86212961 0 811.79945822 0 9285
0.09250000 0.09250820 19057.90389145 0 238.73979894 0 6105.98337622 0 1248.66030361 0 1374.57645911 0 9204
0.09350000 0.09350330 18956.95566943 0 220.36590438 0 6490.77295374 0 947.04481122 0 1099.48980796 0 9349
0.09450000 0.09448040 18439.80199230 0 80.07204183 0 6040.48236992 0 -280.60310350 0 2098.48176137 0 9564
0.09550000 0.09549270 17766.77723024 0 305.28214272 0 6163.78419714 0 -262.12156014 0 2118.64943663 0 10155
0.09650000 0.09649430 17704.60454943 0 583.45326186 0 6182.77652313 0 -311.95966440 0 1665.74452453 0 9913
0.09750000 0.09749140 17285.21356828 0 131.90055064 0 6491.83845728 0 216.82008435 0 1794.91211351 0 10476
0.09850000 0.09850240 16910.74948898 0 -84.72873169 0 5953.42963221 0 1060.71975903 0 2465.73996105 0 10575
0.09950000 0.09950330 17048.71572060 0 -190.73611830 0 5888.09339450 0 701.58025694 0 2357.04761536 0 10882
0.10050000 0.10051200 16961.16867713 0 288.23298762 0 5154.70840610 0 931.28085110 0 2496.60661001 0 10875
0.10150000 0.10150300 16888.89018954 0 144.15164444 0 5586.09454052 0 -706.68039399 0 2218.40034024 0 11118
0.10250000 0.10250800 16639.10100904 0 441.84125060 0 5367.74320674 0 -1253.52646927 0 1068.15301930 0 11575
0.10350000 0.10349800 15983.21218021 0 317.24104689 0 5792.83518107 0 765.74224385 0 1608.42702480 0 11364
0.10450000 0.10450100 16118.21257723 0 -272.84250298 0 5168.06564636 0 599.93012073 0 1187.30048117 0 12093
0.10550000 0.10551000 16551.99334847 0 -27.01205259 0 4697.37671125 0 382.33123018 0 242.40754773 0 12067
0.10650000 0.10649700 15700.24959051 0 288.43180838 0 4678.28552410 0 -360.22367940 0 -858.30813853 0 12054
0.10750000 0.10749900 15325.89535694 0 654.13129722 0 4911.43307714 0 -514.11644281 0 -66.99589679 0 12807
0.10850000 0.10850100 14736.79272940 0 306.04337360 0 4974.85799923 0 -414.82908816 0 -248.38205675 0 12736
0.10950000 0.10950300 14764.91323521 0 -41.06187015 0 4956.68951618 0 869.66069429 0 -468.75565034 0 12933
0.11050000 0.11050200 14518.41942649 0 -181.73645799 0 5064.21749718 0 574.68208065 0 -702.03172287 0 13428
0.11150000 0.11150900 15054.35672273 0 14.48788231 0 3546.50107276 0 293.60444361 0 -764.18792683 0 13453
0.11250000 0.11250000 14871.35374353 0 147.32948129 0 3794.09333874 0 187.38142984 0 -177.21850328 0 13668
0.11350000 0.11349100 14530.28276488 0 209.02543165 0 4171.14977717 0 -183.13918791 0 -561.56320562 0 13791
0.11450000 0.11448600 14448.33785342 0 408.81942850 0 4188.02208065 0 -150.14482724 0 -23.69866612 0 14205
0.11550000 0.11549300 13689.96296240 0 385.64747264 0 4845.81124054 0 -553.81688503 0 100.24114509 0 14776
0.11650000 0.11649800 13548.04228465 0 115.67853385 0 4680.01010200 0 494.38155971 0 -194.30280902 0 14553
0.11750000 0.11747300 13369.10359730 0 15.47726277 0 4743.34714750 0 685.40217844 0 628.22747816 0 14568
0.11850000 0.11849100 13287.15868584 0 -82.87475553 0 4073.24428175 0 167.02372147 0 269.46254999 0 16015
0.11950000 0.11950300 13102.06863785 0 156.33243698 0 4187.43989831 0 -43.67641812 0 495.21199340 0 15270
0.12050000 0.12050700 13493.00957602 0 248.91371007 0 4237.69431787 0 -61.57929420 0 -749.40379059 0 15999
0.12150000 0.12150000 12782.41757573 0 -20.19282993 0 4205.00422986 0 -79.77084485 0 1111.55086865 0 15670
0.12250000 0.12250700 13302.75677891 0 -225.09915671 0 3888.09931089 0 495.40312496 0 -1118.75674826 0 16887
0.12350000 0.12352200 13144.35924229 0 247.17265531 0 4503.24636002 0 -567.28506948 0 -545.26649374 0 16407
0.12450000 0.12449800 12914.78167534 0 506.98415983 0 4491.93225026 0 -960.01209915 0 -1176.07424799 0 16306
0.12550000 0.12549900 12467.27018837 0 158.74794449 0 5061.74596835 0 -183.80375455 0 -745.73494335 0 17523
0.12650000 0.12650100 12447.27826627 0 -189.53879989 0 5104.33315624 0 209.75041344 0 -1763.24359076 0 17154
0.12750000 0.12750600 12680.15120500 0 93.42367996 0 5222.99949384 0 472.09386194 0 -917.59077830 0 18007
0.12850000 0.12850300 12454.63792990 0 256.26238912 0 4619.80365968 0 223.59207335 0 -662.59600885 0 17496
0.12950000 0.12949900 12535.59422983 0 15.50505374 0 5063.42660795 0 379.63232070 0 46.44595840 0 18405
0.13050000 0.13049000 12358.19338264 0 -100.80091890 0 4529.27979704 0 314.79807795 0 236.32648834 0 18100
0.13150000 0.13148800 12211.32964723 0 151.38169012 0 4344.76094682 0 425.11833730 0 -77.21385605 0 19059
0.13250000 0.13249300 12039.53093206 0 300.46650610 0 4384.55805328 0 -121.86394667 0 996.74780523 0 18957
0.13350000 0.13349100 11928.91628616 0 125.05606347 0 4842.92229795 0 -103.71457678 0 585.87975394 0 19468
0.13450000 0.13450700 11567.52384824 0 -16.70654628 0 4395.63050244 0 246.72997704 0 48.82345929 0 19953
0.13550000 0.13551000 11656.71857760 0 65.19102166 0 4159.92354399 0 493.31935154 0 375.46367540 0 19956
0.13650000 0.13649900 11723.28508744 0 -107.80468238 0 3717.20133067 0 -75.66107687 0 -248.25683262 0 19723
0.13750000 0.13749600 11769.63998373 0 -39.07992372 0 3515.66737752 0 437.76597417 0 471.60724538 0 20946
0.13850000 0.13851100 11550.27806928 0 184.83081208 0 3247.24836192 0 -114.43508024 0 -366.65844202 0 20955
0.13950000 0.13949800 11531.16491299 0 255.98008561 0 3002.52306938 0 235.58502969 0 -188.57545288 0 20506
0.14050000 0.14048300 11346.29455645 0 -3.11231387 0 3537.42781581 0 17.35738221 0 -545.28736442 0 21447
0.14150000 0.14148400 10920.92796781 0 177.76333808 0 3065.22300968 0 -237.07563619 0 -233.71106161 0 21771
0.14250000 0.14249400 11034.00315796 0 178.04893697 0 3296.71189226 0 344.07306234 0 -269.16596653 0 22470
0.14350000 0.14350900 10898.69519290 0 0.25358545 0 3294.89943778 0 -172.00083131 0 -269.21759402 0 22519
0.14450000 0.14449900 10727.62145952 0 95.54491077 0 3057.10541054 0 38.80629802 0 -607.97632015 0 22218
0.14550000 0.14550500 10692.54771927 0 104.08069259 0 3216.76617301 0 37.61414235 0 -48.58871897 0 23559
0.14650000 0.14650700 10471.59304179 0 91.64615642 0 3165.79775623 0 302.86004447 0 49.09840314 0 23044
0.14750000 0.14750500 10429.77477398 0 282.14423904 0 3414.24681888 0 42.12957060 0 -111.96355141 0 23649
0.14850000 0.14849900 10317.17192045 0 298.91109063 0 3451.35270506 0 -72.80080401 0 390.98487646 0 23640
0.14950000 0.14949500 9959.70097493 0 -11.40055834 0 3310.37670055 0 -70.55347031 0 474.52804323 0 24457
0.15050000 0.15050000 9862.11403212 0 -155.34931773 0 3096.34230380 0 761.35610401 0 189.78375586 0 24591
0.15150000 0.15149900 10074.97307960 0 -50.02824721 0 2918.74373431 0 314.16756348 0 385.87595175 0 25020
0.15250000 0.15250500 10138.09043365 0 89.74934043 0 2517.59812821 0 -165.31342352 0 304.44182292 0 25297
0.15350000 0.15350100 9830.91784599 0 148.50153518 0 2731.88517013 0 -40.07886075 0 655.97670541 0 25452
0.15450000 0.15450400 9755.79435410 0 147.77984877 0 2647.83122073 0 -243.24127678 0 195.19915014 0 26061
0.15550000 0.15549900 9632.84403320 0 199.22938982 0 2560.78946760 0 138.87575423 0 331.10467595 0 26128
0.15650000 0.15649500 9378.66102367 0 151.77274090 0 2835.08522953 0 293.00139058 0 38.98106257 0 26331
0.15750000 0.15749700 9374.48688609 0 -8.82136972 0 2669.09735325 0 101.93606463 0 390.76957884 0 27345
0.15850000 0.15849900 9242.35346251 0 174.18676125 0 2543.43384292 0 -264.43820649 0 -309.68805479 0 26980
0.15950000 0.15949700 9058.69140895 0 149.14083731 0 2875.50845663 0 -57.68877828 0 -19.34141571 0 27777
0.16050000 0.16050000 8781.34193584 0 84.80935845 0 2661.28732214 0 -148.95300112 0 59.77727507 0 28224
0.16150000 0.16150500 8799.38958859 0 54.26016364 0 2909.26404817 0 -56.08645868 0 -449.67215239 0 28075
0.16250000 0.16249700 8684.07354563 0 165.00036320 0 2651.71975943 0 53.06701937 0 -527.39020032 0 28590
0.16350000 0.16349900 8498.65396046 0 58.15694077 0 2675.25969847 0 255.69558518 0 -281.26767015 0 29163
0.16450000 0.16449100 8600.12944197 0 41.18423829 0 2389.96837939 0 311.18525203 0 -369.85495264 0 28996
0.16550000 0.16550500 8476.90450675 0 14.68692277 0 2595.47874781 0 223.06371541 0 61.62224388 0 30777
0.16650000 0.16650700 8418.68627207 0 -20.27697176 0 2083.29009749 0 270.16007035 0 492.94367916 0 29211
0.16750000 0.16749900 8580.96136281 0 -47.54804057 0 1996.80855755 0 206.25731936 0 291.19992067 0 30922
0.16850000 0.16850800 8543.47101659 0 162.02354403 0 2019.42579250 0 32.68591386 0 420.67617615 0 30867
0.16950000 0.16949900 8431.31853054 0 125.52510472 0 2144.15561416 0 -208.30813906 0 445.36619994 0 30852
0.17050000 0.17049200 8289.03536189 0 59.02351370 0 2378.56639305 0 -133.78440484 0 526.86294083 0 31257
0.17150000 0.17149500 8171.18188266 0 -19.64162408 0 2188.30261136 0 197.46966129 0 378.20872009 0 32608
0.17250000 0.17250900 8173.00532171 0 137.93767173 0 2172.68254915 0 -44.72302819 0 200.13561706 0 32361
0.17350000 0.17350400 8133.31806098 0 80.11257490 0 2072.05287974 0 -70.47350262 0 135.53973954 0 32508
0.17450000 0.17449800 8085.64501597 0 30.80238920 0 2472.53941148 0 86.31479412 0 201.07040419 0 32791
0.17550000 0.17549800 7845.29158332 0 161.28538075 0 2102.78771382 0 -201.19013603 0 -0.90604929 0 33633
0.17650000 0.17650100 7888.84541361 0 61.22493189 0 2315.60282301 0 37.06128882 0 -293.29577712 0 33984
0.17750000 0.17750300 7678.57872525 0 52.38169189 0 2169.74966827 0 217.64392730 0 -24.09531903 0 34069
0.17850000 0.17849800 7623.74373893 0 -13.57396588 0 2049.92995056 0 120.61609923 0 -60.97865777 0 34536
