### header ###
fiducial parameters:
Omega_m = 0.31
Omega_nu = 0
Omega_de = 0.69
Omega_k = 0
H_0 = 100
w_de = -1
zeff = 0
beta = 0
fgrowth = 0
b_1 = 2
gamma = 0.55
Lx = 3500 Ly = 3500 Lz = 3500
nx = 700 ny = 700 nz = 700
xoffset = -983.599254 yoffset = -42.9823471 zoffset = 800.977702
bins = 400 dk = 0.001
kx_ny = 0.628318531 ky_ny = 0.628318531 kz_ny = 0.628318531
############################
A(data) = 9.11222593 (not used)
A(ran) = 9.12281013 (used)
Ngal = 506824
weighted Ngal = 0
Nran = 25229228
weighted Nran = 0
SN(data) = 6681.83851
SN(ran) = 135.421831
SN(data+ran) = 6817.26035
############################
13 columns: k_central k_mean P_0(k) sigma^{lin}_{P_0(k)} P^img_1(k) sigma^{lin}_{P_1(k)} P_2(k) sigma^{lin}_{P_2(k)} P^img_3(k) sigma^{lin}_{P_3(k)} P_4(k) sigma^{lin}_{P_4(k)} N_modes
### header ###
0.00050000 0 0 0 0 0 0 0 0 0 0 0 0
0.00150000 0.00179520 34196.95166879 0 -11969.66905044 0 -3560.47344908 0 1507.89621653 0 -56732.35154804 0 3
0.00250000 0.00253879 32104.39059204 0 -4768.89726333 0 6119.31864733 0 -21109.82204965 0 3729.75669713 0 6
0.00350000 0.00331552 27502.95313772 0 3636.64047536 0 -7177.13298692 0 -18788.23263458 0 -42119.90418026 0 7
0.00450000 0.00420575 31243.85917602 0 1533.13876432 0 8943.35339684 0 2492.19081183 0 21542.17482645 0 24
0.00550000 0.00557378 37896.11633128 0 -396.94071171 0 14647.26846287 0 -3902.41220897 0 -6205.41572722 0 45
0.00650000 0.00659388 40088.30748134 0 -1275.29789212 0 18461.00221738 0 23216.55322502 0 34591.95689881 0 40
0.00750000 0.00754703 47748.72870812 0 -12269.43803618 0 -8496.72067569 0 2487.63221421 0 -24772.29823972 0 57
0.00850000 0.00846663 54747.21959114 0 -15430.68817937 0 10723.85375113 0 -17814.88965815 0 -21601.71120984 0 75
0.00950000 0.00948925 63019.70120215 0 8429.22047717 0 -8030.62329191 0 -18040.73247042 0 -17027.29580407 0 112
0.01050000 0.01054430 69717.21479645 0 2195.20092295 0 7590.51540687 0 -9097.02756726 0 595.21554218 0 105
0.01150000 0.01145670 69031.11839302 0 -10383.12329422 0 10423.57947504 0 -1035.30914728 0 -20818.51118479 0 144
0.01250000 0.01249090 78055.16446004 0 -3608.23437066 0 12957.07227978 0 5351.05764099 0 -22149.84138165 0 169
0.01350000 0.01339930 75722.26093522 0 4076.21011635 0 16418.64063733 0 -719.23905582 0 -12298.21761635 0 180
0.01450000 0.01448870 81726.75784535 0 -1928.91291443 0 17029.71241003 0 10680.99194891 0 5272.56188533 0 267
0.01550000 0.01550050 83056.44035633 0 -8012.15822540 0 368.85975037 0 9533.97189540 0 2058.83843892 0 238
0.01650000 0.01653350 93044.93189599 0 -1268.03708965 0 15069.51543289 0 8032.06227092 0 12286.35427796 0 315
0.01750000 0.01747870 92165.83655231 0 795.12158167 0 9453.22430235 0 -22211.46483383 0 18052.48596308 0 297
0.01850000 0.01844180 82966.03732398 0 3583.82665039 0 14212.16954292 0 10195.56171740 0 10789.14605055 0 388
0.01950000 0.01947590 97542.23560225 0 5684.73600230 0 29322.54758582 0 -1563.12664747 0 7355.02813987 0 399
0.02050000 0.02045430 89079.39134840 0 -1236.99468753 0 38886.59524094 0 -13101.18987204 0 13054.94482147 0 462
0.02150000 0.02154770 84853.62627636 0 5497.22934833 0 44404.47558573 0 -668.07731057 0 3290.30788644 0 571
0.02250000 0.02255340 78968.09228728 0 5443.81137187 0 40346.88431990 0 -870.29999642 0 6447.39487662 0 510
0.02350000 0.02348930 73835.88028582 0 287.57281481 0 46113.12585075 0 1062.14995038 0 -2149.53805473 0 555
0.02450000 0.02439640 74637.64423853 0 2028.00474369 0 44555.95284162 0 18803.39134474 0 7222.97160830 0 592
0.02550000 0.02547300 74138.83479761 0 1696.01800656 0 34680.93193672 0 11262.92165055 0 12155.08863561 0 837
0.02650000 0.02652900 69411.51414151 0 2339.92266671 0 27893.12515580 0 4361.04008338 0 11697.25165042 0 723
0.02750000 0.02749970 66044.52295387 0 6890.17201280 0 32047.82004325 0 -3136.17236398 0 9539.39827425 0 826
0.02850000 0.02848090 57858.59977481 0 2742.27657579 0 27507.23712102 0 479.31621842 0 10422.31624919 0 831
0.02950000 0.02946900 55338.73882465 0 -1687.03262619 0 27301.05669367 0 5414.75717739 0 1474.74477648 0 996
0.03050000 0.03053250 50133.91879843 0 3932.18040066 0 25368.43099371 0 -279.38271749 0 -5307.44888785 0 1041
0.03150000 0.03150510 52203.96150138 0 1749.53484418 0 24779.21852045 0 -577.48973740 0 8951.25130453 0 1036
0.03250000 0.03246190 48088.15200088 0 310.14720992 0 23048.04988163 0 3653.73247030 0 -5765.25291932 0 1059
0.03350000 0.03345080 50197.51947367 0 -381.11963183 0 23977.23487628 0 2569.25857306 0 -2041.47182967 0 1302
0.03450000 0.03451200 50143.91475948 0 1049.79120777 0 18956.73597798 0 2368.85603088 0 -1342.51249175 0 1339
0.03550000 0.03553350 46166.07149060 0 285.15840575 0 20000.38021893 0 3040.60658252 0 3660.86145790 0 1365
0.03650000 0.03647120 47787.06486642 0 1346.97222821 0 21380.37207233 0 3219.43542415 0 4559.58623279 0 1308
0.03750000 0.03744890 48987.01957521 0 -760.52457187 0 17886.06968848 0 4934.75332473 0 4248.26147669 0 1579
0.03850000 0.03847530 47218.06400671 0 186.11381016 0 18565.13596545 0 -37.72783268 0 10707.09129337 0 1662
0.03950000 0.03950240 46235.16445213 0 1425.80850563 0 18650.81563159 0 -102.63369484 0 10226.97759498 0 1683
0.04050000 0.04050350 46349.73354416 0 1226.38359042 0 19661.50615480 0 510.66069628 0 10283.13073002 0 1822
0.04150000 0.04152450 42967.69349209 0 972.41148468 0 22857.35770161 0 -656.26779659 0 8804.22280053 0 1887
0.04250000 0.04250150 42873.99508797 0 2327.86160601 0 21926.96440397 0 2355.65257464 0 11890.25059067 0 1920
0.04350000 0.04349210 41538.16121635 0 -516.23536686 0 19608.56051496 0 4549.27171914 0 9393.58905781 0 2005
0.04450000 0.04448520 41746.31886677 0 -416.22632579 0 19385.24415438 0 748.22844132 0 5389.61349075 0 2151
0.04550000 0.04548030 41981.27887428 0 2435.52140188 0 20344.30718645 0 -1555.12987863 0 3382.41352754 0 2274
0.04650000 0.04648670 36960.01105590 0 992.61431057 0 21101.14423731 0 -3518.30367494 0 9742.71172816 0 2311
0.04750000 0.04749250 37834.05349619 0 -213.47638046 0 19579.12186044 0 4002.84415608 0 2845.44368147 0 2568
0.04850000 0.04851840 38853.20214029 0 32.59155639 0 17935.82980227 0 3020.52678385 0 902.56607992 0 2493
0.04950000 0.04949480 37912.59319015 0 -831.85618930 0 16599.77623920 0 1742.83425490 0 1675.68556271 0 2644
0.05050000 0.05050630 37880.29854676 0 1314.26017107 0 15434.53277977 0 661.65463098 0 2915.59116198 0 2829
0.05150000 0.05149060 37751.99873901 0 -73.30137098 0 11617.06427058 0 2479.17409332 0 4185.21003007 0 2784
0.05250000 0.05249300 38269.81149050 0 -275.04161441 0 14242.59680897 0 997.35964592 0 -613.14346309 0 3055
0.05350000 0.05348950 35866.05747252 0 1287.39190653 0 13290.78359480 0 -432.44504721 0 3301.14965958 0 3009
0.05450000 0.05448610 34935.99371206 0 1374.90599629 0 12724.08949532 0 -510.68486234 0 4006.42512674 0 3336
0.05550000 0.05550870 33795.13600376 0 726.06706614 0 13471.04043086 0 968.67343463 0 1575.90170538 0 3349
0.05650000 0.05647670 33429.34973680 0 630.92528918 0 13938.87337710 0 1814.96994304 0 1266.46629577 0 3324
0.05750000 0.05747970 32955.91465855 0 -541.22966331 0 12644.01196121 0 1857.39236235 0 3762.33693941 0 3639
0.05850000 0.05849280 32198.96776197 0 227.43887067 0 9959.08583887 0 242.19884085 0 3247.72069855 0 3846
0.05950000 0.05951020 32712.60637587 0 656.71157332 0 12121.58568924 0 -900.17473847 0 -1312.06325655 0 3787
0.06050000 0.06049470 32203.14189955 0 602.10286919 0 11973.73334229 0 -436.03919936 0 3275.34689859 0 3930
0.06150000 0.06148310 31382.48448199 0 437.89229675 0 13206.20238592 0 -931.24350356 0 -642.44810582 0 4083
0.06250000 0.06249100 30691.66471235 0 944.85009361 0 12817.34851654 0 -11.31861343 0 -8.30813753 0 4303
0.06350000 0.06350600 30190.21897402 0 356.44828181 0 14238.31282566 0 482.63575625 0 -127.08271711 0 4470
0.06450000 0.06451750 29555.75006172 0 280.17360672 0 14260.06227937 0 692.05223868 0 3392.03601312 0 4479
0.06550000 0.06550280 29686.79601261 0 -293.58027755 0 13685.67897910 0 2280.66089763 0 1007.24576125 0 4636
0.06650000 0.06648880 29885.72662206 0 542.76530656 0 13986.21688492 0 165.23433460 0 1766.00071848 0 4653
0.06750000 0.06749660 29694.70490487 0 162.48050225 0 12954.87536526 0 683.92585189 0 3063.63024665 0 5220
0.06850000 0.06852730 29243.89804613 0 -9.41061515 0 12625.11849637 0 1291.12666121 0 3969.17644112 0 5029
0.06950000 0.06949320 29262.68166525 0 410.54400640 0 11470.96945525 0 -374.23340327 0 1470.21913258 0 5040
0.07050000 0.07048030 28399.51395180 0 138.20020302 0 11631.56390638 0 1128.24741897 0 3317.22008927 0 5475
0.07150000 0.07148790 28155.65644050 0 -272.90841041 0 10246.17862785 0 2640.64731026 0 4651.46119786 0 5509
0.07250000 0.07249820 28788.25797546 0 -383.06719654 0 8341.64047998 0 2852.72645309 0 3260.62757133 0 5916
0.07350000 0.07351270 28746.73629110 0 1115.36251534 0 7726.46047714 0 -788.44845383 0 1717.15232421 0 5721
0.07450000 0.07449140 27501.85468046 0 462.25827565 0 8251.76470712 0 -948.51235011 0 4536.49666122 0 6028
0.07550000 0.07549160 26434.26407128 0 -105.69037185 0 8897.36099144 0 953.39609108 0 4463.04282437 0 6183
0.07650000 0.07648840 26279.60128933 0 753.94371444 0 8592.91257778 0 -1115.69205251 0 2860.08611672 0 6330
0.07750000 0.07749960 25983.67690399 0 984.59337567 0 9293.62944732 0 118.71576817 0 1134.12416531 0 6583
0.07850000 0.07848650 25756.95532591 0 194.72901044 0 8901.15066899 0 -763.96384155 0 1782.14804017 0 6549
0.07950000 0.07947320 24922.89672981 0 -125.65472267 0 9120.30387656 0 1227.42712481 0 1647.45521118 0 6828
0.08050000 0.08048110 24305.67359646 0 297.61381260 0 9796.11872005 0 -435.37682963 0 767.02084809 0 7147
0.08150000 0.08149960 24186.05160105 0 804.62763078 0 8914.23329493 0 -322.79264988 0 920.19631891 0 7386
0.08250000 0.08250610 23417.02167463 0 516.65168216 0 9773.65526912 0 250.78657969 0 854.08566883 0 7227
0.08350000 0.08350160 22616.57587063 0 302.32509578 0 9768.98682577 0 -514.62393006 0 1735.17800781 0 7798
0.08450000 0.08449610 21833.04630840 0 518.77500004 0 10071.35915522 0 125.42294819 0 -502.36514706 0 7371
0.08550000 0.08548940 21983.31526132 0 418.17718589 0 10182.18250799 0 1013.54431517 0 2189.97226640 0 8256
0.08650000 0.08650700 22023.40895124 0 -375.12425211 0 9400.97069058 0 815.06077782 0 -59.43181026 0 8037
0.08750000 0.08749060 21280.96169047 0 119.36275950 0 8909.86143504 0 893.56532115 0 2033.38718425 0 8155
0.08850000 0.08849210 21268.54912345 0 347.22453621 0 7800.71618779 0 457.10651111 0 338.01397210 0 8718
0.08950000 0.08949900 21009.64274771 0 620.36801648 0 8030.79904507 0 -205.03583489 0 1032.90352588 0 8571
0.09050000 0.09049190 20018.50476369 0 357.44018871 0 8697.99099909 0 488.59488688 0 1030.70770982 0 8932
0.09150000 0.09150830 19933.15463473 0 -127.65391488 0 7270.82040646 0 578.58819466 0 1757.34487528 0 9285
0.09250000 0.09250820 19258.26249534 0 -21.18715344 0 6104.48947435 0 1105.60821488 0 503.91616871 0 9204
0.09350000 0.09350330 19540.23647350 0 735.11505857 0 6050.91771387 0 287.28282209 0 -408.28338136 0 9349
0.09450000 0.09448040 18786.47510297 0 326.86572939 0 5913.64351032 0 -290.13551559 0 1096.42730912 0 9564
0.09550000 0.09549270 18466.27481222 0 439.52789961 0 5643.12644136 0 -391.35945039 0 -252.63748017 0 10155
0.09650000 0.09649430 17522.91971894 0 171.41315667 0 6168.14507246 0 -15.74308942 0 -357.09966696 0 9913
0.09750000 0.09749140 17171.52324206 0 471.74235562 0 6095.91052316 0 84.41138738 0 -1027.94838519 0 10476
0.09850000 0.09850240 17121.21389964 0 198.92951099 0 6599.28954627 0 33.23228650 0 -209.35167346 0 10575
0.09950000 0.09950330 16910.85933470 0 -133.17366260 0 5836.49885708 0 897.96244555 0 -704.65154344 0 10882
0.10050000 0.10051200 16861.75829527 0 104.26237742 0 5957.66967723 0 159.95405056 0 -926.81672081 0 10875
0.10150000 0.10150300 16423.80338645 0 546.53081804 0 5934.48124451 0 -381.17345623 0 566.24702737 0 11118
0.10250000 0.10250800 16042.52887215 0 83.93839169 0 5801.12853337 0 397.99193531 0 486.60448232 0 11575
0.10350000 0.10349800 16465.87429943 0 80.24526854 0 6304.46361819 0 349.08751972 0 861.50025532 0 11364
0.10450000 0.10450100 15743.63865221 0 108.76791955 0 5851.54772152 0 808.92918941 0 786.40532333 0 12093
0.10550000 0.10551000 16117.11411998 0 90.75926203 0 5954.94550323 0 -129.42133261 0 813.12309922 0 12067
0.10650000 0.10649700 15419.48391533 0 -33.97857837 0 5259.55615139 0 302.20426549 0 1506.05080834 0 12054
0.10750000 0.10749900 15794.16768608 0 275.18990614 0 5885.90746455 0 311.77072975 0 1095.87917895 0 12807
0.10850000 0.10850100 15530.64778986 0 339.49579094 0 4980.58096154 0 -280.78215204 0 1162.34353227 0 12736
0.10950000 0.10950300 15277.45339186 0 -162.24213703 0 5482.05965360 0 547.18879394 0 1251.43940047 0 12933
0.11050000 0.11050200 14976.36625740 0 244.02227989 0 5665.44709284 0 75.08581480 0 1072.55893136 0 13428
0.11150000 0.11150900 14874.42942385 0 366.89021650 0 5646.49870514 0 -180.84560915 0 775.82388456 0 13453
0.11250000 0.11250000 14634.63620440 0 175.37968583 0 5720.75441579 0 -312.54184674 0 468.28660909 0 13668
0.11350000 0.11349100 14409.23277503 0 286.02728545 0 5723.90698812 0 -252.26510316 0 -106.61735993 0 13791
0.11450000 0.11448600 14142.52735275 0 -113.82983029 0 5607.71217936 0 347.46399989 0 660.49356166 0 14205
0.11550000 0.11549300 14363.64679882 0 -253.81392789 0 5329.14341869 0 1006.36150316 0 -194.04247465 0 14776
0.11650000 0.11649800 14009.39433307 0 310.97874206 0 5157.05910463 0 -115.28638461 0 471.71050036 0 14553
0.11750000 0.11747300 13918.55191782 0 483.98576022 0 4579.03991083 0 308.81587972 0 422.62593778 0 14568
0.11850000 0.11849100 13766.85497047 0 31.78484938 0 5047.37814741 0 353.00351985 0 947.50396635 0 16015
0.11950000 0.11950300 13838.03500080 0 -139.88633491 0 4394.20250801 0 171.78663214 0 158.66995402 0 15270
0.12050000 0.12050700 13460.60508690 0 3.23456118 0 4593.52856207 0 408.80514856 0 1135.42034487 0 15999
0.12150000 0.12150000 13660.74399934 0 159.60913498 0 4033.48012901 0 -221.37428815 0 242.40095698 0 15670
0.12250000 0.12250700 13295.50696101 0 64.42210158 0 3979.50193934 0 -268.58707956 0 55.30754264 0 16887
0.12350000 0.12352200 13210.92575213 0 150.40955544 0 3915.94520239 0 535.55613158 0 32.20292221 0 16407
0.12450000 0.12449800 13455.55218352 0 44.09833555 0 4184.41914085 0 -369.58363370 0 -55.90993660 0 16306
0.12550000 0.12549900 13205.43346584 0 57.96086615 0 3637.16773484 0 222.36729351 0 -587.47910771 0 17523
0.12650000 0.12650100 13061.75525648 0 -12.23165111 0 3681.66623837 0 232.29185483 0 -692.91782300 0 17154
0.12750000 0.12750600 12964.43194340 0 256.28765364 0 3450.15538665 0 -7.28294737 0 -380.63191680 0 18007
0.12850000 0.12850300 12604.57734564 0 211.37503173 0 3973.73503874 0 129.56303360 0 -329.66350002 0 17496
0.12950000 0.12949900 12534.93515547 0 304.22652530 0 4108.62559004 0 -368.70267098 0 -446.40643896 0 18405
0.13050000 0.13049000 12274.49093957 0 96.71136253 0 3895.30519051 0 -187.86365257 0 -180.47103523 0 18100
0.13150000 0.13148800 12209.46226989 0 -88.05804579 0 4014.24614242 0 549.64274745 0 -430.43157506 0 19059
0.13250000 0.13249300 12107.96481924 0 -56.70049629 0 3716.37748773 0 846.42173254 0 396.05205979 0 18957
0.13350000 0.13349100 12282.50967755 0 187.66702872 0 3421.88109682 0 272.90181967 0 669.90734036 0 19468
0.13450000 0.13450700 12302.61144538 0 56.38128461 0 3085.96188271 0 -59.28384807 0 589.19489795 0 19953
0.13550000 0.13551000 12188.26204481 0 238.28943146 0 3937.59579494 0 -439.10279665 0 17.31553099 0 19956
0.13650000 0.13649900 11459.21596258 0 424.23847304 0 3831.35300894 0 -463.02390036 0 580.96305925 0 19723
0.13750000 0.13749600 11342.77949322 0 46.50252895 0 4410.19604568 0 66.48906861 0 1008.35739999 0 20946
0.13850000 0.13851100 11170.10201224 0 72.02441442 0 4256.46695241 0 328.96927504 0 382.58167844 0 20955
0.13950000 0.13949800 11121.76989288 0 167.88051813 0 4597.03264072 0 97.12646953 0 985.01518326 0 20506
0.14050000 0.14048300 11069.48332740 0 -37.44629808 0 4429.41904770 0 37.80450500 0 780.25615960 0 21447
0.14150000 0.14148400 11255.67183265 0 34.42103695 0 4145.69852250 0 372.43303183 0 1209.88476240 0 21771
0.14250000 0.14249400 10976.69664280 0 46.68783869 0 4039.47770564 0 -383.00458448 0 243.24237524 0 22470
0.14350000 0.14350900 10903.24280595 0 298.78147267 0 4283.46703181 0 -114.22857027 0 625.68125423 0 22519
0.14450000 0.14449900 10555.99849751 0 173.61666193 0 4634.84153954 0 55.26206651 0 616.10710077 0 22218
0.14550000 0.14550500 10433.88300412 0 58.49779205 0 4340.49893265 0 27.81107040 0 412.53770632 0 23559
0.14650000 0.14650700 10266.26941110 0 120.59522854 0 3959.74069327 0 798.78493663 0 443.57791152 0 23044
0.14750000 0.14750500 10467.53973451 0 -83.47374427 0 3489.56803307 0 635.90679285 0 184.64407435 0 23649
0.14850000 0.14849900 10001.96961022 0 191.49075844 0 3220.62175799 0 -2.42069223 0 538.55931372 0 23640
0.14950000 0.14949500 10095.70096806 0 98.61026559 0 2892.77620472 0 -7.05740115 0 149.80540395 0 24457
0.15050000 0.15050000 9643.92746694 0 13.28584054 0 2899.52073229 0 182.09675197 0 307.25277504 0 24591
0.15150000 0.15149900 9872.14294689 0 59.58614350 0 2607.92426854 0 62.90952594 0 -360.03144938 0 25020
0.15250000 0.15250500 9648.83757088 0 292.35549771 0 2702.39159274 0 -506.63594888 0 -617.47907389 0 25297
0.15350000 0.15350100 9292.16849916 0 179.03095776 0 2359.82671222 0 225.42210314 0 -412.00385609 0 25452
0.15450000 0.15450400 9346.16865797 0 -171.41095976 0 2641.27343090 0 277.79654521 0 -324.81710660 0 26061
0.15550000 0.15549900 9230.54504698 0 153.97075387 0 2603.49748579 0 69.43622943 0 -419.85672703 0 26128
0.15650000 0.15649500 9301.52735500 0 256.26129066 0 2709.39975005 0 -304.39568772 0 -402.14300529 0 26331
0.15750000 0.15749700 9023.25517780 0 122.37033547 0 2655.12497693 0 -233.00804897 0 45.83631462 0 27345
0.15850000 0.15849900 8980.74488191 0 27.46362837 0 2990.64874642 0 293.62751121 0 -39.30917175 0 26980
0.15950000 0.15949700 9007.32754756 0 -168.63845364 0 2717.55030291 0 660.98127668 0 341.13908300 0 27777
0.16050000 0.16050000 9261.58744910 0 -163.35157886 0 2366.24170261 0 654.68162431 0 248.13600233 0 28224
0.16150000 0.16150500 9264.81691344 0 31.75288427 0 2094.67011468 0 -254.75420731 0 451.47911458 0 28075
0.16250000 0.16249700 8921.46114369 0 432.04960260 0 2522.06884925 0 -642.16690076 0 543.50896212 0 28590
0.16350000 0.16349900 8570.67980288 0 244.49571497 0 2779.20670881 0 -285.76695108 0 690.24198112 0 29163
0.16450000 0.16449100 8507.39768023 0 3.39839608 0 2998.00841005 0 349.62246841 0 546.02772462 0 28996
0.16550000 0.16550500 8478.38742405 0 71.01910634 0 3055.18311034 0 -25.63370842 0 137.29946807 0 30777
0.16650000 0.16650700 8433.58135249 0 60.79675325 0 2886.48204464 0 108.53295954 0 706.73751377 0 29211
0.16750000 0.16749900 8538.25334462 0 39.30730437 0 2840.34683979 0 61.35015602 0 -117.38224106 0 30922
0.16850000 0.16850800 8499.78537144 0 -130.51978987 0 2817.16939165 0 -84.85395581 0 309.27064103 0 30867
0.16950000 0.16949900 8425.01338587 0 141.90200398 0 2904.83726542 0 13.74927965 0 -84.83418358 0 30852
0.17050000 0.17049200 8314.57449314 0 174.62175033 0 2761.46662409 0 -327.09970078 0 -348.70525659 0 31257
0.17150000 0.17149500 8170.51182374 0 113.05431946 0 2884.03248495 0 309.42222813 0 -201.92280702 0 32608
0.17250000 0.17250900 8203.45455691 0 76.51260093 0 2771.25387826 0 104.35904165 0 -162.65955078 0 32361
0.17350000 0.17350400 8117.79685992 0 -45.13374136 0 2718.86845162 0 171.56584223 0 -230.79685451 0 32508
0.17450000 0.17449800 7874.89500643 0 221.07550777 0 2565.61169496 0 154.84183048 0 -170.43223434 0 32791
0.17550000 0.17549800 7913.20919559 0 24.02347993 0 2617.62364613 0 -102.32733511 0 -10.69178978 0 33633
0.17650000 0.17650100 7770.49762861 0 -12.35259125 0 2722.29563826 0 215.02850057 0 138.26611045 0 33984
0.17750000 0.17750300 7755.77830136 0 90.16378835 0 2482.24977364 0 133.28131142 0 1.34096367 0 34069
0.17850000 0.17849800 7773.10097232 0 99.12423375 0 2268.20439232 0 210.26229452 0 98.85884647 0 34536
