### header ###
fiducial parameters:
Omega_m = 0.31
Omega_nu = 0
Omega_de = 0.69
Omega_k = 0
H_0 = 100
w_de = -1
zeff = 0
beta = 0
fgrowth = 0
b_1 = 2
gamma = 0.55
Lx = 3500 Ly = 3500 Lz = 3500
nx = 700 ny = 700 nz = 700
xoffset = -983.599254 yoffset = -42.9823471 zoffset = 800.977702
bins = 400 dk = 0.001
kx_ny = 0.628318531 ky_ny = 0.628318531 kz_ny = 0.628318531
############################
A(data) = 9.079181 (not used)
A(ran) = 9.08301477 (used)
Ngal = 504844
weighted Ngal = 0
Nran = 25229228
weighted Nran = 0
SN(data) = 6704.89962
SN(ran) = 134.831097
SN(data+ran) = 6839.73072
############################
13 columns: k_central k_mean P_0(k) sigma^{lin}_{P_0(k)} P^img_1(k) sigma^{lin}_{P_1(k)} P_2(k) sigma^{lin}_{P_2(k)} P^img_3(k) sigma^{lin}_{P_3(k)} P_4(k) sigma^{lin}_{P_4(k)} N_modes
### header ###
0.00050000 0 0 0 0 0 0 0 0 0 0 0 0
0.00150000 0.00179520 44674.47637977 0 -47601.86497270 0 -39986.26080206 0 26222.26182046 0 -49814.92681067 0 3
0.00250000 0.00253879 73715.48937033 0 -46123.78088616 0 -16128.09869256 0 -55671.24183668 0 55545.13894345 0 6
0.00350000 0.00331552 72814.75441866 0 2560.43796128 0 -20930.22428794 0 -82803.46564978 0 12294.15332449 0 7
0.00450000 0.00420575 83378.72771586 0 10655.22214164 0 1180.55595361 0 -72963.92491431 0 17103.41889205 0 24
0.00550000 0.00557378 87116.33838239 0 -4539.82498672 0 22039.88581011 0 23466.56209698 0 -6903.83682109 0 45
0.00650000 0.00659388 94492.91825367 0 -6959.58352694 0 4001.29533134 0 25617.12171695 0 34901.83169133 0 40
0.00750000 0.00754703 128131.74378959 0 -19636.35148359 0 -7569.32616636 0 -6235.35967208 0 -51810.27442007 0 57
0.00850000 0.00846663 95072.35445733 0 18750.00632200 0 47691.16954779 0 -42484.15260705 0 28179.49296300 0 75
0.00950000 0.00948925 77620.83446017 0 29739.63180673 0 51330.79782689 0 13141.83279059 0 15457.92991937 0 112
0.01050000 0.01054430 77265.26384572 0 -10842.91553333 0 54330.35506168 0 29579.47673849 0 25213.87805749 0 105
0.01150000 0.01145670 77238.46148862 0 2657.64044405 0 50987.42008800 0 55830.84767629 0 4829.20256680 0 144
0.01250000 0.01249090 80526.80313657 0 -3679.99658334 0 32040.89976252 0 398.15231007 0 39476.57663428 0 169
0.01350000 0.01339930 71384.78276002 0 425.47094208 0 17565.64970628 0 15981.78418577 0 32098.67861430 0 180
0.01450000 0.01448870 81465.54470937 0 3755.27385924 0 27069.83144083 0 -3351.23931055 0 13221.03155890 0 267
0.01550000 0.01550050 70196.36185244 0 3164.76520641 0 21500.43345064 0 -1498.52637612 0 31315.58843497 0 238
0.01650000 0.01653350 78069.55425012 0 -908.49774911 0 24922.78688408 0 3917.94439460 0 -6018.90866937 0 315
0.01750000 0.01747870 70215.36516301 0 -2697.19588991 0 18137.28686341 0 -4605.21614729 0 23459.86150770 0 297
0.01850000 0.01844180 73494.91915290 0 3958.25777597 0 26495.77767773 0 -1024.50801706 0 -29075.28485701 0 388
0.01950000 0.01947590 70942.76355935 0 3882.54111717 0 25676.54825462 0 -4635.01729271 0 9039.84188240 0 399
0.02050000 0.02045430 66505.10608221 0 512.32266211 0 33639.70430173 0 -4205.92693396 0 -4247.87701665 0 462
0.02150000 0.02154770 64691.88268621 0 -1330.90179853 0 28737.06986723 0 9980.78036971 0 -3196.78523549 0 571
0.02250000 0.02255340 71881.50513215 0 1795.52724957 0 22453.34512207 0 12152.89172109 0 -8567.04390935 0 510
0.02350000 0.02348930 65867.34179814 0 5249.84578923 0 25248.04007822 0 -8522.21586865 0 -1424.63315636 0 555
0.02450000 0.02439640 67638.82381833 0 -291.85899503 0 24041.27493443 0 6697.53556344 0 4311.00535527 0 592
0.02550000 0.02547300 64798.54288597 0 -1501.07479696 0 25493.76496686 0 -4190.87806952 0 -12366.87119498 0 837
0.02650000 0.02652900 61151.99432614 0 6289.68936807 0 19235.63427582 0 4361.87491090 0 -4383.89897892 0 723
0.02750000 0.02749970 62216.50925500 0 76.51271078 0 28431.25936656 0 441.11956418 0 -1431.91592799 0 826
0.02850000 0.02848090 59279.78377538 0 -3597.38161295 0 16681.06207630 0 6409.53105493 0 -5098.24770303 0 831
0.02950000 0.02946900 61543.48449294 0 -378.46136526 0 19198.61626622 0 4861.05782728 0 -3204.03505339 0 996
0.03050000 0.03053250 58968.92037133 0 2159.52303120 0 14139.34182670 0 -704.73063236 0 4609.11567056 0 1041
0.03150000 0.03150510 56369.64096140 0 2645.86498224 0 25587.68306243 0 -2527.05584520 0 1111.89139040 0 1036
0.03250000 0.03246190 54531.70227709 0 2984.96972240 0 17135.27415254 0 -684.94302331 0 3280.21306424 0 1059
0.03350000 0.03345080 55132.22886012 0 -540.44097100 0 20508.19700937 0 8261.88149847 0 9162.52857356 0 1302
0.03450000 0.03451200 53305.16490266 0 655.42637833 0 18135.74902325 0 6719.33994002 0 3792.58845230 0 1339
0.03550000 0.03553350 55101.69174834 0 2931.28811619 0 15021.18331354 0 -412.90678796 0 8028.39342368 0 1365
0.03650000 0.03647120 48171.19536959 0 2222.46463209 0 17762.49324694 0 -4008.53416467 0 9411.15338936 0 1308
0.03750000 0.03744890 45528.74658943 0 1237.52194701 0 19244.86131679 0 290.37717619 0 11289.61416193 0 1579
0.03850000 0.03847530 43230.99369686 0 529.43992156 0 17638.25773104 0 6194.91447584 0 10616.49053871 0 1662
0.03950000 0.03950240 43829.54305682 0 -55.64498871 0 17010.05002511 0 -674.80755819 0 6571.25691705 0 1683
0.04050000 0.04050350 42629.58834803 0 2202.95603119 0 14950.88204901 0 5197.59217746 0 8133.42790670 0 1822
0.04150000 0.04152450 44757.40990276 0 -507.57732675 0 16790.46841921 0 -732.42054292 0 5615.09381213 0 1887
0.04250000 0.04250150 42972.30701257 0 -3013.78225628 0 14267.20225155 0 -1626.25498610 0 9678.24327168 0 1920
0.04350000 0.04349210 43349.95661792 0 742.54282655 0 16559.24316637 0 -778.80619602 0 955.74129733 0 2005
0.04450000 0.04448520 42566.75659287 0 2938.48301124 0 15007.45259781 0 -4529.69721080 0 -692.22030264 0 2151
0.04550000 0.04548030 41372.07447892 0 3300.54550809 0 23058.37537985 0 -4477.97085851 0 -2779.40443111 0 2274
0.04650000 0.04648670 40717.28410735 0 21.41596209 0 22688.74451249 0 2442.29888316 0 -1401.68638424 0 2311
0.04750000 0.04749250 39955.06461593 0 -1077.38225718 0 22112.60368060 0 5182.31263700 0 -1067.32148715 0 2568
0.04850000 0.04851840 40787.14598896 0 558.13272360 0 20013.34201458 0 2058.15739542 0 505.71983553 0 2493
0.04950000 0.04949480 39247.21875878 0 516.59346393 0 19845.27805408 0 357.52586838 0 1385.33035567 0 2644
0.05050000 0.05050630 37998.93193064 0 1162.31057855 0 19092.72498654 0 1791.80347947 0 2266.12830810 0 2829
0.05150000 0.05149060 38094.60755782 0 928.22713993 0 20209.41663516 0 137.78278926 0 2646.57897946 0 2784
0.05250000 0.05249300 36548.30927555 0 -446.74036997 0 16976.54707874 0 1137.59529024 0 2631.83768305 0 3055
0.05350000 0.05348950 37093.25392131 0 313.80507259 0 18267.78358568 0 1446.50344037 0 -2063.68263543 0 3009
0.05450000 0.05448610 35574.08753331 0 575.20714322 0 17397.69559151 0 -1758.10281079 0 368.92785472 0 3336
0.05550000 0.05550870 36184.17069448 0 1361.15331142 0 18326.11166608 0 1520.00121552 0 189.49596006 0 3349
0.05650000 0.05647670 34985.42428867 0 -1010.73006767 0 15832.50384439 0 1863.43387727 0 4051.34104402 0 3324
0.05750000 0.05747970 35689.97477404 0 -855.33681165 0 14930.34089829 0 5969.15954015 0 1295.16898392 0 3639
0.05850000 0.05849280 36424.73283401 0 665.31798594 0 12929.83053977 0 1511.65294035 0 3906.50945454 0 3846
0.05950000 0.05951020 36018.52333995 0 1864.96073286 0 13983.58058750 0 -2090.52893082 0 3781.77963288 0 3787
0.06050000 0.06049470 32685.69417304 0 767.67552862 0 14466.24270673 0 -911.78213632 0 5674.86087155 0 3930
0.06150000 0.06148310 32217.20215245 0 493.42150807 0 14336.62475027 0 -39.55280957 0 1923.60736587 0 4083
0.06250000 0.06249100 32141.73813882 0 -273.69380735 0 14106.82749186 0 1021.20715300 0 3012.85955218 0 4303
0.06350000 0.06350600 33014.79196758 0 -606.48461519 0 12667.29925508 0 2657.21204572 0 1102.92797917 0 4470
0.06450000 0.06451750 32334.84692480 0 -120.86874440 0 11510.07453363 0 737.30977618 0 3752.81331498 0 4479
0.06550000 0.06550280 32196.22161882 0 667.69614590 0 11058.49875482 0 -59.69489077 0 1312.74430005 0 4636
0.06650000 0.06648880 31971.91664671 0 1280.85608585 0 10824.51637426 0 -466.36321043 0 -578.16309170 0 4653
0.06750000 0.06749660 31175.31544311 0 728.66381910 0 11972.30534786 0 -291.15598238 0 1414.37356557 0 5220
0.06850000 0.06852730 29900.99517795 0 -380.81316225 0 12624.45942201 0 1070.37629679 0 1599.77118160 0 5029
0.06950000 0.06949320 29185.13058282 0 641.95489851 0 11603.55324630 0 176.35950971 0 983.25325782 0 5040
0.07050000 0.07048030 28972.35941192 0 1619.34568994 0 12317.11108119 0 -424.02317541 0 158.56450213 0 5475
0.07150000 0.07148790 27237.34617270 0 361.85378997 0 12269.10849901 0 1251.62613821 0 4024.89019325 0 5509
0.07250000 0.07249820 26900.44933163 0 58.59533506 0 12692.34408056 0 1538.88369578 0 1228.07521459 0 5916
0.07350000 0.07351270 26567.72662814 0 388.51993837 0 12681.68904516 0 -494.22997261 0 3503.82600828 0 5721
0.07450000 0.07449140 26359.01974909 0 35.54157320 0 10651.05898863 0 1740.30780321 0 4875.72223168 0 6028
0.07550000 0.07549160 26371.43231611 0 -1467.81351118 0 9894.46359837 0 2269.28088043 0 4326.40572603 0 6183
0.07650000 0.07648840 28209.81038332 0 -50.54375320 0 8069.15717253 0 1780.90678347 0 1509.19239610 0 6330
0.07750000 0.07749960 27583.68974619 0 1275.84712075 0 8517.21788812 0 -857.57107371 0 4451.46508487 0 6583
0.07850000 0.07848650 26343.86103893 0 656.59733376 0 8779.97984884 0 -1114.50571868 0 2603.47551665 0 6549
0.07950000 0.07947320 25679.84362639 0 418.25078252 0 10258.08590453 0 -1402.44431975 0 2884.16429982 0 6828
0.08050000 0.08048110 25186.96585467 0 324.70616242 0 8548.94133374 0 1913.51254367 0 982.84573017 0 7147
0.08150000 0.08149960 25139.95188402 0 -367.59103223 0 8319.19899820 0 1002.80140318 0 1723.41353058 0 7386
0.08250000 0.08250610 25228.81707620 0 287.71671271 0 6795.03462967 0 1048.32586579 0 1150.42527102 0 7227
0.08350000 0.08350160 24776.47237730 0 419.56563586 0 6784.63223944 0 80.10840077 0 1282.69050947 0 7798
0.08450000 0.08449610 23010.48264340 0 182.88873965 0 6286.39399629 0 -726.36145268 0 317.20369935 0 7371
0.08550000 0.08548940 22992.46794436 0 1188.00349382 0 7672.80084008 0 -548.25869131 0 -56.63074425 0 8256
0.08650000 0.08650700 22539.46417111 0 816.16362891 0 7357.76329844 0 -735.58739520 0 -397.18017540 0 8037
0.08750000 0.08749060 21779.55143993 0 121.71345803 0 8175.76244943 0 -296.03423107 0 -1493.49544188 0 8155
0.08850000 0.08849210 21048.08875174 0 853.93627864 0 9027.04485534 0 -186.08305336 0 -2077.27055171 0 8718
0.08950000 0.08949900 20200.40928564 0 92.77767725 0 8615.35405956 0 -240.42263546 0 -79.68132058 0 8571
0.09050000 0.09049190 19596.80702229 0 -131.26893772 0 8155.47394387 0 1601.83628125 0 60.65505226 0 8932
0.09150000 0.09150830 20124.94527200 0 446.80627740 0 8418.41165775 0 753.75697670 0 -375.29121761 0 9285
0.09250000 0.09250820 19823.30890892 0 545.82121465 0 8217.93222357 0 -129.15770287 0 1177.26058183 0 9204
0.09350000 0.09350330 19435.77318825 0 84.85153921 0 8904.44604076 0 -61.50624679 0 802.33075666 0 9349
0.09450000 0.09448040 19311.42782663 0 -214.34635861 0 7960.28907368 0 415.02900738 0 1387.81286907 0 9564
0.09550000 0.09549270 19037.91196936 0 203.17724521 0 8441.49024475 0 597.63764043 0 586.41250571 0 10155
0.09650000 0.09649430 18257.56793318 0 322.78276376 0 7763.34667186 0 224.86188994 0 2286.96604229 0 9913
0.09750000 0.09749140 18514.60693158 0 82.06123808 0 7760.52363671 0 779.01050907 0 557.25725317 0 10476
0.09850000 0.09850240 18116.30632978 0 461.47178026 0 6934.75839291 0 556.79370420 0 416.26037797 0 10575
0.09950000 0.09950330 17915.83788017 0 499.68600981 0 7198.09155140 0 -152.87339507 0 1827.51432493 0 10882
0.10050000 0.10051200 16787.50258462 0 14.46459502 0 6301.17923099 0 755.81438715 0 1168.49489291 0 10875
0.10150000 0.10150300 16951.83179043 0 46.96036593 0 6458.52224864 0 835.12519810 0 1348.59794496 0 11118
0.10250000 0.10250800 16726.53820679 0 131.55453661 0 5774.85343575 0 -305.10968493 0 351.82487521 0 11575
0.10350000 0.10349800 16566.27329283 0 675.17883674 0 5767.24112696 0 -227.82552762 0 723.28577236 0 11364
0.10450000 0.10450100 15759.67612818 0 195.96257794 0 5735.35291275 0 -182.20769615 0 598.67787946 0 12093
0.10550000 0.10551000 15720.46120406 0 148.85743534 0 6229.74655549 0 598.69106094 0 896.76183177 0 12067
0.10650000 0.10649700 15579.19960067 0 37.68312547 0 6091.26404896 0 -714.50909887 0 71.79999960 0 12054
0.10750000 0.10749900 14934.84457305 0 417.37421363 0 6154.33746472 0 698.55181028 0 1007.21610290 0 12807
0.10850000 0.10850100 15398.39353598 0 -11.80808599 0 6039.79034184 0 200.97813378 0 477.94863913 0 12736
0.10950000 0.10950300 14927.15537224 0 -34.51967841 0 6375.80841711 0 25.54780906 0 574.78204026 0 12933
0.11050000 0.11050200 15101.37069338 0 434.14875442 0 6049.08329025 0 307.35163620 0 611.20248911 0 13428
0.11150000 0.11150900 14503.48040778 0 -85.06244300 0 5884.97377588 0 297.98399270 0 1364.16308430 0 13453
0.11250000 0.11250000 14703.28978303 0 -71.72936880 0 5901.13208215 0 776.17868626 0 966.69950694 0 13668
0.11350000 0.11349100 14569.16815181 0 74.54394583 0 4807.55197424 0 414.97078915 0 776.98495388 0 13791
0.11450000 0.11448600 14498.64719584 0 116.34859278 0 4904.22719753 0 441.36781552 0 1478.96285235 0 14205
0.11550000 0.11549300 14140.33043824 0 218.95548526 0 4387.71062561 0 44.91833389 0 1084.27727339 0 14776
0.11650000 0.11649800 13926.90019298 0 267.74126747 0 4697.05815865 0 -109.96216228 0 1533.33648663 0 14553
0.11750000 0.11747300 13999.06883484 0 3.07207738 0 4487.11002290 0 34.48189148 0 705.21395355 0 14568
0.11850000 0.11849100 13455.44233779 0 325.50034702 0 4694.29004635 0 -235.30931692 0 311.12923071 0 16015
0.11950000 0.11950300 13277.27257052 0 249.15646912 0 5004.47240691 0 -122.63066984 0 992.52972936 0 15270
0.12050000 0.12050700 13288.69652601 0 59.36777020 0 5243.40882970 0 65.86261843 0 804.49361900 0 15999
0.12150000 0.12150000 12821.96203702 0 -258.67460126 0 4667.24602866 0 392.81600471 0 750.33198697 0 15670
0.12250000 0.12250700 13280.23840512 0 104.50304940 0 4719.20305697 0 424.70421891 0 -309.10257707 0 16887
0.12350000 0.12352200 13532.44419159 0 302.21854543 0 4651.20855269 0 -517.16795707 0 98.75515211 0 16407
0.12450000 0.12449800 12952.23906784 0 32.60276065 0 4556.17003072 0 -489.68895030 0 142.62588731 0 16306
0.12550000 0.12549900 13233.66381737 0 -164.58404790 0 4992.87269826 0 264.85122642 0 -533.49762267 0 17523
0.12650000 0.12650100 13129.96945221 0 109.79256048 0 4577.76570041 0 107.73580911 0 -729.09111897 0 17154
0.12750000 0.12750600 12997.38566115 0 133.73167889 0 4339.03798450 0 319.56538245 0 -655.09574269 0 18007
0.12850000 0.12850300 12898.30481646 0 4.65993030 0 4469.52372220 0 16.68172115 0 -382.38944842 0 17496
0.12950000 0.12949900 12652.36023637 0 133.30108365 0 4368.60845389 0 278.07335644 0 -713.85222143 0 18405
0.13050000 0.13049000 12472.32309176 0 355.83314574 0 4154.95851718 0 95.95101042 0 -114.52735065 0 18100
0.13150000 0.13148800 12275.80908828 0 215.34156088 0 4195.79915804 0 177.91931901 0 -278.63137273 0 19059
0.13250000 0.13249300 12149.48650359 0 91.64077398 0 4243.29644988 0 181.01037774 0 -389.11969604 0 18957
0.13350000 0.13349100 12054.90933367 0 -48.12670785 0 3904.25761716 0 492.31096778 0 68.22550984 0 19468
0.13450000 0.13450700 12019.09962705 0 -10.42094318 0 3358.08269927 0 437.27716069 0 562.08057899 0 19953
0.13550000 0.13551000 12048.75797302 0 165.54190263 0 3328.63306018 0 -184.27059888 0 -273.72236724 0 19956
0.13650000 0.13649900 11584.44009001 0 327.54787135 0 3399.99982824 0 -63.74775867 0 618.37651347 0 19723
0.13750000 0.13749600 11326.85186298 0 -20.88496785 0 3751.50615084 0 36.56467629 0 649.30687294 0 20946
0.13850000 0.13851100 11206.24125603 0 62.49947184 0 3652.31546043 0 198.64940439 0 581.36289770 0 20955
0.13950000 0.13949800 11369.47200459 0 247.27700875 0 3751.62698114 0 52.89522065 0 619.99783638 0 20506
0.14050000 0.14048300 11105.95210837 0 -29.02805119 0 3214.48138191 0 227.09505355 0 508.38359438 0 21447
0.14150000 0.14148400 11184.60164805 0 42.17812241 0 3396.25408899 0 323.86694107 0 743.87525521 0 21771
0.14250000 0.14249400 11002.03805175 0 255.93504886 0 3678.79926493 0 -278.35126613 0 840.68229337 0 22470
0.14350000 0.14350900 10821.11115676 0 63.92581859 0 3578.61996299 0 -274.13319025 0 544.83370158 0 22519
0.14450000 0.14449900 10724.90827009 0 22.53814602 0 3448.04634871 0 92.08586886 0 410.82191608 0 22218
0.14550000 0.14550500 10757.85100326 0 -54.85289118 0 3274.57797851 0 208.78267260 0 345.18250417 0 23559
0.14650000 0.14650700 10880.98806190 0 123.05467434 0 3589.11022980 0 -66.62978098 0 -143.43545031 0 23044
0.14750000 0.14750500 10576.50669452 0 218.11187009 0 3219.88579162 0 -329.63274322 0 -298.13008752 0 23649
0.14850000 0.14849900 10328.98033597 0 142.17002755 0 3456.82302220 0 154.62433594 0 190.70755841 0 23640
0.14950000 0.14949500 10320.89569055 0 73.03719201 0 3359.93909204 0 461.70355474 0 -371.18847975 0 24457
0.15050000 0.15050000 10199.16465720 0 100.95085832 0 3006.44456180 0 311.59717350 0 296.76580360 0 24591
0.15150000 0.15149900 9803.57724483 0 147.74359968 0 2875.77208637 0 309.87039869 0 135.67265287 0 25020
0.15250000 0.15250500 9875.44930323 0 87.43478114 0 2831.38342857 0 -78.15819975 0 801.24657934 0 25297
0.15350000 0.15350100 9703.99110981 0 57.07671790 0 2804.71288634 0 38.72578110 0 -336.07629350 0 25452
0.15450000 0.15450400 9523.64639717 0 80.51208381 0 2534.19581738 0 31.05503437 0 392.56445800 0 26061
0.15550000 0.15549900 9619.97011414 0 72.55321175 0 2582.52793674 0 293.59785287 0 -38.19390809 0 26128
0.15650000 0.15649500 9309.31541696 0 82.54422974 0 2398.22877797 0 4.73041831 0 135.21459619 0 26331
0.15750000 0.15749700 9390.57928492 0 124.92424860 0 2256.05545505 0 11.86465654 0 135.06520600 0 27345
0.15850000 0.15849900 9063.27197571 0 138.31883640 0 2537.30445142 0 43.65115360 0 -105.25801907 0 26980
0.15950000 0.15949700 8999.60539303 0 140.12689705 0 2577.21140361 0 -34.20870516 0 337.64379201 0 27777
0.16050000 0.16050000 8728.28645027 0 153.83674209 0 2609.37423213 0 -105.08149699 0 257.11369350 0 28224
0.16150000 0.16150500 8778.11247150 0 88.91539168 0 2566.92984367 0 186.83000429 0 248.71269239 0 28075
0.16250000 0.16249700 8814.85586679 0 -66.94426929 0 2575.61864058 0 363.18512017 0 247.90312939 0 28590
0.16350000 0.16349900 8830.71758959 0 27.93519607 0 2510.44717146 0 -73.60223843 0 638.18279629 0 29163
0.16450000 0.16449100 8654.72276770 0 31.05097008 0 2395.61444969 0 -58.64959885 0 528.70725057 0 28996
0.16550000 0.16550500 8641.79392577 0 232.84218192 0 2746.61548196 0 -90.59625098 0 675.73575457 0 30777
0.16650000 0.16650700 8552.81888786 0 9.12883889 0 2503.58181359 0 -133.08358911 0 375.17368269 0 29211
0.16750000 0.16749900 8638.87202946 0 11.63562820 0 2752.20662940 0 222.66497542 0 91.59255171 0 30922
0.16850000 0.16850800 8553.60977708 0 56.22596275 0 2604.43117446 0 -251.40171575 0 112.22059041 0 30867
0.16950000 0.16949900 8317.11192941 0 116.85608003 0 2717.11092000 0 255.50884744 0 17.43833851 0 30852
0.17050000 0.17049200 8321.43985100 0 122.85585358 0 2493.84948229 0 -25.13665651 0 227.23345916 0 31257
0.17150000 0.17149500 8210.10022332 0 8.56003575 0 2421.07668894 0 455.22046000 0 320.10692188 0 32608
0.17250000 0.17250900 8296.47191753 0 -57.04936631 0 2135.75241614 0 504.29513647 0 278.49955786 0 32361
0.17350000 0.17350400 8068.89354279 0 -3.46594022 0 1804.51262995 0 111.78889670 0 908.77895417 0 32508
0.17450000 0.17449800 8072.23285285 0 262.22151975 0 1924.57400826 0 -124.70455714 0 650.18234338 0 32791
0.17550000 0.17549800 7856.02351073 0 142.92356923 0 2003.92656059 0 -330.42253399 0 615.27666708 0 33633
0.17650000 0.17650100 7842.67725505 0 -29.69426552 0 2058.78351606 0 129.88158620 0 567.66293877 0 33984
0.17750000 0.17750300 7905.32227248 0 -94.59441570 0 2065.03373786 0 162.73424588 0 -28.54154448 0 34069
0.17850000 0.17849800 8023.53824260 0 62.82110013 0 1914.11669516 0 -330.94649810 0 -123.92465249 0 34536
