### header ###
fiducial parameters:
Omega_m = 0.31
Omega_nu = 0
Omega_de = 0.69
Omega_k = 0
H_0 = 100
w_de = -1
zeff = 0
beta = 0
fgrowth = 0
b_1 = 2
gamma = 0.55
Lx = 3500 Ly = 3500 Lz = 3500
nx = 700 ny = 700 nz = 700
xoffset = -983.599254 yoffset = -42.9823471 zoffset = 800.977702
bins = 400 dk = 0.001
kx_ny = 0.628318531 ky_ny = 0.628318531 kz_ny = 0.628318531
############################
A(data) = 9.18969651 (not used)
A(ran) = 9.21938454 (used)
Ngal = 511819
weighted Ngal = 0
Nran = 25229228
weighted Nran = 0
SN(data) = 6664.87314
SN(ran) = 136.855412
SN(data+ran) = 6801.72855
############################
13 columns: k_central k_mean P_0(k) sigma^{lin}_{P_0(k)} P^img_1(k) sigma^{lin}_{P_1(k)} P_2(k) sigma^{lin}_{P_2(k)} P^img_3(k) sigma^{lin}_{P_3(k)} P_4(k) sigma^{lin}_{P_4(k)} N_modes
### header ###
0.00050000 0 0 0 0 0 0 0 0 0 0 0 0
0.00150000 0.00179520 74927.52710896 0 -45813.79624791 0 -10152.93059121 0 -23262.79827559 0 -122315.41260777 0 3
0.00250000 0.00253879 49885.33792091 0 -27881.48150887 0 31587.23691491 0 20385.93871654 0 14980.54039498 0 6
0.00350000 0.00331552 39014.45566579 0 5465.14341182 0 61465.82356479 0 -58093.55978232 0 -6276.00259063 0 7
0.00450000 0.00420575 34030.53539418 0 9675.48614396 0 52472.09491809 0 39354.97741581 0 49859.08479244 0 24
0.00550000 0.00557378 40096.65575650 0 6210.06220143 0 70031.48341800 0 38719.30020053 0 8055.56925625 0 45
0.00650000 0.00659388 49698.60018703 0 1772.63540031 0 93315.81145585 0 25560.99055106 0 31189.81507892 0 40
0.00750000 0.00754703 67182.63451903 0 1701.69703058 0 71562.40329866 0 75983.03468830 0 39986.81003069 0 57
0.00850000 0.00846663 91529.71995412 0 -19260.45940985 0 66911.97465062 0 37430.04091665 0 74441.13023505 0 75
0.00950000 0.00948925 76538.85406091 0 -5468.99899680 0 56912.49853837 0 38445.78434325 0 59266.16290538 0 112
0.01050000 0.01054430 99497.37967600 0 4236.22238514 0 41551.89193208 0 306.17628693 0 48386.05360928 0 105
0.01150000 0.01145670 95971.66141457 0 11663.41916687 0 57772.37088004 0 -4476.61975608 0 68352.49149894 0 144
0.01250000 0.01249090 85536.86669092 0 10301.92533370 0 79191.29880213 0 10596.63043149 0 35243.01251571 0 169
0.01350000 0.01339930 73294.01132038 0 4883.40044792 0 75401.07203294 0 9581.78773984 0 46432.99660432 0 180
0.01450000 0.01448870 72532.23121187 0 3616.63756869 0 80124.65793437 0 28844.05960417 0 39839.06752947 0 267
0.01550000 0.01550050 86416.29157178 0 -16636.68440307 0 61114.75662509 0 33006.11415524 0 34010.54347208 0 238
0.01650000 0.01653350 91956.14106173 0 -12489.78856216 0 39198.11771935 0 2021.20529326 0 4586.56434305 0 315
0.01750000 0.01747870 102716.51851669 0 6873.95878367 0 34994.76117537 0 13643.16868321 0 10253.28564631 0 297
0.01850000 0.01844180 85690.10147843 0 14374.19198849 0 39004.34985901 0 -22995.10424178 0 18121.02969599 0 388
0.01950000 0.01947590 78914.04819018 0 5709.42932146 0 46936.52941145 0 312.20901419 0 -1680.20022204 0 399
0.02050000 0.02045430 80163.87285848 0 -1141.95616556 0 44416.55861556 0 18049.62997421 0 -7212.81087866 0 462
0.02150000 0.02154770 75629.55114263 0 -106.44050831 0 31089.63577698 0 5718.30485611 0 -12860.62773251 0 571
0.02250000 0.02255340 77862.05567406 0 3011.91487894 0 28503.75754560 0 8650.26303123 0 5637.49135562 0 510
0.02350000 0.02348930 71456.29232752 0 163.77448490 0 31100.29081238 0 -2000.76300368 0 -11085.85034054 0 555
0.02450000 0.02439640 60528.83952360 0 3254.12470436 0 21101.80331166 0 2953.99322772 0 19639.42716391 0 592
0.02550000 0.02547300 68795.27961969 0 -397.38778382 0 18145.19575567 0 13872.85609588 0 -2960.26541866 0 837
0.02650000 0.02652900 71252.52850614 0 -6090.72580490 0 6678.08188540 0 16866.04227857 0 10313.60193436 0 723
0.02750000 0.02749970 74984.42719493 0 -1006.31756486 0 4122.14759888 0 2750.88848069 0 7019.53732409 0 826
0.02850000 0.02848090 70948.80507427 0 -204.08896473 0 -1967.08430415 0 -8659.69877907 0 11407.80816290 0 831
0.02950000 0.02946900 70526.33841279 0 5901.61540334 0 8135.25134575 0 -4403.47348726 0 1628.21024001 0 996
0.03050000 0.03053250 64134.41562770 0 4451.71773004 0 12612.15670072 0 -8484.16530922 0 878.99428562 0 1041
0.03150000 0.03150510 59345.80105659 0 2946.54568751 0 22602.07623482 0 -5960.32794379 0 -118.96401951 0 1036
0.03250000 0.03246190 57893.31102416 0 1448.85413891 0 15179.69069588 0 5011.98585455 0 -5182.13688384 0 1059
0.03350000 0.03345080 57612.10596608 0 -1081.20269152 0 23501.27334633 0 5425.77470369 0 -1964.75557476 0 1302
0.03450000 0.03451200 55095.43054197 0 4289.95891421 0 17354.41637554 0 -4000.06505921 0 -5445.16247430 0 1339
0.03550000 0.03553350 52690.68791246 0 2850.96892148 0 20083.86297055 0 341.28407936 0 3828.92541840 0 1365
0.03650000 0.03647120 49138.38698538 0 -585.66775169 0 20131.86555273 0 939.14580507 0 -1190.56289923 0 1308
0.03750000 0.03744890 48877.06400367 0 -81.58604547 0 20707.56700172 0 5287.89634865 0 -3098.19869657 0 1579
0.03850000 0.03847530 48827.63342705 0 2478.74569499 0 18848.42809233 0 -1841.33291724 0 -697.94326496 0 1662
0.03950000 0.03950240 45412.96919442 0 -34.60469900 0 20119.12344854 0 -535.05743198 0 85.15460357 0 1683
0.04050000 0.04050350 47701.38520029 0 1422.61199501 0 23945.92884442 0 3748.66114654 0 2731.46775637 0 1822
0.04150000 0.04152450 45531.60257830 0 749.66412496 0 15179.47100443 0 839.44103667 0 2778.72338761 0 1887
0.04250000 0.04250150 44708.30886333 0 171.95359765 0 21737.91990985 0 1668.56755968 0 6270.38947404 0 1920
0.04350000 0.04349210 43322.05580356 0 2231.70265763 0 21501.75159935 0 1245.94711418 0 1923.36570528 0 2005
0.04450000 0.04448520 40981.13354075 0 2124.47126009 0 22208.05961633 0 -2231.54887362 0 4509.06818349 0 2151
0.04550000 0.04548030 40051.94854609 0 239.25497539 0 22408.52806594 0 3637.70597890 0 8855.29007846 0 2274
0.04650000 0.04648670 40649.72898597 0 -1405.41015435 0 22620.42047103 0 3460.06347112 0 3748.37554766 0 2311
0.04750000 0.04749250 39532.70780017 0 535.76813383 0 18917.19151669 0 265.00720735 0 6298.46604156 0 2568
0.04850000 0.04851840 40221.44050102 0 1660.94426631 0 18686.07610957 0 661.08233475 0 3533.72601485 0 2493
0.04950000 0.04949480 39864.00250923 0 -568.39121594 0 18048.86105413 0 1228.37179805 0 4650.02221885 0 2644
0.05050000 0.05050630 39536.22286340 0 -1007.31716097 0 17097.48722286 0 1449.42533668 0 2251.85934832 0 2829
0.05150000 0.05149060 39428.46420638 0 186.32581241 0 14854.54734748 0 2015.70202239 0 2805.17423839 0 2784
0.05250000 0.05249300 37726.07514772 0 1812.15789246 0 16123.92455498 0 -123.45231587 0 2038.71470195 0 3055
0.05350000 0.05348950 37969.16373895 0 498.48429757 0 15278.11246621 0 -267.34252748 0 3580.90475408 0 3009
0.05450000 0.05448610 36470.75819312 0 635.57066493 0 15583.48358397 0 2703.94041748 0 -327.96638356 0 3336
0.05550000 0.05550870 36045.87492568 0 1652.24448482 0 12544.27204217 0 -1330.48438477 0 -586.19940500 0 3349
0.05650000 0.05647670 34098.31020701 0 -435.21535642 0 13675.24363514 0 3252.81754022 0 5700.98218514 0 3324
0.05750000 0.05747970 34425.76031566 0 -1033.50987429 0 10656.97967325 0 2484.91902478 0 254.12698821 0 3639
0.05850000 0.05849280 34212.87929903 0 875.40233038 0 9732.16653848 0 677.21098267 0 1528.40441354 0 3846
0.05950000 0.05951020 32709.20115837 0 1502.61263712 0 8152.70583158 0 -865.81609389 0 -414.78844524 0 3787
0.06050000 0.06049470 31745.30491436 0 786.77770034 0 10933.45038055 0 -3157.99870970 0 773.47977677 0 3930
0.06150000 0.06148310 30412.76641451 0 827.74026995 0 11671.98713348 0 1519.37509488 0 213.37312548 0 4083
0.06250000 0.06249100 31198.38304553 0 -573.48256533 0 13006.61270212 0 -990.82931753 0 -1369.84210833 0 4303
0.06350000 0.06350600 31726.41144952 0 -50.98950716 0 9182.59738766 0 158.37666594 0 -4756.40780430 0 4470
0.06450000 0.06451750 31606.02053402 0 -31.73256281 0 12851.94992017 0 1222.53899001 0 -1087.10580083 0 4479
0.06550000 0.06550280 31055.69344770 0 498.26680303 0 13551.88688505 0 -1558.69986472 0 -461.98915363 0 4636
0.06650000 0.06648880 30656.84361727 0 639.32079801 0 14144.50457582 0 -445.05313962 0 -1388.57080458 0 4653
0.06750000 0.06749660 30790.19632841 0 1060.69998680 0 14591.79637133 0 223.45366774 0 -2425.56937912 0 5220
0.06850000 0.06852730 29546.30332930 0 313.60735028 0 15670.04201592 0 707.78544199 0 1352.06906989 0 5029
0.06950000 0.06949320 29374.72430558 0 13.52947836 0 14853.00950731 0 1791.63871088 0 1189.25573509 0 5040
0.07050000 0.07048030 29294.31723428 0 -261.66899575 0 13651.62680409 0 2697.60231910 0 3449.41942028 0 5475
0.07150000 0.07148790 29493.13799800 0 -430.76330915 0 10970.75398904 0 2748.20824498 0 4191.30646786 0 5509
0.07250000 0.07249820 29483.25188268 0 -265.10387159 0 10175.28419641 0 403.68523928 0 2187.31399983 0 5916
0.07350000 0.07351270 29018.49461676 0 1471.59220415 0 10962.92198879 0 -987.24285458 0 3479.67093317 0 5721
0.07450000 0.07449140 27642.34736377 0 1241.69608460 0 10833.02941801 0 -2125.87728539 0 2707.43351156 0 6028
0.07550000 0.07549160 26494.45952902 0 587.18801654 0 12184.63713585 0 81.63437759 0 462.65811410 0 6183
0.07650000 0.07648840 26274.43854022 0 405.33731900 0 11438.56496613 0 1038.07506265 0 -414.89719251 0 6330
0.07750000 0.07749960 25776.28817365 0 -142.16673218 0 12434.31647063 0 -249.99569046 0 821.53069107 0 6583
0.07850000 0.07848650 25399.07795121 0 96.53264354 0 10717.80125163 0 1573.05670108 0 585.92039686 0 6549
0.07950000 0.07947320 25529.24513630 0 -124.22123595 0 10445.37286704 0 1966.87559727 0 513.03446241 0 6828
0.08050000 0.08048110 25261.33141104 0 305.95220165 0 8714.70951856 0 317.92099194 0 1883.21709249 0 7147
0.08150000 0.08149960 24814.80853561 0 787.43238087 0 9856.29220865 0 814.25670711 0 2490.44426479 0 7386
0.08250000 0.08250610 24092.90242556 0 259.51162569 0 9238.10243292 0 302.38221556 0 2075.42514352 0 7227
0.08350000 0.08350160 23349.46655326 0 389.00325957 0 9461.75931525 0 -35.01738939 0 2389.06764443 0 7798
0.08450000 0.08449610 23026.08073646 0 395.93013104 0 8305.39139046 0 702.98078995 0 1903.61544377 0 7371
0.08550000 0.08548940 22561.76285345 0 56.03208505 0 8016.61796187 0 910.00922630 0 3107.88708958 0 8256
0.08650000 0.08650700 22301.42848327 0 229.71048028 0 7798.49730412 0 590.04290695 0 2039.67035977 0 8037
0.08750000 0.08749060 21792.73292703 0 298.32451445 0 7205.09970871 0 -764.28019724 0 2785.33610031 0 8155
0.08850000 0.08849210 21228.78497070 0 907.61019565 0 8155.15539127 0 468.99291710 0 1152.32560207 0 8718
0.08950000 0.08949900 21297.98777797 0 283.38988957 0 7792.67548066 0 -306.10818258 0 2137.96031522 0 8571
0.09050000 0.09049190 20150.42948039 0 -210.34907265 0 7983.19190751 0 709.29911609 0 1352.13497733 0 8932
0.09150000 0.09150830 20707.23746454 0 160.03094257 0 7526.50830244 0 917.82365123 0 1410.94637893 0 9285
0.09250000 0.09250820 20011.80417442 0 170.83756507 0 7258.96805265 0 -708.76306895 0 747.37933386 0 9204
0.09350000 0.09350330 19609.98850939 0 464.62984487 0 7447.70497874 0 -613.14456155 0 301.75060264 0 9349
0.09450000 0.09448040 19085.58501436 0 669.51519112 0 7295.19517302 0 599.98833897 0 -186.89481327 0 9564
0.09550000 0.09549270 19230.25183525 0 196.39866547 0 7036.28879728 0 365.69070118 0 405.66685617 0 10155
0.09650000 0.09649430 18204.51244761 0 -301.76378413 0 6464.21225724 0 783.65039253 0 956.90566202 0 9913
0.09750000 0.09749140 18663.00850715 0 237.53149596 0 5819.17618612 0 1207.68784788 0 424.28241133 0 10476
0.09850000 0.09850240 17995.03664848 0 410.04640526 0 5716.17384902 0 -140.20488751 0 1509.59882528 0 10575
0.09950000 0.09950330 17638.14788531 0 328.16300741 0 5820.88977944 0 -46.58348525 0 610.17982541 0 10882
0.10050000 0.10051200 17707.46053830 0 51.56498891 0 5780.12603059 0 -90.50507902 0 883.98457694 0 10875
0.10150000 0.10150300 17004.44789310 0 117.25482002 0 5859.28086061 0 -91.80444411 0 631.48660084 0 11118
0.10250000 0.10250800 17092.65401092 0 435.48118307 0 5979.57291495 0 -483.22013551 0 -655.15176401 0 11575
0.10350000 0.10349800 16410.29236217 0 609.44715442 0 6778.26118734 0 -528.98186489 0 463.15571523 0 11364
0.10450000 0.10450100 16003.97302239 0 322.17861227 0 6813.86218708 0 532.47495897 0 573.57044191 0 12093
0.10550000 0.10551000 16075.81212707 0 -283.20534875 0 7068.27587263 0 284.72121977 0 947.92467548 0 12067
0.10650000 0.10649700 15608.30871801 0 270.49839519 0 6816.71817595 0 875.61982492 0 49.80602931 0 12054
0.10750000 0.10749900 15581.50636091 0 367.25600277 0 6261.64575427 0 -167.15663480 0 1801.95322453 0 12807
0.10850000 0.10850100 15244.06029121 0 71.37929047 0 6369.00896668 0 677.91729069 0 1375.98248440 0 12736
0.10950000 0.10950300 15189.68665693 0 111.54833456 0 6623.07114591 0 -258.34067025 0 850.97373942 0 12933
0.11050000 0.11050200 14688.79014722 0 454.78327401 0 6922.91702367 0 -469.04124922 0 611.80773906 0 13428
0.11150000 0.11150900 14652.76074916 0 44.83155577 0 6927.72826646 0 -319.64556983 0 1070.68825865 0 13453
0.11250000 0.11250000 14529.07446189 0 -193.63275009 0 6503.44915050 0 881.45043605 0 1264.01673608 0 13668
0.11350000 0.11349100 14810.82874860 0 -9.55911558 0 6341.67935010 0 632.56858124 0 -656.89172031 0 13791
0.11450000 0.11448600 14651.22290900 0 -29.32496419 0 5059.72480699 0 517.03943757 0 905.84607329 0 14205
0.11550000 0.11549300 14912.65573643 0 -93.57076339 0 5318.78496675 0 453.15975419 0 459.93723547 0 14776
0.11650000 0.11649800 15016.56979305 0 -130.20453264 0 4816.96575294 0 375.84264316 0 838.04709441 0 14553
0.11750000 0.11747300 14803.79862215 0 123.19307996 0 4170.61153311 0 354.60836590 0 -194.69166289 0 14568
0.11850000 0.11849100 14321.90542301 0 468.75455188 0 4411.52517897 0 -664.93242744 0 421.66478768 0 16015
0.11950000 0.11950300 14135.93660920 0 368.95092232 0 4991.24698152 0 -559.56950570 0 -769.01344956 0 15270
0.12050000 0.12050700 13823.42551927 0 97.05605842 0 4910.43348104 0 371.06984637 0 -557.06941698 0 15999
0.12150000 0.12150000 13432.70427255 0 160.02435182 0 4466.70068704 0 157.79668050 0 -306.54097474 0 15670
0.12250000 0.12250700 13565.72744651 0 47.58593734 0 4264.90310415 0 669.26144749 0 -727.30722438 0 16887
0.12350000 0.12352200 13386.12968480 0 124.54418238 0 4127.95843778 0 125.74040234 0 -360.24235318 0 16407
0.12450000 0.12449800 13127.22330906 0 37.12774548 0 3908.61849247 0 544.49317983 0 236.25728554 0 16306
0.12550000 0.12549900 13150.84014011 0 0.28609209 0 3449.33154370 0 190.11658841 0 257.84636449 0 17523
0.12650000 0.12650100 12818.88635670 0 309.14981073 0 3820.95061870 0 71.63039780 0 311.86080324 0 17154
0.12750000 0.12750600 12487.59164765 0 367.89530489 0 3708.42465718 0 -481.98107572 0 464.88578542 0 18007
0.12850000 0.12850300 12399.82491272 0 125.61188284 0 4369.70691115 0 266.17376896 0 58.17912960 0 17496
0.12950000 0.12949900 12372.47332700 0 -51.20623277 0 4059.99688722 0 5.27032103 0 314.76512423 0 18405
0.13050000 0.13049000 12200.78445755 0 -166.03950377 0 3551.79563674 0 265.43670414 0 194.58071871 0 18100
0.13150000 0.13148800 12396.20000377 0 -48.82917127 0 3130.22971022 0 858.12469617 0 442.72001640 0 19059
0.13250000 0.13249300 12518.12875942 0 26.08660235 0 2905.54027806 0 156.95965607 0 416.22962117 0 18957
0.13350000 0.13349100 12338.09161482 0 368.30063562 0 2958.13441158 0 -525.13726448 0 -406.40611791 0 19468
0.13450000 0.13450700 11804.90046172 0 469.19283632 0 3583.61794351 0 -411.30633574 0 -121.02472533 0 19953
0.13550000 0.13551000 11622.00732824 0 157.01018511 0 3972.71347349 0 -510.11805839 0 -498.17123725 0 19956
0.13650000 0.13649900 11449.11015581 0 -246.14449932 0 3778.41835367 0 710.96108193 0 28.51364366 0 19723
0.13750000 0.13749600 11650.56721695 0 -22.73070558 0 3010.26719305 0 538.03754652 0 -319.58515468 0 20946
0.13850000 0.13851100 11553.57344106 0 44.72017220 0 3042.05654610 0 195.98894091 0 -70.10387175 0 20955
0.13950000 0.13949800 11642.65832469 0 219.89576468 0 2901.81650796 0 133.28131142 0 78.90789683 0 20506
0.14050000 0.14048300 11371.11969048 0 149.46817757 0 2861.86561748 0 -201.44058428 0 138.23205828 0 21447
0.14150000 0.14148400 10911.54714282 0 276.73653396 0 3433.89821923 0 -301.05967302 0 275.62928904 0 21771
0.14250000 0.14249400 10674.97240314 0 358.89125075 0 3350.96469624 0 -81.70511824 0 388.04210947 0 22470
0.14350000 0.14350900 10463.88187184 0 -136.72827029 0 3441.82908063 0 572.24350554 0 421.62524322 0 22519
0.14450000 0.14449900 10626.36566947 0 88.37923469 0 3345.67013225 0 294.78089134 0 406.82902395 0 22218
0.14550000 0.14550500 10187.03768907 0 183.81913295 0 3100.80204027 0 -43.52856577 0 889.41315271 0 23559
0.14650000 0.14650700 10358.50686707 0 200.73647318 0 3457.16354395 0 -136.39433929 0 726.12418592 0 23044
0.14750000 0.14750500 10091.34009275 0 55.26909663 0 3132.06413384 0 104.12572933 0 435.33069443 0 23649
0.14850000 0.14849900 10036.24147668 0 -135.49580125 0 3231.43057741 0 413.39010915 0 925.06468148 0 23640
0.14950000 0.14949500 10104.17007352 0 -146.67699768 0 2829.76869640 0 -77.61929662 0 498.97201259 0 24457
0.15050000 0.15050000 10213.02718780 0 189.97598588 0 2907.73719258 0 190.39999038 0 477.67951710 0 24591
0.15150000 0.15149900 9994.44517801 0 136.30097042 0 3026.55731419 0 -390.63556705 0 43.54053895 0 25020
0.15250000 0.15250500 10026.95951285 0 261.41964595 0 3193.86333918 0 -254.18520645 0 -8.54843604 0 25297
0.15350000 0.15350100 9886.25812265 0 102.51714852 0 3429.04303815 0 -162.95723270 0 4.26146493 0 25452
0.15450000 0.15450400 9599.46191713 0 1.11359400 0 3427.28550653 0 177.13172516 0 214.52540714 0 26061
0.15550000 0.15549900 9628.13165156 0 84.28133004 0 3476.23276195 0 248.22497736 0 424.69872663 0 26128
0.15650000 0.15649500 9551.86576413 0 22.22794169 0 3249.70890618 0 139.25032816 0 29.54981839 0 26331
0.15750000 0.15749700 9488.55068777 0 185.98199529 0 3157.11994389 0 161.21947332 0 372.87131627 0 27345
0.15850000 0.15849900 9276.59237524 0 137.66415588 0 3111.80858200 0 123.17880001 0 409.37305096 0 26980
0.15950000 0.15949700 9106.66103741 0 87.91447743 0 3108.97456227 0 66.45699365 0 887.99065056 0 27777
0.16050000 0.16050000 8978.02070791 0 103.96436596 0 2997.48115057 0 87.18345412 0 587.22097025 0 28224
0.16150000 0.16150500 8797.86273300 0 29.85299260 0 2713.98031682 0 414.10850020 0 747.88132883 0 28075
0.16250000 0.16249700 8889.93542038 0 47.95622728 0 2606.45233582 0 290.02676832 0 633.03981941 0 28590
0.16350000 0.16349900 8649.59297230 0 235.43124568 0 2257.82397123 0 173.94400220 0 605.35320421 0 29163
0.16450000 0.16449100 8707.67939211 0 51.19217252 0 2482.13992792 0 -94.49544471 0 777.20574379 0 28996
0.16550000 0.16550500 8176.30069349 0 127.29581782 0 2543.21415147 0 -210.05798147 0 675.18762440 0 30777
0.16650000 0.16650700 8232.12429135 0 142.99057512 0 2426.93146612 0 -25.48003425 0 670.17426547 0 29211
0.16750000 0.16749900 8168.30392465 0 -9.24884534 0 2450.66912747 0 145.29513845 0 248.00089208 0 30922
0.16850000 0.16850800 8261.44211557 0 37.96389114 0 2422.63649824 0 138.80215760 0 551.71883167 0 30867
0.16950000 0.16949900 8250.65526529 0 27.83523646 0 2367.74658905 0 243.76304398 0 257.25868986 0 30852
0.17050000 0.17049200 8028.92068316 0 -42.58015777 0 2289.89892317 0 -147.25588465 0 328.85393703 0 31257
0.17150000 0.17149500 8120.19149674 0 176.28042079 0 2136.18081447 0 18.39707200 0 167.68279583 0 32608
0.17250000 0.17250900 8003.10693760 0 77.36006071 0 2268.20439232 0 -115.33251982 0 203.31345391 0 32361
0.17350000 0.17350400 7695.02263041 0 126.57522985 0 2462.36769727 0 -42.47075143 0 320.45623129 0 32508
0.17450000 0.17449800 7689.32163724 0 143.88362087 0 2260.69094468 0 -10.67636744 0 123.72363481 0 32791
0.17550000 0.17549800 7678.31509551 0 59.31504425 0 2391.08880579 0 342.16614054 0 130.97455117 0 33633
0.17650000 0.17650100 7679.17189217 0 -12.07501110 0 2016.21829731 0 159.72117762 0 340.62500500 0 33984
0.17750000 0.17750300 7696.39570198 0 -121.67281511 0 2040.96653933 0 203.24534956 0 224.08637912 0 34069
0.17850000 0.17849800 7631.46589345 0 50.07240519 0 1802.72214461 0 39.88146798 0 478.00905428 0 34536
