### header ###
fiducial parameters:
Omega_m = 0.31
Omega_nu = 0
Omega_de = 0.69
Omega_k = 0
H_0 = 100
w_de = -1
zeff = 0
beta = 0
fgrowth = 0
b_1 = 2
gamma = 0.55
Lx = 3500 Ly = 3500 Lz = 3500
nx = 700 ny = 700 nz = 700
xoffset = -983.599254 yoffset = -42.9823471 zoffset = 800.977702
bins = 400 dk = 0.001
kx_ny = 0.628318531 ky_ny = 0.628318531 kz_ny = 0.628318531
############################
A(data) = 9.0646567 (not used)
A(ran) = 9.07164742 (used)
Ngal = 504083
weighted Ngal = 0
Nran = 25229228
weighted Nran = 0
SN(data) = 6753.77968
SN(ran) = 134.662356
SN(data+ran) = 6888.44204
############################
13 columns: k_central k_mean P_0(k) sigma^{lin}_{P_0(k)} P^img_1(k) sigma^{lin}_{P_1(k)} P_2(k) sigma^{lin}_{P_2(k)} P^img_3(k) sigma^{lin}_{P_3(k)} P_4(k) sigma^{lin}_{P_4(k)} N_modes
### header ###
0.00050000 0 0 0 0 0 0 0 0 0 0 0 0
0.00150000 0.00179520 12920.16411590 0 1839.49849362 0 -8987.62122435 0 22793.53733492 0 19542.43338802 0 3
0.00250000 0.00253879 24596.87461560 0 -11675.06281381 0 5298.79304465 0 -42881.13506014 0 -21723.96950267 0 6
0.00350000 0.00331552 35062.53598820 0 -26140.64644618 0 -18784.82741708 0 3220.54486598 0 -29648.67954576 0 7
0.00450000 0.00420575 60670.10112700 0 -18535.03823658 0 -18597.65030029 0 16915.80239237 0 29288.49541081 0 24
0.00550000 0.00557378 104221.95418896 0 -17158.45160069 0 -12285.58535788 0 -35559.25836032 0 -4902.14012874 0 45
0.00650000 0.00659388 78559.24649580 0 9346.77280946 0 13424.90522601 0 -36471.85665038 0 4202.59860847 0 40
0.00750000 0.00754703 73008.74197045 0 33837.53645392 0 30398.04708725 0 -18119.82139301 0 -8466.06273361 0 57
0.00850000 0.00846663 54227.53946232 0 9004.06512950 0 46303.92787649 0 -8060.21573045 0 28704.33584094 0 75
0.00950000 0.00948925 50086.13590770 0 1285.73323607 0 64961.99332598 0 24526.02412245 0 -19511.78643051 0 112
0.01050000 0.01054430 64841.82210194 0 -3622.94271335 0 51169.32460995 0 24277.22355348 0 7477.98944535 0 105
0.01150000 0.01145670 55165.73180649 0 -1031.62492163 0 42221.62132236 0 1247.59480007 0 8373.27604902 0 144
0.01250000 0.01249090 70336.52499858 0 -4886.45415909 0 36294.45580319 0 18333.80086689 0 16215.86542748 0 169
0.01350000 0.01339930 69207.09124577 0 -669.28890892 0 28910.40642256 0 -2659.60668254 0 -24196.04756210 0 180
0.01450000 0.01448870 72563.20770655 0 862.21754791 0 31099.08250940 0 9354.96730061 0 9896.37491400 0 267
0.01550000 0.01550050 77356.98502677 0 179.10675131 0 44826.94224720 0 -1155.69786586 0 -6510.14973978 0 238
0.01650000 0.01653350 72874.07111060 0 2001.57586205 0 27058.84686825 0 -8894.80158603 0 -6247.73928538 0 315
0.01750000 0.01747870 71362.92346058 0 -1924.14560993 0 31534.18142934 0 18649.49748288 0 -5293.07008234 0 297
0.01850000 0.01844180 78153.58623037 0 -8745.31253777 0 22473.11735272 0 11287.41724741 0 5628.80255871 0 388
0.01950000 0.01947590 80730.23742078 0 2322.63294946 0 24010.07874830 0 1404.70714170 0 -6273.54204637 0 399
0.02050000 0.02045430 77054.57974361 0 8578.68755629 0 16961.71790576 0 -3646.51560611 0 -158.82154112 0 462
0.02150000 0.02154770 72741.26762809 0 942.26102986 0 17594.75882362 0 4831.52031161 0 13880.65514241 0 571
0.02250000 0.02255340 80046.88716049 0 -6733.80662211 0 20203.37512024 0 19747.51535811 0 267.74785821 0 510
0.02350000 0.02348930 71450.25081261 0 726.29224988 0 10848.45175792 0 -9578.00904687 0 8462.13025663 0 555
0.02450000 0.02439640 72427.98761807 0 7717.88152595 0 13115.68950785 0 -1387.72499249 0 1085.73492617 0 592
0.02550000 0.02547300 66409.86983793 0 2807.23933803 0 20940.11040327 0 157.19362747 0 6978.88342097 0 837
0.02650000 0.02652900 65418.62200819 0 1690.19618309 0 27472.52587167 0 -864.71763663 0 7550.16907178 0 723
0.02750000 0.02749970 60350.77960206 0 3370.69298859 0 23859.04087531 0 -320.06957433 0 5284.73279175 0 826
0.02850000 0.02848090 59441.80622095 0 1108.84866380 0 32161.73006091 0 35.98985361 0 2601.67404675 0 831
0.02950000 0.02946900 59492.88448346 0 2595.98403815 0 25313.61797653 0 120.59083471 0 -285.04856003 0 996
0.03050000 0.03053250 57427.89468389 0 -1630.36321624 0 26008.17250085 0 5592.08113257 0 10587.57914368 0 1041
0.03150000 0.03150510 57018.38981806 0 -1755.46651337 0 23400.87435294 0 6016.90947716 0 5836.88331712 0 1036
0.03250000 0.03246190 60532.35458683 0 1353.83758608 0 22871.96718315 0 103.66536590 0 -1307.15315261 0 1059
0.03350000 0.03345080 54775.99917130 0 2584.02183861 0 18434.09001456 0 -931.77295996 0 5224.88884032 0 1302
0.03450000 0.03451200 53303.73690823 0 3868.18428080 0 31116.21844262 0 -2867.46774950 0 971.46571298 0 1339
0.03550000 0.03553350 53419.29461178 0 3188.45892947 0 24724.95473189 0 -322.20607370 0 -1284.75560911 0 1365
0.03650000 0.03647120 49645.32501001 0 -2197.30996088 0 28378.20388100 0 5392.66720193 0 2862.63453756 0 1308
0.03750000 0.03744890 48145.16193258 0 191.86862774 0 21326.87720386 0 2704.79721414 0 -3727.28516830 0 1579
0.03850000 0.03847530 49008.10995457 0 -156.30936938 0 23260.49151535 0 744.33331189 0 -807.94716862 0 1662
0.03950000 0.03950240 48148.67699580 0 1625.54098888 0 24391.46310832 0 1435.32114549 0 -329.79311798 0 1683
0.04050000 0.04050350 46738.03818491 0 2825.16616049 0 25096.56282232 0 -2454.48077416 0 -478.47699707 0 1822
0.04150000 0.04152450 43303.60172162 0 268.84851239 0 22796.83270669 0 2837.38100520 0 1118.86659399 0 1887
0.04250000 0.04250150 43427.17816316 0 75.46247579 0 24982.98234183 0 2692.74713802 0 -3286.68297749 0 1920
0.04350000 0.04349210 43539.87987785 0 1828.60179762 0 24812.39192964 0 -1308.26259444 0 -1635.83353339 0 2005
0.04450000 0.04448520 43791.20689851 0 231.62289436 0 24090.37597387 0 431.47401100 0 -1190.21139291 0 2151
0.04550000 0.04548030 42286.64999204 0 -658.60201826 0 19972.80894175 0 1005.06312668 0 -4812.42912447 0 2274
0.04650000 0.04648670 41016.06448156 0 953.09071996 0 20950.65559294 0 1963.90976267 0 -3557.68336765 0 2311
0.04750000 0.04749250 40915.88517962 0 1060.47260615 0 22035.27228963 0 51.07057330 0 -5144.40487702 0 2568
0.04850000 0.04851840 40394.88690208 0 1583.44810675 0 19701.81953617 0 3650.12953049 0 -4527.06091338 0 2493
0.04950000 0.04949480 38446.44341760 0 423.88147443 0 19555.17549221 0 2795.47486080 0 1536.50004353 0 2644
0.05050000 0.05050630 36687.70350161 0 -813.33729838 0 17833.78312299 0 1352.71715967 0 606.25174225 0 2829
0.05150000 0.05149060 37488.25915133 0 1018.45881294 0 15027.33467418 0 4635.96196595 0 3924.09575524 0 2784
0.05250000 0.05249300 35908.89730559 0 467.64620851 0 12679.05274774 0 4039.74133538 0 6417.16533288 0 3055
0.05350000 0.05348950 36798.42799323 0 -224.26982148 0 12435.63461934 0 1548.48421222 0 7569.68865726 0 3009
0.05450000 0.05448610 35571.34139016 0 920.97073128 0 10950.50942177 0 449.94676671 0 6535.21653441 0 3336
0.05550000 0.05550870 35435.68191878 0 725.47170231 0 12371.37486974 0 -1874.33057327 0 5856.06238085 0 3349
0.05650000 0.05647670 34484.30808751 0 -309.06193415 0 10328.66178337 0 1329.29805093 0 6014.58074777 0 3324
0.05750000 0.05747970 34287.02516395 0 156.34342155 0 10969.13925687 0 -386.42518038 0 2654.09242710 0 3639
0.05850000 0.05849280 33798.32152981 0 702.99616835 0 12462.54682216 0 -631.79966116 0 2336.39661891 0 3846
0.05950000 0.05951020 33234.48341921 0 1381.06834151 0 10655.48577138 0 -488.95627931 0 708.06774551 0 3787
0.06050000 0.06049470 31727.07052387 0 96.96928030 0 12613.14531225 0 1598.04660371 0 3312.38687733 0 3930
0.06150000 0.06148310 32684.59571579 0 363.55090644 0 12520.43551967 0 487.26685205 0 -358.35959744 0 4083
0.06250000 0.06249100 31681.37470193 0 313.88635843 0 11680.33540865 0 -731.14962787 0 597.16859918 0 4303
0.06350000 0.06350600 31259.01788618 0 169.20965141 0 12131.80134174 0 -787.59934637 0 470.65927676 0 4470
0.06450000 0.06451750 31380.17772175 0 529.08402141 0 12319.85722433 0 575.72561505 0 1591.89524306 0 4479
0.06550000 0.06550280 30337.19255515 0 -124.03449822 0 12558.66183225 0 1395.50206988 0 -312.69233539 0 4636
0.06650000 0.06648880 30851.60008914 0 319.29406351 0 12401.36275288 0 176.67366848 0 1131.53180618 0 4653
0.06750000 0.06749660 30445.50044081 0 741.49709524 0 12345.01189554 0 463.41385269 0 1142.29668731 0 5220
0.06850000 0.06852730 29203.03543613 0 659.64665111 0 13866.92442669 0 -1124.73235575 0 -357.13262068 0 5029
0.06950000 0.06949320 28132.91837526 0 885.36094389 0 13858.79584298 0 -598.05395573 0 556.45867474 0 5040
0.07050000 0.07048030 27486.91566175 0 914.20203765 0 14276.86867542 0 728.57374560 0 111.26822796 0 5475
0.07150000 0.07148790 26881.55586679 0 -481.05287934 0 12977.72327623 0 2394.37319299 0 1326.27729347 0 5509
0.07250000 0.07249820 27663.54758885 0 -756.20983176 0 11825.77114962 0 1884.42539547 0 -569.66103253 0 5916
0.07350000 0.07351270 27200.87739173 0 66.30859208 0 9433.24336483 0 540.29267927 0 192.95390351 0 5721
0.07450000 0.07449140 27365.53613472 0 1168.84639924 0 9122.42389906 0 -502.18500007 0 -1164.45257020 0 6028
0.07550000 0.07549160 26305.08549772 0 431.98259671 0 8877.02854760 0 -867.43302298 0 -2317.50315407 0 6183
0.07650000 0.07648840 25394.13489355 0 457.94133863 0 9631.77852966 0 386.44385416 0 -2559.61411833 0 6330
0.07750000 0.07749960 24356.86170469 0 -122.07375201 0 8296.91130043 0 39.27885433 0 -3232.47411180 0 6583
0.07850000 0.07848650 24843.36842432 0 833.33361431 0 8375.94530015 0 640.77845079 0 -3695.12233978 0 6549
0.07950000 0.07947320 23290.69908995 0 473.92938402 0 8413.55647667 0 123.25459356 0 -4340.38908693 0 6828
0.08050000 0.08048110 23543.78364222 0 518.88264885 0 7747.78153252 0 174.96556745 0 -2514.11601870 0 7147
0.08150000 0.08149960 22803.75298742 0 164.38522714 0 8954.04138596 0 563.79197540 0 -3120.55230177 0 7386
0.08250000 0.08250610 23017.40292412 0 51.62287761 0 8411.19479357 0 907.07634542 0 -1211.47752542 0 7227
0.08350000 0.08350160 22519.91163191 0 -237.79842107 0 7316.05487635 0 845.76595356 0 -1303.94565741 0 7798
0.08450000 0.08449610 22162.69333157 0 114.49879076 0 6703.69790866 0 993.29974790 0 -409.25331912 0 7371
0.08550000 0.08548940 22558.13794450 0 469.64649917 0 8011.99345682 0 -550.22822517 0 48.32629753 0 8256
0.08650000 0.08650700 21686.84164735 0 805.21310850 0 7820.06002010 0 -533.09558732 0 -405.01656948 0 8037
0.08750000 0.08749060 21068.30036529 0 265.53776221 0 8522.06208463 0 -283.67988228 0 1332.28585467 0 8155
0.08850000 0.08849210 20406.58971299 0 432.53731762 0 8347.42934973 0 206.00028036 0 -525.95451668 0 8718
0.08950000 0.08949900 20327.50079040 0 628.91511240 0 9038.21616566 0 -13.00397640 0 100.78850634 0 8571
0.09050000 0.09049190 19599.77285689 0 285.69994518 0 8128.64961763 0 984.79768872 0 149.70654280 0 8932
0.09150000 0.09150830 19565.28129899 0 -460.57324222 0 7800.65028035 0 1408.44189638 0 1487.04749777 0 9285
0.09250000 0.09250820 19437.53071986 0 -195.66709293 0 6207.10735140 0 1236.99468753 0 -558.03605936 0 9204
0.09350000 0.09350330 19302.09093994 0 472.05431748 0 6290.30450413 0 94.32177861 0 1096.26144208 0 9349
0.09450000 0.09448040 19439.28825148 0 118.21597012 0 5899.94574831 0 -564.27859196 0 72.27848759 0 9564
0.09550000 0.09549270 18452.54409650 0 295.69920160 0 5329.34114100 0 -86.29304467 0 -1199.17480413 0 10155
0.09650000 0.09649430 18418.82145867 0 328.45849241 0 5663.53577721 0 -204.60743656 0 -570.53979833 0 9913
0.09750000 0.09749140 17413.73306748 0 194.04247465 0 5637.76596994 0 544.05489538 0 -371.00284048 0 10476
0.09850000 0.09850240 18137.50655486 0 301.26947836 0 6219.68468701 0 503.19008846 0 -856.78897214 0 10575
0.09950000 0.09950330 17487.54939522 0 100.47269988 0 4862.66157488 0 684.66511362 0 258.07264668 0 10882
0.10050000 0.10051200 17447.23601385 0 -63.36252971 0 5700.37803365 0 135.76382482 0 301.91976506 0 10875
0.10150000 0.10150300 16823.75167413 0 615.07235403 0 5212.20165899 0 -743.53693037 0 664.10968295 0 11118
0.10250000 0.10250800 16248.16007087 0 336.56181161 0 5950.56265877 0 -253.48988300 0 458.51583178 0 11575
0.10350000 0.10349800 16329.88529088 0 193.43612624 0 5909.85383278 0 336.32124947 0 255.23203621 0 11364
0.10450000 0.10450100 16010.45392021 0 160.28798156 0 5943.23594885 0 279.10370935 0 -55.36543134 0 12093
0.10550000 0.10551000 16263.75816394 0 30.73615223 0 5529.85352890 0 959.57271624 0 646.70462770 0 12067
0.10650000 0.10649700 15953.77352569 0 -66.69667703 0 5127.19205179 0 249.85728485 0 726.35705886 0 12054
0.10750000 0.10749900 15401.35937058 0 252.03991942 0 4955.33841375 0 259.13485485 0 1569.73936016 0 12807
0.10850000 0.10850100 15414.43101195 0 627.27950954 0 5076.92664765 0 -507.76845832 0 782.59587356 0 12736
0.10950000 0.10950300 14527.75631318 0 140.79036523 0 5458.11328537 0 186.08964410 0 1368.06260757 0 12933
0.11050000 0.11050200 14500.73426463 0 -115.98610189 0 5296.11280894 0 441.45349519 0 1642.29246206 0 13428
0.11150000 0.11150900 14549.39592117 0 15.12784351 0 5100.03818836 0 538.82623883 0 1028.64370864 0 13453
0.11250000 0.11250000 14777.87503086 0 242.27792977 0 4600.63558053 0 50.31692178 0 2284.41762145 0 13668
0.11350000 0.11349100 14719.32725900 0 -268.79688489 0 4442.43576621 0 608.58596392 0 1444.08683441 0 13791
0.11450000 0.11448600 15069.84497007 0 -60.03321561 0 4699.85922465 0 -54.76446537 0 1299.51887466 0 14205
0.11550000 0.11549300 14920.12524579 0 216.07533033 0 4581.54439338 0 -614.59672204 0 964.97163367 0 14776
0.11650000 0.11649800 14673.30189988 0 132.57939723 0 5070.84119444 0 -575.91345124 0 695.25204468 0 14553
0.11750000 0.11747300 14612.55721351 0 292.03804356 0 5531.74287538 0 -206.87575080 0 419.40196573 0 14568
0.11850000 0.11849100 14601.57264093 0 -59.87229162 0 5281.02000621 0 10.98940579 0 13.02957046 0 16015
0.11950000 0.11950300 14598.93634351 0 -70.35849414 0 5076.98157052 0 915.42681750 0 -249.79357433 0 15270
0.12050000 0.12050700 14514.35513463 0 180.11843045 0 5032.57094357 0 63.51730234 0 -330.42363245 0 15999
0.12150000 0.12150000 14258.74413066 0 421.21332175 0 5014.72101313 0 -320.16843549 0 195.63963150 0 15670
0.12250000 0.12250700 13417.87509956 0 352.45538967 0 5030.93424226 0 -360.40492485 0 22.50563169 0 16887
0.12350000 0.12352200 13295.50696101 0 278.64016038 0 5420.31537112 0 443.44170282 0 165.39141399 0 16407
0.12450000 0.12449800 12836.68136428 0 6.15527115 0 5027.11161100 0 633.74832434 0 737.36689595 0 16306
0.12550000 0.12549900 13118.32580527 0 139.36676463 0 4919.45181513 0 959.60017768 0 1015.37873879 0 17523
0.12650000 0.12650100 12952.89814219 0 -66.67448819 0 4466.47001102 0 72.58715407 0 1189.57428770 0 17154
0.12750000 0.12750600 12931.47822566 0 172.84334802 0 4393.55441822 0 -539.31615077 0 715.68005431 0 18007
0.12850000 0.12850300 12524.71950297 0 403.42929874 0 4962.86284597 0 -307.76685304 0 1307.51564350 0 17496
0.12950000 0.12949900 12272.18417933 0 -146.20136569 0 4932.67724052 0 48.01807043 0 1076.14649276 0 18405
0.13050000 0.13049000 12301.73267957 0 -62.43993546 0 4562.50812910 0 886.39349371 0 812.12130620 0 18100
0.13150000 0.13148800 12703.87788178 0 46.48649147 0 4329.16285375 0 582.75024921 0 628.81954662 0 19059
0.13250000 0.13249300 12400.04460418 0 146.63525630 0 3620.67989140 0 87.04142360 0 933.94790533 0 18957
0.13350000 0.13349100 12429.70295014 0 242.88427818 0 4126.12401416 0 -167.58723004 0 716.61923526 0 19468
0.13450000 0.13450700 11803.69215873 0 271.09815285 0 4034.20511080 0 -302.19767474 0 850.67935287 0 19953
0.13550000 0.13551000 11421.20934145 0 26.95273590 0 4131.98977592 0 133.36149880 0 767.77658669 0 19956
0.13650000 0.13649900 11519.19172888 0 170.40037908 0 4007.17207767 0 181.13230649 0 154.95936541 0 19723
0.13750000 0.13749600 11539.73287960 0 191.28315002 0 3870.10658100 0 169.27116502 0 281.29073775 0 20946
0.13850000 0.13851100 11267.97455394 0 -78.75905587 0 3604.45567770 0 219.59478739 0 503.91287334 0 20955
0.13950000 0.13949800 11149.56086151 0 25.34690123 0 3674.05392957 0 -20.61134215 0 272.37895401 0 20506
0.14050000 0.14048300 11148.79194143 0 220.75036442 0 3348.02083079 0 -285.75816342 0 28.73146774 0 21447
0.14150000 0.14148400 11018.18537344 0 99.13906292 0 3632.80685953 0 406.26331846 0 436.06885771 0 21771
0.14250000 0.14249400 11074.42638506 0 -192.80780869 0 3381.93020634 0 245.29539186 0 231.23404050 0 22470
0.14350000 0.14350900 11086.94879780 0 18.84128812 0 2969.84396595 0 466.47085924 0 406.92458973 0 22519
0.14450000 0.14449900 10880.08732695 0 100.78499127 0 2595.46776324 0 103.76642396 0 154.48263495 0 22218
0.14550000 0.14550500 10864.81877106 0 292.52795550 0 2960.69381699 0 284.34005510 0 944.91380414 0 23559
0.14650000 0.14650700 10546.15632048 0 11.00357589 0 2533.74544990 0 287.13123499 0 1255.86618322 0 23044
0.14750000 0.14750500 10669.32633283 0 -6.73022565 0 2621.13870936 0 241.33105961 0 684.86503284 0 23649
0.14850000 0.14849900 10383.90319888 0 116.88024609 0 1983.59411674 0 333.56302329 0 1096.09557503 0 23640
0.14950000 0.14949500 10424.97451576 0 83.43310135 0 2299.73011563 0 44.83858589 0 1497.70253318 0 24457
0.15050000 0.15050000 10269.24623027 0 43.58953015 0 2288.53683617 0 -367.38562073 0 1130.34547234 0 24591
0.15150000 0.15149900 10125.63392835 0 204.36357905 0 2334.57317986 0 251.02274800 0 786.64149164 0 25020
0.15250000 0.15250500 10071.52392381 0 133.26373610 0 2643.96465118 0 -511.83055326 0 822.29302041 0 25297
0.15350000 0.15350100 9793.33962319 0 157.99769818 0 2608.30872859 0 -208.06098618 0 1122.83202469 0 25452
0.15450000 0.15450400 9913.31312492 0 120.55129025 0 2949.83007471 0 167.23132989 0 610.12929637 0 26061
0.15550000 0.15549900 9693.58871958 0 91.86035559 0 2934.98991715 0 -162.06199004 0 882.13807029 0 26128
0.15650000 0.15649500 9656.57070998 0 4.17460992 0 3035.70746315 0 95.66870690 0 560.31425972 0 26331
0.15750000 0.15749700 9556.58913034 0 217.15950765 0 3181.51667960 0 -117.49648062 0 454.51744736 0 27345
0.15850000 0.15849900 9203.36921442 0 53.52298898 0 3046.38446770 0 -29.89034014 0 829.78340045 0 26980
0.15950000 0.15949700 9289.69697033 0 -78.99884909 0 2938.58187239 0 593.86663667 0 879.17992489 0 27777
0.16050000 0.16050000 9325.40781579 0 8.41089821 0 2492.06998153 0 484.72502195 0 830.04153791 0 28224
0.16150000 0.16150500 9187.78210592 0 214.47048428 0 2592.88638868 0 -79.56642196 0 926.82221309 0 28075
0.16250000 0.16249700 8871.49232302 0 327.59071118 0 2448.01086091 0 -310.10327163 0 773.30622053 0 28590
0.16350000 0.16349900 8836.06707644 0 34.51297782 0 2634.60579534 0 -64.61828605 0 857.26460414 0 29163
0.16450000 0.16449100 8858.88203369 0 -69.68942383 0 2702.00713270 0 181.96493710 0 331.05304846 0 28996
0.16550000 0.16550500 8722.78317941 0 72.31133146 0 2312.58206555 0 153.02168680 0 103.82848680 0 30777
0.16650000 0.16650700 8598.73440125 0 141.12100087 0 2498.19937303 0 -365.70498112 0 598.72731003 0 29211
0.16750000 0.16749900 8348.38500755 0 212.20656387 0 2563.66742561 0 -65.08754699 0 25.00451210 0 30922
0.16850000 0.16850800 8386.86396530 0 42.69165118 0 2624.52195772 0 139.63698511 0 -54.90682543 0 30867
0.16950000 0.16949900 8253.77488390 0 115.30725530 0 2877.44174140 0 -56.39765162 0 -366.50795338 0 30852
0.17050000 0.17049200 8087.13891784 0 132.71011364 0 2538.85327615 0 -82.80093920 0 272.02854615 0 31257
0.17150000 0.17149500 7985.82820493 0 14.97559734 0 2657.69536691 0 -142.06457565 0 -412.22025217 0 32608
0.17250000 0.17250900 8010.73023097 0 -63.99029804 0 2599.66386996 0 254.26759074 0 -473.33182327 0 32361
0.17350000 0.17350400 7948.55755016 0 152.20992689 0 2696.78946073 0 37.84778421 0 -515.27641368 0 32508
0.17450000 0.17449800 7884.13303197 0 173.31788156 0 2588.97588084 0 -188.83688570 0 61.09773054 0 32791
0.17550000 0.17549800 7716.73913040 0 6.59022727 0 2432.57753643 0 429.58027068 0 350.42104683 0 33633
0.17650000 0.17650100 8048.16565433 0 -167.80472458 0 2374.12862572 0 457.14605558 0 -257.30262815 0 33984
0.17750000 0.17750300 7927.90655371 0 107.46866431 0 2174.00069786 0 -42.05729212 0 199.25135897 0 34069
0.17850000 0.17849800 7808.61409547 0 264.32616385 0 2325.01660171 0 -421.64172008 0 31.39105245 0 34536
