### header ###
fiducial parameters:
Omega_m = 0.31
Omega_nu = 0
Omega_de = 0.69
Omega_k = 0
H_0 = 100
w_de = -1
zeff = 0
beta = 0
fgrowth = 0
b_1 = 2
gamma = 0.55
Lx = 3500 Ly = 3500 Lz = 3500
nx = 700 ny = 700 nz = 700
xoffset = -983.599254 yoffset = -42.9823471 zoffset = 800.977702
bins = 400 dk = 0.001
kx_ny = 0.628318531 ky_ny = 0.628318531 kz_ny = 0.628318531
############################
A(data) = 9.01028012 (not used)
A(ran) = 9.00582834 (used)
Ngal = 500616
weighted Ngal = 0
Nran = 25229228
weighted Nran = 0
SN(data) = 6794.3231
SN(ran) = 133.685317
SN(data+ran) = 6928.00842
############################
13 columns: k_central k_mean P_0(k) sigma^{lin}_{P_0(k)} P^img_1(k) sigma^{lin}_{P_1(k)} P_2(k) sigma^{lin}_{P_2(k)} P^img_3(k) sigma^{lin}_{P_3(k)} P_4(k) sigma^{lin}_{P_4(k)} N_modes
### header ###
0.00050000 0 0 0 0 0 0 0 0 0 0 0 0
0.00150000 0.00179520 16834.51655526 0 9711.90000207 0 32008.60511913 0 -12957.29197123 0 -41737.09182580 0 3
0.00250000 0.00253879 6165.89323508 0 5901.07715929 0 8374.37450627 0 14183.17027130 0 -8873.68923753 0 6
0.00350000 0.00331552 24542.39113559 0 -9201.43592964 0 3285.90307284 0 33241.95292856 0 -14628.26515230 0 7
0.00450000 0.00420575 37924.34668281 0 -19826.38458924 0 11209.86616499 0 -8295.15376882 0 -12355.66693095 0 24
0.00550000 0.00557378 43785.38507504 0 -13098.33388317 0 -7157.33878712 0 26295.52891957 0 32954.92604701 0 45
0.00650000 0.00659388 58053.46609240 0 -8210.73732853 0 22807.92712500 0 9554.24941638 0 8407.17444000 0 40
0.00750000 0.00754703 77661.36753300 0 -5439.03308280 0 -8724.49677273 0 -3658.42288279 0 21435.84416386 0 57
0.00850000 0.00846663 76784.79864101 0 12409.60118232 0 8942.89204479 0 12368.29918942 0 19828.14212086 0 75
0.00950000 0.00948925 80381.58708704 0 -6221.04677401 0 19309.45060357 0 -16082.73240780 0 23144.38458316 0 112
0.01050000 0.01054430 74973.55246807 0 13498.72155376 0 45316.96403006 0 387.09414085 0 3302.58863859 0 105
0.01150000 0.01145670 56387.87535189 0 11944.73407068 0 48405.05691985 0 -4968.20134824 0 48556.53417575 0 144
0.01250000 0.01249090 52619.28819068 0 -3154.22001673 0 45735.03686250 0 28229.69245970 0 16199.93779724 0 169
0.01350000 0.01339930 69983.92021872 0 -1087.86593325 0 54785.77544090 0 13556.06102264 0 3697.07759370 0 180
0.01450000 0.01448870 64789.42569073 0 3853.32215410 0 28976.42370378 0 730.77285703 0 10702.92814036 0 267
0.01550000 0.01550050 64189.11879916 0 -2702.41356189 0 45099.03011004 0 2218.69692370 0 28149.17554268 0 238
0.01650000 0.01653350 69138.54751286 0 -5479.77486250 0 26171.29340368 0 2522.50823215 0 -16320.10902128 0 315
0.01750000 0.01747870 66575.40734673 0 -2186.23751172 0 18724.19257643 0 12048.09889867 0 2880.81400518 0 297
0.01850000 0.01844180 68799.78329445 0 -899.46074125 0 18071.04989075 0 3727.81242779 0 -933.30860320 0 388
0.01950000 0.01947590 71203.20777525 0 4632.26016499 0 26683.94340605 0 -2843.96076417 0 -814.47420165 0 399
0.02050000 0.02045430 73748.44308807 0 1143.96634234 0 15921.25919085 0 -2870.00518576 0 -16614.38572073 0 462
0.02150000 0.02154770 72157.54744112 0 -5995.09411601 0 15840.74227383 0 8612.98139189 0 -5047.86146860 0 571
0.02250000 0.02255340 76642.54842608 0 731.00902534 0 14232.93038510 0 686.98835072 0 -10688.95576403 0 510
0.02350000 0.02348930 72537.50380671 0 4735.77877699 0 15877.21105480 0 -9337.61167593 0 -3792.43466828 0 555
0.02450000 0.02439640 75127.33648421 0 614.32869847 0 18341.70975915 0 -926.53881112 0 3015.18828157 0 592
0.02550000 0.02547300 72878.79447681 0 -1460.11332580 0 19991.26302369 0 7313.04510346 0 -4432.80229606 0 837
0.02650000 0.02652900 72087.35602232 0 -372.18587894 0 17363.20403360 0 -1153.41307476 0 -12045.46260125 0 723
0.02750000 0.02749970 74141.36124931 0 7397.21988316 0 23464.47502818 0 -5235.62076774 0 2426.54700608 0 826
0.02850000 0.02848090 63078.79820264 0 3194.97278101 0 20515.22713582 0 -2661.29830672 0 5461.33176514 0 831
0.02950000 0.02946900 63538.39271944 0 -102.22166352 0 26635.72113242 0 6168.41968677 0 -521.08066183 0 996
0.03050000 0.03053250 62493.10079260 0 1047.83046156 0 22030.87846059 0 6749.71228320 0 569.88182243 0 1041
0.03150000 0.03150510 58222.84820160 0 1022.81090060 0 20908.80437141 0 -1855.74467646 0 2999.65609594 0 1036
0.03250000 0.03246190 57576.95533382 0 5241.75015924 0 25837.58208866 0 2920.57815793 0 -2875.02513543 0 1059
0.03350000 0.03345080 52721.44471569 0 1665.51384850 0 21029.52482408 0 -3534.22032061 0 6799.28565926 0 1302
0.03450000 0.03451200 49201.21874055 0 710.69415681 0 26132.51786247 0 311.71690534 0 -4242.21996177 0 1339
0.03550000 0.03553350 47779.04612844 0 2195.64030585 0 20901.88409068 0 5929.19766509 0 -1489.33228887 0 1365
0.03650000 0.03647120 49821.07817131 0 -206.87904617 0 19644.80960447 0 902.18491525 0 -7140.91685112 0 1308
0.03750000 0.03744890 49504.39294379 0 -1477.49091963 0 18906.09709838 0 1256.47033472 0 -5376.69563340 0 1579
0.03850000 0.03847530 45943.96343300 0 298.07186928 0 16031.21476239 0 703.10381716 0 -864.59351096 0 1662
0.03950000 0.03950240 47009.68666484 0 1712.08843625 0 11595.97389122 0 498.23384932 0 -5695.02854681 0 1683
0.04050000 0.04050350 44481.69713097 0 2581.53932520 0 15771.53946657 0 -410.09363892 0 -5309.09657373 0 1822
0.04150000 0.04152450 42842.24967321 0 2659.82637399 0 13099.76187761 0 2616.14072884 0 -5191.30900194 0 1887
0.04250000 0.04250150 39566.97966663 0 -296.16384902 0 19587.47013560 0 -414.75768844 0 904.31152850 0 1920
0.04350000 0.04349210 39951.65939843 0 67.23448170 0 11925.29137721 0 1193.44085725 0 -5738.95585256 0 2005
0.04450000 0.04448520 38197.20346573 0 685.77126008 0 15807.12948173 0 -764.67234648 0 -2445.01207259 0 2151
0.04550000 0.04548030 36368.49182239 0 2513.47891349 0 14777.76518513 0 -740.87207306 0 -3807.68125502 0 2274
0.04650000 0.04648670 36291.70966005 0 825.43460817 0 16998.62606963 0 1232.46904363 0 -1092.30260212 0 2311
0.04750000 0.04749250 35254.43647119 0 -228.26600898 0 16497.18033129 0 1539.52080099 0 -995.83828262 0 2568
0.04850000 0.04851840 37089.73885808 0 -671.50998950 0 16002.21549077 0 5215.21143188 0 149.65601376 0 2493
0.04950000 0.04949480 36657.49592701 0 -668.54415490 0 14590.14868544 0 157.00579128 0 4135.21924025 0 2644
0.05050000 0.05050630 35629.23008767 0 441.74019253 0 13113.05321043 0 1357.01212755 0 4410.78921260 0 2829
0.05150000 0.05149060 36022.14824890 0 228.14298177 0 13910.97256274 0 -732.46448121 0 5087.65857507 0 2784
0.05250000 0.05249300 36796.01138726 0 894.63631697 0 16014.51821207 0 -192.14104514 0 1717.99813629 0 3055
0.05350000 0.05348950 36485.80705756 0 490.73578007 0 14683.29786093 0 -976.59001609 0 1381.01341864 0 3009
0.05450000 0.05448610 33997.80136789 0 102.92434663 0 15668.94355866 0 505.75608462 0 4446.73073409 0 3336
0.05550000 0.05550870 35546.95563903 0 -286.47984984 0 13108.65938140 0 3840.10771328 0 2617.92022959 0 3349
0.05650000 0.05647670 34642.92531559 0 494.37826434 0 13818.70215306 0 1040.89260552 0 -347.37941868 0 3324
0.05750000 0.05747970 34187.50493637 0 2013.30738557 0 15157.06247637 0 -2255.56114928 0 4561.03619637 0 3639
0.05850000 0.05849280 30868.95571382 0 720.34520228 0 13743.45783087 0 -242.70413118 0 4735.93256101 0 3846
0.05950000 0.05951020 32067.37258244 0 -27.47450309 0 14604.31878407 0 2629.39910794 0 2703.43512714 0 3787
0.06050000 0.06049470 32088.90234470 0 -106.38602483 0 13907.67719096 0 2815.03838457 0 4618.45255725 0 3930
0.06150000 0.06148310 31490.02344757 0 -581.95935999 0 11646.28323364 0 -264.12404772 0 2587.99825388 0 4083
0.06250000 0.06249100 32158.76422632 0 19.28187933 0 11662.54040106 0 1431.32276107 0 3686.25778971 0 4303
0.06350000 0.06350600 31613.05066048 0 656.33040865 0 12337.21284901 0 -900.07587732 0 1933.60332692 0 4470
0.06450000 0.06451750 31052.83745883 0 1100.84091038 0 13599.88946724 0 -514.22738699 0 4079.38465782 0 4479
0.06550000 0.06550280 30527.33550654 0 351.59859301 0 12729.91131879 0 572.52141523 0 1590.04983487 0 4636
0.06650000 0.06648880 30027.86699126 0 -122.89320113 0 13169.18437632 0 795.67740104 0 3984.75256504 0 4653
0.06750000 0.06749660 29340.78197630 0 182.32523108 0 12251.09379997 0 825.02048978 0 2403.85287913 0 5220
0.06850000 0.06852730 29270.37086605 0 685.92504410 0 12097.19993811 0 885.37632229 0 3943.82404760 0 5029
0.06950000 0.06949320 28790.34504425 0 380.64070446 0 11273.57668596 0 1097.25554589 0 4179.81660493 0 5040
0.07050000 0.07048030 29303.87381243 0 -516.48142129 0 9957.16353867 0 2764.66313471 0 5981.68195289 0 5475
0.07150000 0.07148790 29077.15223435 0 -27.61115118 0 9312.90737220 0 -66.20698478 0 4040.13677999 0 5509
0.07250000 0.07249820 28479.37179447 0 251.84329557 0 9299.30847134 0 -172.73569921 0 3623.07452822 0 5916
0.07350000 0.07351270 27974.19130146 0 872.45187419 0 8914.58480125 0 -526.74979974 0 3289.14352175 0 5721
0.07450000 0.07449140 27932.99915428 0 270.70820052 0 10372.79779600 0 808.86767580 0 4920.50633409 0 6028
0.07550000 0.07549160 27406.72828190 0 262.27863952 0 9543.47355068 0 -233.37383523 0 2411.50912622 0 6183
0.07650000 0.07648840 26296.40768538 0 553.17318908 0 10765.35346634 0 -910.51341818 0 2659.12336135 0 6330
0.07750000 0.07749960 26340.34597571 0 296.28248241 0 9850.75598407 0 895.75234955 0 1786.01460972 0 6583
0.07850000 0.07848650 25580.87262743 0 -18.59391555 0 10673.40160926 0 730.40157848 0 95.80568452 0 6549
0.07950000 0.07947320 25812.31757172 0 837.78236621 0 9379.47388204 0 -402.98991583 0 428.81244906 0 6828
0.08050000 0.08048110 24290.84442348 0 830.52815447 0 9603.77885415 0 -1134.93702368 0 1570.38744995 0 7147
0.08150000 0.08149960 23591.34684150 0 -2.61446009 0 10593.26915228 0 618.08102846 0 -593.38551239 0 7386
0.08250000 0.08250610 23531.15138375 0 268.41242485 0 9062.64585508 0 621.92782578 0 -753.26926168 0 7227
0.08350000 0.08350160 23206.22772680 0 409.07097522 0 8878.45654203 0 1458.90502282 0 -444.12274632 0 7798
0.08450000 0.08449610 22788.92381443 0 163.09453986 0 7536.36146404 0 570.88361545 0 -1111.28723891 0 7371
0.08550000 0.08548940 22714.11887515 0 337.24175665 0 8003.40352106 0 399.36171151 0 1276.20961165 0 8256
0.08650000 0.08650700 21347.30850886 0 409.46202600 0 7642.15388257 0 281.79492963 0 529.86172915 0 8037
0.08750000 0.08749060 20843.55601028 0 569.17441596 0 7544.11657229 0 510.31687916 0 1520.33075269 0 8155
0.08850000 0.08849210 20615.07690058 0 470.39345011 0 7771.72790074 0 109.56089585 0 547.45352214 0 8718
0.08950000 0.08949900 19861.42537578 0 475.89562251 0 7203.38611539 0 505.33647395 0 2135.74143156 0 8571
0.09050000 0.09049190 19803.64652400 0 -334.13971335 0 7610.91375815 0 1164.52946221 0 2626.08176702 0 8932
0.09150000 0.09150830 20351.66685008 0 -200.10266334 0 6639.41618991 0 455.68510742 0 2947.42445332 0 9285
0.09250000 0.09250820 19377.22541639 0 461.39269133 0 6098.97521891 0 171.97556679 0 2985.18941385 0 9204
0.09350000 0.09350330 19237.72134461 0 338.77410452 0 5940.52275943 0 -407.40132018 0 1862.92858693 0 9349
0.09450000 0.09448040 18512.84939997 0 506.16690763 0 6874.28832085 0 235.54987906 0 2965.76868953 0 9564
0.09550000 0.09549270 18445.29427859 0 812.39372360 0 7174.22207518 0 -132.06531923 0 1648.87222104 0 10155
0.09650000 0.09649430 17861.68393734 0 251.85867397 0 7778.98870322 0 -64.44626764 0 2953.23529221 0 9913
0.09750000 0.09749140 17468.21654748 0 -337.96673844 0 7001.63247078 0 901.26330961 0 1954.13349308 0 10476
0.09850000 0.09850240 17638.03803959 0 -42.63749724 0 6452.49171830 0 50.91426283 0 1764.52878575 0 10575
0.09950000 0.09950330 17165.59157287 0 280.47787938 0 6544.86098913 0 -324.71714699 0 1024.08620947 0 10882
0.10050000 0.10051200 17388.13901336 0 674.44616575 0 7162.00723047 0 -927.01224620 0 285.74278502 0 10875
0.10150000 0.10150300 16612.29865194 0 258.01662536 0 7407.84196484 0 -393.17520023 0 430.66554645 0 11118
0.10250000 0.10250800 16448.40882903 0 137.86187818 0 7826.57387164 0 -249.61123042 0 -732.13823941 0 11575
0.10350000 0.10349800 15734.30176552 0 186.99696980 0 8080.16371426 0 91.67372770 0 -447.37857364 0 11364
0.10450000 0.10450100 15967.06485851 0 150.77094788 0 7562.01044102 0 479.89290848 0 -1162.42042428 0 12093
0.10550000 0.10551000 15803.61441850 0 33.39299080 0 6917.25996879 0 1144.74624699 0 -544.35916804 0 12067
0.10650000 0.10649700 16124.58362933 0 -1.64484088 0 6022.73130062 0 936.03936795 0 -880.26739758 0 12054
0.10750000 0.10749900 15607.21026075 0 67.59202954 0 5842.29871140 0 5.87539523 0 -510.04336330 0 12807
0.10850000 0.10850100 15227.91296952 0 376.27213994 0 5934.15170733 0 -188.99726046 0 -159.62890721 0 12736
0.10950000 0.10950300 15062.26561499 0 12.70552557 0 5326.73779730 0 376.82356549 0 -220.25715711 0 12933
0.11050000 0.11050200 14833.01758522 0 -68.13829233 0 4975.16556726 0 792.22494988 0 -105.24879203 0 13428
0.11150000 0.11150900 14823.24131562 0 172.76316064 0 4591.44149328 0 90.41577445 0 -830.76542124 0 13453
0.11250000 0.11250000 14786.33315175 0 178.87827220 0 4252.55644457 0 177.56891115 0 -489.22759826 0 13668
0.11350000 0.11349100 14271.70592631 0 142.21286738 0 4699.03538171 0 57.32431016 0 -348.35704564 0 13791
0.11450000 0.11448600 14234.24853381 0 151.15211255 0 4270.56015903 0 107.57752142 0 18.65048609 0 14205
0.11550000 0.11549300 14488.32169761 0 -21.38894004 0 4251.71063248 0 -74.10181679 0 -1315.73210379 0 14776
0.11650000 0.11649800 14330.91277252 0 2.83786433 0 4123.26802529 0 220.12644070 0 -812.42008657 0 14553
0.11750000 0.11747300 13799.47915104 0 423.70681972 0 4451.86052948 0 -230.59363991 0 -648.92241290 0 14568
0.11850000 0.11849100 13839.35314951 0 158.67434785 0 4260.97062717 0 -254.80803171 0 -1109.11229354 0 16015
0.11950000 0.11950300 13635.58932812 0 198.93170791 0 4593.05622545 0 342.61980338 0 -723.54940210 0 15270
0.12050000 0.12050700 13501.57754263 0 25.98268829 0 4317.36542280 0 579.67896272 0 -403.59516578 0 15999
0.12150000 0.12150000 13509.37658916 0 -116.93736587 0 3973.87783818 0 505.52101477 0 -55.51668890 0 15670
0.12250000 0.12250700 13149.74168285 0 303.88820046 0 4268.54998225 0 304.50004116 0 270.87846140 0 16887
0.12350000 0.12352200 13038.68765405 0 112.01188353 0 3736.88568474 0 -129.31588071 0 1115.73599080 0 16407
0.12450000 0.12449800 13171.38129084 0 -34.06085281 0 3532.95709476 0 597.38719218 0 782.01478967 0 16306
0.12550000 0.12549900 13173.46835963 0 -248.44357036 0 2991.94492599 0 271.72317503 0 270.78289562 0 17523
0.12650000 0.12650100 13307.80968230 0 26.91813449 0 3185.74574004 0 476.59863516 0 419.06913318 0 17154
0.12750000 0.12750600 13040.00580276 0 299.94693582 0 2961.27599934 0 -598.07812179 0 528.87311762 0 18007
0.12850000 0.12850300 12920.16411590 0 -50.86768825 0 2982.77280788 0 -213.88940039 0 314.82334247 0 17496
0.12950000 0.12949900 12626.87602798 0 186.63008507 0 3231.58436142 0 179.70870589 0 -486.89996733 0 18405
0.13050000 0.13049000 12654.88668806 0 373.29422232 0 3509.27435628 0 -695.97043572 0 -144.12198610 0 18100
0.13150000 0.13148800 12247.02950812 0 288.71630881 0 3536.77972602 0 -33.38354407 0 -1229.17367185 0 19059
0.13250000 0.13249300 12117.30170593 0 122.39230462 0 3776.95740551 0 63.53158228 0 -682.89879435 0 18957
0.13350000 0.13349100 11946.49160229 0 -146.35295279 0 3315.17695877 0 286.10747283 0 -551.44970964 0 19468
0.13450000 0.13450700 12270.64633917 0 44.92920862 0 3424.36361023 0 539.59296200 0 -839.69917412 0 19953
0.13550000 0.13551000 11964.83583850 0 -45.62068746 0 2867.62153351 0 -160.11881915 0 -1104.31203532 0 19956
0.13650000 0.13649900 11654.52166308 0 418.97796123 0 3150.72692265 0 16.15610935 0 -837.75490478 0 19723
0.13750000 0.13749600 11523.47571218 0 216.18627452 0 3269.79968943 0 -247.14080005 0 -455.11720502 0 20946
0.13850000 0.13851100 11144.72764958 0 94.02783145 0 3417.91566612 0 92.93816185 0 -595.05956125 0 20955
0.13950000 0.13949800 11121.44035571 0 64.55204908 0 3492.20433049 0 174.83155566 0 -481.33957669 0 20506
0.14050000 0.14048300 11038.94621562 0 193.29003143 0 3357.88497696 0 155.00440215 0 -320.18271543 0 21447
0.14150000 0.14148400 11030.04871183 0 40.69707249 0 3072.07738297 0 205.41699956 0 -76.02576468 0 21771
0.14250000 0.14249400 10969.18319516 0 -156.13141930 0 2816.91674648 0 668.48154284 0 372.18697740 0 22470
0.14350000 0.14350900 10963.18561853 0 31.96840158 0 2702.18288587 0 487.88528349 0 511.31098297 0 22519
0.14450000 0.14449900 10782.30266183 0 295.64977103 0 2666.59287070 0 -115.51596218 0 708.95749589 0 22218
0.14550000 0.14550500 10504.70054355 0 296.50766615 0 2758.47882034 0 -448.60664885 0 486.55175638 0 23559
0.14650000 0.14650700 10021.78577916 0 286.66109528 0 2984.06898745 0 163.29775445 0 1450.43591736 0 23044
0.14750000 0.14750500 9859.67545701 0 95.95650270 0 3146.08044845 0 -27.03555957 0 818.69996672 0 23649
0.14850000 0.14849900 9771.94167580 0 38.96282817 0 2736.59755176 0 65.79352547 0 757.37968874 0 23640
0.14950000 0.14949500 9802.47878757 0 -160.47691621 0 2568.18208495 0 524.99446504 0 331.03437468 0 24457
0.15050000 0.15050000 9591.14659568 0 202.61593355 0 2559.77888692 0 -196.13723264 0 729.10100509 0 24591
0.15150000 0.15149900 9622.47459668 0 305.47876657 0 2455.85384573 0 -401.80797582 0 113.12462073 0 25020
0.15250000 0.15250500 9497.54705272 0 35.70689102 0 2825.58357424 0 -56.27132904 0 397.67118579 0 25297
0.15350000 0.15350100 9392.00727935 0 58.85962387 0 2980.38915563 0 89.70331507 0 -233.81211968 0 25452
0.15450000 0.15450400 9162.50660441 0 -24.11739802 0 2482.51340338 0 -76.93188207 0 -240.67857600 0 26061
0.15550000 0.15549900 9192.34070354 0 67.70747740 0 3002.17156306 0 264.58979360 0 59.54352336 0 26128
0.15650000 0.15649500 9246.80221440 0 159.26202249 0 2704.31389295 0 -90.88767169 0 95.96397221 0 26331
0.15750000 0.15749700 9044.04897370 0 81.59098853 0 2860.42663847 0 350.79122693 0 454.61301314 0 27345
0.15850000 0.15849900 9090.16220939 0 -28.62217124 0 2661.39716787 0 80.83074626 0 20.95450019 0 26980
0.15950000 0.15949700 9101.17973569 0 222.89455299 0 2965.69179752 0 -281.54448138 0 247.53514621 0 27777
0.16050000 0.16050000 8934.68656908 0 71.00032272 0 2672.35977131 0 54.48391939 0 585.07458477 0 28224
0.16150000 0.16150500 8968.57397549 0 -205.61472186 0 3038.05816169 0 32.39152732 0 35.57979951 0 28075
0.16250000 0.16249700 8761.59167434 0 154.24976202 0 2610.00035276 0 -8.36076462 0 98.32949992 0 28590
0.16350000 0.16349900 8709.99713692 0 206.25622090 0 2881.90147787 0 41.08427868 0 47.13227449 0 29163
0.16450000 0.16449100 8616.04608764 0 33.80919626 0 2751.84413851 0 198.34513173 0 419.73260136 0 28996
0.16550000 0.16550500 8573.40397688 0 29.75259360 0 2700.50224626 0 329.40975640 0 -150.43701687 0 30777
0.16650000 0.16650700 8545.52513166 0 144.57564894 0 2620.40274300 0 -96.24089329 0 410.16723556 0 29211
0.16750000 0.16749900 8317.89183406 0 111.34402151 0 2654.43294885 0 -223.44707699 0 75.95897847 0 30922
0.16850000 0.16850800 8250.36966640 0 217.30340555 0 2709.77322552 0 -30.42012608 0 380.18704161 0 30867
0.16950000 0.16949900 8137.23955339 0 11.76140155 0 2722.55926800 0 152.10667191 0 57.34924514 0 30852
0.17050000 0.17049200 8005.83111160 0 -26.68614032 0 2765.77257654 0 355.74307225 0 383.40771829 0 31257
0.17150000 0.17149500 8155.85840391 0 -16.18214279 0 2260.80079040 0 239.84704386 0 381.83802287 0 32608
0.17250000 0.17250900 8027.08625954 0 57.34803684 0 2249.90409440 0 148.25877613 0 312.56052052 0 32361
0.17350000 0.17350400 8051.28527294 0 62.35337703 0 1981.78166226 0 203.02565811 0 687.23330669 0 32508
0.17450000 0.17449800 7860.87869181 0 41.23476732 0 2021.16135497 0 19.80177915 0 764.64268813 0 32791
0.17550000 0.17549800 7802.72636457 0 151.43771144 0 1955.41868807 0 29.16360082 0 619.17399344 0 33633
0.17650000 0.17650100 7663.27721565 0 165.15304876 0 2070.73473103 0 -146.95051354 0 655.42418141 0 33984
0.17750000 0.17750300 7514.43625717 0 160.49229461 0 2216.37917888 0 -221.53905674 0 396.97037006 0 34069
0.17850000 0.17849800 7383.06076910 0 54.93110134 0 2370.76734651 0 -2.18636933 0 472.67165046 0 34536
