### header ###
fiducial parameters:
Omega_m = 0.31
Omega_nu = 0
Omega_de = 0.69
Omega_k = 0
H_0 = 100
w_de = -1
zeff = 0
beta = 0
fgrowth = 0
b_1 = 2
gamma = 0.55
Lx = 3500 Ly = 3500 Lz = 3500
nx = 700 ny = 700 nz = 700
xoffset = -983.599254 yoffset = -42.9823471 zoffset = 800.977702
bins = 400 dk = 0.001
kx_ny = 0.628318531 ky_ny = 0.628318531 kz_ny = 0.628318531
############################
A(data) = 9.12476363 (not used)
A(ran) = 9.12846495 (used)
Ngal = 506252
weighted Ngal = 0
Nran = 25229228
weighted Nran = 0
SN(data) = 6710.23063
SN(ran) = 135.505773
SN(data+ran) = 6845.7364
############################
13 columns: k_central k_mean P_0(k) sigma^{lin}_{P_0(k)} P^img_1(k) sigma^{lin}_{P_1(k)} P_2(k) sigma^{lin}_{P_2(k)} P^img_3(k) sigma^{lin}_{P_3(k)} P_4(k) sigma^{lin}_{P_4(k)} N_modes
### header ###
0.00050000 0 0 0 0 0 0 0 0 0 0 0 0
0.00150000 0.00179520 25595.26241751 0 -17131.42955214 0 1418.16324311 0 -8909.98226534 0 -41149.52703842 0 3
0.00250000 0.00253879 23869.47621926 0 -6283.62588400 0 -23008.83495751 0 4202.35694787 0 -169.37551846 0 6
0.00350000 0.00331552 37023.72157687 0 -10165.10149763 0 4089.57834118 0 -53760.47543616 0 -63904.61836930 0 7
0.00450000 0.00420575 50620.75505523 0 -12052.05334480 0 -23921.10371039 0 -156.25554497 0 15744.84695519 0 24
0.00550000 0.00557378 55528.22270167 0 -3090.20192773 0 -20530.93507461 0 -28812.64372659 0 -12142.78591432 0 45
0.00650000 0.00659388 53871.74915641 0 2604.88154194 0 -30568.30796227 0 -7706.15000243 0 22680.50608305 0 40
0.00750000 0.00754703 64722.09026081 0 -91.37890177 0 -816.35256356 0 -2798.30888052 0 -35741.49241945 0 57
0.00850000 0.00846663 50255.73770836 0 13994.23562291 0 2749.09799536 0 -36907.28510751 0 6224.71562125 0 75
0.00950000 0.00948925 43662.90709076 0 -6781.09520707 0 13960.51298508 0 15470.78186929 0 -6095.59197056 0 112
0.01050000 0.01054430 49459.79557911 0 -8514.16417694 0 6387.30926460 0 5636.09631491 0 8729.54967612 0 105
0.01150000 0.01145670 58551.06723033 0 1986.38419817 0 5186.73941975 0 16685.67559679 0 -21817.55806106 0 144
0.01250000 0.01249090 66671.30266537 0 1891.31272248 0 -83.27953703 0 -3619.07614380 0 7307.48690974 0 169
0.01350000 0.01339930 61655.08775037 0 -5545.16602308 0 14896.39856901 0 402.71310461 0 3804.07831522 0 180
0.01450000 0.01448870 67802.60379552 0 -6382.04765433 0 -11362.77141532 0 13391.29243392 0 16975.66831293 0 267
0.01550000 0.01550050 74441.24008078 0 -6160.42291793 0 -12510.54940434 0 927.93055647 0 4731.78039257 0 238
0.01650000 0.01653350 81211.25185411 0 1534.52282047 0 -4368.11414812 0 -9518.93401553 0 2079.59928110 0 315
0.01750000 0.01747870 81282.54173017 0 5976.74987980 0 -1198.13126974 0 -16540.34970153 0 -8895.62542898 0 297
0.01850000 0.01844180 71155.97411315 0 2214.42392496 0 4885.04813380 0 -5844.48464135 0 12811.74638452 0 388
0.01950000 0.01947590 75614.83181537 0 -2762.92757224 0 14671.98375117 0 5743.95383308 0 -6997.07387316 0 399
0.02050000 0.02045430 77616.33078542 0 -1114.45079581 0 14358.59389543 0 -6885.66833804 0 -17537.74889192 0 462
0.02150000 0.02154770 79840.70673314 0 852.55551787 0 17788.96606686 0 -3053.42557873 0 -11266.21702233 0 571
0.02250000 0.02255340 71792.53009424 0 4936.24722660 0 19509.80920745 0 -4335.51193670 0 -5667.88566796 0 510
0.02350000 0.02348930 73469.10540733 0 2272.35656076 0 25149.61830789 0 -8446.86170074 0 -15198.58416072 0 555
0.02450000 0.02439640 68658.96107396 0 3025.30507292 0 36282.15308190 0 5857.97369648 0 -2257.72511008 0 592
0.02550000 0.02547300 72168.42216797 0 2342.99834703 0 29736.77581786 0 4127.74973090 0 -13452.47650319 0 837
0.02650000 0.02652900 68538.78984992 0 392.45680919 0 29799.38788157 0 -1786.81648352 0 -4824.56707717 0 723
0.02750000 0.02749970 60898.36054524 0 1554.69049573 0 31507.92830087 0 5798.87669599 0 737.74146988 0 826
0.02850000 0.02848090 62142.58308153 0 -2840.59948496 0 24963.21011118 0 3375.18567878 0 -3658.70848168 0 831
0.02950000 0.02946900 64997.80303260 0 -1173.44893515 0 22116.66797245 0 3915.92323324 0 -13928.54787887 0 996
0.03050000 0.03053250 65807.69556902 0 5575.03307593 0 29512.69053720 0 -2027.56536078 0 -3757.89917209 0 1041
0.03150000 0.03150510 61606.53593956 0 3476.83691345 0 24164.30214734 0 -7302.44499092 0 2553.28700453 0 1036
0.03250000 0.03246190 62335.25248461 0 -2215.55533594 0 25743.55414736 0 5433.85934911 0 -6521.74944842 0 1059
0.03350000 0.03345080 59656.55461492 0 -391.70875979 0 29627.25962922 0 3323.03092816 0 -1660.29617652 0 1302
0.03450000 0.03451200 59895.46906856 0 4359.79882668 0 27024.13561889 0 4028.86660852 0 3169.06017429 0 1339
0.03550000 0.03553350 57359.79033389 0 -447.10505778 0 25352.06398056 0 8983.94139253 0 12120.04784908 0 1365
0.03650000 0.03647120 56499.58845504 0 470.79878084 0 23652.75060223 0 432.94594372 0 4449.88330642 0 1308
0.03750000 0.03744890 52990.12736103 0 3930.15923931 0 25218.93096088 0 -2248.76169885 0 7703.39287472 0 1579
0.03850000 0.03847530 46284.59502875 0 3555.15691595 0 26670.43238178 0 -2841.12674445 0 11961.21092955 0 1662
0.03950000 0.03950240 46659.27879950 0 1628.97916010 0 27827.76694895 0 3184.77909765 0 5821.25227034 0 1683
0.04050000 0.04050350 44583.63396453 0 1673.13714187 0 27296.77271036 0 1903.28590660 0 2637.07732418 0 1822
0.04150000 0.04152450 41839.35819653 0 -103.02979853 0 24452.97671478 0 5508.12604433 0 3484.08673135 0 1887
0.04250000 0.04250150 43647.74838060 0 -1445.24021453 0 18118.17370712 0 4020.88082426 0 -9.06931349 0 1920
0.04350000 0.04349210 42221.18193946 0 -459.66701498 0 19068.66877258 0 1676.23479134 0 4366.03806391 0 2005
0.04450000 0.04448520 43072.37646879 0 1085.93264848 0 12944.76955848 0 1004.74347561 0 1637.61303414 0 2151
0.04550000 0.04548030 39600.04323010 0 2091.16603603 0 15909.50569819 0 -892.44379629 0 1115.74697538 0 2274
0.04650000 0.04648670 39251.50274209 0 2683.86061880 0 16552.98196000 0 -359.36358737 0 3216.84306502 0 2311
0.04750000 0.04749250 37572.95020594 0 -1184.31267743 0 16096.24343207 0 3895.62374311 0 4987.28155082 0 2568
0.04850000 0.04851840 37137.08236591 0 -800.33705673 0 15248.23442879 0 3686.42255830 0 3009.02593635 0 2493
0.04950000 0.04949480 37590.96490497 0 1418.89920948 0 13425.01507174 0 405.71518829 0 5643.12644136 0 2644
0.05050000 0.05050630 36581.26299329 0 189.74640831 0 14645.95031416 0 1956.84668250 0 9137.94510012 0 2829
0.05150000 0.05149060 37441.02548923 0 -573.26946462 0 12095.88178940 0 756.98644104 0 5827.32673898 0 2784
0.05250000 0.05249300 36959.35198154 0 291.37896921 0 12998.70380986 0 -1114.97805530 0 5523.91087513 0 3055
0.05350000 0.05348950 36129.46752302 0 1095.33434415 0 14385.72578970 0 -901.83999967 0 3327.83118638 0 3009
0.05450000 0.05448610 35335.39277112 0 1007.41602212 0 13887.68526887 0 -1403.58671530 0 1100.03903659 0 3336
0.05550000 0.05550870 35162.49559869 0 819.55346801 0 16683.47868227 0 458.51143795 0 3366.65066588 0 3349
0.05650000 0.05647670 34903.80891440 0 -1348.87255927 0 13858.24661435 0 2678.03879533 0 1676.70712796 0 3324
0.05750000 0.05747970 34973.23141311 0 -294.19211825 0 13451.48789166 0 1942.80839874 0 2065.15456816 0 3639
0.05850000 0.05849280 36288.52413400 0 1103.75182212 0 12971.79160703 0 -366.99017611 0 565.40670756 0 3846
0.05950000 0.05951020 33364.32106712 0 1677.60786291 0 13973.80431790 0 -997.62766950 0 4305.09565523 0 3787
0.06050000 0.06049470 33083.33570049 0 335.66217511 0 14244.90356921 0 842.16960450 0 3592.89990734 0 3930
0.06150000 0.06148310 33010.28829282 0 -125.38889602 0 14588.28130810 0 2362.72663938 0 3330.63225239 0 4083
0.06250000 0.06249100 33493.82917785 0 -276.39711066 0 13635.25979095 0 2255.04487437 0 6212.68751427 0 4303
0.06350000 0.06350600 32237.30392027 0 -70.78700232 0 11996.69109899 0 1305.61531245 0 6313.28422997 0 4470
0.06450000 0.06451750 31511.88274700 0 1593.83951241 0 13177.75234293 0 -651.09296444 0 7105.79917257 0 4479
0.06550000 0.06550280 31342.28094635 0 387.78287355 0 12299.09638215 0 891.83744788 0 6960.95659851 0 4636
0.06650000 0.06648880 30634.10555203 0 433.92686605 0 13112.39413608 0 1128.69778645 0 7432.84285204 0 4653
0.06750000 0.06749660 29920.87725432 0 108.68740263 0 11840.92985978 0 510.03787101 0 7026.56745054 0 5220
0.06850000 0.06852730 30297.42840241 0 -9.31177596 0 12854.80590904 0 -58.78569770 0 7143.72890170 0 5029
0.06950000 0.06949320 30435.06509685 0 -173.24098955 0 9853.20554376 0 1449.95259616 0 3349.86623898 0 5040
0.07050000 0.07048030 30084.54738578 0 251.06558783 0 11113.31177200 0 -204.99738888 0 1739.36312997 0 5475
0.07150000 0.07148790 29786.53593165 0 710.35693043 0 10563.13846969 0 -2189.18137717 0 1311.65682737 0 5509
0.07250000 0.07249820 28127.97531759 0 714.82765147 0 11464.15902024 0 -609.87884812 0 41.56144851 0 5916
0.07350000 0.07351270 27546.56189086 0 209.83719156 0 11296.75413410 0 424.34941722 0 -1150.09573384 0 5721
0.07450000 0.07449140 27874.34153669 0 282.29472768 0 10489.35509566 0 1250.02239061 0 -2046.92017767 0 6028
0.07550000 0.07549160 26728.87030791 0 362.68202675 0 8923.92168795 0 1087.83517645 0 -3269.67885914 0 6183
0.07650000 0.07648840 26159.64975674 0 881.03961303 0 9905.00878805 0 -137.13909331 0 -1458.65237765 0 6330
0.07750000 0.07749960 25027.03047788 0 578.99242693 0 9741.70114748 0 123.65772738 0 -155.93589391 0 6583
0.07850000 0.07848650 25143.35710152 0 212.99196081 0 9654.62644063 0 343.41618490 0 -1364.15209973 0 6549
0.07950000 0.07947320 24780.97605206 0 387.88283316 0 8962.25784626 0 -423.76943179 0 -1821.09933454 0 6828
0.08050000 0.08048110 23229.29532922 0 455.30833658 0 10109.14608490 0 -465.40206033 0 -1391.65746948 0 7147
0.08150000 0.08149960 23176.89891801 0 -10.61945637 0 9426.23520752 0 1197.69188683 0 88.04903844 0 7386
0.08250000 0.08250610 23281.91143188 0 219.26085638 0 9092.80949138 0 528.18768029 0 -861.25310244 0 7227
0.08350000 0.08350160 22867.68319984 0 246.52895936 0 8593.02242351 0 1320.12593283 0 501.75440483 0 7798
0.08450000 0.08449610 23567.51031900 0 290.84841435 0 8791.97500210 0 171.64383270 0 -994.04560038 0 7371
0.08550000 0.08548940 21968.92547123 0 886.88450410 0 9058.76830095 0 -584.87246864 0 1108.91457123 0 8256
0.08650000 0.08650700 21923.55918647 0 -13.21905434 0 9378.50723965 0 -64.39079555 0 475.02564437 0 8037
0.08750000 0.08749060 21444.85151338 0 -222.26953081 0 9171.38213906 0 1050.31077805 0 -31.20859870 0 8155
0.08850000 0.08849210 21187.04359489 0 498.74902577 0 8088.96235689 0 740.20311259 0 -307.47246650 0 8718
0.08950000 0.08949900 20545.43471042 0 516.09915816 0 8325.98746405 0 -65.45410218 0 654.45094828 0 8571
0.09050000 0.09049190 20435.36929315 0 374.71013372 0 7493.90609102 0 103.61099226 0 76.91935966 0 8932
0.09150000 0.09150830 19896.13662514 0 -56.22299692 0 7960.56368799 0 1317.64341942 0 414.19198295 0 9285
0.09250000 0.09250820 19293.63281905 0 320.78576846 0 6715.91275337 0 -83.30007818 0 159.97272433 0 9204
0.09350000 0.09350330 19085.69486008 0 371.72892073 0 6891.65493010 0 -20.34968963 0 497.60992559 0 9349
0.09450000 0.09448040 18803.28149902 0 190.56146360 0 6961.90127176 0 -47.65195462 0 -291.95675773 0 9564
0.09550000 0.09549270 18233.95110213 0 320.71876257 0 7004.15892248 0 263.99992205 0 469.17086718 0 10155
0.09650000 0.09649430 18461.00221738 0 205.91679761 0 6696.67876678 0 -145.55327590 0 -234.78535281 0 9913
0.09750000 0.09749140 17673.73790048 0 380.58797851 0 7092.28814830 0 -79.19305633 0 -275.67322733 0 10476
0.09850000 0.09850240 17614.20151709 0 456.73523256 0 7240.83252331 0 282.22003259 0 320.45623129 0 10575
0.09950000 0.09950330 16969.95633519 0 -2.42754660 0 7514.46921089 0 657.45522888 0 752.35644370 0 10882
0.10050000 0.10051200 16957.87330535 0 126.56534374 0 6962.96677530 0 1137.69415139 0 1198.21914632 0 10875
0.10150000 0.10150300 17011.47801955 0 62.52418713 0 6602.57393348 0 -109.72830073 0 1046.47166994 0 11118
0.10250000 0.10250800 16728.18589268 0 20.25763891 0 6497.40763558 0 165.55178875 0 1692.04159128 0 11575
0.10350000 0.10349800 16767.40081679 0 41.85682367 0 6575.90339125 0 377.26294839 0 1762.60648555 0 11364
0.10450000 0.10450100 16250.90621402 0 212.05277985 0 6155.37001454 0 185.30095179 0 1932.64766911 0 12093
0.10550000 0.10551000 16429.51536419 0 240.50941358 0 6290.60108759 0 113.70460616 0 1143.95535777 0 12067
0.10650000 0.10649700 16169.62037691 0 187.66593027 0 6260.15185240 0 -245.18115230 0 871.87738104 0 12054
0.10750000 0.10749900 15568.65441099 0 441.25906825 0 6501.70260346 0 238.29821912 0 1814.05822352 0 12807
0.10850000 0.10850100 15111.47650015 0 268.14989357 0 6527.14287356 0 130.59009113 0 1091.10308679 0 12736
0.10950000 0.10950300 15047.65613346 0 45.45108566 0 5975.46468481 0 510.83205561 0 1348.46613009 0 12933
0.11050000 0.11050200 15186.17159371 0 -62.06689938 0 6083.82749332 0 237.29532765 0 527.26827156 0 13428
0.11150000 0.11150900 14898.81517498 0 189.45861251 0 5310.17306185 0 155.18454914 0 1159.82806515 0 13453
0.11250000 0.11250000 14853.00950731 0 79.67264277 0 5407.03502287 0 -44.73708844 0 20.09089310 0 13668
0.11350000 0.11349100 14856.08518764 0 49.76626515 0 5405.02484609 0 -227.62890377 0 -349.79822157 0 13791
0.11450000 0.11448600 14373.86245132 0 85.91275876 0 5251.25181452 0 9.50735628 0 -637.34027957 0 14205
0.11550000 0.11549300 14445.26217310 0 190.38241507 0 5357.04423305 0 -555.01749882 0 -1511.92755467 0 14776
0.11650000 0.11649800 13855.50047120 0 537.11044860 0 5595.14582832 0 -143.90888539 0 -1197.40628795 0 14553
0.11750000 0.11747300 13658.87662200 0 446.64041036 0 5970.10421339 0 207.41729022 0 -331.87798986 0 14568
0.11850000 0.11849100 13566.27667514 0 -125.49434791 0 5760.17804679 0 377.52218430 0 -582.44268118 0 16015
0.11950000 0.11950300 13569.02281828 0 -59.52298221 0 6230.84501275 0 324.43704039 0 -696.27031456 0 15270
0.12050000 0.12050700 13431.05658666 0 130.27044007 0 5222.15368175 0 435.40429106 0 250.43836874 0 15999
0.12150000 0.12150000 13376.46326093 0 -47.49004202 0 5766.17562341 0 247.18913217 0 1232.28230589 0 15670
0.12250000 0.12250700 13696.44386023 0 -71.25846018 0 5176.23816836 0 529.96168876 0 416.98426130 0 16887
0.12350000 0.12352200 13421.17047134 0 184.80884294 0 5179.56649385 0 692.08848777 0 1049.36500635 0 16407
0.12450000 0.12449800 13392.39089117 0 -179.35170728 0 4661.40223605 0 56.63195255 0 1598.94733866 0 16306
0.12550000 0.12549900 13373.38758061 0 59.73256786 0 4682.54753827 0 420.20274107 0 1905.69152799 0 17523
0.12650000 0.12650100 13112.39413608 0 456.58364546 0 4672.83717610 0 -64.92486547 0 1481.00598285 0 17154
0.12750000 0.12750600 12854.25668041 0 220.24507408 0 4424.15743743 0 -10.66493250 0 1623.78345726 0 18007
0.12850000 0.12850300 12862.49510985 0 -41.98116903 0 4738.39310527 0 5.75686071 0 1042.77426280 0 17496
0.12950000 0.12949900 12498.46637450 0 110.60256286 0 4481.24426114 0 320.24422904 0 1593.61982096 0 18405
0.13050000 0.13049000 12609.84994048 0 -26.12087422 0 4133.42875492 0 223.89414910 0 1064.09751510 0 18100
0.13150000 0.13148800 12369.17795522 0 -10.70180771 0 3486.20675386 0 608.74304331 0 1241.14685597 0 19059
0.13250000 0.13249300 12480.78121265 0 162.55080352 0 3819.70936200 0 159.87935546 0 1323.92659494 0 18957
0.13350000 0.13349100 12250.87410852 0 112.28210401 0 3100.78007112 0 -160.89432997 0 1193.71547156 0 19468
0.13450000 0.13450700 12276.02877973 0 287.33444958 0 3923.39274260 0 -193.76346651 0 847.81787172 0 19953
0.13550000 0.13551000 11840.16093970 0 175.78062273 0 3540.06411322 0 -333.54874335 0 666.41424628 0 19956
0.13650000 0.13649900 11810.39274801 0 144.28345931 0 3954.84157390 0 -258.95360940 0 45.01994119 0 19723
0.13750000 0.13749600 11378.36950838 0 89.16023780 0 4180.88210848 0 178.77721413 0 384.75003306 0 20946
0.13850000 0.13851100 11238.53589942 0 52.94926475 0 3690.37700443 0 258.05067754 0 315.86797532 0 20955
0.13950000 0.13949800 11397.59251040 0 142.12938463 0 3806.46196747 0 513.35411347 0 373.83026946 0 20506
0.14050000 0.14048300 11502.60502428 0 -103.63274172 0 3566.98730062 0 425.79388851 0 576.03318308 0 21447
0.14150000 0.14148400 11175.15491563 0 40.77769926 0 3167.92876331 0 86.78295660 0 872.03885426 0 21771
0.14250000 0.14249400 11078.71036837 0 204.56679364 0 3378.77763401 0 -143.89790082 0 624.26753974 0 22470
0.14350000 0.14350900 11083.32388885 0 242.95567790 0 3554.70654848 0 -120.50076122 0 1011.97681666 0 22519
0.14450000 0.14449900 10735.38755234 0 -17.29290277 0 3494.51109073 0 28.00384965 0 879.61271705 0 22218
0.14550000 0.14550500 10953.12375004 0 -12.33929992 0 3931.60920289 0 -122.37033547 0 314.38725494 0 23559
0.14650000 0.14650700 10617.00681363 0 352.83875126 0 3498.45455229 0 -147.78314414 0 619.74299430 0 23044
0.14750000 0.14750500 10631.42955743 0 114.78658656 0 4184.44110999 0 47.07746148 0 627.51567785 0 23649
0.14850000 0.14849900 10324.68536809 0 -41.62889379 0 3576.46698676 0 419.04606558 0 1251.50530791 0 23640
0.14950000 0.14949500 10477.01942065 0 125.30101944 0 4148.90601769 0 247.35719613 0 361.02445474 0 24457
0.15050000 0.15050000 10062.50558972 0 365.96202012 0 3909.70596516 0 -498.02514244 0 1191.44166504 0 24591
0.15150000 0.15149900 9922.16669042 0 165.65833910 0 4245.66911756 0 -233.96150987 0 608.21468537 0 25020
0.15250000 0.15250500 9785.97995956 0 -32.09296664 0 4244.16423112 0 70.58433696 0 674.96793295 0 25297
0.15350000 0.15350100 9535.58662757 0 107.25830974 0 4018.51914115 0 264.89077088 0 253.05599239 0 25452
0.15450000 0.15450400 9624.85824893 0 -127.48145709 0 3552.83917114 0 384.83241736 0 368.44782890 0 26061
0.15550000 0.15549900 9624.06735971 0 138.69121341 0 3429.80097365 0 419.77104737 0 162.87265149 0 26128
0.15650000 0.15649500 9634.34891964 0 172.53248462 0 3272.11743425 0 -38.96052141 0 108.26559505 0 26331
0.15750000 0.15749700 9301.69212359 0 137.87725658 0 3323.65704880 0 -287.28282209 0 -39.68945765 0 27345
0.15850000 0.15849900 9078.44167045 0 138.30126109 0 3178.18835411 0 -5.73613282 0 249.16635523 0 26980
0.15950000 0.15949700 9057.64787455 0 25.21201068 0 3151.68258047 0 179.50109747 0 -130.56262970 0 27777
0.16050000 0.16050000 9054.07788846 0 -12.00229323 0 3041.41944089 0 50.04878836 0 -367.78545917 0 28224
0.16150000 0.16150500 8831.77210856 0 274.06618436 0 3086.12665130 0 143.84517487 0 -6.38641951 0 28075
0.16250000 0.16249700 8533.92542302 0 13.72818927 0 3172.89379012 0 216.51581169 0 383.26272194 0 28590
0.16350000 0.16349900 8634.93955248 0 23.00279344 0 2680.12586412 0 325.24660339 0 135.88795049 0 29163
0.16450000 0.16449100 8775.09171404 0 -30.17923440 0 2590.68947416 0 346.10630672 0 220.44279639 0 28996
0.16550000 0.16550500 8530.44331351 0 74.50484076 0 2268.97331240 0 29.28443112 0 107.84818129 0 30777
0.16650000 0.16650700 8520.24963015 0 150.54466568 0 2377.95125698 0 -140.75960843 0 431.27958406 0 29211
0.16750000 0.16749900 8406.32862791 0 159.08297395 0 2433.24759536 0 -69.45006999 0 -37.49660743 0 30922
0.16850000 0.16850800 8233.53031664 0 58.54469618 0 2684.37689371 0 -110.74865768 0 -178.04344468 0 30867
0.16950000 0.16949900 8069.79427774 0 20.79862911 0 2138.03720723 0 128.88748238 0 -150.85003680 0 30852
0.17050000 0.17049200 8092.55431213 0 -1.99411734 0 2625.67533784 0 30.53458532 0 -258.65263212 0 31257
0.17150000 0.17149500 7996.29650260 0 156.14899462 0 2279.29881063 0 63.09813105 0 -264.51839387 0 32608
0.17250000 0.17250900 7994.56094013 0 79.96615055 0 2364.48417100 0 27.78723388 0 -293.57368681 0 32361
0.17350000 0.17350400 8082.21782933 0 -88.34880743 0 2221.11352967 0 266.51758608 0 -54.90539744 0 32508
0.17450000 0.17449800 8114.11702810 0 -121.77716855 0 2062.99060736 0 283.20644721 0 143.76938132 0 32791
0.17550000 0.17549800 8125.61787560 0 -2.30189408 0 1895.21224575 0 67.11288248 0 299.78656106 0 33633
0.17650000 0.17650100 8233.46440920 0 18.91675213 0 1770.44947037 0 143.67381553 0 -443.48454266 0 33984
0.17750000 0.17750300 8137.77779744 0 251.38194352 0 1866.49857302 0 -224.30826748 0 276.62998360 0 34069
0.17850000 0.17849800 7951.99572138 0 153.13592636 0 2199.28718395 0 -210.46990294 0 190.18798813 0 34536
