### header ###
fiducial parameters:
Omega_m = 0.31
Omega_nu = 0
Omega_de = 0.69
Omega_k = 0
H_0 = 100
w_de = -1
zeff = 0
beta = 0
fgrowth = 0
b_1 = 2
gamma = 0.55
Lx = 3500 Ly = 3500 Lz = 3500
nx = 700 ny = 700 nz = 700
xoffset = -983.599254 yoffset = -42.9823471 zoffset = 800.977702
bins = 400 dk = 0.001
kx_ny = 0.628318531 ky_ny = 0.628318531 kz_ny = 0.628318531
############################
A(data) = 9.00788106 (not used)
A(ran) = 9.00984826 (used)
Ngal = 500542
weighted Ngal = 0
Nran = 25229228
weighted Nran = 0
SN(data) = 6753.24816
SN(ran) = 133.74499
SN(data+ran) = 6886.99315
############################
13 columns: k_central k_mean P_0(k) sigma^{lin}_{P_0(k)} P^img_1(k) sigma^{lin}_{P_1(k)} P_2(k) sigma^{lin}_{P_2(k)} P^img_3(k) sigma^{lin}_{P_3(k)} P_4(k) sigma^{lin}_{P_4(k)} N_modes
### header ###
0.00050000 0 0 0 0 0 0 0 0 0 0 0 0
0.00150000 0.00179520 94388.67465987 0 32609.79077651 0 15623.68711962 0 92365.86561901 0 -128662.29864527 0 3
0.00250000 0.00253879 90337.12490897 0 83472.09658280 0 48190.52821734 0 6273.83862983 0 146846.16009643 0 6
0.00350000 0.00331552 61222.73497357 0 16760.81007324 0 40935.54756454 0 -36082.45355237 0 4966.82827667 0 7
0.00450000 0.00420575 65205.85083729 0 -42570.38150182 0 4339.48835198 0 34338.21327218 0 -59676.98591992 0 24
0.00550000 0.00557378 66439.41833817 0 10540.22465128 0 6382.37719151 0 -40079.30013182 0 -1584.98594691 0 45
0.00650000 0.00659388 66106.47594323 0 11245.01679725 0 -8128.66060220 0 5201.72237675 0 59606.68465540 0 40
0.00750000 0.00754703 84968.30521411 0 -15152.33911016 0 36871.80493807 0 4324.91182416 0 -39820.61344753 0 57
0.00850000 0.00846663 72301.77487911 0 6000.92692405 0 29394.71622767 0 -25061.52203579 0 -46932.13558242 0 75
0.00950000 0.00948925 82683.18458001 0 17185.58349496 0 41669.53670442 0 -9989.22750603 0 26664.39086686 0 112
0.01050000 0.01054430 64197.46707432 0 -5646.25704454 0 54739.09100743 0 9095.80827970 0 -17069.25687133 0 105
0.01150000 0.01145670 65827.24810822 0 -5192.89078039 0 49755.50027300 0 17396.15775135 0 -4273.35024047 0 144
0.01250000 0.01249090 71829.10872094 0 8952.85505213 0 51089.35692155 0 17267.96778932 0 -2342.64684071 0 169
0.01350000 0.01339930 74134.99019721 0 -3499.06968835 0 47049.34097186 0 2683.61895820 0 27822.82389128 0 180
0.01450000 0.01448870 70762.61656901 0 -2366.10988774 0 40898.96893784 0 22094.25944439 0 -2976.40175579 0 267
0.01550000 0.01550050 81681.83094350 0 1653.74937127 0 38108.00873637 0 -923.52134903 0 25786.72351761 0 238
0.01650000 0.01653350 78825.84207235 0 -2557.10963578 0 35678.77051001 0 2602.36607482 0 -5149.71042558 0 315
0.01750000 0.01747870 81559.13326776 0 5080.60647947 0 39408.14274710 0 -672.78529838 0 24444.51859389 0 297
0.01850000 0.01844180 74195.51519213 0 3457.62489600 0 29724.14355939 0 -5309.59087950 0 -1390.46015106 0 388
0.01950000 0.01947590 76964.83578562 0 361.62091704 0 45354.42142256 0 13030.77876180 0 -6072.73307501 0 399
0.02050000 0.02045430 79719.21736039 0 -2065.08866072 0 35580.56843113 0 8564.19890505 0 -5811.82750706 0 462
0.02150000 0.02154770 74384.33999481 0 2067.68101985 0 31164.98994488 0 -3284.50803212 0 -12818.33712807 0 571
0.02250000 0.02255340 70095.08409324 0 3516.09577585 0 37639.40687005 0 1435.03554660 0 3295.30586697 0 510
0.02350000 0.02348930 74992.33608719 0 1563.96147499 0 37173.33145543 0 6196.46330057 0 -3234.83579491 0 555
0.02450000 0.02439640 68109.95213634 0 -1746.04175009 0 32772.91167934 0 5262.96136889 0 3152.57233085 0 592
0.02550000 0.02547300 68592.83394702 0 2780.60174952 0 29787.63438891 0 3522.47781252 0 1707.16734773 0 837
0.02650000 0.02652900 61217.57222445 0 7184.80021858 0 31702.13554411 0 -5050.21216714 0 5236.85103987 0 723
0.02750000 0.02749970 61369.81840043 0 -661.21964191 0 34056.56883120 0 8613.87114227 0 4923.16460066 0 826
0.02850000 0.02848090 64146.38881182 0 -1960.30682287 0 29509.17547397 0 6155.35902997 0 -5914.09387780 0 831
0.02950000 0.02946900 61260.96128615 0 4392.87337472 0 30261.61869579 0 -6094.49351330 0 476.21417512 0 996
0.03050000 0.03053250 54137.24627570 0 2848.04702517 0 32276.18930721 0 -6598.85016337 0 -4041.98218818 0 1041
0.03150000 0.03150510 53316.14947524 0 2109.48830309 0 37276.80612914 0 2409.16941226 0 2430.72114366 0 1036
0.03250000 0.03246190 53391.28395170 0 1101.04961726 0 33409.02827753 0 6852.85741974 0 -3568.71187852 0 1059
0.03350000 0.03345080 53483.22482421 0 -2201.74772820 0 27387.83481706 0 7246.48957819 0 -4315.67379862 0 1302
0.03450000 0.03451200 52363.23780381 0 375.87669533 0 25220.90818394 0 8442.21522654 0 -6367.70180254 0 1339
0.03550000 0.03553350 50866.15040670 0 2103.83124821 0 23581.68041763 0 -4285.68591547 0 -193.29552371 0 1365
0.03650000 0.03647120 49942.78723551 0 3673.07630261 0 26970.20136752 0 -5511.53126183 0 -5339.52383978 0 1308
0.03750000 0.03744890 45359.36448022 0 1717.45989224 0 28236.39304897 0 -276.05219508 0 -1201.50353352 0 1579
0.03850000 0.03847530 45270.38944231 0 347.44312921 0 27827.76694895 0 5816.72662643 0 -4250.02999287 0 1662
0.03950000 0.03950240 43739.14002447 0 -1592.97173117 0 22849.55865508 0 4227.91804827 0 -2314.82291836 0 1683
0.04050000 0.04050350 44838.91543132 0 -353.67687415 0 22499.48032691 0 5065.21709328 0 -2478.05366692 0 1822
0.04150000 0.04152450 44131.39911135 0 3792.75322089 0 19276.93626873 0 -1521.01179619 0 -2936.11034356 0 1887
0.04250000 0.04250150 42862.68097821 0 708.43572869 0 20422.95672614 0 -633.22985251 0 6019.34805227 0 1920
0.04350000 0.04349210 39891.68363213 0 1087.74180758 0 19650.63142794 0 3745.89303425 0 1001.66120455 0 2005
0.04450000 0.04448520 40169.81300989 0 -824.78761684 0 21157.16555747 0 2441.17845676 0 4052.12094868 0 2151
0.04550000 0.04548030 38919.87849586 0 -490.48093799 0 16388.98229136 0 3566.48201028 0 3283.72812747 0 2274
0.04650000 0.04648670 38732.04230472 0 885.92555092 0 16013.30990908 0 517.10314810 0 2370.08630301 0 2311
0.04750000 0.04749250 37868.32536265 0 2164.20245912 0 16136.66665917 0 -1283.28367639 0 2614.35024350 0 2568
0.04850000 0.04851840 38393.82731494 0 171.02649972 0 16456.75710419 0 42.46361146 0 -663.93942208 0 2493
0.04950000 0.04949480 35817.61550744 0 359.49210687 0 20159.54667564 0 -597.89687635 0 538.10565087 0 2644
0.05050000 0.05050630 34465.96385130 0 952.01642877 0 13516.84609852 0 -434.88362232 0 -3701.11991641 0 2829
0.05150000 0.05149060 34810.22035600 0 -271.46393912 0 15956.62951456 0 2003.71785371 0 -1605.72481994 0 2784
0.05250000 0.05249300 34876.23763722 0 281.87731392 0 14515.12405471 0 516.68024205 0 -3012.50804586 0 3055
0.05350000 0.05348950 35108.12196441 0 -231.14506546 0 14416.26290148 0 4417.84130820 0 -2177.19720849 0 3009
0.05450000 0.05448610 34866.68105907 0 -84.25035355 0 12125.54013537 0 302.37562482 0 -3221.87399926 0 3336
0.05550000 0.05550870 34212.54976185 0 693.36928894 0 10892.12641850 0 -889.39667585 0 -2654.18030368 0 3349
0.05650000 0.05647670 34628.09614260 0 648.17656042 0 13856.48908274 0 -1802.08503940 0 -3327.08423545 0 3324
0.05750000 0.05747970 32427.55671738 0 459.53080628 0 13522.99745917 0 282.99554341 0 -3954.32529899 0 3639
0.05850000 0.05849280 33497.45408681 0 524.44963024 0 12949.05354179 0 861.45412012 0 -2349.52318314 0 3846
0.05950000 0.05951020 32579.25366473 0 -559.52337049 0 12346.65958143 0 1767.99991068 0 -1780.77496860 0 3787
0.06050000 0.06049470 33525.68443834 0 -123.97408307 0 10741.70368157 0 1065.03340068 0 -3416.72933228 0 3930
0.06150000 0.06148310 32708.65192974 0 939.31716440 0 10905.31889017 0 1463.44165129 0 -1841.17913322 0 4083
0.06250000 0.06249100 32898.57518967 0 511.38128424 0 11317.07559338 0 -1294.18037239 0 -141.24732345 0 4303
0.06350000 0.06350600 30580.17130065 0 613.46970489 0 12273.06294513 0 217.60877667 0 -715.69103888 0 4470
0.06450000 0.06451750 30337.30240088 0 897.12322421 0 12240.21907312 0 -200.21580444 0 -1845.67182341 0 4479
0.06550000 0.06550280 29611.00246180 0 586.34110599 0 13084.16378454 0 -270.56320417 0 -11.42362595 0 4636
0.06650000 0.06648880 28492.99266447 0 322.98048607 0 13332.52497061 0 768.98269276 0 -1331.07755169 0 4653
0.06750000 0.06749660 28492.11389867 0 168.60000764 0 13416.44710513 0 -849.55343418 0 -1094.45228297 0 5220
0.06850000 0.06852730 28547.14660730 0 588.27878459 0 13184.78246939 0 428.51257023 0 -3545.22686234 0 5029
0.06950000 0.06949320 28190.80707276 0 360.44446931 0 13313.74135149 0 -1068.30131103 0 -3355.09489553 0 5040
0.07050000 0.07048030 27382.45237650 0 557.22979174 0 13168.74499342 0 -289.17985778 0 -4553.46782586 0 5475
0.07150000 0.07148790 27201.31677463 0 187.16063993 0 14043.11697089 0 623.05813830 0 -2854.19838582 0 5509
0.07250000 0.07249820 27042.15031793 0 1.49582417 0 13647.89204942 0 1474.27243986 0 -2845.07020600 0 5916
0.07350000 0.07351270 27062.47177720 0 -479.80832727 0 11905.29945511 0 1883.59056796 0 -3732.04148823 0 5721
0.07450000 0.07449140 26696.79535597 0 -21.06533453 0 10337.53731801 0 2019.54662280 0 -619.20255332 0 6028
0.07550000 0.07549160 27523.16475127 0 264.32286848 0 9771.73296892 0 858.11041623 0 -315.60324712 0 6183
0.07650000 0.07648840 27032.70358551 0 -331.64072309 0 9177.05017851 0 823.82646674 0 47.98313949 0 6330
0.07750000 0.07749960 27103.88361584 0 47.15380426 0 8305.00693042 0 -33.39233173 0 -1679.36539453 0 6583
0.07850000 0.07848650 25908.54242753 0 946.02983671 0 8579.51139923 0 561.34790800 0 -402.77351975 0 6549
0.07950000 0.07947320 26469.41470354 0 407.92308738 0 9470.84355677 0 -986.54423576 0 -1338.21752387 0 6828
0.08050000 0.08048110 25087.88500998 0 559.57939181 0 8709.21723227 0 -38.84639171 0 -1556.78854909 0 7147
0.08150000 0.08149960 24695.18654020 0 230.63977512 0 9088.61338466 0 -180.13380885 0 -2673.77678117 0 7386
0.08250000 0.08250610 23771.38398611 0 153.02498217 0 7981.77489764 0 894.52976662 0 -609.16485090 0 7227
0.08350000 0.08350160 24258.87931727 0 318.64817064 0 8132.60406376 0 894.63631697 0 -2479.17409332 0 7798
0.08450000 0.08449610 23493.25460835 0 271.63859382 0 7954.24755876 0 1567.23487762 0 -1339.72241031 0 7371
0.08550000 0.08548940 23173.60354623 0 187.40010361 0 5408.70467790 0 182.31754188 0 -1446.64623982 0 8256
0.08650000 0.08650700 22697.75186201 0 647.90633994 0 7448.91328172 0 -880.28826827 0 -1443.76828180 0 8037
0.08750000 0.08749060 21329.40365555 0 962.83183893 0 6684.47490664 0 -806.77072089 0 -1574.13318920 0 8155
0.08850000 0.08849210 20661.54164260 0 393.86722831 0 7588.83476726 0 522.24063269 0 -6.01210922 0 8718
0.08950000 0.08949900 20382.53349904 0 -286.79730398 0 7027.84166096 0 1830.28243722 0 -739.54293978 0 8571
0.09050000 0.09049190 20796.21250245 0 196.80729157 0 7562.71345367 0 645.11735696 0 356.36919288 0 8932
0.09150000 0.09150830 20338.70505444 0 692.19943196 0 6029.67355050 0 -105.88106403 0 231.42297514 0 9285
0.09250000 0.09250820 19609.76881794 0 39.66902635 0 6852.35212940 0 -611.32771324 0 1642.10572433 0 9204
0.09350000 0.09350330 18720.23813030 0 813.12639459 0 7680.19345742 0 23.20447020 0 1534.07245299 0 9349
0.09450000 0.09448040 18671.13709086 0 357.59507118 0 7628.22544454 0 1348.79566726 0 2359.54111334 0 9564
0.09550000 0.09549270 18225.38313551 0 -261.47127344 0 6777.59112841 0 1061.61280478 0 2484.74327162 0 10155
0.09650000 0.09649430 18193.63772075 0 -35.03826008 0 6475.50439786 0 1087.32439382 0 3472.87148274 0 9913
0.09750000 0.09749140 18685.96626385 0 31.51715534 0 5763.35258826 0 253.58764570 0 2973.75447379 0 10476
0.09850000 0.09850240 17898.48225549 0 502.62108760 0 5202.90871059 0 -968.90191374 0 2964.47250996 0 10575
0.09950000 0.09950330 17297.84582674 0 692.39385889 0 6572.42128174 0 -655.54281480 0 1851.66940004 0 10882
0.10050000 0.10051200 16884.38651478 0 200.25864427 0 6240.65423607 0 -343.32061912 0 1505.15007339 0 10875
0.10150000 0.10150300 16817.60031349 0 13.35614180 0 7247.39031315 0 302.67110982 0 885.68828415 0 11118
0.10250000 0.10250800 16398.42902378 0 162.33001361 0 6307.90178941 0 578.38168470 0 931.69277258 0 11575
0.10350000 0.10349800 16606.03744557 0 72.29068046 0 5666.47964267 0 415.29044021 0 1388.65868116 0 11364
0.10450000 0.10450100 16087.34592828 0 93.06679120 0 5799.08540287 0 587.33630827 0 1467.36314371 0 12093
0.10550000 0.10551000 16068.67215489 0 276.01814291 0 5741.97661002 0 -51.01147630 0 1740.72521697 0 12067
0.10650000 0.10649700 15542.84066542 0 553.21712737 0 6396.16283010 0 -230.86166348 0 1475.55763485 0 12054
0.10750000 0.10749900 15197.70539492 0 161.78847418 0 5930.02150804 0 235.57953741 0 2550.83744484 0 12807
0.10850000 0.10850100 15075.99633072 0 -236.56265665 0 5902.46121543 0 843.61627270 0 1581.14134650 0 12736
0.10950000 0.10950300 14980.10101208 0 36.50744667 0 5389.89908964 0 511.99312493 0 2071.29494423 0 12933
0.11050000 0.11050200 15037.11094378 0 256.44143766 0 5513.15697858 0 -608.50687500 0 1658.82424380 0 13428
0.11150000 0.11150900 14847.18768385 0 217.55934609 0 5460.15641587 0 91.02047517 0 2138.05917638 0 13453
0.11250000 0.11250000 14944.18145974 0 44.36416220 0 5475.08445001 0 535.98452991 0 1327.55150389 0 13668
0.11350000 0.11349100 14811.59766868 0 -110.79039906 0 5005.41708015 0 -2.43948683 0 1068.64293123 0 13791
0.11450000 0.11448600 14949.89343748 0 179.10565285 0 5202.82083401 0 243.94538789 0 1424.09491231 0 14205
0.11550000 0.11549300 13848.36049903 0 156.23028045 0 5071.71996025 0 -448.60445194 0 1778.50116207 0 14776
0.11650000 0.11649800 13989.40241097 0 336.91771176 0 5575.04406050 0 466.99592181 0 1066.15053172 0 14553
0.11750000 0.11747300 13928.32818742 0 283.03289096 0 5443.99810960 0 245.29978569 0 1684.87964996 0 14568
0.11850000 0.11849100 13883.62097701 0 -124.06525502 0 5087.43888361 0 678.46102703 0 2388.62826153 0 16015
0.11950000 0.11950300 14023.67427742 0 -340.48659939 0 4414.37018326 0 383.60544060 0 1805.69896378 0 15270
0.12050000 0.12050700 13918.22238064 0 150.80829543 0 4981.41578906 0 -30.95858983 0 1809.17008872 0 15999
0.12150000 0.12150000 13973.36493500 0 298.94404434 0 4032.05213457 0 -295.35538448 0 1978.34349105 0 15670
0.12250000 0.12250700 13952.16470992 0 54.84630044 0 4243.79075565 0 467.42981243 0 1555.14086320 0 16887
0.12350000 0.12352200 13888.67388040 0 -50.71621099 0 4002.41575775 0 -37.75232828 0 908.10559987 0 16407
0.12450000 0.12449800 13454.78326344 0 270.72138201 0 4082.61412216 0 259.05686439 0 1022.96797998 0 16306
0.12550000 0.12549900 13060.76664494 0 390.67181614 0 4165.43779943 0 -492.87887018 0 872.50899397 0 17523
0.12650000 0.12650100 12872.71076235 0 134.89494513 0 4048.58391631 0 67.34619480 0 551.73750544 0 17154
0.12750000 0.12750600 12655.10637951 0 229.81043989 0 4075.01279794 0 13.98401997 0 463.53138762 0 18007
0.12850000 0.12850300 12353.57986216 0 126.51920853 0 4146.07199797 0 -126.08202255 0 -255.19468867 0 17496
0.12950000 0.12949900 12289.10042110 0 48.12978353 0 4076.35291579 0 214.52540714 0 -233.66602486 0 18405
0.13050000 0.13049000 12118.29031746 0 78.17269939 0 3871.63343659 0 275.66773504 0 372.81749187 0 18100
0.13150000 0.13148800 12272.84325368 0 -102.01768001 0 3745.29986733 0 204.04392798 0 -12.08335938 0 19059
0.13250000 0.13249300 12266.91158449 0 129.07092475 0 3666.77115795 0 151.28941971 0 118.01275553 0 18957
0.13350000 0.13349100 12049.52689310 0 23.38560580 0 3588.36327887 0 -33.99461584 0 354.61166127 0 19468
0.13450000 0.13450700 12268.77896183 0 -26.80345556 0 3603.68675762 0 341.42248497 0 124.66171731 0 19953
0.13550000 0.13551000 12075.12094722 0 138.38694075 0 3546.72076421 0 -257.54648566 0 107.10254850 0 19956
0.13650000 0.13649900 11972.08565641 0 127.69675472 0 3449.27662084 0 84.48685140 0 7.35646712 0 19723
0.13750000 0.13749600 11869.59959422 0 13.38590999 0 3300.10612519 0 394.11657810 0 372.84275638 0 20946
0.13850000 0.13851100 11945.94237366 0 188.99835892 0 3153.37420464 0 466.24677396 0 -71.91995114 0 20955
0.13950000 0.13949800 11406.38016847 0 220.67676779 0 3270.77731639 0 -415.51782086 0 653.16575329 0 20506
0.14050000 0.14048300 11214.47968547 0 235.58502969 0 3279.65285104 0 -82.46645896 0 87.45158754 0 21447
0.14150000 0.14148400 11028.40102594 0 112.84121876 0 3231.63928429 0 281.33138067 0 265.18076360 0 21771
0.14250000 0.14249400 10951.68477103 0 -5.22443847 0 2904.27705222 0 326.08582474 0 82.12901289 0 22470
0.14350000 0.14350900 10742.11011076 0 135.55731485 0 3050.28399097 0 30.60367829 0 81.83605434 0 22519
0.14450000 0.14449900 10662.74657386 0 177.88087301 0 2336.38563433 0 172.78842516 0 140.91229399 0 22218
0.14550000 0.14550500 10578.19831870 0 24.79877106 0 2986.36476312 0 82.41010811 0 226.16136488 0 23559
0.14650000 0.14650700 10429.46720595 0 128.88967930 0 2436.23539910 0 104.19075800 0 255.02882162 0 23044
0.14750000 0.14750500 10341.97508533 0 -39.28797152 0 2459.50072383 0 -218.66878792 0 22.55022905 0 23649
0.14850000 0.14849900 9986.39348630 0 205.79377040 0 2381.20269047 0 193.19007182 0 159.87056781 0 23640
0.14950000 0.14949500 10244.82752543 0 9.94443242 0 2640.88897086 0 329.65361391 0 -65.31426857 0 24457
0.15050000 0.15050000 10325.91564022 0 124.24650047 0 2308.90223374 0 -178.49381216 0 194.71253358 0 24591
0.15150000 0.15149900 9969.25755308 0 101.11749429 0 2542.84067600 0 -128.84683946 0 -369.05747267 0 25020
0.15250000 0.15250500 9868.49606879 0 162.30035526 0 2666.39514840 0 -13.45796879 0 314.06760387 0 25297
0.15350000 0.15350100 9672.08092646 0 142.06677257 0 2803.53753707 0 -73.85905773 0 335.36559165 0 25452
0.15450000 0.15450400 9450.77474267 0 15.90181650 0 2855.31881222 0 146.07284619 0 520.96202844 0 26061
0.15550000 0.15549900 9505.60972899 0 112.73466840 0 2901.86044625 0 294.31514546 0 202.42480199 0 26128
0.15650000 0.15649500 9499.50230664 0 185.59204296 0 2837.38100520 0 54.26433778 0 681.24671464 0 26331
0.15750000 0.15749700 9179.13724730 0 108.69465245 0 2949.53349125 0 -132.52337591 0 930.30871643 0 27345
0.15850000 0.15849900 9158.54117371 0 172.69066247 0 2941.51475327 0 47.09580571 0 1012.75562285 0 26980
0.15950000 0.15949700 9035.54691452 0 0.40434212 0 2817.67468199 0 348.93812953 0 782.76723289 0 27777
0.16050000 0.16050000 9029.67016819 0 -56.84241697 0 2899.89420776 0 56.58735519 0 708.21713570 0 28224
0.16150000 0.16150500 8922.07627975 0 136.93478026 0 2615.22900931 0 -313.42940021 0 296.44066025 0 28075
0.16250000 0.16249700 8759.48263640 0 151.94410023 0 2715.33141925 0 -22.86966042 0 494.55401750 0 28590
0.16350000 0.16349900 8978.35024509 0 -27.63850276 0 2675.47938992 0 169.32389097 0 -146.71434523 0 29163
0.16450000 0.16449100 8613.95901885 0 -39.21162874 0 2189.48894520 0 267.02727025 0 404.04223789 0 28996
0.16550000 0.16550500 8859.94753723 0 -114.01437111 0 1966.32636864 0 582.67335721 0 9.75052176 0 30777
0.16650000 0.16650700 8863.08912499 0 105.95125545 0 1529.90929998 0 269.30986443 0 523.45442796 0 29211
0.16750000 0.16749900 8641.98066350 0 151.45528675 0 1600.18859536 0 -208.72555282 0 181.22237999 0 30922
0.16850000 0.16850800 8422.89336337 0 263.32437083 0 1670.97318107 0 -345.25280543 0 195.22551312 0 30867
0.16950000 0.16949900 8155.85840391 0 231.98208989 0 1936.48128494 0 -51.30146902 0 -174.61735650 0 30852
0.17050000 0.17049200 7994.38518697 0 114.98650578 0 2079.37958965 0 -50.26584352 0 349.52141034 0 31257
0.17150000 0.17149500 7915.12051122 0 17.21666984 0 1777.77618028 0 25.33141298 0 102.37808384 0 32608
0.17250000 0.17250900 7853.12358357 0 24.80986548 0 2148.72519635 0 -18.74747987 0 -323.54838847 0 32361
0.17350000 0.17350400 7815.86391338 0 94.30310484 0 1950.90402874 0 91.52356859 0 -154.90883637 0 32508
0.17450000 0.17449800 7869.40272014 0 57.49841564 0 1921.97066456 0 -58.68936300 0 -281.43463565 0 32791
0.17550000 0.17549800 7697.59302039 0 -64.18307728 0 1714.48307307 0 274.42867526 0 390.48727532 0 33633
0.17650000 0.17650100 7826.23334989 0 4.56488080 0 1966.95248928 0 110.98921982 0 -406.58956027 0 33984
0.17750000 0.17750300 7666.82523259 0 231.95682537 0 1865.76260666 0 -261.14063781 0 103.91240893 0 34069
0.17850000 0.17849800 7622.82103483 0 146.01682487 0 2082.72988429 0 87.31724621 0 438.92814195 0 34536
