### header ###
fiducial parameters:
Omega_m = 0.31
Omega_nu = 0
Omega_de = 0.69
Omega_k = 0
H_0 = 100
w_de = -1
zeff = 0
beta = 0
fgrowth = 0
b_1 = 2
gamma = 0.55
Lx = 3500 Ly = 3500 Lz = 3500
nx = 700 ny = 700 nz = 700
xoffset = -983.599254 yoffset = -42.9823471 zoffset = 800.977702
bins = 400 dk = 0.001
kx_ny = 0.628318531 ky_ny = 0.628318531 kz_ny = 0.628318531
############################
A(data) = 9.02284244 (not used)
A(ran) = 9.02579333 (used)
Ngal = 501520
weighted Ngal = 0
Nran = 25229228
weighted Nran = 0
SN(data) = 6761.54239
SN(ran) = 133.981684
SN(data+ran) = 6895.52407
############################
13 columns: k_central k_mean P_0(k) sigma^{lin}_{P_0(k)} P^img_1(k) sigma^{lin}_{P_1(k)} P_2(k) sigma^{lin}_{P_2(k)} P^img_3(k) sigma^{lin}_{P_3(k)} P_4(k) sigma^{lin}_{P_4(k)} N_modes
### header ###
0.00050000 0 0 0 0 0 0 0 0 0 0 0 0
0.00150000 0.00179520 2830.97699938 0 -5683.37391530 0 11902.00408334 0 -23078.25745622 0 -20335.95891129 0 3
0.00250000 0.00253879 9803.08293907 0 -16643.27514662 0 -23983.49608265 0 24820.95989625 0 43393.56537106 0 6
0.00350000 0.00331552 14583.22840472 0 -15199.79246371 0 -11721.52755583 0 -19502.44954382 0 -31846.91221073 0 7
0.00450000 0.00420575 46173.54099995 0 -13548.70135901 0 -13131.06790946 0 -41099.98661608 0 -35946.02516091 0 24
0.00550000 0.00557378 57687.78967117 0 5272.90240708 0 10694.39312746 0 -34539.78017905 0 -2874.84938227 0 45
0.00650000 0.00659388 60470.95082610 0 -4101.46364871 0 6576.22194385 0 -2317.62398437 0 35258.17122587 0 40
0.00750000 0.00754703 55913.56150783 0 -10788.21236188 0 5708.82516997 0 22374.58573666 0 16082.51271634 0 57
0.00850000 0.00846663 60800.81754072 0 -19194.66182009 0 547.17012017 0 8681.12968018 0 -20397.91190065 0 75
0.00950000 0.00948925 93537.80966772 0 5568.71694669 0 -9225.67888133 0 -246.91781323 0 -48750.08234463 0 112
0.01050000 0.01054430 89669.37274175 0 6262.55747379 0 18510.32294827 0 -43183.65018903 0 -14554.66851601 0 105
0.01150000 0.01145670 85726.24072222 0 10446.22966370 0 26843.43939993 0 -39822.81036205 0 -28206.95439445 0 144
0.01250000 0.01249090 78486.41877958 0 1047.07911680 0 53222.78060830 0 -16873.73147938 0 -38402.83466446 0 169
0.01350000 0.01339930 70796.11951539 0 6256.68072746 0 49343.68864693 0 5976.53018835 0 -43486.71454655 0 180
0.01450000 0.01448870 75460.05918770 0 -3796.72963616 0 59976.42536849 0 20798.29957124 0 -25292.74728862 0 267
0.01550000 0.01550050 80604.24437327 0 -5584.47980835 0 31306.91062263 0 18791.41816063 0 -18738.14298361 0 238
0.01650000 0.01653350 94097.03425783 0 -4339.24669138 0 36941.33728251 0 12996.72658679 0 -9896.01242310 0 315
0.01750000 0.01747870 87852.19489962 0 963.49420866 0 30251.18335184 0 -1864.76301055 0 -7759.78767035 0 297
0.01850000 0.01844180 82651.43916525 0 12774.94806638 0 30124.42138425 0 -17302.56919295 0 -23203.04220075 0 388
0.01950000 0.01947590 77517.03024928 0 6812.90652926 0 55061.48821269 0 -8161.42758221 0 3450.99021416 0 399
0.02050000 0.02045430 69547.83268724 0 23.33738352 0 43584.80677971 0 22793.86687209 0 -6728.38024325 0 462
0.02150000 0.02154770 70302.47282358 0 -2818.05914203 0 43967.17975126 0 5225.08656263 0 -8260.05805942 0 571
0.02250000 0.02255340 67944.74416472 0 4944.30990288 0 29707.55685479 0 13238.82656649 0 -3636.44275305 0 510
0.02350000 0.02348930 65896.23122403 0 3214.29464418 0 41651.19246821 0 -1877.69185248 0 3770.36666197 0 555
0.02450000 0.02439640 61301.27466752 0 998.02421257 0 23581.46072618 0 4528.44496952 0 6896.24648144 0 592
0.02550000 0.02547300 63985.68451495 0 -85.35144711 0 32328.47587270 0 4795.67765128 0 696.82833084 0 837
0.02650000 0.02652900 57077.81635572 0 590.50425900 0 22379.30910287 0 2247.90490219 0 -1772.83312262 0 723
0.02750000 0.02749970 60179.74980697 0 3530.70525739 0 26177.66445578 0 3911.71614194 0 -4133.25300176 0 826
0.02850000 0.02848090 56058.88740308 0 2449.72445423 0 24901.03743037 0 -4302.93169443 0 7292.35016872 0 831
0.02950000 0.02946900 55162.87581762 0 860.15354673 0 33552.04741254 0 86.98067891 0 652.50667893 0 996
0.03050000 0.03053250 54756.99586074 0 -2425.05310421 0 25829.12396777 0 4421.83969262 0 1245.38690098 0 1041
0.03150000 0.03150510 56441.48006609 0 218.70284009 0 28680.16978126 0 3223.55463887 0 930.75578853 0 1036
0.03250000 0.03246190 53761.24435624 0 3383.40213907 0 24313.91202590 0 3572.55647892 0 7375.62421346 0 1059
0.03350000 0.03345080 54717.01201654 0 -25.81297665 0 26272.57116288 0 3284.95839960 0 5539.09155444 0 1302
0.03450000 0.03451200 56271.87826543 0 920.93228528 0 28338.87911116 0 -20.21073478 0 -1711.33050074 0 1339
0.03550000 0.03553350 54479.08617443 0 -845.09699309 0 25860.86938253 0 1550.36257413 0 493.37976669 0 1365
0.03650000 0.03647120 51922.20721467 0 568.66253488 0 26681.52680008 0 -2865.38068071 0 3338.88166640 0 1308
0.03750000 0.03744890 53169.28573983 0 597.26965725 0 24664.10019979 0 973.88781123 0 -273.93656641 0 1579
0.03850000 0.03847530 55506.36340224 0 -43.36357749 0 23547.62824263 0 5284.42522371 0 -3484.67989827 0 1662
0.03950000 0.03950240 53696.54522373 0 1295.21292221 0 20475.90236598 0 3651.38177176 0 -2698.61289978 0 1683
0.04050000 0.04050350 50064.49629971 0 890.83785177 0 19638.76808955 0 1812.20183075 0 5757.56371851 0 1822
0.04150000 0.04152450 46548.88384505 0 1729.85049011 0 19333.17728034 0 -284.16979422 0 -1172.77887622 0 1887
0.04250000 0.04250150 46260.09943189 0 3116.81754709 0 22902.06491202 0 2601.41041700 0 8742.15996544 0 1920
0.04350000 0.04349210 45562.68891870 0 1076.82314244 0 17978.88932679 0 1162.72799231 0 7251.38869757 0 2005
0.04450000 0.04448520 43209.24424315 0 -30.55622493 0 20160.09590427 0 1529.36007136 0 6414.78168063 0 2151
0.04550000 0.04548030 42621.02038142 0 1414.70310275 0 20983.49946496 0 -1515.33277217 0 -1693.65632345 0 2274
0.04650000 0.04648670 41067.14274406 0 1473.44859692 0 20180.85674644 0 502.34317792 0 3328.95161278 0 2311
0.04750000 0.04749250 41913.61390718 0 -1289.73162049 0 19885.26189828 0 -209.00785633 0 2043.41609902 0 2568
0.04850000 0.04851840 40708.49644928 0 143.04000570 0 22328.78006900 0 2143.66130839 0 -1698.07212163 0 2493
0.04950000 0.04949480 40479.46811096 0 1111.17739318 0 19569.56528229 0 -535.21011754 0 766.54521610 0 2644
0.05050000 0.05050630 38286.61788655 0 1971.19253429 0 19405.12623075 0 190.49555616 0 -1147.18482211 0 2829
0.05150000 0.05149060 39123.31278007 0 493.58078437 0 20623.97440438 0 1627.85873369 0 -1542.90404935 0 2784
0.05250000 0.05249300 37210.56915648 0 -281.89269233 0 19852.19833481 0 4128.45274354 0 3574.75339344 0 3055
0.05350000 0.05348950 38968.43030667 0 -72.95524710 0 18266.57528269 0 2124.61405954 0 404.54972514 0 3009
0.05450000 0.05448610 35830.35761163 0 1498.69114471 0 16990.05810302 0 -975.72882560 0 6161.12593058 0 3336
0.05550000 0.05550870 35112.40594772 0 848.89106446 0 19461.25739664 0 699.84249756 0 3897.76573476 0 3349
0.05650000 0.05647670 34097.43144120 0 1282.41589515 0 18460.23329730 0 67.11551878 0 4506.15727175 0 3324
0.05750000 0.05747970 33894.43653990 0 180.66546216 0 21020.40762884 0 2141.24470243 0 4634.11655775 0 3639
0.05850000 0.05849280 33141.44408944 0 579.82066371 0 18393.44709601 0 -288.50870039 0 4046.13435662 0 3846
0.05950000 0.05951020 32255.53831076 0 1183.74147966 0 18690.68963006 0 261.38229840 0 2448.43925924 0 3787
0.06050000 0.06049470 32195.12316156 0 -973.31221963 0 17274.99791578 0 2172.99011719 0 7142.64142901 0 3930
0.06150000 0.06148310 33065.10131000 0 -1556.92036396 0 17222.60150456 0 2917.15097128 0 780.31877166 0 4083
0.06250000 0.06249100 33888.61471643 0 350.52430181 0 13966.33480855 0 1865.04860944 0 2444.47382853 0 4303
0.06350000 0.06350600 32952.17990387 0 494.98790812 0 13484.66130086 0 -590.79535017 0 1099.44586967 0 4470
0.06450000 0.06451750 32902.41979007 0 983.29170382 0 14667.80961359 0 -1674.89467349 0 -480.06426781 0 4479
0.06550000 0.06550280 30755.81461623 0 1241.55328515 0 14438.34189237 0 -488.33565096 0 59.81363400 0 4636
0.06650000 0.06648880 30227.78621224 0 -332.61835005 0 13632.73333925 0 3122.03521907 0 1482.02754810 0 4653
0.06750000 0.06749660 30611.36748678 0 345.45931540 0 13689.08419660 0 509.92472991 0 -181.98690624 0 5220
0.06850000 0.06852730 29032.55486967 0 909.07004534 0 12429.37341297 0 -264.26684716 0 -1036.19670074 0 5029
0.06950000 0.06949320 28910.95565119 0 423.93420038 0 11464.81809460 0 588.80494562 0 1097.04574056 0 5040
0.07050000 0.07048030 27958.04397976 0 -226.86877135 0 12567.55933604 0 1344.32494622 0 -589.43765700 0 5475
0.07150000 0.07148790 28625.90599271 0 -42.17647473 0 10707.34393854 0 1111.68268352 0 -1447.64583592 0 5509
0.07250000 0.07249820 28388.19984205 0 739.41112491 0 10068.87664182 0 -782.51898155 0 -2480.87670207 0 5916
0.07350000 0.07351270 27519.32015086 0 36.23645726 0 8797.79682557 0 634.93685509 0 -1769.46085884 0 5721
0.07450000 0.07449140 28030.98154170 0 -1000.65391924 0 8548.11749079 0 1079.97571477 0 -2029.39978440 0 6028
0.07550000 0.07549160 27484.16951860 0 505.99774522 0 7236.42770971 0 -148.58611639 0 -3743.28969055 0 6183
0.07650000 0.07648840 27139.69332245 0 1207.69883246 0 6830.92122830 0 1198.94412811 0 -3971.28547905 0 6330
0.07750000 0.07749960 27129.69736140 0 -138.29576880 0 7079.49112124 0 647.71740529 0 -2826.49529377 0 6583
0.07850000 0.07848650 26483.25526499 0 -188.68090477 0 5972.99315598 0 994.64096421 0 -2446.48400532 0 6549
0.07950000 0.07947320 26195.34961763 0 521.10812326 0 5527.62366067 0 4.34629879 0 -3144.66343859 0 6828
0.08050000 0.08048110 25043.83687393 0 950.12488537 0 5627.34161056 0 -758.93510422 0 -1675.31208724 0 7147
0.08150000 0.08149960 24469.45357365 0 981.27823167 0 7505.94518257 0 -471.63360835 0 -1233.35879401 0 7386
0.08250000 0.08250610 23248.40848551 0 443.99093145 0 8267.51658420 0 -221.20292881 0 666.14073042 0 7227
0.08350000 0.08350160 22179.38988189 0 519.07378042 0 8275.67812163 0 1001.94570498 0 1208.29199938 0 7798
0.08450000 0.08449610 22445.54607554 0 -84.95874864 0 7674.14095793 0 1603.52790542 0 1677.08060343 0 7371
0.08550000 0.08548940 23008.83495751 0 -141.71746316 0 6775.50405962 0 1919.41125915 0 2909.24207902 0 8256
0.08650000 0.08650700 21672.89124017 0 364.03422763 0 7785.12907929 0 -605.35430267 0 3005.76351830 0 8037
0.08750000 0.08749060 21283.59798788 0 812.02134659 0 7034.44338908 0 -1423.60060654 0 4615.65149124 0 8155
0.08850000 0.08849210 20745.57362285 0 380.53964639 0 7340.02321372 0 817.99915099 0 3187.70099396 0 8718
0.08950000 0.08949900 20634.29990260 0 14.29477353 0 8034.09441685 0 335.25794284 0 2580.89123542 0 8571
0.09050000 0.09049190 20726.89984946 0 241.56283409 0 7016.48361291 0 -26.48589156 0 1460.87126131 0 8932
0.09150000 0.09150830 20070.90117490 0 257.32459729 0 7047.91047507 0 1106.61879556 0 2258.31827700 0 9285
0.09250000 0.09250820 20054.86369894 0 -3.80147497 0 6373.23802712 0 151.53876950 0 1618.14837153 0 9204
0.09350000 0.09350330 19682.92607133 0 286.58640019 0 6574.93674886 0 -175.45767630 0 1547.16606351 0 9349
0.09450000 0.09448040 19004.07948580 0 479.92256682 0 6168.11211874 0 192.05097164 0 2085.94836405 0 9564
0.09550000 0.09549270 18698.70836804 0 100.27354957 0 5960.28400550 0 362.02295239 0 1451.95178837 0 10155
0.09650000 0.09649430 18769.22932402 0 424.07370445 0 6593.40181537 0 -126.42693812 0 1103.05979405 0 9913
0.09750000 0.09749140 17750.19052564 0 644.13204080 0 6351.55448085 0 -561.70930043 0 505.93073932 0 10476
0.09850000 0.09850240 17207.22310295 0 394.17040251 0 6923.38936029 0 -315.55601346 0 1313.19466753 0 10575
0.09950000 0.09950330 16957.54376817 0 47.57824814 0 6531.07535054 0 275.21187528 0 790.93426260 0 10882
0.10050000 0.10051200 16729.28434993 0 -134.12163122 0 6828.03228571 0 1032.77830176 0 740.68643379 0 10875
0.10150000 0.10150300 17385.83225312 0 -206.23425176 0 5228.23913496 0 527.19467493 0 166.63926143 0 11118
0.10250000 0.10250800 17288.17940287 0 169.05257203 0 5730.04736419 0 -594.19837076 0 -1003.98554011 0 11575
0.10350000 0.10349800 16571.10650476 0 585.59305660 0 5747.16132828 0 -843.05276413 0 -173.93741145 0 11364
0.10450000 0.10450100 16539.14139855 0 86.44594992 0 6354.58622288 0 220.89865615 0 -480.88152001 0 12093
0.10550000 0.10551000 16158.52595861 0 -69.03847806 0 5926.26478422 0 1001.48325447 0 492.73607074 0 12067
0.10650000 0.10649700 16295.94296160 0 -76.99086922 0 5437.63804208 0 688.75247308 0 -187.16832913 0 12054
0.10750000 0.10749900 16435.66672483 0 237.01082722 0 5186.65154317 0 707.60419654 0 1005.52228181 0 12807
0.10850000 0.10850100 16234.20966369 0 442.25756590 0 5372.69724898 0 247.71639165 0 1133.04767719 0 12736
0.10950000 0.10950300 15699.70036188 0 175.79160731 0 4840.83522916 0 -67.41550746 0 2348.69934020 0 12933
0.11050000 0.11050200 15497.80391784 0 -72.39580282 0 5427.59814274 0 -88.83641260 0 1187.90463266 0 13428
0.11150000 0.11150900 14951.65096910 0 322.68939489 0 5260.25916404 0 -125.85024806 0 1152.60021639 0 13453
0.11250000 0.11250000 14765.02308094 0 429.89223254 0 5313.11692730 0 25.42412278 0 1393.76650741 0 13668
0.11350000 0.11349100 14238.31282566 0 140.97051222 0 5192.42942835 0 -624.63222755 0 570.59252428 0 13791
0.11450000 0.11448600 14070.35871089 0 198.04195753 0 5315.85208587 0 695.51567442 0 167.33568333 0 14205
0.11550000 0.11549300 14198.21913574 0 227.19830853 0 5090.51456394 0 -163.58115642 0 -136.38335471 0 14776
0.11650000 0.11649800 14049.26833154 0 -88.31025158 0 4674.34206255 0 538.62961498 0 -343.76659276 0 14553
0.11750000 0.11747300 13857.14815709 0 51.56828429 0 4933.98440465 0 301.98347558 0 -342.51325303 0 14568
0.11850000 0.11849100 13614.71864022 0 313.72708212 0 4251.61177133 0 -442.82986213 0 55.12201321 0 16015
0.11950000 0.11950300 13208.17960898 0 292.92669548 0 4975.19852098 0 178.97493644 0 469.63661306 0 15270
0.12050000 0.12050700 13051.64944970 0 109.07043468 0 4866.20959183 0 300.44453696 0 351.81279218 0 15999
0.12150000 0.12150000 13073.94813204 0 -284.11706827 0 4691.20338146 0 1050.85341594 0 1168.09944830 0 15670
0.12250000 0.12250700 13103.05724938 0 -58.09575670 0 3930.97209768 0 727.30612593 0 1099.18223992 0 16887
0.12350000 0.12352200 13522.66792199 0 90.48915139 0 4022.19897297 0 -44.22806335 0 1354.23303069 0 16407
0.12450000 0.12449800 13117.55688519 0 173.22011886 0 3945.76831694 0 207.76440272 0 2018.17355123 0 16306
0.12550000 0.12549900 13138.97680172 0 -4.24036357 0 3722.99020042 0 -51.09254245 0 2036.27612684 0 17523
0.12650000 0.12650100 13239.70533229 0 -115.40501800 0 3762.29300112 0 -103.52454368 0 1403.65262273 0 17154
0.12750000 0.12750600 13148.20384269 0 167.66631897 0 3824.57552765 0 -54.38242194 0 974.37223088 0 18007
0.12850000 0.12850300 13028.03261865 0 374.47506387 0 4105.73664745 0 -337.45156199 0 837.70108037 0 17496
0.12950000 0.12949900 12490.11809934 0 258.37362397 0 4243.69189450 0 -514.00330171 0 74.85272217 0 18405
0.13050000 0.13049000 12246.04089658 0 464.28273238 0 4810.77045401 0 -445.71550935 0 449.34591059 0 18100
0.13150000 0.13148800 11979.66501149 0 210.90269510 0 4668.28956305 0 248.86208257 0 -91.73787760 0 19059
0.13250000 0.13249300 11697.03195897 0 -217.29461789 0 4427.94711497 0 553.69385782 0 483.01911783 0 18957
0.13350000 0.13349100 11895.63303124 0 -62.54758427 0 4105.23135711 0 890.71482456 0 139.34259857 0 19468
0.13450000 0.13450700 11845.32368882 0 -94.65153548 0 3284.85953844 0 350.62865525 0 742.43957157 0 19953
0.13550000 0.13551000 11974.83179955 0 115.42479023 0 3286.58411634 0 82.70526357 0 489.86690038 0 19956
0.13650000 0.13649900 11512.05175670 0 302.31081584 0 3070.57249653 0 109.60790982 0 560.23736771 0 19723
0.13750000 0.13749600 11667.15392155 0 -60.92944689 0 2896.64277427 0 90.84153648 0 968.56358890 0 20946
0.13850000 0.13851100 11734.59919720 0 -54.97635778 0 2939.09814730 0 428.21378985 0 732.19975301 0 20955
0.13950000 0.13949800 11470.42022662 0 172.14912304 0 3217.97447599 0 2.64287718 0 1133.28933779 0 20506
0.14050000 0.14048300 11490.08261154 0 -18.27272664 0 2344.21763458 0 114.48341236 0 1327.09015184 0 21447
0.14150000 0.14148400 11387.48670363 0 83.77241480 0 2937.83492145 0 27.48186276 0 671.37048543 0 21771
0.14250000 0.14249400 11174.71553273 0 377.09049060 0 2839.17149053 0 -166.86334671 0 976.48236728 0 22470
0.14350000 0.14350900 10867.75165194 0 294.20090590 0 3483.85605533 0 -335.72588563 0 1131.18029985 0 22519
0.14450000 0.14449900 10630.97918995 0 153.21721219 0 3503.95782315 0 -443.89426721 0 695.66067078 0 22218
0.14550000 0.14550500 10383.05738679 0 236.00464037 0 3819.62148542 0 -68.18695399 0 330.90146135 0 23559
0.14650000 0.14650700 10051.00474223 0 113.15977136 0 3779.23121204 0 -20.93769380 0 150.78632628 0 23044
0.14750000 0.14750500 10017.30407355 0 144.79204502 0 3595.59112762 0 151.10817426 0 141.32201855 0 23649
0.14850000 0.14849900 10041.88754698 0 -96.47903882 0 3492.16039220 0 233.52102851 0 -522.38233368 0 23640
0.14950000 0.14949500 9827.87511938 0 -5.94938731 0 2924.76328008 0 582.88865483 0 484.12196892 0 24457
0.15050000 0.15050000 9977.86945798 0 -55.57380868 0 2564.17271595 0 486.72421416 0 40.26252280 0 24591
0.15150000 0.15149900 9923.05644080 0 -0.41905266 0 2076.89707624 0 655.42967370 0 493.97073670 0 25020
0.15250000 0.15250500 9785.34285435 0 171.39997519 0 1997.75323080 0 107.56576793 0 519.19021689 0 25297
0.15350000 0.15350100 9606.04167610 0 215.32178865 0 1972.49969843 0 -197.87279511 0 856.32981701 0 25452
0.15450000 0.15450400 9331.08683982 0 114.21648724 0 1870.57384945 0 -90.15038718 0 567.84308576 0 26061
0.15550000 0.15549900 9275.53785627 0 76.36958180 0 1880.47094935 0 279.40358818 0 1026.99272738 0 26128
0.15650000 0.15649500 9416.51386078 0 -125.72063011 0 1883.67844454 0 29.13767723 0 163.76569724 0 26331
0.15750000 0.15749700 9232.55522376 0 133.31975742 0 1828.26127587 0 -215.76227001 0 398.09079646 0 27345
0.15850000 0.15849900 9188.12262767 0 214.50014262 0 1897.47506770 0 -193.84365389 0 -19.12095534 0 26980
0.15950000 0.15949700 8951.95431717 0 104.82039370 0 2165.50962326 0 -99.84592016 0 138.96582773 0 27777
0.16050000 0.16050000 8852.67575018 0 179.02436702 0 2302.19065989 0 -473.62181599 0 -636.16822568 0 28224
0.16150000 0.16150500 8600.92033119 0 181.85838674 0 2549.79391044 0 -67.06246329 0 -116.73634819 0 28075
0.16250000 0.16249700 8467.88617266 0 -2.49048820 0 2615.25097846 0 246.14999160 0 -142.90928928 0 28590
0.16350000 0.16349900 8677.34000264 0 -27.78031360 0 2273.18040370 0 299.82940089 0 -478.16283829 0 29163
0.16450000 0.16449100 8561.00239443 0 202.33692541 0 2534.88784545 0 -100.86451958 0 -736.28821093 0 28996
0.16550000 0.16550500 8418.46658062 0 155.86998647 0 2517.46631334 0 -387.89381774 0 -169.86982423 0 30777
0.16650000 0.16650700 8152.49712470 0 0.68469367 0 2790.71854087 0 -81.76762046 0 -36.82226452 0 29211
0.16750000 0.16749900 8164.50326253 0 26.15986945 0 3032.03861591 0 375.13633514 0 5.26612493 0 30922
0.16850000 0.16850800 8440.55655608 0 -17.50951854 0 2644.92030900 0 -57.69646748 0 -528.99944020 0 30867
0.16950000 0.16949900 8485.15392076 0 -56.71873068 0 2490.62001795 0 236.50553688 0 -116.50127834 0 30852
0.17050000 0.17049200 8440.93003154 0 -56.90722594 0 2669.14129154 0 184.14317784 0 211.67930439 0 31257
0.17150000 0.17149500 8409.72286084 0 103.91592400 0 2343.00933160 0 145.02162259 0 571.62946793 0 32608
0.17250000 0.17250900 8403.91202195 0 169.93133783 0 2702.17190129 0 -36.61311825 0 215.86003271 0 32361
0.17350000 0.17350400 8044.95815913 0 217.18367371 0 2495.26649215 0 151.77603627 0 889.18357514 0 32508
0.17450000 0.17449800 8123.47588394 0 -53.00045286 0 2578.34281458 0 258.97557855 0 847.13353284 0 32791
0.17550000 0.17549800 7932.52007419 0 69.51839403 0 2335.66065254 0 159.94416444 0 800.91045142 0 33633
0.17650000 0.17650100 7848.78467740 0 191.51382604 0 2301.13614092 0 -49.70606970 0 592.95491714 0 33984
0.17750000 0.17750300 7676.39279531 0 67.73054500 0 2083.42191236 0 -65.05272590 0 969.57636649 0 34069
0.17850000 0.17849800 7590.65820631 0 -62.47585501 0 2218.31246366 0 237.43263480 0 573.79013336 0 34536
