### header ###
fiducial parameters:
Omega_m = 0.31
Omega_nu = 0
Omega_de = 0.69
Omega_k = 0
H_0 = 100
w_de = -1
zeff = 0
beta = 0
fgrowth = 0
b_1 = 2
gamma = 0.55
Lx = 3500 Ly = 3500 Lz = 3500
nx = 700 ny = 700 nz = 700
xoffset = -983.599254 yoffset = -42.9823471 zoffset = 800.977702
bins = 400 dk = 0.001
kx_ny = 0.628318531 ky_ny = 0.628318531 kz_ny = 0.628318531
############################
A(data) = 9.16575687 (not used)
A(ran) = 9.16664464 (used)
Ngal = 509196
weighted Ngal = 0
Nran = 25229228
weighted Nran = 0
SN(data) = 6702.03279
SN(ran) = 136.072524
SN(data+ran) = 6838.10532
############################
13 columns: k_central k_mean P_0(k) sigma^{lin}_{P_0(k)} P^img_1(k) sigma^{lin}_{P_1(k)} P_2(k) sigma^{lin}_{P_2(k)} P^img_3(k) sigma^{lin}_{P_3(k)} P_4(k) sigma^{lin}_{P_4(k)} N_modes
### header ###
0.00050000 0 0 0 0 0 0 0 0 0 0 0 0
0.00150000 0.00179520 5566.48707846 0 -11428.45915936 0 -16238.38380127 0 25806.93513116 0 14543.68394342 0 3
0.00250000 0.00253879 29218.52368347 0 -7081.29259114 0 4066.85126051 0 7362.69537153 0 9264.21276194 0 6
0.00350000 0.00331552 55657.18158378 0 -3480.12130065 0 37600.30179166 0 -70546.22048916 0 -21702.98896904 0 7
0.00450000 0.00420575 61085.20812485 0 430.05700113 0 -4282.81894203 0 -321.74801702 0 14212.27938865 0 24
0.00550000 0.00557378 51083.42525236 0 -14717.24019021 0 18686.73518393 0 16794.64255679 0 -21699.69359727 0 45
0.00650000 0.00659388 49322.48842184 0 12364.01520611 0 42600.03984779 0 12188.26204481 0 45760.08168799 0 40
0.00750000 0.00754703 61921.13409829 0 17139.11875294 0 35335.72230829 0 -12200.12538319 0 19683.58514569 0 57
0.00850000 0.00846663 70268.31080285 0 -6687.95701615 0 29809.27399689 0 16733.23879606 0 -23454.14952996 0 75
0.00950000 0.00948925 73958.90749873 0 -4412.87628139 0 58450.88792839 0 13640.75207724 0 -754.84554785 0 112
0.01050000 0.01054430 61067.74265445 0 2999.06292902 0 44983.80194367 0 -13696.55370595 0 11723.83431607 0 105
0.01150000 0.01145670 72734.23750164 0 -5638.10649169 0 39121.11586555 0 16676.11901864 0 14323.22357172 0 144
0.01250000 0.01249090 80335.23219075 0 -7415.43230450 0 35055.61570747 0 24480.65783768 0 13730.16649805 0 169
0.01350000 0.01339930 87101.50920941 0 -6626.57522457 0 8649.96644777 0 33810.40455965 0 1452.38018671 0 180
0.01450000 0.01448870 99332.50124155 0 1391.08627170 0 10631.37463456 0 -3300.62240010 0 -4153.90399822 0 267
0.01550000 0.01550050 90874.05081674 0 11083.76327175 0 22718.84224136 0 -23027.72842235 0 12883.69533493 0 238
0.01650000 0.01653350 81860.00071077 0 3705.42586886 0 19285.72392679 0 -7960.91519431 0 2150.14220622 0 315
0.01750000 0.01747870 77257.35495346 0 -1672.75268183 0 24207.69120904 0 10849.86876778 0 -17767.87568750 0 297
0.01850000 0.01844180 77705.19597760 0 3924.15067810 0 19305.60600316 0 2120.92324315 0 2714.00228596 0 388
0.01950000 0.01947590 70162.74906035 0 4257.09307304 0 26483.47495644 0 -5648.05851445 0 -2875.43156462 0 399
0.02050000 0.02045430 67591.91969341 0 6290.10678183 0 26473.58884112 0 2875.88193209 0 -8424.44218810 0 462
0.02150000 0.02154770 66327.59538930 0 -1902.87947741 0 24326.43443864 0 7399.60353541 0 -2326.68625674 0 571
0.02250000 0.02255340 61912.45628595 0 -2559.18572000 0 17535.33228595 0 10591.14912977 0 941.46904217 0 510
0.02350000 0.02348930 71286.69052687 0 -1002.92113502 0 8766.50177828 0 5688.28401924 0 -736.67376942 0 555
0.02450000 0.02439640 67284.46150686 0 676.49918237 0 7674.31671109 0 -238.55745504 0 6233.65706333 0 592
0.02550000 0.02547300 65240.56208665 0 2563.06327412 0 9455.45417058 0 155.93150008 0 2492.15785811 0 837
0.02650000 0.02652900 62188.93797782 0 1098.95156390 0 18448.36995891 0 -2304.66218872 0 4830.03739432 0 723
0.02750000 0.02749970 64379.04205909 0 2411.37731135 0 14274.56191518 0 -4274.67937375 0 -4907.69832247 0 826
0.02850000 0.02848090 57373.30135816 0 2915.41540881 0 17849.16152460 0 2985.33221329 0 3955.75329342 0 831
0.02950000 0.02946900 55293.37253988 0 -539.03824108 0 18111.69280930 0 1423.39189966 0 -13.42776121 0 996
0.03050000 0.03053250 56672.15609030 0 546.24741607 0 16064.93740021 0 2359.31043731 0 -700.59494078 0 1041
0.03150000 0.03150510 54355.94911579 0 1318.09378690 0 21370.04657410 0 272.11093044 0 439.51142275 0 1036
0.03250000 0.03246190 53490.36479638 0 2607.64965423 0 15346.54635339 0 -3842.56825754 0 5470.54782153 0 1059
0.03350000 0.03345080 53417.20754299 0 818.15293500 0 19172.47298348 0 4430.51750496 0 1900.46287144 0 1302
0.03450000 0.03451200 54025.42332682 0 -1586.55674079 0 13713.25025627 0 1633.20822054 0 -7141.05965056 0 1339
0.03550000 0.03553350 51305.75300141 0 1739.72562086 0 16989.28918293 0 -1195.06657399 0 -2344.67898663 0 1365
0.03650000 0.03647120 48175.14981572 0 3549.87333654 0 17663.19271080 0 -7563.52631204 0 -3595.63506591 0 1308
0.03750000 0.03744890 46003.28012494 0 622.42542692 0 15818.77312867 0 2786.42357299 0 -1968.76494375 0 1579
0.03850000 0.03847530 46697.61495781 0 -220.36700284 0 16615.92356089 0 2755.82055378 0 -14637.38234754 0 1662
0.03950000 0.03950240 46303.04911068 0 186.41368899 0 14702.96024585 0 2603.31074806 0 -10726.22641880 0 1683
0.04050000 0.04050350 45403.41261627 0 1014.48239766 0 12849.97269711 0 -250.36367365 0 -7397.50548204 0 1822
0.04150000 0.04152450 43872.16319843 0 412.65743816 0 11775.24211575 0 -1127.59932919 0 -9002.19775216 0 1887
0.04250000 0.04250150 42708.89696207 0 1601.18819146 0 9959.52522177 0 1328.50716171 0 -9705.30925852 0 1920
0.04350000 0.04349210 42138.46810792 0 -164.78945941 0 14092.21801033 0 -19.57000467 0 -8654.25043107 0 2005
0.04450000 0.04448520 40054.47499779 0 2061.95805753 0 9701.49761183 0 -1611.66747371 0 -9176.35815044 0 2151
0.04550000 0.04548030 39120.56663692 0 163.85247537 0 13841.65990975 0 2257.64821807 0 -8660.50065287 0 2274
0.04650000 0.04648670 38639.00297496 0 429.32213323 0 9462.69300392 0 1007.17875536 0 -8594.97767743 0 2311
0.04750000 0.04749250 38853.42183174 0 680.68759989 0 14777.32580223 0 -1775.17283658 0 -6053.16955125 0 2568
0.04850000 0.04851840 36054.88227519 0 1629.14392868 0 12282.72936901 0 -1672.02770004 0 -4854.34625344 0 2493
0.04950000 0.04949480 37696.30695602 0 -516.41441539 0 12585.24449790 0 2768.29902823 0 -5721.53432044 0 2644
0.05050000 0.05050630 36155.83049722 0 298.08614923 0 12931.36837993 0 1839.82803079 0 -4486.67063999 0 2829
0.05150000 0.05149060 36496.46209296 0 272.02305386 0 12926.09578510 0 91.79334970 0 -5100.32378725 0 2784
0.05250000 0.05249300 34649.84559631 0 758.97245176 0 13143.70016793 0 -335.02726682 0 -1669.83078553 0 3055
0.05350000 0.05348950 35168.53711361 0 1180.23740100 0 14064.31719597 0 -403.45895708 0 -1704.94846407 0 3009
0.05450000 0.05448610 34584.92677236 0 -640.96958235 0 13583.41260836 0 820.54537491 0 -1061.69738599 0 3336
0.05550000 0.05550870 33980.22605176 0 813.36256290 0 15583.81312115 0 -363.93316956 0 -1388.81246518 0 3349
0.05650000 0.05647670 33157.48156541 0 847.80249332 0 12566.02149588 0 8.90410552 0 -110.12473396 0 3324
0.05750000 0.05747970 33385.85082938 0 94.93867221 0 15701.12835632 0 2872.14717742 0 1208.57759826 0 3639
0.05850000 0.05849280 33655.30239480 0 -396.01251533 0 12616.98991266 0 2837.84235724 0 1505.29287283 0 3846
0.05950000 0.05951020 34540.32940768 0 -73.72109150 0 13502.12677126 0 898.61492916 0 1095.17396939 0 3787
0.06050000 0.06049470 33776.24253892 0 1170.27439367 0 12129.49458150 0 -1313.24959039 0 3495.75234743 0 3930
0.06150000 0.06148310 31665.11753451 0 -590.17582028 0 11564.99739654 0 1231.26074064 0 3347.03221925 0 4083
0.06250000 0.06249100 32667.02039966 0 -194.49943287 0 10412.37521101 0 2113.16813491 0 2121.71413238 0 4303
0.06350000 0.06350600 32011.90049091 0 400.48213791 0 9745.26014900 0 91.04584953 0 965.74384912 0 4470
0.06450000 0.06451750 31874.15395074 0 1238.87304944 0 9567.39794976 0 1201.10808891 0 1713.48347696 0 4479
0.06550000 0.06550280 31959.50407969 0 399.81098053 0 9434.61643640 0 287.02798001 0 2527.08879892 0 4636
0.06650000 0.06648880 29561.35219373 0 -161.47431540 0 9357.37292201 0 146.38700496 0 1134.29991847 0 4653
0.06750000 0.06749660 29691.18984164 0 831.25423472 0 9128.57525971 0 -590.09343598 0 166.50524965 0 5220
0.06850000 0.06852730 28385.45369890 0 1176.62347662 0 9733.23204202 0 -414.67091032 0 2150.25205194 0 5029
0.06950000 0.06949320 28871.96041853 0 291.87876726 0 9297.18844883 0 -244.93949171 0 -791.11990188 0 5040
0.07050000 0.07048030 27682.77059087 0 241.98903551 0 10098.63384894 0 824.76125387 0 -177.07680230 0 5475
0.07150000 0.07148790 27370.03980948 0 357.58188970 0 9856.00660976 0 713.09428592 0 1827.69007809 0 5509
0.07250000 0.07249820 27380.91453634 0 55.19582954 0 11031.25701481 0 60.63560957 0 1100.20380517 0 5916
0.07350000 0.07351270 26542.90149411 0 54.24731169 0 9543.97884102 0 1071.05953720 0 638.07954131 0 5721
0.07450000 0.07449140 27059.72563406 0 -342.55499441 0 9288.34586790 0 1356.90228183 0 4328.20719594 0 6028
0.07550000 0.07549160 27135.07980197 0 233.14315921 0 8596.20794955 0 1432.65189435 0 3090.38866546 0 6183
0.07650000 0.07648840 26250.49217199 0 612.03731663 0 9425.55416402 0 -167.44552906 0 5024.29956042 0 6330
0.07750000 0.07749960 26538.06828217 0 780.96686144 0 9294.57412056 0 -465.52289063 0 2249.21206633 0 6583
0.07850000 0.07848650 25549.67644130 0 220.75585671 0 9089.06375213 0 -734.25716346 0 4064.02822536 0 6549
0.07950000 0.07947320 25330.75390975 0 -529.61237935 0 9587.68645532 0 1329.92417157 0 2273.33418772 0 6828
0.08050000 0.08048110 25632.60996429 0 204.11752462 0 9177.99485175 0 -32.37406185 0 2074.59031600 0 7147
0.08150000 0.08149960 25120.06980764 0 579.06602357 0 8195.51271093 0 1230.39295941 0 1855.98633706 0 7386
0.08250000 0.08250610 24248.33412759 0 541.82722406 0 7249.54328937 0 -365.50616036 0 304.72852027 0 7227
0.08350000 0.08350160 23825.53792893 0 690.24747341 0 8824.65410553 0 -1108.22254316 0 639.18898314 0 7798
0.08450000 0.08449610 22845.71405468 0 303.17749862 0 7349.56880730 0 -54.90100361 0 65.76859049 0 7371
0.08550000 0.08548940 22341.41232747 0 164.20398169 0 8373.83626222 0 854.02635214 0 -32.55398915 0 8256
0.08650000 0.08650700 21865.89018042 0 828.72997994 0 7704.87579201 0 174.27244092 0 -1074.83383634 0 8037
0.08750000 0.08749060 21185.83529191 0 385.86496718 0 7153.92258505 0 -206.74503438 0 -426.04104140 0 8155
0.08850000 0.08849210 20323.87588145 0 405.50648141 0 7704.87579201 0 127.26396256 0 -1973.47732539 0 8718
0.08950000 0.08949900 19891.96248755 0 556.62014796 0 7399.51565883 0 63.35154514 0 -1049.46935979 0 8571
0.09050000 0.09049190 19009.79146355 0 392.93573655 0 7584.72653712 0 266.17706433 0 -1317.58849656 0 8932
0.09150000 0.09150830 18912.35830475 0 326.80092041 0 7077.30519130 0 814.85316940 0 -369.38041911 0 9285
0.09250000 0.09250820 18559.20429626 0 -252.66933543 0 6719.91113779 0 1330.95672139 0 57.59112543 0 9204
0.09350000 0.09350330 19061.74849186 0 -268.00489721 0 6600.21225037 0 942.88055975 0 75.25552645 0 9349
0.09450000 0.09448040 18887.09378781 0 523.34458224 0 5983.08797818 0 -712.17487720 0 865.31409892 0 9564
0.09550000 0.09549270 17976.80225800 0 503.29334345 0 6813.03834413 0 -766.96702369 0 735.01070514 0 10155
0.09650000 0.09649430 18057.86840365 0 174.99412734 0 7225.37722969 0 -258.97887392 0 1067.61367678 0 9913
0.09750000 0.09749140 17719.65341387 0 501.92796107 0 8322.25270938 0 410.61320921 0 875.48691159 0 10476
0.09850000 0.09850240 17555.76359095 0 144.50974151 0 8019.62773476 0 -321.80623526 0 1274.43011089 0 10575
0.09950000 0.09950330 17123.52065988 0 -130.39566420 0 7650.21655885 0 873.53385459 0 1745.45956775 0 10882
0.10050000 0.10051200 17108.80133262 0 232.66533030 0 8105.56004606 0 948.56507606 0 2540.00665627 0 10875
0.10150000 0.10150300 16859.78107220 0 110.04674349 0 7555.56249692 0 10.14837199 0 2521.21205259 0 11118
0.10250000 0.10250800 16627.23767065 0 247.10015713 0 7132.74432911 0 1386.65948895 0 2508.25025694 0 11575
0.10350000 0.10349800 16768.71896550 0 -254.69379216 0 6903.29857704 0 480.15104593 0 3847.11587059 0 11364
0.10450000 0.10450100 16879.11391994 0 -171.58341755 0 5548.76896288 0 741.24115470 0 2916.85438782 0 12093
0.10550000 0.10551000 16890.53787543 0 73.07574786 0 6064.98895135 0 -6.49237670 0 3055.07326461 0 12067
0.10650000 0.10649700 16740.70830542 0 394.18907628 0 5203.53483123 0 -486.39577544 0 1714.07664388 0 12054
0.10750000 0.10749900 16354.60057918 0 325.67500172 0 6108.94921082 0 -391.74061505 0 1627.37541250 0 12807
0.10850000 0.10850100 15988.15523787 0 144.87223240 0 6065.51621083 0 -23.92363016 0 1194.46242250 0 12736
0.10950000 0.10950300 15583.59342970 0 319.99487924 0 6554.87891933 0 -93.15477762 0 1017.96340872 0 12933
0.11050000 0.11050200 15327.65288855 0 231.52952550 0 5343.51123963 0 -108.67729683 0 1345.53324921 0 13428
0.11150000 0.11150900 15033.92541773 0 -80.54075354 0 5658.28515152 0 1424.64414094 0 1876.29681176 0 13453
0.11250000 0.11250000 15335.78147226 0 203.40901969 0 5140.32960059 0 644.20124361 0 1822.41748325 0 13668
0.11350000 0.11349100 14908.37175312 0 147.49754525 0 4795.06251522 0 637.82250231 0 1808.92842812 0 13791
0.11450000 0.11448600 14766.78061255 0 293.03104892 0 5350.01410660 0 -799.90975686 0 1476.73298412 0 14205
0.11550000 0.11549300 13957.21761331 0 276.08514880 0 4493.78864303 0 -20.84465447 0 2253.45211134 0 14776
0.11650000 0.11649800 14181.74227687 0 -91.86892356 0 4460.58228011 0 130.22869870 0 861.69578072 0 14553
0.11750000 0.11747300 13944.80504629 0 -45.96296674 0 4239.85827866 0 527.62966400 0 1000.65611616 0 14568
0.11850000 0.11849100 14088.48325565 0 187.24741805 0 4212.79229182 0 261.05276122 0 732.78083690 0 16015
0.11950000 0.11950300 13786.29766394 0 182.55590710 0 3692.49702694 0 -214.19806688 0 510.60577341 0 15270
0.12050000 0.12050700 13730.93541813 0 152.02318915 0 3869.93082784 0 19.72488714 0 719.50048865 0 15999
0.12150000 0.12150000 13517.83471005 0 -76.82840739 0 3855.26642345 0 256.15693723 0 7.01345187 0 15670
0.12250000 0.12250700 13606.04082788 0 215.28663802 0 3927.20438928 0 -154.21131601 0 -208.94853964 0 16887
0.12350000 0.12352200 13570.12127554 0 21.22636836 0 3716.04795055 0 3.37078087 0 767.85787253 0 16407
0.12450000 0.12449800 13473.01765392 0 29.26279151 0 3912.30930886 0 363.18951400 0 279.56945523 0 16306
0.12550000 0.12549900 13399.09148045 0 53.96116358 0 3847.59919178 0 40.51714519 0 402.10346083 0 17523
0.12650000 0.12650100 13089.32653365 0 289.39186003 0 3806.14341486 0 286.87419599 0 916.76473844 0 17154
0.12750000 0.12750600 12956.08366824 0 87.67160853 0 3913.25398210 0 308.14252542 0 924.17273419 0 18007
0.12850000 0.12850300 13114.04182196 0 35.22389936 0 4082.74593703 0 -629.99819126 0 535.54295009 0 17496
0.12950000 0.12949900 12575.46822830 0 470.23087843 0 4398.84898221 0 -466.81138099 0 464.81438569 0 18405
0.13050000 0.13049000 12262.29806401 0 85.89913789 0 4249.62356369 0 -66.64417077 0 400.16688068 0 18100
0.13150000 0.13148800 12379.28376200 0 -99.97389043 0 4357.57994302 0 446.80298203 0 -60.44206140 0 19059
0.13250000 0.13249300 12601.50166532 0 -214.84176283 0 3723.91290452 0 1170.54900799 0 207.97201114 0 18957
0.13350000 0.13349100 12648.51563597 0 -68.70970980 0 3262.63774811 0 268.99680412 0 273.41479921 0 19468
0.13450000 0.13450700 12480.56152120 0 200.40364063 0 2904.80431170 0 29.18864565 0 -164.58624482 0 19953
0.13550000 0.13551000 12227.91635183 0 426.62212529 0 3302.28107056 0 -204.97651820 0 948.92866541 0 19956
0.13650000 0.13649900 11947.59005955 0 240.95319032 0 3332.41175315 0 -352.03028672 0 212.58333471 0 19723
0.13750000 0.13749600 11741.73916938 0 132.73977199 0 3631.52166454 0 46.28086027 0 597.19056833 0 20946
0.13850000 0.13851100 11463.60979162 0 -108.66345627 0 3218.50173548 0 234.10430931 0 331.55943725 0 20955
0.13950000 0.13949800 11588.06499896 0 29.19194102 0 3600.46827785 0 420.71791752 0 774.60679392 0 20506
0.14050000 0.14048300 11346.95363080 0 266.44069408 0 3184.72417479 0 31.93830385 0 706.16741445 0 21447
0.14150000 0.14148400 11325.53371427 0 -5.51322289 0 3055.21606406 0 228.54941096 0 765.80265900 0 21771
0.14250000 0.14249400 11389.57377242 0 51.76963150 0 2840.70933069 0 398.94759312 0 817.34227355 0 22470
0.14350000 0.14350900 11249.52047201 0 103.87572046 0 3114.14829596 0 -133.01218939 0 686.93452632 0 22519
0.14450000 0.14449900 11118.36467538 0 196.02628846 0 2828.84599230 0 -554.08490861 0 500.85696525 0 22218
0.14550000 0.14550500 10537.05010981 0 282.38480118 0 3433.70049692 0 -491.94957534 0 98.54886183 0 23559
0.14650000 0.14650700 10390.20834354 0 70.00193492 0 3394.12308191 0 142.28207019 0 422.19094871 0 23044
0.14750000 0.14750500 10469.15446668 0 177.13172516 0 3615.84667946 0 393.98146786 0 -32.48808171 0 23649
0.14850000 0.14849900 10331.35300365 0 82.22677559 0 3292.10935635 0 -14.63101130 0 583.75863298 0 23640
0.14950000 0.14949500 10399.63310681 0 -3.72180387 0 3324.54679918 0 694.09756610 0 158.27011558 0 24457
0.15050000 0.15050000 10198.50558285 0 77.66301522 0 3024.52516826 0 -107.11759737 0 773.71594508 0 24591
0.15150000 0.15149900 9884.80815907 0 273.58286317 0 3308.38849291 0 -183.97621234 0 601.90954071 0 25020
0.15250000 0.15250500 9523.41572115 0 215.87760803 0 3318.83482144 0 -163.41748629 0 1085.50534860 0 25297
0.15350000 0.15350100 9524.68993156 0 128.11856230 0 3519.45705506 0 448.97133666 0 1188.06940125 0 25452
0.15450000 0.15450400 9472.60108838 0 -104.39880581 0 2999.56821936 0 261.75906924 0 890.28972160 0 26061
0.15550000 0.15549900 9517.96737315 0 74.25658942 0 2955.11365412 0 502.12788030 0 1226.41654413 0 26128
0.15650000 0.15649500 9505.86237416 0 52.16068229 0 2907.80310002 0 0.63995900 0 1179.01811345 0 26331
0.15750000 0.15749700 9561.66400287 0 -33.95100709 0 2525.95738794 0 95.64421131 0 1603.44002884 0 27345
0.15850000 0.15849900 9272.35233023 0 170.33776702 0 2770.39708160 0 -232.44673731 0 921.42878796 0 26980
0.15950000 0.15949700 9106.18870079 0 285.43741390 0 2818.39966378 0 -443.27254040 0 946.41429675 0 27777
0.16050000 0.16050000 8949.36195804 0 202.94437227 0 3357.22590261 0 -53.18005062 0 666.08910293 0 28224
0.16150000 0.16150500 8722.20099706 0 4.13219848 0 3070.01228332 0 203.06190720 0 804.82755001 0 28075
0.16250000 0.16249700 8698.17773683 0 -53.53704923 0 3018.16510074 0 619.92643666 0 987.53614267 0 28590
0.16350000 0.16349900 8853.52156227 0 -146.23212249 0 2673.12869139 0 598.00232824 0 1129.75230542 0 29163
0.16450000 0.16449100 8765.98550337 0 155.69862714 0 2167.15730915 0 0.01817452 0 1144.14209550 0 28996
0.16550000 0.16550500 8495.20480467 0 190.94372672 0 2386.94762193 0 -386.87444940 0 1213.09225759 0 30777
0.16650000 0.16650700 8383.10724148 0 170.66181191 0 2393.39556603 0 118.30274824 0 1094.12164734 0 29211
0.16750000 0.16749900 8421.14681633 0 -50.45148279 0 2393.05504428 0 80.36060655 0 958.10957118 0 30922
0.16850000 0.16850800 8388.63248148 0 77.10521862 0 2479.48166135 0 8.58010457 0 659.18310215 0 30867
0.16950000 0.16949900 8244.48193550 0 201.02317052 0 2302.83874967 0 -257.73212493 0 415.60459899 0 30852
0.17050000 0.17049200 8015.51950461 0 82.85652114 0 2597.98323036 0 -79.89387206 0 695.93198972 0 31257
0.17150000 0.17149500 8077.73612371 0 103.17677211 0 2486.09437405 0 222.50789604 0 445.81656741 0 32608
0.17250000 0.17250900 8001.93158833 0 -9.68524044 0 2485.68794486 0 159.41910187 0 638.91766419 0 32361
0.17350000 0.17350400 7926.30280611 0 27.97100578 0 2535.33821293 0 222.73637515 0 672.50848715 0 32508
0.17450000 0.17449800 7933.51967029 0 -33.19691618 0 2332.63989508 0 -150.36671561 0 865.21633623 0 32791
0.17550000 0.17549800 7941.98877575 0 49.53416114 0 2292.37045200 0 0.11178011 0 370.11089318 0 33633
0.17650000 0.17650100 7936.58436604 0 96.69905981 0 2292.41439029 0 -82.46393251 0 243.37638703 0 33984
0.17750000 0.17750300 7782.02044525 0 98.81798386 0 2379.97241834 0 -281.44122639 0 242.02089077 0 34069
0.17850000 0.17849800 7703.05235297 0 100.52136153 0 2498.12248102 0 54.44129924 0 12.79098554 0 34536
