### header ###
fiducial parameters:
Omega_m = 0.31
Omega_nu = 0
Omega_de = 0.69
Omega_k = 0
H_0 = 100
w_de = -1
zeff = 0
beta = 0
fgrowth = 0
b_1 = 2
gamma = 0.55
Lx = 3500 Ly = 3500 Lz = 3500
nx = 700 ny = 700 nz = 700
xoffset = -983.599254 yoffset = -42.9823471 zoffset = 800.977702
bins = 400 dk = 0.001
kx_ny = 0.628318531 ky_ny = 0.628318531 kz_ny = 0.628318531
############################
A(data) = 9.12874954 (not used)
A(ran) = 9.11927105 (used)
Ngal = 506797
weighted Ngal = 0
Nran = 25229228
weighted Nran = 0
SN(data) = 6739.50802
SN(ran) = 135.369296
SN(data+ran) = 6874.87732
############################
13 columns: k_central k_mean P_0(k) sigma^{lin}_{P_0(k)} P^img_1(k) sigma^{lin}_{P_1(k)} P_2(k) sigma^{lin}_{P_2(k)} P^img_3(k) sigma^{lin}_{P_3(k)} P_4(k) sigma^{lin}_{P_4(k)} N_modes
### header ###
0.00050000 0 0 0 0 0 0 0 0 0 0 0 0
0.00150000 0.00179520 34509.13322155 0 -29856.83719617 0 -2691.90132593 0 -34180.25511846 0 96007.03173828 0 3
0.00250000 0.00253879 40188.70647473 0 -8381.49250931 0 349.19846390 0 -44840.78280866 0 -14135.49722630 0 6
0.00350000 0.00331552 37382.36787165 0 7833.36233750 0 3045.59357848 0 -25923.59129197 0 12004.81968270 0 7
0.00450000 0.00420575 29783.57009705 0 9002.27464417 0 13152.26813455 0 1578.37323421 0 15445.29766090 0 24
0.00550000 0.00557378 31476.18288611 0 -9307.54690078 0 8520.96362737 0 20377.26090420 0 6844.16862283 0 45
0.00650000 0.00659388 43828.99382819 0 -11349.58992822 0 -7433.60078754 0 11041.03328441 0 -11599.37910872 0 40
0.00750000 0.00754703 56674.24315909 0 -6709.62957785 0 -12469.90648579 0 -13883.73082274 0 -26414.71153208 0 57
0.00850000 0.00846663 60343.41993843 0 7051.56833774 0 13886.91634879 0 -29863.42793972 0 -17828.84006533 0 75
0.00950000 0.00948925 62608.21911325 0 -168.47038968 0 14017.85245396 0 -18647.95964272 0 -19586.15198689 0 112
0.01050000 0.01054430 52751.76213601 0 -1647.35635002 0 34499.02741477 0 -9492.46119561 0 -18194.51648656 0 105
0.01150000 0.01145670 59007.80575827 0 9112.30710772 0 28655.34464722 0 -1224.21962962 0 -12868.31693332 0 144
0.01250000 0.01249090 60629.89759135 0 -2727.30460336 0 37492.76282609 0 6283.84557546 0 -10860.22721972 0 169
0.01350000 0.01339930 71335.79156631 0 -4350.87935374 0 42170.98244276 0 20005.21343087 0 -23193.70531405 0 180
0.01450000 0.01448870 62931.38523860 0 3604.26893996 0 45252.70428046 0 -1836.20312184 0 -3340.32064541 0 267
0.01550000 0.01550050 63114.05868062 0 1310.58033925 0 41981.16902855 0 -482.63026396 0 32647.35801474 0 238
0.01650000 0.01653350 74308.98582690 0 -11699.66825639 0 29287.61664501 0 31197.94366263 0 5623.22239584 0 315
0.01750000 0.01747870 75807.83075562 0 1002.90905199 0 40076.22445150 0 15946.74339924 0 12711.78677403 0 297
0.01850000 0.01844180 85570.91886592 0 6395.91018493 0 31168.72469956 0 -11480.85557057 0 8614.55218577 0 388
0.01950000 0.01947590 81216.85398613 0 2412.65152177 0 42959.89444555 0 -4786.00024284 0 9901.84523115 0 399
0.02050000 0.02045430 76793.69614480 0 -1550.61521930 0 43346.88093759 0 -5467.50509493 0 10649.12570385 0 462
0.02150000 0.02154770 74423.66476465 0 -2432.11618438 0 40381.92510644 0 12334.24701441 0 14768.31845271 0 571
0.02250000 0.02255340 73872.78844969 0 1751.78668155 0 48746.67712713 0 558.26234156 0 -9838.09077188 0 510
0.02350000 0.02348930 73356.29384692 0 10623.23506628 0 44175.77678458 0 -1703.27880904 0 2090.33120851 0 555
0.02450000 0.02439640 70881.79918152 0 7275.86232528 0 40751.99535670 0 6830.47086082 0 3479.19859655 0 592
0.02550000 0.02547300 68669.61610936 0 -3630.32434613 0 47107.55920654 0 4846.44834575 0 9027.78082170 0 837
0.02650000 0.02652900 67644.53579607 0 -4317.43133023 0 38791.35899666 0 7350.53544968 0 2847.22318223 0 723
0.02750000 0.02749970 65020.87063502 0 -1147.55829757 0 23871.01405942 0 12882.92641485 0 12802.51934356 0 826
0.02850000 0.02848090 69826.40144791 0 932.69895942 0 21961.12642470 0 3923.45865003 0 607.02066233 0 831
0.02950000 0.02946900 69607.14937918 0 1533.09482603 0 26031.78933190 0 -7780.37275937 0 -1555.28366265 0 996
0.03050000 0.03053250 64233.16693521 0 7242.98549954 0 30492.73410291 0 -1971.59896348 0 -2378.86297651 0 1041
0.03150000 0.03150510 58140.02452434 0 5553.40445251 0 33998.35059652 0 -5253.53660562 0 -986.11913280 0 1036
0.03250000 0.03246190 55751.42921653 0 -191.46659238 0 37153.66907051 0 -1396.67741915 0 -9565.80518674 0 1059
0.03350000 0.03345080 53008.80113442 0 735.66428720 0 33190.87466606 0 12471.22463450 0 -881.91618192 0 1302
0.03450000 0.03451200 55664.87078459 0 -1771.86648023 0 28816.15878982 0 4827.09352886 0 1103.34539293 0 1339
0.03550000 0.03553350 52572.49391149 0 212.37902166 0 22983.57044057 0 6113.45288557 0 2896.57686684 0 1365
0.03650000 0.03647120 54151.85575723 0 2419.07749673 0 26283.44588973 0 5378.04673583 0 6955.05788304 0 1308
0.03750000 0.03744890 50188.18258698 0 396.70454340 0 17843.22985541 0 302.33278499 0 8590.51794096 0 1579
0.03850000 0.03847530 48243.69354863 0 1638.90921371 0 16426.65937532 0 2207.14115334 0 1649.53129540 0 1662
0.03950000 0.03950240 49559.09611525 0 400.11964702 0 18737.92329216 0 4091.69836369 0 7037.03574821 0 1683
0.04050000 0.04050350 48602.66938059 0 621.23360080 0 18294.25640560 0 -564.77839001 0 1716.44931156 0 1822
0.04150000 0.04152450 44279.91053265 0 1639.56828806 0 14156.58760566 0 -2808.31582615 0 11278.51974362 0 1887
0.04250000 0.04250150 41664.70349249 0 2233.50412754 0 15300.96037718 0 1368.55691334 0 4305.02974779 0 1920
0.04350000 0.04349210 41072.85472180 0 763.23117055 0 18074.89449115 0 2655.00414663 0 4417.84130820 0 2005
0.04450000 0.04448520 40755.94980283 0 2248.01474792 0 17450.31169417 0 2621.34741624 0 1415.84549830 0 2151
0.04550000 0.04548030 39266.88114371 0 67.89080991 0 17170.64447625 0 134.17875100 0 8153.25506021 0 2274
0.04650000 0.04648670 39598.94477284 0 -1244.59601176 0 15306.67235492 0 2663.74786640 0 6314.53647125 0 2311
0.04750000 0.04749250 40076.22445150 0 -1348.86157470 0 14776.44703642 0 1939.78764128 0 5417.10787592 0 2568
0.04850000 0.04851840 39565.00244356 0 1554.59163457 0 12386.64342563 0 -628.15497998 0 4902.05225216 0 2493
0.04950000 0.04949480 37417.84804109 0 2466.25623596 0 13395.79610867 0 115.36437508 0 7736.07197814 0 2644
0.05050000 0.05050630 36603.12229273 0 447.89265163 0 16357.89595096 0 291.94247778 0 9429.82716275 0 2829
0.05150000 0.05149060 37357.54273762 0 -101.30961446 0 14732.17920892 0 2665.68115118 0 4013.05980858 0 2784
0.05250000 0.05249300 36072.67728278 0 77.77637601 0 16370.41836370 0 -229.17003931 0 6852.84643517 0 3055
0.05350000 0.05348950 35381.63782168 0 280.33727685 0 13754.22271200 0 -471.51387651 0 10602.29847094 0 3009
0.05450000 0.05448610 34621.28570760 0 929.48597194 0 17200.52251367 0 84.60087126 0 4832.58581515 0 3336
0.05550000 0.05550870 34581.52155486 0 1261.87474443 0 17050.36340649 0 915.20163376 0 7538.97579232 0 3349
0.05650000 0.05647670 33591.92141101 0 981.93730602 0 18529.54595029 0 770.14815591 0 4977.51626579 0 3324
0.05750000 0.05747970 33853.57392989 0 567.56627453 0 20068.59441466 0 -1889.18171540 0 8871.09687840 0 3639
0.05850000 0.05849280 31866.79428711 0 -10.71468163 0 19656.56309714 0 1060.57476267 0 5586.14946338 0 3846
0.05950000 0.05951020 32888.57922862 0 -214.67589579 0 20610.68307155 0 -1161.79430364 0 2812.14944198 0 3787
0.06050000 0.06049470 31360.29564538 0 1407.06882481 0 17630.01930160 0 1382.68307368 0 5022.57498252 0 3930
0.06150000 0.06148310 31805.72006355 0 -706.99235585 0 18531.96255626 0 2782.61192631 0 1383.43002461 0 4083
0.06250000 0.06249100 32655.48659845 0 -159.52125840 0 16881.20098873 0 424.78440629 0 1651.49753389 0 4303
0.06350000 0.06350600 31354.14428473 0 572.50164300 0 14064.64673315 0 1936.99755985 0 1032.83542153 0 4470
0.06450000 0.06451750 31476.07304039 0 -364.43296762 0 14076.83960872 0 1114.45079581 0 1771.47103562 0 4479
0.06550000 0.06550280 30414.19440895 0 36.30950467 0 10996.65561118 0 2524.40856321 0 -394.28024823 0 4636
0.06650000 0.06648880 31004.39549374 0 1098.55611929 0 11219.53258886 0 -118.68171600 0 13.34098309 0 4653
0.06750000 0.06749660 29603.75264390 0 715.05063830 0 11167.46571482 0 -995.32859845 0 359.13291135 0 5220
0.06850000 0.06852730 28203.87871413 0 964.36528526 0 13130.18914366 0 -868.14262636 0 -2760.47801255 0 5029
0.06950000 0.06949320 26908.57791534 0 595.73950629 0 11167.35586910 0 -135.73306802 0 -645.84892949 0 5040
0.07050000 0.07048030 27468.13204263 0 -445.82096124 0 11840.92985978 0 1642.55609181 0 -1703.94886796 0 5475
0.07150000 0.07148790 26968.11429873 0 -413.81301520 0 10678.78404982 0 2927.39957750 0 320.32112104 0 5509
0.07250000 0.07249820 28050.86361807 0 92.52360408 0 9100.46573847 0 709.01132029 0 -2708.89445971 0 5916
0.07350000 0.07351270 27074.22526987 0 1115.57122222 0 9503.90712024 0 -1125.05090835 0 752.50803080 0 5721
0.07450000 0.07449140 26096.37861867 0 724.68191154 0 10190.83835119 0 -629.26771718 0 1550.02205238 0 6028
0.07550000 0.07549160 25406.54746057 0 230.42777287 0 10175.15238154 0 753.44501484 0 1094.41823080 0 6183
0.07650000 0.07648840 25854.38848471 0 -470.39674548 0 9814.90233916 0 1316.31428614 0 830.04043945 0 6330
0.07750000 0.07749960 26249.50356046 0 -231.10771791 0 8846.24977522 0 1594.88304680 0 -88.82696587 0 6583
0.07850000 0.07848650 25960.06007294 0 234.18339823 0 8383.43677865 0 -1528.31653696 0 -90.50376088 0 6549
0.07950000 0.07947320 25090.96069030 0 552.83266733 0 9050.12344233 0 -827.12623235 0 302.96000408 0 6828
0.08050000 0.08048110 24883.35226852 0 368.06556577 0 8566.13218983 0 335.94667554 0 -257.37512632 0 7147
0.08150000 0.08149960 25616.57248832 0 51.84048199 0 9258.67653736 0 1275.01229323 0 -2139.42126338 0 7386
0.08250000 0.08250610 24150.13204871 0 189.17850591 0 7881.93611745 0 -156.57629449 0 -1555.90978328 0 7227
0.08350000 0.08350160 24679.58844713 0 270.37756489 0 8871.90973677 0 520.51605480 0 -704.09682252 0 7798
0.08450000 0.08449610 23708.33253949 0 312.66926778 0 7264.57018466 0 47.46236090 0 -348.44382377 0 7371
0.08550000 0.08548940 22847.58143202 0 1099.80836056 0 8768.05060302 0 -40.52285717 0 -724.74342514 0 8256
0.08650000 0.08650700 22101.28957084 0 507.48285943 0 8440.11717317 0 -77.99024564 0 -1029.69053840 0 8037
0.08750000 0.08749060 21465.83204701 0 554.89227469 0 8388.41279003 0 1374.73024313 0 1002.53777344 0 8155
0.08850000 0.08849210 20676.70035277 0 114.81844182 0 7706.38067846 0 796.85384877 0 509.08331165 0 8718
0.08950000 0.08949900 20366.05664017 0 463.29631776 0 7689.69511271 0 58.98979106 0 782.11804465 0 8571
0.09050000 0.09049190 20249.07094217 0 550.79063529 0 7729.26154314 0 -627.59366832 0 -99.08392036 0 8932
0.09150000 0.09150830 18733.09008022 0 90.82791561 0 7945.22922467 0 279.27726559 0 783.32415072 0 9285
0.09250000 0.09250820 18953.77014338 0 29.00619190 0 7211.80029798 0 714.31686885 0 322.42906052 0 9204
0.09350000 0.09350330 18782.08127394 0 32.99556897 0 7328.98371828 0 841.76976605 0 305.38320079 0 9349
0.09450000 0.09448040 19224.75954896 0 -277.11769862 0 5523.61429167 0 556.77063660 0 -454.54381033 0 9564
0.09550000 0.09549270 18912.02876757 0 579.11984798 0 6512.07203998 0 107.75206628 0 107.89816109 0 10155
0.09650000 0.09649430 17940.22363130 0 915.08739420 0 6203.94379450 0 -801.65850082 0 1417.59204534 0 9913
0.09750000 0.09749140 17875.63434452 0 174.77223897 0 6615.89822002 0 -4.75373855 0 468.66337993 0 10476
0.09850000 0.09850240 17491.28414990 0 -84.61635951 0 6997.83180867 0 1093.52848042 0 67.74054096 0 10575
0.09950000 0.09950330 17326.95494408 0 -307.38788529 0 6054.28997765 0 435.06706469 0 722.58056280 0 10882
0.10050000 0.10051200 17172.95123649 0 698.96043638 0 5539.03663158 0 -49.13355377 0 764.31754478 0 10875
0.10150000 0.10150300 16565.50437275 0 465.92822135 0 6182.12843335 0 -366.50355955 0 1366.19523023 0 11118
0.10250000 0.10250800 16191.69936780 0 358.79898034 0 6387.32024917 0 -20.02114106 0 -599.55994063 0 11575
0.10350000 0.10349800 16146.33308304 0 -66.15217177 0 6238.38042954 0 495.47342623 0 84.44763647 0 11364
0.10450000 0.10450100 15756.38075640 0 135.29148820 0 5946.83888866 0 73.94199126 0 310.84363182 0 12093
0.10550000 0.10551000 15457.60038219 0 9.27679010 0 5121.74370379 0 -44.39480916 0 -231.92826548 0 12067
0.10650000 0.10649700 15585.57065276 0 164.51814047 0 5548.04398109 0 869.27733271 0 -1173.20727455 0 12054
0.10750000 0.10749900 15444.30904937 0 243.67406894 0 5249.64806692 0 -287.34763107 0 -545.71576276 0 12807
0.10850000 0.10850100 14847.40737530 0 280.29663393 0 4876.90856552 0 -175.78611502 0 -1147.02005352 0 12736
0.10950000 0.10950300 14995.47941369 0 -1.57032154 0 5494.85668066 0 -297.73024907 0 -558.82255476 0 12933
0.11050000 0.11050200 14766.12153820 0 -119.13867422 0 4646.54010934 0 886.69227408 0 -1173.81142604 0 13428
0.11150000 0.11150900 14564.22509415 0 -15.27690416 0 4410.02029252 0 775.77445398 0 -929.18829003 0 13453
0.11250000 0.11250000 15059.18993467 0 48.78742989 0 3856.28798870 0 266.03646180 0 -739.98781497 0 13668
0.11350000 0.11349100 14557.96388778 0 406.49619140 0 4431.72580794 0 -494.98461275 0 -709.45399857 0 13791
0.11450000 0.11448600 14327.39770930 0 627.37837070 0 4862.14529997 0 -676.80455348 0 119.60332164 0 14205
0.11550000 0.11549300 13906.02950508 0 -347.33438194 0 4487.15396119 0 539.97742204 0 0.34824720 0 14776
0.11650000 0.11649800 14068.49133356 0 -72.71907879 0 4760.48308073 0 1308.24062529 0 -181.57718168 0 14553
0.11750000 0.11747300 14316.96236535 0 -183.94216016 0 4067.98267148 0 219.74527603 0 790.40151083 0 14568
0.11850000 0.11849100 14324.32202897 0 193.18787490 0 3920.55872287 0 -377.82096468 0 317.86387216 0 16015
0.11950000 0.11950300 14226.88887018 0 52.41233884 0 4279.87507658 0 -182.16595477 0 849.83903307 0 15270
0.12050000 0.12050700 13973.03539782 0 236.76367433 0 4276.75545797 0 -216.38619374 0 196.45139142 0 15999
0.12150000 0.12150000 14254.24045591 0 291.36468926 0 4957.22776023 0 -239.12865281 0 -476.45144189 0 15670
0.12250000 0.12250700 13600.43869586 0 137.83002292 0 4445.75310713 0 92.20955515 0 482.77416186 0 16887
0.12350000 0.12352200 13627.57059014 0 -160.45384861 0 4771.12713156 0 471.91371495 0 -79.26291822 0 16407
0.12450000 0.12449800 13781.13491483 0 95.29676928 0 4351.49448981 0 71.05491605 0 -707.47787396 0 16306
0.12550000 0.12549900 13671.72857192 0 329.79421644 0 4799.70898942 0 -585.18882433 0 -1027.85941015 0 17523
0.12650000 0.12650100 12842.28349630 0 93.68763924 0 4370.56370781 0 99.41971875 0 83.79954669 0 17154
0.12750000 0.12750600 12967.17808655 0 -52.47154569 0 4577.74373127 0 704.53510697 0 -422.22280397 0 18007
0.12850000 0.12850300 13161.49517551 0 210.68959440 0 4022.69327873 0 365.41279149 0 -275.13718019 0 17496
0.12950000 0.12949900 13043.30117454 0 126.42474121 0 3628.38007678 0 161.01625873 0 -655.76580162 0 18405
0.13050000 0.13049000 12796.91721154 0 29.84233756 0 4128.51865098 0 78.88702614 0 434.70237688 0 18100
0.13150000 0.13148800 12408.17318789 0 157.83622496 0 3522.79636513 0 -95.53161944 0 75.97259934 0 19059
0.13250000 0.13249300 12371.59456119 0 232.42586662 0 3771.86056384 0 -29.20501266 0 -369.30133018 0 18957
0.13350000 0.13349100 12078.63601045 0 198.56372472 0 3925.87525600 0 -55.94464785 0 -362.32063431 0 19468
0.13450000 0.13450700 11840.82001406 0 150.85223372 0 4181.87072001 0 34.31833120 0 -429.86257420 0 19953
0.13550000 0.13551000 11817.64256591 0 93.41368400 0 3831.69353069 0 66.02079628 0 -540.73425909 0 19956
0.13650000 0.13649900 11633.65097517 0 54.68208108 0 3649.74507045 0 65.39522487 0 -1057.70010003 0 19723
0.13750000 0.13749600 11817.31302873 0 19.95600255 0 3662.77277353 0 41.36207852 0 -1097.63451365 0 20946
0.13850000 0.13851100 11690.55106115 0 -52.62873492 0 3720.91411620 0 -16.72324284 0 -1010.91241158 0 20955
0.13950000 0.13949800 11599.92833735 0 -20.54982854 0 3176.05734702 0 229.33480790 0 -1295.48753653 0 20506
0.14050000 0.14048300 11625.30270001 0 123.51712485 0 3421.36482191 0 31.64732253 0 -1532.56756655 0 21447
0.14150000 0.14148400 11583.45147848 0 167.46200592 0 3145.70697298 0 133.42960315 0 -744.79576239 0 21771
0.14250000 0.14249400 11172.73830966 0 275.65894739 0 3435.05159935 0 105.17113111 0 -620.10987902 0 22470
0.14350000 0.14350900 11132.64461974 0 207.66993539 0 3539.84442177 0 70.67726644 0 -522.12199931 0 22519
0.14450000 0.14449900 10732.07021142 0 106.13755380 0 3326.18350049 0 440.19246625 0 57.49501042 0 22218
0.14550000 0.14550500 10493.33151093 0 153.44129747 0 3616.38492352 0 78.47213884 0 406.02165787 0 23559
0.14650000 0.14650700 10465.29888171 0 95.96671836 0 3312.67247622 0 209.55708496 0 1392.16275981 0 23044
0.14750000 0.14750500 10351.20212630 0 -1.66787553 0 3163.19441253 0 588.12939441 0 770.50515452 0 23649
0.14850000 0.14849900 10316.93025985 0 67.05235749 0 2914.78928818 0 78.25837905 0 851.43069764 0 23640
0.14950000 0.14949500 10402.80764829 0 100.37065320 0 2864.18336229 0 102.25538616 0 910.84185690 0 24457
0.15050000 0.15050000 10128.35810235 0 140.71237477 0 2788.14815089 0 -466.52688056 0 753.50433153 0 24591
0.15150000 0.15149900 9798.84289405 0 303.19507393 0 3195.12656503 0 -531.44680297 0 64.11958645 0 25020
0.15250000 0.15250500 9477.52217690 0 148.25438230 0 3307.00443677 0 63.09428645 0 456.33649258 0 25297
0.15350000 0.15350100 9484.64017993 0 -17.80687092 0 3088.93870188 0 487.72710564 0 26.76215356 0 25452
0.15450000 0.15450400 9699.25675903 0 -135.21789156 0 2947.08393157 0 329.00772104 0 15.64115259 0 26061
0.15550000 0.15549900 9635.77691408 0 103.99709999 0 2826.94566124 0 62.93841537 0 33.43440264 0 26128
0.15650000 0.15649500 9607.74428485 0 138.26171662 0 2627.13628599 0 1.33200026 0 439.92444268 0 26331
0.15750000 0.15749700 9774.47911206 0 -91.53015934 0 2623.34660845 0 74.02459524 0 -161.33041750 0 27345
0.15850000 0.15849900 9553.62329574 0 -93.46157673 0 2682.20194834 0 13.36119471 0 -136.06809748 0 26980
0.15950000 0.15949700 9421.20427328 0 193.70414981 0 2698.17351687 0 -401.62453346 0 -96.22705273 0 27777
0.16050000 0.16050000 9243.81441066 0 305.61936910 0 2780.56879581 0 -79.23941123 0 69.86276038 0 28224
0.16150000 0.16150500 9188.80367117 0 268.75624198 0 2960.00178892 0 206.42318641 0 123.52810942 0 28075
0.16250000 0.16249700 8869.83365256 0 70.46603311 0 3068.88087235 0 164.29735056 0 188.34257994 0 28590
0.16350000 0.16349900 8746.88333165 0 95.62993136 0 3011.44254232 0 56.86812087 0 -2.03488109 0 29163
0.16450000 0.16449100 8699.02354892 0 117.00656868 0 2980.18044875 0 228.29566733 0 84.75553404 0 28996
0.16550000 0.16550500 8341.92607887 0 165.57375789 0 3027.43608000 0 -498.50516826 0 144.72503913 0 30777
0.16650000 0.16650700 8243.53726226 0 150.88628589 0 2959.16696141 0 -29.82871669 0 426.53095333 0 29211
0.16750000 0.16749900 8104.69226483 0 -23.74996407 0 2994.24070166 0 404.61453412 0 120.45352756 0 30922
0.16850000 0.16850800 8124.83797094 0 -63.12339557 0 2654.37802599 0 396.78033695 0 277.35496539 0 30867
0.16950000 0.16949900 8382.01976879 0 59.14687045 0 2487.80796737 0 372.70654768 0 29.48632756 0 30852
0.17050000 0.17049200 8192.81050608 0 110.22029974 0 2318.78834906 0 31.36721593 0 450.83212326 0 31257
0.17150000 0.17149500 7893.55779524 0 155.66127959 0 2514.07208041 0 -243.02707762 0 758.50341052 0 32608
0.17250000 0.17250900 7886.83523682 0 97.66251667 0 2696.84438359 0 5.90593234 0 466.64990777 0 32361
0.17350000 0.17350400 7740.93814380 0 -4.95081277 0 2607.47390107 0 146.26287929 0 652.75712719 0 32508
0.17450000 0.17449800 7710.36807830 0 86.65839155 0 2655.02611577 0 114.46583704 0 568.34617919 0 32791
0.17550000 0.17549800 7825.00307776 0 42.89102118 0 2289.72317001 0 278.01513820 0 968.60093645 0 33633
0.17650000 0.17650100 7819.29110002 0 -68.61018957 0 2460.26964391 0 71.82010137 0 678.69609688 0 33984
0.17750000 0.17750300 7743.27785776 0 -0.74830094 0 2062.77091591 0 169.94232241 0 811.36446915 0 34069
0.17850000 0.17849800 7784.47000494 0 47.49806076 0 2195.16796923 0 58.05357594 0 286.56333259 0 34536
