### header ###
fiducial parameters:
Omega_m = 0.31
Omega_nu = 0
Omega_de = 0.69
Omega_k = 0
H_0 = 100
w_de = -1
zeff = 0
beta = 0
fgrowth = 0
b_1 = 2
gamma = 0.55
Lx = 3500 Ly = 3500 Lz = 3500
nx = 700 ny = 700 nz = 700
xoffset = -983.599254 yoffset = -42.9823471 zoffset = 800.977702
bins = 400 dk = 0.001
kx_ny = 0.628318531 ky_ny = 0.628318531 kz_ny = 0.628318531
############################
A(data) = 9.01575709 (not used)
A(ran) = 9.01046375 (used)
Ngal = 500811
weighted Ngal = 0
Nran = 25229228
weighted Nran = 0
SN(data) = 6748.42921
SN(ran) = 133.754127
SN(data+ran) = 6882.18334
############################
13 columns: k_central k_mean P_0(k) sigma^{lin}_{P_0(k)} P^img_1(k) sigma^{lin}_{P_1(k)} P_2(k) sigma^{lin}_{P_2(k)} P^img_3(k) sigma^{lin}_{P_3(k)} P_4(k) sigma^{lin}_{P_4(k)} N_modes
### header ###
0.00050000 0 0 0 0 0 0 0 0 0 0 0 0
0.00150000 0.00179520 39235.79480330 0 -12357.42446256 0 -30843.03212252 0 38766.86339980 0 -101773.93234348 0 3
0.00250000 0.00253879 82622.54973936 0 -36283.36138489 0 -32325.61988383 0 -23984.04531128 0 9843.24253642 0 6
0.00350000 0.00331552 66480.50063963 0 -5357.41770852 0 -12003.28184254 0 -26085.83342900 0 49129.15994441 0 7
0.00450000 0.00420575 79539.94913586 0 4302.60215725 0 -15921.47888230 0 -15981.67434005 0 19681.27838544 0 24
0.00550000 0.00557378 68422.68291774 0 6849.84764685 0 141.45603033 0 -18738.47252079 0 -6029.82733451 0 45
0.00650000 0.00659388 64782.06602710 0 586.50148075 0 10411.43053777 0 10233.99673686 0 -4348.02336487 0 40
0.00750000 0.00754703 75599.89279666 0 -5676.61840316 0 22026.70432301 0 710.26356157 0 -20110.88501910 0 57
0.00850000 0.00846663 71941.26120699 0 5106.87059251 0 10044.33710667 0 -18963.65625871 0 -8072.84798892 0 75
0.00950000 0.00948925 64626.63432507 0 3441.88400349 0 32899.78349266 0 -21691.12563065 0 6122.57008082 0 112
0.01050000 0.01054430 61302.26327906 0 6601.40956878 0 37715.63980377 0 9694.86293000 0 -18649.71717433 0 105
0.01150000 0.01145670 65007.57930220 0 2322.06175169 0 37157.95305381 0 3505.55058617 0 -4843.79007919 0 144
0.01250000 0.01249090 61298.41867865 0 2967.58114400 0 57026.95778467 0 6094.27382185 0 -19115.24336033 0 169
0.01350000 0.01339930 77039.53087917 0 -1201.64633296 0 56681.16343981 0 28339.09880261 0 22809.90434806 0 180
0.01450000 0.01448870 66664.38238464 0 -10290.62220852 0 35748.08316300 0 15211.76564782 0 30530.08164968 0 267
0.01550000 0.01550050 76142.20114500 0 1169.67024218 0 35720.62173154 0 7373.60305211 0 9726.02616241 0 238
0.01650000 0.01653350 71931.37509167 0 8587.22256918 0 31508.03814660 0 6369.09684326 0 20055.96215619 0 315
0.01750000 0.01747870 77768.02773276 0 2725.48116431 0 23937.25103209 0 8930.38061662 0 28337.45111672 0 297
0.01850000 0.01844180 68021.96570997 0 -6013.43835222 0 36740.20975854 0 8712.20503601 0 33615.42839633 0 388
0.01950000 0.01947590 68422.90260919 0 2496.71645573 0 21398.27692563 0 11746.79207276 0 29034.42224701 0 399
0.02050000 0.02045430 74087.75653511 0 -980.49722856 0 20285.86926032 0 3385.48920786 0 22348.77199110 0 462
0.02150000 0.02154770 66448.53553342 0 2035.25456159 0 9416.62370651 0 9676.10128003 0 30588.51957581 0 571
0.02250000 0.02255340 68751.56102082 0 797.28114864 0 13148.97276277 0 7225.10261538 0 34516.38303945 0 510
0.02350000 0.02348930 68292.07634974 0 3367.34269396 0 15011.51688966 0 -2514.03912669 0 13642.50960885 0 555
0.02450000 0.02439640 65243.30822979 0 3838.73464171 0 17679.44987822 0 -3743.11393739 0 22917.22362218 0 592
0.02550000 0.02547300 59629.53256637 0 1124.79826318 0 19900.96983707 0 -2301.25697122 0 9644.30094240 0 837
0.02650000 0.02652900 60586.06914675 0 -567.20927593 0 21619.61606315 0 -2746.43972880 0 21966.17932809 0 723
0.02750000 0.02749970 58076.53369482 0 -2844.22439391 0 16402.82285282 0 6340.87747630 0 5693.30396891 0 826
0.02850000 0.02848090 63242.57817983 0 785.47602849 0 18922.46411153 0 3195.34625648 0 10331.86927856 0 831
0.02950000 0.02946900 59696.64830484 0 3481.93375512 0 16020.99910989 0 -4561.21194953 0 -493.84002028 0 996
0.03050000 0.03053250 57614.30288060 0 2886.53696750 0 28299.66418704 0 -4561.94791589 0 3976.38232073 0 1041
0.03150000 0.03150510 52515.70367124 0 3434.12889525 0 29869.90883754 0 -4141.75506094 0 -1142.09896500 0 1036
0.03250000 0.03246190 54062.22164497 0 1623.99216414 0 32126.03020003 0 -2483.19444688 0 -6053.18053582 0 1059
0.03350000 0.03345080 51790.06280652 0 -855.28298724 0 33363.66199277 0 4433.02198751 0 526.47518542 0 1302
0.03450000 0.03451200 53102.71922999 0 -577.66109674 0 30630.15110590 0 5260.17128746 0 -4856.37839937 0 1339
0.03550000 0.03553350 53143.80153144 0 193.84804771 0 27277.98909125 0 3041.81488551 0 5626.44087561 0 1365
0.03650000 0.03647120 51872.77663805 0 997.31131381 0 27701.11482708 0 1497.58170288 0 -2235.60218090 0 1308
0.03750000 0.03744890 52333.03022921 0 2278.63973627 0 30766.24996018 0 -2640.73518685 0 722.70249156 0 1579
0.03850000 0.03847530 48129.78353096 0 1804.94102828 0 29272.78747202 0 3662.62997409 0 2071.09722192 0 1662
0.03950000 0.03950240 49458.80696758 0 308.61046822 0 33896.19407151 0 3265.25207638 0 4939.42176808 0 1683
0.04050000 0.04050350 43385.32694163 0 2325.12644744 0 26818.83395735 0 3592.94384563 0 7625.07287221 0 1822
0.04150000 0.04152450 43886.99237142 0 854.94905624 0 28567.57791230 0 6680.21289248 0 7802.77030286 0 1887
0.04250000 0.04250150 46683.00547627 0 -1453.98393430 0 23848.16614845 0 4312.37842685 0 8973.25340341 0 1920
0.04350000 0.04349210 42617.50531819 0 1189.64019513 0 21896.97652083 0 1925.51868150 0 10424.77679345 0 2005
0.04450000 0.04448520 40762.97992928 0 711.58500565 0 18615.88469078 0 2054.20294929 0 16948.42657293 0 2151
0.04550000 0.04548030 40991.23934752 0 -19.53716079 0 19581.20892923 0 459.26388117 0 12091.48796037 0 2274
0.04650000 0.04648670 39498.43593372 0 987.98651014 0 17806.76107444 0 4121.68624683 0 10230.27296675 0 2311
0.04750000 0.04749250 41566.39156788 0 1387.09887185 0 16088.11484836 0 1253.12004008 0 6268.44520470 0 2568
0.04850000 0.04851840 40698.61033396 0 -1500.32784602 0 16705.44782743 0 -1756.77367751 0 7028.67648848 0 2493
0.04950000 0.04949480 38693.92583786 0 -110.38396987 0 14672.75267126 0 3913.52859642 0 4492.52541718 0 2644
0.05050000 0.05050630 38355.82069381 0 2061.01338429 0 13626.36228716 0 -2978.48882458 0 3692.81557954 0 2829
0.05150000 0.05149060 37001.97212316 0 1592.75203972 0 15526.69334373 0 -1847.76987677 0 1056.62580883 0 2784
0.05250000 0.05249300 35483.35496379 0 1473.75616495 0 17169.54601899 0 -55.29985344 0 742.70100440 0 3055
0.05350000 0.05348950 34396.98073549 0 -22.96127176 0 13380.96693569 0 1656.77012873 0 396.36072628 0 3009
0.05450000 0.05448610 33669.25280198 0 91.28048000 0 15526.36380655 0 3114.88426232 0 663.80321338 0 3336
0.05550000 0.05550870 33035.99219266 0 19.03241968 0 14170.09862993 0 1768.14271013 0 2863.15081247 0 3349
0.05650000 0.05647670 32873.42051846 0 108.41114063 0 10367.23960227 0 1341.19434304 0 3291.43929742 0 3324
0.05750000 0.05747970 32774.77905668 0 625.76803236 0 10660.95608852 0 816.86114927 0 3023.28391156 0 3639
0.05850000 0.05849280 32433.70807803 0 893.91682747 0 11538.52457662 0 607.91260963 0 4769.91882858 0 3846
0.05950000 0.05951020 32247.29988132 0 -235.52131917 0 11463.82948307 0 401.82445268 0 5348.52020473 0 3787
0.06050000 0.06049470 31995.31378631 0 -1371.61062451 0 11529.84676428 0 1368.04063843 0 3826.02549124 0 3930
0.06150000 0.06148310 32688.76985337 0 1073.74636366 0 11381.44518871 0 331.48144679 0 3066.82675728 0 4083
0.06250000 0.06249100 32466.11256714 0 1137.65021310 0 12567.11995314 0 -2325.78552179 0 4652.14224136 0 4303
0.06350000 0.06350600 31158.06966416 0 874.19512586 0 14413.18722116 0 -1555.25070893 0 3126.61578584 0 4470
0.06450000 0.06451750 30114.42542320 0 163.73274353 0 14919.02678853 0 76.96494563 0 1414.27470442 0 4479
0.06550000 0.06550280 29851.67444706 0 504.16881388 0 15456.06254203 0 -1016.45852227 0 -625.03755828 0 4636
0.06650000 0.06648880 29237.96637694 0 1062.15434421 0 16157.53734708 0 -26.15910053 0 1159.01520678 0 4653
0.06750000 0.06749660 28715.54010497 0 286.63692922 0 15078.30309096 0 1085.48997020 0 -24.60917734 0 5220
0.06850000 0.06852730 28260.00988002 0 249.59804894 0 16221.46755950 0 1053.57429457 0 -1333.69187996 0 5029
0.06950000 0.06949320 27868.95909613 0 365.03602065 0 13755.54086071 0 675.71488388 0 -976.37142309 0 5040
0.07050000 0.07048030 26997.66279897 0 -408.76889947 0 12485.17504168 0 2707.94978647 0 1141.36299864 0 5475
0.07150000 0.07148790 27323.68491319 0 155.20322292 0 11972.08565641 0 916.81636593 0 543.01026253 0 5509
0.07250000 0.07249820 26929.11906607 0 856.95703610 0 10727.70933610 0 725.68040918 0 672.41401982 0 5916
0.07350000 0.07351270 26280.15051796 0 -165.51773657 0 10647.75263228 0 1195.05558941 0 2009.34195487 0 5721
0.07450000 0.07449140 27135.84872205 0 -328.96048738 0 10619.75295677 0 473.36148162 0 779.96616688 0 6028
0.07550000 0.07549160 26624.62671411 0 411.26898819 0 8827.48812525 0 -14.11616438 0 655.77349082 0 6183
0.07650000 0.07648840 25851.09311293 0 432.71197233 0 10033.30859580 0 -1002.46857063 0 608.31903881 0 6330
0.07750000 0.07749960 25512.10920307 0 122.24840672 0 9565.13512781 0 518.38944155 0 -339.31015167 0 6583
0.07850000 0.07848650 25623.27307760 0 507.40377051 0 10296.32320169 0 1338.90955194 0 607.17554481 0 6549
0.07950000 0.07947320 25213.76821176 0 361.36497649 0 9171.10752474 0 485.03588536 0 643.66849184 0 6828
0.08050000 0.08048110 25117.98273885 0 -25.11655474 0 9788.71511813 0 -94.69426547 0 1141.18724548 0 7147
0.08150000 0.08149960 23475.13006359 0 506.17679375 0 8642.71662986 0 548.85075977 0 1606.09829541 0 7386
0.08250000 0.08250610 23751.83144691 0 643.49273867 0 9326.52824220 0 1336.47097683 0 2336.31972690 0 7227
0.08350000 0.08350160 23253.24169745 0 350.51551416 0 9408.28641592 0 10.30122232 0 2005.21175558 0 7798
0.08450000 0.08449610 22395.23673312 0 204.54702141 0 8522.56737497 0 -240.46657375 0 396.33985559 0 7371
0.08550000 0.08548940 22363.16178118 0 743.11951661 0 9216.38593292 0 -206.24303942 0 1786.69565322 0 8256
0.08650000 0.08650700 21010.52151351 0 562.24754449 0 9347.09136207 0 -907.34766436 0 577.42602688 0 8037
0.08750000 0.08749060 20254.45338274 0 33.99000232 0 8838.43974412 0 459.25289660 0 860.28316468 0 8155
0.08850000 0.08849210 21112.01896416 0 -45.59674109 0 8264.36401187 0 2539.11690590 0 -463.21722884 0 8718
0.08950000 0.08949900 21005.79814730 0 -137.17094857 0 7542.08442636 0 163.49547676 0 410.92846644 0 8571
0.09050000 0.09049190 20643.74663502 0 299.16812962 0 6363.52766496 0 252.31563219 0 -740.46234851 0 8932
0.09150000 0.09150830 20067.71564886 0 474.03263900 0 7241.83211942 0 -1006.25165743 0 -396.94400709 0 9285
0.09250000 0.09250820 19420.94401527 0 499.35098035 0 6618.61140944 0 -356.76683441 0 -906.83798020 0 9204
0.09350000 0.09350330 18700.46589966 0 248.34690612 0 7613.42922527 0 805.02856768 0 -243.99152309 0 9349
0.09450000 0.09448040 18937.95235886 0 142.21396584 0 6852.04456137 0 233.21016510 0 -1706.20070534 0 9564
0.09550000 0.09549270 18602.37366650 0 368.30722637 0 7346.53706527 0 -40.79571396 0 -990.12850179 0 10155
0.09650000 0.09649430 18062.26223268 0 152.26924358 0 7214.09607365 0 240.09090137 0 297.86755623 0 9913
0.09750000 0.09749140 17773.58766524 0 66.07769636 0 6978.08154717 0 1087.10580083 0 579.37578852 0 10476
0.09850000 0.09850240 18052.15642591 0 -201.52406703 0 6163.76222800 0 449.65347862 0 212.62507609 0 10575
0.09950000 0.09950330 17988.11636776 0 468.43490082 0 6529.24092692 0 147.58212646 0 31.03855751 0 10882
0.10050000 0.10051200 17261.48689150 0 242.44489527 0 6863.41359399 0 -495.44266942 0 719.20610211 0 10875
0.10150000 0.10150300 17414.39214183 0 223.15488736 0 6266.32518219 0 386.04291726 0 608.36187864 0 11118
0.10250000 0.10250800 16993.90270342 0 251.27429471 0 6363.78031013 0 251.18092585 0 -359.86668079 0 11575
0.10350000 0.10349800 16355.69903644 0 272.94685642 0 5787.87015426 0 -262.32807010 0 811.45783802 0 11364
0.10450000 0.10450100 15916.20628746 0 537.65528340 0 6514.44470766 0 643.56853222 0 711.17418263 0 12093
0.10550000 0.10551000 15312.27448694 0 141.58564829 0 6297.23576943 0 695.31136137 0 323.48577641 0 12067
0.10650000 0.10649700 15239.44677073 0 177.97643879 0 5589.17022084 0 401.32795000 0 1477.55682706 0 12054
0.10750000 0.10749900 15022.39161652 0 -20.32618264 0 5583.93057972 0 597.38938909 0 2091.31982004 0 12807
0.10850000 0.10850100 14675.05943150 0 170.35314542 0 5563.56518215 0 -11.76557569 0 2388.65023068 0 12736
0.10950000 0.10950300 14801.60170763 0 320.33759790 0 4764.58032630 0 305.78413769 0 1409.19983189 0 12933
0.11050000 0.11050200 14429.55423430 0 61.35696645 0 5454.33459240 0 -486.03657992 0 1549.38494717 0 13428
0.11150000 0.11150900 14121.21728195 0 313.35031128 0 5352.59548115 0 -526.90687912 0 845.14093138 0 13453
0.11250000 0.11250000 13932.61217072 0 20.02498566 0 5567.81621174 0 468.59747249 0 1122.95285499 0 13668
0.11350000 0.11349100 14246.44140937 0 90.47509114 0 5357.17604792 0 34.04173966 0 24.15024189 0 13791
0.11450000 0.11448600 13765.97620467 0 205.88164698 0 5133.56310388 0 -365.48858504 0 398.14352241 0 14205
0.11550000 0.11549300 13782.34321781 0 47.23454087 0 5308.41553023 0 398.26325425 0 -221.64450863 0 14776
0.11650000 0.11649800 13879.33699370 0 -90.47421237 0 5356.09955981 0 -179.16826492 0 -39.96286366 0 14553
0.11750000 0.11747300 13555.29210255 0 166.45911444 0 4949.06622281 0 709.15741511 0 -432.09463935 0 14568
0.11850000 0.11849100 13868.24257540 0 -315.05841232 0 4921.57183764 0 -91.92527441 0 -245.30637643 0 16015
0.11950000 0.11950300 14371.77538253 0 22.46421985 0 4724.91503471 0 409.75311717 0 -336.57279618 0 15270
0.12050000 0.12050700 13948.64964669 0 39.97956021 0 4246.81151311 0 63.02090951 0 -167.55537478 0 15999
0.12150000 0.12150000 14332.01122978 0 152.63832522 0 4705.72498641 0 347.56505796 0 238.86062924 0 15670
0.12250000 0.12250700 14249.29739824 0 -32.75050315 0 4624.30733444 0 -18.55832553 0 -238.35753581 0 16887
0.12350000 0.12352200 13897.68122992 0 -44.34867396 0 4317.32148451 0 469.47513984 0 307.04956045 0 16407
0.12450000 0.12449800 13582.09445965 0 147.03070092 0 4107.48319449 0 209.81302550 0 760.98153009 0 16306
0.12550000 0.12549900 13648.11174087 0 171.27804643 0 4134.29653616 0 70.41407608 0 580.86090273 0 17523
0.12650000 0.12650100 13365.47868835 0 379.25774677 0 3895.84343456 0 294.01636508 0 273.58835545 0 17154
0.12750000 0.12750600 13098.22403745 0 391.86144535 0 4017.71726735 0 -188.02951962 0 924.23534625 0 18007
0.12850000 0.12850300 12783.95541589 0 -19.83429348 0 3902.23645580 0 673.36198844 0 1480.02835589 0 17496
0.12950000 0.12949900 12744.63064605 0 -72.06417857 0 3601.19325964 0 359.10325300 0 297.77638428 0 18405
0.13050000 0.13049000 12475.17908063 0 286.06573145 0 3406.71140209 0 -344.84088396 0 647.30877919 0 18100
0.13150000 0.13148800 12129.60442722 0 407.86267223 0 3678.06329856 0 -577.14262491 0 461.54647535 0 19059
0.13250000 0.13249300 11804.79061599 0 142.96201523 0 4159.78074455 0 -63.61198936 0 338.90262402 0 18957
0.13350000 0.13349100 11863.88761648 0 -31.56054440 0 3989.55282325 0 114.84919862 0 -137.80365995 0 19468
0.13450000 0.13450700 11651.55582848 0 160.43517484 0 4127.95843778 0 -193.99414253 0 -206.26830393 0 19953
0.13550000 0.13551000 11722.95555026 0 128.77763666 0 3871.87509719 0 61.20428089 0 -533.20213767 0 19956
0.13650000 0.13649900 11443.39817807 0 -25.76793990 0 4131.59433130 0 90.89569042 0 -138.73844707 0 19723
0.13750000 0.13749600 11521.60833485 0 -109.14853499 0 3731.82179678 0 594.08193429 0 -219.26195484 0 20946
0.13850000 0.13851100 11518.64250025 0 62.27033366 0 3683.48967742 0 328.20584724 0 -374.85403162 0 20955
0.13950000 0.13949800 11589.71268485 0 326.40327888 0 3492.39106822 0 5.33586598 0 98.36673762 0 20506
0.14050000 0.14048300 11293.34891660 0 158.58647127 0 3873.28112248 0 -306.63104824 0 258.06605594 0 21447
0.14150000 0.14148400 10938.17374676 0 74.18475031 0 3703.47061495 0 -114.46583704 0 261.39767680 0 21771
0.14250000 0.14249400 11000.17067441 0 123.01183451 0 3868.51381798 0 337.62841360 0 -244.32545410 0 22470
0.14350000 0.14350900 10812.97158848 0 -35.94119195 0 3424.17687249 0 109.12360001 0 408.58545711 0 22519
0.14450000 0.14449900 10787.23473492 0 17.98416192 0 3350.98666538 0 362.56119645 0 308.99163288 0 22218
0.14550000 0.14550500 10520.68309666 0 277.44723580 0 3346.37314490 0 102.17827446 0 -139.40630909 0 23559
0.14650000 0.14650700 10334.26391538 0 320.59463690 0 3629.47853404 0 -211.03341152 0 531.06453985 0 23044
0.14750000 0.14750500 10166.91395211 0 157.73736381 0 3487.09650424 0 -177.53815435 0 -152.56472858 0 23649
0.14850000 0.14849900 9710.58185336 0 33.35696140 0 3565.41650674 0 -289.10955651 0 38.52718003 0 23640
0.14950000 0.14949500 9737.14254986 0 101.10134696 0 3668.24309068 0 341.00836659 0 -644.65820182 0 24457
0.15050000 0.15050000 9759.73781566 0 100.84738365 0 3438.30303283 0 178.43449547 0 -109.47290942 0 24591
0.15150000 0.15149900 9513.89209672 0 99.22111768 0 3176.27703848 0 100.80750965 0 -323.85375959 0 25020
0.15250000 0.15250500 9447.56724747 0 153.27872580 0 3399.04417043 0 235.63665719 0 75.86418161 0 25297
0.15350000 0.15350100 9358.09790380 0 95.83644133 0 3233.78127594 0 185.81612824 0 166.91936803 0 25452
0.15450000 0.15450400 9240.82660692 0 145.81361027 0 3246.86390188 0 36.91772045 0 540.38604814 0 26061
0.15550000 0.15549900 9133.30961049 0 -45.25523073 0 3164.42468466 0 98.53963479 0 543.03552705 0 26128
0.15650000 0.15649500 9093.00721369 0 22.92853773 0 3114.02746566 0 174.54705523 0 608.06090136 0 26331
0.15750000 0.15749700 9105.15615097 0 -35.95700973 0 2960.50707926 0 28.98125692 0 660.94063376 0 27345
0.15850000 0.15849900 9115.50361834 0 0.35091096 0 2955.95946621 0 93.59097500 0 520.38643684 0 26980
0.15950000 0.15949700 9188.74874831 0 29.03552070 0 2859.45999608 0 265.85301944 0 285.00462174 0 27777
0.16050000 0.16050000 9358.05396551 0 -11.11825483 0 2740.73873563 0 24.18879774 0 423.89355746 0 28224
0.16150000 0.16150500 9293.76126219 0 62.31207504 0 2600.76232722 0 150.05365529 0 422.34583118 0 28075
0.16250000 0.16249700 9241.24402068 0 15.45408532 0 2463.87258371 0 302.26577909 0 666.52519046 0 28590
0.16350000 0.16349900 9153.54319319 0 60.33946549 0 2604.26640588 0 -41.36076037 0 658.80962668 0 29163
0.16450000 0.16449100 8938.10277115 0 221.01728954 0 2392.49483108 0 101.27380475 0 811.65336341 0 28996
0.16550000 0.16550500 8790.75571454 0 215.17020155 0 2669.41590586 0 -214.92634404 0 585.84240640 0 30777
0.16650000 0.16650700 8589.71606716 0 134.61154316 0 2581.31963375 0 -126.92563772 0 946.59883757 0 29211
0.16750000 0.16749900 8424.44218810 0 3.65286469 0 2944.87603248 0 225.75932952 0 505.63305741 0 30922
0.16850000 0.16850800 8401.57230799 0 155.88756179 0 2624.18143597 0 23.37396215 0 712.70762897 0 30867
0.16950000 0.16949900 8371.07913450 0 28.01351607 0 2608.30872859 0 124.21244829 0 595.60659296 0 30852
0.17050000 0.17049200 8115.97342087 0 -46.37115346 0 2166.69595710 0 -1.00820142 0 471.00529080 0 31257
0.17150000 0.17149500 8272.19601212 0 121.21695535 0 2490.80675568 0 99.89513105 0 631.39982272 0 32608
0.17250000 0.17250900 8097.34358577 0 227.30705580 0 2327.10367050 0 -37.39719704 0 65.49595340 0 32361
0.17350000 0.17350400 7924.46838249 0 128.74687985 0 2447.05520309 0 -94.20116801 0 92.08444087 0 32508
0.17450000 0.17449800 7709.95066455 0 126.30610783 0 2598.82904245 0 -190.62627258 0 -35.12481851 0 32791
0.17550000 0.17549800 7583.67201815 0 13.81046372 0 2599.51008595 0 -5.99364415 0 81.41556490 0 33633
0.17650000 0.17650100 7514.74382520 0 3.46287552 0 2239.91911792 0 393.35205185 0 -304.62306837 0 33984
0.17750000 0.17750300 7568.32657026 0 -11.11419054 0 2205.33968344 0 276.24332665 0 61.36707226 0 34069
0.17850000 0.17849800 7447.97959305 0 90.54890747 0 1967.93011624 0 184.38593689 0 282.01791645 0 34536
