### header ###
fiducial parameters:
Omega_m = 0.31
Omega_nu = 0
Omega_de = 0.69
Omega_k = 0
H_0 = 100
w_de = -1
zeff = 0
beta = 0
fgrowth = 0
b_1 = 2
gamma = 0.55
Lx = 3500 Ly = 3500 Lz = 3500
nx = 700 ny = 700 nz = 700
xoffset = -983.599254 yoffset = -42.9823471 zoffset = 800.977702
bins = 400 dk = 0.001
kx_ny = 0.628318531 ky_ny = 0.628318531 kz_ny = 0.628318531
############################
A(data) = 9.04694426 (not used)
A(ran) = 9.05016293 (used)
Ngal = 502685
weighted Ngal = 0
Nran = 25229228
weighted Nran = 0
SN(data) = 6730.77691
SN(ran) = 134.343434
SN(data+ran) = 6865.12035
############################
13 columns: k_central k_mean P_0(k) sigma^{lin}_{P_0(k)} P^img_1(k) sigma^{lin}_{P_1(k)} P_2(k) sigma^{lin}_{P_2(k)} P^img_3(k) sigma^{lin}_{P_3(k)} P_4(k) sigma^{lin}_{P_4(k)} N_modes
### header ###
0.00050000 0 0 0 0 0 0 0 0 0 0 0 0
0.00150000 0.00179520 31402.58624982 0 -29298.16183468 0 -42980.32575055 0 55232.62785351 0 -2106.42360734 0 3
0.00250000 0.00253879 53052.95911619 0 -23165.91434542 0 -9685.53702787 0 -47194.00779276 0 -25503.98061936 0 6
0.00350000 0.00331552 64525.02702870 0 -12376.31792740 0 -22300.54971747 0 -100645.15766502 0 -31670.93935798 0 7
0.00450000 0.00420575 54799.61600235 0 3938.78212878 0 -36653.76117233 0 -8665.85013972 0 18091.26150429 0 24
0.00550000 0.00557378 62883.82203932 0 -13434.13226698 0 -39500.52300251 0 -1722.38098075 0 7365.47446840 0 45
0.00650000 0.00659388 67550.72754623 0 -4546.39376112 0 -6696.40415247 0 -6797.08874475 0 -16407.21668185 0 40
0.00750000 0.00754703 85652.53424020 0 -1839.57538562 0 -47344.49643712 0 -29670.09946229 0 -37179.81235325 0 57
0.00850000 0.00846663 71978.49890804 0 1731.30045369 0 -10442.65967762 0 -20914.73604060 0 -20513.79914138 0 75
0.00950000 0.00948925 77824.48843583 0 4834.96946740 0 -8857.13548665 0 -25108.31631498 0 -12535.59422983 0 112
0.01050000 0.01054430 67254.58346944 0 -565.86915807 0 16336.03665152 0 -20266.09702967 0 -19888.77696151 0 105
0.01150000 0.01145670 64513.49322749 0 6495.89176457 0 20222.26858508 0 -15157.83139645 0 -43931.80942755 0 144
0.01250000 0.01249090 64761.85441355 0 2169.87049857 0 28341.73510003 0 355.39486130 0 -28065.47309961 0 169
0.01350000 0.01339930 71757.81884488 0 -1862.54412689 0 33499.21161842 0 4182.18927261 0 -19753.00764440 0 180
0.01450000 0.01448870 70470.75647553 0 2535.45904323 0 36312.47050223 0 3610.39833146 0 -10456.35743962 0 267
0.01550000 0.01550050 65587.01550586 0 -376.57641261 0 27302.81422528 0 -9349.94735094 0 -12279.32415151 0 238
0.01650000 0.01653350 62940.94181674 0 9978.45164033 0 54234.78928022 0 4675.26476664 0 -15922.57733956 0 315
0.01750000 0.01747870 56008.24852348 0 1741.87859709 0 39532.37826300 0 5783.11383434 0 10773.48205005 0 297
0.01850000 0.01844180 63849.58566067 0 -4821.30465911 0 39905.30450213 0 16776.29832058 0 -13511.79319513 0 388
0.01950000 0.01947590 67054.66424845 0 -2101.97485545 0 37094.46222429 0 1473.41564320 0 7223.35606834 0 399
0.02050000 0.02045430 65289.22374318 0 1732.50875667 0 33040.05648452 0 -1389.09806406 0 6881.39533931 0 462
0.02150000 0.02154770 68254.94849442 0 -3785.95377046 0 25483.65916009 0 14509.63176842 0 5292.27919311 0 571
0.02250000 0.02255340 72598.68787598 0 -5429.35567435 0 25387.54415000 0 1788.84862944 0 -15218.46623710 0 510
0.02350000 0.02348930 71502.75706954 0 6137.25645436 0 17416.36936490 0 1549.37396260 0 4489.96601177 0 555
0.02450000 0.02439640 73148.90511658 0 2851.89162558 0 24534.48224333 0 -2426.10762318 0 6497.33074357 0 592
0.02550000 0.02547300 61462.41834729 0 2820.79430060 0 25597.56917776 0 -2431.87452378 0 1099.34700851 0 837
0.02650000 0.02652900 64880.37795170 0 6711.33218660 0 28141.59618759 0 2419.60475621 0 -3753.74700365 0 723
0.02750000 0.02749970 53241.89376459 0 400.99182208 0 26269.38563683 0 -5050.92616435 0 -1295.69624340 0 826
0.02850000 0.02848090 57449.42444615 0 -330.26215923 0 27629.05603095 0 8294.38484874 0 164.49836823 0 831
0.02950000 0.02946900 56765.52495724 0 -4103.17724203 0 21228.34558780 0 9537.26726717 0 -1434.21170366 0 996
0.03050000 0.03053250 58769.77007043 0 -1983.84676191 0 10181.95183197 0 5122.29293241 0 393.53878959 0 1041
0.03150000 0.03150510 56698.73875594 0 3139.80825751 0 13268.81444963 0 -1875.68167570 0 -1202.65691364 0 1036
0.03250000 0.03246190 55873.68750936 0 5036.60228171 0 16718.29977735 0 -7698.73541594 0 -6146.47251075 0 1059
0.03350000 0.03345080 53680.50774777 0 3478.17703130 0 22160.82595423 0 -1278.82393992 0 -6039.60360411 0 1302
0.03450000 0.03451200 49641.04102670 0 1897.29931454 0 22635.90871837 0 -2264.72228281 0 -3246.73208701 0 1339
0.03550000 0.03553350 46662.79386272 0 -1584.43671828 0 19844.61897973 0 7573.74196454 0 -2754.86489597 0 1365
0.03650000 0.03647120 51784.57052023 0 -3775.55138022 0 19872.51979409 0 9818.94466187 0 236.58023197 0 1308
0.03750000 0.03744890 49593.36798170 0 589.82431396 0 14854.32765602 0 909.67529529 0 -181.88035589 0 1579
0.03850000 0.03847530 47340.32229954 0 4019.77138242 0 15498.79252937 0 -4136.89987986 0 4410.55853658 0 1662
0.03950000 0.03950240 45340.91039828 0 2478.21843550 0 16246.73207644 0 2953.33415337 0 2959.19991512 0 1683
0.04050000 0.04050350 43719.69733100 0 1127.15994629 0 21662.45589622 0 -1757.45472101 0 4779.99168163 0 1822
0.04150000 0.04152450 41459.07229376 0 826.36170609 0 17856.08180533 0 2663.72589726 0 7052.19445838 0 1887
0.04250000 0.04250150 41642.73434732 0 -974.19208389 0 19356.79411139 0 5160.38743013 0 6954.32191668 0 1920
0.04350000 0.04349210 40477.49088789 0 6.71091477 0 14087.82418130 0 3322.04231663 0 7713.72935751 0 2005
0.04450000 0.04448520 41227.40765802 0 830.34910594 0 16777.94600647 0 -1126.38004164 0 11488.54477138 0 2151
0.04550000 0.04548030 41334.06785779 0 893.26544231 0 15107.19251685 0 119.41658390 0 4914.22315858 0 2274
0.04650000 0.04648670 41117.67177794 0 33.37640410 0 14457.56489439 0 2034.61745638 0 9601.36224818 0 2311
0.04750000 0.04749250 39164.72461870 0 -850.38386787 0 12289.64964973 0 4362.68776927 0 9575.98788552 0 2568
0.04850000 0.04851840 40776.82049074 0 490.50949788 0 12193.75433110 0 448.17385669 0 9015.41219298 0 2493
0.04950000 0.04949480 39114.96450491 0 2037.92381273 0 12671.25370121 0 -2485.54514542 0 8172.15950962 0 2644
0.05050000 0.05050630 37582.94616699 0 917.86649107 0 15027.55436563 0 -1384.93491106 0 7273.91805593 0 2829
0.05150000 0.05149060 37125.65841042 0 1397.55618495 0 14774.79935054 0 -1110.49634968 0 4065.80772611 0 2784
0.05250000 0.05249300 35334.73369676 0 884.45361819 0 18548.87879803 0 -2073.70056562 0 2244.47771555 0 3055
0.05350000 0.05348950 34524.40177744 0 983.78710804 0 18313.25971616 0 2617.25017067 0 3869.21683062 0 3009
0.05450000 0.05448610 35589.13639775 0 -987.86897521 0 16889.32957244 0 3265.31798382 0 1609.78911180 0 3336
0.05550000 0.05550870 34614.69496405 0 81.46093119 0 14642.10571375 0 622.22990153 0 -327.87521161 0 3349
0.05650000 0.05647670 34206.94762984 0 995.55488065 0 13879.99606806 0 370.94352379 0 900.89312952 0 3324
0.05750000 0.05747970 33149.02344453 0 429.59564908 0 14054.32123493 0 -1599.57345930 0 676.28278629 0 3639
0.05850000 0.05849280 32025.85089808 0 603.15189587 0 13917.56330629 0 1376.22414500 0 336.82324443 0 3846
0.05950000 0.05951020 32082.64113833 0 17.20623449 0 11594.65574251 0 1228.34982891 0 -1550.48340443 0 3787
0.06050000 0.06049470 32109.22380398 0 -584.78019823 0 11663.85854977 0 1691.16282548 0 -1045.23041323 0 3930
0.06150000 0.06148310 32369.22863698 0 440.12765727 0 11031.03732336 0 782.49481549 0 -2210.55735541 0 4083
0.06250000 0.06249100 32441.50712456 0 287.26634523 0 11307.07963233 0 -2305.28830936 0 -3280.01534193 0 4303
0.06350000 0.06350600 30410.78919145 0 1344.46774567 0 11290.38308201 0 -1329.81432584 0 -2741.33190255 0 4470
0.06450000 0.06451750 30134.41734530 0 441.46228284 0 14027.07949492 0 149.77464715 0 -1382.77095026 0 4479
0.06550000 0.06550280 29353.19454332 0 -76.01543918 0 12239.01077013 0 1213.74034738 0 -4092.26956146 0 4636
0.06650000 0.06648880 30640.91598703 0 295.02914268 0 11744.26562107 0 1549.16525572 0 -2562.70078323 0 4653
0.06750000 0.06749660 29304.97226968 0 492.21979583 0 12369.28780095 0 873.12083466 0 -24.03841895 0 5220
0.06850000 0.06852730 28744.86891376 0 -262.50492172 0 11507.43823622 0 2344.98655467 0 -92.60620807 0 5029
0.06950000 0.06949320 28627.00444996 0 243.78940696 0 10321.03848999 0 494.88245622 0 1817.11193470 0 5040
0.07050000 0.07048030 28339.64803124 0 575.69266133 0 9530.29206358 0 1097.14350325 0 766.61441891 0 5475
0.07150000 0.07148790 27545.79297078 0 373.23710254 0 9978.78117751 0 -445.73418312 0 2774.29660486 0 5509
0.07250000 0.07249820 27380.91453634 0 165.23543305 0 8854.05980633 0 1058.62609950 0 -319.88283660 0 5916
0.07350000 0.07351270 27110.69405084 0 523.37424058 0 10037.99900829 0 43.34655140 0 2888.55812885 0 5721
0.07450000 0.07449140 26515.00067975 0 246.63990354 0 8520.60113648 0 -218.72810461 0 607.61822308 0 6028
0.07550000 0.07549160 25948.08688883 0 52.96442346 0 8218.75606651 0 677.97001664 0 -1134.24499560 0 6183
0.07650000 0.07648840 26349.46317095 0 607.84450528 0 9068.34684825 0 -823.78582382 0 -2249.94803269 0 6330
0.07750000 0.07749960 25111.94122393 0 291.07689346 0 8155.43000558 0 -50.92678525 0 -696.75473421 0 6583
0.07850000 0.07848650 24468.57480785 0 507.59929590 0 8683.19477983 0 742.04852079 0 -1053.48641799 0 6549
0.07950000 0.07947320 24123.54938307 0 224.85749611 0 8295.38444484 0 219.17297980 0 -1563.75276811 0 6828
0.08050000 0.08048110 24586.32942592 0 -65.32690083 0 7397.84600379 0 1712.98917120 0 -195.71542505 0 7147
0.08150000 0.08149960 24361.58507090 0 -354.04485733 0 7310.78228151 0 -22.43697811 0 -1491.01292847 0 7386
0.08250000 0.08250610 23938.45933507 0 545.76848870 0 7340.08912116 0 -119.62858615 0 225.99769475 0 7227
0.08350000 0.08350160 23792.03498256 0 806.31046730 0 7840.53526339 0 -541.20879263 0 49.20055967 0 7798
0.08450000 0.08449610 22735.09940878 0 58.83677596 0 7945.29513210 0 342.25841095 0 476.57337064 0 7371
0.08550000 0.08548940 23039.37206929 0 440.60438772 0 8964.24605389 0 -182.55810402 0 6.61382214 0 8256
0.08650000 0.08650700 21775.26745663 0 728.16072567 0 8829.36648717 0 635.91338359 0 744.83310994 0 8037
0.08750000 0.08749060 21907.96109341 0 492.37687522 0 9032.05382044 0 315.49230294 0 1912.20537953 0 8155
0.08850000 0.08849210 21072.14496569 0 -49.79713180 0 9225.78872705 0 904.47849401 0 2551.32076603 0 8718
0.08950000 0.08949900 20505.12132905 0 170.42893897 0 7640.37438182 0 1570.45335738 0 2382.40000888 0 8571
0.09050000 0.09049190 20528.95785155 0 30.44451183 0 6720.68005787 0 894.64400617 0 3443.52070481 0 8932
0.09150000 0.09150830 20105.83211571 0 286.87419599 0 6989.99980842 0 217.83505886 0 2586.92176577 0 9285
0.09250000 0.09250820 19488.27944519 0 893.38297724 0 6212.76440628 0 -321.78756148 0 2469.06828654 0 9204
0.09350000 0.09350330 18578.31745255 0 536.16247998 0 6919.84134334 0 -395.05026677 0 1717.04247848 0 9349
0.09450000 0.09448040 18297.00254874 0 91.70558296 0 6321.51167484 0 -277.13417548 0 2108.54362985 0 9564
0.09550000 0.09549270 17386.82086465 0 212.27137285 0 6018.00793441 0 1060.69010069 0 720.39463286 0 10155
0.09650000 0.09649430 17531.04830265 0 100.58012900 0 5729.52010471 0 859.92836299 0 1026.28641936 0 9913
0.09750000 0.09749140 17785.67069508 0 101.85719540 0 5327.63853225 0 119.85376989 0 549.82399290 0 10476
0.09850000 0.09850240 17235.34360876 0 82.61859529 0 5241.36569920 0 -589.01804633 0 -9.27481287 0 10575
0.09950000 0.09950330 16677.21747590 0 559.33333738 0 5027.18850300 0 -44.26727827 0 831.81774329 0 10882
0.10050000 0.10051200 16317.47272386 0 -58.62905770 0 5314.95135092 0 113.20480811 0 645.35132835 0 10875
0.10150000 0.10150300 16425.89045524 0 71.15992856 0 4981.16314389 0 653.99289160 0 114.70749764 0 11118
0.10250000 0.10250800 16557.70532621 0 299.20218180 0 4900.60228858 0 552.07363337 0 743.05690455 0 11575
0.10350000 0.10349800 16350.86582451 0 -110.97164450 0 4666.61990802 0 76.23765708 0 1474.95348336 0 11364
0.10450000 0.10450100 16087.01639110 0 116.77918803 0 4222.37083912 0 438.66121684 0 969.81143635 0 12093
0.10550000 0.10551000 15651.25839680 0 306.57502692 0 4773.58767582 0 -956.19825555 0 387.98718660 0 12067
0.10650000 0.10649700 15768.68347770 0 649.27391922 0 5479.53320190 0 -640.63784826 0 -226.38325324 0 12054
0.10750000 0.10749900 14711.52821247 0 246.06541039 0 5626.73745907 0 -121.18510009 0 934.12475695 0 12807
0.10850000 0.10850100 15054.02718555 0 -263.53088080 0 5777.80828578 0 1121.12941594 0 29.31661592 0 12736
0.10950000 0.10950300 15080.06062257 0 -196.31408426 0 4891.44115504 0 667.93231421 0 -122.31101878 0 12933
0.11050000 0.11050200 15257.13193258 0 86.44122655 0 4468.27148092 0 -378.52946961 0 -546.45612295 0 13428
0.11150000 0.11150900 14934.07565297 0 377.65509763 0 4384.96448246 0 -351.12625639 0 246.85520116 0 13453
0.11250000 0.11250000 14544.01348060 0 82.67714307 0 4788.26306479 0 47.27924808 0 -236.51652145 0 13668
0.11350000 0.11349100 14877.39525845 0 99.00208530 0 4586.08102186 0 489.04305744 0 -949.23843036 0 13791
0.11450000 0.11448600 14667.15053924 0 -53.09239373 0 4457.02327860 0 635.29385370 0 -9.47552298 0 14205
0.11550000 0.11549300 14608.49292165 0 -87.37107062 0 3759.98624088 0 116.34859278 0 -575.45649302 0 14776
0.11650000 0.11649800 14564.22509415 0 427.24604901 0 4175.10422330 0 102.10786335 0 -123.94881855 0 14553
0.11750000 0.11747300 13894.27601242 0 338.59505599 0 4373.54052698 0 -824.75466312 0 -26.16700942 0 14568
0.11850000 0.11849100 13571.54926998 0 383.81414748 0 4690.68710655 0 -311.87837856 0 -319.47640741 0 16015
0.11950000 0.11950300 13258.48895141 0 180.76542177 0 5270.26610966 0 527.72962361 0 677.77119587 0 15270
0.12050000 0.12050700 13354.82365295 0 -164.52143584 0 4604.59002666 0 522.56797295 0 604.72378821 0 15999
0.12150000 0.12150000 13280.01871367 0 -46.48484379 0 4485.50627530 0 661.87651935 0 741.85299540 0 15670
0.12250000 0.12250700 13276.17411326 0 284.48724837 0 4511.03442198 0 -105.68740602 0 785.62981250 0 16887
0.12350000 0.12352200 13323.07823819 0 296.78777275 0 4642.57467864 0 -125.70085788 0 1553.59203847 0 16407
0.12450000 0.12449800 12802.73903501 0 -138.32542715 0 4667.08126007 0 98.75976563 0 946.37804766 0 16306
0.12550000 0.12549900 12878.09320292 0 72.91636172 0 4562.51911367 0 44.56089590 0 866.05226220 0 17523
0.12650000 0.12650100 13045.93747196 0 85.05837871 0 4262.78308164 0 491.07630182 0 977.82138667 0 17154
0.12750000 0.12750600 12862.16557267 0 -243.31267651 0 4323.08838511 0 -228.22866144 0 487.47885430 0 18007
0.12850000 0.12850300 12844.59025654 0 241.22890309 0 3826.51979700 0 193.15382273 0 147.95670038 0 17496
0.12950000 0.12949900 12744.63064605 0 84.24277420 0 3684.26958207 0 70.62871463 0 408.54371573 0 18405
0.13050000 0.13049000 12789.44770218 0 -159.42349570 0 3279.08165326 0 915.21701216 0 1087.08383168 0 18100
0.13150000 0.13148800 12912.25522364 0 62.70828857 0 2893.30346421 0 385.56838372 0 -577.80938847 0 19059
0.13250000 0.13249300 12618.30806137 0 354.80828512 0 3050.30596011 0 -600.27833168 0 183.23255677 0 18957
0.13350000 0.13349100 12134.87702206 0 448.09696468 0 3337.78320914 0 -240.61157011 0 245.24596128 0 19468
0.13450000 0.13450700 11580.37579816 0 52.58325879 0 3147.36564344 0 -3.47748500 0 -158.86877479 0 19953
0.13550000 0.13551000 11703.51285679 0 147.09880527 0 3557.22201560 0 79.70636541 0 -89.76515821 0 19956
0.13650000 0.13649900 11269.84193128 0 256.54249572 0 3347.74621647 0 159.04562641 0 195.32766964 0 19723
0.13750000 0.13749600 11359.25635209 0 -46.71123583 0 3466.23680091 0 94.95998228 0 593.60081001 0 20946
0.13850000 0.13851100 11384.96025193 0 97.37527010 0 3188.93126609 0 336.35200627 0 71.16179594 0 20955
0.13950000 0.13949800 11299.17074007 0 93.65182953 0 3460.51383859 0 -337.91730786 0 -52.18924217 0 20506
0.14050000 0.14048300 11012.25370425 0 109.13436489 0 3179.24287307 0 151.25426907 0 519.17483848 0 21447
0.14150000 0.14148400 11167.24602337 0 -52.07676015 0 3369.77028450 0 543.97360954 0 519.92508479 0 21771
0.14250000 0.14249400 11062.56304667 0 75.94535760 0 3010.71756053 0 -36.95803383 0 -38.54036151 0 22470
0.14350000 0.14350900 10955.55134058 0 141.80863511 0 3035.74041687 0 -43.28141289 0 446.17027065 0 22519
0.14450000 0.14449900 10640.07441605 0 128.60517887 0 3106.83257062 0 -98.91728440 0 495.46903240 0 22218
0.14550000 0.14550500 10672.72056576 0 -51.20842969 0 2575.78340917 0 256.50185280 0 -192.63754782 0 23559
0.14650000 0.14650700 10461.30049729 0 229.61930833 0 2780.31615064 0 181.93747566 0 -224.37966720 0 23044
0.14750000 0.14750500 10394.28361997 0 244.75385243 0 2122.49403703 0 -52.33324992 0 132.99571253 0 23649
0.14850000 0.14849900 10024.03761654 0 77.86666919 0 2553.22109709 0 254.50266059 0 -18.43189310 0 23640
0.14950000 0.14949500 10059.71550828 0 128.35802598 0 2393.23079744 0 -141.86465643 0 -359.72607827 0 24457
0.15050000 0.15050000 9850.63515377 0 84.42248180 0 2112.46512226 0 246.75194618 0 45.58312022 0 24591
0.15150000 0.15149900 9760.34196715 0 -60.83904385 0 2216.57690119 0 49.08467243 0 -501.94663485 0 25020
0.15250000 0.15250500 9776.50027342 0 52.08269182 0 2028.09262027 0 -85.66406804 0 -154.80777830 0 25297
0.15350000 0.15350100 9640.53323401 0 45.21634535 0 2021.01855552 0 193.14942890 0 -86.16891900 0 25452
0.15450000 0.15450400 9648.33228054 0 91.01311551 0 2177.12031648 0 -98.33510205 0 -358.49910151 0 26061
0.15550000 0.15549900 9475.86350644 0 332.77872481 0 2199.63869027 0 -267.65448935 0 -520.53582703 0 26128
0.15650000 0.15649500 9409.64850292 0 216.32468013 0 2586.50435201 0 -77.70124153 0 -478.80433733 0 26331
0.15750000 0.15749700 8921.35129796 0 -28.75903901 0 2704.89607529 0 -167.31041882 0 -271.61552622 0 27345
0.15850000 0.15849900 9098.97183660 0 59.19410411 0 2571.07102753 0 145.80372416 0 -517.59525695 0 26980
0.15950000 0.15949700 8990.37835206 0 -15.27525648 0 2352.56590975 0 337.64379201 0 -323.44623194 0 27777
0.16050000 0.16050000 8977.81200103 0 106.29650057 0 2383.75111130 0 137.54112866 0 -504.57414461 0 28224
0.16150000 0.16150500 8958.39127671 0 231.92716703 0 2435.47746359 0 7.89853381 0 -188.01853505 0 28075
0.16250000 0.16249700 8708.28354360 0 48.24687907 0 2651.51105255 0 -43.17914651 0 48.01367660 0 28590
0.16350000 0.16349900 8582.20261951 0 63.97261287 0 2441.48602479 0 -78.42842024 0 -44.07548764 0 29163
0.16450000 0.16449100 8483.74789547 0 119.20018782 0 2557.52704954 0 47.58450935 0 32.57189400 0 28996
0.16550000 0.16550500 8306.55575516 0 212.47678436 0 2750.20743719 0 -5.44695296 0 509.79071813 0 30777
0.16650000 0.16650700 8329.21692839 0 20.31585714 0 2668.10874172 0 303.80471771 0 584.10245010 0 29211
0.16750000 0.16749900 8267.86809053 0 29.28014714 0 2608.96780294 0 224.68064449 0 677.54491368 0 30922
0.16850000 0.16850800 8329.28283583 0 -94.24104200 0 2413.85982475 0 392.44802153 0 1010.46204410 0 30867
0.16950000 0.16949900 8319.56148909 0 -181.64967986 0 2204.46091763 0 324.70945779 0 1149.05219944 0 30852
0.17050000 0.17049200 8379.86679256 0 204.57777821 0 2138.68529701 0 104.90761121 0 1359.26396493 0 31257
0.17150000 0.17149500 8406.88884111 0 27.40222461 0 1959.37313420 0 -71.92467450 0 1478.77611462 0 32608
0.17250000 0.17250900 8279.02841627 0 41.81497245 0 2103.07331271 0 18.21813332 0 810.51536169 0 32361
0.17350000 0.17350400 8155.97923421 0 117.60412943 0 1877.84563650 0 22.91535624 0 887.83027580 0 32508
0.17450000 0.17449800 8069.77230859 0 139.45464121 0 1819.61641724 0 -4.58092926 0 809.38065534 0 32791
0.17550000 0.17549800 7833.53809066 0 57.36934691 0 1809.26894987 0 -17.09232447 0 657.28606646 0 33633
0.17650000 0.17650100 7816.99532435 0 34.64259578 0 1586.19424989 0 185.17243229 0 452.84779232 0 33984
0.17750000 0.17750300 7847.27979096 0 94.78576696 0 1741.18656901 0 1.55884266 0 242.49981813 0 34069
0.17850000 0.17849800 7624.17213726 0 94.94669095 0 1355.75988628 0 -157.07828946 0 408.66454603 0 34536
