### header ###
fiducial parameters:
Omega_m = 0.31
Omega_nu = 0
Omega_de = 0.69
Omega_k = 0
H_0 = 100
w_de = -1
zeff = 0
beta = 0
fgrowth = 0
b_1 = 2
gamma = 0.55
Lx = 3500 Ly = 3500 Lz = 3500
nx = 700 ny = 700 nz = 700
xoffset = -983.599254 yoffset = -42.9823471 zoffset = 800.977702
bins = 400 dk = 0.001
kx_ny = 0.628318531 ky_ny = 0.628318531 kz_ny = 0.628318531
############################
A(data) = 9.0760289 (not used)
A(ran) = 9.06778137 (used)
Ngal = 503730
weighted Ngal = 0
Nran = 25229228
weighted Nran = 0
SN(data) = 6748.69102
SN(ran) = 134.604967
SN(data+ran) = 6883.29598
############################
13 columns: k_central k_mean P_0(k) sigma^{lin}_{P_0(k)} P^img_1(k) sigma^{lin}_{P_1(k)} P_2(k) sigma^{lin}_{P_2(k)} P^img_3(k) sigma^{lin}_{P_3(k)} P_4(k) sigma^{lin}_{P_4(k)} N_modes
### header ###
0.00050000 0 0 0 0 0 0 0 0 0 0 0 0
0.00150000 0.00179520 56219.59169994 0 -46670.48306353 0 -21131.24196618 0 -14561.25925955 0 5837.80602122 0 3
0.00250000 0.00253879 81356.02852073 0 -29089.12541846 0 14616.07227674 0 -109789.04541891 0 2180.71227171 0 6
0.00350000 0.00331552 71179.70078993 0 3141.62071198 0 -31877.33947678 0 -12870.29415638 0 -10349.16998038 0 7
0.00450000 0.00420575 66558.27141350 0 15335.56178081 0 7193.12652459 0 -27585.00789490 0 9157.01431812 0 24
0.00550000 0.00557378 53632.83470276 0 23456.01690730 0 40528.67899612 0 -8506.34316127 0 21322.04399192 0 45
0.00650000 0.00659388 44096.46817054 0 -11754.92065647 0 39950.23140399 0 40966.85359639 0 275.58095692 0 40
0.00750000 0.00754703 71438.82685712 0 -32599.02589538 0 25111.94122393 0 47940.18980821 0 -26124.05974158 0 57
0.00850000 0.00846663 87378.75982136 0 -9271.19895011 0 -1466.29764017 0 -1768.51618560 0 -28725.42622029 0 75
0.00950000 0.00948925 85243.79829445 0 14364.08618172 0 5879.61330446 0 -30586.32266130 0 33352.12819155 0 112
0.01050000 0.01054430 72882.19969431 0 10764.29894737 0 36994.72230525 0 5792.30792159 0 10416.64820974 0 105
0.01150000 0.01145670 79532.04024360 0 -508.64173184 0 38099.22107831 0 13330.54774754 0 14241.60819744 0 144
0.01250000 0.01249090 81100.19782532 0 212.87772125 0 25222.88540701 0 34824.06091745 0 -7149.35300286 0 169
0.01350000 0.01339930 90587.24362664 0 -14724.59985384 0 25276.59996693 0 -3857.08986250 0 22472.45827836 0 180
0.01450000 0.01448870 80972.88662910 0 -874.50049697 0 12673.34077000 0 -11932.43134939 0 5593.91555619 0 267
0.01550000 0.01550050 80003.49809879 0 13744.88582531 0 24200.44139113 0 -4842.93328253 0 21053.80072948 0 238
0.01650000 0.01653350 76618.05282922 0 6993.35010306 0 36604.22074999 0 -11441.64064645 0 -7030.09349834 0 315
0.01750000 0.01747870 79742.94403716 0 1600.15564164 0 46620.72294974 0 7449.06706574 0 -11308.28793532 0 297
0.01850000 0.01844180 72496.86088816 0 771.15653967 0 39878.61199076 0 14188.88224905 0 -13745.54489966 0 388
0.01950000 0.01947590 72231.03423169 0 -2758.07239116 0 37111.04892889 0 -4771.85211335 0 -7187.76605317 0 399
0.02050000 0.02045430 72366.36416589 0 1834.30279079 0 29664.93671318 0 10618.84123725 0 6857.50389394 0 462
0.02150000 0.02154770 71998.16129296 0 67.33740715 0 31332.28498530 0 2894.42389061 0 -11130.55755095 0 571
0.02250000 0.02255340 70123.31444478 0 4931.80945928 0 22369.64267900 0 4274.77823490 0 1069.14272929 0 510
0.02350000 0.02348930 69174.24737375 0 3121.91438877 0 29263.12104815 0 6378.25797679 0 -5101.68587425 0 555
0.02450000 0.02439640 66363.51494164 0 -3897.48013588 0 18294.25640560 0 4807.47508223 0 8824.14881519 0 592
0.02550000 0.02547300 65988.06225081 0 1157.23570602 0 19639.86654681 0 4166.42641096 0 -5601.63771072 0 837
0.02650000 0.02652900 66594.85004020 0 3513.52538587 0 12642.14458387 0 3172.75099068 0 8576.04027429 0 723
0.02750000 0.02749970 59207.61513352 0 -756.36141886 0 18525.70134989 0 -4388.34773082 0 7147.91402385 0 826
0.02850000 0.02848090 55783.61401419 0 5030.87931939 0 15933.45206642 0 4012.48861080 0 5727.03759131 0 831
0.02950000 0.02946900 55273.38061779 0 2005.53030818 0 19659.19939456 0 2185.64434480 0 7233.42892140 0 996
0.03050000 0.03053250 53279.68069427 0 2014.58159599 0 22015.06067608 0 -2780.21728948 0 312.46605319 0 1041
0.03150000 0.03150510 52032.16278621 0 2299.69716191 0 17133.18708375 0 -460.65452806 0 3451.93488740 0 1036
0.03250000 0.03246190 49237.24813861 0 -973.23313071 0 23424.27149254 0 -4533.84937923 0 -2737.87176218 0 1059
0.03350000 0.03345080 49072.91893280 0 2063.92429603 0 26688.55692653 0 834.43646540 0 -677.82502028 0 1302
0.03450000 0.03451200 48733.05625713 0 -708.88170234 0 25221.34756684 0 -967.07957315 0 -9734.62708274 0 1339
0.03550000 0.03553350 48346.39930227 0 -662.27855470 0 20037.83761143 0 5418.74457724 0 -5668.23717428 0 1365
0.03650000 0.03647120 48920.45306537 0 127.06843716 0 22105.57355415 0 712.34403961 0 -9739.15272664 0 1308
0.03750000 0.03744890 48998.77306787 0 1305.60432787 0 18448.80934182 0 1276.90163972 0 -4420.48859019 0 1579
0.03850000 0.03847530 49778.67772115 0 878.71527747 0 16908.00334583 0 1410.13352056 0 -6086.13425356 0 1662
0.03950000 0.03950240 48039.27065289 0 -2100.18437012 0 17302.78888441 0 1248.49553502 0 -10519.94713030 0 1683
0.04050000 0.04050350 46425.85663214 0 2681.20235223 0 17992.40035106 0 -605.36748416 0 -7556.28747871 0 1822
0.04150000 0.04152450 42180.97840381 0 3446.83804573 0 17082.10882125 0 -4748.76254179 0 -7140.29073048 0 1887
0.04250000 0.04250150 42501.94761464 0 896.49930048 0 21155.73756304 0 3243.00831691 0 -4336.37971794 0 1920
0.04350000 0.04349210 43774.94973109 0 -109.34779514 0 21108.28420949 0 3097.38583820 0 -10339.38272621 0 2005
0.04450000 0.04448520 40627.86968653 0 675.44246648 0 17227.32487077 0 1121.50289141 0 -2244.10424008 0 2151
0.04550000 0.04548030 40362.81195015 0 -1129.62049055 0 13834.30024612 0 3874.54434833 0 -1731.69589830 0 2274
0.04650000 0.04648670 42024.88762743 0 -772.92395740 0 15611.60408978 0 4974.06711000 0 957.99972545 0 2311
0.04750000 0.04749250 39935.95145963 0 1892.85056264 0 11959.23370649 0 -2014.94408689 0 1293.38948316 0 2568
0.04850000 0.04851840 40109.28801497 0 1001.15042192 0 12684.32534258 0 4774.67514851 0 4169.12861581 0 2493
0.04950000 0.04949480 39203.71985136 0 -1207.42421814 0 12506.37526676 0 729.24709990 0 4061.73244969 0 2644
0.05050000 0.05050630 37843.06084571 0 2956.23408053 0 13362.62269948 0 -4163.85602097 0 1433.53066016 0 2829
0.05150000 0.05149060 35995.34589180 0 1557.19497828 0 14892.11458570 0 -561.60275008 0 5290.49969235 0 2784
0.05250000 0.05249300 36109.58544665 0 -1443.28496061 0 15093.46180112 0 2543.60959608 0 952.43823635 0 3055
0.05350000 0.05348950 35416.89829967 0 -1049.72200496 0 12352.70109635 0 2163.36763161 0 -973.89330352 0 3009
0.05450000 0.05448610 37799.01270966 0 476.97979983 0 11922.21569689 0 79.23743401 0 -831.53873515 0 3336
0.05550000 0.05550870 37574.04866319 0 301.95052186 0 10927.81529482 0 -1573.26540796 0 -1294.81747760 0 3349
0.05650000 0.05647670 35837.71727526 0 1809.29091902 0 13347.02460641 0 -1290.95090805 0 -1969.96226217 0 3324
0.05750000 0.05747970 34975.64801908 0 563.43497679 0 14694.06274206 0 -1213.92708511 0 -475.26620651 0 3639
0.05850000 0.05849280 34190.91015387 0 585.14708295 0 14273.57330365 0 1832.05095341 0 -668.23329150 0 3846
0.05950000 0.05951020 33802.93505029 0 -260.88250035 0 13618.45339490 0 2604.74972707 0 -962.33533625 0 3787
0.06050000 0.06049470 33085.64246073 0 447.00290125 0 12123.67275803 0 2018.89853302 0 1467.84646490 0 3930
0.06150000 0.06148310 33138.36840912 0 -41.02408322 0 13479.05916884 0 -494.28160010 0 4024.35194919 0 4083
0.06250000 0.06249100 32855.51566515 0 -42.54522683 0 11548.19100049 0 1015.54350738 0 2084.78399936 0 4303
0.06350000 0.06350600 33554.24432705 0 707.30102234 0 12337.21284901 0 764.10444407 0 828.04014878 0 4470
0.06450000 0.06451750 32619.78673756 0 778.00432222 0 11317.73466774 0 -1364.22899174 0 589.49038295 0 4479
0.06550000 0.06550280 31586.24830338 0 427.35369782 0 13466.42691037 0 571.17800200 0 1656.56142185 0 4636
0.06650000 0.06648880 30829.52109825 0 260.45300356 0 12020.85715867 0 -609.48999425 0 116.58585955 0 4653
0.06750000 0.06749660 30138.48163716 0 676.36626904 0 13697.54231748 0 790.85077985 0 -881.74262568 0 5220
0.06850000 0.06852730 29560.25373648 0 709.91535062 0 11886.84537317 0 198.07051742 0 1110.70505656 0 5029
0.06950000 0.06949320 29320.79005420 0 -201.46804571 0 12893.25191308 0 1505.28188826 0 671.36609160 0 5040
0.07050000 0.07048030 28757.39132650 0 229.71707102 0 10498.08783086 0 2090.59483825 0 732.57762231 0 5475
0.07150000 0.07148790 29982.28101505 0 -27.87675814 0 10641.39256476 0 307.54386622 0 1382.86981141 0 5509
0.07250000 0.07249820 28253.52898220 0 749.31481555 0 10064.14229103 0 267.02507334 0 1294.49892499 0 5916
0.07350000 0.07351270 28017.47051743 0 388.00586038 0 10281.42812127 0 137.25552978 0 2429.61170183 0 5721
0.07450000 0.07449140 28276.04735599 0 -433.09862928 0 10508.25954507 0 596.06464964 0 850.98033016 0 6028
0.07550000 0.07549160 26288.27910167 0 971.65025380 0 9643.33430002 0 211.99016779 0 1199.58123332 0 6183
0.07650000 0.07648840 26566.18878798 0 659.63017425 0 9282.72176674 0 712.12544662 0 2366.39548663 0 6330
0.07750000 0.07749960 26798.07311517 0 -374.09280074 0 8561.24405503 0 1388.28520569 0 688.24388737 0 6583
0.07850000 0.07848650 26338.36875264 0 724.43036483 0 8166.86494564 0 -424.54713953 0 1501.19562726 0 6549
0.07950000 0.07947320 25319.54964572 0 -39.69385148 0 7196.89423299 0 426.10365346 0 2352.52197146 0 6828
0.08050000 0.08048110 25232.99121378 0 300.54120120 0 8179.87067958 0 845.42213644 0 1469.68088852 0 7147
0.08150000 0.08149960 25179.16680813 0 628.17914604 0 6978.49896093 0 -655.72406024 0 407.11352438 0 7386
0.08250000 0.08250610 24218.78562735 0 647.82725101 0 8522.74312813 0 -280.44163029 0 2099.42643461 0 7227
0.08350000 0.08350160 23114.17700857 0 256.85994987 0 8754.51760960 0 69.86210131 0 1234.90761874 0 7798
0.08450000 0.08449610 22850.98664952 0 593.41187536 0 8533.48604011 0 246.74865081 0 -88.85431746 0 7371
0.08550000 0.08548940 22470.15151812 0 511.68226153 0 8794.76508353 0 -196.22291231 0 1502.32703823 0 8256
0.08650000 0.08650700 21611.48747944 0 275.63368287 0 8748.24541865 0 892.18016654 0 415.28384947 0 8037
0.08750000 0.08749060 21235.37571425 0 191.45450935 0 8881.55419150 0 245.06691275 0 1572.14498156 0 8155
0.08850000 0.08849210 21361.91799039 0 176.82855096 0 8249.78748406 0 -345.53950278 0 -46.32996131 0 8718
0.08950000 0.08949900 19990.82364079 0 781.17556832 0 8223.17186469 0 241.31018892 0 419.21632645 0 8571
0.09050000 0.09049190 20068.37472321 0 406.48410837 0 8998.82548838 0 30.05071490 0 100.43293572 0 8932
0.09150000 0.09150830 19449.17436680 0 -302.36793562 0 7624.26001384 0 490.90933632 0 -313.96544735 0 9285
0.09250000 0.09250820 19942.60136715 0 297.42707487 0 7958.33381976 0 670.17756085 0 -997.52111914 0 9204
0.09350000 0.09350330 19101.18310742 0 540.46843243 0 7941.36265512 0 -286.53037887 0 29.58376072 0 9349
0.09450000 0.09448040 18565.79503981 0 222.08059616 0 7518.08313527 0 254.50485751 0 855.47631572 0 9564
0.09550000 0.09549270 17939.78424840 0 96.74299810 0 7547.40095949 0 451.24184781 0 358.64959015 0 10155
0.09650000 0.09649430 18176.83132470 0 290.68144885 0 7323.77703088 0 898.34800405 0 946.19570376 0 9913
0.09750000 0.09749140 18287.22627915 0 36.47658002 0 6936.58183196 0 1001.07133300 0 1120.07489697 0 10476
0.09850000 0.09850240 17807.52999452 0 33.65277594 0 6087.12286510 0 908.87012612 0 2545.61977286 0 10575
0.09950000 0.09950330 18075.44371978 0 57.99360017 0 5885.58891195 0 363.05879759 0 2516.62050125 0 10882
0.10050000 0.10051200 17655.72320144 0 149.71533045 0 5559.39104457 0 262.72681009 0 2259.73528686 0 10875
0.10150000 0.10150300 17532.03691418 0 239.18687104 0 5840.50822607 0 -152.00231847 0 2783.18312408 0 11118
0.10250000 0.10250800 16713.02718251 0 134.35889799 0 5061.50430775 0 277.26928573 0 2513.61072836 0 11575
0.10350000 0.10349800 16671.28580670 0 11.26544810 0 5771.52511026 0 744.13888495 0 3008.49867687 0 11364
0.10450000 0.10450100 16391.72843451 0 489.58130149 0 5519.37424666 0 -331.66488915 0 2170.07920545 0 12093
0.10550000 0.10551000 16157.42750135 0 283.24049938 0 5170.40536032 0 416.29662706 0 2512.51227110 0 12067
0.10650000 0.10649700 16177.19973200 0 -32.72271218 0 4602.04160582 0 335.84671593 0 1848.76947288 0 12054
0.10750000 0.10749900 16240.58071579 0 5.77264554 0 5209.60929986 0 -85.19755324 0 1618.26920183 0 12807
0.10850000 0.10850100 15951.02738255 0 209.99097558 0 4484.86917009 0 194.46867607 0 2285.38426384 0 12736
0.10950000 0.10950300 15860.40465875 0 65.73992076 0 4365.58769643 0 -330.36431576 0 316.05031922 0 12933
0.11050000 0.11050200 15136.30163419 0 677.10113694 0 5185.83868480 0 -434.12239144 0 1118.33933451 0 13428
0.11150000 0.11150900 14747.22807336 0 243.26214747 0 5357.19801707 0 104.69538927 0 1051.85301204 0 13453
0.11250000 0.11250000 14339.92012204 0 -66.63011052 0 5301.20965062 0 654.37185936 0 1149.48059777 0 13668
0.11350000 0.11349100 14364.19602745 0 359.39544263 0 4987.86373316 0 86.67190258 0 998.85244934 0 13791
0.11450000 0.11448600 14067.94210493 0 145.07325008 0 4446.79664152 0 405.86897231 0 1541.98134525 0 14205
0.11550000 0.11549300 14358.59389543 0 -289.15459326 0 4570.14240704 0 547.45462060 0 1092.09938752 0 14776
0.11650000 0.11649800 14098.03983380 0 484.94800878 0 4863.05701949 0 -954.43303473 0 729.98306626 0 14553
0.11750000 0.11747300 13623.61614401 0 197.52128879 0 4751.48671579 0 -388.87144470 0 727.27866450 0 14568
0.11850000 0.11849100 13435.88979860 0 23.62759593 0 5216.21102798 0 -52.91850795 0 299.68330608 0 16015
0.11950000 0.11950300 13621.30938377 0 -140.90570324 0 4749.70721503 0 363.63219228 0 -514.84471997 0 15270
0.12050000 0.12050700 13832.32302306 0 27.06280131 0 4869.12050356 0 278.68959096 0 -481.10450683 0 15999
0.12150000 0.12150000 13681.72453297 0 -4.20178575 0 4238.86966713 0 335.72918100 0 -129.12365069 0 15670
0.12250000 0.12250700 13828.69811410 0 174.87549395 0 4043.55298206 0 483.38160873 0 91.61748669 0 16887
0.12350000 0.12352200 13583.52245409 0 -17.21260554 0 3854.39864221 0 -169.31839868 0 -399.61655359 0 16407
0.12450000 0.12449800 13244.97792713 0 275.57656309 0 4069.30082019 0 167.98487157 0 298.33110519 0 16306
0.12550000 0.12549900 13239.04625794 0 77.39938548 0 3851.16917787 0 454.47570598 0 169.18878073 0 17523
0.12650000 0.12650100 13071.64137180 0 -27.44462506 0 3746.96952237 0 330.66199767 0 662.40268037 0 17154
0.12750000 0.12750600 13108.76922712 0 221.81916334 0 3919.81177193 0 -542.73015593 0 -186.47190723 0 18007
0.12850000 0.12850300 12706.40433347 0 205.33681218 0 4028.41624105 0 -245.08229115 0 562.66276133 0 17496
0.12950000 0.12949900 12622.59204467 0 190.32090146 0 4265.65005509 0 -182.90631497 0 -74.67729855 0 18405
0.13050000 0.13049000 12364.34474329 0 163.57895951 0 4611.98264400 0 -206.90870451 0 252.57596656 0 18100
0.13150000 0.13148800 12441.01705990 0 112.57209673 0 4818.60245426 0 43.54745923 0 -750.19138444 0 19059
0.13250000 0.13249300 12421.02513781 0 245.45356970 0 4687.85308682 0 214.08382732 0 78.27199992 0 18957
0.13350000 0.13349100 11984.16868625 0 50.50585643 0 4879.27024862 0 -137.96073934 0 -156.48512254 0 19468
0.13450000 0.13450700 11938.14332713 0 26.80686077 0 4818.74525370 0 83.33358112 0 38.82947546 0 19953
0.13550000 0.13551000 11893.98534535 0 116.97471342 0 4326.81215522 0 403.61603647 0 -156.32364932 0 19956
0.13650000 0.13649900 11704.28177687 0 -100.88560996 0 4291.68349210 0 634.79844948 0 273.36207326 0 19723
0.13750000 0.13749600 11864.10730793 0 63.39152898 0 3907.52003522 0 549.51752333 0 642.03508589 0 20946
0.13850000 0.13851100 11878.49709801 0 18.99759859 0 3691.21183194 0 143.17621440 0 478.42646804 0 20955
0.13950000 0.13949800 11801.93462712 0 259.90157802 0 3724.40721029 0 -350.09150965 0 -33.22910098 0 20506
0.14050000 0.14048300 11381.77472588 0 236.60879186 0 3671.94489164 0 -245.11085104 0 504.04029438 0 21447
0.14150000 0.14148400 10998.63283425 0 -99.20354236 0 3829.62843104 0 262.00292675 0 733.67717802 0 21771
0.14250000 0.14249400 11163.07188579 0 96.89469505 0 3618.96629808 0 509.43152260 0 399.97904449 0 22470
0.14350000 0.14350900 11123.08804159 0 70.93232822 0 3414.11500401 0 -281.06994784 0 77.19968595 0 22519
0.14450000 0.14449900 11034.11300369 0 293.03873812 0 3219.58920816 0 240.26116224 0 26.28190805 0 22218
0.14550000 0.14550500 11002.47743465 0 24.12761367 0 3843.82049882 0 -235.55207598 0 127.37051291 0 23559
0.14650000 0.14650700 10692.86627187 0 75.26804886 0 3377.65720761 0 284.63554010 0 114.72836833 0 23044
0.14750000 0.14750500 10690.14209787 0 67.74416587 0 3156.35102381 0 299.31642135 0 -103.42842867 0 23649
0.14850000 0.14849900 10533.02975624 0 -0.86600723 0 2940.25152742 0 78.75938541 0 446.58219212 0 23640
0.14950000 0.14949500 10414.73689411 0 161.08106770 0 2998.38188552 0 269.94477273 0 -114.65587015 0 24457
0.15050000 0.15050000 10239.68674546 0 266.18804891 0 2853.47340403 0 254.50156214 0 515.18634018 0 24591
0.15150000 0.15149900 9851.05256753 0 80.39982148 0 2859.56984181 0 -208.25761003 0 751.89509165 0 25020
0.15250000 0.15250500 9938.73142587 0 137.35219401 0 2856.71385294 0 -89.92718066 0 365.74013175 0 25297
0.15350000 0.15350100 9838.40932449 0 195.96257794 0 3225.67466137 0 100.76390089 0 243.76304398 0 25452
0.15450000 0.15450400 9601.16452588 0 64.67848151 0 2976.11615690 0 -53.25848047 0 562.55401407 0 26061
0.15550000 0.15549900 9474.57831145 0 -81.17170739 0 3208.16525268 0 122.70646339 0 427.95345548 0 26128
0.15650000 0.15649500 9647.08003927 0 139.18991301 0 2916.99718727 0 77.56052916 0 497.10133988 0 26331
0.15750000 0.15749700 9409.72539493 0 30.29709887 0 3085.05016319 0 311.10176928 0 783.44278410 0 27345
0.15850000 0.15849900 9423.96140099 0 158.50848081 0 2852.74842224 0 48.49029720 0 388.12009993 0 26980
0.15950000 0.15949700 9320.02537523 0 164.96411411 0 3077.83329900 0 68.88480389 0 886.11009174 0 27777
0.16050000 0.16050000 9137.04436517 0 -99.94258440 0 2772.59399611 0 -6.81251108 0 324.28105946 0 28224
0.16150000 0.16150500 8989.52155540 0 99.08479913 0 2584.75780497 0 124.96598997 0 643.93212158 0 28075
0.16250000 0.16249700 8879.66484502 0 226.41730542 0 2678.29144050 0 20.17327739 0 411.21076995 0 28590
0.16350000 0.16349900 8882.04849727 0 72.83145097 0 2707.34563498 0 15.28679028 0 658.29225331 0 29163
0.16450000 0.16449100 8791.06328257 0 57.28784138 0 2595.69843926 0 266.35171904 0 439.21154392 0 28996
0.16550000 0.16550500 8641.67309547 0 42.14780499 0 2600.75134265 0 82.40977857 0 846.99073340 0 30777
0.16650000 0.16650700 8680.66832813 0 86.76933573 0 2271.15924235 0 -53.27385887 0 760.95516712 0 29211
0.16750000 0.16749900 8466.16159476 0 -9.30610792 0 2794.11277380 0 -171.16710225 0 597.07523032 0 30922
0.16850000 0.16850800 8514.69143643 0 148.37191723 0 2504.83405487 0 181.80895617 0 785.74075669 0 30867
0.16950000 0.16949900 8558.36609701 0 26.61902458 0 2813.58842099 0 -53.49322079 0 523.59503049 0 30852
0.17050000 0.17049200 8349.25278878 0 230.93196475 0 2608.84697264 0 -264.59528588 0 580.25125895 0 31257
0.17150000 0.17149500 8264.69354905 0 122.86903507 0 2955.72879019 0 52.42595971 0 178.92001358 0 32608
0.17250000 0.17250900 8194.52409940 0 -77.03590597 0 2605.82621518 0 296.59554273 0 242.54815025 0 32361
0.17350000 0.17350400 8026.11961716 0 22.69939955 0 2485.33643854 0 51.07639513 0 132.73977199 0 32508
0.17450000 0.17449800 8037.26895833 0 82.88387272 0 2421.20850381 0 -79.94231403 0 367.45372508 0 32791
0.17550000 0.17549800 7829.18819992 0 155.48442797 0 2401.95254807 0 211.94842641 0 249.54861836 0 33633
0.17650000 0.17650100 7691.92498094 0 53.97654198 0 2122.01071584 0 273.98929235 0 122.41537222 0 33984
0.17750000 0.17750300 7814.80939441 0 69.33132676 0 1959.15344275 0 271.81654390 0 325.79253665 0 34069
0.17850000 0.17849800 7724.85672954 0 20.94087932 0 2040.76881702 0 -15.87611260 0 299.26808924 0 34536
