### header ###
fiducial parameters:
Omega_m = 0.31
Omega_nu = 0
Omega_de = 0.69
Omega_k = 0
H_0 = 100
w_de = -1
zeff = 0
beta = 0
fgrowth = 0
b_1 = 2
gamma = 0.55
Lx = 3500 Ly = 3500 Lz = 3500
nx = 700 ny = 700 nz = 700
xoffset = -983.599254 yoffset = -42.9823471 zoffset = 800.977702
bins = 400 dk = 0.001
kx_ny = 0.628318531 ky_ny = 0.628318531 kz_ny = 0.628318531
############################
A(data) = 9.05304204 (not used)
A(ran) = 9.05676023 (used)
Ngal = 503123
weighted Ngal = 0
Nran = 25229228
weighted Nran = 0
SN(data) = 6745.91734
SN(ran) = 134.441366
SN(data+ran) = 6880.35871
############################
13 columns: k_central k_mean P_0(k) sigma^{lin}_{P_0(k)} P^img_1(k) sigma^{lin}_{P_1(k)} P_2(k) sigma^{lin}_{P_2(k)} P^img_3(k) sigma^{lin}_{P_3(k)} P_4(k) sigma^{lin}_{P_4(k)} N_modes
### header ###
0.00050000 0 0 0 0 0 0 0 0 0 0 0 0
0.00150000 0.00179520 36220.74932117 0 -43014.70746273 0 -52862.04724473 0 48842.46260004 0 413.69877564 0 3
0.00250000 0.00253879 52820.41571465 0 -43047.44148903 0 -38935.91597183 0 -40242.42103465 0 -59668.96718194 0 6
0.00350000 0.00331552 89203.29732712 0 -43591.39752325 0 -96828.12853873 0 9399.85026418 0 50790.02731871 0 7
0.00450000 0.00420575 74687.40435233 0 2976.25895634 0 -17354.41637554 0 -51016.96858824 0 20667.36346607 0 24
0.00550000 0.00557378 71949.06025352 0 10218.57439696 0 -3691.88189087 0 -12759.34997331 0 -7416.56371547 0 45
0.00650000 0.00659388 53666.99672349 0 2661.30929129 0 23230.83316938 0 10159.93874852 0 -21107.73498086 0 40
0.00750000 0.00754703 85337.82623575 0 9883.07259660 0 7747.21033474 0 5813.79374555 0 -6489.20215986 0 57
0.00850000 0.00846663 81300.11704630 0 -11847.08122043 0 6208.16187037 0 -16240.80040724 0 2383.82800331 0 75
0.00950000 0.00948925 69408.87784409 0 6677.20311959 0 27177.48025213 0 495.89303690 0 -6968.04164783 0 112
0.01050000 0.01054430 68080.62332755 0 -1289.94032737 0 17779.84887161 0 971.24382461 0 9976.81493901 0 105
0.01150000 0.01145670 63388.01392080 0 -862.57234961 0 23248.62817696 0 11457.34858524 0 14848.28614110 0 144
0.01250000 0.01249090 64357.51229683 0 83.59633210 0 -1140.14371108 0 18341.81960488 0 6420.06526004 0 169
0.01350000 0.01339930 76370.35071751 0 -3783.40534962 0 1385.25346366 0 13374.04665496 0 5663.75546867 0 180
0.01450000 0.01448870 72268.16208701 0 -736.93080842 0 9178.96149414 0 291.91941018 0 -1933.03212915 0 267
0.01550000 0.01550050 78455.11274773 0 10653.27787229 0 1252.32915085 0 -25043.39749103 0 13787.50596692 0 238
0.01650000 0.01653350 62847.02372117 0 2542.36833938 0 20144.93719410 0 -10684.63882701 0 5444.45946165 0 315
0.01750000 0.01747870 63200.17772966 0 870.59548142 0 19615.48079568 0 2085.19042854 0 -6121.82312988 0 297
0.01850000 0.01844180 63897.69808858 0 -2189.66469836 0 22551.43735522 0 2238.07370973 0 -12583.37712056 0 388
0.01950000 0.01947590 66619.89486569 0 -1173.83339519 0 21502.30082798 0 12202.98137207 0 3254.89362444 0 399
0.02050000 0.02045430 72137.22598184 0 -5638.98525750 0 17146.25872512 0 6181.72200417 0 -3504.29834490 0 462
0.02150000 0.02154770 75919.87339595 0 540.25203635 0 14856.08518764 0 -6927.86008133 0 -6092.49432109 0 571
0.02250000 0.02255340 69911.20234823 0 7551.78380395 0 22584.61076442 0 -2717.70408692 0 5849.38376072 0 510
0.02350000 0.02348930 66866.05913723 0 4348.64948551 0 27588.63280385 0 -4764.55835716 0 7695.61579733 0 555
0.02450000 0.02439640 65231.11535423 0 -2413.09090467 0 23816.42073369 0 20562.79033510 0 17196.34837609 0 592
0.02550000 0.02547300 69496.53473329 0 -4273.40516333 0 18885.44610193 0 10431.98267307 0 1452.08360325 0 837
0.02650000 0.02652900 70277.64768955 0 -1001.31628897 0 6523.64977948 0 1496.81278280 0 18838.21243983 0 723
0.02750000 0.02749970 70961.21764128 0 4650.71424692 0 17821.26071025 0 -1984.82438887 0 10271.50905223 0 826
0.02850000 0.02848090 63017.72397909 0 1688.83409609 0 17044.65142874 0 -12452.44101539 0 14034.87854146 0 831
0.02950000 0.02946900 63095.60459869 0 4072.16779364 0 22387.10814941 0 1121.61273714 0 3845.91855218 0 996
0.03050000 0.03053250 57221.71425654 0 2969.83298138 0 25631.84104421 0 -2708.25735450 0 114.24285022 0 1041
0.03150000 0.03150510 59197.94870965 0 4875.72223168 0 29942.29717085 0 -3468.13713196 0 -4142.86450277 0 1036
0.03250000 0.03246190 52159.69367388 0 -1864.76301055 0 25993.67286504 0 3873.64361338 0 -1057.75062906 0 1059
0.03350000 0.03345080 55131.13040286 0 -358.49360922 0 31176.52374609 0 5184.42167493 0 -1519.24328001 0 1302
0.03450000 0.03451200 52400.69519631 0 1193.53971840 0 20054.97354466 0 85.71448723 0 -3365.62910063 0 1339
0.03550000 0.03553350 52444.85317809 0 699.83041453 0 20973.17396674 0 5020.32314514 0 -383.14518701 0 1365
0.03650000 0.03647120 51088.36831002 0 1175.25040505 0 21919.71458607 0 -1832.90775007 0 -8680.41568296 0 1308
0.03750000 0.03744890 48835.54231931 0 902.27498875 0 20632.21283381 0 -207.74353203 0 -5030.82439653 0 1579
0.03850000 0.03847530 49236.14968135 0 938.72619440 0 18805.47841353 0 3355.21572583 0 -5269.43128214 0 1662
0.03950000 0.03950240 47490.26171528 0 -571.06376244 0 15358.73922896 0 1423.91915915 0 -5389.82219763 0 1683
0.04050000 0.04050350 48526.10690970 0 -1211.82903175 0 15590.07432752 0 3357.24787175 0 -8528.79562762 0 1822
0.04150000 0.04152450 47422.26721100 0 3176.99103569 0 15957.61812609 0 -1190.57388380 0 -5843.50701439 0 1887
0.04250000 0.04250150 44203.67759894 0 2882.47267564 0 16362.72916289 0 -3660.14746068 0 785.50788375 0 1920
0.04350000 0.04349210 41878.90265782 0 767.31413618 0 17369.57508570 0 1215.12440352 0 -2602.34410567 0 2005
0.04450000 0.04448520 44134.91417458 0 -1252.96625606 0 19099.64526726 0 6512.52240745 0 -2916.77749581 0 2151
0.04550000 0.04548030 43093.57669387 0 -645.24477800 0 16947.65765285 0 2069.38362860 0 3299.50197369 0 2274
0.04650000 0.04648670 43540.53895220 0 172.04696651 0 13838.47438370 0 -307.65810577 0 2084.83892222 0 2311
0.04750000 0.04749250 44371.85140516 0 349.13365493 0 13904.71135637 0 719.62022049 0 1289.39109874 0 2568
0.04850000 0.04851840 41268.70965093 0 1522.76932781 0 14991.19543039 0 610.01285990 0 4919.96809004 0 2493
0.04950000 0.04949480 40597.00303758 0 2590.27206041 0 16394.58442338 0 113.41900727 0 5765.25291932 0 2644
0.05050000 0.05050630 38070.00211524 0 1201.70125583 0 14180.53397389 0 553.70813777 0 3208.63758930 0 2829
0.05150000 0.05149060 36904.09958146 0 -109.63800755 0 16793.10471663 0 3299.93037202 0 4638.78500110 0 2784
0.05250000 0.05249300 37196.39905785 0 681.91237973 0 13710.61395886 0 45.13088537 0 1702.34512037 0 3055
0.05350000 0.05348950 35897.69304156 0 68.03844257 0 13192.91105310 0 188.13497152 0 3863.74651348 0 3009
0.05450000 0.05448610 33194.27988356 0 1023.99284061 0 12439.14968256 0 -970.03991546 0 2600.90512667 0 3336
0.05550000 0.05550870 32678.66404659 0 417.94541140 0 12759.67951049 0 3196.30191429 0 3005.35708911 0 3349
0.05650000 0.05647670 33141.22439799 0 201.36808610 0 11319.60204507 0 2487.95076681 0 2319.03000966 0 3324
0.05750000 0.05747970 34047.34179023 0 512.08869071 0 9966.63224023 0 1180.92942908 0 4043.62987407 0 3639
0.05850000 0.05849280 32952.28974959 0 -341.94205526 0 9500.58977932 0 630.48480782 0 4563.50772520 0 3846
0.05950000 0.05951020 32019.37000026 0 -811.79616285 0 6473.68095881 0 2625.51056925 0 5307.22919639 0 3787
0.06050000 0.06049470 32127.01881156 0 617.87891233 0 7771.27753327 0 1668.99595801 0 7472.47518991 0 3930
0.06150000 0.06148310 33052.35920581 0 784.73127447 0 6782.47926321 0 159.77500202 0 5414.05416475 0 4083
0.06250000 0.06249100 30758.01153074 0 1264.77467159 0 7686.10315747 0 -859.32530995 0 6840.28008414 0 4303
0.06350000 0.06350600 29857.16673335 0 387.69499697 0 8475.53143518 0 -320.18161697 0 5974.60788815 0 4470
0.06450000 0.06451750 29544.21626051 0 167.25988978 0 8581.84012862 0 280.87002862 0 6277.69421481 0 4479
0.06550000 0.06550280 29515.10714317 0 -31.91809224 0 7322.85432678 0 1601.39689834 0 5591.93833313 0 4636
0.06650000 0.06648880 29476.22175623 0 412.14665554 0 8508.82567467 0 -1183.33505047 0 4358.87612258 0 4653
0.06750000 0.06749660 27643.77535821 0 1056.99708738 0 8566.53861901 0 -1426.62136400 0 4366.53236967 0 5220
0.06850000 0.06852730 27602.14382813 0 -205.97721276 0 10380.39912022 0 -26.44041543 0 3658.54371309 0 5029
0.06950000 0.06949320 28383.25678438 0 -45.41000336 0 9146.41420558 0 1315.11696773 0 2235.94270265 0 5040
0.07050000 0.07048030 28364.91254817 0 264.05264800 0 8845.04147224 0 -118.47740295 0 847.16978193 0 5475
0.07150000 0.07148790 28120.28611679 0 39.20580692 0 8471.17055986 0 58.09334009 0 2234.19615561 0 5509
0.07250000 0.07249820 27894.66299597 0 297.77638428 0 9512.31031827 0 -281.13036299 0 -893.69603756 0 5916
0.07350000 0.07351270 27038.41556325 0 409.01605235 0 7737.71966403 0 252.54850513 0 1270.24498873 0 5721
0.07450000 0.07449140 27497.46085142 0 -669.75465480 0 8229.21337961 0 1423.11728535 0 -1419.99766674 0 6028
0.07550000 0.07549160 27416.94393440 0 315.83392315 0 6798.67052320 0 667.28092906 0 374.37949809 0 6183
0.07650000 0.07648840 27134.86011051 0 536.51178939 0 6729.76429940 0 477.59383744 0 1102.52154999 0 6330
0.07750000 0.07749960 26167.22911182 0 -12.78175850 0 5019.25764160 0 614.90209316 0 681.55098730 0 6583
0.07850000 0.07848650 26187.00134247 0 1290.61038630 0 7543.72112767 0 -1389.46055496 0 -644.79990281 0 6549
0.07950000 0.07947320 24285.46198291 0 1340.09588578 0 7591.62484870 0 -1865.44405405 0 -1450.77643911 0 6828
0.08050000 0.08048110 23203.70127510 0 275.81822369 0 9356.65892479 0 -313.01967565 0 1768.02187983 0 7147
0.08150000 0.08149960 23450.52462101 0 -278.73572617 0 9220.03281102 0 1158.64173131 0 -2074.98576062 0 7386
0.08250000 0.08250610 23771.49383183 0 398.41044753 0 9317.45498525 0 388.97250276 0 -463.04477105 0 7227
0.08350000 0.08350160 23346.72041011 0 151.16419558 0 8854.63100410 0 18.47110802 0 -860.77307662 0 7798
0.08450000 0.08449610 22509.47628796 0 285.41105092 0 9658.16347300 0 -112.05362490 0 -923.06988310 0 7371
0.08550000 0.08548940 22287.80761327 0 670.62353449 0 9463.94524519 0 76.41659577 0 524.04429951 0 8256
0.08650000 0.08650700 21755.71491743 0 164.96850794 0 9296.80398879 0 824.47675344 0 442.64532131 0 8037
0.08750000 0.08749060 22038.12827850 0 -148.54767039 0 8413.77616812 0 961.87618112 0 1011.76371595 0 8155
0.08850000 0.08849210 21353.67956095 0 196.61286463 0 7479.68106952 0 1270.45369561 0 1019.60011003 0 8718
0.08950000 0.08949900 21079.72432078 0 106.33263981 0 7582.84817521 0 555.53157681 0 1824.61439777 0 8571
0.09050000 0.09049190 20907.81575988 0 475.53203316 0 7225.97039661 0 -244.73847403 0 1124.08426597 0 8932
0.09150000 0.09150830 20431.74438420 0 370.25479108 0 7551.59706621 0 99.62040689 0 449.60075267 0 9285
0.09250000 0.09250820 19950.07087651 0 329.94140971 0 6966.19623964 0 -380.59896308 0 693.45826397 0 9204
0.09350000 0.09350330 19628.22289988 0 394.67788976 0 7339.24330907 0 -109.62581467 0 -231.28676644 0 9349
0.09450000 0.09448040 19594.17072487 0 37.80120962 0 7013.90223836 0 525.96000897 0 176.87248925 0 9564
0.09550000 0.09549270 18900.93434927 0 81.00990464 0 6784.77503888 0 466.29071225 0 63.83739279 0 10155
0.09650000 0.09649430 18541.95851731 0 261.34275394 0 6282.36265816 0 100.79751369 0 -8.74065508 0 9913
0.09750000 0.09749140 18635.21753852 0 266.17047359 0 6572.73983435 0 456.43315681 0 -120.87972897 0 10476
0.09850000 0.09850240 17853.55535363 0 315.44177390 0 6100.89751911 0 282.76486739 0 404.33882135 0 10575
0.09950000 0.09950330 18023.04730856 0 189.26528403 0 6434.30126610 0 17.82554469 0 -55.63817827 0 10882
0.10050000 0.10051200 17665.93885395 0 284.35323658 0 5905.69067977 0 -168.57694003 0 -836.75530867 0 10875
0.10150000 0.10150300 17091.88509084 0 108.18046461 0 6186.73096926 0 -18.31699447 0 96.68642755 0 11118
0.10250000 0.10250800 17039.48867963 0 202.45446033 0 5515.92509087 0 1014.69439992 0 -394.31100504 0 11575
0.10350000 0.10349800 16773.33248599 0 151.38388703 0 5631.32901041 0 264.10207857 0 411.41508300 0 11364
0.10450000 0.10450100 16433.46981032 0 334.15289484 0 5138.15465522 0 260.67708884 0 -104.77590618 0 12093
0.10550000 0.10551000 15685.74995471 0 331.31118591 0 5103.15780698 0 -447.61254503 0 787.63559546 0 12067
0.10650000 0.10649700 15361.48537211 0 124.00264296 0 4585.80640754 0 1273.57331423 0 892.63492785 0 12054
0.10750000 0.10749900 15502.63712978 0 -158.29867547 0 4721.82836982 0 348.27026752 0 284.77614263 0 12807
0.10850000 0.10850100 15826.79186665 0 303.70036427 0 4243.85666308 0 206.21887336 0 627.63870507 0 12736
0.10950000 0.10950300 15532.95455010 0 12.67729522 0 3226.80607235 0 -223.52396900 0 222.15419280 0 12933
0.11050000 0.11050200 15225.05698064 0 -45.73020365 0 4341.03717671 0 241.56393255 0 817.61908478 0 13428
0.11150000 0.11150900 15249.11319460 0 245.57549846 0 3565.69112106 0 -43.71596258 0 -504.06555890 0 13453
0.11250000 0.11250000 14840.92647748 0 440.27265363 0 4753.56280000 0 -1070.03797195 0 -111.38246752 0 13668
0.11350000 0.11349100 14231.06300776 0 306.48275651 0 4396.90471286 0 42.99877983 0 -103.67393386 0 13791
0.11450000 0.11448600 14310.59131325 0 47.35218564 0 5123.32548224 0 467.94608734 0 170.06315270 0 14205
0.11550000 0.11549300 14286.64494502 0 27.05071828 0 4822.63379240 0 244.99551303 0 -341.85527713 0 14776
0.11650000 0.11649800 14193.16623235 0 114.69870998 0 4916.67271826 0 -51.54082285 0 673.87277106 0 14553
0.11750000 0.11747300 13799.14961386 0 226.54582492 0 4629.50303727 0 404.78479499 0 866.17528941 0 14568
0.11850000 0.11849100 14189.10194050 0 -25.05800697 0 4906.55592692 0 132.09168221 0 399.88238025 0 16015
0.11950000 0.11950300 13890.32156629 0 211.11799273 0 4619.67184481 0 32.20775542 0 695.49809910 0 15270
0.12050000 0.12050700 13610.76419409 0 116.48809685 0 5111.83561932 0 -386.28787322 0 421.68126454 0 15999
0.12150000 0.12150000 13361.85377940 0 106.37328273 0 5155.69701763 0 -147.14713739 0 946.35827543 0 15670
0.12250000 0.12250700 13481.14623763 0 201.21979437 0 5267.49799737 0 -174.48004934 0 -162.37395190 0 16887
0.12350000 0.12352200 13404.80345819 0 175.58509734 0 5354.71550366 0 234.65243948 0 74.04030318 0 16407
0.12450000 0.12449800 13038.79749978 0 63.37296506 0 5386.08744296 0 -275.13278636 0 -332.15370263 0 16306
0.12550000 0.12549900 12995.62812954 0 137.28299121 0 5403.49799050 0 485.58291707 0 125.20874903 0 17523
0.12650000 0.12650100 13019.46465204 0 -111.89544706 0 4838.96785182 0 348.42734691 0 -256.70616585 0 17154
0.12750000 0.12750600 12743.86172597 0 96.06854534 0 4865.44067174 0 328.35743435 0 343.66553469 0 18007
0.12850000 0.12850300 12893.25191308 0 141.52193777 0 4507.48640504 0 569.01953349 0 269.37357496 0 17496
0.12950000 0.12949900 12803.17841791 0 81.84286478 0 3825.72890778 0 422.47105531 0 334.06501826 0 18405
0.13050000 0.13049000 12548.99540838 0 -1.35636404 0 4046.82638469 0 60.84574444 0 686.80380990 0 18100
0.13150000 0.13148800 12263.83590417 0 125.16371228 0 3471.36659630 0 556.76734123 0 956.96168334 0 19059
0.13250000 0.13249300 12123.23337513 0 60.76852290 0 3283.50843602 0 457.06916357 0 1419.21776208 0 18957
0.13350000 0.13349100 12453.31978119 0 -8.67612072 0 2586.53730573 0 522.89311630 0 978.19815751 0 19468
0.13450000 0.13450700 11932.10181221 0 227.34220643 0 3158.19643201 0 -490.98183450 0 520.46662422 0 19953
0.13550000 0.13551000 11593.00805662 0 390.90798445 0 3119.53073652 0 -497.62859937 0 1158.92733019 0 19956
0.13650000 0.13649900 11574.33428324 0 85.01509949 0 3280.16912595 0 154.12563635 0 1139.84712762 0 19723
0.13750000 0.13749600 11583.67116993 0 -203.89453780 0 3287.40795928 0 410.92736798 0 599.71152774 0 20946
0.13850000 0.13851100 11735.03858010 0 -108.02602152 0 2722.64714458 0 542.68182381 0 413.43844127 0 20955
0.13950000 0.13949800 11886.95521890 0 53.65469400 0 2963.61571330 0 -188.01414122 0 751.54028996 0 20506
0.14050000 0.14048300 11574.44412896 0 148.02480473 0 2703.75367974 0 -216.04786890 0 288.47245130 0 21447
0.14150000 0.14148400 11433.84159992 0 205.26651091 0 2865.18295840 0 -142.40399894 0 786.84360778 0 21771
0.14250000 0.14249400 11468.77254073 0 91.07891310 0 2877.51863341 0 -41.98149857 0 175.33245217 0 22470
0.14350000 0.14350900 11159.11743966 0 297.93016829 0 3218.00742971 0 154.27612499 0 268.91112445 0 22519
0.14450000 0.14449900 10909.48204318 0 69.36680693 0 2950.87360911 0 -138.29906417 0 -99.08875358 0 22218
0.14550000 0.14550500 10928.95769036 0 32.92405940 0 3134.21711006 0 -34.66939814 0 -44.83869574 0 23559
0.14650000 0.14650700 10584.59133994 0 298.70238375 0 2845.03725229 0 -18.24647351 0 -369.30792093 0 23044
0.14750000 0.14750500 10535.78688396 0 110.04344812 0 2976.13812604 0 80.83228410 0 -469.19393478 0 23649
0.14850000 0.14849900 10310.99859066 0 -6.78309440 0 2721.80133250 0 145.40278726 0 -571.76347972 0 23640
0.14950000 0.14949500 10372.25955194 0 -24.20846013 0 2494.10212746 0 504.50274489 0 -686.67748732 0 24457
0.15050000 0.15050000 10274.43094853 0 37.63830841 0 2145.17717941 0 -147.55246811 0 -541.38454579 0 24591
0.15150000 0.15149900 10213.76315417 0 177.21191254 0 2332.87057111 0 -326.72842223 0 -954.36163501 0 25020
0.15250000 0.15250500 9830.25877163 0 203.07838405 0 2366.17579517 0 -136.08896817 0 -1059.70478452 0 25297
0.15350000 0.15350100 9616.02665258 0 208.24223163 0 2750.03168403 0 -197.23678836 0 -761.83612984 0 25452
0.15450000 0.15450400 9324.93547917 0 254.23353857 0 2858.44941541 0 27.45187488 0 -890.96637127 0 26061
0.15550000 0.15549900 9238.36606266 0 209.53401736 0 3210.14247574 0 19.48256747 0 -713.39746012 0 26128
0.15650000 0.15649500 9100.08127843 0 110.99800748 0 3273.91890415 0 18.88577564 0 -430.80175515 0 26331
0.15750000 0.15749700 9160.29870532 0 -56.98060289 0 3043.28681823 0 340.65356489 0 -70.16011276 0 27345
0.15850000 0.15849900 8987.95076152 0 22.76816297 0 2806.70109398 0 481.94043281 0 -12.63840983 0 26980
0.15950000 0.15949700 8834.51825171 0 54.59749987 0 2812.03959625 0 127.80769890 0 459.02551594 0 27777
0.16050000 0.16050000 8889.69375978 0 288.15499715 0 2836.39239366 0 -179.79438555 0 75.57418890 0 28224
0.16150000 0.16150500 8793.32610453 0 128.13394070 0 2741.63947058 0 218.07452254 0 400.87648407 0 28075
0.16250000 0.16249700 8648.27482359 0 -156.96734527 0 2848.48640808 0 102.94247117 0 406.30615830 0 28590
0.16350000 0.16349900 8478.82680695 0 -117.16254961 0 2366.10988774 0 253.99956717 0 711.67617760 0 29163
0.16450000 0.16449100 8654.94245915 0 -27.84171736 0 2064.35269436 0 359.48771304 0 480.75409897 0 28996
0.16550000 0.16550500 8736.54684885 0 179.42310700 0 2099.37151175 0 21.10487899 0 249.07957711 0 30777
0.16650000 0.16650700 8494.09536284 0 313.84681397 0 2112.70678286 0 -340.82162885 0 250.36147673 0 29211
0.16750000 0.16749900 8248.10684445 0 155.30977327 0 2462.94987962 0 -139.82262439 0 343.49417536 0 30922
0.16850000 0.16850800 8144.35755642 0 -52.20945379 0 2504.36171825 0 203.10145166 0 135.16516561 0 30867
0.16950000 0.16949900 8188.96590567 0 10.12657860 0 2305.47504709 0 94.85200393 0 -7.16144702 0 30852
0.17050000 0.17049200 8195.83126354 0 96.95785634 0 2219.52076664 0 -69.91372880 0 -63.48819322 0 31257
0.17150000 0.17149500 7987.80542799 0 100.96349058 0 2255.74788701 0 -20.31684576 0 126.51042088 0 32608
0.17250000 0.17250900 7941.30773225 0 -32.49346415 0 2111.79506334 0 224.75533959 0 168.03649906 0 32361
0.17350000 0.17350400 7977.16137716 0 9.30943625 0 2120.19826136 0 249.83202033 0 301.20906321 0 32508
0.17450000 0.17449800 8090.02786043 0 53.15950947 0 1912.30424069 0 5.25215255 0 133.66357454 0 32791
0.17550000 0.17549800 7954.24755876 0 160.26161859 0 2089.17782839 0 -126.02600123 0 266.67466547 0 33633
0.17650000 0.17650100 7878.32219307 0 123.42595290 0 2119.95660076 0 -88.38681405 0 263.26834951 0 33984
0.17750000 0.17750300 7675.01972374 0 -9.53063259 0 2234.61356937 0 -4.95102148 0 672.39205068 0 34069
0.17850000 0.17849800 7794.72959573 0 22.97005942 0 1994.18324471 0 297.79286114 0 274.73953866 0 34536
