### header ###
fiducial parameters:
Omega_m = 0.31
Omega_nu = 0
Omega_de = 0.69
Omega_k = 0
H_0 = 100
w_de = -1
zeff = 0
beta = 0
fgrowth = 0
b_1 = 2
gamma = 0.55
Lx = 3500 Ly = 3500 Lz = 3500
nx = 700 ny = 700 nz = 700
xoffset = -983.599254 yoffset = -42.9823471 zoffset = 800.977702
bins = 400 dk = 0.001
kx_ny = 0.628318531 ky_ny = 0.628318531 kz_ny = 0.628318531
############################
A(data) = 9.05824737 (not used)
A(ran) = 9.06553098 (used)
Ngal = 503222
weighted Ngal = 0
Nran = 25229228
weighted Nran = 0
SN(data) = 6725.43839
SN(ran) = 134.571562
SN(data+ran) = 6860.00995
############################
13 columns: k_central k_mean P_0(k) sigma^{lin}_{P_0(k)} P^img_1(k) sigma^{lin}_{P_1(k)} P_2(k) sigma^{lin}_{P_2(k)} P^img_3(k) sigma^{lin}_{P_3(k)} P_4(k) sigma^{lin}_{P_4(k)} N_modes
### header ###
0.00050000 0 0 0 0 0 0 0 0 0 0 0 0
0.00150000 0.00179520 9177.55546885 0 -18422.33652190 0 6378.92803572 0 -38832.88068102 0 -7591.20743494 0 3
0.00250000 0.00253879 25812.42741745 0 -17445.58832796 0 2463.68584598 0 -30206.58598716 0 24549.42126204 0 6
0.00350000 0.00331552 30844.02073406 0 -3792.39072999 0 -105.51813375 0 -39768.65641922 0 -49254.71360902 0 7
0.00450000 0.00420575 41952.49929412 0 1115.90075939 0 3191.41377949 0 -5903.68050299 0 21812.06577477 0 24
0.00550000 0.00557378 50042.63700028 0 -2847.51976569 0 12768.02778565 0 10607.92257210 0 6869.56495464 0 45
0.00650000 0.00659388 68608.10250291 0 -5620.25656124 0 5566.52003218 0 8379.00999590 0 28132.91837526 0 40
0.00750000 0.00754703 48827.08419843 0 -5014.08390792 0 -8426.27661172 0 13876.15146766 0 5479.52221733 0 57
0.00850000 0.00846663 68641.49560356 0 1508.01704683 0 890.69175696 0 22180.92772205 0 -7807.52662279 0 75
0.00950000 0.00948925 77692.78341058 0 -11547.31223469 0 -10612.16261712 0 -14223.04426977 0 -19419.84555801 0 112
0.01050000 0.01054430 72107.12825297 0 12179.91376964 0 -23289.05140406 0 -23481.72080714 0 495.44486634 0 105
0.01150000 0.01145670 69309.13792505 0 6996.96402744 0 14140.33043824 0 -28855.59340538 0 -12292.17610143 0 144
0.01250000 0.01249090 60724.03537838 0 2308.03445250 0 409.32691576 0 -3635.61891011 0 -47411.83186705 0 169
0.01350000 0.01339930 59511.44841112 0 -2111.22386556 0 9497.53606814 0 -1639.74404123 0 -38345.16565840 0 180
0.01450000 0.01448870 64292.48362715 0 -8407.71268406 0 -4046.89229213 0 9863.79467172 0 -25785.07583172 0 267
0.01550000 0.01550050 70887.73085071 0 -8037.25797375 0 -13063.84232527 0 12201.88291481 0 -23107.25672784 0 238
0.01650000 0.01653350 86255.80696637 0 -3205.53993983 0 -11139.23536329 0 -11452.95475621 0 -47005.29283581 0 315
0.01750000 0.01747870 82425.92589016 0 5506.89577220 0 -13660.74399934 0 -12537.13206999 0 -20624.41378728 0 297
0.01850000 0.01844180 86589.62812712 0 2661.41913702 0 282.77804888 0 -21538.65976322 0 -22996.97161912 0 388
0.01950000 0.01947590 78217.18690562 0 2232.53748515 0 16309.45398588 0 -27434.29955908 0 -42836.64754119 0 399
0.02050000 0.02045430 71352.59796236 0 9993.46755105 0 30601.37152574 0 -1296.80568524 0 -36620.25822596 0 462
0.02150000 0.02154770 61301.93374188 0 2167.38798517 0 37258.90127584 0 -2080.08260229 0 -9213.82652751 0 571
0.02250000 0.02255340 60980.74483960 0 3065.33285540 0 38207.63880969 0 22714.99764096 0 -13567.04559522 0 510
0.02350000 0.02348930 62156.42364298 0 982.42941487 0 39484.59537227 0 10245.16804718 0 -5240.92631629 0 555
0.02450000 0.02439640 59780.35074791 0 1609.67926607 0 25096.89235950 0 2963.43996014 0 2244.45574640 0 592
0.02550000 0.02547300 61041.59937170 0 887.72921773 0 28421.59294269 0 6742.39655786 0 8350.86752095 0 837
0.02650000 0.02652900 57973.71809546 0 -3170.08173954 0 21054.78934102 0 4605.61159191 0 6713.45220911 0 723
0.02750000 0.02749970 56518.81145706 0 -600.12894149 0 16702.15245566 0 2603.10204118 0 4078.18733941 0 826
0.02850000 0.02848090 57618.03763527 0 2637.72541396 0 18412.88978948 0 283.53598438 0 1231.56830868 0 831
0.02950000 0.02946900 52441.55780632 0 4201.62098151 0 13194.33904753 0 -415.45191343 0 -51.23918649 0 996
0.03050000 0.03053250 54243.24740111 0 257.62886995 0 18024.36545727 0 1857.88666812 0 5653.61670817 0 1041
0.03150000 0.03150510 51693.28872208 0 -1775.91978752 0 12871.94184227 0 4937.29076100 0 -1218.44174444 0 1036
0.03250000 0.03246190 55000.41398914 0 -716.00739457 0 9982.86743851 0 374.42673175 0 -3591.79046551 0 1059
0.03350000 0.03345080 52017.33361323 0 1527.87715406 0 14508.75300262 0 1026.91693383 0 6598.24601188 0 1302
0.03450000 0.03451200 48530.17120155 0 2068.27418677 0 12301.73267957 0 -2605.81523061 0 1005.88037888 0 1339
0.03550000 0.03553350 49597.98150218 0 2193.56422163 0 21874.45814704 0 -3321.84459432 0 532.51120806 0 1365
0.03650000 0.03647120 44321.43221701 0 2982.08077981 0 20646.38293244 0 -1252.86739491 0 4199.34717498 0 1308
0.03750000 0.03744890 43736.39388133 0 1175.32729706 0 25311.97029064 0 3224.48832754 0 5299.37522700 0 1579
0.03850000 0.03847530 44003.09930360 0 48.44482107 0 20896.06226722 0 3428.48282494 0 3073.23076309 0 1662
0.03950000 0.03950240 44625.70487751 0 -2444.99010345 0 19664.47198939 0 5443.55872670 0 3542.85419466 0 1683
0.04050000 0.04050350 45851.69302332 0 62.60503359 0 15075.55694781 0 5036.16289880 0 5874.67024680 0 1822
0.04150000 0.04152450 45512.48942201 0 682.66592141 0 16367.56237483 0 -3003.87417181 0 4572.99839591 0 1887
0.04250000 0.04250150 42948.90987297 0 1955.37474978 0 14068.49133356 0 -1773.87665702 0 5091.22856115 0 1920
0.04350000 0.04349210 40996.51194236 0 861.96050892 0 16323.95362168 0 1452.76464675 0 5670.67574939 0 2005
0.04450000 0.04448520 41858.36150710 0 -508.40336661 0 14810.49921143 0 5808.49918157 0 2773.25307047 0 2151
0.04550000 0.04548030 43190.02124113 0 -968.25602087 0 10378.30106686 0 2520.65183939 0 1164.26583247 0 2274
0.04650000 0.04648670 41325.17035400 0 913.42103454 0 10748.05276452 0 -2218.57609340 0 3209.67013912 0 2311
0.04750000 0.04749250 40881.28377599 0 2340.91127824 0 9809.65171347 0 -985.66656841 0 1846.74831152 0 2568
0.04850000 0.04851840 38995.12281804 0 365.17332781 0 12477.26614942 0 -482.85544770 0 4734.85607290 0 2493
0.04950000 0.04949480 37821.86062063 0 421.16169426 0 13299.24171568 0 978.24648963 0 -968.48230307 0 2644
0.05050000 0.05050630 37887.10898176 0 167.66522051 0 13762.79067862 0 417.82897493 0 -426.51667339 0 2829
0.05150000 0.05149060 37154.87737349 0 682.67470907 0 11972.08565641 0 -1384.05614525 0 330.17757802 0 2784
0.05250000 0.05249300 35496.75614234 0 959.43540909 0 14146.81133606 0 1584.65640973 0 2884.70254388 0 3055
0.05350000 0.05348950 35993.91789737 0 504.38850533 0 13849.45895628 0 -529.25538074 0 -835.92817035 0 3009
0.05450000 0.05448610 34654.67880825 0 1030.49900295 0 13599.99931296 0 913.96477089 0 125.64373810 0 3336
0.05550000 0.05550870 35184.13520667 0 -251.25342402 0 13807.49788902 0 263.78023060 0 664.88409532 0 3349
0.05650000 0.05647670 33709.67602908 0 -1194.03402416 0 11940.55993310 0 741.83651854 0 1058.83590483 0 3324
0.05750000 0.05747970 35387.34979943 0 218.94010686 0 11171.42016095 0 3319.02155917 0 -1968.60017517 0 3639
0.05850000 0.05849280 35004.86698214 0 231.50426098 0 9487.66093739 0 -195.10907665 0 1560.31459689 0 3846
0.05950000 0.05951020 34726.51791293 0 -366.27617890 0 8133.23018440 0 1783.24649743 0 -834.23764463 0 3787
0.06050000 0.06049470 34894.91141060 0 627.54973003 0 9100.47672305 0 587.71198065 0 1727.40093042 0 3930
0.06150000 0.06148310 35999.19049221 0 206.62200717 0 8163.74532703 0 -1052.32534866 0 136.98860466 0 4083
0.06250000 0.06249100 33545.34682326 0 416.50094011 0 10257.10827757 0 224.17425570 0 720.10903397 0 4303
0.06350000 0.06350600 33748.45157029 0 1366.63461314 0 9939.65412997 0 -1444.00994240 0 -1792.79209100 0 4470
0.06450000 0.06451750 31867.78289864 0 653.50297967 0 12427.50603563 0 -674.05401651 0 534.47964346 0 4479
0.06550000 0.06550280 31510.23506112 0 1108.83767922 0 12555.03692330 0 -769.38692503 0 -1134.99194654 0 4636
0.06650000 0.06648880 30680.46044832 0 210.52921964 0 13004.96501623 0 13.69303864 0 348.31310735 0 4653
0.06750000 0.06749660 30016.99226441 0 48.12121556 0 12396.63938667 0 1764.16629485 0 -1126.64367138 0 5220
0.06850000 0.06852730 30317.09078733 0 -251.11831378 0 10765.92466411 0 823.84733743 0 -1748.09586517 0 5029
0.06950000 0.06949320 30218.33947982 0 288.70202887 0 10642.49102202 0 756.10987215 0 -794.08683494 0 5040
0.07050000 0.07048030 29162.28267185 0 656.63797668 0 8992.66314316 0 110.83543580 0 -2836.16171764 0 5475
0.07150000 0.07148790 28592.29320061 0 1037.25671200 0 9072.98233787 0 856.02554435 0 -214.99444839 0 5509
0.07250000 0.07249820 28535.06357746 0 -487.02409300 0 8756.49483266 0 1940.62246880 0 -315.18693182 0 5916
0.07350000 0.07351270 26825.97392953 0 284.29391989 0 7385.86183511 0 728.55397337 0 -322.06656963 0 5721
0.07450000 0.07449140 27198.02140286 0 692.47294781 0 6162.45506386 0 1097.11933719 0 1074.67675695 0 6028
0.07550000 0.07549160 26993.92804430 0 493.27431480 0 7422.76999898 0 -759.24706608 0 833.55769959 0 6183
0.07650000 0.07648840 26159.53991102 0 678.84109324 0 7888.16437011 0 -1280.25193436 0 119.59233706 0 6330
0.07750000 0.07749960 25121.49780208 0 454.44604763 0 8071.51885563 0 146.71104985 0 199.96975001 0 6583
0.07850000 0.07848650 24643.00982044 0 182.08796431 0 8979.96497726 0 2.17497832 0 1121.01957022 0 6549
0.07950000 0.07947320 24759.99551843 0 -131.15909199 0 7468.98209583 0 887.86652489 0 -642.26905729 0 6828
0.08050000 0.08048110 24441.00353067 0 60.37088137 0 8403.68134592 0 1411.50659213 0 1008.34751388 0 7147
0.08150000 0.08149960 23728.32446159 0 715.03525990 0 7382.29184902 0 -514.66347453 0 1544.24416720 0 7386
0.08250000 0.08250610 23427.78655576 0 674.16825606 0 8259.73950682 0 -455.05019913 0 1613.23826759 0 7227
0.08350000 0.08350160 23085.83681131 0 509.30959385 0 8791.18411287 0 231.07037036 0 946.67353266 0 7798
0.08450000 0.08449610 22275.06550908 0 349.52580417 0 8581.54354516 0 1400.46709669 0 3236.86794083 0 7371
0.08550000 0.08548940 22560.33485901 0 -602.16548125 0 8260.94780980 0 1225.70254692 0 1810.88368204 0 8256
0.08650000 0.08650700 21340.71776531 0 630.73525608 0 7108.65516144 0 -362.98629941 0 1792.84701386 0 8037
0.08750000 0.08749060 21815.58083800 0 676.28827857 0 7786.85365719 0 -424.17805789 0 2773.35193162 0 8155
0.08850000 0.08849210 21069.39882255 0 207.03283018 0 7521.69705965 0 448.25953636 0 2745.82459273 0 8718
0.08950000 0.08949900 20808.95460664 0 -348.47018674 0 8160.01057235 0 55.02458005 0 2258.60387589 0 8571
0.09050000 0.09049190 20512.04160977 0 592.56935864 0 7768.36662153 0 46.11905752 0 1112.94590937 0 8932
0.09150000 0.09150830 20009.93679708 0 714.06971597 0 7095.98994926 0 -275.59084304 0 1915.31401357 0 9285
0.09250000 0.09250820 19849.01280876 0 -175.28961234 0 7548.27972529 0 1380.28843685 0 1487.78346413 0 9204
0.09350000 0.09350330 19993.24024675 0 -73.57895113 0 6809.86380266 0 757.70702900 0 550.53908858 0 9349
0.09450000 0.09448040 19408.53144825 0 341.64107797 0 6064.73630618 0 312.42650873 0 2404.00666314 0 9564
0.09550000 0.09549270 18914.66506499 0 332.66448525 0 5103.32257557 0 524.92086840 0 1975.48750217 0 10155
0.09650000 0.09649430 18612.69916473 0 300.54229965 0 6073.66676368 0 -111.71859544 0 1145.55910536 0 9913
0.09750000 0.09749140 18096.75379059 0 624.64431058 0 4971.67247318 0 123.04698514 0 890.87519932 0 10476
0.09850000 0.09850240 17585.09239975 0 178.47623684 0 6162.33423356 0 -34.11962028 0 1164.88096853 0 10575
0.09950000 0.09950330 17077.49530076 0 187.19908593 0 4684.52476133 0 -181.04113454 0 -398.05894120 0 10882
0.10050000 0.10051200 16868.34903881 0 484.60858549 0 5995.05017772 0 -586.73435369 0 271.47382523 0 10875
0.10150000 0.10150300 16110.85291360 0 216.62346050 0 5403.48700592 0 -256.19977706 0 -1031.52166665 0 11118
0.10250000 0.10250800 16066.69493183 0 84.16511327 0 6074.73226722 0 229.76979697 0 -775.43832606 0 11575
0.10350000 0.10349800 15744.07803511 0 62.28681052 0 5389.14115413 0 603.52207596 0 5.08576923 0 11364
0.10450000 0.10450100 16194.11597377 0 -41.97908196 0 5166.05546958 0 792.72914176 0 -381.91821025 0 12093
0.10550000 0.10551000 15820.20112310 0 204.66126096 0 4855.90606274 0 438.64583843 0 561.58517476 0 12067
0.10650000 0.10649700 15725.07472455 0 205.12151455 0 4977.30755891 0 -189.06975864 0 -72.14930901 0 12054
0.10750000 0.10749900 15446.28627243 0 131.99172259 0 5024.85977362 0 77.95893960 0 867.86581513 0 12807
0.10850000 0.10850100 15408.82887993 0 -134.27871061 0 5122.62246959 0 675.87525864 0 1103.74083755 0 12736
0.10950000 0.10950300 15345.88727904 0 247.94157539 0 4940.48727162 0 -111.96904369 0 1229.51419360 0 12933
0.11050000 0.11050200 15335.34208936 0 191.70276069 0 4866.09974610 0 -349.81909225 0 1029.57520039 0 13428
0.11150000 0.11150900 14877.06572127 0 285.78232948 0 5530.91903244 0 147.18118956 0 1121.57978342 0 13453
0.11250000 0.11250000 14650.12445174 0 144.26149017 0 4968.62974657 0 308.10298096 0 1987.54856287 0 13668
0.11350000 0.11349100 14651.88198335 0 -8.72560621 0 5172.42652168 0 131.33594361 0 934.68716706 0 13791
0.11450000 0.11448600 14484.03771431 0 310.31527388 0 5516.56219608 0 -142.53801073 0 1457.74065812 0 14205
0.11550000 0.11549300 14300.70519792 0 174.55035060 0 5201.56859273 0 86.43452596 0 930.08243424 0 14776
0.11650000 0.11649800 14132.86092888 0 -0.97213467 0 5476.25979928 0 147.20096179 0 1504.98530480 0 14553
0.11750000 0.11747300 14227.21840736 0 104.02302358 0 5183.58684742 0 -24.30248807 0 -11.94934759 0 14568
0.11850000 0.11849100 14025.98103767 0 303.67290284 0 5387.05408534 0 -383.75263387 0 623.54255795 0 16015
0.11950000 0.11950300 13561.88284610 0 68.10061525 0 5344.06046826 0 -84.19938513 0 123.55447239 0 15270
0.12050000 0.12050700 13643.82775756 0 85.28542982 0 5341.73173887 0 614.21336046 0 514.59097635 0 15999
0.12150000 0.12150000 13482.90376924 0 -190.16382207 0 5418.82146925 0 808.35359780 0 680.77437802 0 15670
0.12250000 0.12250700 13456.54079505 0 61.61202823 0 4450.75108765 0 296.72735760 0 1484.53203065 0 16887
0.12350000 0.12352200 13580.33692804 0 108.34314613 0 4499.13812987 0 716.74116402 0 1563.19255491 0 16407
0.12450000 0.12449800 13225.42538794 0 -1.84233251 0 3967.56170895 0 382.99140299 0 1651.39867273 0 16306
0.12550000 0.12549900 13334.83173085 0 195.05085841 0 3998.77986422 0 734.17917299 0 2259.44968797 0 17523
0.12650000 0.12650100 13118.76518817 0 181.32124114 0 3637.82680920 0 -349.29622660 0 1715.52660746 0 17154
0.12750000 0.12750600 12853.70745178 0 132.73757507 0 3760.23888605 0 98.44406901 0 2322.30341228 0 18007
0.12850000 0.12850300 12731.33931323 0 65.88711403 0 3410.03972758 0 1.54647404 0 1810.12574653 0 17496
0.12950000 0.12949900 12614.90284387 0 103.67151726 0 3457.86655660 0 -193.22082862 0 1237.15945612 0 18405
0.13050000 0.13049000 12229.67388344 0 343.97969347 0 3333.80679387 0 -25.20794639 0 1304.52783976 0 18100
0.13150000 0.13148800 11968.13121028 0 101.06696525 0 4035.86378126 0 -116.65725927 0 1127.68720577 0 19059
0.13250000 0.13249300 12141.79730279 0 45.45800594 0 3242.65681059 0 464.78253043 0 1100.30266633 0 18957
0.13350000 0.13349100 12054.03056786 0 -13.25036037 0 3468.59848401 0 240.14033194 0 1353.55198719 0 19468
0.13450000 0.13450700 11968.24105600 0 20.28696772 0 3083.32558529 0 129.36421283 0 926.30483972 0 19953
0.13550000 0.13551000 11823.68408083 0 131.15579662 0 3233.62749192 0 -45.96098952 0 957.73609571 0 19956
0.13650000 0.13649900 11879.04632664 0 148.72342355 0 3090.39965004 0 -316.44137001 0 1016.92976044 0 19723
0.13750000 0.13749600 11663.41916687 0 81.18477903 0 3482.01064713 0 459.07824189 0 1233.50159345 0 20946
0.13850000 0.13851100 11649.90814260 0 -25.85724447 0 2859.29522750 0 73.88113672 0 864.32219202 0 20955
0.13950000 0.13949800 11445.59509258 0 101.58752415 0 3149.12317505 0 -103.24740291 0 475.39802138 0 20506
0.14050000 0.14048300 11236.00944773 0 351.76116469 0 3047.90033872 0 -333.31477195 0 319.95643323 0 21447
0.14150000 0.14148400 10977.43260917 0 49.23461184 0 3162.94176736 0 -0.31924353 0 320.08495273 0 21771
0.14250000 0.14249400 11147.91317563 0 41.58880010 0 3140.80785361 0 322.47849110 0 -279.43983727 0 22470
0.14350000 0.14350900 10984.15516759 0 58.13420270 0 2872.81723634 0 200.26084119 0 -49.30150789 0 22519
0.14450000 0.14449900 10788.03660872 0 79.33453763 0 2963.16534583 0 106.06922976 0 279.27397022 0 22218
0.14550000 0.14550500 10629.43036522 0 176.26394393 0 2519.07006093 0 -196.83035917 0 38.95986234 0 23559
0.14650000 0.14650700 10504.85432757 0 199.71380947 0 3100.19788878 0 -187.84607726 0 407.96592721 0 23044
0.14750000 0.14750500 10216.99261850 0 219.58380282 0 2964.42857167 0 272.86886595 0 335.48312658 0 23649
0.14850000 0.14849900 10428.80813159 0 32.38702364 0 3384.80816436 0 -22.68325223 0 660.17940288 0 23640
0.14950000 0.14949500 9920.10159078 0 82.67450677 0 3022.11954687 0 -44.21949538 0 386.58225977 0 24457
0.15050000 0.15050000 10081.71760716 0 90.33921198 0 3597.44752039 0 84.60867031 0 523.43795110 0 24591
0.15150000 0.15149900 10079.88318354 0 -66.46567147 0 2990.34117839 0 -6.64165704 0 157.94167686 0 25020
0.15250000 0.15250500 10042.59055963 0 129.29940385 0 3383.08358646 0 69.38822685 0 117.15376195 0 25297
0.15350000 0.15350100 9825.96380375 0 172.72910847 0 3049.28439486 0 -301.63746154 0 216.88159796 0 25452
0.15450000 0.15450400 9623.86963740 0 217.83835423 0 3365.45334747 0 314.11703445 0 209.98218792 0 26061
0.15550000 0.15549900 9438.88943513 0 45.56038216 0 3088.93870188 0 411.73802944 0 324.51722777 0 26128
0.15650000 0.15649500 9587.65350160 0 -131.81816635 0 2679.58762007 0 328.55186128 0 68.05810495 0 26331
0.15750000 0.15749700 9416.98619740 0 173.99672815 0 2658.07982695 0 -61.19450462 0 -103.21928240 0 27345
0.15850000 0.15849900 9198.74470936 0 232.45552497 0 2763.86126091 0 -120.15364872 0 358.72538370 0 26980
0.15950000 0.15949700 9093.90794864 0 -5.74776548 0 2641.85561325 0 10.02502623 0 121.60141539 0 27777
0.16050000 0.16050000 8971.28716492 0 17.82455608 0 2779.40443111 0 119.33749498 0 -220.24836946 0 28224
0.16150000 0.16150500 9020.34426607 0 80.98694688 0 2654.20227283 0 9.69908101 0 -13.02627509 0 28075
0.16250000 0.16249700 8805.70571783 0 93.29944444 0 2452.07515276 0 -200.80128216 0 -98.06521110 0 28590
0.16350000 0.16349900 8831.44257138 0 -56.03647888 0 2236.34913184 0 338.87296568 0 -257.21804694 0 29163
0.16450000 0.16449100 8867.96627522 0 143.78585818 0 2430.13896132 0 179.59666325 0 -532.38268856 0 28996
0.16550000 0.16550500 8777.32158228 0 188.84127953 0 2237.55743482 0 -171.35383998 0 -520.26780346 0 30777
0.16650000 0.16650700 8670.47464478 0 57.64813536 0 2202.70338602 0 -277.30114099 0 -657.85506732 0 29211
0.16750000 0.16749900 8371.50753283 0 134.39295016 0 2281.03437310 0 32.43996928 0 -1007.27212422 0 30922
0.16850000 0.16850800 8380.11943773 0 -72.82189439 0 2183.86484404 0 41.74104627 0 -975.07524353 0 30867
0.16950000 0.16949900 8472.56560058 0 52.46275803 0 2009.25407829 0 228.33960562 0 -1235.35798622 0 30852
0.17050000 0.17049200 8323.36215121 0 66.34912515 0 1880.36110362 0 93.97949933 0 -913.65720285 0 31257
0.17150000 0.17149500 8332.77592991 0 -41.42974348 0 1725.26992334 0 307.43511895 0 -377.25965302 0 32608
0.17250000 0.17250900 8407.32822402 0 45.24798091 0 1865.41110034 0 131.61385330 0 -668.63203148 0 32361
0.17350000 0.17350400 8232.02543019 0 28.91655778 0 1726.69791778 0 53.85637075 0 -359.12192677 0 32508
0.17450000 0.17449800 8241.12065629 0 237.70285529 0 1913.36974423 0 -94.95229308 0 -258.56475553 0 32791
0.17550000 0.17549800 8047.11113536 0 125.54487695 0 1968.05094654 0 -160.90970837 0 424.79978469 0 33633
0.17650000 0.17650100 7913.38494875 0 66.14426287 0 2225.11191408 0 474.74114394 0 445.48043949 0 33984
0.17750000 0.17750300 7730.96415189 0 108.21385771 0 2256.31908479 0 -149.99214168 0 484.91835043 0 34069
0.17850000 0.17849800 7650.41428116 0 300.57195800 0 2314.27368973 0 -59.79287316 0 677.77888507 0 34536
