### header ###
fiducial parameters:
Omega_m = 0.31
Omega_nu = 0
Omega_de = 0.69
Omega_k = 0
H_0 = 100
w_de = -1
zeff = 0
beta = 0
fgrowth = 0
b_1 = 2
gamma = 0.55
Lx = 3500 Ly = 3500 Lz = 3500
nx = 700 ny = 700 nz = 700
xoffset = -983.599254 yoffset = -42.9823471 zoffset = 800.977702
bins = 400 dk = 0.001
kx_ny = 0.628318531 ky_ny = 0.628318531 kz_ny = 0.628318531
############################
A(data) = 9.04471559 (not used)
A(ran) = 9.04475815 (used)
Ngal = 502104
weighted Ngal = 0
Nran = 25229228
weighted Nran = 0
SN(data) = 6754.22517
SN(ran) = 134.263203
SN(data+ran) = 6888.48838
############################
13 columns: k_central k_mean P_0(k) sigma^{lin}_{P_0(k)} P^img_1(k) sigma^{lin}_{P_1(k)} P_2(k) sigma^{lin}_{P_2(k)} P^img_3(k) sigma^{lin}_{P_3(k)} P_4(k) sigma^{lin}_{P_4(k)} N_modes
### header ###
0.00050000 0 0 0 0 0 0 0 0 0 0 0 0
0.00150000 0.00179520 45141.32071448 0 -37207.05409325 0 -11862.23993059 0 7798.13481323 0 36108.26729794 0 3
0.00250000 0.00253879 71317.66702155 0 -25577.79694711 0 -4100.44208346 0 -66084.28710662 0 -26677.24281678 0 6
0.00350000 0.00331552 75696.00780675 0 -4441.57896955 0 -31518.58333628 0 -14163.39804066 0 42201.19001736 0 7
0.00450000 0.00420575 78853.74288670 0 -3804.88018902 0 -30887.40979575 0 -13194.33904753 0 19904.37505457 0 24
0.00550000 0.00557378 97804.87673267 0 -19328.01453123 0 -18792.84615507 0 -15632.80431486 0 -32087.91373317 0 45
0.00650000 0.00659388 113308.06309107 0 4016.23435005 0 -14558.07373351 0 -25889.86865415 0 -30661.12760058 0 40
0.00750000 0.00754703 114070.39242822 0 789.69300590 0 17444.05048780 0 -32388.56148472 0 -40830.09566776 0 57
0.00850000 0.00846663 87771.56813687 0 24537.77761511 0 40947.08136575 0 -46782.52570386 0 18274.92355785 0 75
0.00950000 0.00948925 99314.48654252 0 2846.95955249 0 37062.60696381 0 8485.68118024 0 -29944.82362255 0 112
0.01050000 0.01054430 96342.61043064 0 -3529.31021667 0 58138.70637563 0 4573.36088681 0 -41622.41288805 0 105
0.01150000 0.01145670 91263.89329765 0 1812.88287425 0 47507.72718568 0 5212.93762536 0 -15490.88363711 0 144
0.01250000 0.01249090 87850.54721373 0 6468.63903999 0 45279.61648328 0 6284.13117434 0 -16888.01142373 0 169
0.01350000 0.01339930 99897.65750086 0 2463.79569170 0 71098.19526137 0 -2544.90577565 0 5210.48806567 0 180
0.01450000 0.01448870 86557.55317518 0 634.09543683 0 54383.08101007 0 15923.45610537 0 -17641.77279427 0 267
0.01550000 0.01550050 95023.14357217 0 4994.65219902 0 65479.14700311 0 -1177.51322700 0 3482.25230773 0 238
0.01650000 0.01653350 89834.14133047 0 -400.83693961 0 51477.11233367 0 1139.72629732 0 -11240.07373959 0 315
0.01750000 0.01747870 84561.21695424 0 5005.15345041 0 64106.29512190 0 9360.63534006 0 -3265.91115074 0 297
0.01850000 0.01844180 82108.36189683 0 2684.81627661 0 66083.51818654 0 -6037.54948904 0 -15252.84794928 0 388
0.01950000 0.01947590 83079.61780447 0 5453.74142548 0 70489.10071174 0 8056.98626611 0 -751.30631856 0 399
0.02050000 0.02045430 77077.09811740 0 6109.94880692 0 66153.70960533 0 5835.64206042 0 -5332.41682132 0 462
0.02150000 0.02154770 80452.54742592 0 -805.74256490 0 71747.05396375 0 9320.15719010 0 -283.28663459 0 571
0.02250000 0.02255340 76232.49433162 0 -2134.08276110 0 44811.34415414 0 21930.69915865 0 392.66222069 0 510
0.02350000 0.02348930 76588.94371188 0 1315.56733520 0 53672.04962688 0 5273.29785169 0 3459.70098022 0 555
0.02450000 0.02439640 70652.55115175 0 9546.28560126 0 47135.89940380 0 2416.79270563 0 7078.95287718 0 592
0.02550000 0.02547300 61212.62916679 0 2400.28289304 0 49201.10889482 0 3429.93278852 0 12484.07658442 0 837
0.02650000 0.02652900 57110.33069056 0 1077.02745549 0 43364.34640800 0 9002.53827391 0 3372.14295217 0 723
0.02750000 0.02749970 58601.37657276 0 1978.37644476 0 34241.10965056 0 17609.14861370 0 5871.23207558 0 826
0.02850000 0.02848090 59891.73431389 0 -2784.60013394 0 27153.20434673 0 4972.89176074 0 16290.01129241 0 831
0.02950000 0.02946900 58249.54071298 0 -1568.84960979 0 19347.89660760 0 9527.28229069 0 6759.33476878 0 996
0.03050000 0.03053250 59708.51164323 0 -116.61881327 0 15602.59674027 0 990.56678624 0 -831.44866166 0 1041
0.03150000 0.03150510 60993.92632670 0 2676.52292432 0 18063.47053566 0 -6973.23735066 0 3373.75768434 0 1036
0.03250000 0.03246190 53836.81821560 0 3623.60178771 0 23746.99823498 0 -7322.40395930 0 -864.41775780 0 1059
0.03350000 0.03345080 52753.40982190 0 1540.87190342 0 25208.27592547 0 1328.23254739 0 6283.57096114 0 1302
0.03450000 0.03451200 52977.82463974 0 -148.85743534 0 22644.36683926 0 6260.96471077 0 -4164.78970964 0 1339
0.03550000 0.03553350 53417.20754299 0 58.07499585 0 21258.33347095 0 3071.27550917 0 2018.42619639 0 1365
0.03650000 0.03647120 51191.51344656 0 1693.08512568 0 22123.69809891 0 833.94984883 0 -662.02700799 0 1308
0.03750000 0.03744890 48370.34567049 0 2547.80570281 0 25609.43251614 0 -2491.71847521 0 6906.79167112 0 1579
0.03850000 0.03847530 46409.48961900 0 102.80263757 0 24028.75252169 0 28.40665392 0 2250.74990649 0 1662
0.03950000 0.03950240 45960.00090897 0 2420.00020082 0 24883.46211424 0 1668.07325391 0 4678.57112299 0 1683
0.04050000 0.04050350 45614.86563846 0 188.08554094 0 25000.77734941 0 -956.56514027 0 1239.48818551 0 1822
0.04150000 0.04152450 46965.96806597 0 -329.21752638 0 25832.74887672 0 5438.06644041 0 -1211.76312431 0 1887
0.04250000 0.04250150 46092.80439148 0 904.63227802 0 22864.49767379 0 2575.45387199 0 827.39645283 0 1920
0.04350000 0.04349210 45146.48346359 0 -1277.71449809 0 21463.52528677 0 -1986.88948851 0 443.39996145 0 2005
0.04450000 0.04448520 45486.67567644 0 133.46914761 0 20204.36373177 0 3101.50505291 0 -454.09344285 0 2151
0.04550000 0.04548030 45463.16869111 0 264.26684716 0 19310.43921510 0 437.52541203 0 -654.70139654 0 2274
0.04650000 0.04648670 44455.11446533 0 522.48449020 0 20136.25938176 0 -1909.14068378 0 -2551.61734949 0 2311
0.04750000 0.04749250 42311.03574317 0 2087.67294195 0 19568.46682503 0 1984.12137622 0 -1607.68007386 0 2568
0.04850000 0.04851840 42632.99356553 0 2149.69183874 0 20782.48178672 0 679.11241218 0 -1842.09085275 0 2493
0.04950000 0.04949480 39275.00972742 0 45.17691073 0 19861.97460441 0 1557.10710170 0 1850.01072958 0 2644
0.05050000 0.05050630 40742.43877856 0 -443.42083213 0 20338.92474589 0 4381.69107983 0 -124.21244829 0 2829
0.05150000 0.05149060 39799.08368527 0 508.30011163 0 17025.20873528 0 2735.01577331 0 4693.97149375 0 2784
0.05250000 0.05249300 37824.82645523 0 1630.23140137 0 16584.83722049 0 -541.56469278 0 2941.83330587 0 3055
0.05350000 0.05348950 36867.30126331 0 517.39204235 0 18289.09365648 0 1214.39942173 0 7198.51994973 0 3009
0.05450000 0.05448610 35138.54923046 0 941.56680487 0 16083.28163643 0 597.39158601 0 4629.25039210 0 3336
0.05550000 0.05550870 34361.39072033 0 1133.93742757 0 18787.35386877 0 796.63745269 0 10988.96641038 0 3349
0.05650000 0.05647670 35047.26743231 0 -1033.25063838 0 15738.36605737 0 3404.75614817 0 6662.23114717 0 3324
0.05750000 0.05747970 36338.50393924 0 -943.39244083 0 14613.98520794 0 3266.78991655 0 6233.54721761 0 3639
0.05850000 0.05849280 35972.82751801 0 1082.53072635 0 14115.39545848 0 -1630.39616996 0 5195.71381555 0 3846
0.05950000 0.05951020 33948.81017417 0 1178.90826772 0 16130.07591562 0 -3425.31926804 0 5663.15131717 0 3787
0.06050000 0.06049470 33862.14189651 0 960.95018165 0 16762.34791340 0 -468.11085593 0 3140.22567126 0 3930
0.06150000 0.06148310 32890.55645169 0 -503.26588202 0 17375.50675489 0 633.19250496 0 1920.14722551 0 4083
0.06250000 0.06249100 33533.04410197 0 338.84330733 0 14087.93402702 0 2965.87853525 0 245.95336775 0 4303
0.06350000 0.06350600 33966.16579885 0 -694.44907242 0 14832.90773949 0 1869.16782416 0 -789.66334756 0 4470
0.06450000 0.06451750 34086.44686862 0 426.71659261 0 13091.85298535 0 -117.92268203 0 246.37078151 0 4479
0.06550000 0.06550280 32878.91280475 0 129.10497692 0 11524.79386089 0 130.52967598 0 -1056.14138918 0 4636
0.06650000 0.06648880 32702.72026055 0 243.65539517 0 12427.83557281 0 35.39031563 0 -1056.34020994 0 4653
0.06750000 0.06749660 30649.48395364 0 2392.25317048 0 13935.13862242 0 -908.49445374 0 94.67756892 0 5220
0.06850000 0.06852730 29997.87910812 0 472.25533516 0 13386.12968480 0 984.64939699 0 2586.77896633 0 5029
0.06950000 0.06949320 29372.30769961 0 -249.38494823 0 12575.02884540 0 2364.30841784 0 910.78693404 0 5040
0.07050000 0.07048030 29722.27618205 0 62.34788474 0 12008.00520875 0 1354.29893813 0 1841.36587096 0 5475
0.07150000 0.07148790 28744.75906804 0 358.56830432 0 13843.41744136 0 522.33070619 0 4360.35903988 0 5509
0.07250000 0.07249820 28500.02279092 0 640.44451978 0 11689.23291244 0 186.14566542 0 4486.80245487 0 5916
0.07350000 0.07351270 27975.83898734 0 367.59432761 0 11326.19278862 0 -727.83558233 0 2027.90588253 0 5721
0.07450000 0.07449140 27332.69226270 0 571.24720481 0 13971.38771194 0 649.79788334 0 3175.79371728 0 6028
0.07550000 0.07549160 26728.54077073 0 572.92345058 0 11196.57483216 0 -84.22662687 0 2908.31937493 0 6183
0.07650000 0.07648840 25799.57546753 0 -139.53592704 0 12420.80544635 0 558.15249583 0 1367.68913210 0 6330
0.07750000 0.07749960 26149.65379569 0 366.43765211 0 11406.38016847 0 1145.24055276 0 1001.67658295 0 6583
0.07850000 0.07848650 25436.42549799 0 647.73937443 0 10624.30056982 0 485.91135579 0 1200.78953630 0 6549
0.07950000 0.07947320 24691.67147697 0 63.82981343 0 8389.62109302 0 1284.66773253 0 416.86562792 0 6828
0.08050000 0.08048110 24864.12926650 0 -79.70109282 0 8865.28603951 0 1506.02883919 0 269.12202824 0 7147
0.08150000 0.08149960 23826.08715756 0 337.70201024 0 7604.50975234 0 -132.48053607 0 303.27965514 0 7386
0.08250000 0.08250610 23102.86289881 0 1076.37277496 0 8345.66083355 0 282.03219640 0 1071.07930943 0 7227
0.08350000 0.08350160 22478.93917619 0 311.56421978 0 7577.87216383 0 -638.95501174 0 850.71120813 0 7798
0.08450000 0.08449610 22595.81502845 0 216.27195418 0 8354.98673567 0 581.98023068 0 -680.25920156 0 7371
0.08550000 0.08548940 21837.98936607 0 6.70702623 0 7654.53349587 0 181.96933093 0 654.94635250 0 8256
0.08650000 0.08650700 21730.34055477 0 461.05766187 0 8031.90848691 0 -85.04332984 0 -204.31744384 0 8037
0.08750000 0.08749060 20866.51376697 0 648.26553546 0 8675.93397735 0 -542.61701483 0 18.57326455 0 8155
0.08850000 0.08849210 21168.91905014 0 457.42945755 0 8940.34362396 0 -544.10103059 0 -266.08589238 0 8718
0.08950000 0.08949900 20159.10729273 0 -439.50922584 0 8150.42104049 0 1487.87134072 0 -355.17626830 0 8571
0.09050000 0.09049190 21035.56633900 0 -25.48025394 0 8679.14147254 0 952.69637381 0 -678.95423434 0 8932
0.09150000 0.09150830 19864.61090183 0 387.91139305 0 6987.25366527 0 -197.81347842 0 616.98476812 0 9285
0.09250000 0.09250820 20405.38141001 0 557.24297322 0 7585.29773489 0 340.37235983 0 1315.65521179 0 9204
0.09350000 0.09350330 20099.35121789 0 -56.18345246 0 7159.88720796 0 974.26677899 0 384.47541875 0 9349
0.09450000 0.09448040 19528.48298084 0 -10.23543572 0 7558.24273263 0 439.79262781 0 1680.88126554 0 9564
0.09550000 0.09549270 19374.14973607 0 241.55734181 0 7059.81775175 0 -392.18219487 0 911.52949115 0 10155
0.09650000 0.09649430 19152.04167848 0 759.15699258 0 7480.49392789 0 -923.84209855 0 700.29835732 0 9913
0.09750000 0.09749140 18554.15139287 0 429.19141681 0 8582.76283271 0 -390.48178304 0 1144.79018528 0 10476
0.09850000 0.09850240 17872.77835565 0 43.13850360 0 8672.68254387 0 26.70470425 0 4.06937771 0 10575
0.09950000 0.09950330 17805.33308000 0 450.12911061 0 8905.37972943 0 236.69337307 0 160.01776108 0 10882
0.10050000 0.10051200 17505.67393998 0 81.98291808 0 8495.72107958 0 932.05965730 0 988.61812306 0 10875
0.10150000 0.10150300 17209.20032601 0 -51.31146498 0 7878.38810051 0 1009.50089400 0 841.23701428 0 11118
0.10250000 0.10250800 16882.29944599 0 411.60511611 0 7751.62613292 0 526.63995401 0 1100.97272526 0 11575
0.10350000 0.10349800 16607.68513146 0 384.35898228 0 7061.08097759 0 362.73914652 0 1707.57377691 0 11364
0.10450000 0.10450100 16230.69460047 0 162.79246411 0 6367.07568190 0 469.72229272 0 1056.04472494 0 12093
0.10550000 0.10551000 15811.08392786 0 248.61383123 0 6605.45189149 0 240.30070670 0 782.18834592 0 12067
0.10650000 0.10649700 15350.17126235 0 59.66006968 0 5103.59718988 0 -115.18752346 0 881.00995469 0 12054
0.10750000 0.10749900 15372.79948186 0 -26.42009397 0 6142.39723433 0 611.59793373 0 870.00780679 0 12807
0.10850000 0.10850100 15079.18185676 0 252.55399742 0 4816.13092543 0 18.74407465 0 646.77492896 0 12736
0.10950000 0.10950300 15362.69367509 0 131.33704207 0 5396.21521888 0 190.36813512 0 950.50824695 0 12933
0.11050000 0.11050200 15255.37440097 0 -345.35606041 0 4535.55198798 0 388.41888031 0 354.14591539 0 13428
0.11150000 0.11150900 15088.40889773 0 5.51803413 0 5132.93698325 0 -72.43391929 0 228.12320954 0 13453
0.11250000 0.11250000 15413.55224614 0 442.05654822 0 5030.40698277 0 -381.53924250 0 542.53133516 0 13668
0.11350000 0.11349100 15294.69917081 0 -130.55713742 0 4790.36111815 0 274.83071061 0 -92.73967062 0 13791
0.11450000 0.11448600 15216.81855121 0 -155.06371884 0 5029.87972329 0 405.29228225 0 -19.53584264 0 14205
0.11550000 0.11549300 14939.45809353 0 414.52481550 0 5071.35746935 0 -295.64867257 0 62.27857209 0 14776
0.11650000 0.11649800 14802.59031917 0 559.94078425 0 5300.63845284 0 -248.46663796 0 639.79752846 0 14553
0.11750000 0.11747300 14432.52006890 0 -123.63905360 0 5292.02654794 0 662.05446942 0 -6.41459494 0 14568
0.11850000 0.11849100 14397.80881954 0 25.09513483 0 4912.70728756 0 610.82901365 0 151.16090021 0 16015
0.11950000 0.11950300 14017.52291678 0 314.78269955 0 4499.98394196 0 3.28826476 0 1369.38075628 0 15270
0.12050000 0.12050700 13835.94793201 0 179.87786831 0 4398.03612384 0 127.52869075 0 228.52963873 0 15999
0.12150000 0.12150000 13441.71162206 0 120.87203977 0 4728.15548362 0 186.01714592 0 1270.19006587 0 15670
0.12250000 0.12250700 13186.10061810 0 275.72155945 0 4408.22980719 0 -83.17276698 0 123.92684941 0 16887
0.12350000 0.12352200 12944.54986703 0 277.71306246 0 4959.35876732 0 -316.45235458 0 917.39525290 0 16407
0.12450000 0.12449800 13015.29051446 0 59.93578245 0 4732.06599146 0 -153.27762734 0 -141.45383342 0 16306
0.12550000 0.12549900 12700.80220145 0 100.71523924 0 4597.10953273 0 188.24152187 0 270.24684848 0 17523
0.12650000 0.12650100 13000.57118720 0 -176.25186090 0 4581.53340881 0 274.22326375 0 60.51521865 0 17154
0.12750000 0.12750600 12957.73135413 0 -90.48234096 0 4268.18749135 0 724.34907899 0 282.79342728 0 18007
0.12850000 0.12850300 12845.68871380 0 133.67675603 0 3770.75112201 0 -140.82551586 0 -31.62480415 0 17496
0.12950000 0.12949900 12851.29084582 0 147.13834973 0 3956.34646034 0 247.51207860 0 -20.28729725 0 18405
0.13050000 0.13049000 12531.20040080 0 330.33905124 0 4210.37568586 0 -472.48491273 0 132.95397115 0 18100
0.13150000 0.13148800 12229.12465481 0 150.29751280 0 4262.22286844 0 -123.30841797 0 500.91188811 0 19059
0.13250000 0.13249300 12242.63567908 0 -74.65214387 0 3949.37125675 0 765.83890808 0 -33.73889499 0 18957
0.13350000 0.13349100 12371.70440692 0 -146.76816963 0 3855.91451323 0 296.19899966 0 -49.94685153 0 19468
0.13450000 0.13450700 12069.51881520 0 317.43217846 0 3971.28547905 0 -287.85511832 0 27.46890096 0 19953
0.13550000 0.13551000 12148.49789206 0 130.34403671 0 3776.57294547 0 10.81495980 0 256.32390273 0 19956
0.13650000 0.13649900 11874.32296043 0 35.36164590 0 3951.08485007 0 76.87564106 0 175.81687182 0 19723
0.13750000 0.13749600 11849.16828922 0 167.43893831 0 3901.02815282 0 254.64106621 0 17.27939174 0 20946
0.13850000 0.13851100 11723.28508744 0 196.35143181 0 4010.10495855 0 -166.32729957 0 220.08140395 0 20955
0.13950000 0.13949800 11523.36586646 0 -86.45803295 0 4111.25090288 0 182.96563166 0 569.94772987 0 20506
0.14050000 0.14048300 11615.63627614 0 10.12986299 0 3548.62109527 0 185.75022081 0 -342.57696355 0 21447
0.14150000 0.14148400 11375.07413661 0 114.67454392 0 3555.61826800 0 374.93531746 0 644.94819454 0 21771
0.14250000 0.14249400 11284.45141281 0 294.66555332 0 3301.52313505 0 -73.56587949 0 -35.04045700 0 22470
0.14350000 0.14350900 10901.95761096 0 251.68182236 0 3192.01793099 0 266.37039281 0 577.57871244 0 22519
0.14450000 0.14449900 10830.18441371 0 3.68227039 0 3464.65502245 0 541.19121731 0 966.12940762 0 22218
0.14550000 0.14550500 10714.02255866 0 15.25295780 0 2502.95569296 0 375.54825661 0 1004.46007364 0 23559
0.14650000 0.14650700 10538.87354886 0 -14.16295866 0 2654.63067116 0 178.29718831 0 1301.84760405 0 23044
0.14750000 0.14750500 10332.57229121 0 257.55307640 0 2887.71231676 0 -374.73539824 0 562.02016384 0 23649
0.14850000 0.14849900 10356.80425832 0 420.16209815 0 2917.96382965 0 -234.87103248 0 1157.27964431 0 23640
0.14950000 0.14949500 9857.30278933 0 -82.05519657 0 3215.84346891 0 -108.65192247 0 929.08942887 0 24457
0.15050000 0.15050000 10011.89966384 0 37.47342998 0 3165.33640419 0 -184.67263424 0 539.46554096 0 24591
0.15150000 0.15149900 9942.57602628 0 262.59938904 0 3618.40608488 0 190.46479936 0 445.51449167 0 25020
0.15250000 0.15250500 9843.55010446 0 137.68392811 0 3496.57619038 0 -371.60040123 0 324.24261346 0 25297
0.15350000 0.15350100 9556.78685265 0 108.59809806 0 3982.19315962 0 -233.32001083 0 506.73920387 0 25452
0.15450000 0.15450400 9481.33382359 0 -112.65997331 0 3684.96161015 0 393.74969338 0 914.83255212 0 26061
0.15550000 0.15549900 9601.83458480 0 -107.66704569 0 3438.11629510 0 692.49162159 0 916.90973480 0 26128
0.15650000 0.15649500 9738.83417404 0 144.84037714 0 3161.55771122 0 301.89889437 0 449.01088112 0 26331
0.15750000 0.15749700 9515.15532256 0 118.15445651 0 2924.57654235 0 30.25074397 0 980.03258113 0 27345
0.15850000 0.15849900 9499.41443006 0 132.66397844 0 2994.66909999 0 162.71776902 0 1064.14694568 0 26980
0.15950000 0.15949700 9155.88290715 0 54.18645716 0 2789.89469793 0 -57.59189435 0 758.97025485 0 27777
0.16050000 0.16050000 9300.11034514 0 134.65657990 0 2712.81595212 0 50.29594124 0 599.20953277 0 28224
0.16150000 0.16150500 8927.29395173 0 207.58315727 0 2592.69965095 0 78.60054849 0 1032.34550960 0 28075
0.16250000 0.16249700 8829.87177750 0 -15.01656979 0 2373.23887534 0 298.07186928 0 820.60139623 0 28590
0.16350000 0.16349900 8875.76532175 0 -49.79910903 0 2508.50290211 0 70.55259154 0 266.10566461 0 29163
0.16450000 0.16449100 8543.62480061 0 203.35080145 0 2466.42100455 0 -329.30759987 0 212.65143906 0 28996
0.16550000 0.16550500 8443.03906948 0 246.19502835 0 2339.15374662 0 -28.76508053 0 605.32574278 0 30777
0.16650000 0.16650700 8442.01750423 0 -70.43923075 0 2333.76032149 0 390.75749581 0 284.23130783 0 29211
0.16750000 0.16749900 8623.85611874 0 -58.36323104 0 2276.01442343 0 -8.24243880 0 -195.41774314 0 30922
0.16850000 0.16850800 8435.22903837 0 109.17489797 0 1989.10837217 0 106.40997120 0 165.87034135 0 30867
0.16950000 0.16949900 8173.74128808 0 75.14007859 0 2170.23298947 0 -132.33114589 0 81.22575149 0 30852
0.17050000 0.17049200 8201.72997901 0 141.50875628 0 2125.21821103 0 -190.35385518 0 -97.59375325 0 31257
0.17150000 0.17149500 8132.50520261 0 173.00701816 0 2319.85385260 0 -14.72350140 0 -206.38034657 0 32608
0.17250000 0.17250900 8052.29585362 0 12.50088298 0 2249.64046466 0 67.21383071 0 -253.19549646 0 32361
0.17350000 0.17350400 8034.24820087 0 -2.95542122 0 2097.64693385 0 342.01235652 0 48.20689523 0 32508
0.17450000 0.17449800 7981.37945303 0 -35.89879150 0 2083.57569637 0 62.87953806 0 -252.81323333 0 32791
0.17550000 0.17549800 7934.43138982 0 186.35437230 0 1901.97874246 0 -69.85463180 0 -19.65260865 0 33633
0.17650000 0.17650100 7714.66304618 0 100.81333147 0 2115.84837062 0 -45.09046214 0 252.27608773 0 33984
0.17750000 0.17750300 7578.72896049 0 57.82927097 0 2140.84925781 0 399.58469833 0 612.51514554 0 34069
0.17850000 0.17849800 7638.00171414 0 2.93256233 0 1952.15627001 0 265.21042195 0 260.11577718 0 34536
