### header ###
fiducial parameters:
Omega_m = 0.31
Omega_nu = 0
Omega_de = 0.69
Omega_k = 0
H_0 = 100
w_de = -1
zeff = 0
beta = 0
fgrowth = 0
b_1 = 2
gamma = 0.55
Lx = 3500 Ly = 3500 Lz = 3500
nx = 700 ny = 700 nz = 700
xoffset = -983.599254 yoffset = -42.9823471 zoffset = 800.977702
bins = 400 dk = 0.001
kx_ny = 0.628318531 ky_ny = 0.628318531 kz_ny = 0.628318531
############################
A(data) = 9.0448258 (not used)
A(ran) = 9.05399052 (used)
Ngal = 503558
weighted Ngal = 0
Nran = 25229228
weighted Nran = 0
SN(data) = 6717.83999
SN(ran) = 134.400252
SN(data+ran) = 6852.24024
############################
13 columns: k_central k_mean P_0(k) sigma^{lin}_{P_0(k)} P^img_1(k) sigma^{lin}_{P_1(k)} P_2(k) sigma^{lin}_{P_2(k)} P^img_3(k) sigma^{lin}_{P_3(k)} P_4(k) sigma^{lin}_{P_4(k)} N_modes
### header ###
0.00050000 0 0 0 0 0 0 0 0 0 0 0 0
0.00150000 0.00179520 2378.81903822 0 -1270.92603223 0 15726.72241043 0 -28117.53997364 0 -6773.36206797 0 3
0.00250000 0.00253879 4122.74076580 0 1602.00104984 0 61.03270187 0 3403.85541322 0 9800.96291656 0 6
0.00350000 0.00331552 25935.78416754 0 -29178.42999355 0 -14681.54032932 0 -8387.42417850 0 -33948.04125409 0 7
0.00450000 0.00420575 54537.08471766 0 -39011.92921409 0 -26659.11827202 0 -22544.07769159 0 -9852.07413278 0 24
0.00550000 0.00557378 62251.98942444 0 10398.44677298 0 -12467.70957128 0 -39138.91087313 0 1619.10402934 0 45
0.00650000 0.00659388 66637.68987327 0 11197.89298087 0 -11698.56979913 0 -26469.52454926 0 23103.52197316 0 40
0.00750000 0.00754703 82218.97654272 0 -10889.51209022 0 11189.98408861 0 8895.92201244 0 -46908.95813427 0 57
0.00850000 0.00846663 63037.60605546 0 -489.41543445 0 8781.38587413 0 3973.77897703 0 26575.74536612 0 75
0.00950000 0.00948925 68055.46865634 0 1459.13569884 0 14362.32865011 0 -21139.91977852 0 -12640.71658943 0 112
0.01050000 0.01054430 75935.80102620 0 2515.09364566 0 27561.83044675 0 -5720.64457007 0 -39578.84300502 0 105
0.01150000 0.01145670 73723.72779977 0 2288.27320643 0 25253.42251878 0 -11171.31031523 0 -593.14055642 0 144
0.01250000 0.01249090 63706.78621711 0 6508.15054757 0 40610.84359903 0 -4377.00066734 0 -11523.80524936 0 169
0.01350000 0.01339930 70140.23068655 0 464.02239801 0 25576.25910695 0 12758.25151605 0 -13797.06254507 0 180
0.01450000 0.01448870 72307.59670258 0 -1627.84774912 0 42846.75334796 0 9525.59066652 0 -27066.42622333 0 267
0.01550000 0.01550050 71037.45057500 0 974.38211700 0 22226.29400682 0 8310.41134013 0 9008.43698939 0 238
0.01650000 0.01653350 69324.95570957 0 -1324.04742524 0 31644.13700088 0 1381.61757014 0 2096.68029146 0 315
0.01750000 0.01747870 65269.78104971 0 4898.32848205 0 23986.46191725 0 1556.81051824 0 -7313.13298005 0 297
0.01850000 0.01844180 70920.13533983 0 3271.70002049 0 26533.67445314 0 4339.51032112 0 -19763.11345118 0 388
0.01950000 0.01947590 63680.53308864 0 1312.96399150 0 31910.51288598 0 -8998.85844210 0 4955.53613606 0 399
0.02050000 0.02045430 55519.87442651 0 2480.10778199 0 28332.61790478 0 7641.37397792 0 7836.54786355 0 462
0.02150000 0.02154770 57629.46159076 0 -4808.95799953 0 19950.72995086 0 21295.79086345 0 7478.72541171 0 571
0.02250000 0.02255340 65880.19374806 0 -3867.76686704 0 7509.69092182 0 16021.98772142 0 3664.02501481 0 510
0.02350000 0.02348930 76286.53842872 0 -2832.95422245 0 -4360.96319137 0 4952.89983864 0 10322.22482383 0 555
0.02450000 0.02439640 70561.59889077 0 -672.40742908 0 3088.42242697 0 -4972.06791779 0 16503.22184621 0 592
0.02550000 0.02547300 70067.62266179 0 6411.78289231 0 7455.95439275 0 -11549.94853210 0 7480.60377362 0 837
0.02650000 0.02652900 63454.69027637 0 430.26131418 0 13457.30971513 0 -2418.00100861 0 7647.99767519 0 723
0.02750000 0.02749970 68359.19208822 0 1717.00952476 0 21444.85151338 0 1449.34844467 0 -1881.43759173 0 826
0.02850000 0.02848090 59988.94778123 0 174.04066644 0 15817.89436286 0 4316.98096276 0 10178.60153733 0 831
0.02950000 0.02946900 61975.39788684 0 694.53255517 0 21053.14165513 0 -1271.79381347 0 7726.81198346 0 996
0.03050000 0.03053250 61889.60837498 0 2804.35039544 0 15804.93256721 0 4033.18354555 0 6585.47095397 0 1041
0.03150000 0.03150510 57603.64784519 0 1777.85307229 0 21640.26705960 0 -679.08055692 0 9361.74478189 0 1036
0.03250000 0.03246190 59168.72974658 0 3311.39826580 0 26525.87540661 0 -3953.66622463 0 -2247.31173527 0 1059
0.03350000 0.03345080 52705.62693117 0 3762.61155372 0 26206.33419021 0 -6226.78072090 0 1430.16938095 0 1302
0.03450000 0.03451200 47653.60230956 0 -208.71017442 0 28635.79210803 0 1641.32581968 0 4101.01328124 0 1339
0.03550000 0.03553350 50990.49576832 0 -573.84505622 0 27773.28346894 0 4012.93897828 0 -7299.27044945 0 1365
0.03650000 0.03647120 48782.37698802 0 2509.22788390 0 26135.92307997 0 6622.71963959 0 -5175.66697059 0 1308
0.03750000 0.03744890 47254.09340478 0 361.98999867 0 24430.23864954 0 -188.64245877 0 1956.83569793 0 1579
0.03850000 0.03847530 44353.72686040 0 707.18129050 0 23395.93129528 0 3074.13149804 0 4051.98913381 0 1662
0.03950000 0.03950240 46413.44406513 0 1998.41230515 0 22167.41669778 0 6031.85948044 0 4006.37020388 0 1683
0.04050000 0.04050350 44181.48876232 0 -1079.76151560 0 18788.01294313 0 1771.17445216 0 7639.10017140 0 1822
0.04150000 0.04152450 43614.90450858 0 1514.16840748 0 18976.06882572 0 2352.81855492 0 5496.83390372 0 1887
0.04250000 0.04250150 42415.71871987 0 734.72071242 0 19100.74372452 0 -281.49285388 0 11065.63872699 0 1920
0.04350000 0.04349210 41148.20888971 0 853.89124190 0 19958.30930595 0 1456.67515458 0 7988.38761034 0 2005
0.04450000 0.04448520 38985.78593135 0 1884.23865774 0 21889.39716575 0 -1010.92998689 0 9497.59099101 0 2151
0.04550000 0.04548030 36594.77401757 0 1027.52877452 0 17905.29269049 0 3261.61618286 0 10635.59271043 0 2274
0.04650000 0.04648670 38622.52611608 0 -1313.42534355 0 19343.50277857 0 4109.30663354 0 9684.99878382 0 2311
0.04750000 0.04749250 39089.26060506 0 -392.37772026 0 13631.08565337 0 4760.62588017 0 10127.58918226 0 2568
0.04850000 0.04851840 40128.84055416 0 -251.43796484 0 12997.82504405 0 2508.31616438 0 8920.15397955 0 2493
0.04950000 0.04949480 39231.95020290 0 -184.92967324 0 13164.79054729 0 -3278.76310066 0 5849.49360644 0 2644
0.05050000 0.05050630 37506.93292472 0 2821.71700470 0 14234.68791671 0 -5184.24592177 0 2367.88938850 0 2829
0.05150000 0.05149060 35041.44560884 0 2476.96619423 0 17152.51993149 0 -3952.90828912 0 4104.74803591 0 2784
0.05250000 0.05249300 32838.81911483 0 367.52402634 0 19559.45947552 0 786.04832472 0 -188.67211711 0 3055
0.05350000 0.05348950 33465.26928914 0 -278.12168856 0 17105.39611512 0 5366.84247179 0 -989.86487205 0 3009
0.05450000 0.05448610 35334.73369676 0 -492.32744464 0 17250.61216464 0 2799.83573611 0 -2058.54185546 0 3336
0.05550000 0.05550870 34306.90724033 0 -621.98933939 0 13496.85417642 0 489.40005605 0 2066.38484028 0 3349
0.05650000 0.05647670 34424.22247549 0 173.40356123 0 13195.10796761 0 973.21555539 0 1483.90591001 0 3324
0.05750000 0.05747970 33713.19109230 0 825.58399835 0 13454.34388053 0 -649.54743508 0 1416.09814347 0 3639
0.05850000 0.05849280 33831.93432191 0 828.69922314 0 11914.19695890 0 1445.16332252 0 1723.47943801 0 3846
0.05950000 0.05951020 32552.56115336 0 -978.44970423 0 12361.48875441 0 2406.23653138 0 -616.17190975 0 3787
0.06050000 0.06049470 32729.19308047 0 1308.97659166 0 11034.66223231 0 -150.82916611 0 -595.28913882 0 3930
0.06150000 0.06148310 32096.59154551 0 251.95753513 0 10661.36251771 0 188.15364529 0 3220.78652658 0 4083
0.06250000 0.06249100 32329.68417568 0 -49.19078340 0 10116.22014964 0 2014.97704060 0 529.80570783 0 4303
0.06350000 0.06350600 31506.17076926 0 43.72310255 0 10189.11377329 0 -108.78110104 0 1046.31898438 0 4470
0.06450000 0.06451750 30950.13170519 0 765.12051704 0 8711.46906965 0 1633.65858802 0 2863.34853478 0 4479
0.06550000 0.06550280 30425.61836443 0 -546.34298185 0 9377.34287496 0 329.17358809 0 3606.22419388 0 4636
0.06650000 0.06648880 31458.05834135 0 206.77908656 0 9133.80391626 0 182.80855227 0 2068.26320220 0 4653
0.06750000 0.06749660 30212.73734781 0 691.79519969 0 8623.70233473 0 -170.64753197 0 744.50027739 0 5220
0.06850000 0.06852730 30963.97226665 0 381.01967221 0 9989.38129005 0 -1296.54205549 0 1199.09791212 0 5029
0.06950000 0.06949320 29129.87818274 0 748.10211874 0 9450.33535976 0 -1725.89604398 0 -440.58900932 0 5040
0.07050000 0.07048030 28417.19911366 0 349.60599155 0 11233.04361313 0 820.83207226 0 896.00060089 0 5475
0.07150000 0.07148790 28100.84342332 0 313.77870962 0 11322.12849677 0 1083.53801165 0 -640.04358288 0 5509
0.07250000 0.07249820 28043.06457154 0 296.32751916 0 9377.82619615 0 485.91794654 0 -1049.88347818 0 5916
0.07350000 0.07351270 27723.74304660 0 84.91283312 0 9611.56691611 0 627.95176539 0 -2443.37537128 0 5721
0.07450000 0.07449140 26852.00736655 0 922.42289177 0 9551.09684405 0 -309.99781973 0 -1312.32688629 0 6028
0.07550000 0.07549160 26159.43006529 0 209.75370881 0 8731.08751628 0 127.82747113 0 -371.80800965 0 6183
0.07650000 0.07648840 25485.85607460 0 115.51046989 0 8171.89587988 0 1669.00694258 0 -1269.80560583 0 6330
0.07750000 0.07749960 25645.24222276 0 17.42614563 0 7155.74602410 0 596.65671810 0 -2850.43067742 0 6583
0.07850000 0.07848650 25022.19726594 0 774.03120232 0 6912.63546373 0 243.54664790 0 -406.57418187 0 6549
0.07950000 0.07947320 24258.11039719 0 721.12950076 0 7402.12998710 0 3.93995748 0 -821.55375867 0 6828
0.08050000 0.08048110 23565.97247884 0 84.20751372 0 7718.84816834 0 310.93809915 0 1406.62944190 0 7147
0.08150000 0.08149960 23923.52031636 0 44.48103806 0 6730.35746631 0 1173.09742882 0 -435.02202794 0 7386
0.08250000 0.08250610 23185.46688462 0 504.21604754 0 7104.94237591 0 -729.08233131 0 1165.95745665 0 7227
0.08350000 0.08350160 22247.27454045 0 153.99162456 0 6343.00848338 0 859.21766114 0 2245.89472541 0 7798
0.08450000 0.08449610 23246.76079962 0 -237.31839525 0 7174.04632202 0 2262.44847629 0 1499.40514193 0 7371
0.08550000 0.08548940 22384.80138916 0 473.48011500 0 6420.41676636 0 -794.29664027 0 1972.46674471 0 8256
0.08650000 0.08650700 22303.29586061 0 1130.32350319 0 7108.25971683 0 -1180.34724673 0 1332.32979296 0 8037
0.08750000 0.08749060 20886.06630617 0 343.64795938 0 7401.33909787 0 -578.49372734 0 2705.21462790 0 8155
0.08850000 0.08849210 20254.78291992 0 223.25374851 0 7546.03887249 0 1050.43600218 0 1242.14645207 0 8718
0.08950000 0.08949900 20526.87078276 0 272.34929567 0 7389.68446636 0 -4.76295461 0 826.05853189 0 8571
0.09050000 0.09049190 19843.95990537 0 310.26035102 0 7124.23128536 0 233.91757158 0 686.03269291 0 8932
0.09150000 0.09150830 19311.09828945 0 137.77729697 0 8026.05370972 0 338.89713174 0 1844.22185983 0 9285
0.09250000 0.09250820 19033.62798605 0 149.72192120 0 7196.86127927 0 -70.74657909 0 1385.45118597 0 9204
0.09350000 0.09350330 19055.70697694 0 309.75506068 0 7204.28685034 0 304.44292138 0 854.68982032 0 9349
0.09450000 0.09448040 18734.18853748 0 222.92421134 0 7014.38555955 0 -106.21960856 0 1305.14297582 0 9564
0.09550000 0.09549270 18917.19151669 0 180.50618586 0 7086.33450996 0 1417.65795278 0 828.11813925 0 10155
0.09650000 0.09649430 19015.72313274 0 118.41259397 0 6584.32855842 0 68.05228313 0 1907.55890533 0 9913
0.09750000 0.09749140 18143.54806978 0 104.06465511 0 6167.60682840 0 33.31280342 0 1107.32180821 0 10476
0.09850000 0.09850240 17636.39035370 0 352.32467326 0 6619.80872786 0 -991.26650351 0 689.48843944 0 10575
0.09950000 0.09950330 17304.54641602 0 613.84867265 0 6826.12097008 0 143.21136503 0 -52.20308274 0 10882
0.10050000 0.10051200 17104.18781214 0 -3.53875695 0 6475.53735157 0 868.73359637 0 499.77828022 0 10875
0.10150000 0.10150300 16756.19655276 0 -225.30237130 0 5776.99542741 0 316.51826202 0 -329.08680996 0 11118
0.10250000 0.10250800 16723.02314356 0 482.08652762 0 5590.36753925 0 42.39331019 0 -665.88478988 0 11575
0.10350000 0.10349800 16129.41684127 0 361.30016752 0 5932.55894430 0 -77.64214453 0 85.63111432 0 11364
0.10450000 0.10450100 15904.12325762 0 49.85128575 0 5744.84358346 0 80.18683062 0 -1047.88538443 0 12093
0.10550000 0.10551000 16093.38744320 0 182.39004006 0 5716.59126278 0 -62.08546330 0 -915.92332018 0 12067
0.10650000 0.10649700 15498.57283792 0 143.52881918 0 5429.55339666 0 252.03882096 0 -954.05846081 0 12054
0.10750000 0.10749900 15323.47875097 0 269.94037890 0 5422.05093359 0 131.93679973 0 -372.88120239 0 12807
0.10850000 0.10850100 15060.50808338 0 273.84759137 0 5899.29765853 0 -240.85213225 0 -914.57771004 0 12736
0.10950000 0.10950300 14864.76299998 0 165.87803055 0 5506.46737387 0 252.80993796 0 259.41496145 0 12933
0.11050000 0.11050200 14671.54436827 0 -89.56974267 0 6006.68284008 0 838.64575361 0 -450.66186238 0 13428
0.11150000 0.11150900 14627.60607795 0 339.09265713 0 5204.69919592 0 257.74201105 0 504.01173449 0 13453
0.11250000 0.11250000 14431.86099455 0 212.28455434 0 5291.72996448 0 -30.36849859 0 931.67629572 0 13668
0.11350000 0.11349100 13952.60409282 0 107.44296041 0 5515.06829421 0 214.89778415 0 188.79514433 0 13791
0.11450000 0.11448600 14081.23343775 0 204.70739617 0 5323.05796548 0 401.63551804 0 1238.04920650 0 14205
0.11550000 0.11549300 13626.03274998 0 -56.26045431 0 5186.50874372 0 76.44010275 0 892.14940974 0 14776
0.11650000 0.11649800 13689.85311668 0 218.37659829 0 5229.59023739 0 365.24692444 0 1842.38743621 0 14553
0.11750000 0.11747300 13647.56251224 0 34.32492194 0 4872.30602961 0 269.73936122 0 882.82240916 0 14568
0.11850000 0.11849100 13723.90529168 0 -21.15277173 0 4723.69574716 0 363.38723631 0 1781.08253663 0 16015
0.11950000 0.11950300 13412.16312182 0 167.98377311 0 4970.05774101 0 82.33596224 0 1352.10202361 0 15270
0.12050000 0.12050700 13232.67520584 0 217.59010289 0 4951.54873621 0 -399.04315891 0 1975.44356388 0 15999
0.12150000 0.12150000 13087.45915632 0 -14.62002672 0 5123.11677536 0 296.22536263 0 1394.90890296 0 15670
0.12250000 0.12250700 13151.05983156 0 43.53812235 0 4496.65561647 0 774.02131620 0 1500.86609008 0 16887
0.12350000 0.12352200 12983.43525397 0 24.87445476 0 4643.39852159 0 -231.56138076 0 1967.57860992 0 16407
0.12450000 0.12449800 12981.78756808 0 302.36683716 0 4249.14024250 0 223.60086101 0 916.69773255 0 16306
0.12550000 0.12549900 12692.56377202 0 100.82233882 0 4456.22140480 0 26.48457341 0 2152.92130308 0 17523
0.12650000 0.12650100 12459.25145039 0 46.92071163 0 4163.85602097 0 -206.40780800 0 1183.97215568 0 17154
0.12750000 0.12750600 12458.04314740 0 -18.60303274 0 4191.62502046 0 527.43743398 0 1312.84316120 0 18007
0.12850000 0.12850300 12546.35911096 0 108.51373654 0 3757.16320572 0 221.39955266 0 1023.61167594 0 17496
0.12950000 0.12949900 12434.53616208 0 158.07019636 0 3844.40268116 0 164.67192448 0 1144.50458640 0 18405
0.13050000 0.13049000 12192.76571957 0 102.95235729 0 3739.00570725 0 -54.94340406 0 499.95952567 0 18100
0.13150000 0.13148800 12151.90310956 0 136.97212780 0 4033.56800559 0 -488.75086781 0 584.25843103 0 19059
0.13250000 0.13249300 11830.60436156 0 148.58282102 0 3776.28734659 0 -26.41086693 0 1094.83125073 0 18957
0.13350000 0.13349100 11958.35494068 0 -98.02127281 0 3466.41255407 0 834.15086651 0 611.27059346 0 19468
0.13450000 0.13450700 12157.50524158 0 -172.45119878 0 3382.92980245 0 390.17641192 0 8.82246818 0 19953
0.13550000 0.13551000 12020.85715867 0 115.57418041 0 2923.47808509 0 -143.01254427 0 706.97587899 0 19956
0.13650000 0.13649900 11949.45743689 0 306.54866394 0 3049.72377777 0 -41.47598854 0 539.57209131 0 19723
0.13750000 0.13749600 11439.66342339 0 181.88804509 0 3179.70422512 0 -270.79937248 0 657.11470713 0 20946
0.13850000 0.13851100 11255.34229547 0 244.37927850 0 3548.51124954 0 471.15138562 0 319.94544866 0 20955
0.13950000 0.13949800 11337.50689838 0 -33.13133828 0 3253.44366086 0 203.70670161 0 588.17113578 0 20506
0.14050000 0.14048300 11262.70195910 0 -39.33608395 0 3072.48381215 0 -78.36339157 0 55.13838022 0 21447
0.14150000 0.14148400 10971.79752343 0 281.96958433 0 2986.71626944 0 -239.73719813 0 35.22774396 0 21771
0.14250000 0.14249400 10797.25266511 0 294.89952472 0 3146.08044845 0 -323.51323784 0 173.16958983 0 22470
0.14350000 0.14350900 10639.12974281 0 -76.79347645 0 3477.91340156 0 127.69455780 0 177.83363935 0 22519
0.14450000 0.14449900 10822.40733632 0 30.67694539 0 3027.08457368 0 597.37291223 0 -152.28901581 0 22218
0.14550000 0.14550500 10406.58634126 0 -113.40033350 0 2785.03951685 0 107.23051877 0 80.48802760 0 23559
0.14650000 0.14650700 10665.69043931 0 159.63330104 0 2730.90754317 0 356.52956764 0 180.14259650 0 23044
0.14750000 0.14750500 10537.44555442 0 292.81684976 0 2626.18062817 0 -478.68240858 0 244.39905073 0 23649
0.14850000 0.14849900 10332.81395180 0 24.33906670 0 2626.43327334 0 309.92861693 0 21.58907895 0 23640
0.14950000 0.14949500 10214.90554971 0 106.20884368 0 2744.16592227 0 145.55986665 0 -41.40898264 0 24457
0.15050000 0.15050000 9968.60946329 0 147.95779884 0 2663.56112867 0 -132.82325474 0 120.80723079 0 24591
0.15150000 0.15149900 9752.23535259 0 188.71166158 0 2868.02796270 0 160.59884497 0 182.01107230 0 25020
0.15250000 0.15250500 9898.41804450 0 -92.24767162 0 2491.13629286 0 420.43122018 0 324.99176131 0 25297
0.15350000 0.15350100 9686.77828458 0 71.11994472 0 2626.87265625 0 -20.31530791 0 262.32147936 0 25452
0.15450000 0.15450400 9558.14893965 0 203.92529460 0 2416.75975191 0 -210.25460532 0 514.49980439 0 26061
0.15550000 0.15549900 9288.27996047 0 189.50474772 0 2788.68639494 0 -20.70229441 0 660.47159251 0 26128
0.15650000 0.15649500 9082.46202401 0 150.20963622 0 2470.15575923 0 411.75890013 0 1029.30937373 0 26331
0.15750000 0.15749700 9225.45918988 0 -96.38599949 0 2572.40016082 0 246.93209317 0 980.26874945 0 27345
0.15850000 0.15849900 9368.59915518 0 18.86106035 0 2284.00020769 0 128.00981503 0 542.22157022 0 26980
0.15950000 0.15949700 9052.40823343 0 311.51369075 0 2595.42382495 0 -512.27103462 0 1005.10267114 0 27777
0.16050000 0.16050000 8695.04713364 0 158.39753662 0 2736.04832313 0 -318.99088930 0 758.39686016 0 28224
0.16150000 0.16150500 8558.90434107 0 68.20277177 0 3073.35159339 0 -56.85428030 0 709.93292593 0 28075
0.16250000 0.16249700 8552.44541239 0 -2.21048046 0 2842.95018350 0 286.45128995 0 436.31271522 0 28590
0.16350000 0.16349900 8703.25260936 0 -13.64866097 0 2856.52711521 0 84.57395906 0 273.86736360 0 29163
0.16450000 0.16449100 8497.34679632 0 177.48982223 0 2650.83000905 0 37.14026789 0 122.38022159 0 28996
0.16550000 0.16550500 8640.23411646 0 35.18116937 0 2490.81774026 0 26.82179979 0 -210.85985527 0 30777
0.16650000 0.16650700 8321.13228297 0 38.54255843 0 2644.77750956 0 122.32639718 0 183.55330629 0 29211
0.16750000 0.16749900 8322.67012313 0 111.46595027 0 2355.61962092 0 212.76897399 0 92.84973604 0 30922
0.16850000 0.16850800 8192.70066035 0 55.15024356 0 2283.53885565 0 112.67535171 0 370.32728926 0 30867
0.16950000 0.16949900 8172.65381539 0 76.51018433 0 2083.39994321 0 187.47479870 0 -97.81641053 0 30852
0.17050000 0.17049200 8064.23608401 0 114.81514645 0 2230.73601525 0 -232.90589244 0 123.00524377 0 31257
0.17150000 0.17149500 7769.52000166 0 92.21691481 0 2082.00490250 0 49.52559317 0 273.81024382 0 32608
0.17250000 0.17250900 7748.36371486 0 33.16561015 0 2093.04439794 0 185.18012149 0 449.04932713 0 32361
0.17350000 0.17350400 7781.76780008 0 164.66862911 0 2132.64378210 0 151.28502588 0 96.89172921 0 32508
0.17450000 0.17449800 7876.65253804 0 -58.83820396 0 2016.18534359 0 114.99309653 0 386.86895711 0 32791
0.17550000 0.17549800 7811.06365516 0 -8.87979666 0 1855.55793873 0 25.98927904 0 194.76196415 0 33633
0.17650000 0.17650100 7659.86101358 0 132.28281377 0 2013.26344728 0 -29.98678469 0 585.23056570 0 33984
0.17750000 0.17750300 7634.05825258 0 38.32737065 0 1920.36691696 0 171.46258725 0 404.63430635 0 34069
0.17850000 0.17849800 7775.22099482 0 -6.51509280 0 1988.52618983 0 5.19881147 0 497.00028181 0 34536
