### header ###
fiducial parameters:
Omega_m = 0.31
Omega_nu = 0
Omega_de = 0.69
Omega_k = 0
H_0 = 100
w_de = -1
zeff = 0
beta = 0
fgrowth = 0
b_1 = 2
gamma = 0.55
Lx = 3500 Ly = 3500 Lz = 3500
nx = 700 ny = 700 nz = 700
xoffset = -983.599254 yoffset = -42.9823471 zoffset = 800.977702
bins = 400 dk = 0.001
kx_ny = 0.628318531 ky_ny = 0.628318531 kz_ny = 0.628318531
############################
A(data) = 9.04534733 (not used)
A(ran) = 9.04770097 (used)
Ngal = 502692
weighted Ngal = 0
Nran = 25229228
weighted Nran = 0
SN(data) = 6723.89518
SN(ran) = 134.306888
SN(data+ran) = 6858.20207
############################
13 columns: k_central k_mean P_0(k) sigma^{lin}_{P_0(k)} P^img_1(k) sigma^{lin}_{P_1(k)} P_2(k) sigma^{lin}_{P_2(k)} P^img_3(k) sigma^{lin}_{P_3(k)} P_4(k) sigma^{lin}_{P_4(k)} N_modes
### header ###
0.00050000 0 0 0 0 0 0 0 0 0 0 0 0
0.00150000 0.00179520 15609.07763809 0 -19979.50953103 0 2537.61201945 0 -33427.37251374 0 9766.03197575 0 3
0.00250000 0.00253879 35682.61511041 0 -9969.59807483 0 -6343.92020290 0 -28123.36179711 0 10012.69055306 0 6
0.00350000 0.00331552 44796.73467260 0 3130.33955594 0 -15472.42955518 0 -16467.52198532 0 28154.99736614 0 7
0.00450000 0.00420575 50418.96845691 0 4556.76319764 0 14601.79233238 0 -54035.41928787 0 5852.93177766 0 24
0.00550000 0.00557378 39167.58060757 0 6224.12245433 0 26987.22745502 0 9441.70148571 0 956.28063984 0 45
0.00650000 0.00659388 42503.70514625 0 -8076.22025270 0 37219.68635172 0 10648.76321296 0 14940.11716788 0 40
0.00750000 0.00754703 42429.99866423 0 -3767.57658053 0 20091.00294273 0 23832.01882676 0 6059.57355706 0 57
0.00850000 0.00846663 63213.24937103 0 -6570.40012039 0 30492.40456573 0 12488.79995063 0 13049.89191809 0 75
0.00950000 0.00948925 64053.45932778 0 -9019.08104022 0 9888.03762341 0 14809.51059989 0 -3703.88802870 0 112
0.01050000 0.01054430 77662.13645308 0 -7081.25963743 0 16504.75968637 0 12159.59231037 0 13480.15762610 0 105
0.01150000 0.01145670 89376.63388245 0 -4047.93582652 0 11360.57450080 0 -14241.16881453 0 16554.62964589 0 144
0.01250000 0.01249090 84540.89549497 0 10688.74705716 0 35394.48977160 0 -15820.97004318 0 18172.10795849 0 169
0.01350000 0.01339930 83440.13147659 0 5344.68658890 0 15721.55966132 0 2832.89929958 0 3907.59692722 0 180
0.01450000 0.01448870 74987.50287525 0 3439.03899919 0 59881.95804429 0 -3496.94966584 0 7571.58898831 0 267
0.01550000 0.01550050 75211.25861873 0 6083.38811042 0 59969.17555059 0 10301.73859597 0 17423.28964562 0 238
0.01650000 0.01653350 73565.00072597 0 6487.86204201 0 73171.42349038 0 8296.51585582 0 22653.81357168 0 315
0.01750000 0.01747870 67011.93426111 0 1422.35934984 0 66168.42893259 0 21517.02015524 0 44640.53405050 0 297
0.01850000 0.01844180 66918.89493135 0 -1580.06485839 0 61671.45476352 0 14186.13610590 0 36438.13401256 0 388
0.01950000 0.01947590 74911.05025008 0 -3042.59479016 0 50306.81597086 0 24838.64505811 0 49378.18020483 0 399
0.02050000 0.02045430 75741.92332014 0 -1946.18066253 0 45692.41672089 0 19645.13914165 0 43325.68071251 0 462
0.02150000 0.02154770 69581.77501652 0 4866.40731413 0 34814.61418504 0 3696.79199482 0 55936.07988162 0 571
0.02250000 0.02255340 69656.79964725 0 2221.46503599 0 39745.36912535 0 8785.85659517 0 42743.16882852 0 510
0.02350000 0.02348930 71846.79388279 0 -2840.96197586 0 26046.39881343 0 11807.97614204 0 30688.14964913 0 555
0.02450000 0.02439640 66590.23651972 0 -26.50017151 0 30242.06615660 0 620.32297973 0 26651.97829984 0 592
0.02550000 0.02547300 60108.24023946 0 6477.09716088 0 31370.62114361 0 -10108.78359401 0 20074.52608386 0 837
0.02650000 0.02652900 57273.12205622 0 6262.65633495 0 33135.18288307 0 384.60393825 0 15308.32004081 0 723
0.02750000 0.02749970 59590.75702516 0 -3735.46867487 0 31234.52228932 0 252.60342800 0 -4254.97305054 0 826
0.02850000 0.02848090 56094.58726397 0 1263.78606006 0 29391.20116445 0 -93.61975458 0 -1963.14084259 0 831
0.02950000 0.02946900 52601.38333738 0 1314.13934077 0 30541.72529662 0 2031.47586862 0 -4639.66376691 0 996
0.03050000 0.03053250 56948.63778217 0 1.79688934 0 30299.18593402 0 7028.81928792 0 -7252.11367936 0 1041
0.03150000 0.03150510 53614.49046655 0 47.19488656 0 24734.40146431 0 1983.06685726 0 -1392.19571353 0 1036
0.03250000 0.03246190 56378.86800237 0 1534.75349649 0 21942.01326841 0 -919.19452589 0 -6285.54818421 0 1059
0.03350000 0.03345080 55370.15470223 0 986.83093311 0 27948.81693879 0 -337.92719398 0 -508.99104124 0 1302
0.03450000 0.03451200 52383.44941736 0 72.61362689 0 27997.80813251 0 3412.92867017 0 -4066.00544842 0 1339
0.03550000 0.03553350 53889.43431826 0 303.50374042 0 22861.53183919 0 1636.16307056 0 608.11472576 0 1365
0.03650000 0.03647120 52452.98176180 0 -764.16046539 0 26661.53487798 0 6039.37292809 0 5853.82152804 0 1308
0.03750000 0.03744890 50640.41744015 0 306.05875200 0 19706.65274811 0 1868.19019720 0 430.05260730 0 1579
0.03850000 0.03847530 52629.83338036 0 2147.98922999 0 22225.85462391 0 3032.11550792 0 3342.58346736 0 1662
0.03950000 0.03950240 50567.37003249 0 1226.01011495 0 22499.37048119 0 719.91680395 0 3872.31448009 0 1683
0.04050000 0.04050350 49022.93912755 0 760.04344759 0 18130.14689123 0 795.62357664 0 6480.91979214 0 1822
0.04150000 0.04152450 45140.66164013 0 1329.96810986 0 21454.51793725 0 -1480.39084679 0 -352.69265644 0 1887
0.04250000 0.04250150 42855.98038893 0 2868.87377479 0 21304.68836724 0 -369.96809374 0 4598.65835746 0 1920
0.04350000 0.04349210 42982.30297362 0 369.72643314 0 18961.12980701 0 2807.87644324 0 -2208.93163867 0 2005
0.04450000 0.04448520 42582.57437738 0 539.61493114 0 18740.12020667 0 3356.57781283 0 1889.12679254 0 2151
0.04550000 0.04548030 40404.22378878 0 -905.03541184 0 15859.30620149 0 3165.69889508 0 -1173.02053682 0 2274
0.04650000 0.04648670 41676.56683087 0 939.32814898 0 14787.54145473 0 -1153.96230339 0 1752.69840108 0 2311
0.04750000 0.04749250 38968.64999812 0 690.62644116 0 14222.82457832 0 1521.15459564 0 200.19603221 0 2568
0.04850000 0.04851840 38405.36111615 0 1159.91594173 0 16828.91442325 0 392.76108185 0 -131.79070492 0 2493
0.04950000 0.04949480 38920.64741594 0 1385.74776943 0 12981.01864800 0 -671.63741054 0 -849.43260389 0 2644
0.05050000 0.05050630 37100.39389349 0 -451.98770029 0 16497.40002274 0 1765.19884468 0 1358.41815284 0 2829
0.05150000 0.05149060 38373.61570139 0 -180.85549527 0 13462.14292707 0 1132.84995489 0 -682.46710065 0 2784
0.05250000 0.05249300 36735.59623806 0 1273.04605474 0 16860.33030083 0 -1108.83767922 0 421.59558487 0 3055
0.05350000 0.05348950 36020.72025447 0 -274.96801777 0 13265.40923213 0 804.80008857 0 2472.08904400 0 3009
0.05450000 0.05448610 35754.01483219 0 -296.01116346 0 13097.89450027 0 2230.58223123 0 415.57603910 0 3336
0.05550000 0.05550870 35696.12613469 0 391.60880018 0 11625.19285429 0 2427.74432449 0 1328.69389944 0 3349
0.05650000 0.05647670 37266.37078519 0 830.97083275 0 13941.61952024 0 961.31267254 0 2305.71670769 0 3324
0.05750000 0.05747970 34468.27061155 0 1107.05817847 0 13311.76412843 0 -4121.00520333 0 1366.86528916 0 3639
0.05850000 0.05849280 33106.29345718 0 1586.57870993 0 14963.51430748 0 -1117.79010588 0 323.27926644 0 3846
0.05950000 0.05951020 32399.32636585 0 130.59448496 0 15567.22641655 0 3445.88238791 0 2224.84828434 0 3787
0.06050000 0.06049470 32412.28816150 0 -519.24184438 0 14036.52622734 0 1211.01617338 0 1370.86367358 0 3930
0.06150000 0.06148310 31788.80382178 0 613.82890042 0 13255.63296254 0 420.97935035 0 2055.47715971 0 4083
0.06250000 0.06249100 32036.28624204 0 616.53879447 0 13513.77041820 0 793.63097517 0 1534.66561991 0 4303
0.06350000 0.06350600 31164.66040771 0 -317.22457003 0 13646.13451780 0 440.73730105 0 3062.26815965 0 4470
0.06450000 0.06451750 31112.70337940 0 312.51328685 0 13758.61654104 0 171.64493116 0 1822.37354496 0 4479
0.06550000 0.06550280 30488.45011960 0 1119.24006946 0 14484.69678866 0 -1017.29994053 0 3268.02018868 0 4636
0.06650000 0.06648880 30343.56360725 0 874.76961900 0 15356.43246872 0 -924.31773055 0 2450.16383713 0 4653
0.06750000 0.06749660 30199.66570644 0 -837.10791345 0 14518.74896366 0 3308.41046206 0 2827.73655047 0 5220
0.06850000 0.06852730 30877.74337188 0 -1177.67799559 0 12907.86139461 0 3364.22307534 0 3423.85831989 0 5029
0.06950000 0.06949320 30632.67755759 0 921.58257197 0 13056.15312446 0 -528.57873107 0 3819.84117687 0 5040
0.07050000 0.07048030 30035.55619207 0 1431.95986628 0 12498.68606596 0 -310.47674710 0 5364.20617437 0 5475
0.07150000 0.07148790 28896.45601538 0 535.25625274 0 13075.59581793 0 106.40480845 0 4498.72071612 0 5509
0.07250000 0.07249820 27849.95578556 0 521.93855695 0 12632.58800572 0 839.53220862 0 4143.49062341 0 5916
0.07350000 0.07351270 27171.43873721 0 -26.39252270 0 11302.02672894 0 1044.27036159 0 3797.82809342 0 5721
0.07450000 0.07449140 26822.23917485 0 -83.04446717 0 10239.22539341 0 1348.80665184 0 4323.06641597 0 6028
0.07550000 0.07549160 26905.72192647 0 270.49070599 0 9435.92360054 0 1442.99936172 0 1634.31766237 0 6183
0.07650000 0.07648840 26307.17256651 0 99.63270961 0 7948.31588956 0 -404.54642977 0 2089.22176668 0 6330
0.07750000 0.07749960 26216.33015126 0 455.52802803 0 8268.51618031 0 727.18090180 0 922.22956330 0 6583
0.07850000 0.07848650 25405.44900331 0 625.39785226 0 7523.36671468 0 -716.14360327 0 1330.62718421 0 6549
0.07950000 0.07947320 24609.39702834 0 595.66920503 0 8073.61690900 0 -700.79266309 0 -537.22029432 0 6828
0.08050000 0.08048110 23836.63234724 0 566.86216343 0 7974.23948085 0 594.27196739 0 541.22307257 0 7147
0.08150000 0.08149960 24324.67690703 0 -63.99469186 0 8887.38699954 0 55.10498712 0 -1257.29417766 0 7386
0.08250000 0.08250610 23580.58196037 0 260.15642010 0 8495.14988181 0 -237.84785165 0 57.18469625 0 7227
0.08350000 0.08350160 22641.62069612 0 376.64891078 0 8909.30122184 0 -677.12859838 0 -961.19184224 0 7798
0.08450000 0.08449610 22736.08802032 0 969.57636649 0 9543.38567410 0 -171.16929916 0 -1102.23595110 0 7371
0.08550000 0.08548940 21742.09404743 0 781.35901069 0 10199.38434866 0 -497.32542516 0 -289.16997166 0 8256
0.08650000 0.08650700 20712.51005938 0 269.16706499 0 10398.49071127 0 68.16026148 0 -1453.08319935 0 8037
0.08750000 0.08749060 20765.23600777 0 104.38013203 0 10419.70192092 0 1271.54116830 0 50.74861548 0 8155
0.08850000 0.08849210 20871.12728746 0 -353.47585647 0 9058.90011583 0 1574.83620184 0 244.37049085 0 8718
0.08950000 0.08949900 20734.91858745 0 103.12613323 0 8759.66937414 0 809.11263177 0 1519.15540343 0 8571
0.09050000 0.09049190 20213.15138983 0 699.85128522 0 8178.46465429 0 -151.59588928 0 285.40446018 0 8932
0.09150000 0.09150830 20226.55256838 0 342.80214729 0 8841.09801068 0 112.95655677 0 935.87899319 0 9285
0.09250000 0.09250820 19119.41749791 0 293.26941415 0 8739.53465260 0 -197.69045120 0 873.99300972 0 9204
0.09350000 0.09350330 18856.11729313 0 238.68377762 0 8408.25092811 0 845.17718047 0 1788.98044432 0 9349
0.09450000 0.09448040 18875.77967805 0 -262.87070799 0 8135.52596007 0 1065.88470506 0 1545.34262446 0 9564
0.09550000 0.09549270 19000.01519395 0 173.09928857 0 7358.77387912 0 1014.43077017 0 1050.73917638 0 10155
0.09650000 0.09649430 18557.99599328 0 171.43622428 0 7000.33629122 0 244.48802577 0 1543.60706199 0 9913
0.09750000 0.09749140 18131.90442285 0 334.99651001 0 6535.27145727 0 -146.04099093 0 1851.42773944 0 10476
0.09850000 0.09850240 18001.73723776 0 210.29524824 0 6612.00968132 0 397.62834596 0 2645.43658391 0 10575
0.09950000 0.09950330 17435.26282974 0 250.30984924 0 6614.82173190 0 97.09703088 0 410.34848101 0 10882
0.10050000 0.10051200 17674.28712911 0 428.84320586 0 6473.73588167 0 118.59054405 0 1424.60020265 0 10875
0.10150000 0.10150300 17182.94719754 0 -115.97951114 0 6899.25625433 0 -82.33848869 0 1635.16347446 0 11118
0.10250000 0.10250800 16574.84125944 0 -56.00813868 0 6085.81570096 0 773.83457847 0 1999.51076241 0 11575
0.10350000 0.10349800 17046.40896036 0 108.11082242 0 5647.58617783 0 140.81123592 0 1521.63791683 0 11364
0.10450000 0.10450100 16653.82033630 0 511.68006461 0 6302.21178081 0 118.57516564 0 1031.90173286 0 12093
0.10550000 0.10551000 16387.99367983 0 267.32714908 0 6253.53913970 0 28.01329638 0 2456.91934927 0 12067
0.10650000 0.10649700 15923.78564254 0 139.66664346 0 6311.57063665 0 223.36469270 0 1832.74298148 0 12054
0.10750000 0.10749900 15503.84543276 0 399.44848963 0 6754.50155685 0 -192.98795568 0 1999.28008639 0 12807
0.10850000 0.10850100 15213.19364226 0 613.08414640 0 6656.49720028 0 -884.21854834 0 1206.80908208 0 12736
0.10950000 0.10950300 14481.07187971 0 166.85346060 0 7697.82369642 0 20.54862024 0 2371.50331288 0 12933
0.11050000 0.11050200 14768.31845271 0 -161.98509803 0 7444.79406701 0 689.00621671 0 913.48254815 0 13428
0.11150000 0.11150900 14661.21887004 0 34.24253764 0 7157.25091054 0 158.93578068 0 637.84556991 0 13453
0.11250000 0.11250000 14556.64573907 0 366.32890484 0 6840.55469845 0 10.93837147 0 1057.55620213 0 13668
0.11350000 0.11349100 14515.23390044 0 -179.63730617 0 6530.48218362 0 410.67032898 0 1288.84187011 0 13791
0.11450000 0.11448600 14704.16854884 0 -399.90434940 0 5984.27431202 0 1087.01572733 0 945.95514162 0 14205
0.11550000 0.11549300 14708.12299497 0 349.94431638 0 5305.48264935 0 326.58342587 0 699.73155338 0 14776
0.11650000 0.11649800 14324.10233752 0 420.47186310 0 5516.91370240 0 -421.69883986 0 977.56764305 0 14553
0.11750000 0.11747300 14105.39949743 0 287.02029081 0 5952.02360692 0 -57.48589323 0 505.58033146 0 14568
0.11850000 0.11849100 13907.01811661 0 -121.50694807 0 5422.53425478 0 363.24773224 0 610.28857268 0 16015
0.11950000 0.11950300 13714.12902208 0 -23.39208669 0 5559.03953825 0 323.30013713 0 399.33205316 0 15270
0.12050000 0.12050700 13476.86225432 0 311.10506465 0 4966.36692462 0 -176.49022612 0 196.65790138 0 15999
0.12150000 0.12150000 13111.84490745 0 369.44632654 0 5591.90537941 0 -249.60024585 0 740.78968877 0 15670
0.12250000 0.12250700 12886.44147808 0 229.31283875 0 5526.87670973 0 24.18055931 0 234.34926528 0 16887
0.12350000 0.12352200 12971.79160703 0 135.20471007 0 5744.72275316 0 42.93199363 0 25.46059156 0 16407
0.12450000 0.12449800 12728.15378718 0 90.58812239 0 5803.96255309 0 149.80320704 0 148.83656465 0 16306
0.12550000 0.12549900 12743.97157170 0 -105.19364948 0 5478.01733089 0 373.22721643 0 762.06900278 0 17523
0.12650000 0.12650100 12503.95866079 0 36.01259167 0 5114.66963904 0 452.00857098 0 474.54232317 0 17154
0.12750000 0.12750600 12776.48590654 0 12.78241758 0 4941.53080602 0 339.26950875 0 820.32128963 0 18007
0.12850000 0.12850300 12874.35844824 0 -81.08163390 0 4921.17639302 0 232.14795693 0 390.50375218 0 17496
0.12950000 0.12949900 12499.12544886 0 173.00921507 0 4754.29876637 0 151.75626404 0 996.46440326 0 18405
0.13050000 0.13049000 12694.98037798 0 76.64990809 0 4621.55020672 0 201.02976127 0 1297.78331220 0 18100
0.13150000 0.13148800 12495.83007708 0 -108.03261226 0 3751.13267538 0 605.67395373 0 971.24492307 0 19059
0.13250000 0.13249300 12577.99467999 0 -68.22144555 0 3967.04543403 0 858.00496433 0 1482.07148639 0 18957
0.13350000 0.13349100 12602.70996830 0 80.11422259 0 3021.07601247 0 188.82699959 0 1777.77618028 0 19468
0.13450000 0.13450700 12319.96707006 0 362.45244918 0 3769.80644876 0 -370.60629741 0 1272.59568727 0 19953
0.13550000 0.13551000 11939.02209294 0 418.88349390 0 3316.61593778 0 -372.47697012 0 1170.24143995 0 19956
0.13650000 0.13649900 11618.71195646 0 98.82424507 0 3970.09914521 0 -8.53304666 0 1293.08191513 0 19723
0.13750000 0.13749600 11384.85040621 0 -25.80111331 0 3540.65728014 0 440.34515181 0 1539.72950787 0 20946
0.13850000 0.13851100 11424.61455895 0 11.16977248 0 3413.76349768 0 508.10788161 0 1177.31550470 0 20955
0.13950000 0.13949800 11562.14140767 0 101.37771881 0 3207.94556123 0 -9.27404395 0 1176.82119893 0 20506
0.14050000 0.14048300 11342.01057314 0 60.53301366 0 3070.84711084 0 51.92791919 0 1648.67449873 0 21447
0.14150000 0.14148400 11248.31216902 0 41.27661854 0 3259.92455868 0 -245.17236464 0 1001.68427215 0 21771
0.14250000 0.14249400 11217.44552007 0 232.90259707 0 3265.14223066 0 -96.90765684 0 815.27827236 0 22470
0.14350000 0.14350900 11014.89000167 0 57.31903757 0 3595.18469844 0 -263.62315121 0 242.49103048 0 22519
0.14450000 0.14449900 10764.54060797 0 225.51766892 0 3359.60955486 0 -372.26606632 0 530.87340828 0 22218
0.14550000 0.14550500 10657.06754983 0 236.40228189 0 3779.63764122 0 48.17042645 0 -478.56926748 0 23559
0.14650000 0.14650700 10510.37956758 0 93.82999930 0 3919.99850967 0 -83.33171375 0 -118.91568739 0 23044
0.14750000 0.14750500 10090.32951207 0 328.92533675 0 3947.55880228 0 -86.40497746 0 -577.41064848 0 23649
0.14850000 0.14849900 9918.81639578 0 189.20157351 0 4140.98614086 0 59.90711272 0 509.95328980 0 23640
0.14950000 0.14949500 9705.78159514 0 -19.75377656 0 3788.48022215 0 436.99705409 0 70.43835199 0 24457
0.15050000 0.15050000 9762.78054227 0 -24.97452422 0 3853.86039816 0 564.60373531 0 598.02869122 0 24591
0.15150000 0.15149900 9787.40795399 0 11.98208162 0 3299.41409711 0 222.93958974 0 759.97094941 0 25020
0.15250000 0.15250500 9715.54688017 0 5.03781058 0 3354.10628400 0 282.62316640 0 927.49117356 0 25297
0.15350000 0.15350100 9672.87181569 0 133.59766711 0 3078.65714195 0 155.41522517 0 1414.35159643 0 25452
0.15450000 0.15450400 9554.46910783 0 30.58302729 0 3203.43090190 0 83.14036249 0 838.87642964 0 26061
0.15550000 0.15549900 9465.64785394 0 166.03950377 0 3057.52282430 0 -36.30093670 0 1092.05544923 0 26128
0.15650000 0.15649500 9327.50586916 0 141.95692684 0 2959.83702033 0 92.66036201 0 746.69389653 0 26331
0.15750000 0.15749700 9195.36146100 0 181.19382010 0 3280.76229287 0 -214.93952553 0 1179.01811345 0 27345
0.15850000 0.15849900 9009.26083233 0 50.51343578 0 3199.27873346 0 109.47675402 0 437.76267880 0 26980
0.15950000 0.15949700 8902.33700282 0 -80.46781598 0 2955.46516045 0 357.34791830 0 961.55872697 0 27777
0.16050000 0.16050000 8957.92992466 0 179.60984473 0 3116.54293278 0 -162.07736844 0 309.09818324 0 28224
0.16150000 0.16150500 8883.32270769 0 77.46298615 0 2985.94734936 0 -69.13657029 0 518.67723735 0 28075
0.16250000 0.16249700 8674.20939945 0 62.84043298 0 2999.59018851 0 246.00719216 0 393.62227234 0 28590
0.16350000 0.16349900 8819.26068039 0 -49.47528383 0 2936.70351048 0 -242.59318700 0 242.71950959 0 29163
0.16450000 0.16449100 8662.69756739 0 131.41613099 0 2819.17956843 0 23.98569300 0 298.21137335 0 28996
0.16550000 0.16550500 8717.13710910 0 26.04134591 0 2999.33754334 0 -114.91290915 0 -245.72269173 0 30777
0.16650000 0.16650700 8500.11490861 0 65.20420315 0 2733.25824170 0 90.76892846 0 -55.16276597 0 29211
0.16750000 0.16749900 8451.73885096 0 238.50033526 0 3135.45836676 0 -212.06815826 0 -429.64507966 0 30922
0.16850000 0.16850800 8271.94336695 0 113.00379043 0 2909.17617159 0 200.08398957 0 -45.89727900 0 30867
0.16950000 0.16949900 8375.47296353 0 50.37953384 0 2727.97466229 0 322.13796935 0 -226.59415704 0 30852
0.17050000 0.17049200 8338.45495393 0 -230.18061998 0 2182.92017080 0 498.65345999 0 184.41339832 0 31257
0.17150000 0.17149500 8339.63030320 0 -72.68788261 0 2009.00143312 0 593.96330090 0 216.26316652 0 32608
0.17250000 0.17250900 8133.21919982 0 303.32908572 0 1803.61189499 0 -198.57141392 0 263.33315849 0 32361
0.17350000 0.17350400 7902.15871557 0 281.38850044 0 1962.27306136 0 -84.20048359 0 689.42253201 0 32508
0.17450000 0.17449800 7777.75843109 0 152.58669773 0 2171.85870621 0 -66.18161042 0 548.84526748 0 32791
0.17550000 0.17549800 7617.85600802 0 -20.86904022 0 2253.19946618 0 68.09369497 0 521.84518808 0 33633
0.17650000 0.17650100 7598.18263853 0 -87.36810479 0 1973.48830996 0 226.28878592 0 570.60680422 0 33984
0.17750000 0.17750300 7601.10453484 0 49.76505685 0 1724.94038617 0 295.05111182 0 838.98957073 0 34069
0.17850000 0.17849800 7534.27439525 0 118.72565429 0 1990.59128947 0 -121.82879604 0 973.37373324 0 34536
