### header ###
fiducial parameters:
Omega_m = 0.31
Omega_nu = 0
Omega_de = 0.69
Omega_k = 0
H_0 = 100
w_de = -1
zeff = 0
beta = 0
fgrowth = 0
b_1 = 2
gamma = 0.55
Lx = 3500 Ly = 3500 Lz = 3500
nx = 700 ny = 700 nz = 700
xoffset = -983.599254 yoffset = -42.9823471 zoffset = 800.977702
bins = 400 dk = 0.001
kx_ny = 0.628318531 ky_ny = 0.628318531 kz_ny = 0.628318531
############################
A(data) = 9.07934424 (not used)
A(ran) = 9.08632304 (used)
Ngal = 504727
weighted Ngal = 0
Nran = 25229228
weighted Nran = 0
SN(data) = 6729.68322
SN(ran) = 134.880206
SN(data+ran) = 6864.56343
############################
13 columns: k_central k_mean P_0(k) sigma^{lin}_{P_0(k)} P^img_1(k) sigma^{lin}_{P_1(k)} P_2(k) sigma^{lin}_{P_2(k)} P^img_3(k) sigma^{lin}_{P_3(k)} P_4(k) sigma^{lin}_{P_4(k)} N_modes
### header ###
0.00050000 0 0 0 0 0 0 0 0 0 0 0 0
0.00150000 0.00179520 25554.50965324 0 -28691.81342819 0 6085.04678088 0 -70543.47434602 0 -14504.46901931 0 3
0.00250000 0.00253879 26185.35365658 0 -17349.03393497 0 -25720.04716204 0 20063.10212837 0 34765.07376269 0 6
0.00350000 0.00331552 40162.78288344 0 -31676.43164427 0 -20485.12940695 0 -20743.04717116 0 -9642.03812045 0 7
0.00450000 0.00420575 50073.50364923 0 -30969.02517003 0 -36439.23246982 0 -14371.22615390 0 -16499.37724581 0 24
0.00550000 0.00557378 89289.08683898 0 7845.58816678 0 -20418.89243428 0 -30831.82785849 0 4164.15260443 0 45
0.00650000 0.00659388 55593.03167990 0 16494.43418814 0 16406.55760749 0 -63742.59592373 0 -899.50467954 0 40
0.00750000 0.00754703 50167.31189908 0 11946.49160229 0 7333.23474787 0 16044.50609521 0 12769.01639718 0 57
0.00850000 0.00846663 61594.67260117 0 -14999.21416837 0 37795.27795498 0 46824.26707967 0 38330.22663969 0 75
0.00950000 0.00948925 70400.56505673 0 -10328.31027704 0 -455.38303168 0 18126.96136518 0 2498.55087935 0 112
0.01050000 0.01054430 79543.46419909 0 -3347.50455587 0 -3629.06112028 0 1314.55675453 0 3899.73197326 0 105
0.01150000 0.01145670 95537.55110615 0 4301.15219367 0 15946.41386206 0 2620.41372757 0 33672.98755666 0 144
0.01250000 0.01249090 85089.68474113 0 3840.98647909 0 19370.52482712 0 -1509.56587156 0 39387.05236774 0 169
0.01350000 0.01339930 79118.47108592 0 -1146.96513065 0 18324.02459729 0 -2783.99598245 0 13730.38618950 0 180
0.01450000 0.01448870 82014.33395553 0 7925.10548770 0 50102.83245802 0 -11919.24986229 0 23568.38908480 0 267
0.01550000 0.01550050 63992.27525850 0 10473.82291003 0 38677.00959609 0 7450.14355385 0 41484.22696498 0 238
0.01650000 0.01653350 70889.04899942 0 -4248.88759733 0 52379.71466268 0 26555.20421540 0 47542.87781794 0 315
0.01750000 0.01747870 79504.68865788 0 -1875.13244707 0 38166.00727960 0 19149.29553533 0 18773.95269023 0 297
0.01850000 0.01844180 81435.33713477 0 -692.65968555 0 36577.63808434 0 10160.58683830 0 43643.35455156 0 388
0.01950000 0.01947590 76529.40732849 0 2037.55033726 0 35093.73217433 0 -12754.73645283 0 27347.74112714 0 399
0.02050000 0.02045430 69391.08283651 0 5838.80561732 0 36875.42984702 0 8118.67562573 0 25626.12906647 0 462
0.02150000 0.02154770 66546.40807512 0 1463.68331189 0 40336.77851313 0 -4207.45378955 0 26718.43496396 0 571
0.02250000 0.02255340 67889.49176464 0 -4867.03343477 0 32087.58419599 0 21672.45185726 0 268.09606916 0 510
0.02350000 0.02348930 76438.34522179 0 -1106.59682642 0 30142.21639183 0 8550.75378821 0 2079.56632738 0 555
0.02450000 0.02439640 73815.44898082 0 1349.02634329 0 16119.75041740 0 -4608.84105624 0 -977.36662537 0 592
0.02550000 0.02547300 71423.55830123 0 2800.25314987 0 23721.51402659 0 -8299.16313781 0 -8204.25643071 0 837
0.02650000 0.02652900 63644.17415340 0 4012.74125597 0 26511.92499943 0 -4029.84423548 0 -4951.01049215 0 723
0.02750000 0.02749970 58671.56799155 0 1921.61915824 0 24489.00611285 0 7306.37746791 0 -10248.18880464 0 826
0.02850000 0.02848090 61368.06086882 0 1606.75736976 0 25762.66730365 0 3225.70761509 0 -6106.80721916 0 831
0.02950000 0.02946900 58883.13085947 0 1108.99146324 0 18750.77524208 0 6352.59801524 0 -9654.80219379 0 996
0.03050000 0.03053250 56211.46311623 0 -1236.21478288 0 20023.99704998 0 4403.68219414 0 -2544.43343902 0 1041
0.03150000 0.03150510 56761.79020256 0 557.12214292 0 13995.77346307 0 -699.16584789 0 -3251.04902404 0 1036
0.03250000 0.03246190 57200.95341436 0 3512.02049942 0 16936.12385164 0 -677.50976304 0 -6452.71140975 0 1059
0.03350000 0.03345080 51282.90509044 0 2036.03446624 0 20530.16615453 0 -8234.59582018 0 -1097.43459443 0 1302
0.03450000 0.03451200 50110.96104173 0 2366.77994667 0 19491.90435414 0 3448.88117623 0 -6503.91050255 0 1339
0.03550000 0.03553350 47998.95727152 0 -470.01338390 0 26271.14316844 0 -144.53500603 0 -4892.69339632 0 1365
0.03650000 0.03647120 48745.02944124 0 2114.85975909 0 22356.13165473 0 3942.93429722 0 -27.17143874 0 1308
0.03750000 0.03744890 48702.51914535 0 -1583.17349243 0 24004.03723338 0 3044.93450412 0 -1935.78925686 0 1579
0.03850000 0.03847530 47667.77240819 0 1852.60308871 0 25026.15171207 0 -2943.86545180 0 1027.28601547 0 1662
0.03950000 0.03950240 48186.57377121 0 325.39159975 0 23311.35008640 0 2742.61709754 0 2425.02015049 0 1683
0.04050000 0.04050350 47822.10565296 0 168.09581576 0 27851.49362572 0 1960.17500800 0 2154.40422038 0 1822
0.04150000 0.04152450 47406.55927221 0 579.29230577 0 25217.17342926 0 -1717.53678425 0 -2601.67404675 0 1887
0.04250000 0.04250150 47401.06698592 0 2209.00853068 0 27793.93446540 0 1483.81803343 0 1226.32866755 0 1920
0.04350000 0.04349210 42253.47658285 0 432.83939337 0 24613.13178302 0 1170.30734739 0 3774.81541386 0 2005
0.04450000 0.04448520 43858.87186561 0 1980.41957526 0 26779.83872469 0 1708.41958900 0 -1077.35699266 0 2151
0.04550000 0.04548030 40823.17538703 0 1642.54510723 0 23376.70829326 0 2322.51211916 0 -95.37761573 0 2274
0.04650000 0.04648670 39030.05375885 0 -99.23979145 0 25765.52329252 0 1566.40005010 0 344.82989939 0 2311
0.04750000 0.04749250 39202.29185693 0 297.34139520 0 20970.20813214 0 3483.32879584 0 2413.72800988 0 2568
0.04850000 0.04851840 38079.99807629 0 988.66645518 0 16228.82722313 0 5171.06443468 0 3119.89322742 0 2493
0.04950000 0.04949480 39037.63311393 0 -1320.77402261 0 15122.57091846 0 1401.56555394 0 3263.40666819 0 2644
0.05050000 0.05050630 38078.46023613 0 101.04796194 0 13904.38181919 0 322.78166530 0 2.71165159 0 2829
0.05150000 0.05149060 37372.26206487 0 1721.87569042 0 14272.14530921 0 -510.17737508 0 3768.27959317 0 2784
0.05250000 0.05249300 34667.75044962 0 449.48541466 0 12750.45246952 0 -687.10588565 0 4458.49521132 0 3055
0.05350000 0.05348950 35946.35469809 0 273.89372657 0 16666.78213195 0 3488.65631354 0 1392.93167989 0 3009
0.05450000 0.05448610 36682.76044394 0 327.60828650 0 14528.08585036 0 -1189.05801279 0 -398.65430504 0 3336
0.05550000 0.05550870 35175.78693151 0 489.17597076 0 15806.90979028 0 -434.66502933 0 3208.15426811 0 3349
0.05650000 0.05647670 35213.02463256 0 -270.13810121 0 15469.46372058 0 2845.27891288 0 4441.79866100 0 3324
0.05750000 0.05747970 35933.39290244 0 1.77508496 0 14976.36625740 0 509.70503846 0 1910.93116911 0 3639
0.05850000 0.05849280 34230.56446089 0 765.22706739 0 13306.82107076 0 1790.47434619 0 5850.41631054 0 3846
0.05950000 0.05951020 34643.69423567 0 970.07836146 0 15790.21323996 0 671.94497857 0 4275.23958695 0 3787
0.06050000 0.06049470 32453.15077150 0 1061.93575122 0 14783.69685433 0 -841.22712817 0 3882.38733315 0 3930
0.06150000 0.06148310 31661.05324266 0 600.46177404 0 14520.94587818 0 780.98114139 0 5032.32928297 0 4083
0.06250000 0.06249100 31404.89301006 0 -563.24604214 0 12911.81584074 0 1485.93805594 0 4536.96899784 0 4303
0.06350000 0.06350600 31818.46216775 0 -180.58197941 0 12217.15147070 0 1635.48202706 0 -407.61332243 0 4470
0.06450000 0.06451750 31713.66934532 0 289.76643395 0 11080.02851708 0 -24.25075073 0 1435.99120441 0 4479
0.06550000 0.06550280 30301.38284854 0 897.88225817 0 11293.34891660 0 -356.87997551 0 1607.22970638 0 4636
0.06650000 0.06648880 30255.79687233 0 188.64465568 0 9230.72080014 0 479.76438898 0 101.02368604 0 4653
0.06750000 0.06749660 30794.04092881 0 231.76129998 0 10478.00803218 0 252.30794299 0 -1081.06648282 0 5220
0.06850000 0.06852730 29358.90652106 0 117.61291709 0 9963.61148277 0 9.07086232 0 -1547.10015607 0 5029
0.06950000 0.06949320 28805.61360014 0 593.45910902 0 10031.38629560 0 -606.95914873 0 -772.57135262 0 5040
0.07050000 0.07048030 28998.17315749 0 330.54775812 0 10441.79189638 0 1359.80220899 0 -850.81446312 0 5475
0.07150000 0.07148790 28085.24533025 0 -696.02426013 0 8878.83001750 0 1746.45916385 0 765.58186909 0 5509
0.07250000 0.07249820 28968.40496579 0 962.83733122 0 8265.74806802 0 723.19240350 0 33.09585811 0 5916
0.07350000 0.07351270 27558.31538353 0 473.39113997 0 9353.45142959 0 834.65945222 0 2574.55313704 0 5721
0.07450000 0.07449140 27597.74999909 0 866.93322492 0 9676.41983263 0 -629.64119265 0 2803.13110789 0 6028
0.07550000 0.07549160 26770.83137517 0 27.37652071 0 9782.22323573 0 120.02183385 0 2307.33143986 0 6183
0.07650000 0.07648840 26911.65359566 0 -325.10490240 0 8230.30085230 0 826.63632041 0 1166.40782412 0 6330
0.07750000 0.07749960 26582.22626395 0 -207.76550118 0 9106.25460822 0 1390.55901222 0 3474.18963145 0 6583
0.07850000 0.07848650 26022.01306230 0 333.95297562 0 8516.40502975 0 -448.29139162 0 2475.76887582 0 6549
0.07950000 0.07947320 26508.40993620 0 636.41757547 0 8910.79512371 0 -630.30246392 0 2916.39303577 0 6828
0.08050000 0.08048110 25868.22904616 0 799.34624829 0 8583.11433904 0 248.96094373 0 1352.99177399 0 7147
0.08150000 0.08149960 25027.25016933 0 149.88009904 0 9812.61754807 0 578.21032537 0 2431.25938772 0 7386
0.08250000 0.08250610 24774.93453714 0 488.61356065 0 10141.12217568 0 -185.89521717 0 1282.89921635 0 7227
0.08350000 0.08350160 23614.52428965 0 987.86458139 0 9460.90251859 0 -960.65249973 0 1818.61682114 0 7798
0.08450000 0.08449610 23190.19025083 0 508.26056717 0 10303.38628186 0 -740.69741836 0 371.65971792 0 7371
0.08550000 0.08548940 22150.72014746 0 -50.11414657 0 10451.74391914 0 488.62015139 0 713.19314707 0 8256
0.08650000 0.08650700 22513.65042554 0 424.44388454 0 9967.32426830 0 738.85860091 0 -1321.05962150 0 8037
0.08750000 0.08749060 21694.64069388 0 58.59269876 0 8999.56145474 0 380.40892998 0 -101.90695552 0 8155
0.08850000 0.08849210 21437.49184975 0 171.69326328 0 8365.02663501 0 922.65906009 0 -533.84143980 0 8718
0.08950000 0.08949900 21014.69565109 0 694.42490636 0 8857.17942494 0 403.61274110 0 30.67892261 0 8571
0.09050000 0.09049190 19944.13920732 0 722.41030193 0 8248.49130449 0 2.01655882 0 -81.27869713 0 8932
0.09150000 0.09150830 19435.22395962 0 183.00297921 0 8464.92033806 0 633.48359614 0 835.60192855 0 9285
0.09250000 0.09250820 19744.21998634 0 -202.71040087 0 7295.44781819 0 1331.09952083 0 782.83314033 0 9204
0.09350000 0.09350330 19171.59421767 0 95.07499075 0 7087.42198264 0 934.51580773 0 2077.39138201 0 9349
0.09450000 0.09448040 19148.41676952 0 301.92965117 0 6481.89741910 0 431.84089572 0 1678.19004526 0 9564
0.09550000 0.09549270 18722.65473627 0 241.83964532 0 7005.78463922 0 137.01606609 0 2460.86281083 0 10155
0.09650000 0.09649430 18259.43531052 0 423.79140093 0 6385.18924209 0 -380.63191680 0 2487.06101643 0 9913
0.09750000 0.09749140 17582.01671942 0 722.02364497 0 7287.34120362 0 -236.10459998 0 1467.78055746 0 10476
0.09850000 0.09850240 17463.05379837 0 -17.88947491 0 7336.76079567 0 693.45716552 0 3260.32000330 0 10575
0.09950000 0.09950330 17544.77901837 0 -18.73177193 0 6903.43039191 0 585.29317777 0 1921.55325080 0 10882
0.10050000 0.10051200 17279.50159053 0 145.93334211 0 6236.86455853 0 249.50468007 0 1971.43419489 0 10875
0.10150000 0.10150300 17000.71313842 0 122.20336997 0 6337.63702739 0 -126.59060826 0 2033.29930767 0 11118
0.10250000 0.10250800 17074.09008326 0 60.70580099 0 6302.03602765 0 -65.02943860 0 951.60560575 0 11575
0.10350000 0.10349800 16414.79603693 0 236.95590435 0 6153.64543665 0 -260.77045771 0 837.31002959 0 11364
0.10450000 0.10450100 16466.97275669 0 275.78636843 0 6756.47877991 0 132.92760818 0 315.44506928 0 12093
0.10550000 0.10551000 16224.98262272 0 399.58030451 0 6371.38163436 0 -333.27193212 0 911.83596072 0 12067
0.10650000 0.10649700 15485.61104227 0 47.91283822 0 6256.30725199 0 744.49258819 0 543.69350294 0 12054
0.10750000 0.10749900 15954.87198295 0 55.78361401 0 5762.49579160 0 362.54252268 0 1097.89155265 0 12807
0.10850000 0.10850100 15389.71572364 0 17.86344147 0 5983.71409882 0 1145.82273511 0 1295.23489136 0 12736
0.10950000 0.10950300 15667.95494712 0 -153.75435779 0 4878.35852910 0 709.45949085 0 1133.11358463 0 12933
0.11050000 0.11050200 15559.42737002 0 284.01381329 0 5093.75501285 0 -221.90813837 0 2303.43191659 0 13428
0.11150000 0.11150900 15501.86820969 0 70.03170311 0 4287.99267572 0 388.21017343 0 1793.05572074 0 13453
0.11250000 0.11250000 15295.79762807 0 89.97287648 0 4929.09626985 0 116.51775520 0 1980.37563697 0 13668
0.11350000 0.11349100 15180.02023306 0 153.13153253 0 3668.85822674 0 358.92859830 0 1061.42936242 0 13791
0.11450000 0.11448600 14920.89416587 0 215.17459538 0 4886.37726708 0 -54.27729958 0 1708.22186670 0 14205
0.11550000 0.11549300 14375.29044575 0 329.33506130 0 4588.93701073 0 60.18930639 0 1924.06871792 0 14776
0.11650000 0.11649800 14268.63024599 0 508.03758034 0 5109.52885907 0 -126.62466043 0 1951.78279454 0 14553
0.11750000 0.11747300 13695.01586579 0 -5.54647319 0 4454.91424066 0 -290.51997563 0 1524.23027596 0 14568
0.11850000 0.11849100 13492.35050166 0 76.98438832 0 5255.07444578 0 852.42699837 0 1390.93248769 0 16015
0.11950000 0.11950300 13374.70572932 0 249.14218917 0 4786.35174916 0 -315.77240954 0 1989.40495563 0 15270
0.12050000 0.12050700 13206.97130600 0 141.17043144 0 4534.46451530 0 544.69529596 0 1108.05777457 0 15999
0.12150000 0.12150000 13279.35963931 0 91.89825236 0 4333.88621996 0 -196.57112326 0 1434.26662652 0 15670
0.12250000 0.12250700 12912.58476082 0 9.84964654 0 4101.01328124 0 241.07621753 0 1270.09120472 0 16887
0.12350000 0.12352200 12812.18576743 0 -172.06124646 0 3949.01975043 0 457.57335545 0 1324.87126818 0 16407
0.12450000 0.12449800 12962.89410324 0 305.77205466 0 3943.93389332 0 -137.75862320 0 770.89620530 0 16306
0.12550000 0.12549900 12602.49027685 0 156.35220921 0 3962.93720389 0 -356.11435080 0 1114.04436663 0 17523
0.12650000 0.12650100 12619.73605580 0 107.95780732 0 4191.65797418 0 -6.98441965 0 689.79381056 0 17154
0.12750000 0.12750600 12477.37599515 0 55.10191144 0 4105.28627997 0 135.18383939 0 721.75342449 0 18007
0.12850000 0.12850300 12669.93555250 0 18.69134870 0 3811.91031547 0 196.38109015 0 539.72697378 0 17496
0.12950000 0.12949900 12678.61336484 0 -171.40766439 0 4048.11157968 0 474.86087578 0 714.66068597 0 18405
0.13050000 0.13049000 12866.66924743 0 -37.12390088 0 3478.26490788 0 -91.01674041 0 626.51608175 0 18100
0.13150000 0.13148800 12711.01785395 0 121.23892449 0 4022.95690847 0 -199.32934943 0 349.89268889 0 19059
0.13250000 0.13249300 12706.62402492 0 368.75869230 0 4246.63575995 0 -678.60053110 0 -183.96522776 0 18957
0.13350000 0.13349100 12335.67500885 0 138.68791804 0 4210.04614868 0 -251.85757552 0 -24.92553303 0 19468
0.13450000 0.13450700 12338.86053490 0 -139.35358314 0 4088.79843653 0 532.62984144 0 -701.69010267 0 19953
0.13550000 0.13551000 12342.37559812 0 121.59372619 0 4011.47803013 0 400.51619009 0 -472.33552254 0 19956
0.13650000 0.13649900 12273.50232804 0 149.65930913 0 3670.17637545 0 78.78201363 0 -465.51849680 0 19723
0.13750000 0.13749600 11993.61541867 0 214.13984864 0 3851.47674591 0 -32.17622970 0 -271.99888780 0 20946
0.13850000 0.13851100 11636.17742687 0 175.13912369 0 3603.22540557 0 -28.65721202 0 -609.11651878 0 20955
0.13950000 0.13949800 11537.64581081 0 139.96981766 0 3965.69433161 0 130.92182523 0 227.97162244 0 20506
0.14050000 0.14048300 11231.72546442 0 218.13493769 0 3729.11959192 0 -4.19711731 0 -108.67268331 0 21447
0.14150000 0.14148400 10998.74267997 0 84.70072103 0 3874.92880837 0 238.75188197 0 323.37153685 0 21771
0.14250000 0.14249400 11112.98223482 0 161.00088032 0 3657.71987014 0 23.55180238 0 -486.16619788 0 22470
0.14350000 0.14350900 10864.17068128 0 34.07436384 0 3779.01152059 0 230.20258913 0 549.42854829 0 22519
0.14450000 0.14449900 10761.32212820 0 -45.34036117 0 3581.21232211 0 230.14656781 0 417.03698725 0 22218
0.14550000 0.14550500 10660.22012216 0 40.67125875 0 3001.69922644 0 559.02906472 0 484.06924297 0 23559
0.14650000 0.14650700 10847.97942129 0 101.22690063 0 3361.08148758 0 316.72916581 0 985.79948174 0 23044
0.14750000 0.14750500 10555.63600661 0 110.15219539 0 2575.01448909 0 -3.00568663 0 627.89025178 0 23649
0.14850000 0.14849900 10588.15034146 0 123.52701096 0 2974.57831674 0 -227.77829396 0 839.95841003 0 23640
0.14950000 0.14949500 10171.79110233 0 89.87006088 0 2825.88015770 0 230.84518663 0 685.74929094 0 24457
0.15050000 0.15050000 10188.53159095 0 194.75647187 0 2970.27236429 0 114.43288332 0 695.40912407 0 24591
0.15150000 0.15149900 10134.66324701 0 61.94387216 0 2704.92902901 0 20.12604373 0 311.51149383 0 25020
0.15250000 0.15250500 9924.52837353 0 151.71012884 0 2897.81812354 0 -65.17564326 0 833.88503985 0 25297
0.15350000 0.15350100 9771.48032375 0 206.24303942 0 2905.66110836 0 -31.63721672 0 811.42378584 0 25452
0.15450000 0.15450400 9483.17923178 0 47.40853650 0 3217.38130908 0 -130.89326534 0 766.67044023 0 26061
0.15550000 0.15549900 9523.74525832 0 68.11072106 0 3216.49155870 0 -67.71483706 0 279.58812900 0 26128
0.15650000 0.15649500 9481.97092880 0 30.82468789 0 2912.72418853 0 323.90538708 0 589.27618378 0 26331
0.15750000 0.15749700 9547.04353677 0 68.24550176 0 3219.58920816 0 86.32643777 0 734.96566839 0 27345
0.15850000 0.15849900 9300.31905202 0 17.90869791 0 2621.55612312 0 -6.59317114 0 610.33141251 0 26980
0.15950000 0.15949700 9479.67515313 0 -6.29116130 0 3051.76690827 0 3.20987885 0 348.70965042 0 27777
0.16050000 0.16050000 9225.34934415 0 183.84439746 0 2715.68292557 0 0.59552750 0 160.30335997 0 28224
0.16150000 0.16150500 9154.81740361 0 29.24203067 0 2976.64341638 0 142.33589459 0 412.16423085 0 28075
0.16250000 0.16249700 9013.46792363 0 211.76937788 0 2940.17463541 0 -128.60188350 0 274.28038353 0 28590
0.16350000 0.16349900 8950.60321475 0 106.55386910 0 2644.44797238 0 111.83613037 0 -18.39432586 0 29163
0.16450000 0.16449100 8979.21802632 0 -39.45197119 0 2712.07998576 0 391.03979932 0 348.84805604 0 28996
0.16550000 0.16550500 8868.17498210 0 12.29437302 0 2601.48730901 0 8.18895492 0 234.00984199 0 30777
0.16650000 0.16650700 8611.10302997 0 37.21034947 0 2232.80111489 0 78.17379784 0 593.39649696 0 29211
0.16750000 0.16749900 8769.98388779 0 24.92816932 0 2487.74205993 0 189.39819736 0 309.89786012 0 30922
0.16850000 0.16850800 8671.63900947 0 208.42787090 0 2481.44789984 0 -194.79711479 0 225.33862039 0 30867
0.16950000 0.16949900 8440.77624753 0 286.09099597 0 2447.57147800 0 -108.05941462 0 426.55292248 0 30852
0.17050000 0.17049200 8365.13648073 0 -64.02215330 0 2597.23627942 0 246.64539583 0 637.75439796 0 31257
0.17150000 0.17149500 8290.07889628 0 22.82879781 0 2502.24169574 0 222.87478076 0 507.78493518 0 32608
0.17250000 0.17250900 8314.87107660 0 43.43937104 0 2247.32271984 0 279.00704511 0 605.13570968 0 32361
0.17350000 0.17350400 8210.59452909 0 33.77745084 0 2226.63876967 0 146.99994411 0 706.32778921 0 32508
0.17450000 0.17449800 8065.33454127 0 75.83891710 0 1988.02089949 0 55.08257859 0 828.30597544 0 32791
0.17550000 0.17549800 8060.42443733 0 135.65068372 0 2152.55881219 0 -279.23552422 0 741.77720185 0 33633
0.17650000 0.17650100 7789.90736837 0 187.50116168 0 2030.39938051 0 -12.05952285 0 531.99273623 0 33984
0.17750000 0.17750300 7852.98078413 0 176.53745978 0 2281.81427775 0 -113.66506170 0 242.42731996 0 34069
0.17850000 0.17849800 7674.87692429 0 -19.15566659 0 2158.19389792 0 -15.44079399 0 326.29123624 0 34536
