### header ###
fiducial parameters:
Omega_m = 0.31
Omega_nu = 0
Omega_de = 0.69
Omega_k = 0
H_0 = 100
w_de = -1
zeff = 0
beta = 0
fgrowth = 0
b_1 = 2
gamma = 0.55
Lx = 3500 Ly = 3500 Lz = 3500
nx = 700 ny = 700 nz = 700
xoffset = -983.599254 yoffset = -42.9823471 zoffset = 800.977702
bins = 400 dk = 0.001
kx_ny = 0.628318531 ky_ny = 0.628318531 kz_ny = 0.628318531
############################
A(data) = 9.07181311 (not used)
A(ran) = 9.08495742 (used)
Ngal = 504743
weighted Ngal = 0
Nran = 25229228
weighted Nran = 0
SN(data) = 6717.30587
SN(ran) = 134.859934
SN(data+ran) = 6852.16581
############################
13 columns: k_central k_mean P_0(k) sigma^{lin}_{P_0(k)} P^img_1(k) sigma^{lin}_{P_1(k)} P_2(k) sigma^{lin}_{P_2(k)} P^img_3(k) sigma^{lin}_{P_3(k)} P_4(k) sigma^{lin}_{P_4(k)} N_modes
### header ###
0.00050000 0 0 0 0 0 0 0 0 0 0 0 0
0.00150000 0.00179520 8133.27412269 0 5740.92209105 0 17237.10114037 0 2031.06943944 0 -19370.63467284 0 3
0.00250000 0.00253879 16487.73359887 0 3394.93594028 0 5242.42021816 0 7944.67999604 0 4152.97030955 0 6
0.00350000 0.00331552 29975.90996295 0 -8996.41986698 0 -14323.33341744 0 24257.56116856 0 2730.50111398 0 7
0.00450000 0.00420575 36418.36178191 0 -11190.64316297 0 10013.86590233 0 -20726.24077511 0 12037.88324617 0 24
0.00550000 0.00557378 33050.82136565 0 -129.29830540 0 3992.24404354 0 -167.54329175 0 6258.87764198 0 45
0.00650000 0.00659388 39992.52200843 0 -11323.77618266 0 -9463.34109370 0 -9294.59608970 0 6651.40035860 0 40
0.00750000 0.00754703 48939.67606738 0 1052.30997026 0 -1422.18359668 0 13640.86192296 0 -22664.35876136 0 57
0.00850000 0.00846663 51457.99917738 0 4182.87031611 0 15123.01030136 0 -24454.62440067 0 3503.50745567 0 75
0.00950000 0.00948925 48047.06969942 0 601.97434969 0 19865.70935909 0 19010.23084645 0 -9350.63937901 0 112
0.01050000 0.01054430 64719.56380911 0 -9283.56757883 0 6433.16985513 0 -3282.50883991 0 -1439.24263790 0 105
0.01150000 0.01145670 65143.89784793 0 -8134.64719426 0 6234.19530739 0 15531.63640139 0 20194.69730790 0 144
0.01250000 0.01249090 67149.24141838 0 -1598.66173977 0 -3638.66163672 0 17459.97811805 0 17591.24376039 0 169
0.01350000 0.01339930 86703.09876188 0 -10599.77201925 0 -18733.96884603 0 9793.24076203 0 16238.93302990 0 180
0.01450000 0.01448870 87083.38466465 0 -7930.22429852 0 -19386.01307446 0 8363.09335023 0 15170.35380919 0 267
0.01550000 0.01550050 89122.89025582 0 18.79482338 0 -23554.76821480 0 -4362.24838637 0 17895.51642090 0 238
0.01650000 0.01653350 82774.24668671 0 11887.28475608 0 -10337.72405575 0 -29118.78376443 0 190.16272361 0 315
0.01750000 0.01747870 71133.78527654 0 13971.82709484 0 6997.55719436 0 -21408.38273241 0 25949.62472899 0 297
0.01850000 0.01844180 65913.69669443 0 3815.32651754 0 29458.97597728 0 -13152.15828882 0 -9854.46876960 0 388
0.01950000 0.01947590 61416.06345100 0 1143.43908285 0 29285.41973049 0 13668.10366297 0 13676.67162958 0 399
0.02050000 0.02045430 64347.07695288 0 -6189.00477579 0 27018.31379543 0 13851.43617935 0 -5503.00723351 0 462
0.02150000 0.02154770 69263.66179456 0 196.94789410 0 21733.52608082 0 14618.15934553 0 13102.17848357 0 571
0.02250000 0.02255340 71162.12547380 0 353.03317819 0 15856.99944125 0 5863.11447645 0 31383.58293925 0 510
0.02350000 0.02348930 77891.27463713 0 -4485.52824445 0 12922.69056760 0 4434.82345741 0 18169.47166107 0 555
0.02450000 0.02439640 73835.88028582 0 -1384.38568243 0 12337.98176909 0 -3109.29311488 0 15644.11842462 0 592
0.02550000 0.02547300 69748.19129113 0 7562.32899363 0 22467.40537498 0 -4085.70078706 0 13675.57317232 0 837
0.02650000 0.02652900 62189.81674363 0 5627.86887004 0 26309.69901820 0 -9694.40157795 0 17516.87820402 0 723
0.02750000 0.02749970 59099.41709359 0 2751.52558590 0 37217.48943720 0 1680.52975922 0 1840.60793545 0 826
0.02850000 0.02848090 56758.60467651 0 2814.79672397 0 32262.78812866 0 2106.33573076 0 4289.79414562 0 831
0.02950000 0.02946900 52267.78186808 0 -1278.16486557 0 26556.41251838 0 6033.73784235 0 4477.42162988 0 996
0.03050000 0.03053250 57431.40974712 0 -4732.03303774 0 23067.38272937 0 9991.98463375 0 4229.63164159 0 1041
0.03150000 0.03150510 61298.08914148 0 -2598.88396531 0 9977.26530649 0 9317.26824751 0 4064.35776253 0 1036
0.03250000 0.03246190 63054.85183441 0 1788.01380193 0 12656.97375685 0 -1509.96131618 0 -1818.22137653 0 1059
0.03350000 0.03345080 59413.24633224 0 2931.28811619 0 9488.85825580 0 -6874.74967290 0 -162.05979312 0 1302
0.03450000 0.03451200 58042.81105700 0 1793.97842484 0 17814.56012097 0 -5977.44190787 0 -3955.52261740 0 1339
0.03550000 0.03553350 53496.18661985 0 1452.98433820 0 20586.95639478 0 -3637.28856514 0 -10855.93225184 0 1365
0.03650000 0.03647120 51394.72803931 0 4626.49326438 0 28159.39119518 0 -1306.10961821 0 -9678.50690142 0 1308
0.03750000 0.03744890 47791.01931255 0 2162.17031319 0 26365.61049264 0 -2885.15291135 0 -7785.82110737 0 1579
0.03850000 0.03847530 47098.22231985 0 -129.97056124 0 28059.21189323 0 3873.81936654 0 -11260.28535313 0 1662
0.03950000 0.03950240 47328.56880688 0 1969.41303354 0 27992.75522912 0 2441.33224078 0 -9536.31160936 0 1683
0.04050000 0.04050350 45929.57364292 0 821.03638531 0 24480.43814623 0 733.37400382 0 -6824.68199107 0 1822
0.04150000 0.04152450 44555.29376727 0 -848.17926415 0 23055.51939098 0 4454.59568806 0 -6179.11866047 0 1887
0.04250000 0.04250150 43325.35117533 0 407.21348399 0 20572.34691324 0 4757.76989130 0 -638.27726361 0 1920
0.04350000 0.04349210 43923.68084384 0 758.89665821 0 15438.37738017 0 3558.74887119 0 -3664.84885775 0 2005
0.04450000 0.04448520 42667.04574053 0 -19.01078008 0 15892.25991924 0 -641.52869710 0 -3474.12372402 0 2151
0.04550000 0.04548030 40722.11731928 0 1636.07519398 0 14885.30415070 0 1358.67079801 0 -2378.25882501 0 2274
0.04650000 0.04648670 40274.93536949 0 1711.04490185 0 16939.74876059 0 -3208.45085157 0 -1267.00453982 0 2311
0.04750000 0.04749250 37300.42296019 0 1095.08609281 0 14829.83205917 0 1738.86882420 0 -1539.37800155 0 2568
0.04850000 0.04851840 37516.15996569 0 -344.18840035 0 17447.78524248 0 191.03489868 0 -5835.91667473 0 2493
0.04950000 0.04949480 36904.20942718 0 443.43730899 0 16511.24058419 0 248.78519057 0 -2508.55782497 0 2644
0.05050000 0.05050630 36834.89677420 0 775.93153337 0 16197.19165409 0 1936.85476041 0 -3749.92437239 0 2829
0.05150000 0.05149060 35669.21393186 0 190.19897270 0 17062.55628205 0 -876.56779353 0 -4169.77670560 0 2784
0.05250000 0.05249300 36361.68138739 0 196.73808876 0 14801.38201618 0 675.58416747 0 -3738.32466375 0 3055
0.05350000 0.05348950 36366.95398223 0 -747.66053892 0 12761.43704210 0 4276.87628826 0 -1409.29869304 0 3009
0.05450000 0.05448610 36390.90035046 0 -758.85491684 0 13561.11392602 0 2594.78671974 0 -513.17286803 0 3336
0.05550000 0.05550870 35594.18930113 0 1965.71123258 0 12220.33699674 0 -1954.37515367 0 -1546.95735663 0 3349
0.05650000 0.05647670 33932.99238966 0 1878.65849487 0 13648.55112377 0 -1204.99662760 0 509.32387379 0 3324
0.05750000 0.05747970 32847.93631007 0 800.80829490 0 14419.66811898 0 508.27814248 0 -575.69705516 0 3639
0.05850000 0.05849280 32431.07178061 0 -719.61253129 0 13209.60760342 0 2881.82458586 0 3141.99418745 0 3846
0.05950000 0.05951020 33553.69509842 0 -1428.71941736 0 9910.28138289 0 4042.24581793 0 -312.52207451 0 3787
0.06050000 0.06049470 32710.40946135 0 -232.82021278 0 9012.62211154 0 -548.61678837 0 3047.25224894 0 3930
0.06150000 0.06148310 33758.22783989 0 1216.53042881 0 7994.23140295 0 2146.35252868 0 1863.57667672 0 4083
0.06250000 0.06249100 33707.03973166 0 -373.39198501 0 8371.97986945 0 -218.57761597 0 1983.06685726 0 4303
0.06350000 0.06350600 32914.28312846 0 222.12453445 0 7045.76848342 0 -307.45928501 0 677.47131704 0 4470
0.06450000 0.06451750 32817.61888975 0 1556.37113533 0 10799.47154878 0 -2135.35697152 0 -495.17684277 0 4479
0.06550000 0.06550280 30293.36411055 0 988.40062853 0 9802.19318869 0 -1477.77651851 0 488.58170539 0 4636
0.06650000 0.06648880 29993.26558763 0 820.46079370 0 13120.85225696 0 -1157.03798371 0 -2160.09422898 0 4653
0.06750000 0.06749660 28535.61280609 0 902.23983811 0 13011.88529696 0 -1309.80043460 0 -1617.23665201 0 5220
0.06850000 0.06852730 28530.45005697 0 729.16142024 0 13950.73671548 0 1550.49438900 0 -2586.81192004 0 5029
0.06950000 0.06949320 27434.40940481 0 -926.60362010 0 11934.40857245 0 2490.34540363 0 -1292.98305398 0 5040
0.07050000 0.07048030 29125.26466225 0 -287.45418142 0 11439.99296057 0 1317.43471254 0 -2571.57631787 0 5475
0.07150000 0.07148790 27762.84812499 0 603.56491580 0 10705.79511380 0 -931.22263287 0 -639.15493096 0 5509
0.07250000 0.07249820 27933.98776581 0 882.79604619 0 9884.31385331 0 657.97919299 0 374.46298084 0 5916
0.07350000 0.07351270 27333.46118279 0 -162.38713338 0 10594.67517757 0 486.60118695 0 -984.56920961 0 5721
0.07450000 0.07449140 26843.32955421 0 443.67128039 0 10568.43303367 0 785.51886832 0 -1519.57281719 0 6028
0.07550000 0.07549160 25667.65075082 0 887.66440876 0 11049.38155957 0 -176.13432597 0 248.17774370 0 6183
0.07650000 0.07648840 26394.17038135 0 23.86145748 0 10202.13049180 0 -245.90174026 0 -1474.82166849 0 6330
0.07750000 0.07749960 25492.88620106 0 -74.04964007 0 10455.94002587 0 651.27420989 0 -1515.29981845 0 6583
0.07850000 0.07848650 25121.93718498 0 538.63840264 0 9417.57936432 0 -28.10567664 0 -2286.84521199 0 6549
0.07950000 0.07947320 24485.49104962 0 391.99875251 0 9896.47377515 0 137.49169809 0 -1374.63138197 0 6828
0.08050000 0.08048110 24154.41603202 0 399.87139568 0 8481.95741014 0 1507.42387991 0 -1666.81002807 0 7147
0.08150000 0.08149960 23486.22448190 0 56.25089773 0 7937.72676159 0 1335.15282812 0 10.99687530 0 7386
0.08250000 0.08250610 23785.66393046 0 233.50015782 0 7225.13556910 0 1374.57645911 0 -1487.33309666 0 7227
0.08350000 0.08350160 22471.03028393 0 556.40814571 0 6572.94854122 0 2.62103985 0 346.42485933 0 7798
0.08450000 0.08449610 22168.51515504 0 626.69622874 0 6986.52868348 0 452.65007002 0 1730.31184216 0 7371
0.08550000 0.08548940 21690.46655630 0 26.09879522 0 6238.85276616 0 -173.25856487 0 1801.60171821 0 8256
0.08650000 0.08650700 21115.75371884 0 182.52954413 0 6597.29035406 0 2024.72035648 0 537.39055520 0 8037
0.08750000 0.08749060 22098.65327342 0 -86.77438864 0 6765.61794430 0 -768.27528628 0 2608.22085200 0 8155
0.08850000 0.08849210 20530.60553743 0 368.54778851 0 6939.65751228 0 -880.60352550 0 2268.56688322 0 8718
0.08950000 0.08949900 20511.49238114 0 745.45154137 0 7770.59648977 0 -14.67637758 0 1904.76882390 0 8571
0.09050000 0.09049190 20235.55991790 0 297.63907712 0 7876.64155347 0 -695.94187584 0 1257.72257599 0 8932
0.09150000 0.09150830 19862.41398731 0 126.08312100 0 8858.56348109 0 626.36449465 0 835.82052154 0 9285
0.09250000 0.09250820 19608.56051496 0 462.52520077 0 8149.79491985 0 848.10347060 0 1941.43532717 0 9204
0.09350000 0.09350330 19326.80622824 0 -65.77485170 0 7770.17907601 0 -97.60517720 0 1175.16252847 0 9349
0.09450000 0.09448040 19136.77312259 0 41.43029271 0 7565.13005963 0 920.83671949 0 1676.33365249 0 9564
0.09550000 0.09549270 19053.61990815 0 201.65698036 0 6745.74685250 0 -69.92295584 0 749.22364360 0 10155
0.09650000 0.09649430 18433.21124875 0 436.38631185 0 7307.34411030 0 -649.67815149 0 1469.18658275 0 9913
0.09750000 0.09749140 18211.32288261 0 585.54362602 0 7367.15510800 0 435.16812275 0 -352.90356024 0 10476
0.09850000 0.09850240 18066.32652454 0 -190.17370819 0 7114.16941688 0 7.06676000 0 -29.73974165 0 10575
0.09950000 0.09950330 17633.09498193 0 -24.62763142 0 6180.11825657 0 708.23251410 0 -160.85149014 0 10882
0.10050000 0.10051200 17553.01744781 0 334.99980538 0 6364.46135363 0 89.01535129 0 -396.80560147 0 10875
0.10150000 0.10150300 17137.47106706 0 122.78774923 0 5569.94721882 0 248.71598776 0 111.11005012 0 11118
0.10250000 0.10250800 16999.94421834 0 444.33914240 0 5868.36510214 0 1181.42373484 0 -884.36244624 0 11575
0.10350000 0.10349800 16381.84231919 0 319.42368146 0 5465.25325755 0 -596.95440002 0 1070.10717476 0 11364
0.10450000 0.10450100 15997.60197029 0 151.66289517 0 5371.76356031 0 712.77683177 0 516.75823252 0 12093
0.10550000 0.10551000 15944.65633045 0 -75.10031444 0 5394.75427072 0 644.43851037 0 602.31377298 0 12067
0.10650000 0.10649700 15626.54310849 0 19.56297454 0 4728.25434478 0 804.31566892 0 1234.60005071 0 12054
0.10750000 0.10749900 15915.76690456 0 46.35280922 0 4282.39054370 0 49.86512631 0 1863.78538359 0 12807
0.10850000 0.10850100 15830.74631278 0 486.61766381 0 4834.51909993 0 -309.70343319 0 965.27590633 0 12736
0.10950000 0.10950300 15572.05962849 0 302.74250954 0 4815.41692821 0 -490.50620250 0 1482.77449904 0 12933
0.11050000 0.11050200 14817.74902933 0 40.33491114 0 5654.02313736 0 70.47822598 0 865.69416514 0 13428
0.11150000 0.11150900 14882.77769901 0 144.15603827 0 5088.42749515 0 -106.65888162 0 1076.15528042 0 13453
0.11250000 0.11250000 14571.47491206 0 45.88508612 0 5457.21255042 0 -235.54218986 0 468.16028650 0 13668
0.11350000 0.11349100 14391.43776745 0 345.85476001 0 5318.62019816 0 304.65382517 0 676.80455348 0 13791
0.11450000 0.11448600 14655.72658375 0 143.38052745 0 5063.49251539 0 564.68062732 0 397.22631060 0 14205
0.11550000 0.11549300 14456.79597431 0 16.77212418 0 4929.83223622 0 133.33184045 0 984.10566065 0 14776
0.11650000 0.11649800 14130.11478574 0 44.19653763 0 4860.16807691 0 -190.83937328 0 9.72007252 0 14553
0.11750000 0.11747300 13971.49755766 0 204.09116165 0 4894.89031084 0 -105.02811197 0 547.36015327 0 14568
0.11850000 0.11849100 13863.84874636 0 168.39679304 0 4793.92011967 0 -16.11261045 0 94.96668287 0 16015
0.11950000 0.11950300 13453.02573182 0 32.15799531 0 5108.90273844 0 176.04974476 0 473.42519214 0 15270
0.12050000 0.12050700 13441.16239343 0 30.92299981 0 5006.97688946 0 439.11158431 0 -370.52501157 0 15999
0.12150000 0.12150000 13733.68156128 0 347.64194997 0 4928.61294866 0 83.54536368 0 315.34950349 0 15670
0.12250000 0.12250700 13276.94303334 0 121.26638593 0 4447.59851532 0 27.52953580 0 513.57490338 0 16887
0.12350000 0.12352200 13304.73400197 0 -26.88748754 0 4312.97159377 0 495.90621839 0 -126.05126574 0 16407
0.12450000 0.12449800 13131.17775519 0 -187.59013672 0 3879.36657569 0 519.47032349 0 363.12690194 0 16306
0.12550000 0.12549900 12944.44002131 0 131.38098036 0 3706.05198950 0 500.07486368 0 686.09969880 0 17523
0.12650000 0.12650100 12997.93488978 0 164.37863639 0 3139.77530379 0 73.92782116 0 912.54336720 0 17154
0.12750000 0.12750600 12825.47710025 0 187.96910447 0 3422.29851058 0 384.15027540 0 448.81865110 0 18007
0.12850000 0.12850300 12623.25111903 0 112.77750824 0 2953.92732028 0 -294.65237184 0 396.60458379 0 17496
0.12950000 0.12949900 12263.72605844 0 154.60456371 0 3110.99572363 0 -17.22622641 0 851.24835373 0 18405
0.13050000 0.13049000 12292.06625570 0 -34.38445832 0 3220.88538773 0 47.76388742 0 901.78837218 0 18100
0.13150000 0.13148800 12089.18120012 0 82.07551802 0 2792.23441189 0 581.13332013 0 804.04215307 0 19059
0.13250000 0.13249300 12373.46193853 0 32.57606814 0 2367.57083589 0 658.58114757 0 523.37863441 0 18957
0.13350000 0.13349100 12082.26091940 0 41.91734866 0 2101.19495079 0 35.13821969 0 742.81963778 0 19468
0.13450000 0.13450700 11839.17232817 0 342.66593859 0 2287.65807036 0 -231.47570109 0 809.36967077 0 19953
0.13550000 0.13551000 11376.06274814 0 403.98511811 0 2625.07118634 0 -470.17925094 0 1056.68183015 0 19956
0.13650000 0.13649900 11167.46571482 0 127.82747113 0 2778.22908185 0 -6.43850836 0 547.50844500 0 19723
0.13750000 0.13749600 11045.53695917 0 -38.12942865 0 3005.06050565 0 257.06865675 0 568.00126361 0 20946
0.13850000 0.13851100 11001.92820602 0 -120.78086782 0 2278.34315281 0 182.29117890 0 240.56982873 0 20955
0.13950000 0.13949800 11132.97415692 0 165.46391216 0 2424.77848990 0 320.63088599 0 444.34463469 0 20506
0.14050000 0.14048300 11084.64203756 0 29.61330922 0 2479.91005968 0 -575.19396173 0 480.95841202 0 21447
0.14150000 0.14148400 11069.70301885 0 68.69828584 0 2610.93404143 0 -129.35872055 0 112.18324286 0 21771
0.14250000 0.14249400 10920.31283174 0 213.17760009 0 3108.39237992 0 -406.18862337 0 -463.59399968 0 22470
0.14350000 0.14350900 10644.54513709 0 328.19266576 0 3042.66069760 0 -26.78027811 0 269.30437215 0 22519
0.14450000 0.14449900 10623.91610978 0 -93.47959143 0 3018.07722416 0 431.93316613 0 352.53118322 0 22218
0.14550000 0.14550500 10829.10792560 0 -247.84271424 0 2891.11753426 0 645.65560102 0 62.95763837 0 23559
0.14650000 0.14650700 10725.00713125 0 92.34147987 0 2465.58617704 0 186.33679698 0 237.18877729 0 23044
0.14750000 0.14750500 10511.57688599 0 155.37348379 0 2150.95506459 0 12.90445618 0 902.48040025 0 23649
0.14850000 0.14849900 10410.96918572 0 45.94352405 0 2589.34935631 0 126.29512325 0 831.35089896 0 23640
0.14950000 0.14949500 10437.92532683 0 299.49656834 0 2616.79980319 0 -402.94817446 0 138.57258003 0 24457
0.15050000 0.15050000 10020.00627840 0 415.13665619 0 2822.04654187 0 -620.79092252 0 484.64483458 0 24591
0.15150000 0.15149900 9875.94360900 0 10.00792325 0 3042.10048439 0 232.07655721 0 294.36567449 0 25020
0.15250000 0.15250500 9882.69912114 0 -144.50315076 0 3265.47176784 0 212.27686513 0 44.59868283 0 25297
0.15350000 0.15350100 9821.81163532 0 154.39695529 0 2749.60328570 0 128.30530004 0 -100.48730936 0 25452
0.15450000 0.15450400 9600.53840524 0 124.26737116 0 3199.77303923 0 -275.36456084 0 -183.85648049 0 26061
0.15550000 0.15549900 9427.13594247 0 369.37932065 0 3288.45149368 0 -361.85269152 0 -189.70906077 0 26128
0.15650000 0.15649500 9102.72856043 0 183.90261570 0 3240.47088064 0 159.20819808 0 -175.09298849 0 26331
0.15750000 0.15749700 9112.95519750 0 -26.76577847 0 3298.43647015 0 269.16376962 0 53.26111677 0 27345
0.15850000 0.15849900 8830.46494442 0 84.32296157 0 3011.45352689 0 125.22302897 0 -305.06135281 0 26980
0.15950000 0.15949700 8904.70967050 0 16.17324529 0 2604.72775792 0 439.39608474 0 -59.72751495 0 27777
0.16050000 0.16050000 8859.58504634 0 -31.75716825 0 2461.98323723 0 304.33856794 0 19.25529666 0 28224
0.16150000 0.16150500 8885.01433186 0 2.46009389 0 2236.00861009 0 298.80563873 0 70.60531749 0 28075
0.16250000 0.16249700 8731.13145457 0 175.75425976 0 2232.91096062 0 -116.23874706 0 169.37661692 0 28590
0.16350000 0.16349900 8482.21005531 0 110.09287870 0 2041.46084510 0 -313.94897049 0 -212.29883428 0 29163
0.16450000 0.16449100 8697.09026414 0 -62.70850826 0 2219.14729117 0 310.00221356 0 25.63964009 0 28996
0.16550000 0.16550500 8511.19834235 0 109.03121976 0 2267.47941053 0 -53.62086152 0 -166.87762666 0 30777
0.16650000 0.16650700 8437.16232315 0 231.90080405 0 2332.26641962 0 -295.96502826 0 56.24221992 0 29211
0.16750000 0.16749900 8371.67230142 0 70.24128875 0 2399.72267984 0 13.93810446 0 -234.48767089 0 30922
0.16850000 0.16850800 8312.37757863 0 47.81935951 0 2633.69407582 0 187.78456365 0 90.16444743 0 30867
0.16950000 0.16949900 8240.05515275 0 -35.57397769 0 2321.11707845 0 177.03615938 0 -2.01828340 0 30852
0.17050000 0.17049200 8165.56876608 0 22.28583039 0 2427.16214215 0 328.40686492 0 487.41843915 0 31257
0.17150000 0.17149500 8221.21661077 0 20.22435565 0 2220.63020847 0 77.74506998 0 523.10072473 0 32608
0.17250000 0.17250900 8075.94563838 0 85.74919848 0 2106.25883875 0 -81.70390993 0 528.91815436 0 32361
0.17350000 0.17350400 8026.84459895 0 169.93573166 0 2257.21981974 0 139.35687851 0 738.89814537 0 32508
0.17450000 0.17449800 7940.43995102 0 35.63834728 0 2015.32854693 0 36.51821155 0 601.68765234 0 32791
0.17550000 0.17549800 7757.09645007 0 2.17242990 0 2182.14026615 0 148.52240587 0 495.52065989 0 33633
0.17650000 0.17650100 7918.11929954 0 210.08214753 0 2117.45211822 0 44.40908911 0 496.77839345 0 33984
0.17750000 0.17750300 7670.24143466 0 -29.74051057 0 1932.84539141 0 99.95192129 0 786.40752024 0 34069
0.17850000 0.17849800 7643.09855582 0 -107.16054705 0 1714.74670281 0 113.75952902 0 589.96052266 0 34536
