### header ###
fiducial parameters:
Omega_m = 0.31
Omega_nu = 0
Omega_de = 0.69
Omega_k = 0
H_0 = 100
w_de = -1
zeff = 0
beta = 0
fgrowth = 0
b_1 = 2
gamma = 0.55
Lx = 3500 Ly = 3500 Lz = 3500
nx = 700 ny = 700 nz = 700
xoffset = -983.599254 yoffset = -42.9823471 zoffset = 800.977702
bins = 400 dk = 0.001
kx_ny = 0.628318531 ky_ny = 0.628318531 kz_ny = 0.628318531
############################
A(data) = 9.10019513 (not used)
A(ran) = 9.10305671 (used)
Ngal = 505257
weighted Ngal = 0
Nran = 25229228
weighted Nran = 0
SN(data) = 6743.19682
SN(ran) = 135.128605
SN(data+ran) = 6878.32542
############################
13 columns: k_central k_mean P_0(k) sigma^{lin}_{P_0(k)} P^img_1(k) sigma^{lin}_{P_1(k)} P_2(k) sigma^{lin}_{P_2(k)} P^img_3(k) sigma^{lin}_{P_3(k)} P_4(k) sigma^{lin}_{P_4(k)} N_modes
### header ###
0.00050000 0 0 0 0 0 0 0 0 0 0 0 0
0.00150000 0.00179520 25867.67981753 0 -30461.75760823 0 -9675.25546794 0 -30726.81534461 0 -10421.96474287 0 3
0.00250000 0.00253879 36063.99947044 0 -14604.20893835 0 -7699.94371892 0 -48560.15908470 0 29000.69960918 0 6
0.00350000 0.00331552 34550.87459736 0 12986.51093429 0 -8043.26653495 0 -21005.68830158 0 -1921.57521994 0 7
0.00450000 0.00420575 21950.14185212 0 13601.86669030 0 7000.02872319 0 -6879.03365620 0 15061.49669491 0 24
0.00550000 0.00557378 33647.94273117 0 749.33019395 0 20224.35565387 0 9584.27025325 0 -13851.10664217 0 45
0.00650000 0.00659388 36122.65708802 0 -6198.10000189 0 12338.31130627 0 1496.79081365 0 6141.99080514 0 40
0.00750000 0.00754703 47662.06043045 0 -18715.07538119 0 852.06121210 0 6124.77797991 0 -12448.04718636 0 57
0.00850000 0.00846663 65528.13819683 0 -15193.75094879 0 7942.60391182 0 -13582.86337973 0 -32527.84586505 0 75
0.00950000 0.00948925 72153.59299499 0 9128.32261454 0 21435.62447241 0 -30582.91744380 0 -3535.30779330 0 112
0.01050000 0.01054430 78398.21266176 0 -3320.97681309 0 30641.68490711 0 -10095.40438460 0 -17273.78961279 0 105
0.01150000 0.01145670 74735.40693451 0 -7036.64030360 0 40303.93464111 0 9056.46154071 0 2660.76006266 0 144
0.01250000 0.01249090 89409.14821729 0 -1468.87901472 0 31171.25115126 0 18536.46623102 0 -28400.94194624 0 169
0.01350000 0.01339930 88918.46736009 0 4667.93805673 0 50292.20648933 0 -18372.02717947 0 -21134.42749223 0 180
0.01450000 0.01448870 88093.74565068 0 11809.29429075 0 46656.42281063 0 983.81896330 0 -9187.76013678 0 267
0.01550000 0.01550050 82488.42810815 0 -4090.63286015 0 49007.89026311 0 2141.91476135 0 9103.28877363 0 238
0.01650000 0.01653350 77151.57351950 0 507.78273826 0 46758.57933563 0 12939.71665510 0 -12152.01295529 0 315
0.01750000 0.01747870 77649.94357752 0 6517.25675824 0 47833.41976272 0 12377.41638466 0 4730.78079647 0 297
0.01850000 0.01844180 77568.32820324 0 -2967.58114400 0 37423.88955601 0 6300.28948061 0 -7385.93872711 0 388
0.01950000 0.01947590 72819.69747632 0 -1531.76569275 0 27129.69736140 0 9038.40290339 0 12551.63170580 0 399
0.02050000 0.02045430 81378.10751162 0 -2627.32302372 0 22594.71657119 0 11241.50173402 0 -8397.88149160 0 462
0.02150000 0.02154770 81827.70606738 0 581.63201972 0 14223.04426977 0 -1213.42179477 0 -2574.01489299 0 571
0.02250000 0.02255340 76993.61536578 0 7200.91458655 0 25306.80754153 0 -8895.28490723 0 -953.07534156 0 510
0.02350000 0.02348930 69108.77932117 0 5144.30601587 0 30249.31597450 0 -11006.65157223 0 3718.51947938 0 555
0.02450000 0.02439640 68316.02271797 0 2282.97864244 0 34520.66702276 0 3111.02867734 0 -6863.52343972 0 592
0.02550000 0.02547300 61452.75192342 0 4160.63754121 0 36679.57491790 0 3300.65535381 0 -8954.15123169 0 837
0.02650000 0.02652900 59446.85912434 0 4570.99920370 0 43982.88769005 0 355.89136398 0 5654.81402659 0 723
0.02750000 0.02749970 57196.44973960 0 -952.38551040 0 46771.10174838 0 4256.49990613 0 4293.43003914 0 826
0.02850000 0.02848090 63214.23798257 0 -2376.13880251 0 38964.03647764 0 6886.56907299 0 -254.81791783 0 831
0.02950000 0.02946900 61799.64472554 0 -1177.56814987 0 31593.16858410 0 8788.99818293 0 5069.05070911 0 996
0.03050000 0.03053250 63290.91029918 0 -534.28411807 0 26772.36921533 0 4487.23085320 0 6109.99274521 0 1041
0.03150000 0.03150510 61066.64419719 0 2270.70887487 0 26996.01511309 0 1083.29415414 0 6569.65316945 0 1036
0.03250000 0.03246190 60783.68160749 0 608.78478469 0 22832.97195048 0 5373.33435419 0 -1762.24399465 0 1059
0.03350000 0.03345080 56526.39081214 0 2868.44537646 0 24594.67770108 0 537.27961101 0 6977.91677858 0 1302
0.03450000 0.03451200 52793.83304900 0 2010.75896473 0 18983.31864363 0 677.59324580 0 4837.28721222 0 1339
0.03550000 0.03553350 51895.73439475 0 1577.78006729 0 19590.10643302 0 1575.53921449 0 1168.65966150 0 1365
0.03650000 0.03647120 49017.88622416 0 -383.61752363 0 14997.56648249 0 9243.42995062 0 9423.30232664 0 1308
0.03750000 0.03744890 50137.76339883 0 -1717.69056826 0 13661.62276514 0 6638.64726983 0 -179.25833841 0 1579
0.03850000 0.03847530 50634.15623378 0 1439.31952991 0 8876.88574815 0 -2004.17920576 0 3756.82268397 0 1662
0.03950000 0.03950240 46914.56026629 0 1990.21781401 0 7088.16893358 0 593.56016709 0 2263.63481013 0 1683
0.04050000 0.04050350 48091.44737265 0 688.76894994 0 12029.20543383 0 -1915.21515242 0 6245.36661770 0 1822
0.04150000 0.04152450 46148.38632874 0 557.93500130 0 8408.89901790 0 781.37109371 0 3532.66051131 0 1887
0.04250000 0.04250150 45916.94138445 0 167.06765976 0 12821.08327122 0 374.88808380 0 1822.57126727 0 1920
0.04350000 0.04349210 42506.12175222 0 1702.48791981 0 9333.22883147 0 -440.06065138 0 3973.94374562 0 2005
0.04450000 0.04448520 43091.48962508 0 785.79897492 0 14417.69089592 0 -786.31634829 0 1910.82132339 0 2151
0.04550000 0.04548030 40663.13016452 0 701.63737672 0 11642.43863324 0 546.76918327 0 6025.88387296 0 2274
0.04650000 0.04648670 40860.08355090 0 1348.41120722 0 12899.73281090 0 1825.88860819 0 -1147.71208159 0 2311
0.04750000 0.04749250 40994.64456502 0 245.97753381 0 12137.84285666 0 -155.21860132 0 321.14496399 0 2568
0.04850000 0.04851840 39089.15075934 0 70.80567609 0 12702.99911597 0 -2670.16285679 0 -2134.02783824 0 2493
0.04950000 0.04949480 37415.76097230 0 1593.43308322 0 12589.30878975 0 -557.56042737 0 -929.66172511 0 2644
0.05050000 0.05050630 35905.38224236 0 546.61100542 0 11952.64296294 0 737.39216047 0 -2854.36315441 0 2829
0.05150000 0.05149060 37181.67973059 0 294.48211096 0 12455.29700426 0 661.50194542 0 -3852.56421859 0 2784
0.05250000 0.05249300 35474.56730572 0 -388.12339530 0 11534.67997622 0 3721.99060432 0 -1813.23438057 0 3055
0.05350000 0.05348950 36903.22081565 0 -57.27762573 0 11400.88788218 0 1538.70794262 0 -458.69817568 0 3009
0.05450000 0.05448610 36156.81910875 0 1216.89291971 0 10301.81548798 0 -2058.95926922 0 -1571.88135182 0 3336
0.05550000 0.05550870 34975.31848190 0 1903.99990381 0 15317.87661896 0 -3186.20709209 0 -837.89990113 0 3349
0.05650000 0.05647670 32049.24803768 0 1186.47663823 0 17343.32195723 0 -1816.45286034 0 -51.47733203 0 3324
0.05750000 0.05747970 32874.84851290 0 -485.68177823 0 17432.73637804 0 1580.52621044 0 3291.73588088 0 3639
0.05850000 0.05849280 32777.19566265 0 -519.61092602 0 16175.88158329 0 4304.86497920 0 2107.55501832 0 3846
0.05950000 0.05951020 32704.58763788 0 770.01743949 0 14598.05757770 0 1828.28324501 0 3423.29810669 0 3787
0.06050000 0.06049470 33197.57525534 0 46.84162270 0 16338.89264039 0 1317.18206737 0 3551.80662131 0 3930
0.06150000 0.06148310 33422.42945608 0 -68.43377734 0 13168.08591906 0 1512.22413813 0 5840.15671975 0 4083
0.06250000 0.06249100 32784.88486345 0 -576.15840721 0 12108.95343077 0 1377.14684910 0 6232.39383748 0 4303
0.06350000 0.06350600 32620.77534909 0 -154.04764588 0 10054.56374374 0 1901.26474524 0 5174.96395794 0 4470
0.06450000 0.06451750 33662.66205843 0 964.03684654 0 11586.41731308 0 -370.12737004 0 3000.51289260 0 4479
0.06550000 0.06550280 31137.74820488 0 1647.68588720 0 10887.71062032 0 -3399.51650705 0 2512.33651794 0 4636
0.06650000 0.06648880 29424.70411082 0 472.03564371 0 12691.35546903 0 -492.07370101 0 1982.92405781 0 4653
0.06750000 0.06749660 29726.88970253 0 416.35045147 0 12963.66302332 0 382.44656819 0 -97.46622236 0 5220
0.06850000 0.06852730 28981.36676144 0 391.58133875 0 11872.78512027 0 1364.00930029 0 -2050.29244145 0 5029
0.06950000 0.06949320 28664.68153392 0 -578.97595007 0 11722.29647591 0 2798.17706565 0 951.67151319 0 5040
0.07050000 0.07048030 28929.62942458 0 200.60136294 0 10872.29926499 0 314.38176265 0 681.98487791 0 5475
0.07150000 0.07148790 28368.31776567 0 480.20157497 0 9873.99933965 0 -448.37157900 0 -19.82352860 0 5509
0.07250000 0.07249820 27601.04537087 0 413.29783874 0 9750.54372841 0 1583.84355136 0 1037.57636306 0 5916
0.07350000 0.07351270 27650.69563893 0 860.52152991 0 9648.72772515 0 -1315.83096495 0 1688.50455891 0 5721
0.07450000 0.07449140 26750.72960735 0 -46.71672811 0 9245.15452851 0 1066.62836062 0 1135.24459171 0 6028
0.07550000 0.07549160 27440.67061118 0 39.46910712 0 8924.81143833 0 182.16485632 0 -1017.06157531 0 6183
0.07650000 0.07648840 25677.31717470 0 323.38142297 0 8125.74969047 0 1056.33032383 0 180.77750480 0 6330
0.07750000 0.07749960 26692.95075557 0 399.81427590 0 8082.11896817 0 557.98223496 0 -178.32904357 0 6583
0.07850000 0.07848650 26101.54136779 0 213.85095439 0 8297.70218966 0 -671.13761249 0 -539.16016984 0 6549
0.07950000 0.07947320 25060.42357853 0 284.05885004 0 7237.46025953 0 -868.15361094 0 -3760.61236151 0 6828
0.08050000 0.08048110 24485.60089535 0 397.97875382 0 7437.32455765 0 194.12046511 0 -2704.14912436 0 7147
0.08150000 0.08149960 23607.93354610 0 972.05009224 0 8475.42158945 0 -541.93816824 0 -1877.58200676 0 7386
0.08250000 0.08250610 23018.50138138 0 904.42906343 0 8825.49991762 0 81.94029794 0 -2101.51350340 0 7227
0.08350000 0.08350160 22621.73861974 0 398.48404416 0 9120.19403083 0 574.25148541 0 -2424.66864417 0 7798
0.08450000 0.08449610 21226.47821046 0 207.75012277 0 8603.98502694 0 60.39109298 0 -1398.94024110 0 7371
0.08550000 0.08548940 21489.77841524 0 412.31471950 0 8989.44466339 0 1088.17459974 0 159.43667719 0 8256
0.08650000 0.08650700 20681.31387325 0 -179.45496226 0 8355.95337806 0 277.69548714 0 -636.77237717 0 8037
0.08750000 0.08749060 20877.16880238 0 188.51503773 0 8406.62521137 0 1014.38243805 0 328.97147195 0 8155
0.08850000 0.08849210 20902.10378213 0 173.12015925 0 7905.37719534 0 -176.45617395 0 -227.90022272 0 8718
0.08950000 0.08949900 20474.91375445 0 229.77968309 0 8650.84521357 0 -402.90313771 0 79.62398112 0 8571
0.09050000 0.09049190 19557.37240673 0 986.70241361 0 8713.67696874 0 -578.23229451 0 340.63489112 0 8932
0.09150000 0.09150830 19388.97890905 0 89.33719927 0 8299.78925845 0 870.09348645 0 -4.83719934 0 9285
0.09250000 0.09250820 19217.39988533 0 -322.26099656 0 8499.21417366 0 1202.78872851 0 -411.33489562 0 9204
0.09350000 0.09350330 19433.02704511 0 228.85588053 0 7366.67178681 0 289.82575064 0 517.84900057 0 9349
0.09450000 0.09448040 19116.34181759 0 -195.61217007 0 6413.82602281 0 949.72175155 0 344.39271340 0 9564
0.09550000 0.09549270 19142.04571743 0 141.34618460 0 6379.47726435 0 272.19880702 0 -172.82357579 0 10155
0.09650000 0.09649430 18632.58124110 0 789.36346873 0 6104.45652063 0 -692.12693378 0 67.75020738 0 9913
0.09750000 0.09749140 17947.91283211 0 198.93720019 0 6180.93111494 0 -315.99979019 0 10.52473640 0 10476
0.09850000 0.09850240 17555.54389950 0 271.51227124 0 6626.81688516 0 401.39825127 0 -1142.16487244 0 10575
0.09950000 0.09950330 17041.57574842 0 557.11774910 0 6514.36781565 0 -254.40160253 0 -638.84296910 0 10882
0.10050000 0.10051200 16645.58190686 0 73.91529875 0 6373.32590370 0 1564.18116644 0 1067.01501758 0 10875
0.10150000 0.10150300 16995.98977221 0 -577.44470066 0 5485.88228486 0 1035.53652793 0 -1.06538601 0 11118
0.10250000 0.10250800 17230.73008827 0 325.13785612 0 5426.85119180 0 802.35382426 0 1164.38666277 0 11575
0.10350000 0.10349800 16676.44855582 0 441.47326742 0 4572.33932156 0 -390.16432889 0 1706.66205739 0 11364
0.10450000 0.10450100 16279.68579418 0 23.54466241 0 5304.85652872 0 112.94557220 0 2358.60742467 0 12093
0.10550000 0.10551000 16268.81106732 0 65.83515700 0 5328.45139062 0 124.69357257 0 1920.18017923 0 12067
0.10650000 0.10649700 16327.24899346 0 91.68053814 0 5028.96800376 0 907.73871515 0 2383.86095703 0 12054
0.10750000 0.10749900 15812.07253939 0 272.48111054 0 5126.68676145 0 -570.82320030 0 2659.66160540 0 12807
0.10850000 0.10850100 15640.05413277 0 240.34574345 0 5574.00052610 0 -311.61804419 0 2664.79140080 0 12736
0.10950000 0.10950300 15296.89608533 0 416.42844193 0 6074.55651406 0 52.52866547 0 2106.79708281 0 12933
0.11050000 0.11050200 15025.02791394 0 447.17535904 0 6118.09935978 0 -237.96318966 0 1956.05579328 0 13428
0.11150000 0.11150900 14956.15464385 0 58.90861507 0 6432.73047222 0 37.32909269 0 1832.51230546 0 13453
0.11250000 0.11250000 14656.49550383 0 -244.55393321 0 5960.55861981 0 735.00521285 0 2425.64627113 0 13668
0.11350000 0.11349100 14629.47345528 0 -166.98747238 0 5315.96193160 0 999.41156408 0 1859.14989396 0 13791
0.11450000 0.11448600 15070.83358160 0 11.02993887 0 4745.20354027 0 417.02710114 0 1787.46457330 0 14205
0.11550000 0.11549300 14671.32467682 0 457.53930327 0 4986.31490843 0 -887.33267466 0 1760.24480244 0 14776
0.11650000 0.11649800 14156.58760566 0 261.46358424 0 5267.69571967 0 -677.95683515 0 1701.67506144 0 14553
0.11750000 0.11747300 14298.17874623 0 135.32224500 0 5783.50927895 0 225.90762125 0 1070.88048867 0 14568
0.11850000 0.11849100 14065.85503614 0 41.32297344 0 5388.71275580 0 254.13357896 0 492.80856892 0 16015
0.11950000 0.11950300 14073.21469977 0 -14.67297236 0 5834.85117119 0 3.69432047 0 1241.33359370 0 15270
0.12050000 0.12050700 14138.24336945 0 235.05557330 0 5443.60266499 0 372.03758721 0 575.13025121 0 15999
0.12150000 0.12150000 13948.75949242 0 -2.68656282 0 5469.68004030 0 309.86600486 0 1440.58275575 0 15670
0.12250000 0.12250700 13924.15404984 0 -210.08544290 0 4846.50326861 0 447.55432680 0 467.93400431 0 16887
0.12350000 0.12352200 13938.43399419 0 259.91915333 0 5037.39317093 0 165.89121204 0 1207.62194045 0 16407
0.12450000 0.12449800 13498.61170804 0 348.03519767 0 4676.86851424 0 -585.93907063 0 1146.87725407 0 16306
0.12550000 0.12549900 13058.67957615 0 358.03115872 0 5111.11063753 0 222.58149267 0 764.19451757 0 17523
0.12650000 0.12650100 12830.31031219 0 347.96929023 0 5295.80524091 0 -238.61237790 0 508.36711752 0 17154
0.12750000 0.12750600 12393.23416917 0 185.33829934 0 5038.30489046 0 361.87136529 0 1272.14531979 0 18007
0.12850000 0.12850300 12341.60667804 0 -226.69411665 0 4477.54246018 0 630.96922747 0 928.62807683 0 17496
0.12950000 0.12949900 12650.71255048 0 -113.09496238 0 4250.26066890 0 756.56353500 0 669.31087807 0 18405
0.13050000 0.13049000 12606.55456870 0 -87.23453238 0 3566.19641140 0 154.92201786 0 1241.50934686 0 18100
0.13150000 0.13148800 12580.41128596 0 -77.34665953 0 3113.35740673 0 464.74298597 0 765.52914314 0 19059
0.13250000 0.13249300 12626.43664508 0 140.39821599 0 3256.53032576 0 96.44059282 0 563.63160064 0 18957
0.13350000 0.13349100 12411.35871393 0 455.78836240 0 3179.23188850 0 -685.61857452 0 451.86027925 0 19468
0.13450000 0.13450700 11975.82041108 0 399.07721108 0 3798.65193636 0 -670.19952999 0 287.88367821 0 19953
0.13550000 0.13551000 11549.39930348 0 61.88246840 0 4274.58051259 0 -38.16435959 0 -187.54949380 0 19956
0.13650000 0.13649900 11363.32064395 0 83.67432256 0 4223.07385176 0 389.39211344 0 575.67398756 0 19723
0.13750000 0.13749600 11633.65097517 0 -137.31484647 0 3550.14795085 0 638.22453766 0 -141.21107436 0 20946
0.13850000 0.13851100 11802.59370148 0 -112.68304091 0 3318.60414541 0 569.90379158 0 245.99840450 0 20955
0.13950000 0.13949800 11486.89708549 0 165.71545888 0 3340.96873519 0 -731.26606434 0 123.76427773 0 20506
0.14050000 0.14048300 11329.70785185 0 387.11940537 0 3524.34518986 0 -102.39961360 0 -261.42403978 0 21447
0.14150000 0.14148400 11142.09135216 0 224.31705514 0 3538.35051990 0 1.43655142 0 -15.52845088 0 21771
0.14250000 0.14249400 10712.06730475 0 55.38509372 0 3718.39864908 0 -34.54757923 0 19.46817768 0 22470
0.14350000 0.14350900 10805.35927968 0 55.31292508 0 3692.10158232 0 396.04217368 0 -273.76081324 0 22519
0.14450000 0.14449900 10733.93758875 0 135.10584892 0 3391.36595419 0 3.71754185 0 -51.47183974 0 22218
0.14550000 0.14550500 10513.21358731 0 149.35393802 0 3464.51222301 0 -60.42437624 0 -350.90107265 0 23559
0.14650000 0.14650700 10183.39081098 0 80.94443659 0 3618.61479175 0 284.69485679 0 198.63732136 0 23044
0.14750000 0.14750500 10246.22256614 0 100.74610589 0 3087.84024462 0 343.47989542 0 2.17980055 0 23649
0.14850000 0.14849900 10117.93374297 0 92.22075942 0 3306.23551669 0 178.31805900 0 322.46201424 0 23640
0.14950000 0.14949500 10097.50243796 0 177.30308449 0 3154.70333793 0 -134.09856362 0 324.69078402 0 24457
0.15050000 0.15050000 9886.81833585 0 22.89316741 0 3232.80364898 0 19.27759534 0 344.59812491 0 24591
0.15150000 0.15149900 9992.35810922 0 -131.84452932 0 2912.44957422 0 115.07767773 0 79.06915036 0 25020
0.15250000 0.15250500 9836.31127113 0 77.76758835 0 3116.08158073 0 44.85451352 0 44.86769501 0 25297
0.15350000 0.15350100 9895.23251845 0 160.60543571 0 2979.82894243 0 -239.99094176 0 -447.98821741 0 25452
0.15450000 0.15450400 9723.21411183 0 165.94613490 0 3023.88806306 0 -209.30224288 0 -398.71472019 0 26061
0.15550000 0.15549900 9447.42444803 0 174.69095313 0 3159.77821046 0 109.75642124 0 -299.59542950 0 26128
0.15650000 0.15649500 9391.07359069 0 110.60805515 0 2982.47622442 0 209.89650826 0 -291.04613666 0 26331
0.15750000 0.15749700 9222.31760212 0 10.17614099 0 3066.18965207 0 371.51142619 0 -271.21129395 0 27345
0.15850000 0.15849900 9276.54843695 0 57.90056084 0 2612.14234442 0 188.58314208 0 -170.94411543 0 26980
0.15950000 0.15949700 8914.45298638 0 179.66147223 0 2807.57985978 0 -109.11997510 0 79.53588484 0 27777
0.16050000 0.16050000 8834.39742141 0 4.96159962 0 2763.39990886 0 245.82814363 0 116.48040765 0 28224
0.16150000 0.16150500 8879.41219985 0 87.24705480 0 2519.64125871 0 91.88529057 0 17.79621588 0 28075
0.16250000 0.16249700 8664.51002187 0 197.49931964 0 2734.69722071 0 -168.57803849 0 552.93152848 0 28590
0.16350000 0.16349900 8732.15301982 0 91.61561931 0 2750.44909779 0 190.34836289 0 454.18241789 0 29163
0.16450000 0.16449100 8729.14324693 0 -130.17707120 0 2554.73696811 0 435.64155783 0 762.05032900 0 28996
0.16550000 0.16550500 8875.52366115 0 -170.20045986 0 2374.24945602 0 330.14132893 0 558.45347312 0 30777
0.16650000 0.16650700 8699.51785468 0 233.56716371 0 2378.24784044 0 -90.24144928 0 1078.16985103 0 29211
0.16750000 0.16749900 8564.72616454 0 267.46994853 0 2611.99954497 0 -268.86059542 0 1189.84890201 0 30922
0.16850000 0.16850800 8289.41982193 0 103.64405583 0 2797.60586788 0 39.08256002 0 1347.41161112 0 30867
0.16950000 0.16949900 8304.40277893 0 128.47885628 0 3040.69445910 0 -65.18585892 0 771.49815988 0 30852
0.17050000 0.17049200 7959.09175526 0 179.96904026 0 3076.29545884 0 -172.97076907 0 1073.94408596 0 31257
0.17150000 0.17149500 8032.74331442 0 26.37879198 0 3146.20127875 0 178.88266603 0 972.13137808 0 32608
0.17250000 0.17250900 7887.96664780 0 106.14183778 0 2961.84719712 0 3.19846588 0 742.26052304 0 32361
0.17350000 0.17350400 7984.40021049 0 -21.01019198 0 2814.67589367 0 27.54996711 0 619.80560636 0 32508
0.17450000 0.17449800 7886.91212883 0 -55.10333943 0 2651.85157430 0 171.66140801 0 693.14740057 0 32791
0.17550000 0.17549800 7914.86786605 0 28.29823619 0 2497.57325239 0 213.49944806 0 475.92308395 0 33633
0.17650000 0.17650100 7846.56579374 0 46.55162999 0 2285.38426384 0 164.12928660 0 782.75514986 0 33984
0.17750000 0.17750300 7842.71020876 0 49.47912843 0 2135.59863212 0 3.27706049 0 -49.13256516 0 34069
0.17850000 0.17849800 7643.63679987 0 262.82237587 0 2508.06351921 0 -294.06689412 0 155.04614353 0 34536
