### header ###
fiducial parameters:
Omega_m = 0.31
Omega_nu = 0
Omega_de = 0.69
Omega_k = 0
H_0 = 100
w_de = -1
zeff = 0
beta = 0
fgrowth = 0
b_1 = 2
gamma = 0.55
Lx = 3500 Ly = 3500 Lz = 3500
nx = 700 ny = 700 nz = 700
xoffset = -983.599254 yoffset = -42.9823471 zoffset = 800.977702
bins = 400 dk = 0.001
kx_ny = 0.628318531 ky_ny = 0.628318531 kz_ny = 0.628318531
############################
A(data) = 8.98997807 (not used)
A(ran) = 8.99334541 (used)
Ngal = 499730
weighted Ngal = 0
Nran = 25229228
weighted Nran = 0
SN(data) = 6753.77214
SN(ran) = 133.500017
SN(data+ran) = 6887.27215
############################
13 columns: k_central k_mean P_0(k) sigma^{lin}_{P_0(k)} P^img_1(k) sigma^{lin}_{P_1(k)} P_2(k) sigma^{lin}_{P_2(k)} P^img_3(k) sigma^{lin}_{P_3(k)} P_4(k) sigma^{lin}_{P_4(k)} N_modes
### header ###
0.00050000 0 0 0 0 0 0 0 0 0 0 0 0
0.00150000 0.00179520 11907.82590681 0 -13219.60356447 0 14241.27866026 0 -50261.01030319 0 -24988.36478239 0 3
0.00250000 0.00253879 21122.56415384 0 -8014.00363360 0 -12591.61554999 0 13422.15908287 0 10799.42761048 0 6
0.00350000 0.00331552 31117.20705415 0 -18821.73558095 0 -18557.33691892 0 7387.26786040 0 29091.76171588 0 7
0.00450000 0.00420575 37774.18757563 0 -16916.79100390 0 -22976.43046840 0 2435.76306248 0 -12869.63508203 0 24
0.00550000 0.00557378 64591.04430991 0 -8885.25599246 0 -33261.06608486 0 -7587.31889625 0 -30566.98981356 0 45
0.00650000 0.00659388 73963.08163631 0 -17702.07809774 0 -49929.27621124 0 11346.18471072 0 18562.38982231 0 40
0.00750000 0.00754703 90640.51880366 0 -7807.99895941 0 -17665.71916249 0 -42127.37368961 0 -48501.17192994 0 57
0.00850000 0.00846663 83575.24171934 0 18769.88839837 0 -12860.62773251 0 -60532.24474110 0 -10292.89601504 0 75
0.00950000 0.00948925 67771.29776366 0 16194.11597377 0 20341.56104331 0 -18275.91216939 0 -13388.32659932 0 112
0.01050000 0.01054430 57246.64923630 0 -8290.14480372 0 19378.32387365 0 16991.81563463 0 -12167.39135690 0 105
0.01150000 0.01145670 66854.52533602 0 -3769.25722013 0 30504.26790412 0 16742.35599131 0 -28043.83349162 0 144
0.01250000 0.01249090 69539.81394926 0 222.04215016 0 9554.55698441 0 -4781.35376863 0 -1185.11455123 0 169
0.01350000 0.01339930 67060.15653475 0 407.89342903 0 12722.55165516 0 9358.70205529 0 -689.12594855 0 180
0.01450000 0.01448870 73898.38250381 0 196.80729157 0 19761.35591956 0 -4922.34075772 0 -11173.39738402 0 267
0.01550000 0.01550050 76362.99105389 0 -6111.99193742 0 12398.28707256 0 14298.39843768 0 16971.16463818 0 238
0.01650000 0.01653350 78896.03349114 0 -4309.55539169 0 14832.24866514 0 -2956.56361770 0 3200.94838849 0 315
0.01750000 0.01747870 75110.31039671 0 3499.47611754 0 7950.74348010 0 4788.58161739 0 1729.85049011 0 297
0.01850000 0.01844180 80606.11175061 0 9117.93120888 0 27767.46164547 0 -9453.97125329 0 2044.91000089 0 388
0.01950000 0.01947590 72982.04945907 0 -577.03717301 0 35788.17685292 0 -1264.21445839 0 22119.52396133 0 399
0.02050000 0.02045430 74326.67098876 0 1108.24451230 0 36996.58968259 0 453.97590793 0 -7772.60666655 0 462
0.02150000 0.02154770 68001.31471351 0 5096.07275766 0 38582.98165479 0 -1846.18809832 0 10575.30937611 0 571
0.02250000 0.02255340 63739.95962631 0 2293.83140015 0 35945.25624083 0 13164.02162721 0 7736.42348447 0 510
0.02350000 0.02348930 66909.11866175 0 -900.57018308 0 39249.19598185 0 10888.56741698 0 15627.64156575 0 555
0.02450000 0.02439640 66511.58698003 0 -3398.35214235 0 27005.46184551 0 3495.23607252 0 9497.45917614 0 592
0.02550000 0.02547300 69909.00543372 0 2798.97893945 0 31423.67662917 0 -2959.74914375 0 2103.87518650 0 837
0.02650000 0.02652900 63374.50289653 0 3181.82424763 0 26094.73093279 0 1.30933908 0 15015.69102724 0 723
0.02750000 0.02749970 62347.88474308 0 -3951.08485007 0 28623.48938674 0 4131.29774784 0 -2879.12238101 0 826
0.02850000 0.02848090 66787.18990610 0 1608.58080881 0 24778.88898327 0 10009.64782646 0 -5708.56154023 0 831
0.02950000 0.02946900 62716.63684463 0 3668.97905704 0 20469.09193098 0 -5660.44911232 0 -2595.30299465 0 996
0.03050000 0.03053250 60531.14628385 0 807.53744406 0 23665.16316925 0 -1649.59720283 0 -5555.44758301 0 1041
0.03150000 0.03150510 56718.18144941 0 1697.40206270 0 23971.74258999 0 1103.00487118 0 -14553.57005875 0 1036
0.03250000 0.03246190 55717.15735007 0 3318.90072887 0 24328.85104461 0 -4331.56847515 0 -10863.83015953 0 1059
0.03350000 0.03345080 49822.72585720 0 2681.37810540 0 25376.12019452 0 -676.50687157 0 -13321.97978093 0 1302
0.03450000 0.03451200 50857.91197726 0 914.53926403 0 22880.64499549 0 277.53291547 0 -15028.54297716 0 1339
0.03550000 0.03553350 46140.36759075 0 1280.01027376 0 24396.84554889 0 1571.24424661 0 -14330.58323535 0 1365
0.03650000 0.03647120 45224.36408320 0 2566.24880017 0 23717.55958046 0 -135.64738835 0 -11129.34924797 0 1308
0.03750000 0.03744890 43135.31806968 0 514.55143189 0 20405.05187283 0 4600.39391993 0 -11732.51212841 0 1579
0.03850000 0.03847530 44289.68680225 0 -488.99802069 0 20467.11470791 0 9196.88831659 0 -5858.87443143 0 1662
0.03950000 0.03950240 45919.24814469 0 -3201.10217251 0 11195.58622063 0 7042.22046647 0 -658.39440984 0 1683
0.04050000 0.04050350 47786.07625489 0 -614.31332007 0 7414.53156954 0 4330.75561678 0 4305.16156266 0 1822
0.04150000 0.04152450 43936.53279376 0 2211.62285896 0 6678.21370027 0 -3642.18768451 0 -352.66080118 0 1887
0.04250000 0.04250150 42668.36388924 0 2903.65093158 0 13256.18219117 0 -1194.31962305 0 11158.23867385 0 1920
0.04350000 0.04349210 40185.85048586 0 1101.51096931 0 12837.56013009 0 1848.96719518 0 5115.76809630 0 2005
0.04450000 0.04448520 41487.63218248 0 -1097.14789708 0 13171.27144511 0 2164.29033570 0 9037.34838442 0 2151
0.04550000 0.04548030 40493.96774677 0 646.08839317 0 10454.43513942 0 2193.59717535 0 5063.13002449 0 2274
0.04650000 0.04648670 40445.63562741 0 491.19713212 0 12339.40976353 0 -140.02364207 0 7251.16900611 0 2311
0.04750000 0.04749250 40479.02872806 0 1721.08480119 0 13962.16067097 0 -2217.76323503 0 7149.74844747 0 2568
0.04850000 0.04851840 39518.64754727 0 239.18247722 0 15661.91343220 0 -1697.56683129 0 4766.43671907 0 2493
0.04950000 0.04949480 37077.87551969 0 171.23300968 0 15915.76690456 0 664.84564931 0 5064.62392636 0 2644
0.05050000 0.05050630 36546.44189821 0 -13.85539063 0 14932.09842990 0 150.03937535 0 3844.49055774 0 2829
0.05150000 0.05149060 37819.44401466 0 962.82085436 0 13425.34460892 0 4314.48746478 0 1038.61220825 0 2784
0.05250000 0.05249300 36080.58617503 0 721.01086738 0 15125.31706161 0 -2194.16837312 0 1772.52555459 0 3055
0.05350000 0.05348950 35072.75164070 0 1806.03948553 0 15094.12087548 0 830.64129557 0 3220.45698940 0 3009
0.05450000 0.05448610 33429.56942825 0 1876.01121288 0 17457.23197490 0 -2194.09148112 0 724.38862345 0 3336
0.05550000 0.05550870 31609.86513443 0 26.36670895 0 16812.21787292 0 517.68862581 0 1248.24288985 0 3349
0.05650000 0.05647670 31917.98239533 0 -747.14646092 0 16844.62236204 0 1570.96963229 0 -1287.89719687 0 3324
0.05750000 0.05747970 31013.73238044 0 -320.81103298 0 15291.73333621 0 1893.74031302 0 862.15823122 0 3639
0.05850000 0.05849280 32897.69642386 0 439.96728252 0 13369.43313448 0 1877.08770099 0 1638.33801593 0 3846
0.05950000 0.05951020 32282.67020504 0 -373.48425542 0 11866.74360535 0 1780.96170633 0 -473.01656604 0 3787
0.06050000 0.06049470 31461.90294176 0 470.64939065 0 13770.80941660 0 -177.96106039 0 1818.07857708 0 3930
0.06150000 0.06148310 32121.52652527 0 1411.44068469 0 13576.93171054 0 -2616.87669520 0 -1474.48114674 0 4083
0.06250000 0.06249100 30217.02133111 0 591.39730475 0 13271.99997568 0 -957.12095964 0 70.46570357 0 4303
0.06350000 0.06350600 29485.33895147 0 -68.57009588 0 12590.29740128 0 2136.35656763 0 -2424.80045904 0 4470
0.06450000 0.06451750 29326.17249477 0 147.52500668 0 13769.05188499 0 598.98984132 0 969.39951488 0 4479
0.06550000 0.06550280 29894.51428013 0 -143.06966404 0 10991.82239925 0 2384.52003139 0 -1500.56950662 0 4636
0.06650000 0.06648880 29719.20050173 0 240.24139001 0 10667.93129211 0 871.67636336 0 -132.55742808 0 4653
0.06750000 0.06749660 30267.00113636 0 -52.07357462 0 10168.86920603 0 919.96015060 0 -988.13370341 0 5220
0.06850000 0.06852730 28847.79435885 0 296.21987034 0 11075.74453377 0 -815.04979325 0 -88.82520834 0 5029
0.06950000 0.06949320 28627.55367859 0 -50.20971235 0 9525.73346596 0 1020.86992662 0 339.70559628 0 5040
0.07050000 0.07048030 28202.34087397 0 796.42764735 0 9653.85752055 0 -431.39162670 0 649.32444826 0 5475
0.07150000 0.07148790 27467.36312255 0 1032.29278365 0 10994.45869667 0 -384.13160163 0 919.29228859 0 5509
0.07250000 0.07249820 27257.00855762 0 462.01661506 0 11166.14756611 0 1088.03729258 0 1540.66319654 0 5916
0.07350000 0.07351270 26932.52428357 0 -131.58639187 0 11561.37248759 0 884.09552112 0 587.41100336 0 5721
0.07450000 0.07449140 26656.70166605 0 -161.63908399 0 9073.63042766 0 1591.96115050 0 2158.01814476 0 6028
0.07550000 0.07549160 27133.43211608 0 -359.33392902 0 8961.25825015 0 722.39821890 0 1094.05024761 0 6183
0.07650000 0.07648840 26282.67696965 0 218.23599576 0 8564.87994855 0 633.00027494 0 2267.33661109 0 6330
0.07750000 0.07749960 26079.46237690 0 701.86475737 0 7396.80246940 0 -189.84087564 0 958.96746630 0 6583
0.07850000 0.07848650 25675.77933453 0 458.12697791 0 7854.05727224 0 1127.77508235 0 1983.63805503 0 6549
0.07950000 0.07947320 24997.59182336 0 -25.76530360 0 6489.50972790 0 -648.98832034 0 431.31253778 0 6828
0.08050000 0.08048110 24226.03544525 0 911.01211778 0 6667.56964944 0 818.59561328 0 548.80132919 0 7147
0.08150000 0.08149960 24045.00968911 0 670.09737347 0 7564.51492357 0 -1274.72669435 0 -27.97825559 0 7386
0.08250000 0.08250610 22422.58831884 0 525.05927402 0 7474.86982673 0 453.50027594 0 857.22176430 0 7227
0.08350000 0.08350160 22671.71842499 0 175.34233829 0 7479.67008495 0 1042.95440980 0 684.41027154 0 7798
0.08450000 0.08449610 22064.27156124 0 30.24393353 0 7311.32052557 0 513.07510533 0 317.63319613 0 7371
0.08550000 0.08548940 21449.90441677 0 472.83092676 0 7146.01369279 0 150.17338713 0 231.41418749 0 8256
0.08650000 0.08650700 21192.09649828 0 957.34284801 0 7602.71926701 0 -676.25532486 0 1319.51079676 0 8037
0.08750000 0.08749060 20163.94050467 0 662.62786411 0 8035.78604103 0 -1034.58196857 0 622.91314194 0 8155
0.08850000 0.08849210 19672.60057311 0 -3.56789902 0 8282.69726351 0 627.46405036 0 874.82234495 0 8718
0.08950000 0.08949900 19865.05028473 0 -229.19200845 0 7958.18003574 0 846.52608598 0 -274.51435492 0 8571
0.09050000 0.09049190 19456.20449325 0 129.18736121 0 6642.05248733 0 864.74070424 0 -162.49807757 0 8932
0.09150000 0.09150830 19420.39478664 0 264.02958039 0 7191.16028610 0 595.24410207 0 1111.13345489 0 9285
0.09250000 0.09250820 19266.17138760 0 68.03273059 0 6188.06010255 0 -150.17997787 0 32.53278892 0 9204
0.09350000 0.09350330 18731.44239434 0 452.61052556 0 6306.39690297 0 131.97195036 0 -493.90702618 0 9349
0.09450000 0.09448040 18367.19396754 0 449.43268871 0 6619.49017525 0 -337.28899031 0 829.36269132 0 9564
0.09550000 0.09549270 17662.42379072 0 399.30019790 0 6402.84145023 0 59.07843656 0 -375.28792224 0 10155
0.09650000 0.09649430 17568.61554087 0 -93.35645437 0 6267.99483722 0 611.37824228 0 -69.84134047 0 9913
0.09750000 0.09749140 17539.39657781 0 177.31736444 0 5918.38884567 0 176.59018573 0 -691.61724961 0 10476
0.09850000 0.09850240 17405.27494659 0 27.57742854 0 5869.59537427 0 281.01722189 0 -511.29889994 0 10575
0.09950000 0.09950330 17105.17642367 0 -46.48319610 0 4966.59760065 0 381.91491488 0 555.94789212 0 10882
0.10050000 0.10051200 16700.28507832 0 232.52802315 0 5221.28590052 0 178.59816560 0 -918.16087761 0 10875
0.10150000 0.10150300 16610.43127460 0 443.99862065 0 4817.85550332 0 157.30457165 0 -251.99158730 0 11118
0.10250000 0.10250800 16671.72518961 0 335.26782896 0 5837.08103943 0 -356.96016289 0 -89.28403394 0 11575
0.10350000 0.10349800 15928.72870021 0 135.40133392 0 5678.46381135 0 -381.75234321 0 329.17029272 0 11364
0.10450000 0.10450100 15754.84291624 0 126.70374935 0 5669.02806351 0 377.16848107 0 -516.41331694 0 12093
0.10550000 0.10551000 16273.09505063 0 -51.25610273 0 5530.02928206 0 874.68723471 0 -604.32834359 0 12067
0.10650000 0.10649700 15782.30434770 0 -21.23405757 0 4984.99675972 0 168.38690693 0 -125.20215828 0 12054
0.10750000 0.10749900 15701.01851059 0 448.91421688 0 5495.60363159 0 -305.04487596 0 25.01297022 0 12807
0.10850000 0.10850100 15130.26011927 0 35.62143104 0 5036.64622000 0 145.37971966 0 843.92054536 0 12736
0.10950000 0.10950300 15098.40485878 0 195.50232435 0 5282.28323206 0 932.87141721 0 313.83253402 0 12933
0.11050000 0.11050200 14916.17079966 0 86.93652093 0 5286.49032336 0 -492.34611841 0 306.83975512 0 13428
0.11150000 0.11150900 14804.23800505 0 393.33337808 0 4841.84580984 0 74.21374958 0 41.37569939 0 13453
0.11250000 0.11250000 14402.53218575 0 152.34503713 0 5471.88793939 0 -305.46338817 0 715.47354434 0 13668
0.11350000 0.11349100 14224.91164711 0 -12.18518636 0 5021.50947898 0 350.19476464 0 15.08610214 0 13791
0.11450000 0.11448600 14262.14934816 0 -24.21340319 0 5607.98679367 0 184.78467688 0 112.79178818 0 14205
0.11550000 0.11549300 14028.28779791 0 353.69444946 0 5038.53556648 0 -431.60472741 0 -294.33601615 0 14776
0.11650000 0.11649800 14089.58171291 0 173.10917468 0 5586.24832453 0 310.06812100 0 525.92815371 0 14553
0.11750000 0.11747300 13979.62614137 0 -52.93817033 0 5080.15611199 0 3.79655388 0 -386.49877702 0 14568
0.11850000 0.11849100 13973.25508928 0 255.09253214 0 5645.36729417 0 -127.45948795 0 -459.29353951 0 16015
0.11950000 0.11950300 13494.32772473 0 236.54288442 0 5572.53957795 0 217.14303079 0 253.43605860 0 15270
0.12050000 0.12050700 13410.51543593 0 -414.81261130 0 5028.37483684 0 923.01166487 0 816.87872458 0 15999
0.12150000 0.12150000 13736.09816724 0 -138.99328916 0 4832.82747575 0 445.21021901 0 380.26503208 0 15670
0.12250000 0.12250700 13717.42439386 0 351.99513608 0 4239.77040208 0 386.63388726 0 448.10355543 0 16887
0.12350000 0.12352200 13677.98977829 0 184.42108753 0 4494.37082537 0 -253.53052592 0 722.53442760 0 16407
0.12450000 0.12449800 13475.32441416 0 167.66522051 0 4675.42953523 0 -542.34899126 0 -204.36577596 0 16306
0.12550000 0.12549900 13216.19834697 0 41.14293629 0 4721.33406405 0 34.82065570 0 -73.62519618 0 17523
0.12650000 0.12650100 13009.90807389 0 151.43331761 0 4496.63364733 0 -138.45834047 0 -287.89246587 0 17154
0.12750000 0.12750600 12974.64759591 0 192.88250378 0 4792.51409438 0 -238.83316781 0 -806.85200673 0 18007
0.12850000 0.12850300 12792.74307396 0 140.02803590 0 4755.06768645 0 176.45617395 0 -406.58077261 0 17496
0.12950000 0.12949900 12660.59866580 0 -88.74875571 0 4558.21316122 0 723.25062173 0 -213.31271033 0 18405
0.13050000 0.13049000 12805.26548670 0 -167.54768558 0 4160.30800403 0 567.77498141 0 -136.62281839 0 18100
0.13150000 0.13148800 12704.09757323 0 116.54192126 0 3789.82034001 0 309.11905393 0 -439.04457842 0 19059
0.13250000 0.13249300 12850.30223428 0 67.19109264 0 3892.96547655 0 -122.80642300 0 825.84652964 0 18957
0.13350000 0.13349100 12331.94025417 0 288.81077614 0 3667.95749179 0 252.69020612 0 221.06452320 0 19468
0.13450000 0.13450700 12398.17722684 0 196.05594680 0 4133.68140009 0 91.45546424 0 571.23841715 0 19953
0.13550000 0.13551000 12197.81862295 0 116.82092940 0 3768.78488351 0 -471.78080163 0 25.53111251 0 19956
0.13650000 0.13649900 12039.97031496 0 215.04168205 0 4120.68665073 0 156.76522914 0 -244.00360612 0 19723
0.13750000 0.13749600 11513.80928831 0 178.50369828 0 4115.17239529 0 -393.02141622 0 454.26370373 0 20946
0.13850000 0.13851100 11405.06201976 0 163.17033341 0 4087.57914897 0 158.13610380 0 -509.32826762 0 20955
0.13950000 0.13949800 11377.60058830 0 64.82051203 0 4018.21157312 0 364.31982652 0 -414.74340850 0 20506
0.14050000 0.14048300 10999.73129151 0 95.81227527 0 3753.80192651 0 186.50046712 0 -362.09325366 0 21447
0.14150000 0.14148400 11140.11412910 0 114.54272905 0 3466.61027637 0 181.16196484 0 -0.62816706 0 21771
0.14250000 0.14249400 11080.24820853 0 74.89545216 0 3542.57958035 0 208.38612953 0 -399.75056538 0 22470
0.14350000 0.14350900 10779.56750326 0 -94.46007438 0 3176.77134424 0 572.79712800 0 394.71304039 0 22519
0.14450000 0.14449900 10834.05098326 0 152.99202846 0 3216.91995703 0 -237.66331083 0 -134.63241384 0 22218
0.14550000 0.14550500 10828.70149641 0 132.57280648 0 3161.20620489 0 278.06347032 0 501.41058771 0 23559
0.14650000 0.14650700 10810.88451969 0 -176.08489539 0 2846.73986104 0 297.98948499 0 273.56968168 0 23044
0.14750000 0.14750500 10715.59335254 0 97.62472974 0 3022.50400691 0 110.30378249 0 410.70108579 0 23649
0.14850000 0.14849900 10606.00027190 0 261.77225073 0 2977.55513591 0 -369.47268952 0 193.11537672 0 23640
0.14950000 0.14949500 10304.22110937 0 259.87851042 0 3117.20200713 0 -394.07813210 0 115.85318856 0 24457
0.15050000 0.15050000 10110.61801763 0 169.80611371 0 3280.68540086 0 75.27936297 0 240.88398751 0 24591
0.15150000 0.15149900 9941.82907534 0 53.90547179 0 3385.12671697 0 336.99020994 0 -186.28956332 0 25020
0.15250000 0.15250500 9859.32395068 0 233.63197269 0 3007.96043281 0 28.26275602 0 -291.06371197 0 25297
0.15350000 0.15350100 9677.54025903 0 112.34581453 0 3061.56514701 0 31.45003960 0 -297.26230628 0 25452
0.15450000 0.15450400 9371.64188179 0 46.29019716 0 3016.90187489 0 -80.96431866 0 -192.29922298 0 26061
0.15550000 0.15549900 9183.84962894 0 177.52277594 0 3122.14506480 0 -123.48087576 0 -282.00034114 0 26128
0.15650000 0.15649500 8856.66315003 0 292.33792239 0 2906.13344498 0 183.93776633 0 -89.06148650 0 26331
0.15750000 0.15749700 8842.48206683 0 57.52576723 0 3101.52702206 0 283.23390864 0 211.85176218 0 27345
0.15850000 0.15849900 8757.73608936 0 185.26250579 0 3242.04167452 0 -3.78519583 0 -245.96874616 0 26980
0.15950000 0.15949700 8807.48521858 0 69.64010310 0 3089.99322085 0 3.43685307 0 326.74819446 0 27777
0.16050000 0.16050000 8563.74853758 0 -67.61641529 0 3191.22704176 0 111.96574832 0 213.09741271 0 28224
0.16150000 0.16150500 8566.97800192 0 -35.58012905 0 2924.18109773 0 211.42446230 0 623.67437282 0 28075
0.16250000 0.16249700 8716.59886505 0 -130.03756713 0 2815.20315315 0 319.38303855 0 736.01469507 0 28590
0.16350000 0.16349900 8787.37246619 0 99.33590646 0 2603.16794862 0 277.23523355 0 365.19749387 0 29163
0.16450000 0.16449100 8697.51866247 0 181.77380553 0 2585.05438843 0 179.21989241 0 1049.65060524 0 28996
0.16550000 0.16550500 8792.66703017 0 -102.22397028 0 2430.43554478 0 107.22074250 0 746.07216972 0 30777
0.16650000 0.16650700 8505.54128747 0 -13.59560548 0 2136.18081447 0 59.35261149 0 649.83083705 0 29211
0.16750000 0.16749900 8486.79062207 0 128.30749695 0 2222.32183265 0 -128.85343021 0 548.62447758 0 30922
0.16850000 0.16850800 8498.75282161 0 103.15732941 0 2071.78924999 0 -11.74108010 0 341.70259157 0 30867
0.16950000 0.16949900 8297.51545192 0 143.69688314 0 2349.76484374 0 -51.96526674 0 -146.44192783 0 30852
0.17050000 0.17049200 8206.68402125 0 62.42950012 0 1938.60130745 0 -189.23342877 0 -359.27680925 0 31257
0.17150000 0.17149500 8150.87140796 0 125.97437373 0 2134.69789717 0 -93.04273498 0 -756.43501550 0 32608
0.17250000 0.17250900 7969.58202208 0 112.47213712 0 2135.81832357 0 1.41004564 0 -780.94928613 0 32361
0.17350000 0.17350400 7886.90114426 0 -89.53865633 0 2112.59693713 0 57.79829447 0 -320.38593002 0 32508
0.17450000 0.17449800 7863.39415894 0 141.77677985 0 2085.08058282 0 108.73221969 0 -1020.68868117 0 32791
0.17550000 0.17549800 7905.05864274 0 154.68255418 0 2152.13041385 0 -153.50390954 0 -707.12087535 0 33633
0.17650000 0.17650100 7781.49318577 0 103.69381594 0 2112.32232282 0 45.55774586 0 -877.90022219 0 33984
0.17750000 0.17750300 7756.48131400 0 -11.81522596 0 2233.05376006 0 40.48397179 0 -601.32845682 0 34069
0.17850000 0.17849800 7505.18724706 0 169.09431340 0 2329.02597070 0 69.96887135 0 -287.92541959 0 34536
