### header ###
fiducial parameters:
Omega_m = 0.31
Omega_nu = 0
Omega_de = 0.69
Omega_k = 0
H_0 = 100
w_de = -1
zeff = 0
beta = 0
fgrowth = 0
b_1 = 2
gamma = 0.55
Lx = 3500 Ly = 3500 Lz = 3500
nx = 700 ny = 700 nz = 700
xoffset = -983.599254 yoffset = -42.9823471 zoffset = 800.977702
bins = 400 dk = 0.001
kx_ny = 0.628318531 ky_ny = 0.628318531 kz_ny = 0.628318531
############################
A(data) = 9.07282397 (not used)
A(ran) = 9.06478085 (used)
Ngal = 503096
weighted Ngal = 0
Nran = 25229228
weighted Nran = 0
SN(data) = 6727.02326
SN(ran) = 134.560427
SN(data+ran) = 6861.58368
############################
13 columns: k_central k_mean P_0(k) sigma^{lin}_{P_0(k)} P^img_1(k) sigma^{lin}_{P_1(k)} P_2(k) sigma^{lin}_{P_2(k)} P^img_3(k) sigma^{lin}_{P_3(k)} P_4(k) sigma^{lin}_{P_4(k)} N_modes
### header ###
0.00050000 0 0 0 0 0 0 0 0 0 0 0 0
0.00150000 0.00179520 35461.27597290 0 -2138.97089590 0 11629.80637477 0 45065.63700940 0 12274.16140239 0 3
0.00250000 0.00253879 46194.19199640 0 17845.20707847 0 25708.84289800 0 -30033.13958610 0 53910.52469762 0 6
0.00350000 0.00331552 22718.73239564 0 20087.81741668 0 5566.22344872 0 -39098.04826313 0 -11144.83749531 0 7
0.00450000 0.00420575 30268.09959362 0 -16874.61024519 0 -11558.84603590 0 43769.56729052 0 27624.44251047 0 24
0.00550000 0.00557378 47600.54682399 0 -22356.90057481 0 -23433.93791641 0 -7945.50383898 0 -23161.19097921 0 45
0.00650000 0.00659388 58340.05359105 0 -910.37061874 0 -22159.83734270 0 -10135.46512081 0 -2123.03228109 0 40
0.00750000 0.00754703 80187.37984381 0 12525.48842305 0 17423.17979990 0 -46093.46346583 0 -15597.98321978 0 57
0.00850000 0.00846663 61012.60010009 0 7239.16286828 0 12947.84523881 0 -20215.67784153 0 14376.27905728 0 75
0.00950000 0.00948925 59269.56812288 0 1009.24495346 0 45761.18014525 0 20640.78080042 0 629.52365772 0 112
0.01050000 0.01054430 72380.20472734 0 -2672.26091015 0 45556.53755806 0 5532.35801145 0 19313.18535824 0 105
0.01150000 0.01145670 72498.39872832 0 670.65868512 0 67248.21241734 0 11944.84391640 0 14651.11306327 0 144
0.01250000 0.01249090 65134.34126978 0 4760.92246363 0 56407.53773681 0 2824.18853353 0 17619.69380338 0 169
0.01350000 0.01339930 76083.10414451 0 -5155.36748046 0 48660.44823237 0 16426.11014669 0 25304.28108983 0 180
0.01450000 0.01448870 83007.33931689 0 -10911.99751030 0 48720.97322729 0 31409.72622200 0 19267.15999913 0 267
0.01550000 0.01550050 90997.51741256 0 -1071.23419191 0 43550.75460470 0 12972.45068139 0 38492.13923954 0 238
0.01650000 0.01653350 91668.12556865 0 10326.13533167 0 37636.77057263 0 -1759.14634518 0 31079.74966165 0 315
0.01750000 0.01747870 93966.09815267 0 150.38319247 0 31903.15322235 0 -1383.60577777 0 30036.32511215 0 297
0.01850000 0.01844180 80451.11943148 0 -5240.95927001 0 38785.86671037 0 17143.40273625 0 10263.01797762 0 388
0.01950000 0.01947590 85306.84974107 0 5809.29007080 0 34343.92524992 0 -8896.81176282 0 19056.03651411 0 399
0.02050000 0.02045430 79900.68249943 0 8094.31184374 0 37515.61073706 0 -4816.02107970 0 13700.83768926 0 462
0.02150000 0.02154770 74864.69535379 0 1286.08474240 0 37184.97510236 0 9468.42695080 0 4112.77775847 0 571
0.02250000 0.02255340 75882.30615773 0 223.05932158 0 34169.60008306 0 4184.34224884 0 -5628.82452786 0 510
0.02350000 0.02348930 67497.89175211 0 3556.34324979 0 38831.12314940 0 -86.60709360 0 6854.85661195 0 555
0.02450000 0.02439640 68289.11051515 0 4546.37179197 0 27048.74106148 0 6251.13351831 0 18663.11835288 0 592
0.02550000 0.02547300 63857.05517003 0 -5847.86788970 0 25823.85137293 0 15358.29984606 0 6851.91274650 0 837
0.02650000 0.02652900 66780.70900828 0 3380.89765652 0 16113.26951957 0 8553.48894679 0 10463.42051979 0 723
0.02750000 0.02749970 69566.94584353 0 3531.10070200 0 18017.11563937 0 -4260.59715170 0 9548.63629979 0 826
0.02850000 0.02848090 60074.18806446 0 2244.85119101 0 18735.61653192 0 207.56008967 0 18677.28845151 0 831
0.02950000 0.02946900 57919.34446118 0 537.08957791 0 15402.67751929 0 7248.53270869 0 18239.88277132 0 996
0.03050000 0.03053250 61086.41642783 0 -2994.78993029 0 9872.04408573 0 5052.49695823 0 5955.53867014 0 1041
0.03150000 0.03150510 62066.89937644 0 806.70151809 0 12123.23337513 0 5490.63860478 0 14276.09975534 0 1036
0.03250000 0.03246190 56640.19098408 0 3817.92986124 0 5983.98871313 0 -2307.08977926 0 13351.08889827 0 1059
0.03350000 0.03345080 54684.16814452 0 212.41746766 0 8806.72728308 0 -4557.10371939 0 15178.48239290 0 1302
0.03450000 0.03451200 56001.87747138 0 2231.37312046 0 12701.79081298 0 -182.46583361 0 1516.72781289 0 1339
0.03550000 0.03553350 52091.69916960 0 1991.92042276 0 14368.80954793 0 -533.04286137 0 2765.43205479 0 1365
0.03650000 0.03647120 48317.94925928 0 3296.93158371 0 18160.79384873 0 -6480.98569957 0 2203.82381242 0 1308
0.03750000 0.03744890 46140.80697366 0 2736.43278317 0 23590.02869279 0 -2917.60133876 0 114.69541461 0 1579
0.03850000 0.03847530 44851.87722696 0 1246.78194170 0 26226.32611231 0 258.50434039 0 -952.47778081 0 1662
0.03950000 0.03950240 43315.57490574 0 -317.85069067 0 22395.12688739 0 2581.35258747 0 -3814.82122720 0 1683
0.04050000 0.04050350 42512.60265004 0 -1202.98645082 0 21700.24282590 0 3830.25455168 0 2226.94633771 0 1822
0.04150000 0.04152450 43178.48743992 0 192.53209592 0 20585.41855461 0 1620.83959181 0 2256.04447047 0 1887
0.04250000 0.04250150 42053.00813324 0 1407.45328485 0 16002.10564505 0 1990.88787293 0 -677.02204802 0 1920
0.04350000 0.04349210 43210.56239186 0 1801.43694962 0 18014.80887913 0 807.07499356 0 310.80848119 0 2005
0.04450000 0.04448520 40575.47327532 0 -391.27377072 0 15231.09849556 0 2678.78574627 0 -75.24915539 0 2151
0.04550000 0.04548030 40106.43202610 0 -538.00129743 0 14853.22919877 0 -75.36745924 0 -912.27204825 0 2274
0.04650000 0.04648670 40161.57458046 0 1608.51490138 0 13560.67454312 0 897.90752269 0 -5351.72769992 0 2311
0.04750000 0.04749250 38619.12089858 0 1546.18843655 0 15112.79464886 0 -3924.12870896 0 -4831.67409563 0 2568
0.04850000 0.04851840 35444.46957685 0 970.07067226 0 14640.01864496 0 -1075.63680860 0 -5867.06892257 0 2493
0.04950000 0.04949480 36456.80778595 0 107.56412024 0 17520.17357579 0 2564.95262061 0 -5623.76063990 0 2644
0.05050000 0.05050630 34996.07932408 0 515.95745718 0 14112.20993243 0 3276.12680324 0 -5923.17811932 0 2829
0.05150000 0.05149060 36616.96285418 0 -1159.92692630 0 10874.15565776 0 3259.56206779 0 -2196.70580939 0 2784
0.05250000 0.05249300 36036.09865608 0 -307.43182358 0 11791.93866607 0 668.96596249 0 -3556.82657098 0 3055
0.05350000 0.05348950 35910.32530002 0 926.49377437 0 11248.64170620 0 -3539.02057883 0 -2458.25946712 0 3009
0.05450000 0.05448610 35422.61027741 0 1859.66616888 0 12775.82683218 0 -1082.86465736 0 -3683.30293969 0 3336
0.05550000 0.05550870 34284.16917508 0 -723.06937628 0 12956.74274260 0 2115.44194143 0 -3266.46037937 0 3349
0.05650000 0.05647670 35267.06872966 0 -596.26786423 0 12142.12683997 0 2843.56531956 0 -2386.91466821 0 3324
0.05750000 0.05747970 34146.09309773 0 363.91449579 0 12245.38182223 0 189.59042738 0 -780.83284966 0 3639
0.05850000 0.05849280 33565.99781971 0 1903.12113801 0 11550.16822356 0 -627.87926721 0 -75.11283685 0 3846
0.05950000 0.05951020 31393.24936312 0 1821.50576373 0 12597.76691064 0 101.55204398 0 -568.61530122 0 3787
0.06050000 0.06049470 30886.42118422 0 -50.13743386 0 12947.73539308 0 75.50586486 0 904.45982023 0 3930
0.06150000 0.06148310 29646.26293979 0 244.54844092 0 12960.14796010 0 1719.17348556 0 -844.04796641 0 4083
0.06250000 0.06249100 29359.34590396 0 88.93769036 0 10866.51039524 0 383.54502545 0 -180.10305204 0 4303
0.06350000 0.06350600 28805.17421723 0 579.31537337 0 10411.78204409 0 1413.51676891 0 114.60753803 0 4470
0.06450000 0.06451750 29006.63127838 0 648.21280951 0 10413.89108202 0 1077.80955705 0 472.63759829 0 4479
0.06550000 0.06550280 28593.50150359 0 429.17384150 0 11002.36758892 0 -1159.13603707 0 1346.26921557 0 4636
0.06650000 0.06648880 27931.68100557 0 -163.92936737 0 10488.55322186 0 1287.72144371 0 1987.04327253 0 4653
0.06750000 0.06749660 27197.36232850 0 69.00036159 0 11098.37275329 0 39.41011997 0 755.22122023 0 5220
0.06850000 0.06852730 28024.39079815 0 525.57554893 0 9130.29983760 0 1639.43647319 0 2520.89349998 0 5029
0.06950000 0.06949320 28208.71192607 0 -750.30452554 0 12566.02149588 0 -711.64981463 0 872.41013281 0 5040
0.07050000 0.07048030 27708.58433644 0 452.28098838 0 11480.63587912 0 -1089.23131562 0 1745.78910493 0 5475
0.07150000 0.07148790 27416.61439723 0 1407.93660604 0 13149.63183713 0 -1502.44786853 0 2275.87162398 0 5509
0.07250000 0.07249820 26361.87573797 0 481.44942241 0 13464.01030440 0 -29.16052514 0 2296.44572843 0 5916
0.07350000 0.07351270 26575.08629177 0 66.28717216 0 14068.60117928 0 2092.70387619 0 1987.42773257 0 5721
0.07450000 0.07449140 25543.85461783 0 -40.70772753 0 13151.27952301 0 915.52348174 0 4102.89164315 0 6028
0.07550000 0.07549160 26111.53732884 0 -5.50130462 0 12313.15663506 0 2022.07307449 0 4949.12114567 0 6183
0.07650000 0.07648840 26057.60307746 0 83.85798462 0 11677.04003687 0 2092.18760128 0 4184.90246204 0 6330
0.07750000 0.07749960 25252.43390725 0 700.48070123 0 10670.56758953 0 171.97666525 0 5064.40423491 0 6583
0.07850000 0.07848650 23947.13714741 0 848.63512392 0 11024.22688836 0 104.02873556 0 6521.87027872 0 6549
0.07950000 0.07947320 23724.15032401 0 354.29201021 0 11468.22331210 0 -626.15908314 0 6206.39335418 0 6828
0.08050000 0.08048110 23495.45152286 0 -10.95995615 0 10946.23642303 0 1188.81635219 0 5305.86710939 0 7147
0.08150000 0.08149960 23056.06861961 0 -196.70952887 0 9743.21701850 0 1862.48920403 0 4661.07269887 0 7386
0.08250000 0.08250610 23685.70431997 0 -323.90758399 0 9092.26026276 0 -41.32253406 0 4286.27908239 0 7227
0.08350000 0.08350160 22963.68836420 0 982.51619300 0 8700.81403425 0 597.92323932 0 4780.37614167 0 7798
0.08450000 0.08449610 23209.19356139 0 195.77693866 0 9369.44496727 0 135.23766379 0 3782.52658381 0 7371
0.08550000 0.08548940 21892.80238325 0 200.23667513 0 8187.30723521 0 423.68155521 0 3485.60260237 0 8256
0.08650000 0.08650700 21515.15277790 0 398.58620069 0 8895.59247526 0 176.03326790 0 3560.26474220 0 8037
0.08750000 0.08749060 21197.91832175 0 200.75844233 0 7587.00034364 0 53.07426919 0 3293.21879818 0 8155
0.08850000 0.08849210 21012.16919940 0 98.34388971 0 7140.94980483 0 1044.96898041 0 2031.65162178 0 8718
0.08950000 0.08949900 20666.59454599 0 -80.96047406 0 6765.09068482 0 110.70142402 0 1020.22183684 0 8571
0.09050000 0.09049190 20493.14814493 0 739.53195521 0 6633.30876756 0 -603.68245072 0 693.84382247 0 8932
0.09150000 0.09150830 19429.51198188 0 1008.61443899 0 6919.48983702 0 -1620.98239126 0 -380.61543994 0 9285
0.09250000 0.09250820 18640.59997909 0 204.09445702 0 7087.00456889 0 800.33925365 0 416.05167109 0 9204
0.09350000 0.09350330 18749.45709337 0 -439.86732290 0 6569.15886368 0 1422.22753497 0 -1405.88249097 0 9349
0.09450000 0.09448040 18171.77842132 0 206.46712470 0 5832.24782749 0 338.86088265 0 54.17382490 0 9564
0.09550000 0.09549270 18142.99884115 0 472.94846169 0 6286.67959518 0 -10.50665580 0 172.24359036 0 10155
0.09650000 0.09649430 17619.25442047 0 247.52196472 0 6065.84574801 0 245.68424573 0 538.62302424 0 9913
0.09750000 0.09749140 17706.80146395 0 264.46017564 0 6053.78468731 0 32.29420401 0 574.16910111 0 10476
0.09850000 0.09850240 17324.53833812 0 95.19944596 0 6567.66496181 0 181.47063133 0 478.39571123 0 10575
0.09950000 0.09950330 17412.41491877 0 24.22471730 0 6275.28859341 0 30.04555215 0 177.10206681 0 10882
0.10050000 0.10051200 17068.15841407 0 100.05056275 0 6917.76525913 0 -201.39115371 0 343.15475207 0 10875
0.10150000 0.10150300 16913.16609495 0 492.10116244 0 6724.37087426 0 -796.07394412 0 531.73899260 0 11118
0.10250000 0.10250800 16767.07127961 0 42.38100747 0 7389.56363607 0 -123.52261713 0 178.67395915 0 11575
0.10350000 0.10349800 17107.04380101 0 34.89963478 0 7016.09915287 0 528.12067439 0 314.85409927 0 11364
0.10450000 0.10450100 16671.39565243 0 -18.93575544 0 7136.84157469 0 519.95694005 0 208.03682012 0 12093
0.10550000 0.10551000 16488.06313605 0 171.18577602 0 7127.87816346 0 112.89064933 0 388.45732631 0 12067
0.10650000 0.10649700 16616.25309807 0 292.70700403 0 6908.40640329 0 432.64606489 0 108.31052195 0 12054
0.10750000 0.10749900 15932.46345488 0 59.15697625 0 6550.43016743 0 404.29598151 0 1621.76229591 0 12807
0.10850000 0.10850100 15908.84662383 0 291.85899503 0 6702.72028170 0 196.53377571 0 623.93360874 0 12736
0.10950000 0.10950300 15489.23595123 0 309.12894004 0 6371.56837209 0 578.77712931 0 2110.48789920 0 12933
0.11050000 0.11050200 15541.41267099 0 48.90507466 0 6218.79493663 0 462.58891129 0 1655.52887202 0 13428
0.11150000 0.11150900 15243.62090831 0 153.91692947 0 5644.23588319 0 440.25947215 0 2094.43943866 0 13453
0.11250000 0.11250000 15304.91482331 0 24.42364791 0 6057.28876597 0 354.30629015 0 2223.93656482 0 13668
0.11350000 0.11349100 14922.54185175 0 137.09295810 0 5527.56873780 0 -323.44183811 0 1954.17743137 0 13791
0.11450000 0.11448600 14597.50834907 0 239.11986515 0 5631.39491784 0 -50.61921722 0 1619.45553567 0 14205
0.11550000 0.11549300 14347.16993994 0 116.29366992 0 5735.29798989 0 393.55856182 0 1930.51666203 0 14776
0.11650000 0.11649800 14111.11147517 0 213.37971622 0 5390.48127199 0 425.66207364 0 1631.63742666 0 14553
0.11750000 0.11747300 14196.02222122 0 24.26942451 0 5749.22642792 0 -224.42799932 0 1928.34171665 0 14568
0.11850000 0.11849100 13996.32269170 0 254.84757617 0 5410.06676490 0 -227.33781260 0 298.50575990 0 16015
0.11950000 0.11950300 13952.38440137 0 188.67431403 0 5402.42150238 0 -69.20698140 0 969.39621950 0 15270
0.12050000 0.12050700 13676.78147530 0 -25.94896565 0 5461.87000919 0 6.01793104 0 542.47201847 0 15999
0.12150000 0.12150000 13401.83762359 0 66.27563836 0 5393.04067740 0 129.92881986 0 143.91547613 0 15670
0.12250000 0.12250700 13386.89860488 0 419.10208690 0 5474.82082027 0 75.08680341 0 491.02796970 0 16887
0.12350000 0.12352200 13089.10684220 0 162.56728037 0 5571.23241381 0 333.33234727 0 295.30815082 0 16407
0.12450000 0.12449800 13142.82140213 0 126.14243770 0 5588.70886879 0 394.06604907 0 830.89064537 0 16306
0.12550000 0.12549900 12792.41353678 0 -103.30276516 0 4885.60834700 0 514.29988517 0 1129.60950598 0 17523
0.12650000 0.12650100 12688.06009726 0 -30.59862538 0 5039.79879233 0 216.30271099 0 785.37606888 0 17154
0.12750000 0.12750600 12487.37195620 0 309.58809518 0 4795.72158957 0 94.87781768 0 1454.13771832 0 18007
0.12850000 0.12850300 12583.04758338 0 108.50187320 0 4586.75108078 0 308.42043511 0 1288.99565413 0 17496
0.12950000 0.12949900 12622.59204467 0 -186.04021352 0 4152.98129412 0 322.57845071 0 1016.69029675 0 18405
0.13050000 0.13049000 12619.51636435 0 194.64882306 0 3898.62253143 0 -88.63517523 0 113.66945553 0 18100
0.13150000 0.13148800 12328.86457385 0 77.63610302 0 4065.86264898 0 -437.62866701 0 347.77706021 0 19059
0.13250000 0.13249300 11858.61502164 0 221.74227133 0 4397.37704948 0 -322.34338086 0 129.04456177 0 18957
0.13350000 0.13349100 11939.02209294 0 253.38552956 0 4574.78888124 0 153.79609917 0 -616.49595464 0 19468
0.13450000 0.13450700 11765.57569188 0 123.03929594 0 4326.93298552 0 -23.64418264 0 -328.06524471 0 19953
0.13550000 0.13551000 11657.48749768 0 -190.14844367 0 3726.80184711 0 581.85171118 0 -523.79934354 0 19956
0.13650000 0.13649900 11752.06466760 0 -44.56331251 0 3976.38232073 0 388.05638941 0 -365.87743891 0 19723
0.13750000 0.13749600 11701.53563373 0 351.61067604 0 3684.02792148 0 -276.83319820 0 -195.29361747 0 20946
0.13850000 0.13851100 11411.87245476 0 57.79873385 0 3875.14849982 0 -23.47886482 0 92.44583331 0 20955
0.13950000 0.13949800 11192.51054031 0 92.86126984 0 3811.31714855 0 431.84528955 0 -29.20171729 0 20506
0.14050000 0.14048300 11259.40658733 0 45.50512976 0 3486.29463044 0 -17.45844028 0 -357.95316825 0 21447
0.14150000 0.14148400 11064.10088683 0 254.97609567 0 3858.35308834 0 -164.76089952 0 -277.22644589 0 21771
0.14250000 0.14249400 10826.39473617 0 168.93833247 0 3401.98803588 0 -9.88580776 0 -225.11014128 0 22470
0.14350000 0.14350900 10886.80988537 0 -212.23512376 0 3159.77821046 0 549.32749022 0 -302.95670871 0 22519
0.14450000 0.14449900 10948.82878216 0 92.35905518 0 3445.46497415 0 159.31364998 0 -581.26293809 0 22218
0.14550000 0.14550500 10642.42511458 0 311.03586184 0 2915.94266830 0 -175.61805106 0 -501.13597339 0 23559
0.14650000 0.14650700 10187.74070172 0 187.50006322 0 3218.06235258 0 -219.10377699 0 -504.58622764 0 23044
0.14750000 0.14750500 10222.88034941 0 190.77895814 0 3079.86544493 0 46.34907447 0 -1044.91076217 0 23649
0.14850000 0.14849900 9972.88246203 0 68.02207556 0 3408.93028575 0 183.84110209 0 -341.36206982 0 23640
0.14950000 0.14949500 9922.67198076 0 29.79894850 0 3290.68136191 0 98.47691288 0 -852.52915490 0 24457
0.15050000 0.15050000 9942.70784115 0 21.15540803 0 3229.72796866 0 100.74171206 0 -321.49756877 0 24591
0.15150000 0.15149900 9933.83230650 0 -70.91321506 0 2732.61015192 0 393.65083223 0 -490.09867486 0 25020
0.15250000 0.15250500 9917.25658648 0 13.62284722 0 2876.78266705 0 10.39352568 0 -517.55790940 0 25297
0.15350000 0.15350100 9807.96008929 0 282.70664915 0 3143.57596590 0 -245.66557195 0 -619.89677831 0 25452
0.15450000 0.15450400 9633.97544418 0 254.49277448 0 2971.56854385 0 -216.52350089 0 -383.88774412 0 26061
0.15550000 0.15549900 9289.08183427 0 -48.62299084 0 3270.27202605 0 174.11755844 0 165.80004009 0 26128
0.15650000 0.15649500 9332.73452571 0 121.00934693 0 3181.94507793 0 437.87801681 0 -333.50150968 0 26331
0.15750000 0.15749700 9426.01551607 0 0.78596155 0 2876.46411444 0 247.44287580 0 243.37858394 0 27345
0.15850000 0.15849900 9144.06350705 0 124.89349179 0 2720.02183174 0 412.26419046 0 232.52912160 0 26980
0.15950000 0.15949700 9283.19410336 0 159.80795574 0 3017.80260985 0 -234.82819264 0 949.00445896 0 27777
0.16050000 0.16050000 8893.13193100 0 23.40065466 0 2738.66265141 0 85.41010472 0 903.19879130 0 28224
0.16150000 0.16150500 8972.67122106 0 80.31535011 0 3020.66958329 0 213.11279111 0 947.01185750 0 28075
0.16250000 0.16249700 8915.37569048 0 -35.13118957 0 2821.64011269 0 -117.12739898 0 821.19785852 0 28590
0.16350000 0.16349900 9071.98274177 0 172.26665796 0 2908.97844928 0 -90.95984033 0 242.47015979 0 29163
0.16450000 0.16449100 8842.30631367 0 49.72847822 0 3170.57604531 0 -306.80350603 0 354.99831823 0 28996
0.16550000 0.16550500 8651.17475075 0 250.43507337 0 3384.97293295 0 -522.74921840 0 -468.79189943 0 30777
0.16650000 0.16650700 8627.66776543 0 73.72416718 0 3474.60704521 0 130.27593236 0 -61.39321554 0 29211
0.16750000 0.16749900 8304.13914919 0 -85.65187517 0 3106.15152712 0 232.81142512 0 -288.47025439 0 30922
0.16850000 0.16850800 8535.29849459 0 -40.04491842 0 3012.42016928 0 578.49921962 0 -200.40034526 0 30867
0.16950000 0.16949900 8556.91613343 0 108.57590922 0 2526.25397140 0 289.34352791 0 -306.34435089 0 30852
0.17050000 0.17049200 8344.51843800 0 150.06244295 0 2519.05907636 0 206.31224222 0 -23.75424805 0 31257
0.17150000 0.17149500 8158.29697903 0 180.91041813 0 2500.04478122 0 84.35910082 0 385.64637419 0 32608
0.17250000 0.17250900 7944.55916574 0 -21.78800956 0 2401.80974863 0 -102.98432240 0 190.05507480 0 32361
0.17350000 0.17350400 7876.35595458 0 230.74083319 0 2277.44241786 0 102.45211985 0 155.35590848 0 32508
0.17450000 0.17449800 7732.67774522 0 142.15794452 0 2567.17150427 0 -123.78954225 0 305.51391720 0 32791
0.17550000 0.17549800 7569.96327157 0 -49.22110082 0 2082.29050138 0 253.95343197 0 353.05295042 0 33633
0.17650000 0.17650100 7533.98879637 0 -49.75066706 0 2382.08145627 0 366.90889028 0 297.39082578 0 33984
0.17750000 0.17750300 7723.52759626 0 55.27151324 0 1861.41271592 0 224.60265403 0 258.37362397 0 34069
0.17850000 0.17849800 7627.65424677 0 -20.74249794 0 1763.38639020 0 1.66840279 0 562.38485165 0 34536
