### header ###
fiducial parameters:
Omega_m = 0.31
Omega_nu = 0
Omega_de = 0.69
Omega_k = 0
H_0 = 100
w_de = -1
zeff = 0
beta = 0
fgrowth = 0
b_1 = 2
gamma = 0.55
Lx = 3500 Ly = 3500 Lz = 3500
nx = 700 ny = 700 nz = 700
xoffset = -983.599254 yoffset = -42.9823471 zoffset = 800.977702
bins = 400 dk = 0.001
kx_ny = 0.628318531 ky_ny = 0.628318531 kz_ny = 0.628318531
############################
A(data) = 9.09818443 (not used)
A(ran) = 9.11011562 (used)
Ngal = 506132
weighted Ngal = 0
Nran = 25229228
weighted Nran = 0
SN(data) = 6690.29858
SN(ran) = 135.23339
SN(data+ran) = 6825.53197
############################
13 columns: k_central k_mean P_0(k) sigma^{lin}_{P_0(k)} P^img_1(k) sigma^{lin}_{P_1(k)} P_2(k) sigma^{lin}_{P_2(k)} P^img_3(k) sigma^{lin}_{P_3(k)} P_4(k) sigma^{lin}_{P_4(k)} N_modes
### header ###
0.00050000 0 0 0 0 0 0 0 0 0 0 0 0
0.00150000 0.00179520 33004.68616081 0 -12717.71844323 0 49435.08029080 0 -83736.16570766 0 96467.06563799 0 3
0.00250000 0.00253879 44426.11519371 0 -14729.21337432 0 -23935.93288338 0 2359.92557338 0 -40756.60887719 0 6
0.00350000 0.00331552 54065.62686247 0 -6715.78093850 0 -28441.03563616 0 39074.32158635 0 12303.38036546 0 7
0.00450000 0.00420575 72895.71071858 0 -690.17058140 0 -12782.63726718 0 -11103.86503958 0 6638.76810013 0 24
0.00550000 0.00557378 82418.01699790 0 -2503.62575188 0 3574.16022652 0 -23578.49489158 0 7804.24223558 0 45
0.00650000 0.00659388 89784.49106240 0 -749.98377602 0 1838.56480495 0 -24849.19024779 0 -39065.53392829 0 40
0.00750000 0.00754703 56626.35042263 0 6733.44413121 0 11565.98600807 0 -6201.92263314 0 4140.26115907 0 57
0.00850000 0.00846663 68273.40257635 0 -1342.79809063 0 28633.70503924 0 -4457.80318325 0 -11743.49670099 0 75
0.00950000 0.00948925 61411.88931342 0 3181.69243276 0 -2570.00552399 0 10926.06874777 0 -12562.61627838 0 112
0.01050000 0.01054430 66759.50878319 0 480.75080360 0 26591.45330492 0 1237.60982359 0 -12616.11114685 0 105
0.01150000 0.01145670 77547.34766961 0 -859.04849872 0 4332.15065749 0 -12170.90642013 0 -16424.35261508 0 144
0.01250000 0.01249090 60874.19448556 0 167.32360030 0 4209.27722860 0 -267.60066494 0 -14340.24965922 0 169
0.01350000 0.01339930 70893.66251991 0 -10420.16327297 0 -1022.88120186 0 17674.28712911 0 -10770.58212289 0 180
0.01450000 0.01448870 80776.70216279 0 -3968.87985766 0 -3559.05643922 0 612.15704847 0 -27497.68054288 0 267
0.01550000 0.01550050 81987.86113561 0 10922.20217823 0 7808.68000291 0 -22219.48357182 0 -12643.57257830 0 238
0.01650000 0.01653350 68273.84195926 0 4847.99717049 0 9312.01762182 0 -10334.82412858 0 2522.16771040 0 315
0.01750000 0.01747870 72002.55512200 0 -3975.03121830 0 15564.48027341 0 9340.54455681 0 -25322.73517177 0 297
0.01850000 0.01844180 75156.22591010 0 848.58129951 0 18802.29288749 0 -10065.13090257 0 -23995.46926677 0 388
0.01950000 0.01947590 72315.06621193 0 1940.83117568 0 28760.79654401 0 -4806.48647070 0 -11065.63872699 0 399
0.02050000 0.02045430 71859.64583271 0 2781.70020678 0 26453.59691902 0 2448.17562949 0 -1543.92561460 0 462
0.02150000 0.02154770 76282.58398259 0 -973.90318963 0 22293.51959101 0 4000.74610271 0 -20827.95791721 0 571
0.02250000 0.02255340 76185.80989815 0 -2661.25436843 0 30484.16613629 0 3163.30425826 0 -9812.95806982 0 510
0.02350000 0.02348930 76567.74348680 0 4733.81253850 0 32239.61068052 0 -3479.36336514 0 -6896.57601862 0 555
0.02450000 0.02439640 75276.61682559 0 -2463.99341401 0 22654.36280031 0 -5468.01038527 0 -9069.43432093 0 592
0.02550000 0.02547300 70656.61544360 0 5079.16750046 0 27746.04172894 0 353.33525394 0 -21264.59467732 0 837
0.02650000 0.02652900 67937.16480964 0 1941.76486435 0 32024.09336647 0 296.92507990 0 -9901.12024936 0 723
0.02750000 0.02749970 66984.47282966 0 -79.81928682 0 28757.28148078 0 9609.91923022 0 -13975.23231234 0 826
0.02850000 0.02848090 65117.75456519 0 2762.81772651 0 23780.61102708 0 -3107.38179925 0 -13361.52424222 0 831
0.02950000 0.02946900 57897.48516174 0 2334.13379695 0 23236.76483857 0 1564.09328986 0 -9953.13220053 0 996
0.03050000 0.03053250 56807.04664159 0 1387.69203877 0 25435.65657791 0 4818.28390165 0 -15718.04459810 0 1041
0.03150000 0.03150510 56187.29705655 0 2624.80755660 0 24841.72073843 0 313.46564930 0 -14249.84662687 0 1036
0.03250000 0.03246190 55169.24686972 0 2583.15405737 0 19771.90110924 0 -2306.29889003 0 -12420.14637200 0 1059
0.03350000 0.03345080 51580.14762449 0 -553.10838010 0 22640.08285595 0 668.75176332 0 -7356.06068969 0 1302
0.03450000 0.03451200 50232.88979739 0 70.44757903 0 19664.03260649 0 6416.28656707 0 -7694.80293896 0 1339
0.03550000 0.03553350 51909.13557330 0 758.39136787 0 15063.14438080 0 5743.06408270 0 -5767.90020131 0 1365
0.03650000 0.03647120 51731.73472611 0 245.94128472 0 15662.79219801 0 3221.03917175 0 -3595.79983450 0 1308
0.03750000 0.03744890 50736.31275879 0 -1682.84750403 0 10944.79744403 0 -337.15278161 0 -2608.87992636 0 1579
0.03850000 0.03847530 48432.29865985 0 2986.72725401 0 14674.07081996 0 -527.19357647 0 -3091.12463183 0 1662
0.03950000 0.03950240 47577.69891302 0 3679.38144727 0 15041.17523563 0 -6808.28202421 0 -5750.85214466 0 1683
0.04050000 0.04050350 43022.94589217 0 1510.30183793 0 20420.64996589 0 -25.53089282 0 -1437.81464346 0 1822
0.04150000 0.04152450 42404.07507294 0 -912.43681684 0 18900.71465781 0 2421.48311812 0 -8206.27759206 0 1887
0.04250000 0.04250150 42274.78665365 0 2265.94157037 0 22182.90494512 0 2033.14552365 0 -3516.43629760 0 1920
0.04350000 0.04349210 38846.50155102 0 375.38458648 0 17229.52178529 0 -749.46530420 0 506.21523975 0 2005
0.04450000 0.04448520 41834.85452177 0 399.99222598 0 21339.17992515 0 2569.76386340 0 -3808.28540652 0 2151
0.04550000 0.04548030 41961.39679791 0 -907.65193702 0 15987.49616352 0 3635.17952721 0 1702.77351870 0 2274
0.04650000 0.04648670 41047.59020487 0 -1392.86577246 0 16087.67546546 0 1905.28509881 0 -1587.42452202 0 2311
0.04750000 0.04749250 41262.44844456 0 745.95793017 0 13681.06545861 0 660.53200766 0 2100.46996900 0 2568
0.04850000 0.04851840 40854.48141889 0 1506.40231466 0 13433.91257553 0 -236.88889846 0 3160.27251623 0 2493
0.04950000 0.04949480 38320.12083292 0 1437.97941205 0 15266.24912782 0 891.42772332 0 2338.58254885 0 2644
0.05050000 0.05050630 37760.56670563 0 1993.34841719 0 17884.31215686 0 41.54727841 0 1126.09444275 0 2829
0.05150000 0.05149060 35839.58465260 0 1051.00390458 0 17964.93891961 0 -1702.75154955 0 3806.11046115 0 2784
0.05250000 0.05249300 34528.13653211 0 -682.69777667 0 16962.70651729 0 2778.75634133 0 3468.42273085 0 3055
0.05350000 0.05348950 34813.18619060 0 -179.88226213 0 16681.83099638 0 2734.99380417 0 3997.63746867 0 3009
0.05450000 0.05448610 35239.82698966 0 529.81339703 0 13588.90489465 0 3089.35611564 0 5219.33064660 0 3336
0.05550000 0.05550870 34390.93922057 0 87.35349530 0 14616.95104254 0 102.05645555 0 5568.40937866 0 3349
0.05650000 0.05647670 34793.19426850 0 1055.53943460 0 13011.33606833 0 -536.48982024 0 2886.72370523 0 3324
0.05750000 0.05747970 33317.52678792 0 1378.60779725 0 15804.71287576 0 -2251.27716597 0 3887.07774564 0 3639
0.05850000 0.05849280 30866.64895357 0 1097.00729455 0 14777.10611078 0 373.40187113 0 3809.51567865 0 3846
0.05950000 0.05951020 30939.25697834 0 -985.32275129 0 15721.33996987 0 2160.21505927 0 3305.03819827 0 3787
0.06050000 0.06049470 30739.44760308 0 -88.09857886 0 12341.05744941 0 2088.11232485 0 990.91060336 0 3930
0.06150000 0.06148310 31528.57929733 0 -24.82645218 0 12473.20185757 0 1442.04370391 0 773.92135659 0 4083
0.06250000 0.06249100 31588.22552644 0 110.49161868 0 11301.69719177 0 620.42074242 0 2553.16617423 0 4303
0.06350000 0.06350600 32145.47289349 0 583.51477547 0 11443.17848661 0 50.94600825 0 1348.77369812 0 4470
0.06450000 0.06451750 30818.42667994 0 322.88711720 0 12217.48100787 0 -1260.79825631 0 1669.25958775 0 4479
0.06550000 0.06550280 29774.34305609 0 -200.49810796 0 11674.84312235 0 692.80028808 0 1116.10946627 0 4636
0.06650000 0.06648880 30848.74410027 0 656.41279294 0 13287.15868584 0 -906.31950837 0 -403.60724881 0 4653
0.06750000 0.06749660 29130.97664000 0 805.35590795 0 13179.29018310 0 134.60055858 0 164.19189866 0 5220
0.06850000 0.06852730 29081.32637193 0 415.20695746 0 14381.00242349 0 -224.03035780 0 622.44300224 0 5029
0.06950000 0.06949320 29678.88712035 0 -274.02114761 0 14048.38956573 0 1239.21357119 0 1462.91439181 0 5040
0.07050000 0.07048030 28944.78813474 0 -309.02678352 0 13396.23549158 0 1144.20800294 0 -801.86610924 0 5475
0.07150000 0.07148790 29354.51269203 0 478.82520802 0 12155.41817279 0 860.87852852 0 1524.26322968 0 5509
0.07250000 0.07249820 28763.98207005 0 754.68077926 0 11849.93720930 0 507.65641568 0 1030.29688681 0 5916
0.07350000 0.07351270 28258.58188559 0 40.88677606 0 11343.98779620 0 933.32288315 0 2970.81060834 0 5721
0.07450000 0.07449140 27527.00935167 0 1032.58717019 0 11944.29468778 0 663.24080326 0 1652.06873166 0 6028
0.07550000 0.07549160 26300.69166869 0 320.31672722 0 9778.20288217 0 817.20606485 0 1852.75687272 0 6183
0.07650000 0.07648840 25545.72199517 0 272.18782245 0 9942.29042739 0 198.11006188 0 2555.76951793 0 6330
0.07750000 0.07749960 24971.99776925 0 733.43771434 0 10790.20056952 0 -753.47247627 0 1065.87701586 0 6583
0.07850000 0.07848650 24064.34253685 0 653.08556591 0 9643.77368292 0 710.21852482 0 1213.36687191 0 6549
0.07950000 0.07947320 23751.28221828 0 86.37828495 0 8609.24663721 0 1688.14206802 0 -131.39416185 0 6828
0.08050000 0.08048110 23744.80132046 0 -184.47491193 0 8868.57042671 0 398.63892664 0 -603.31886137 0 7147
0.08150000 0.08149960 23484.90633319 0 671.98891686 0 7541.69996632 0 401.06432026 0 -199.27552503 0 7386
0.08250000 0.08250610 22961.49144968 0 -245.50629565 0 7620.41541344 0 723.80314573 0 1447.56894391 0 7227
0.08350000 0.08350160 22951.82502581 0 -236.38800195 0 6060.92465949 0 740.12402367 0 -114.26701628 0 7798
0.08450000 0.08449610 22886.24712750 0 311.43240491 0 5969.88452194 0 828.17855440 0 -867.44071218 0 7371
0.08550000 0.08548940 22649.85912555 0 827.17017064 0 5849.19702298 0 -427.08457579 0 1630.37420081 0 8256
0.08650000 0.08650700 21948.60401196 0 195.28922364 0 7381.89640440 0 -900.94585546 0 984.57799727 0 8037
0.08750000 0.08749060 21119.92785642 0 237.03828865 0 7272.72073752 0 -137.38734465 0 410.70108579 0 8155
0.08850000 0.08849210 21177.70670820 0 294.75342990 0 6744.67036439 0 300.61369938 0 -355.03346886 0 8718
0.08950000 0.08949900 20652.31460164 0 453.13448967 0 7383.57704401 0 -51.89408671 0 243.84982211 0 8571
0.09050000 0.09049190 20394.28699170 0 365.95433092 0 7744.10170070 0 -478.51983690 0 -686.62805674 0 8932
0.09150000 0.09150830 19945.12781885 0 425.44677602 0 7315.61549345 0 979.34384843 0 704.74051847 0 9285
0.09250000 0.09250820 19473.88965511 0 214.86702735 0 6970.24954692 0 700.19400388 0 1511.76278608 0 9204
0.09350000 0.09350330 19191.47629404 0 -45.78292960 0 6938.62496246 0 838.64026133 0 46.56744777 0 9349
0.09450000 0.09448040 18576.88945812 0 334.10126735 0 6042.20694781 0 681.68609754 0 1974.44396778 0 9564
0.09550000 0.09549270 19113.59567444 0 176.76264352 0 6002.59657908 0 319.03922142 0 780.90424938 0 10155
0.09650000 0.09649430 18298.10100600 0 308.87080259 0 6548.14537634 0 -296.99647963 0 2436.87250431 0 9913
0.09750000 0.09749140 17749.75114274 0 179.70980435 0 5822.62534191 0 -609.39113310 0 1182.81877556 0 10476
0.09850000 0.09850240 17437.56958998 0 445.26294496 0 6491.53088925 0 361.55061577 0 1594.12511129 0 10575
0.09950000 0.09950330 17396.04790562 0 28.80451514 0 5923.77128624 0 473.69541263 0 613.04789731 0 10882
0.10050000 0.10051200 17807.85953170 0 -454.28457442 0 6006.61693265 0 674.99539438 0 779.22141286 0 10875
0.10150000 0.10150300 17475.24667393 0 336.70351259 0 5834.09323569 0 -642.15371928 0 69.52103033 0 11118
0.10250000 0.10250800 16760.81007324 0 562.81215152 0 5680.71564873 0 -960.94359090 0 -224.93988041 0 11575
0.10350000 0.10349800 16942.49490374 0 46.91488980 0 6189.08166780 0 386.52184462 0 -330.38079261 0 11364
0.10450000 0.10450100 16640.96838638 0 251.75871436 0 5989.23933882 0 -130.90974220 0 -1720.92003260 0 12093
0.10550000 0.10551000 16144.79524288 0 179.09137291 0 5638.69965861 0 815.20138035 0 -1641.20498938 0 12067
0.10650000 0.10649700 16435.99626201 0 177.96215885 0 6340.15249451 0 -526.37632427 0 -1684.72586595 0 12054
0.10750000 0.10749900 15839.97335375 0 168.38141464 0 4940.00395043 0 355.12244390 0 -1525.66925497 0 12807
0.10850000 0.10850100 15601.05890010 0 349.15232870 0 5736.35250886 0 378.58219556 0 -1221.12198015 0 12736
0.10950000 0.10950300 15009.42982087 0 97.84694765 0 5359.46083902 0 32.58639364 0 -216.02260438 0 12933
0.11050000 0.11050200 15109.71896854 0 100.87539431 0 5251.74612029 0 475.58146374 0 -744.35198566 0 13428
0.11150000 0.11150900 14728.11491706 0 207.50626526 0 4784.56126383 0 590.84807612 0 -1071.66149178 0 13453
0.11250000 0.11250000 14732.72843755 0 -76.41868284 0 4048.52899344 0 709.11787065 0 465.15820282 0 13668
0.11350000 0.11349100 14779.74240820 0 -202.97293216 0 4028.42722562 0 446.47234640 0 -546.35396642 0 13791
0.11450000 0.11448600 14765.79200102 0 338.76311995 0 3636.40979934 0 -533.73488944 0 -886.50773326 0 14205
0.11550000 0.11549300 14148.34917622 0 658.09453101 0 4129.73793854 0 -662.83107870 0 -1029.23358018 0 14776
0.11650000 0.11649800 13725.55297757 0 194.07323145 0 4431.69285423 0 -642.24928506 0 -645.11406159 0 14553
0.11750000 0.11747300 13296.16603536 0 108.14026107 0 4600.31702792 0 715.97444085 0 -1193.96811673 0 14568
0.11850000 0.11849100 13517.39532715 0 -38.69930828 0 4424.49795918 0 783.97224050 0 -385.27839100 0 16015
0.11950000 0.11950300 13153.69612898 0 150.09210129 0 4161.77993676 0 165.83409226 0 292.06989882 0 15270
0.12050000 0.12050700 13257.61018560 0 169.35684469 0 4293.28723970 0 519.54611704 0 823.00152534 0 15999
0.12150000 0.12150000 12977.72327623 0 56.36019423 0 4402.72653633 0 69.48752738 0 1260.19410482 0 15670
0.12250000 0.12250700 13011.44591405 0 105.32557420 0 4320.34224197 0 273.05889906 0 1084.56287228 0 16887
0.12350000 0.12352200 12911.59614929 0 4.76054899 0 4565.32017968 0 -602.53126752 0 1567.74016795 0 16407
0.12450000 0.12449800 12985.85185994 0 51.58124608 0 4532.93765971 0 -8.17374129 0 918.04444114 0 16306
0.12550000 0.12549900 12898.30481646 0 115.66315545 0 4756.70438776 0 -81.96600184 0 1209.68704009 0 17523
0.12650000 0.12650100 13199.83133382 0 -6.84374022 0 4513.26429021 0 639.03300221 0 1177.02990581 0 17154
0.12750000 0.12750600 13114.70089632 0 -83.68805328 0 4389.98443213 0 92.00205658 0 519.13639248 0 18007
0.12850000 0.12850300 13059.88787914 0 117.96222649 0 4345.58478976 0 -76.18910527 0 845.57921582 0 17496
0.12950000 0.12949900 12673.78015290 0 293.83402118 0 4264.51864411 0 -125.38669910 0 928.02062996 0 18405
0.13050000 0.13049000 12681.68904516 0 91.17129335 0 4084.29476177 0 566.52054322 0 1136.93621589 0 18100
0.13150000 0.13148800 12645.43995564 0 -201.49990097 0 3909.77187260 0 214.17719619 0 112.02396656 0 19059
0.13250000 0.13249300 12406.96488490 0 137.29397578 0 3201.51958627 0 437.69567291 0 601.70083383 0 18957
0.13350000 0.13349100 12512.52662741 0 65.28043609 0 3861.67042926 0 -415.05317344 0 389.90289606 0 19468
0.13450000 0.13450700 12311.61879490 0 372.70105540 0 3553.42135348 0 -461.27955024 0 -80.70826828 0 19953
0.13550000 0.13551000 12055.45856230 0 210.59952090 0 3880.06958834 0 14.13417908 0 -206.94055977 0 19956
0.13650000 0.13649900 12062.81822593 0 -225.22328238 0 3529.89239901 0 279.55956911 0 -54.31860157 0 19723
0.13750000 0.13749600 11914.74618753 0 -82.93022762 0 3485.91017040 0 673.27521031 0 -403.71050380 0 20946
0.13850000 0.13851100 11960.33216374 0 269.93708353 0 2916.74454210 0 196.07681749 0 -415.26297878 0 20955
0.13950000 0.13949800 11689.01322098 0 343.03392177 0 3199.07002658 0 -32.73677244 0 303.92554801 0 20506
0.14050000 0.14048300 11433.40221702 0 81.01924153 0 3276.66504730 0 -120.36235560 0 509.45239329 0 21447
0.14150000 0.14148400 11126.16372192 0 83.75121457 0 3440.56585478 0 54.80082431 0 653.56009944 0 21771
0.14250000 0.14249400 10906.18667140 0 187.74062536 0 3020.12035466 0 151.01370693 0 196.18556476 0 22470
0.14350000 0.14350900 11026.20411143 0 121.25210598 0 3555.10199309 0 -84.16939725 0 256.12618042 0 22519
0.14450000 0.14449900 10840.22431305 0 144.25819480 0 3469.91663272 0 16.97226310 0 80.67059119 0 22218
0.14550000 0.14550500 10851.05510162 0 -33.47196988 0 3330.32468436 0 422.98952713 0 683.41506926 0 23559
0.14650000 0.14650700 10861.81998275 0 -229.39082922 0 3005.57678056 0 240.64342537 0 -7.92447937 0 23044
0.14750000 0.14750500 10856.38261932 0 324.42935119 0 3023.96495506 0 -462.80860274 0 -278.77087680 0 23649
0.14850000 0.14849900 10444.25244064 0 349.35774021 0 3384.65438034 0 -380.18923853 0 355.21471431 0 23640
0.14950000 0.14949500 10164.46439242 0 122.94702553 0 3571.41408337 0 -186.61800204 0 59.69181509 0 24457
0.15050000 0.15050000 10132.04891873 0 -76.98999046 0 3160.86568314 0 771.42566170 0 35.82321764 0 24591
0.15150000 0.15149900 10168.19914710 0 -36.52743859 0 3012.60690701 0 477.18301442 0 34.65347051 0 25020
0.15250000 0.15250500 10125.66688206 0 334.45387213 0 2759.92878393 0 -121.35316405 0 108.66433503 0 25297
0.15350000 0.15350100 9567.48582634 0 351.39318151 0 3146.30013990 0 -648.69832762 0 197.00281696 0 25452
0.15450000 0.15450400 9561.54317258 0 169.60839140 0 3116.45505620 0 175.29949845 0 67.13605993 0 26061
0.15550000 0.15549900 9222.40547870 0 -145.25229861 0 3175.18956579 0 454.45922912 0 107.14769510 0 26128
0.15650000 0.15649500 9378.14474876 0 -30.97023347 0 2671.63478952 0 312.40344113 0 -27.10333439 0 26331
0.15750000 0.15749700 9210.71789347 0 173.48594552 0 2699.25000499 0 -92.48405962 0 312.84611940 0 27345
0.15850000 0.15849900 9091.27165122 0 151.97046321 0 2516.10422634 0 30.01226890 0 102.52637557 0 26980
0.15950000 0.15949700 9115.54755663 0 33.00018249 0 2578.59545975 0 224.10505289 0 95.57973186 0 27777
0.16050000 0.16050000 9041.40169170 0 -116.65066853 0 1967.31498017 0 453.11581589 0 65.45596955 0 28224
0.16150000 0.16150500 9006.26204402 0 13.53991370 0 2177.96612857 0 373.35353901 0 802.36920266 0 28075
0.16250000 0.16249700 9067.67678932 0 69.65339443 0 2011.02259447 0 -177.23278323 0 355.72879230 0 28590
0.16350000 0.16349900 8867.55984603 0 318.48779588 0 1867.37733883 0 -103.12865968 0 268.55522430 0 29163
0.16450000 0.16449100 8551.87421462 0 99.15290348 0 2330.51987258 0 -200.15429083 0 608.90781190 0 28996
0.16550000 0.16550500 8578.52278770 0 56.11611703 0 2373.52447423 0 94.86123097 0 773.65333302 0 30777
0.16650000 0.16650700 8383.64548553 0 105.51967159 0 2298.68658123 0 136.39214237 0 488.30489416 0 29211
0.16750000 0.16749900 8439.63385198 0 -43.79878625 0 2354.22458021 0 279.63755958 0 691.48433628 0 30922
0.16850000 0.16850800 8261.58491501 0 200.17406306 0 2469.55160774 0 -435.46250930 0 381.61393759 0 30867
0.16950000 0.16949900 8289.05733103 0 223.39874487 0 2599.20251792 0 -341.76080981 0 377.88906903 0 30852
0.17050000 0.17049200 8067.58637865 0 24.56908365 0 2603.67323896 0 66.41832796 0 521.20259058 0 31257
0.17150000 0.17149500 8033.86374083 0 -4.74468727 0 2722.21874625 0 195.14093191 0 -178.83653083 0 32608
0.17250000 0.17250900 7909.36459519 0 68.84405112 0 2535.87645698 0 -102.69762505 0 -128.69854773 0 32361
0.17350000 0.17350400 7760.56757500 0 179.33742733 0 2705.28053533 0 -62.19772564 0 327.18757737 0 32508
0.17450000 0.17449800 7807.35086963 0 7.34039669 0 2442.41971346 0 108.97080461 0 74.20199609 0 32791
0.17550000 0.17549800 7727.95437901 0 -37.67236059 0 2426.43716036 0 356.24726413 0 -157.53414922 0 33633
0.17650000 0.17650100 7793.60916933 0 55.65388621 0 2235.01999855 0 130.04525633 0 -125.94471539 0 33984
0.17750000 0.17750300 7678.37001838 0 144.41417573 0 2343.87711283 0 -141.00566285 0 141.24402808 0 34069
0.17850000 0.17849800 7536.48229434 0 154.72429555 0 2075.13954463 0 -21.91433215 0 -71.74331921 0 34536
