### header ###
fiducial parameters:
Omega_m = 0.31
Omega_nu = 0
Omega_de = 0.69
Omega_k = 0
H_0 = 100
w_de = -1
zeff = 0
beta = 0
fgrowth = 0
b_1 = 2
gamma = 0.55
Lx = 3500 Ly = 3500 Lz = 3500
nx = 700 ny = 700 nz = 700
xoffset = -983.599254 yoffset = -42.9823471 zoffset = 800.977702
bins = 400 dk = 0.001
kx_ny = 0.628318531 ky_ny = 0.628318531 kz_ny = 0.628318531
############################
A(data) = 9.13907734 (not used)
A(ran) = 9.13975537 (used)
Ngal = 507659
weighted Ngal = 0
Nran = 25229228
weighted Nran = 0
SN(data) = 6694.09351
SN(ran) = 135.673372
SN(data+ran) = 6829.76688
############################
13 columns: k_central k_mean P_0(k) sigma^{lin}_{P_0(k)} P^img_1(k) sigma^{lin}_{P_1(k)} P_2(k) sigma^{lin}_{P_2(k)} P^img_3(k) sigma^{lin}_{P_3(k)} P_4(k) sigma^{lin}_{P_4(k)} N_modes
### header ###
0.00050000 0 0 0 0 0 0 0 0 0 0 0 0
0.00150000 0.00179520 29120.54129604 0 -41500.81366957 0 -20335.62937411 0 -31932.81156832 0 -20202.49635443 0 3
0.00250000 0.00253879 43828.22490811 0 -35451.60954903 0 -15273.71863718 0 -34479.80441276 0 18975.51959709 0 6
0.00350000 0.00331552 44248.82419225 0 -2060.43120195 0 3517.13931025 0 -42714.82863126 0 -22097.66466189 0 7
0.00450000 0.00420575 59987.62963252 0 5084.13252727 0 -11707.46730292 0 -17901.55793582 0 38525.64218592 0 24
0.00550000 0.00557378 59581.20044701 0 -9727.66286372 0 2527.28652123 0 4598.99887921 0 -9748.25893731 0 45
0.00650000 0.00659388 64483.28565289 0 -18161.12338591 0 940.56611031 0 10885.21712234 0 -23224.68180873 0 40
0.00750000 0.00754703 77176.50849926 0 9053.72638214 0 -4247.19597315 0 -13510.03566352 0 -25412.14959258 0 57
0.00850000 0.00846663 93437.08113715 0 9577.81132457 0 25706.42629204 0 -30656.95346300 0 3712.73060963 0 75
0.00950000 0.00948925 67133.42363386 0 9151.71975414 0 31230.56784319 0 -12787.36063339 0 -6709.64056243 0 112
0.01050000 0.01054430 65008.12853082 0 3937.60677952 0 45699.99607597 0 -5863.78453537 0 -10774.51459987 0 105
0.01150000 0.01145670 61758.34273263 0 1386.03336831 0 43144.76480210 0 26139.54798892 0 4226.08362465 0 144
0.01250000 0.01249090 66938.55731627 0 -8888.68317911 0 36360.47308441 0 14826.20715022 0 -2669.88824248 0 169
0.01350000 0.01339930 65087.10760768 0 -3156.91123702 0 22172.68929262 0 12589.63832693 0 4156.52931106 0 180
0.01450000 0.01448870 65448.17050843 0 2381.48828935 0 21456.60500604 0 11802.81339293 0 18237.90554826 0 267
0.01550000 0.01550050 78202.24788691 0 -3708.11708915 0 6825.38500372 0 -540.33881448 0 21461.54806370 0 238
0.01650000 0.01653350 83296.78280441 0 -3388.61981105 0 10689.69173040 0 10964.14127634 0 16311.87059184 0 315
0.01750000 0.01747870 81539.25119139 0 -1776.90839905 0 3971.60403166 0 -4378.68130695 0 -2894.42389061 0 297
0.01850000 0.01844180 81159.95390016 0 2258.28532328 0 19801.22991803 0 2902.44262860 0 16724.67082945 0 388
0.01950000 0.01947590 86857.21231520 0 987.02865541 0 11817.20318301 0 1865.93835982 0 8998.66071979 0 399
0.02050000 0.02045430 78527.50108104 0 2211.96338071 0 24848.64101916 0 -15496.70546058 0 6375.45691078 0 462
0.02150000 0.02154770 77340.83770508 0 5376.34412708 0 24772.95731407 0 6627.50891324 0 -1934.71276875 0 571
0.02250000 0.02255340 74209.57544504 0 417.62905571 0 32736.22320692 0 -8570.19648168 0 10500.64723627 0 510
0.02350000 0.02348930 70594.88214570 0 1087.06735482 0 35390.31563402 0 1710.90210241 0 -5449.01805927 0 555
0.02450000 0.02439640 71215.29080509 0 2598.16996809 0 34732.33973640 0 3508.36263676 0 -4625.35086883 0 592
0.02550000 0.02547300 66391.52560172 0 2425.09704250 0 34074.03430160 0 2937.35160026 0 3950.44774486 0 837
0.02650000 0.02652900 69063.74257358 0 -1235.43487822 0 32985.02377589 0 10734.17924935 0 1324.47582357 0 723
0.02750000 0.02749970 67722.41641567 0 1479.39125068 0 28093.92314259 0 2679.23611374 0 1975.83900850 0 826
0.02850000 0.02848090 65870.96670709 0 4275.50321669 0 30833.58539010 0 903.83260114 0 8996.66152758 0 831
0.02950000 0.02946900 62440.59453566 0 -1454.34642520 0 29106.81058032 0 -628.95685378 0 9654.63742520 0 996
0.03050000 0.03053250 64591.37384709 0 2636.03378978 0 35263.88320361 0 6491.76156528 0 5983.13191647 0 1041
0.03150000 0.03150510 60879.35723468 0 -485.46757906 0 30995.93737286 0 1511.74081693 0 17804.23462274 0 1036
0.03250000 0.03246190 61179.23606615 0 2741.07925738 0 29235.54977097 0 3294.26233257 0 10115.59402901 0 1059
0.03350000 0.03345080 60047.93493599 0 -386.05170491 0 23274.44192253 0 4289.04719468 0 13750.59780305 0 1302
0.03450000 0.03451200 61116.18461953 0 79.63848075 0 31727.72959823 0 4335.38012183 0 9970.37797948 0 1339
0.03550000 0.03553350 56934.24799209 0 4264.88113500 0 27862.80773548 0 -4202.90617650 0 9373.06987622 0 1365
0.03650000 0.03647120 52849.85436917 0 4512.72604616 0 32005.85897599 0 -1475.73338801 0 12473.20185757 0 1308
0.03750000 0.03744890 50036.92502253 0 990.42288834 0 33045.54877081 0 2100.20633926 0 11439.22404049 0 1579
0.03850000 0.03847530 48028.61561749 0 1757.69638160 0 33314.89049050 0 4550.09556208 0 8632.83051454 0 1662
0.03950000 0.03950240 45915.18385284 0 878.42858013 0 31152.35768642 0 1087.68029397 0 11869.16021132 0 1683
0.04050000 0.04050350 47190.93211243 0 -152.30659113 0 29985.57638682 0 5969.70876877 0 13558.36778288 0 1822
0.04150000 0.04152450 46739.90556224 0 -1186.88306741 0 24216.03948420 0 5642.03896867 0 11035.76068957 0 1887
0.04250000 0.04250150 46507.80154360 0 -685.68338350 0 25236.17673983 0 2759.24774043 0 12456.06592434 0 1920
0.04350000 0.04349210 45806.98581291 0 2228.03381039 0 20092.87032007 0 1790.84782165 0 10567.09291582 0 2005
0.04450000 0.04448520 45964.17504655 0 356.97773821 0 23764.57355111 0 -2030.26756564 0 8187.53791124 0 2151
0.04550000 0.04548030 43326.77916977 0 2338.68141000 0 23394.28360939 0 -1922.57481605 0 7841.75455095 0 2274
0.04650000 0.04648670 43091.92900798 0 1746.78870103 0 24139.47701331 0 2817.35612938 0 6397.74460855 0 2311
0.04750000 0.04749250 41994.24066993 0 -1657.82464769 0 20733.92997591 0 2068.35107878 0 3837.66913817 0 2568
0.04850000 0.04851840 42557.63939762 0 -855.10613562 0 18320.39968834 0 5454.27966954 0 2832.35007095 0 2493
0.04950000 0.04949480 41725.55802459 0 1428.68646365 0 17887.49768291 0 -1122.77710183 0 3707.63376795 0 2644
0.05050000 0.05050630 39550.17327058 0 2002.72924218 0 16394.47457765 0 593.40528462 0 2062.44137873 0 2829
0.05150000 0.05149060 37832.07627313 0 273.44885138 0 15709.91601439 0 1442.47210224 0 2867.27002719 0 2784
0.05250000 0.05249300 37692.13281844 0 674.03973657 0 16660.74061703 0 1737.51772177 0 3522.37895137 0 3055
0.05350000 0.05348950 37072.38323340 0 527.18588727 0 15482.09597905 0 1276.98951630 0 3831.16627120 0 3009
0.05450000 0.05448610 37413.12467488 0 -492.00010438 0 13478.50994021 0 2987.89161871 0 4438.93168756 0 3336
0.05550000 0.05550870 36675.07124314 0 713.43370921 0 13078.12226962 0 -544.78976329 0 2866.83064429 0 3349
0.05650000 0.05647670 35619.23412662 0 1125.77589014 0 13648.00189514 0 -1470.86722236 0 3575.25868378 0 3324
0.05750000 0.05747970 34552.96166615 0 200.93419549 0 14981.30931506 0 -234.78095898 0 2529.31866715 0 3639
0.05850000 0.05849280 33738.67530069 0 293.24964192 0 15404.87443380 0 433.02503264 0 1808.89547441 0 3846
0.05950000 0.05951020 32964.15308798 0 1512.33398385 0 13573.30680159 0 2287.00998058 0 1088.39868502 0 3787
0.06050000 0.06049470 33094.86950170 0 223.38666184 0 14743.16378150 0 -909.08871912 0 2057.32256790 0 3930
0.06150000 0.06148310 32776.31689684 0 259.59291153 0 13752.90456329 0 1108.80472551 0 -279.39919435 0 4083
0.06250000 0.06249100 32201.49421366 0 -667.00301937 0 12399.05599264 0 836.87284360 0 -748.62608285 0 4303
0.06350000 0.06350600 31307.13031409 0 499.30814051 0 10812.97158848 0 -253.42507402 0 -222.78580572 0 4470
0.06450000 0.06451750 30991.76323528 0 1656.28680753 0 14713.83497271 0 -595.67579577 0 -124.68588337 0 4479
0.06550000 0.06550280 30187.47283087 0 622.94719412 0 11801.60508994 0 198.95148014 0 -2955.93749707 0 4636
0.06650000 0.06648880 30506.24512718 0 -412.15434474 0 13054.28574712 0 2580.69351312 0 641.11457871 0 4653
0.06750000 0.06749660 30202.30200385 0 -1446.95380785 0 10163.70645691 0 2581.30864918 0 795.67959796 0 5220
0.06850000 0.06852730 31123.13872335 0 358.41012647 0 10389.96668294 0 -248.57648369 0 623.34154027 0 5029
0.06950000 0.06949320 30471.75356928 0 1041.81750653 0 8620.60468526 0 1519.89136979 0 2877.29894196 0 5040
0.07050000 0.07048030 29877.37834690 0 -2.54894810 0 9769.08568693 0 1087.55836522 0 4649.87941941 0 5475
0.07150000 0.07148790 29405.26141735 0 300.38302335 0 9192.76910187 0 2231.75758050 0 3783.29550389 0 5509
0.07250000 0.07249820 29201.60744169 0 1305.63728159 0 9012.63309611 0 -1293.75197406 0 4705.85680128 0 5916
0.07350000 0.07351270 27340.93069214 0 909.95979572 0 10423.10713842 0 -732.88848571 0 6285.47129220 0 5721
0.07450000 0.07449140 26343.64134748 0 613.50924936 0 10754.22609431 0 50.57802507 0 4157.81450605 0 6028
0.07550000 0.07549160 26354.40622861 0 490.16018847 0 10823.94517649 0 -726.85465999 0 3618.45002317 0 6183
0.07650000 0.07648840 24413.54209921 0 343.31183146 0 10317.84197937 0 1086.04249420 0 3976.29444415 0 6330
0.07750000 0.07749960 24834.47092053 0 -77.37917386 0 10821.73727740 0 1114.37390380 0 3938.37569960 0 6583
0.07850000 0.07848650 24408.15965865 0 331.78352253 0 9849.11928275 0 385.90670856 0 2396.20761661 0 6549
0.07950000 0.07947320 24371.03180332 0 527.61099023 0 8845.16230254 0 -408.57776791 0 2043.30625329 0 6828
0.08050000 0.08048110 23886.94168966 0 181.37396709 0 9332.32809652 0 -137.03034604 0 2134.69789717 0 7147
0.08150000 0.08149960 23461.06981068 0 -162.97700493 0 8680.48159040 0 1009.95455685 0 1011.99329352 0 7386
0.08250000 0.08250610 23554.32883190 0 428.43238285 0 9290.15832238 0 -370.53160231 0 561.97732401 0 7227
0.08350000 0.08350160 23071.00763832 0 289.13701794 0 7896.86415159 0 -1031.21190171 0 -811.64347729 0 7798
0.08450000 0.08449610 22672.48734507 0 370.84576109 0 8828.11424589 0 517.05371752 0 -761.76143474 0 7371
0.08550000 0.08548940 22588.89474773 0 24.84831148 0 8364.04900805 0 989.78798004 0 337.19122761 0 8256
0.08650000 0.08650700 22718.18316701 0 -84.00023483 0 7984.25741105 0 1032.88595057 0 -1163.16737521 0 8037
0.08750000 0.08749060 22227.72200125 0 182.81733993 0 7814.98514757 0 906.21954876 0 122.39999382 0 8155
0.08850000 0.08849210 21646.30857452 0 401.33673766 0 7147.10116548 0 -72.39426498 0 1461.26670592 0 8718
0.08950000 0.08949900 21277.22693579 0 694.21729794 0 8158.62651620 0 126.22482199 0 1475.53566571 0 8571
0.09050000 0.09049190 20752.27421213 0 711.13573663 0 8306.96218434 0 -181.79687314 0 2295.09462600 0 8932
0.09150000 0.09150830 20581.57395421 0 -220.31867072 0 8660.30293057 0 -368.14355623 0 2727.06294276 0 9285
0.09250000 0.09250820 19739.82615730 0 138.73734862 0 7774.47404389 0 1003.56043715 0 909.08432529 0 9204
0.09350000 0.09350330 20051.78801861 0 598.52848927 0 8601.12903807 0 -80.57722232 0 1967.77633222 0 9349
0.09450000 0.09448040 18981.12172911 0 515.11494046 0 8325.08672910 0 -717.28599882 0 2040.32943412 0 9564
0.09550000 0.09549270 18499.44822142 0 258.51752187 0 8954.60159917 0 1378.19038349 0 2503.17538441 0 10155
0.09650000 0.09649430 18190.01281180 0 407.77918948 0 8720.00408255 0 -404.04004097 0 1399.98377549 0 9913
0.09750000 0.09749140 17623.42855806 0 174.91833379 0 7717.21146702 0 568.83938650 0 1726.62102577 0 10476
0.09850000 0.09850240 17326.07617828 0 412.71675486 0 8102.01202912 0 293.83731655 0 1603.31919855 0 10575
0.09950000 0.09950330 17220.07505287 0 286.27883216 0 7244.34758654 0 12.54613942 0 1413.87925981 0 10882
0.10050000 0.10051200 16950.29395027 0 -139.86107039 0 6755.61099868 0 1406.95897908 0 659.48407944 0 10875
0.10150000 0.10150300 16652.06280469 0 -156.81905354 0 6589.44736924 0 388.60342112 0 678.33470444 0 11118
0.10250000 0.10250800 16357.23687660 0 532.65510596 0 5549.52689839 0 29.66976993 0 539.60065120 0 11575
0.10350000 0.10349800 16203.12332329 0 -252.48040078 0 5319.16942679 0 378.95127720 0 530.43512384 0 11364
0.10450000 0.10450100 16559.57270355 0 14.29642121 0 4730.41830557 0 426.21020381 0 -809.16535772 0 12093
0.10550000 0.10551000 16026.38155045 0 260.54856934 0 4498.35822522 0 -298.66283929 0 -767.41299734 0 12067
0.10650000 0.10649700 15877.43074625 0 422.63582390 0 4948.29730273 0 -165.39031553 0 -551.00263754 0 12054
0.10750000 0.10749900 15428.38141913 0 38.48005621 0 4460.54932640 0 591.36984332 0 -634.00096951 0 12807
0.10850000 0.10850100 15534.82192744 0 35.83848620 0 5018.97204271 0 3.67163732 0 -701.36166395 0 12736
0.10950000 0.10950300 15298.98315412 0 398.07212269 0 4681.88846391 0 -242.54485488 0 -270.29627905 0 12933
0.11050000 0.11050200 14756.23542287 0 111.58897748 0 4791.81108173 0 294.94565992 0 552.99523901 0 13428
0.11150000 0.11150900 14941.76485377 0 -95.57204266 0 4700.51829901 0 440.40556696 0 410.42097919 0 13453
0.11250000 0.11250000 14873.66050377 0 198.00351152 0 4785.80252053 0 502.11579727 0 770.51394218 0 13668
0.11350000 0.11349100 14604.53847552 0 491.11145245 0 5114.64766990 0 -508.78233437 0 388.77148509 0 13791
0.11450000 0.11448600 14635.07558730 0 16.82331229 0 4761.43873854 0 -49.68651716 0 714.72988878 0 14205
0.11550000 0.11549300 14005.22019549 0 -110.44877885 0 5284.74377632 0 100.30199962 0 968.89971682 0 14776
0.11650000 0.11649800 14245.01341494 0 25.27407352 0 4639.29029144 0 -10.85701972 0 705.66651794 0 14553
0.11750000 0.11747300 14251.27462131 0 167.24780675 0 4840.70341429 0 312.96694970 0 450.91999984 0 14568
0.11850000 0.11849100 14352.11299761 0 -144.07145706 0 4170.55661025 0 793.61230140 0 407.40791093 0 16015
0.11950000 0.11950300 14144.39473009 0 -2.22355210 0 4476.14741946 0 138.19361227 0 277.33189779 0 15270
0.12050000 0.12050700 14181.85212259 0 428.89593181 0 4045.54118970 0 -325.94632066 0 341.07207711 0 15999
0.12150000 0.12150000 13974.13385508 0 144.19558273 0 4602.38212757 0 -278.89390401 0 539.98511124 0 15670
0.12250000 0.12250700 13410.73512738 0 325.54867914 0 5157.16895036 0 -620.26146612 0 -298.72435289 0 16887
0.12350000 0.12352200 13299.02202423 0 316.14368809 0 5046.22476729 0 -227.00607851 0 551.58042606 0 16407
0.12450000 0.12449800 13263.87139197 0 -43.85063344 0 5460.31019989 0 186.86845030 0 -613.00286056 0 16306
0.12550000 0.12549900 13277.82179915 0 68.76463266 0 5742.52583865 0 247.45386037 0 136.53604027 0 17523
0.12650000 0.12650100 13342.85046883 0 -26.13482462 0 5129.05942912 0 349.00513543 0 -121.52012955 0 17154
0.12750000 0.12750600 13557.70870852 0 -164.64116768 0 4935.46732195 0 181.10374661 0 -217.30889783 0 18007
0.12850000 0.12850300 13283.64362262 0 9.08088025 0 4851.50124914 0 -57.42954237 0 -167.93873637 0 17496
0.12950000 0.12949900 13159.40810672 0 394.21104543 0 5135.35358921 0 293.30895861 0 414.74340850 0 18405
0.13050000 0.13049000 12888.41870114 0 181.05761140 0 4904.96316389 0 80.31842579 0 342.52972989 0 18100
0.13150000 0.13148800 12555.14676902 0 151.94519869 0 4860.62942895 0 356.90084620 0 -212.66791592 0 19059
0.13250000 0.13249300 12636.65229758 0 58.53920389 0 4601.25071659 0 634.03062785 0 525.16802128 0 18957
0.13350000 0.13349100 12248.89688546 0 158.71828614 0 4257.58737881 0 -10.28143911 0 481.65044009 0 19468
0.13450000 0.13450700 12278.66507715 0 164.23583695 0 3882.24453371 0 -48.77974069 0 307.84154813 0 19953
0.13550000 0.13551000 11703.95223970 0 138.62640443 0 4123.26802529 0 5.40274005 0 506.34705462 0 19956
0.13650000 0.13649900 11722.07678445 0 240.91035048 0 4221.33828929 0 172.30730088 0 173.08610708 0 19723
0.13750000 0.13749600 11506.66931613 0 63.43206206 0 3889.70305849 0 302.90288430 0 969.10622679 0 20946
0.13850000 0.13851100 11470.42022662 0 -39.60037277 0 3754.73561518 0 585.20749810 0 743.90930738 0 20955
0.13950000 0.13949800 11431.20530250 0 12.65005348 0 3630.11563925 0 402.14300529 0 1275.27592298 0 20506
0.14050000 0.14048300 11354.53298588 0 193.31309903 0 3272.17235711 0 -7.61832834 0 1144.29587952 0 21447
0.14150000 0.14148400 11064.86980691 0 389.27128314 0 3710.33597281 0 -337.96563998 0 1596.99208474 0 21771
0.14250000 0.14249400 10885.23909149 0 87.75377313 0 3968.89084223 0 -221.11724915 0 1300.36468675 0 22470
0.14350000 0.14350900 10738.32043321 0 -13.83869408 0 4059.87605692 0 140.24443198 0 1064.91366884 0 22519
0.14450000 0.14449900 10764.89211429 0 54.37484258 0 4032.05213457 0 103.23114574 0 798.79482274 0 22218
0.14550000 0.14550500 10561.00746261 0 193.99853636 0 4107.41728705 0 -154.38816763 0 776.90037267 0 23559
0.14650000 0.14650700 10539.17013231 0 50.30538798 0 3849.97185946 0 96.15598254 0 884.99076379 0 23044
0.14750000 0.14750500 10457.75248034 0 -29.54190950 0 4155.11230120 0 33.34356022 0 616.72333529 0 23649
0.14850000 0.14849900 10268.72995536 0 193.23071474 0 3752.11030234 0 507.31479547 0 882.31931574 0 23640
0.14950000 0.14949500 10121.86621995 0 109.80266629 0 3654.17185320 0 289.61264994 0 1119.17416202 0 24457
0.15050000 0.15050000 10168.64951457 0 98.69155143 0 3160.21759336 0 353.96247303 0 1057.99119120 0 24591
0.15150000 0.15149900 10134.03712637 0 5.41554807 0 3339.95815451 0 10.50831447 0 1024.28173486 0 25020
0.15250000 0.15250500 9984.50413982 0 -91.75995660 0 2702.90786766 0 355.55413760 0 1321.79558786 0 25297
0.15350000 0.15350100 9928.93318713 0 -62.34997181 0 2683.05874500 0 316.68742443 0 1071.99542279 0 25452
0.15450000 0.15450400 9948.96904752 0 165.41338313 0 2141.04698012 0 119.57366329 0 785.78908881 0 26061
0.15550000 0.15549900 9949.19972354 0 316.37875795 0 2715.55111070 0 -178.23347779 0 1079.35508642 0 26128
0.15650000 0.15649500 9437.68113215 0 109.28825875 0 2360.03541910 0 -348.65143219 0 1142.36259474 0 26331
0.15750000 0.15749700 9295.68356239 0 86.12311333 0 2847.93717945 0 32.11801146 0 620.27574607 0 27345
0.15850000 0.15849900 9224.53648578 0 179.15837880 0 2708.63082997 0 -31.38182541 0 381.68204194 0 26980
0.15950000 0.15949700 9144.93128828 0 142.39191591 0 2746.78025055 0 134.94767108 0 748.44813277 0 27777
0.16050000 0.16050000 8908.81790065 0 -21.33808147 0 2766.56346576 0 103.54805066 0 706.85175332 0 28224
0.16150000 0.16150500 8937.35582021 0 64.79447859 0 2329.81685993 0 276.92986243 0 631.68432315 0 28075
0.16250000 0.16249700 8910.36672538 0 128.63703413 0 2658.05785781 0 74.64225776 0 636.46151376 0 28590
0.16350000 0.16349900 8643.49653452 0 138.77359771 0 2477.36163884 0 -126.62685735 0 633.53192826 0 29163
0.16450000 0.16449100 8542.57028164 0 227.60693463 0 2546.08112491 0 -155.62503050 0 581.10585870 0 28996
0.16550000 0.16550500 8355.81057861 0 -83.88819219 0 2288.02056126 0 545.78057173 0 1118.99840886 0 30777
0.16650000 0.16650700 8573.63465290 0 -173.62435114 0 2312.79077243 0 373.53148909 0 697.92239427 0 29211
0.16750000 0.16749900 8487.14212839 0 135.99010701 0 1912.06258009 0 -295.01925656 0 599.83894878 0 30922
0.16850000 0.16850800 8337.26862009 0 276.41468598 0 2346.80999371 0 -447.91132541 0 701.42976830 0 30867
0.16950000 0.16949900 8112.65607995 0 151.38388703 0 2628.67412615 0 -207.52054521 0 373.24479174 0 30852
0.17050000 0.17049200 8113.43598460 0 -22.21552913 0 2631.89260592 0 193.44820927 0 670.71800182 0 31257
0.17150000 0.17149500 8267.46166134 0 -77.26855922 0 2560.48189957 0 327.98835271 0 189.32130535 0 32608
0.17250000 0.17250900 8232.26709079 0 109.72203953 0 2348.43571046 0 123.74780087 0 293.44187194 0 32361
0.17350000 0.17350400 8124.06905086 0 106.90592465 0 2403.10592819 0 -167.01713073 0 627.88915332 0 32508
0.17450000 0.17449800 7918.84428133 0 0.20548950 0 2336.42957262 0 123.88620649 0 657.45193351 0 32791
0.17550000 0.17549800 7938.26500565 0 101.50964353 0 2525.93541880 0 69.61088413 0 472.47063278 0 33633
0.17650000 0.17650100 7904.97076616 0 135.32883574 0 2189.23630003 0 54.83399771 0 262.84983730 0 33984
0.17750000 0.17750300 7843.23746825 0 -7.66940661 0 2252.24380836 0 185.80734059 0 490.25685271 0 34069
0.17850000 0.17849800 7626.79745011 0 2.18409552 0 2100.52489187 0 122.54938400 0 674.56589759 0 34536
