### header ###
fiducial parameters:
Omega_m = 0.31
Omega_nu = 0
Omega_de = 0.69
Omega_k = 0
H_0 = 100
w_de = -1
zeff = 0
beta = 0
fgrowth = 0
b_1 = 2
gamma = 0.55
Lx = 3500 Ly = 3500 Lz = 3500
nx = 700 ny = 700 nz = 700
xoffset = -983.599254 yoffset = -42.9823471 zoffset = 800.977702
bins = 400 dk = 0.001
kx_ny = 0.628318531 ky_ny = 0.628318531 kz_ny = 0.628318531
############################
A(data) = 8.97226079 (not used)
A(ran) = 8.97468833 (used)
Ngal = 498045
weighted Ngal = 0
Nran = 25229228
weighted Nran = 0
SN(data) = 6772.35554
SN(ran) = 133.223065
SN(data+ran) = 6905.57861
############################
13 columns: k_central k_mean P_0(k) sigma^{lin}_{P_0(k)} P^img_1(k) sigma^{lin}_{P_1(k)} P_2(k) sigma^{lin}_{P_2(k)} P^img_3(k) sigma^{lin}_{P_3(k)} P_4(k) sigma^{lin}_{P_4(k)} N_modes
### header ###
0.00050000 0 0 0 0 0 0 0 0 0 0 0 0
0.00150000 0.00179520 53054.93633926 0 4521.30499734 0 14201.62435324 0 -5834.55458773 0 -88295.53224900 0 3
0.00250000 0.00253879 94846.40179933 0 -10282.14211848 0 19219.37710840 0 -116768.20345419 0 33193.29127203 0 6
0.00350000 0.00331552 64903.66524558 0 1240.13627529 0 -44197.19670112 0 4354.03192608 0 -20302.67565637 0 7
0.00450000 0.00420575 66475.77727342 0 1366.48082912 0 -4416.10574573 0 -28436.86149858 0 -25606.13714437 0 24
0.00550000 0.00557378 61331.15270495 0 3537.18615521 0 7550.91602271 0 -13421.60985424 0 12342.81498103 0 45
0.00650000 0.00659388 61751.75198909 0 8221.23857992 0 30115.30418901 0 13701.60660934 0 19636.13179213 0 40
0.00750000 0.00754703 60544.98684530 0 -5070.14916637 0 -15597.87337406 0 9739.42734096 0 26958.66756631 0 57
0.00850000 0.00846663 59982.79642059 0 -7855.05686835 0 6349.70907265 0 16019.79080691 0 -21984.41371857 0 75
0.00950000 0.00948925 70728.12501111 0 -2124.60307497 0 -14822.80193272 0 5314.95135092 0 32.25301186 0 112
0.01050000 0.01054430 72860.12070342 0 3056.90768823 0 -3952.88631998 0 -17567.51708362 0 9088.64633838 0 105
0.01150000 0.01145670 73193.17294409 0 -603.54734048 0 -13010.67699397 0 -1837.49930141 0 19566.70929342 0 144
0.01250000 0.01249090 77046.89054280 0 -5051.31062439 0 1618.08246409 0 7020.25132131 0 -4686.60084555 0 169
0.01350000 0.01339930 77021.73587159 0 -3506.75888916 0 -9289.87272349 0 -3909.33248969 0 -9653.24238448 0 180
0.01450000 0.01448870 80097.85557727 0 6126.83209498 0 -1125.99558160 0 -12937.30004913 0 2465.95965250 0 267
0.01550000 0.01550050 74548.55935490 0 2382.13637914 0 9015.67582272 0 -7981.66505192 0 5314.73165947 0 238
0.01650000 0.01653350 74067.32523011 0 1237.36816300 0 12577.33560564 0 124.19047915 0 -9053.35290667 0 315
0.01750000 0.01747870 77508.35243694 0 2039.25294601 0 24657.61930197 0 -6042.13005580 0 -15377.74253953 0 297
0.01850000 0.01844180 67199.55076080 0 7916.83410454 0 33403.64583696 0 -15046.99705910 0 -7442.68502907 0 388
0.01950000 0.01947590 62601.73821543 0 2297.63206227 0 42208.00045236 0 -3445.65171189 0 -1984.25319109 0 399
0.02050000 0.02045430 62923.58619206 0 -1019.26947440 0 45024.00547931 0 7324.94139557 0 -17601.12987572 0 462
0.02150000 0.02154770 60101.64949592 0 1064.92904724 0 41225.75997214 0 7026.95191058 0 -13383.16385021 0 571
0.02250000 0.02255340 70574.01145779 0 -727.18090180 0 32284.09819947 0 13254.97388818 0 4843.97681692 0 510
0.02350000 0.02348930 67386.72787759 0 -5353.57310811 0 26269.93486546 0 9425.11478112 0 3831.56171582 0 555
0.02450000 0.02439640 72938.88008883 0 -3262.97826986 0 22483.44285094 0 6140.85939416 0 213.36653473 0 592
0.02550000 0.02547300 73578.73144169 0 2979.49940525 0 22776.18171024 0 -4061.27109764 0 -3001.09507495 0 837
0.02650000 0.02652900 65558.78515433 0 3375.81179942 0 14884.31553917 0 -836.75091484 0 4110.11949191 0 723
0.02750000 0.02749970 66037.05344452 0 1567.59736851 0 35308.48056829 0 1726.00588971 0 -6462.83918567 0 826
0.02850000 0.02848090 62887.33710254 0 3465.57772655 0 22845.38451750 0 476.13288928 0 -4030.38247954 0 831
0.02950000 0.02946900 59236.94394231 0 1630.24238594 0 28274.39967010 0 1311.25039818 0 2905.04597230 0 996
0.03050000 0.03053250 57626.82529334 0 1320.73008432 0 23910.44867499 0 9103.02514388 0 4590.10137542 0 1041
0.03150000 0.03150510 57247.85753928 0 487.87539737 0 30924.20811390 0 1188.35500014 0 5136.45204647 0 1036
0.03250000 0.03246190 54967.35042567 0 3331.03868157 0 19236.40319590 0 -2182.22814273 0 1689.98747621 0 1059
0.03350000 0.03345080 53004.40730538 0 1456.94976890 0 25575.92956977 0 1130.18070375 0 11603.22370912 0 1302
0.03450000 0.03451200 50663.15550540 0 325.55307297 0 26161.29744263 0 4118.92911912 0 6114.32066681 0 1339
0.03550000 0.03553350 51690.21304175 0 -918.70790933 0 23277.95698575 0 5636.66751268 0 3399.80210593 0 1365
0.03650000 0.03647120 49653.89297662 0 2777.14160916 0 22552.75550393 0 543.44635006 0 8948.95552886 0 1308
0.03750000 0.03744890 47734.11922658 0 943.17165092 0 19497.28679471 0 -369.14644771 0 7831.58283674 0 1579
0.03850000 0.03847530 46687.17961385 0 -272.15157336 0 19335.48404058 0 2837.65561951 0 3699.14269335 0 1662
0.03950000 0.03950240 47604.83080730 0 450.57837963 0 15536.03023042 0 3947.31714168 0 4973.79249569 0 1683
0.04050000 0.04050350 45329.92582570 0 1635.61384193 0 15855.79113827 0 475.12999781 0 6514.87310599 0 1822
0.04150000 0.04152450 45162.19140239 0 815.78466116 0 14464.48517511 0 1397.70996897 0 -2345.51381415 0 1887
0.04250000 0.04250150 43731.89020657 0 1478.85300663 0 15454.52470187 0 -1276.36339566 0 113.86168555 0 1920
0.04350000 0.04349210 39519.74600453 0 259.67200045 0 14770.07598433 0 -1521.91253115 0 3042.99023477 0 2005
0.04450000 0.04448520 39367.06044565 0 850.32674809 0 14232.16146502 0 2813.06116150 0 -6.33508861 0 2151
0.04550000 0.04548030 40595.46519742 0 180.52376117 0 12898.52450792 0 2651.19249994 0 -5705.98016567 0 2274
0.04650000 0.04648670 39858.18068576 0 1122.20590406 0 13924.59343274 0 -610.89382262 0 -4206.64093118 0 2311
0.04750000 0.04749250 36636.51539338 0 1501.32744213 0 12684.87457121 0 -2622.23716662 0 -1760.12397214 0 2568
0.04850000 0.04851840 35760.27603856 0 991.46642273 0 15443.97951219 0 985.69622676 0 1042.75668749 0 2493
0.04950000 0.04949480 35301.23075039 0 -461.56075530 0 13278.81041068 0 3407.52426046 0 677.63279026 0 2644
0.05050000 0.05050630 36563.02860281 0 -1152.11689519 0 11754.26158212 0 3723.10004615 0 920.75763057 0 2829
0.05150000 0.05149060 38318.36330131 0 -897.36378634 0 10819.04605711 0 1988.39437496 0 2721.40588788 0 2784
0.05250000 0.05249300 37589.97629344 0 237.48206538 0 8442.74248602 0 1154.95091492 0 542.50167682 0 3055
0.05350000 0.05348950 39216.02257265 0 -619.07403383 0 6020.65521641 0 1738.31959557 0 4453.85972169 0 3009
0.05450000 0.05448610 38125.47420678 0 275.95333393 0 6681.06968914 0 -902.46941568 0 2013.13163241 0 3336
0.05550000 0.05550870 35731.49645840 0 1695.52370079 0 7461.50160190 0 785.41121951 0 2820.14621082 0 3349
0.05650000 0.05647670 34769.35774600 0 1305.88992676 0 7021.69030032 0 -1666.19489200 0 2320.95230986 0 3324
0.05750000 0.05747970 33720.55075593 0 1601.51772864 0 8035.20385868 0 -808.84900203 0 1366.83233544 0 3639
0.05850000 0.05849280 32726.00755442 0 576.04856148 0 7925.19336428 0 -511.03307329 0 -502.63756446 0 3846
0.05950000 0.05951020 31758.70609291 0 -567.00386442 0 8628.61243867 0 840.32309784 0 -3333.80679387 0 3787
0.06050000 0.06049470 31340.85295191 0 421.21332175 0 9652.85792444 0 -1146.29507173 0 744.27729057 0 3930
0.06150000 0.06148310 30862.91419890 0 1101.36816987 0 8612.19050266 0 -1621.97100279 0 -4678.52718470 0 4083
0.06250000 0.06249100 30047.30968473 0 1061.10202216 0 13020.34341784 0 -1765.12195267 0 -1451.52339004 0 4303
0.06350000 0.06350600 29389.22394138 0 372.13864528 0 11248.86139765 0 1704.35529715 0 -3099.02253951 0 4470
0.06450000 0.06451750 29910.22221892 0 -1049.93949950 0 12786.48186759 0 1748.30457205 0 1016.73203813 0 4479
0.06550000 0.06550280 30274.14110854 0 -271.82533156 0 9228.72160793 0 3258.87003972 0 -383.14958084 0 4636
0.06650000 0.06648880 30397.71755008 0 41.56045990 0 9767.38307818 0 -282.98895267 0 796.49465324 0 4653
0.06750000 0.06749660 29706.01901463 0 1151.97409575 0 9104.66184520 0 -901.57087764 0 1950.13510866 0 5220
0.06850000 0.06852730 29263.56043105 0 650.51956975 0 12600.51305378 0 -189.57175361 0 2895.35757928 0 5029
0.06950000 0.06949320 29122.84805629 0 -20.16383066 0 10828.45983582 0 -19.47905240 0 580.51488869 0 5040
0.07050000 0.07048030 28148.40662260 0 681.01823553 0 11232.27469305 0 623.57551167 0 84.15281055 0 5475
0.07150000 0.07148790 27498.44946296 0 349.31819574 0 10620.98322890 0 -418.75387595 0 142.73353612 0 5509
0.07250000 0.07249820 27082.90308220 0 279.56396294 0 11624.20424275 0 50.85285907 0 1084.08504337 0 5916
0.07350000 0.07351270 27113.22050253 0 293.64618499 0 11640.79094735 0 1030.72967897 0 -354.84563267 0 5721
0.07450000 0.07449140 26529.17077838 0 168.72962559 0 10523.00084148 0 -178.28510528 0 -1443.13117659 0 6028
0.07550000 0.07549160 25876.90685850 0 729.18229092 0 11018.29521917 0 -134.15897876 0 -1238.15905222 0 6183
0.07650000 0.07648840 25553.96042461 0 498.17013879 0 11477.56019879 0 -273.04681603 0 -573.32987977 0 6330
0.07750000 0.07749960 25077.66935748 0 159.17194899 0 11072.33931627 0 725.97589419 0 -2213.06183796 0 6583
0.07850000 0.07848650 24457.59023526 0 -75.75290789 0 9307.92037624 0 1351.09144293 0 -30.47658678 0 6549
0.07950000 0.07947320 24324.23752413 0 -144.19558273 0 9397.63138052 0 2037.67116756 0 -709.31669141 0 6828
0.08050000 0.08048110 24403.87567534 0 613.71356241 0 7904.89387415 0 560.96454641 0 -541.71408296 0 7147
0.08150000 0.08149960 23757.43357893 0 965.74934141 0 8885.81620566 0 -385.57167909 0 1204.93072017 0 7386
0.08250000 0.08250610 22927.76881186 0 412.99905837 0 8933.70894212 0 -469.26094067 0 1676.27872963 0 7227
0.08350000 0.08350160 21954.64552688 0 -54.62375300 0 9620.18980559 0 138.22217216 0 1143.10954568 0 7798
0.08450000 0.08449610 21892.36300034 0 198.49122654 0 7812.85414049 0 980.50821313 0 425.33912721 0 7371
0.08550000 0.08548940 21805.69472268 0 339.24644114 0 8378.07630723 0 861.10590917 0 567.84308576 0 8256
0.08650000 0.08650700 21440.67737580 0 399.38148374 0 8842.86652687 0 -774.18938016 0 1013.07856929 0 8037
0.08750000 0.08749060 20916.93295512 0 72.76609276 0 8205.24504224 0 1496.72490622 0 2253.77066395 0 8155
0.08850000 0.08849210 21086.64460150 0 -119.57476175 0 7279.28951192 0 322.04899431 0 -74.90292167 0 8718
0.08950000 0.08949900 19970.28249006 0 752.26417329 0 6957.88091819 0 -451.56479425 0 240.70054515 0 8571
0.09050000 0.09049190 19591.20489028 0 605.28619832 0 7744.01382412 0 -0.30391127 0 879.19530330 0 8932
0.09150000 0.09150830 18907.63493854 0 -19.41523204 0 7277.20244313 0 182.51965801 0 1102.71927230 0 9285
0.09250000 0.09250820 19067.68016105 0 101.06081389 0 7236.12014168 0 648.60715567 0 298.35636971 0 9204
0.09350000 0.09350330 18987.60262693 0 401.80687737 0 6722.07509859 0 487.18776313 0 578.99352539 0 9349
0.09450000 0.09448040 18917.96043677 0 35.22302059 0 6508.50205389 0 579.23848136 0 493.80816502 0 9564
0.09550000 0.09549270 18654.87992344 0 21.03644510 0 5900.65974553 0 328.77814347 0 138.46712813 0 10155
0.09650000 0.09649430 18380.81483754 0 185.67332880 0 5979.22140863 0 711.43671392 0 1240.18021358 0 9913
0.09750000 0.09749140 17987.56713913 0 316.25023845 0 5904.65812995 0 -353.69664638 0 592.70337043 0 10476
0.09850000 0.09850240 17858.38856557 0 275.94674319 0 5326.55105956 0 -381.24375750 0 130.69224766 0 10575
0.09950000 0.09950330 16870.87549051 0 301.90218974 0 5677.39830781 0 111.50329782 0 -645.61385964 0 10882
0.10050000 0.10051200 16469.93859129 0 686.19526458 0 5861.35694483 0 -443.02978135 0 -423.22020316 0 10875
0.10150000 0.10150300 16129.30699554 0 218.38428749 0 5948.66232771 0 198.42312219 0 -276.33559706 0 11118
0.10250000 0.10250800 16042.96825505 0 -120.11630118 0 5330.49452112 0 1435.12342318 0 -1252.26324342 0 11575
0.10350000 0.10349800 16178.73757216 0 58.06499989 0 4395.48770300 0 211.50135431 0 -916.31437096 0 11364
0.10450000 0.10450100 15745.50602955 0 85.01202381 0 4951.54873621 0 125.81949126 0 94.26663606 0 12093
0.10550000 0.10551000 15566.45749647 0 -28.03295876 0 3975.89899953 0 330.72570819 0 343.55129514 0 12067
0.10650000 0.10649700 15375.21608783 0 179.05951765 0 4394.49909146 0 580.19084380 0 375.92832282 0 12054
0.10750000 0.10749900 15504.94389002 0 397.00661915 0 4287.10292534 0 -240.25347304 0 1333.13166676 0 12807
0.10850000 0.10850100 14984.38499539 0 153.00740686 0 4738.37113612 0 -186.56637455 0 892.07471465 0 12736
0.10950000 0.10950300 14906.06499288 0 284.72012131 0 5004.12090058 0 36.98351804 0 1219.97958460 0 12933
0.11050000 0.11050200 14622.55317456 0 -79.10001700 0 4585.15831776 0 331.45398536 0 1362.32866068 0 13428
0.11150000 0.11150900 15185.51251935 0 -28.90711105 0 5083.57231406 0 913.61546148 0 1004.67646972 0 13453
0.11250000 0.11250000 14678.57449472 0 265.32905533 0 5066.17275110 0 -991.30604798 0 1770.04304119 0 13668
0.11350000 0.11349100 14463.27687213 0 360.51806595 0 5025.38703310 0 -668.92092574 0 840.90308328 0 13791
0.11450000 0.11448600 14053.55231484 0 168.59671226 0 5469.35050312 0 469.57509945 0 1312.35984001 0 14205
0.11550000 0.11549300 14143.51596429 0 -212.43174761 0 5345.10400265 0 6.00109169 0 411.63806983 0 14776
0.11650000 0.11649800 13813.97878685 0 430.49748249 0 5332.26303731 0 -203.16845755 0 -285.06833226 0 14553
0.11750000 0.11747300 13617.79432054 0 373.67758390 0 5650.14558324 0 -542.55879660 0 46.99936117 0 14568
0.11850000 0.11849100 13534.31156892 0 7.14282817 0 5879.21785985 0 220.42961490 0 -792.26010051 0 16015
0.11950000 0.11950300 13135.57158422 0 204.07248787 0 5670.96134828 0 162.41679173 0 -373.53698137 0 15270
0.12050000 0.12050700 13161.71486697 0 134.37976867 0 5582.53553900 0 139.50846561 0 -778.56563388 0 15999
0.12150000 0.12150000 13036.05135663 0 -235.62127878 0 5305.52658764 0 399.31118248 0 123.72693018 0 15670
0.12250000 0.12250700 13321.32070657 0 -143.33439224 0 4693.98247832 0 1414.93377878 0 -284.42243939 0 16887
0.12350000 0.12352200 13109.09876430 0 50.96775770 0 4276.30509049 0 3.66314625 0 515.41701620 0 16407
0.12450000 0.12449800 13146.22661963 0 320.29695498 0 4250.06294659 0 324.98846593 0 958.77633473 0 16306
0.12550000 0.12549900 13064.50139962 0 -44.97776043 0 4299.22989347 0 -105.03525194 0 509.53477759 0 17523
0.12650000 0.12650100 13091.63329390 0 -0.17066401 0 4259.25703384 0 -108.11884116 0 436.05567622 0 17154
0.12750000 0.12750600 12835.14352412 0 266.36050670 0 4146.19282826 0 -249.88584474 0 71.35138966 0 18007
0.12850000 0.12850300 12674.98845589 0 203.18054058 0 4412.75545109 0 -158.84460873 0 742.96243723 0 17496
0.12950000 0.12949900 12559.54059806 0 73.42758372 0 4680.04305572 0 415.31900010 0 134.73127500 0 18405
0.13050000 0.13049000 12776.48590654 0 18.30622959 0 4406.21963041 0 73.09288380 0 455.17322634 0 18100
0.13150000 0.13148800 12655.87529959 0 -90.04713219 0 4241.42907254 0 444.21721365 0 114.58666734 0 19059
0.13250000 0.13249300 12419.92668055 0 116.90441215 0 4429.53987800 0 3.30663096 0 717.62322520 0 18957
0.13350000 0.13349100 12325.56920207 0 315.50109060 0 3992.91410246 0 -47.75597853 0 572.35994201 0 19468
0.13450000 0.13450700 12269.43803618 0 -196.41404387 0 3962.31108325 0 478.19359510 0 686.78184076 0 19953
0.13550000 0.13551000 12165.85351674 0 16.90009445 0 3325.49147242 0 597.55086231 0 393.11039125 0 19956
0.13650000 0.13649900 12032.72049705 0 240.24688230 0 3292.38397066 0 310.62284191 0 1062.31362051 0 19723
0.13750000 0.13749600 11667.59330445 0 242.27243748 0 2938.91140957 0 -35.46204489 0 1197.91157829 0 20946
0.13850000 0.13851100 11629.36699187 0 167.59162387 0 2762.24652874 0 198.43959905 0 395.48855122 0 20955
0.13950000 0.13949800 11324.10571983 0 143.26409098 0 2808.07416555 0 -632.27199778 0 0.50928433 0 20506
0.14050000 0.14048300 10776.27213148 0 419.44480556 0 3280.07026480 0 -133.73167889 0 -179.37477488 0 21447
0.14150000 0.14148400 10839.77394558 0 111.47693484 0 3299.40311254 0 -297.85437474 0 271.46943140 0 21771
0.14250000 0.14249400 10596.43270918 0 -185.78317453 0 2758.88524953 0 778.89956488 0 -476.61401356 0 22470
0.14350000 0.14350900 11014.67031022 0 -3.92127272 0 2934.14410507 0 223.22518863 0 -508.41215427 0 22519
0.14450000 0.14449900 10575.68285158 0 169.31290640 0 2560.84439046 0 -310.33943994 0 -302.28774824 0 22218
0.14550000 0.14550500 10606.73623826 0 116.10912910 0 3183.61473296 0 -163.48119681 0 -268.72548517 0 23559
0.14650000 0.14650700 10308.69183041 0 237.47437618 0 3353.83166968 0 -431.08515713 0 -118.21377321 0 23044
0.14750000 0.14750500 10081.56382315 0 255.82959696 0 3600.31449383 0 136.20210927 0 -451.02105790 0 23649
0.14850000 0.14849900 9954.41739552 0 86.98177737 0 3675.42700114 0 -235.22693263 0 -97.46018085 0 23640
0.14950000 0.14949500 9734.08883868 0 242.99412390 0 3796.92735847 0 40.35929689 0 -280.45261486 0 24457
0.15050000 0.15050000 9732.22146134 0 -13.92129806 0 3676.75613443 0 446.07250796 0 -148.10609057 0 24591
0.15150000 0.15149900 9683.50488195 0 -44.73730813 0 3548.35746552 0 107.88289254 0 -338.75433229 0 25020
0.15250000 0.15250500 9780.50964241 0 66.95129942 0 3321.50407257 0 237.24479861 0 -363.67613057 0 25297
0.15350000 0.15350100 9552.37105447 0 -2.34554677 0 2862.42583068 0 534.36760082 0 275.23823826 0 25452
0.15450000 0.15450400 9686.93206859 0 -149.37810408 0 2571.07102753 0 518.85738434 0 119.98448631 0 26061
0.15550000 0.15549900 9604.67958910 0 153.74337322 0 2375.44677443 0 -21.76153674 0 121.31691496 0 26128
0.15650000 0.15649500 9460.97941059 0 416.79752357 0 2438.47625190 0 -451.27040770 0 118.97720100 0 26331
0.15750000 0.15749700 9041.05018538 0 135.28929128 0 2252.33168494 0 164.16443723 0 524.70007849 0 27345
0.15850000 0.15849900 9030.81256374 0 -80.30194894 0 2697.09702876 0 183.82901906 0 -227.40701541 0 26980
0.15950000 0.15949700 8973.08863482 0 141.56258068 0 2376.57818541 0 102.31206655 0 424.63611456 0 27777
0.16050000 0.16050000 8875.47972286 0 -70.69495160 0 2306.25495174 0 71.87689161 0 296.70868382 0 28224
0.16150000 0.16150500 8946.59384575 0 54.65088489 0 2073.71155020 0 184.01795371 0 -38.19412779 0 28075
0.16250000 0.16249700 8839.17571048 0 143.94183911 0 2419.23128074 0 -250.83820718 0 260.24209977 0 28590
0.16350000 0.16349900 8555.26844754 0 159.90022615 0 2308.67155771 0 30.10618699 0 287.95837331 0 29163
0.16450000 0.16449100 8631.05101378 0 9.51065165 0 2574.57510619 0 125.42075128 0 389.05928089 0 28996
0.16550000 0.16550500 8596.87800848 0 153.60496761 0 2530.60386214 0 -10.99314055 0 21.53097056 0 30777
0.16650000 0.16650700 8454.17742608 0 160.13090218 0 2531.32884394 0 -206.29356845 0 545.76848870 0 29211
0.16750000 0.16749900 8156.23187938 0 -2.61693162 0 2443.69392388 0 85.25093827 0 214.99225148 0 30922
0.16850000 0.16850800 8343.02453613 0 -20.26060474 0 2644.19532721 0 299.07695767 0 203.00698433 0 30867
0.16950000 0.16949900 8357.93060112 0 -2.54021536 0 2169.38717738 0 9.58626945 0 224.87287451 0 30852
0.17050000 0.17049200 8142.65494767 0 133.37248337 0 2313.02144845 0 100.55058050 0 301.42765620 0 31257
0.17150000 0.17149500 8189.14165883 0 62.07689534 0 2406.90659031 0 -193.07693072 0 23.99777603 0 32608
0.17250000 0.17250900 8104.82407970 0 163.37464646 0 2355.35599118 0 -16.18928276 0 -104.00248243 0 32361
0.17350000 0.17350400 8025.85598741 0 -13.08855761 0 2358.43167150 0 80.46759629 0 151.65520597 0 32508
0.17450000 0.17449800 7993.00113082 0 -35.76532894 0 2223.43127448 0 19.49377173 0 -399.44299735 0 32791
0.17550000 0.17549800 7929.66408532 0 185.40420677 0 2404.62179921 0 15.30557390 0 -231.15275466 0 33633
0.17650000 0.17650100 7802.80325658 0 60.17381814 0 2129.31545660 0 -103.92141628 0 -311.07760322 0 33984
0.17750000 0.17750300 7720.67160739 0 -25.77057620 0 2172.19922796 0 282.35843820 0 74.72376329 0 34069
0.17850000 0.17849800 7766.29053732 0 73.98241448 0 2399.09655920 0 -34.95005396 0 -590.43945002 0 34536
