### header ###
fiducial parameters:
Omega_m = 0.31
Omega_nu = 0
Omega_de = 0.69
Omega_k = 0
H_0 = 100
w_de = -1
zeff = 0
beta = 0
fgrowth = 0
b_1 = 2
gamma = 0.55
Lx = 3500 Ly = 3500 Lz = 3500
nx = 700 ny = 700 nz = 700
xoffset = -983.599254 yoffset = -42.9823471 zoffset = 800.977702
bins = 400 dk = 0.001
kx_ny = 0.628318531 ky_ny = 0.628318531 kz_ny = 0.628318531
############################
A(data) = 9.01911202 (not used)
A(ran) = 9.01875365 (used)
Ngal = 501134
weighted Ngal = 0
Nran = 25229228
weighted Nran = 0
SN(data) = 6736.57782
SN(ran) = 133.877185
SN(data+ran) = 6870.45501
############################
13 columns: k_central k_mean P_0(k) sigma^{lin}_{P_0(k)} P^img_1(k) sigma^{lin}_{P_1(k)} P_2(k) sigma^{lin}_{P_2(k)} P^img_3(k) sigma^{lin}_{P_3(k)} P_4(k) sigma^{lin}_{P_4(k)} N_modes
### header ###
0.00050000 0 0 0 0 0 0 0 0 0 0 0 0
0.00150000 0.00179520 27616.86315538 0 -39351.24266113 0 -33902.67496933 0 10734.86029285 0 63840.57831115 0 3
0.00250000 0.00253879 44857.36951325 0 -37640.72501876 0 -26477.87282442 0 -63447.98968710 0 -34778.03555834 0 6
0.00350000 0.00331552 57679.22170455 0 -12342.04606095 0 -49685.74823711 0 -9061.58035154 0 -8004.67773148 0 7
0.00450000 0.00420575 62528.14157913 0 10152.05182540 0 -24170.67319944 0 -40831.63350792 0 25942.37491108 0 24
0.00550000 0.00557378 46755.50365531 0 -2749.94380745 0 -13838.03500080 0 -4700.52928358 0 6737.54137678 0 45
0.00650000 0.00659388 43470.23768768 0 -11711.20205760 0 -16650.52496453 0 32389.11071335 0 12247.13935384 0 40
0.00750000 0.00754703 80542.40122963 0 -12001.19477375 0 -36553.47202466 0 14463.38671785 0 -13859.89430024 0 57
0.00850000 0.00846663 86550.74274018 0 -29885.61677633 0 -57763.58322198 0 -3633.89433221 0 -28808.57943473 0 75
0.00950000 0.00948925 103389.10389584 0 145.04029636 0 -28546.70722439 0 -55633.23521555 0 -39359.48109057 0 112
0.01050000 0.01054430 92090.37253867 0 25009.45516175 0 -8430.69240990 0 -57398.78556655 0 3867.75588247 0 105
0.01150000 0.01145670 80698.49200602 0 11326.96170870 0 22314.17058747 0 -21890.60546873 0 -21634.11569896 0 144
0.01250000 0.01249090 84018.79876018 0 -10058.67197389 0 36189.88267222 0 22589.22428490 0 -18144.31698986 0 169
0.01350000 0.01339930 95543.59262107 0 3705.65654489 0 45038.50511512 0 5528.31568874 0 -40465.84724096 0 180
0.01450000 0.01448870 82396.81677282 0 -1613.17236015 0 22997.63069348 0 4362.31429380 0 -2647.24903839 0 267
0.01550000 0.01550050 90067.45365209 0 3628.41303050 0 35327.70357031 0 7118.74998365 0 13246.29607584 0 238
0.01650000 0.01653350 83807.12604654 0 1037.06118661 0 45431.86265926 0 -4202.15922557 0 8522.05110006 0 315
0.01750000 0.01747870 82809.06778179 0 4907.84112191 0 33231.84712179 0 315.83831697 0 4983.55778071 0 297
0.01850000 0.01844180 80137.50988429 0 -1339.14022796 0 39163.62616144 0 4474.48874900 0 -10082.39865066 0 388
0.01950000 0.01947590 84774.64719950 0 3554.42094959 0 29803.12263625 0 -36.35596941 0 -21046.88044876 0 399
0.02050000 0.02045430 81978.74394037 0 4340.05954975 0 36281.49400755 0 -12912.25522364 0 -23160.31221341 0 462
0.02150000 0.02154770 76100.02038629 0 2957.62912124 0 47657.00752706 0 3802.24389160 0 -23490.50846520 0 571
0.02250000 0.02255340 70275.67046648 0 1094.55993178 0 43798.34687069 0 -7411.80739554 0 -19552.42934907 0 510
0.02350000 0.02348930 76564.11857785 0 718.13840165 0 41928.77261734 0 12743.53218879 0 -26839.26526235 0 555
0.02450000 0.02439640 70435.49599754 0 -209.09024063 0 38528.93755769 0 6920.97275432 0 -10346.70943612 0 592
0.02550000 0.02547300 71439.59577720 0 1210.54383675 0 31518.91287345 0 10768.98935986 0 -9416.70059852 0 837
0.02650000 0.02652900 71167.61776009 0 -1131.45491417 0 27418.26208311 0 9358.35054897 0 6728.35827410 0 723
0.02750000 0.02749970 73208.44149997 0 3725.47271383 0 29153.49501379 0 135.89454123 0 1394.59035035 0 826
0.02850000 0.02848090 66279.15342421 0 -1087.86593325 0 22599.76947458 0 3722.23226491 0 13424.79538029 0 831
0.02950000 0.02946900 68990.80501164 0 1763.03488388 0 28083.37795291 0 6301.43187616 0 4734.10912196 0 996
0.03050000 0.03053250 62119.40563338 0 3909.98057947 0 29684.37940664 0 -4413.82095464 0 11646.61277082 0 1041
0.03150000 0.03150510 61315.33492043 0 5499.86564575 0 34953.45918246 0 -8703.63706940 0 11557.85742436 0 1036
0.03250000 0.03246190 57554.43696003 0 -11.27028131 0 35466.76825919 0 9790.35181944 0 15119.38539241 0 1059
0.03350000 0.03345080 59068.55044464 0 -1178.05147106 0 33928.59856062 0 7547.49982064 0 7604.70747464 0 1302
0.03450000 0.03451200 57803.67691190 0 620.08790987 0 29960.42171561 0 4057.30566694 0 15500.44021526 0 1339
0.03550000 0.03553350 56862.95811603 0 874.00069892 0 27847.53917959 0 1912.32620983 0 11670.55913905 0 1365
0.03650000 0.03647120 54406.36830394 0 1456.42250942 0 27971.11562113 0 327.33257372 0 10851.99977486 0 1308
0.03750000 0.03744890 52903.01970046 0 4044.57454731 0 34117.97259193 0 -1357.72612477 0 11710.43313752 0 1579
0.03850000 0.03847530 48758.87000270 0 3190.52402911 0 33851.92624401 0 -639.30651806 0 5548.01102738 0 1662
0.03950000 0.03950240 47485.20881189 0 1578.64784853 0 32118.89022785 0 -111.64939263 0 2310.24235159 0 1683
0.04050000 0.04050350 43836.24364609 0 997.69797076 0 30523.16136896 0 4599.11970951 0 2196.69482482 0 1822
0.04150000 0.04152450 43713.43612463 0 -1969.62174042 0 25544.07430928 0 8084.15111410 0 2240.55622313 0 1887
0.04250000 0.04250150 44587.91794783 0 -808.40961912 0 25420.82740492 0 6008.55021742 0 10330.48522241 0 1920
0.04350000 0.04349210 45205.58046408 0 764.41201211 0 16913.27594067 0 2591.26067194 0 584.91530847 0 2005
0.04450000 0.04448520 42545.88590496 0 853.55401552 0 13047.25562067 0 1305.31872899 0 4623.45053778 0 2151
0.04550000 0.04548030 41928.22338871 0 1170.55999256 0 17641.88263999 0 -676.64857255 0 2536.19500959 0 2274
0.04650000 0.04648670 40143.45003570 0 2569.88469370 0 16645.36221541 0 -3112.06122717 0 -1745.60236719 0 2311
0.04750000 0.04749250 36696.05177677 0 1788.29940082 0 17764.90985290 0 -775.16481021 0 2020.33751202 0 2568
0.04850000 0.04851840 36768.76964726 0 -548.09502118 0 17568.17615797 0 4267.28675640 0 921.25083788 0 2493
0.04950000 0.04949480 37799.12255539 0 -1317.70932686 0 15905.00202343 0 2105.43499581 0 -884.93803784 0 2644
0.05050000 0.05050630 36232.72250529 0 1018.98607242 0 13539.25462659 0 822.32377721 0 -3690.98115592 0 2829
0.05150000 0.05149060 37532.96636174 0 1428.06034301 0 16801.56283752 0 -2262.28370770 0 -1314.08441791 0 2784
0.05250000 0.05249300 34955.21671408 0 1029.44009015 0 16131.61375578 0 -2706.31308516 0 -1745.45956775 0 3055
0.05350000 0.05348950 34634.35734898 0 -81.28287127 0 17083.53681568 0 3150.71593808 0 -654.01705766 0 3009
0.05450000 0.05448610 34938.63000948 0 -1501.63501016 0 15841.29150246 0 2309.92379899 0 -2211.83156583 0 3336
0.05550000 0.05550870 35261.24690619 0 250.71188460 0 14850.37320990 0 3598.28234791 0 2126.84392777 0 3349
0.05650000 0.05647670 35492.58200476 0 1097.20941069 0 14229.74485905 0 -180.62262233 0 860.88072543 0 3324
0.05750000 0.05747970 33764.92842916 0 1457.03764548 0 14063.10889299 0 -950.47199786 0 3600.78683045 0 3639
0.05850000 0.05849280 33876.42184086 0 664.64133626 0 17076.17715205 0 -413.26488503 0 2665.15389169 0 3846
0.05950000 0.05951020 32693.05383667 0 -180.68633285 0 16237.72472692 0 198.68785039 0 3095.77110603 0 3787
0.06050000 0.06049470 32553.43991917 0 92.83600533 0 16350.31659588 0 677.22855799 0 1397.75390726 0 3930
0.06150000 0.06148310 31894.03602711 0 871.17436840 0 16127.65930965 0 1384.22091384 0 2723.14145035 0 4083
0.06250000 0.06249100 31145.65709714 0 134.25783992 0 16586.15536920 0 -761.97124008 0 2643.12982367 0 4303
0.06350000 0.06350600 30601.04198856 0 1241.16882511 0 17209.31017174 0 205.10284078 0 1870.25529684 0 4470
0.06450000 0.06451750 29634.39960140 0 1652.74977516 0 17923.96646388 0 -512.97185035 0 2415.16698889 0 4479
0.06550000 0.06550280 29107.68934612 0 -196.32287192 0 17640.78418273 0 557.88447226 0 1568.43219603 0 4636
0.06650000 0.06648880 28890.63419192 0 -16.89042803 0 17435.37267546 0 2244.15916294 0 1729.52095293 0 4653
0.06750000 0.06749660 28102.16157203 0 -379.18634705 0 15652.35685406 0 1829.93093090 0 2077.41335116 0 5220
0.06850000 0.06852730 28674.12826634 0 216.58171913 0 15041.06538991 0 520.36556615 0 475.57377454 0 5029
0.06950000 0.06949320 28020.43635202 0 849.29969056 0 14186.35579735 0 403.82474335 0 754.62695485 0 5040
0.07050000 0.07048030 27000.62863357 0 -98.57149005 0 13265.62892358 0 950.97509129 0 2888.12973052 0 5475
0.07150000 0.07148790 27663.21805168 0 -347.23552078 0 11235.35037338 0 2543.11529031 0 390.12588288 0 5509
0.07250000 0.07249820 28157.30412639 0 -249.74524221 0 9536.68508482 0 2628.95972504 0 675.16565526 0 5916
0.07350000 0.07351270 27330.05596529 0 61.21460639 0 8306.31409456 0 -318.66904133 0 1599.24392212 0 5721
0.07450000 0.07449140 27027.65068212 0 1209.51128693 0 8917.80328102 0 -959.59798076 0 -189.52342149 0 6028
0.07550000 0.07549160 25623.16323187 0 721.25362643 0 9510.82740097 0 -793.32340714 0 737.61404884 0 6183
0.07650000 0.07648840 25234.30936249 0 41.55463808 0 8751.24420697 0 1603.95630376 0 937.92541906 0 6330
0.07750000 0.07749960 25019.01173990 0 -191.34026979 0 8669.54095611 0 1292.81828539 0 619.84075699 0 6583
0.07850000 0.07848650 25184.43940297 0 551.67049955 0 7865.93159520 0 119.83070229 0 -400.56781758 0 6549
0.07950000 0.07947320 24433.20448413 0 638.59911159 0 8177.42111989 0 -1227.47106310 0 -947.52703395 0 6828
0.08050000 0.08048110 22772.00757266 0 325.85295180 0 7625.44634768 0 398.04466126 0 1017.62508388 0 7147
0.08150000 0.08149960 23429.76377883 0 -158.47442863 0 7810.81100999 0 2049.94093513 0 -811.83570731 0 7386
0.08250000 0.08250610 23287.18402672 0 429.68901795 0 7225.75070516 0 156.56421146 0 -192.78803646 0 7227
0.08350000 0.08350160 23406.14694778 0 546.37593557 0 6220.27785393 0 -547.19428623 0 -1219.56217084 0 7798
0.08450000 0.08449610 21676.29645767 0 172.40286666 0 6848.26586840 0 -829.57469357 0 -978.33436621 0 7371
0.08550000 0.08548940 21233.83787409 0 325.27076945 0 6998.41399102 0 -327.97517122 0 -1485.36685817 0 8256
0.08650000 0.08650700 20993.49542601 0 692.85630940 0 6645.28195167 0 1010.10834086 0 -1437.64987487 0 8037
0.08750000 0.08749060 20731.84290712 0 -77.70464675 0 6523.73765606 0 593.23502374 0 -1434.59616370 0 8155
0.08850000 0.08849210 20310.69439436 0 139.63588665 0 6294.95097834 0 250.41310422 0 -680.79195333 0 8718
0.08950000 0.08949900 19772.12080069 0 795.13915699 0 5967.87434515 0 405.93487974 0 -276.57945457 0 8571
0.09050000 0.09049190 19645.68837028 0 260.73311016 0 5935.28311830 0 1090.39897569 0 957.89647047 0 8932
0.09150000 0.09150830 19352.29043663 0 23.36649264 0 6390.42888321 0 39.20130325 0 672.10974716 0 9285
0.09250000 0.09250820 18941.46742209 0 292.53015241 0 6027.72928115 0 335.81266376 0 680.04170702 0 9204
0.09350000 0.09350330 18286.34751334 0 518.25652822 0 6470.93481566 0 -596.86322807 0 1689.22954070 0 9349
0.09450000 0.09448040 18261.74207076 0 261.14393318 0 6500.47233133 0 11.17856013 0 1451.27074487 0 9564
0.09550000 0.09549270 17890.68320896 0 -170.93642622 0 6190.00437189 0 1242.83848014 0 1396.69938829 0 10155
0.09650000 0.09649430 17626.61408410 0 -93.44455065 0 5402.55331725 0 739.23427329 0 1959.10950446 0 9913
0.09750000 0.09749140 17805.77246291 0 290.03665444 0 5734.93549899 0 262.00182830 0 2145.83625377 0 10476
0.09850000 0.09850240 17634.19343919 0 -39.75053187 0 4496.67758562 0 545.61690160 0 1674.41135229 0 10575
0.09950000 0.09950330 17364.85171949 0 220.09129007 0 4574.63509723 0 516.93947796 0 2060.58498596 0 10882
0.10050000 0.10051200 17179.43213432 0 269.61303864 0 4181.98056573 0 -11.41066415 0 2244.58756127 0 10875
0.10150000 0.10150300 16796.40008841 0 270.74115424 0 4478.47614885 0 -374.29821225 0 1512.27906099 0 11118
0.10250000 0.10250800 16188.07445885 0 416.41745736 0 5104.45398654 0 -598.71742392 0 1448.01931139 0 11575
0.10350000 0.10349800 16041.43041489 0 479.89730231 0 5164.62747514 0 -442.12465257 0 1273.95777427 0 11364
0.10450000 0.10450100 15401.57906203 0 274.07387356 0 6208.16187037 0 -635.22574935 0 361.78348871 0 12093
0.10550000 0.10551000 14994.16126499 0 397.04726207 0 6039.36194351 0 61.58061235 0 556.14341751 0 12067
0.10650000 0.10649700 15331.82702614 0 -75.70864007 0 6145.08845461 0 640.85094897 0 211.86604212 0 12054
0.10750000 0.10749900 15234.39386734 0 -363.79366549 0 5654.74811915 0 -129.38947735 0 16.38063402 0 12807
0.10850000 0.10850100 14986.03268127 0 330.79051717 0 5842.55135657 0 87.81287013 0 154.86599654 0 12736
0.10950000 0.10950300 15376.09485364 0 257.17081327 0 5928.53859074 0 -181.18393399 0 -248.68303404 0 12933
0.11050000 0.11050200 14819.83609812 0 136.41520997 0 6047.84203355 0 160.70209995 0 32.79828604 0 13428
0.11150000 0.11150900 15074.34864483 0 103.48653705 0 5766.31842286 0 296.56368747 0 -996.78515278 0 13453
0.11250000 0.11250000 14439.11081245 0 1.97623445 0 5529.97435920 0 298.10152763 0 416.62067195 0 13668
0.11350000 0.11349100 14521.82464399 0 99.70026473 0 5349.38798596 0 501.98727777 0 -65.87997406 0 13791
0.11450000 0.11448600 14209.75293695 0 178.88486294 0 5389.39379930 0 102.52901186 0 939.84881772 0 14205
0.11550000 0.11549300 14207.44617671 0 -106.84946395 0 4506.13530261 0 645.55783832 0 218.18876210 0 14776
0.11650000 0.11649800 14424.28163947 0 45.71361695 0 4622.28617308 0 67.75723751 0 -311.49282006 0 14553
0.11750000 0.11747300 14254.78968453 0 164.64006922 0 4119.37948659 0 298.79904799 0 181.95505098 0 14568
0.11850000 0.11849100 13899.76829871 0 42.67045096 0 4198.45742461 0 -45.09804150 0 473.39004151 0 16015
0.11950000 0.11950300 13931.40386774 0 134.16117568 0 4023.00084676 0 334.77681856 0 164.49617132 0 15270
0.12050000 0.12050700 13592.20026643 0 80.27075275 0 4222.57954599 0 -177.89185758 0 163.24393005 0 15999
0.12150000 0.12150000 13642.94899175 0 161.65226548 0 3776.74869864 0 89.13409452 0 136.51626804 0 15670
0.12250000 0.12250700 13370.20205456 0 164.60052476 0 4279.83113829 0 -38.14876150 0 -226.27780135 0 16887
0.12350000 0.12352200 13337.24833682 0 229.88403653 0 4085.08565099 0 82.35397694 0 -69.24004496 0 16407
0.12450000 0.12449800 12905.88417155 0 234.32619768 0 4198.66613148 0 -196.04166686 0 -18.52350444 0 16306
0.12550000 0.12549900 12801.75042347 0 211.91327578 0 4189.18644535 0 355.91113621 0 177.85231312 0 17523
0.12650000 0.12650100 12581.29005177 0 -64.68375410 0 4285.64197718 0 -55.85863864 0 -269.89644061 0 17154
0.12750000 0.12750600 12455.95607861 0 295.57617439 0 4189.88945799 0 -124.38929991 0 -73.02313176 0 18007
0.12850000 0.12850300 12102.03315004 0 306.99903142 0 4348.47373235 0 -444.22380439 0 -253.35147739 0 17496
0.12950000 0.12949900 12237.25323852 0 -106.86055837 0 4496.35903301 0 360.07758459 0 -359.99629875 0 18405
0.13050000 0.13049000 12169.69811714 0 -190.61418955 0 3918.38377750 0 118.40380631 0 -1154.78614633 0 18100
0.13150000 0.13148800 12241.97660473 0 59.63634300 0 3625.35931932 0 330.57961338 0 -782.62553190 0 19059
0.13250000 0.13249300 12040.19000641 0 172.09969246 0 3723.27579931 0 127.86921250 0 -473.68442805 0 18957
0.13350000 0.13349100 11889.92105350 0 158.33492456 0 3537.18615521 0 614.98667437 0 -101.33806450 0 19468
0.13450000 0.13450700 11842.02831704 0 -21.80657349 0 3425.00071544 0 12.81438268 0 -368.67740646 0 19953
0.13550000 0.13551000 11778.09810462 0 216.17638840 0 3067.41992419 0 276.95842232 0 -96.82768916 0 19956
0.13650000 0.13649900 11493.15829186 0 176.12883368 0 3314.78151415 0 -44.41930476 0 99.07018965 0 19723
0.13750000 0.13749600 11445.04586395 0 -99.41785137 0 3259.62797522 0 -195.62315464 0 110.99910593 0 20946
0.13850000 0.13851100 11214.25999402 0 192.18608188 0 3394.07914362 0 185.90839865 0 -25.33657573 0 20955
0.13950000 0.13949800 11333.88198943 0 173.92642688 0 3169.90598638 0 -7.85291488 0 -113.23776183 0 20506
0.14050000 0.14048300 11140.77320345 0 -72.61878964 0 3120.76100865 0 233.94503301 0 143.06417176 0 21447
0.14150000 0.14148400 11085.41095764 0 439.11378123 0 3449.96864891 0 -36.47185665 0 -205.03144106 0 21771
0.14250000 0.14249400 10724.15033458 0 177.59417567 0 3504.33129862 0 -139.51725327 0 709.53528440 0 22470
0.14350000 0.14350900 10724.89728552 0 -120.95332561 0 3327.45771091 0 348.30981198 0 320.03442370 0 22519
0.14450000 0.14449900 10690.01028300 0 -27.10904636 0 3655.92938481 0 142.34248534 0 463.87410628 0 22218
0.14550000 0.14550500 10543.12457844 0 303.66960747 0 3659.41149432 0 -503.63166828 0 -42.56038554 0 23559
0.14650000 0.14650700 10301.17838277 0 274.43197063 0 3702.19640453 0 -23.69559044 0 790.08625360 0 23044
0.14750000 0.14750500 10101.36900751 0 -41.43930006 0 3979.84246109 0 -8.32596549 0 226.13170653 0 23649
0.14850000 0.14849900 10164.29962383 0 116.50567217 0 3849.04915537 0 294.67543944 0 393.98696015 0 23640
0.14950000 0.14949500 9919.08002553 0 179.41212243 0 3864.26278839 0 50.25859370 0 18.21450841 0 24457
0.15050000 0.15050000 9684.20789459 0 26.30849072 0 3555.13494681 0 140.03242972 0 463.72471609 0 24591
0.15150000 0.15149900 9713.33898108 0 58.54107127 0 3580.98164609 0 447.20391893 0 344.02033639 0 25020
0.15250000 0.15250500 9692.03989484 0 118.47410758 0 3202.55213609 0 235.39939042 0 521.12569858 0 25297
0.15350000 0.15350100 9332.91027887 0 6.58951328 0 3027.69970974 0 172.59180131 0 731.72082565 0 25452
0.15450000 0.15450400 9578.11889260 0 97.14041994 0 2794.35443440 0 374.12355755 0 898.23815832 0 26061
0.15550000 0.15549900 9375.46451305 0 1.53959769 0 2584.38432950 0 146.74949586 0 715.30218501 0 26128
0.15650000 0.15649500 9283.26001080 0 107.47141045 0 2453.04179515 0 29.66647455 0 1132.69617087 0 26331
0.15750000 0.15749700 9135.13304954 0 174.16479211 0 2645.48052220 0 -148.49164907 0 667.46546988 0 27345
0.15850000 0.15849900 9076.26672508 0 162.37175498 0 2771.79212231 0 -66.02540980 0 809.15437314 0 26980
0.15950000 0.15949700 8816.27287665 0 113.30806309 0 2977.50021304 0 -149.52200198 0 591.00186014 0 27777
0.16050000 0.16050000 8742.62131749 0 65.15004921 0 3010.14636276 0 -146.69786837 0 308.48524409 0 28224
0.16150000 0.16150500 8822.23749956 0 -72.50092518 0 2835.24999812 0 151.32237342 0 195.02779081 0 28075
0.16250000 0.16249700 8676.25252995 0 175.06333014 0 2854.85746017 0 177.21520791 0 258.42415301 0 28590
0.16350000 0.16349900 8570.40518856 0 67.30159744 0 2755.18344857 0 200.87378034 0 455.94104796 0 29163
0.16450000 0.16449100 8556.11425963 0 -44.52321882 0 2318.56865761 0 351.42723368 0 812.59034745 0 28996
0.16550000 0.16550500 8555.59798472 0 7.62847809 0 2297.58812398 0 307.44170969 0 380.78899619 0 30777
0.16650000 0.16650700 8501.88342480 0 167.73222640 0 2302.82776510 0 -14.74612962 0 788.52205047 0 29211
0.16750000 0.16749900 8279.75339806 0 15.42629435 0 1925.34292834 0 54.98064176 0 736.15090377 0 30922
0.16850000 0.16850800 8566.56058816 0 -70.82731570 0 2014.01039822 0 302.64254993 0 788.18592254 0 30867
0.16950000 0.16949900 8454.92437701 0 -102.38401550 0 1806.53379130 0 60.49775318 0 428.63340053 0 30852
0.17050000 0.17049200 8473.93867215 0 104.31268676 0 1743.50431383 0 -349.13255647 0 458.62018522 0 31257
0.17150000 0.17149500 8223.84192362 0 312.68244927 0 2035.55114505 0 -478.48139090 0 145.23582176 0 32608
0.17250000 0.17250900 7989.46409845 0 352.57182614 0 2387.18928252 0 -305.54028018 0 -186.44224888 0 32361
0.17350000 0.17350400 7783.37154768 0 118.45653226 0 2753.03047234 0 -2.95715678 0 124.45960118 0 32508
0.17450000 0.17449800 7697.92255757 0 45.70603759 0 2980.96035341 0 46.46375341 0 136.56460016 0 32791
0.17550000 0.17549800 7527.72758999 0 97.77785468 0 2876.46411444 0 20.32805002 0 138.74174245 0 33633
0.17650000 0.17650100 7581.07965902 0 3.57273223 0 2598.78510416 0 305.04267904 0 257.36853558 0 33984
0.17750000 0.17750300 7606.35516053 0 62.59064380 0 2721.21915015 0 224.64988769 0 391.19358334 0 34069
0.17850000 0.17849800 7550.66337754 0 -2.71915405 0 2643.00899337 0 176.94938126 0 684.69147660 0 34536
