### header ###
fiducial parameters:
Omega_m = 0.31
Omega_nu = 0
Omega_de = 0.69
Omega_k = 0
H_0 = 100
w_de = -1
zeff = 0
beta = 0
fgrowth = 0
b_1 = 2
gamma = 0.55
Lx = 3500 Ly = 3500 Lz = 3500
nx = 700 ny = 700 nz = 700
xoffset = -983.599254 yoffset = -42.9823471 zoffset = 800.977702
bins = 400 dk = 0.001
kx_ny = 0.628318531 ky_ny = 0.628318531 kz_ny = 0.628318531
############################
A(data) = 9.11649259 (not used)
A(ran) = 9.13246564 (used)
Ngal = 507593
weighted Ngal = 0
Nran = 25229228
weighted Nran = 0
SN(data) = 6703.32067
SN(ran) = 135.565161
SN(data+ran) = 6838.88583
############################
13 columns: k_central k_mean P_0(k) sigma^{lin}_{P_0(k)} P^img_1(k) sigma^{lin}_{P_1(k)} P_2(k) sigma^{lin}_{P_2(k)} P^img_3(k) sigma^{lin}_{P_3(k)} P_4(k) sigma^{lin}_{P_4(k)} N_modes
### header ###
0.00050000 0 0 0 0 0 0 0 0 0 0 0 0
0.00150000 0.00179520 48342.77439331 0 -65416.42509367 0 -42179.11102647 0 -41599.01574845 0 -98304.56493939 0 3
0.00250000 0.00253879 59552.97009548 0 -62050.20282612 0 -52599.73565149 0 -11883.76969285 0 29779.06642230 0 6
0.00350000 0.00331552 62394.67902227 0 -18698.37883087 0 -25108.20646926 0 -64172.75178601 0 -20717.12357986 0 7
0.00450000 0.00420575 61827.65538562 0 11532.37321597 0 -17677.80219233 0 -68149.05721473 0 -8793.40299653 0 24
0.00550000 0.00557378 66426.89592543 0 12174.86086626 0 -9085.37293575 0 -8452.49678647 0 -12987.49954583 0 45
0.00650000 0.00659388 47574.95276988 0 -5568.21165635 0 7729.63501861 0 10480.71023704 0 8607.63190504 0 40
0.00750000 0.00754703 47623.61442641 0 -1567.39964620 0 -5307.95417818 0 8125.09061611 0 -4605.94112908 0 57
0.00850000 0.00846663 53978.62904762 0 -171.20005597 0 9514.13375731 0 -9065.96319600 0 1061.75999805 0 75
0.00950000 0.00948925 55098.50622229 0 7332.05939860 0 9850.07494057 0 540.04662485 0 13152.04844309 0 112
0.01050000 0.01054430 52350.71539107 0 -4369.55312713 0 13727.85973781 0 4892.66044260 0 12781.20927275 0 105
0.01150000 0.01145670 62200.69147049 0 -11274.45545176 0 18630.38432659 0 22788.04504863 0 34835.26518149 0 144
0.01250000 0.01249090 71577.67185455 0 -7937.85857646 0 7887.34052716 0 13670.63011466 0 5261.11596070 0 169
0.01350000 0.01339930 83538.66309265 0 1857.31547034 0 15155.41479048 0 -17160.31897803 0 25336.13635032 0 180
0.01450000 0.01448870 76062.01376516 0 10792.01302399 0 27182.09377261 0 -5476.97379649 0 31217.60604755 0 267
0.01550000 0.01550050 78985.77744913 0 2869.17035825 0 53085.69314249 0 -12263.39652126 0 19780.90845876 0 238
0.01650000 0.01653350 68132.25081868 0 -1012.82702258 0 45710.32157420 0 15189.24727403 0 36782.39051726 0 315
0.01750000 0.01747870 76655.94960463 0 -862.53170669 0 56170.49066051 0 24389.59573099 0 17178.33367706 0 297
0.01850000 0.01844180 74292.61881375 0 -2645.72218280 0 51224.90654721 0 -4190.95496153 0 29172.60817008 0 388
0.01950000 0.01947590 71270.54320517 0 4224.73252222 0 43097.20160282 0 14624.64024335 0 8316.02445672 0 399
0.02050000 0.02045430 69629.11852434 0 9218.22035655 0 51790.61203515 0 -10574.03516569 0 30771.85209220 0 462
0.02150000 0.02154770 61773.61128852 0 4358.15114079 0 47872.41499538 0 3694.02388253 0 18672.12570240 0 571
0.02250000 0.02255340 63554.32034968 0 -955.63035315 0 58858.85495406 0 21647.18734033 0 12272.40387078 0 510
0.02350000 0.02348930 59666.88011315 0 -3043.66029370 0 35079.01284707 0 6527.01105869 0 21624.44927508 0 555
0.02450000 0.02439640 61889.93791216 0 -204.39433585 0 31744.20645710 0 7473.77136947 0 12651.04208766 0 592
0.02550000 0.02547300 57625.39729890 0 2626.53213450 0 28394.35120269 0 103.31638603 0 4764.61328002 0 837
0.02650000 0.02652900 57880.23938279 0 2066.09924140 0 28499.69325375 0 -4800.81843125 0 5368.09471307 0 723
0.02750000 0.02749970 52126.08088178 0 554.08930243 0 27853.47084879 0 -839.90897946 0 -10666.20671422 0 826
0.02850000 0.02848090 53932.60368851 0 1824.32879888 0 23602.55110553 0 -4671.38721252 0 -11135.93999151 0 831
0.02950000 0.02946900 53628.22118228 0 -2541.68729588 0 22941.60937331 0 8021.53905039 0 -15213.08379653 0 996
0.03050000 0.03053250 60676.69187055 0 -2803.04323131 0 20660.66287680 0 3396.02341297 0 -24262.83376340 0 1041
0.03150000 0.03150510 58129.58918039 0 1467.23132884 0 15337.31931243 0 -3121.22236070 0 -21835.02353147 0 1036
0.03250000 0.03246190 58480.10689146 0 2380.82921500 0 18336.54701004 0 -2710.61903761 0 -21247.67843554 0 1059
0.03350000 0.03345080 57128.34538960 0 -605.49710212 0 21718.36737065 0 -2700.63406113 0 -13487.18775255 0 1302
0.03450000 0.03451200 53619.54336994 0 2119.73690931 0 23503.90964375 0 2073.12936785 0 -21899.94235542 0 1339
0.03550000 0.03553350 50624.81934709 0 2994.28463995 0 21696.06868831 0 -2443.58407816 0 -8247.93109129 0 1365
0.03650000 0.03647120 52908.18244957 0 1223.75827757 0 27840.28936169 0 9988.00821847 0 -7444.89292816 0 1308
0.03750000 0.03744890 49524.60455734 0 -1272.00252035 0 22777.39001322 0 3518.44647438 0 -4893.09982550 0 1579
0.03850000 0.03847530 52105.97911396 0 -534.16218931 0 18129.15827970 0 4407.47187168 0 -5264.68594679 0 1662
0.03950000 0.03950240 50690.28739967 0 985.96425033 0 18820.08789507 0 -3092.01438220 0 -3682.57795790 0 1683
0.04050000 0.04050350 47303.30428994 0 3612.16684765 0 17765.12954435 0 -4517.30661292 0 -4700.74897503 0 1822
0.04150000 0.04152450 45909.91125800 0 1868.60761096 0 23478.64512681 0 -1636.58048432 0 -2982.55311643 0 1887
0.04250000 0.04250150 45292.68812465 0 -739.00140035 0 18444.52535851 0 5625.00189660 0 -10174.43838432 0 1920
0.04350000 0.04349210 47305.39135873 0 -1810.53217572 0 19222.78232590 0 2930.18965894 0 -14819.39671522 0 2005
0.04450000 0.04448520 44629.98886082 0 1663.74533232 0 16773.88171461 0 -2006.39808942 0 -11739.76194631 0 2151
0.04550000 0.04548030 41662.28688652 0 3880.06958834 0 17296.19814086 0 -2208.63505521 0 -5982.01149007 0 2274
0.04650000 0.04648670 38852.10368303 0 592.93734183 0 17188.87886674 0 4394.70779834 0 -2478.15252807 0 2311
0.04750000 0.04749250 39096.51042297 0 -802.57900800 0 16078.66811594 0 6034.95712991 0 -4526.81925278 0 2568
0.04850000 0.04851840 40154.10507110 0 -26.06419382 0 11899.25794019 0 4740.75478837 0 -1892.14755000 0 2493
0.04950000 0.04949480 38338.35522340 0 653.08117208 0 9473.32607017 0 265.16538520 0 195.34524496 0 2644
0.05050000 0.05050630 37411.47698899 0 1217.14556488 0 10859.31550020 0 -1967.94110081 0 4212.90213755 0 2829
0.05150000 0.05149060 36736.47500387 0 -352.11816330 0 8792.64506103 0 1867.27847768 0 1635.41611963 0 2784
0.05250000 0.05249300 37696.74633893 0 -127.72311769 0 9889.55349443 0 687.51011792 0 1110.58422626 0 3055
0.05350000 0.05348950 35613.19261170 0 851.99860004 0 8524.91807350 0 -124.17729766 0 1930.00038711 0 3009
0.05450000 0.05448610 36486.13659474 0 1587.86390492 0 10520.40848235 0 -1047.26036225 0 2268.00667002 0 3336
0.05550000 0.05550870 35309.46917982 0 -115.95534508 0 12394.55231788 0 -1455.29109844 0 1674.30150657 0 3349
0.05650000 0.05647670 34917.64947585 0 433.79724810 0 12478.36460668 0 -443.48783803 0 -3706.46940326 0 3324
0.05750000 0.05747970 34861.40846423 0 196.64142452 0 12742.32388581 0 -1272.77144043 0 -688.94250619 0 3639
0.05850000 0.05849280 33808.09779941 0 675.76980675 0 15297.00593105 0 -501.88841661 0 -2601.70700046 0 3846
0.05950000 0.05951020 34892.16526746 0 740.55022509 0 15592.05155059 0 -2651.84058972 0 -5819.13224783 0 3787
0.06050000 0.06049470 33033.46574097 0 528.06904690 0 15869.74154544 0 1082.79655301 0 -6264.39189741 0 3930
0.06150000 0.06148310 32050.89572357 0 170.31030559 0 16008.03731424 0 -138.34629783 0 -5134.87026802 0 4083
0.06250000 0.06249100 31281.53625997 0 486.46387979 0 15078.08339951 0 2344.73390950 0 -2066.42877857 0 4303
0.06350000 0.06350600 31702.02569839 0 30.24898644 0 13205.21377439 0 4482.14499609 0 -2060.89255399 0 4470
0.06450000 0.06451750 31782.98199831 0 -378.39655628 0 11429.99699952 0 3483.71325588 0 -1007.34791777 0 4479
0.06550000 0.06550280 31163.67179617 0 501.01184772 0 10371.07321810 0 93.80067049 0 2747.46129405 0 4636
0.06650000 0.06648880 30393.54341250 0 590.17801719 0 7905.43211820 0 -401.23238422 0 1567.66327595 0 4653
0.06750000 0.06749660 30128.15613893 0 370.71065085 0 10689.69173040 0 -626.41502368 0 1285.89800466 0 5220
0.06850000 0.06852730 28680.27962698 0 423.02577622 0 9009.32673977 0 492.55812066 0 -1215.02554237 0 5029
0.06950000 0.06949320 28799.35239377 0 825.21931055 0 10992.92085651 0 -1694.13964465 0 265.86949630 0 5040
0.07050000 0.07048030 28247.59731300 0 644.96357294 0 10148.27313244 0 827.93359843 0 -1127.48948347 0 5475
0.07150000 0.07148790 27952.77138492 0 -351.49753494 0 10417.19743837 0 669.93040796 0 -2397.37198131 0 5509
0.07250000 0.07249820 28114.46429332 0 -434.94184056 0 8787.64708050 0 1711.03391728 0 -2332.90352483 0 5916
0.07350000 0.07351270 28112.70676171 0 743.36776796 0 9186.77152525 0 -796.52541005 0 -1505.69930202 0 5721
0.07450000 0.07449140 26782.58486783 0 366.86385353 0 8083.18447172 0 475.60233443 0 481.17151272 0 6028
0.07550000 0.07549160 26745.67670396 0 119.01564700 0 8564.83601026 0 1403.71853017 0 -1944.95039040 0 6183
0.07650000 0.07648840 27077.19110446 0 423.13012966 0 7353.53423800 0 -501.93455182 0 -2789.71894477 0 6330
0.07750000 0.07749960 25732.45972905 0 1077.44816462 0 8678.97670395 0 -1075.56760579 0 -3040.21113791 0 6583
0.07850000 0.07848650 24557.00061713 0 466.06882388 0 8489.10836689 0 171.86572106 0 -591.68619901 0 6549
0.07950000 0.07947320 23838.49972458 0 -201.47463646 0 8201.76293273 0 648.02717024 0 -1272.43091868 0 6828
0.08050000 0.08048110 23786.76238772 0 365.53581870 0 7737.09354339 0 1880.19633503 0 -1122.38165722 0 7147
0.08150000 0.08149960 23845.74954248 0 594.24011213 0 7067.37513768 0 929.78694923 0 -181.11582964 0 7386
0.08250000 0.08250610 22665.12768144 0 426.87037663 0 6892.76437193 0 156.81246280 0 1793.14359732 0 7227
0.08350000 0.08350160 22903.49290646 0 179.92400351 0 7260.19832478 0 179.61423856 0 1235.13829476 0 7798
0.08450000 0.08449610 22255.95235279 0 345.82949549 0 7725.03248270 0 28.85383587 0 1261.08385520 0 7371
0.08550000 0.08548940 21522.51244153 0 377.62104546 0 7573.06092104 0 -648.07001007 0 1918.20295616 0 8256
0.08650000 0.08650700 21323.36214063 0 0.30058184 0 7792.92812583 0 865.01422009 0 1966.56802924 0 8037
0.08750000 0.08749060 21272.28387813 0 516.30017584 0 8830.00359238 0 1.48526800 0 2567.66581003 0 8155
0.08850000 0.08849210 20715.58573970 0 552.52619776 0 7435.25945800 0 292.85090193 0 2398.11893224 0 8718
0.08950000 0.08949900 20842.45755302 0 -350.83626368 0 8048.45125321 0 1447.83257366 0 2429.75450128 0 8571
0.09050000 0.09049190 20616.50489502 0 69.04836417 0 7116.20156281 0 91.87551430 0 2362.44104050 0 8932
0.09150000 0.09150830 20357.70836500 0 248.32383852 0 6938.82268476 0 38.85902396 0 3213.26209436 0 9285
0.09250000 0.09250820 19708.19058827 0 654.73984254 0 6765.98043520 0 -124.58812067 0 2176.56010328 0 9204
0.09350000 0.09350330 19045.05194153 0 331.37709335 0 6673.58919521 0 -18.35598970 0 1891.49946022 0 9349
0.09450000 0.09448040 19390.73644067 0 233.49576399 0 6652.43290842 0 1350.32252285 0 1611.56861255 0 9564
0.09550000 0.09549270 18625.88065183 0 -216.24449275 0 5826.83243321 0 1055.29118326 0 2567.00673568 0 10155
0.09650000 0.09649430 18828.87555313 0 20.75930434 0 5398.45607168 0 302.42505540 0 1554.14126710 0 9913
0.09750000 0.09749140 18434.52939746 0 509.20414195 0 5517.39702359 0 -1016.82540700 0 1383.99023781 0 10476
0.09850000 0.09850240 17793.35989589 0 509.00422273 0 5687.29540771 0 -132.89245755 0 1804.76527511 0 10575
0.09950000 0.09950330 17541.37380087 0 -75.74071502 0 5625.62801724 0 176.48363538 0 815.48258541 0 10882
0.10050000 0.10051200 17263.68380602 0 169.84895354 0 5381.03453957 0 460.15253309 0 585.69301621 0 10875
0.10150000 0.10150300 17263.13457739 0 159.43338182 0 5017.17057281 0 45.66089100 0 466.44779164 0 11118
0.10250000 0.10250800 17138.45967859 0 271.23985384 0 6216.08174720 0 -265.54984524 0 -358.40573264 0 11575
0.10350000 0.10349800 16453.79126959 0 808.85339586 0 5933.59149413 0 -911.82387769 0 1322.65238452 0 11364
0.10450000 0.10450100 16272.32613055 0 -118.54770421 0 6064.54956844 0 417.07433480 0 602.99042265 0 12093
0.10550000 0.10551000 16415.45511129 0 -211.24980760 0 6177.59180488 0 1022.90207255 0 400.91712699 0 12067
0.10650000 0.10649700 16330.76405668 0 -52.54766878 0 5339.10642602 0 377.97035487 0 109.74664497 0 12054
0.10750000 0.10749900 16100.52741538 0 184.85168277 0 5298.21086230 0 496.10064532 0 1223.89009244 0 12807
0.10850000 0.10850100 15986.94693489 0 337.20111373 0 5474.16174591 0 -728.78904323 0 995.25610028 0 12736
0.10950000 0.10950300 15408.82887993 0 514.18674408 0 5412.17580284 0 179.61314011 0 1160.09169489 0 12933
0.11050000 0.11050200 15170.79319209 0 13.01276406 0 5987.10833174 0 266.80648034 0 1182.65400697 0 13428
0.11150000 0.11150900 15171.12272927 0 27.14375761 0 4819.99749498 0 761.09686810 0 745.53063030 0 13453
0.11250000 0.11250000 15389.05664928 0 59.98147827 0 5256.82099282 0 554.13763455 0 1560.52330377 0 13668
0.11350000 0.11349100 14833.23727667 0 18.94377418 0 4400.22205378 0 176.85161856 0 1221.41856361 0 13791
0.11450000 0.11448600 14980.43054926 0 282.52210833 0 4645.18900692 0 407.08716141 0 2770.45200446 0 14205
0.11550000 0.11549300 14585.75485641 0 -139.91819017 0 4168.37068031 0 387.47420706 0 1587.33664544 0 14776
0.11650000 0.11649800 14663.96501319 0 309.55074763 0 4001.88849826 0 223.94687504 0 2154.47012781 0 14553
0.11750000 0.11747300 14581.36102738 0 300.45552153 0 4499.69834308 0 -477.14896225 0 1959.43904163 0 14568
0.11850000 0.11849100 14069.15040791 0 101.59411489 0 4612.96027096 0 -119.15295416 0 2174.27531218 0 16015
0.11950000 0.11950300 13861.10260322 0 -49.60237533 0 4748.97124866 0 204.18672743 0 2149.21950212 0 15270
0.12050000 0.12050700 14059.04460114 0 119.37813790 0 4379.73582592 0 -89.63268427 0 1302.42978640 0 15999
0.12150000 0.12150000 13660.08492498 0 377.06083226 0 4701.52887969 0 109.84517658 0 1662.81164365 0 15670
0.12250000 0.12250700 13441.49193061 0 156.75534302 0 4821.18382881 0 30.73516362 0 1615.77570385 0 16887
0.12350000 0.12352200 13439.62455327 0 121.06426979 0 4420.42268276 0 -58.82667016 0 1345.25863489 0 16407
0.12450000 0.12449800 13342.08154875 0 84.39820590 0 4789.75696666 0 236.80980954 0 1197.41727252 0 16306
0.12550000 0.12549900 13252.66712794 0 -93.61645921 0 4134.49425846 0 421.84603313 0 1194.01205502 0 17523
0.12650000 0.12650100 13065.70970260 0 -123.41936215 0 3903.26900563 0 367.24062437 0 1063.92835268 0 17154
0.12750000 0.12750600 13048.90330656 0 237.89069148 0 3969.96733034 0 -219.92212765 0 1217.14556488 0 18007
0.12850000 0.12850300 12849.86285138 0 298.95393046 0 3944.03275448 0 -189.85845095 0 1189.73905629 0 17496
0.12950000 0.12949900 12830.31031219 0 176.23099021 0 4074.52947674 0 282.09041463 0 786.32403749 0 18405
0.13050000 0.13049000 12778.68282105 0 53.78661872 0 4888.78288848 0 -695.08837455 0 464.44310714 0 18100
0.13150000 0.13148800 12341.93621522 0 97.92691533 0 4434.42801280 0 -411.56557165 0 7.07112088 0 19059
0.13250000 0.13249300 12069.95819811 0 332.36021259 0 5143.96549412 0 -110.94857690 0 -152.46476897 0 18957
0.13350000 0.13349100 12124.11214093 0 155.57779684 0 5149.44679584 0 -287.01040469 0 -364.86246440 0 19468
0.13450000 0.13450700 12285.80504933 0 -102.96235325 0 4766.03028988 0 580.78840455 0 -1129.26898422 0 19953
0.13550000 0.13551000 12131.47180456 0 -126.72352158 0 4728.75963512 0 555.48104778 0 -747.83629208 0 19956
0.13650000 0.13649900 11993.61541867 0 117.57227417 0 3996.67082629 0 -5.83043537 0 -473.57568078 0 19723
0.13750000 0.13749600 11986.58529221 0 285.40116481 0 4100.95835837 0 651.08747216 0 104.87696425 0 20946
0.13850000 0.13851100 11738.66348905 0 -20.20787879 0 3553.15772374 0 578.10267655 0 199.66108352 0 20955
0.13950000 0.13949800 11437.13697169 0 158.25144181 0 3368.50705865 0 287.56732252 0 559.80237863 0 20506
0.14050000 0.14048300 11259.40658733 0 336.41571679 0 3312.35392361 0 -93.25221078 0 707.45370790 0 21447
0.14150000 0.14148400 10829.09694103 0 348.67669671 0 3468.68636059 0 -109.06691962 0 1218.15614555 0 21771
0.14250000 0.14249400 10548.26535841 0 23.39944636 0 3898.32594797 0 -48.08782246 0 710.34704432 0 22470
0.14350000 0.14350900 10468.73705292 0 106.23597557 0 3388.64178019 0 515.10175897 0 1099.83032971 0 22519
0.14450000 0.14449900 10712.86917854 0 -197.27743127 0 3077.99806759 0 311.10945848 0 423.07630526 0 22218
0.14550000 0.14550500 10656.00204629 0 -9.67120216 0 2748.09839926 0 175.13363141 0 646.97045435 0 23559
0.14650000 0.14650700 10553.31826180 0 136.50528347 0 2618.98573313 0 28.85647217 0 789.37994558 0 23044
0.14750000 0.14750500 10356.02435367 0 48.42186332 0 2164.93842548 0 -26.29003663 0 461.45200803 0 23649
0.14850000 0.14849900 10307.25285141 0 178.78710025 0 2659.49683681 0 95.51217674 0 -203.56719753 0 23640
0.14950000 0.14949500 10173.51568023 0 311.76743438 0 2469.36487000 0 -165.66053601 0 -21.88181781 0 24457
0.15050000 0.15050000 9835.67416592 0 178.97713335 0 2756.82014988 0 -534.60816296 0 -197.05005062 0 24591
0.15150000 0.15149900 9532.92836100 0 -22.12084211 0 2766.56346576 0 -65.87338331 0 -616.31031536 0 25020
0.15250000 0.15250500 9407.31977353 0 93.27253224 0 2740.28836815 0 59.58087091 0 -672.30087873 0 25297
0.15350000 0.15350100 9525.75543511 0 79.46415559 0 2608.19888286 0 195.08820596 0 -694.12722444 0 25452
0.15450000 0.15450400 9500.71060962 0 -75.63284651 0 2369.98744186 0 588.51055908 0 -611.05859121 0 26061
0.15550000 0.15549900 9812.98003896 0 -12.74276327 0 2058.57480918 0 442.18396926 0 -161.48529998 0 26128
0.15650000 0.15649500 9638.13859719 0 6.75788481 0 1876.35173463 0 161.94335665 0 78.22278904 0 26331
0.15750000 0.15749700 9475.33624696 0 88.14757006 0 2140.87122696 0 -268.52007367 0 105.02207046 0 27345
0.15850000 0.15849900 9233.63171188 0 207.64796625 0 2053.28024520 0 -221.72469601 0 -72.62592962 0 26980
0.15950000 0.15949700 9298.10016836 0 -6.43769550 0 2105.20431979 0 312.39794884 0 211.86054983 0 27777
0.16050000 0.16050000 9299.78080796 0 54.00290495 0 2148.70322721 0 -18.04292938 0 -24.02941160 0 28224
0.16150000 0.16150500 9076.27770965 0 147.72931973 0 1943.89587143 0 210.39630631 0 243.17646781 0 28075
0.16250000 0.16249700 9026.55054957 0 163.84588462 0 2121.38459520 0 -116.32332826 0 428.17754076 0 28590
0.16350000 0.16349900 8857.09154836 0 198.69114577 0 2284.48352889 0 -234.01643273 0 321.82271212 0 29163
0.16450000 0.16449100 8657.15035824 0 36.91673184 0 2104.20472368 0 327.85434092 0 403.66327013 0 28996
0.16550000 0.16550500 8451.32143721 0 8.08149285 0 2368.09809538 0 152.74377712 0 650.19332795 0 30777
0.16650000 0.16650700 8554.34574345 0 73.93243468 0 2228.22054813 0 99.10731750 0 671.22878444 0 29211
0.16750000 0.16749900 8482.13316330 0 119.24083074 0 2060.77172370 0 212.01323539 0 718.44706814 0 30922
0.16850000 0.16850800 8404.35140485 0 96.03921654 0 2084.22378616 0 13.18170679 0 1038.00476139 0 30867
0.16950000 0.16949900 8147.71883563 0 130.73618595 0 2019.73336053 0 -77.65477679 0 727.35226113 0 30852
0.17050000 0.17049200 8230.34479059 0 61.42540034 0 2115.61769459 0 134.09966207 0 940.40244018 0 31257
0.17150000 0.17149500 8118.09344338 0 66.74424023 0 2135.89521558 0 -161.26341161 0 885.59930911 0 32608
0.17250000 0.17250900 7978.07309668 0 37.37467867 0 2014.25205881 0 111.68124789 0 803.65329920 0 32361
0.17350000 0.17350400 8037.66440294 0 -38.54816056 0 1895.28913776 0 173.09269782 0 526.87063004 0 32508
0.17450000 0.17449800 7988.90388525 0 181.02905151 0 2022.92987115 0 -212.37462783 0 284.41804556 0 32791
0.17550000 0.17549800 7859.15411392 0 136.79307927 0 1922.49792404 0 -171.90746244 0 352.04676357 0 33633
0.17650000 0.17650100 7651.95212132 0 130.95258203 0 2240.60016142 0 -100.30881005 0 94.44733228 0 33984
0.17750000 0.17750300 7635.99153736 0 65.21826340 0 2260.33943835 0 63.83201034 0 212.24720679 0 34069
