### header ###
fiducial parameters:
Omega_m = 0.31
Omega_nu = 0
Omega_de = 0.69
Omega_k = 0
H_0 = 100
w_de = -1
zeff = 0
beta = 0
fgrowth = 0
b_1 = 2
gamma = 0.55
Lx = 3500 Ly = 3500 Lz = 3500
nx = 700 ny = 700 nz = 700
xoffset = -983.599254 yoffset = -42.9823471 zoffset = 800.977702
bins = 400 dk = 0.001
kx_ny = 0.628318531 ky_ny = 0.628318531 kz_ny = 0.628318531
############################
A(data) = 9.07138985 (not used)
A(ran) = 9.06324212 (used)
Ngal = 504207
weighted Ngal = 0
Nran = 25229228
weighted Nran = 0
SN(data) = 6729.69497
SN(ran) = 134.537585
SN(data+ran) = 6864.23255
############################
13 columns: k_central k_mean P_0(k) sigma^{lin}_{P_0(k)} P^img_1(k) sigma^{lin}_{P_1(k)} P_2(k) sigma^{lin}_{P_2(k)} P^img_3(k) sigma^{lin}_{P_3(k)} P_4(k) sigma^{lin}_{P_4(k)} N_modes
### header ###
0.00050000 0 0 0 0 0 0 0 0 0 0 0 0
0.00150000 0.00179520 50274.63117319 0 4446.89550268 0 17501.38995668 0 59929.19170639 0 -61547.10940190 0 3
0.00250000 0.00253879 92427.04968829 0 10092.79005633 0 36308.95543900 0 -65978.39582693 0 36602.79275555 0 6
0.00350000 0.00331552 71725.08481859 0 9002.95568767 0 -21976.94420922 0 -29809.16415117 0 94070.56143791 0 7
0.00450000 0.00420575 60771.59857765 0 4675.68218040 0 7087.07047632 0 -15546.79511155 0 -17132.30831794 0 24
0.00550000 0.00557378 58883.57024237 0 4143.50160798 0 7868.48001604 0 -2930.73888757 0 -32537.62213465 0 45
0.00650000 0.00659388 61610.16084851 0 -165.44194302 0 18103.34453413 0 -4219.24023593 0 22472.89766127 0 40
0.00750000 0.00754703 48885.85166174 0 -8766.19421025 0 2608.58334290 0 898.41061611 0 4352.27439446 0 57
0.00850000 0.00846663 66151.84222799 0 -5459.14583519 0 8136.55850989 0 26413.50322910 0 -8864.50613485 0 75
0.00950000 0.00948925 73390.12633047 0 8434.20747312 0 22223.10848077 0 -21218.12993530 0 -24974.52422094 0 112
0.01050000 0.01054430 68337.55248023 0 10291.40211317 0 23044.42497267 0 -6665.41667321 0 15400.81014195 0 105
0.01150000 0.01145670 69432.16513796 0 4007.39176913 0 49106.53172489 0 2698.48108491 0 11604.76154929 0 144
0.01250000 0.01249090 63889.56950487 0 -2980.46604764 0 40115.10983844 0 15550.09048333 0 -152.87778890 0 169
0.01350000 0.01339930 65712.34947901 0 -2585.42786390 0 51377.92164327 0 2996.11906357 0 405.86677539 0 180
0.01450000 0.01448870 58282.60427645 0 -1907.72367392 0 35808.16877502 0 19349.32460204 0 23046.51204146 0 267
0.01550000 0.01550050 70973.30067112 0 -5598.38627723 0 34952.36072521 0 15520.76167453 0 30170.66643482 0 238
0.01650000 0.01653350 75523.44017149 0 5725.49975115 0 28834.72271748 0 8860.66153445 0 -2666.26333352 0 315
0.01750000 0.01747870 66083.07880364 0 11174.27614982 0 33898.94021465 0 -13048.79346083 0 25985.76397278 0 297
0.01850000 0.01844180 65668.30134296 0 -3895.40405166 0 34317.89181291 0 9760.06735284 0 24448.80257720 0 388
0.01950000 0.01947590 63448.64876145 0 -2253.56195707 0 35000.69284456 0 510.85951704 0 11453.17444766 0 399
0.02050000 0.02045430 64247.33703384 0 2654.85036261 0 24719.35259988 0 4312.07085881 0 2986.81513059 0 462
0.02150000 0.02154770 63115.48667506 0 -552.26586339 0 24257.45132283 0 11780.29501914 0 6968.78859877 0 571
0.02250000 0.02255340 65405.44052109 0 -2022.18292022 0 20471.28884549 0 4225.64424174 0 -627.72768011 0 510
0.02350000 0.02348930 70988.89876419 0 412.43994363 0 19604.71591455 0 -1994.34801330 0 -1881.69023690 0 555
0.02450000 0.02439640 64041.48614367 0 3211.51554732 0 22412.48251207 0 -12225.06036295 0 3740.04924164 0 592
0.02550000 0.02547300 62042.18408814 0 1062.17411644 0 16595.38241017 0 1887.24843063 0 -6317.20572239 0 837
0.02650000 0.02652900 61158.80476114 0 422.76873722 0 24141.12469920 0 5599.69344137 0 -3675.37207828 0 723
0.02750000 0.02749970 65875.79991903 0 76.55247493 0 19920.08299336 0 662.31590225 0 -17069.69625423 0 826
0.02850000 0.02848090 61383.10973326 0 3489.77673995 0 18307.10835552 0 -4504.49860129 0 -9603.89968445 0 831
0.02950000 0.02946900 57434.37558171 0 2554.45136922 0 22741.90984378 0 -1714.27436619 0 -7062.82752463 0 996
0.03050000 0.03053250 55909.82675315 0 -1527.91010777 0 18453.97209093 0 5475.99616953 0 -3030.22616143 0 1041
0.03150000 0.03150510 56066.24706671 0 -4397.60772551 0 17019.60660326 0 11298.07228281 0 -2869.34611141 0 1036
0.03250000 0.03246190 59967.74755615 0 2392.15430933 0 13586.04890578 0 6204.82256031 0 -5909.27165043 0 1059
0.03350000 0.03345080 56601.96467150 0 3987.52067733 0 11106.39149127 0 -4895.85695322 0 4752.37646616 0 1302
0.03450000 0.03451200 57292.67459542 0 -562.50018966 0 11810.83213091 0 -2691.02256012 0 -3741.21360633 0 1339
0.03550000 0.03553350 53898.55151351 0 1399.20387084 0 16778.93461800 0 -523.64775644 0 -1633.36200456 0 1365
0.03650000 0.03647120 51795.00586418 0 1279.25233825 0 13199.61164237 0 3126.27526409 0 -1500.70132149 0 1308
0.03750000 0.03744890 51199.64203027 0 -602.92121984 0 14544.01348060 0 3099.01155494 0 -590.67561833 0 1579
0.03850000 0.03847530 51403.95508028 0 1119.36089976 0 11621.12856243 0 1574.61651039 0 -1893.59751358 0 1662
0.03950000 0.03950240 50265.73366940 0 1266.14774316 0 8339.19092030 0 1016.58045103 0 -475.24204045 0 1683
0.04050000 0.04050350 46948.83213274 0 569.02173040 0 10274.70556285 0 620.50202826 0 1778.53411579 0 1822
0.04150000 0.04152450 45342.33839272 0 2446.02265327 0 9745.38097930 0 847.58499878 0 2487.62122963 0 1887
0.04250000 0.04250150 44502.56781888 0 485.57632633 0 10720.07505816 0 -334.52197648 0 1913.18300649 0 1920
0.04350000 0.04349210 43802.74069972 0 490.16677921 0 10480.18297755 0 2356.59724788 0 159.06539864 0 2005
0.04450000 0.04448520 41732.14876814 0 523.43795110 0 9849.92115655 0 -1320.57630030 0 2263.85450158 0 2151
0.04550000 0.04548030 40561.19333096 0 1203.67847889 0 8060.47936019 0 -768.64107255 0 -1168.84639924 0 2274
0.04650000 0.04648670 40714.64780993 0 1572.25482729 0 13251.45882496 0 250.26041866 0 189.57065515 0 2311
0.04750000 0.04749250 37969.82281330 0 920.72907068 0 11852.02427809 0 -2306.55153520 0 -1120.41541872 0 2568
0.04850000 0.04851840 37732.55604554 0 705.55008147 0 12869.85477348 0 2265.41431089 0 771.20706871 0 2493
0.04950000 0.04949480 35660.97550243 0 647.23078872 0 12690.58654895 0 2133.90700794 0 1628.83636065 0 2644
0.05050000 0.05050630 36244.58584367 0 -328.31898834 0 11070.25224748 0 3347.17501870 0 1518.33156048 0 2829
0.05150000 0.05149060 36902.23220412 0 725.89570681 0 11034.22284941 0 958.78622085 0 2978.37897885 0 2784
0.05250000 0.05249300 34715.42349463 0 -66.45303921 0 6439.82650611 0 769.95153206 0 5158.99238941 0 3055
0.05350000 0.05348950 35432.82592991 0 348.45041451 0 10330.27651554 0 105.40675019 0 2353.59845957 0 3009
0.05450000 0.05448610 34401.81394743 0 1013.52673985 0 8443.03906948 0 -1525.63630125 0 4826.79694540 0 3336
0.05550000 0.05550870 33377.28286277 0 200.49700950 0 9399.83927961 0 1587.35861458 0 1878.50471085 0 3349
0.05650000 0.05647670 33893.99715699 0 -266.82405566 0 8866.64812651 0 900.05610508 0 3510.09819922 0 3324
0.05750000 0.05747970 33645.30643375 0 139.36017388 0 6109.31170171 0 146.69237608 0 1844.14496782 0 3639
0.05850000 0.05849280 32983.04655282 0 762.84011977 0 8893.99971223 0 -1027.37718742 0 789.38214250 0 3846
0.05950000 0.05951020 31337.88711731 0 1556.65673422 0 10126.27103355 0 -1541.27833261 0 1997.32483247 0 3787
0.06050000 0.06049470 30305.11760322 0 510.13673216 0 9419.10621991 0 1061.98628025 0 2714.56249916 0 3930
0.06150000 0.06148310 30788.54864252 0 -292.19072912 0 9716.60139913 0 3192.80882021 0 1029.39175803 0 4083
0.06250000 0.06249100 30820.51374873 0 -282.11787606 0 7263.74634172 0 1093.04076539 0 2640.33974223 0 4303
0.06350000 0.06350600 31499.36033426 0 161.80385258 0 8661.66501757 0 -1050.79190233 0 981.46167403 0 4470
0.06450000 0.06451750 29582.88195599 0 1080.83800371 0 8557.70702266 0 -2219.67455066 0 2157.44694698 0 4479
0.06550000 0.06550280 28954.56440434 0 917.90164170 0 11606.73877235 0 -2355.15826888 0 356.62733034 0 4636
0.06650000 0.06648880 28361.50733067 0 300.91797204 0 11213.82061112 0 282.89778072 0 593.66781590 0 4653
0.06750000 0.06749660 28663.25353948 0 539.95215752 0 13916.68454048 0 917.66876876 0 46.37884266 0 5220
0.06850000 0.06852730 28104.46833227 0 3.58243161 0 12421.24482926 0 -294.83251883 0 563.47671816 0 5029
0.06950000 0.06949320 28750.58089150 0 -1019.72533416 0 12166.40274537 0 2579.70490158 0 178.14450275 0 5040
0.07050000 0.07048030 29390.43224437 0 60.20457494 0 11309.05685540 0 331.76484876 0 -48.64430091 0 5475
0.07150000 0.07148790 29217.97445484 0 282.47817004 0 11498.32104097 0 -694.28320538 0 571.43064717 0 5509
0.07250000 0.07249820 28296.47866099 0 946.07926729 0 12647.63687016 0 -287.96386559 0 1053.71379864 0 5916
0.07350000 0.07351270 27574.79224240 0 479.56776513 0 12751.66077250 0 -399.68575640 0 1085.72613851 0 5721
0.07450000 0.07449140 27712.53878257 0 -135.33652495 0 12381.81021369 0 2576.48642182 0 778.05924508 0 6028
0.07550000 0.07549160 27371.68749537 0 31.29812296 0 11265.11856507 0 504.71804251 0 -517.55790940 0 6183
0.07650000 0.07648840 26023.66074819 0 1204.17278466 0 12214.29548182 0 -836.31702422 0 1734.59582547 0 6330
0.07750000 0.07749960 26368.35663579 0 634.97969492 0 11839.61171107 0 600.84184026 0 1503.48041835 0 6583
0.07850000 0.07848650 25033.29168425 0 41.86890670 0 11397.92204758 0 501.28646204 0 -167.52132261 0 6549
0.07950000 0.07947320 24949.04001255 0 372.69007083 0 10828.43786667 0 723.74273058 0 555.89187080 0 6828
0.08050000 0.08048110 24332.91533647 0 -142.63577343 0 10586.74431616 0 176.55613356 0 16.66074062 0 7147
0.08150000 0.08149960 24140.90500774 0 310.18895130 0 9697.25756682 0 434.95612050 0 -1374.44464424 0 7386
0.08250000 0.08250610 23547.18885972 0 535.34632624 0 9028.03346687 0 -260.05646049 0 -293.44956114 0 7227
0.08350000 0.08350160 22921.72729694 0 600.86051403 0 9807.22412293 0 45.68769335 0 -2426.17353061 0 7798
0.08450000 0.08449610 22759.59500564 0 595.57913153 0 9509.97060431 0 632.58395964 0 -1702.94927186 0 7371
0.08550000 0.08548940 22083.05518035 0 -35.36208528 0 8812.30744595 0 868.67427968 0 -968.15496280 0 8256
0.08650000 0.08650700 21622.25236057 0 -139.20638987 0 8292.72617828 0 944.34040945 0 -1989.66858538 0 8037
0.08750000 0.08749060 21842.71273228 0 176.04095710 0 7346.09768236 0 1358.70375173 0 -188.93464840 0 8155
0.08850000 0.08849210 21622.91143492 0 380.45726210 0 7213.36010729 0 -221.67306852 0 -1127.06108514 0 8718
0.08950000 0.08949900 20826.74961423 0 642.85892884 0 7131.78867130 0 -425.82464532 0 461.97377522 0 8571
0.09050000 0.09049190 19966.65758111 0 530.16710027 0 7270.21625497 0 87.37722198 0 -343.46012319 0 8932
0.09150000 0.09150830 19321.20409623 0 237.37331811 0 7634.90406467 0 880.40580319 0 1018.33029344 0 9285
0.09250000 0.09250820 19227.83522929 0 583.76522372 0 7414.20203237 0 715.28900352 0 540.96603357 0 9204
0.09350000 0.09350330 18558.98460481 0 184.58475766 0 7288.29686144 0 -141.53182388 0 1279.08756966 0 9349
0.09450000 0.09448040 18291.40041673 0 158.57328978 0 7002.03889997 0 654.52893875 0 1996.85249584 0 9564
0.09550000 0.09549270 17878.81987057 0 321.81172754 0 6982.31060761 0 268.48272612 0 949.87443711 0 10155
0.09650000 0.09649430 17812.25336073 0 58.61038392 0 6593.58855310 0 347.77156793 0 1795.37346556 0 9913
0.09750000 0.09749140 17856.41134251 0 -310.29330474 0 6234.40401427 0 1051.92221485 0 2050.91856209 0 10476
0.09850000 0.09850240 18095.32579615 0 34.06425803 0 6064.90107476 0 197.86840128 0 1403.98215991 0 10575
0.09950000 0.09950330 17475.46636538 0 235.44882099 0 5417.21772165 0 -98.01358361 0 1554.78935688 0 10882
0.10050000 0.10051200 17766.11815589 0 597.99463904 0 5824.14121293 0 -53.54353013 0 1487.50884982 0 10875
0.10150000 0.10150300 17009.83033366 0 265.44988563 0 5973.08103256 0 -631.30865077 0 1414.37356557 0 11118
0.10250000 0.10250800 16571.65573339 0 221.50390610 0 6919.37999129 0 157.13650769 0 550.05357047 0 11575
0.10350000 0.10349800 15970.47007601 0 367.73053631 0 6435.79516797 0 205.15227136 0 1824.14206115 0 11364
0.10450000 0.10450100 16057.02850796 0 74.74232722 0 6457.18213079 0 462.44061956 0 1365.41532558 0 12093
0.10550000 0.10551000 15656.42114591 0 257.02032463 0 6173.57145131 0 712.44509768 0 1468.57144669 0 12067
0.10650000 0.10649700 15577.22237760 0 202.13920310 0 6584.97664820 0 -379.38077399 0 1470.29602459 0 12054
0.10750000 0.10749900 15377.30315662 0 26.46084674 0 5877.92168028 0 225.90103051 0 2268.57786779 0 12807
0.10850000 0.10850100 15288.65765589 0 -146.88570456 0 5368.50114225 0 713.95877178 0 1503.62321780 0 12736
0.10950000 0.10950300 15228.79173532 0 71.49155281 0 5155.92769366 0 680.97100186 0 2429.39201038 0 12933
0.11050000 0.11050200 15407.95011412 0 217.45389419 0 5261.68715847 0 72.48708462 0 993.42167665 0 13428
0.11150000 0.11150900 15116.30971209 0 309.03776809 0 4874.68968186 0 -563.23835294 0 1557.78814520 0 13453
0.11250000 0.11250000 14677.58588319 0 159.83431872 0 5149.69944100 0 -58.77954634 0 918.75074916 0 13668
0.11350000 0.11349100 14691.64613609 0 -91.23917801 0 5442.24057799 0 -220.27473243 0 785.41671180 0 13791
0.11450000 0.11448600 14409.23277503 0 242.07361672 0 4842.96623624 0 943.73735641 0 967.66614932 0 14205
0.11550000 0.11549300 14519.18834657 0 -43.53197099 0 4670.73912274 0 211.93414647 0 829.17155976 0 14776
0.11650000 0.11649800 14252.04354139 0 140.21697054 0 4613.71820647 0 234.11090005 0 433.99606886 0 14553
0.11750000 0.11747300 14255.33891316 0 222.71220909 0 4339.29062967 0 13.09459913 0 905.14086373 0 14568
0.11850000 0.11849100 13778.60846313 0 91.76863441 0 4717.08303446 0 -195.39577399 0 1070.34773690 0 16015
0.11950000 0.11950300 13540.57277530 0 405.82723093 0 5164.95701232 0 -541.07478084 0 531.26336061 0 15270
0.12050000 0.12050700 13235.75088616 0 287.33994187 0 5195.46117038 0 -465.50201994 0 270.63789926 0 15999
0.12150000 0.12150000 13309.23767673 0 38.15326518 0 5707.02370006 0 470.07270059 0 55.06731004 0 15670
0.12250000 0.12250700 13020.45326357 0 -49.73342128 0 5555.70022818 0 109.50355638 0 34.70564723 0 16887
0.12350000 0.12352200 12995.51828381 0 388.66493473 0 5627.28668770 0 210.32270967 0 511.22200794 0 16407
0.12450000 0.12449800 12911.81584074 0 -48.22490993 0 4957.11791451 0 454.10113206 0 792.14476250 0 16306
0.12550000 0.12549900 12874.46829396 0 -148.66520532 0 5028.78126603 0 594.07094972 0 542.81034331 0 17523
0.12650000 0.12650100 12883.36579775 0 236.89878458 0 4610.46677299 0 -0.26299813 0 546.59452856 0 17154
0.12750000 0.12750600 12464.41419950 0 222.52766827 0 4474.41185699 0 -201.67785105 0 803.08429834 0 18007
0.12850000 0.12850300 12350.17464466 0 22.32548470 0 4570.27422191 0 -117.34049969 0 794.07475191 0 17496
0.12950000 0.12949900 12329.08426530 0 -198.51758952 0 3995.73713762 0 711.75966035 0 -60.61287150 0 18405
0.13050000 0.13049000 12427.06665273 0 -4.14445727 0 4229.22521241 0 502.30473191 0 -169.32718634 0 18100
0.13150000 0.13148800 12548.44617975 0 138.02225294 0 3454.30755508 0 -231.64376505 0 -230.06198660 0 19059
0.13250000 0.13249300 12503.51927789 0 73.87355737 0 3262.02261205 0 233.98128210 0 -203.09486091 0 18957
0.13350000 0.13349100 11947.15067665 0 42.51238296 0 2996.30580130 0 153.02937600 0 -466.29510608 0 19468
0.13450000 0.13450700 12054.90933367 0 305.25468129 0 3284.45310926 0 -169.04378437 0 -516.94936408 0 19953
0.13550000 0.13551000 11676.27111679 0 456.05638597 0 3330.19286949 0 -319.99487924 0 -917.57210452 0 19956
0.13650000 0.13649900 11281.59542394 0 96.08315483 0 3505.30892558 0 240.00741862 0 -179.06281302 0 19723
0.13750000 0.13749600 11356.72990040 0 -177.36789347 0 3336.09158496 0 505.52650705 0 -283.33826208 0 20946
0.13850000 0.13851100 11195.25668345 0 73.48349520 0 2917.65626162 0 -174.24058566 0 -606.76362333 0 20955
0.13950000 0.13949800 11150.87901022 0 243.04355448 0 3281.88271927 0 -215.41845289 0 -578.14551639 0 20506
0.14050000 0.14048300 10822.19862945 0 225.21339626 0 3371.25320179 0 -318.26041523 0 -809.45315352 0 21447
0.14150000 0.14148400 10815.33327158 0 231.64925734 0 3477.73764840 0 354.76983912 0 -530.51860659 0 21771
0.14250000 0.14249400 10643.04025064 0 -139.28438033 0 3291.21960597 0 262.42473434 0 -188.23053730 0 22470
0.14350000 0.14350900 10708.16778148 0 -9.24158454 0 3162.10693985 0 475.36067383 0 -309.99562282 0 22519
0.14450000 0.14449900 10599.09097575 0 149.92293888 0 2952.90575503 0 97.84035690 0 -48.34024794 0 22218
0.14550000 0.14550500 10368.89827273 0 325.23891419 0 2836.87571486 0 47.80156450 0 476.62280122 0 23559
0.14650000 0.14650700 10446.51526259 0 -146.03220327 0 2650.70917875 0 457.23503061 0 713.92252269 0 23044
0.14750000 0.14750500 10220.40882058 0 -49.82755907 0 2498.94632397 0 260.61887061 0 550.42265211 0 23649
0.14850000 0.14849900 10356.34290627 0 161.59734262 0 2700.38141596 0 -132.25095851 0 401.84532337 0 23640
0.14950000 0.14949500 9823.65704351 0 322.59602603 0 2881.02271206 0 -724.22605178 0 459.44622507 0 24457
0.15050000 0.15050000 9795.81115202 0 183.77409620 0 3065.36580912 0 -130.32865831 0 450.65856701 0 24591
0.15150000 0.15149900 9812.61754807 0 -49.17474592 0 3519.84151510 0 306.73320476 0 140.38503450 0 25020
0.15250000 0.15250500 9779.33429315 0 73.63936628 0 3124.33099474 0 199.54794243 0 247.18913217 0 25297
0.15350000 0.15350100 9873.83457106 0 -39.00478924 0 3301.43525847 0 91.64901241 0 230.29046571 0 25452
0.15450000 0.15450400 9667.26968367 0 89.02732447 0 2919.72136127 0 -66.66921560 0 317.24873609 0 26061
0.15550000 0.15549900 9629.17518596 0 127.93292303 0 3148.60690014 0 21.05006597 0 482.05027853 0 26128
0.15650000 0.15649500 9495.48195307 0 -15.28799858 0 2971.85414274 0 117.98309718 0 925.16244418 0 26331
0.15750000 0.15749700 9630.76794898 0 -75.38075057 0 2851.49618096 0 644.78672132 0 405.37686346 0 27345
0.15850000 0.15849900 9524.20661037 0 162.08395918 0 2690.06690231 0 -115.13809288 0 259.21174686 0 26980
0.15950000 0.15949700 9483.56369182 0 140.14447236 0 2589.21754144 0 -380.73627024 0 371.42025424 0 27777
0.16050000 0.16050000 9160.17787503 0 159.35648981 0 2751.06423385 0 35.67108131 0 238.89907524 0 28224
0.16150000 0.16150500 8946.12150913 0 189.73981757 0 3114.86229317 0 -201.63061739 0 11.81500627 0 28075
0.16250000 0.16249700 8733.24049251 0 175.71361684 0 3018.50562249 0 -156.42580584 0 -118.29945287 0 28590
0.16350000 0.16349900 8774.14704080 0 47.64635249 0 3038.27785314 0 391.60440635 0 -46.07259278 0 29163
0.16450000 0.16449100 8806.25494645 0 -105.41476893 0 2741.49667113 0 615.77646514 0 417.19406664 0 28996
0.16550000 0.16550500 8845.18427168 0 -223.80187869 0 2384.50904681 0 352.18187382 0 490.51389171 0 30777
0.16650000 0.16650700 8804.27772339 0 123.29633494 0 1998.46722801 0 4.82057968 0 774.38600401 0 29211
0.16750000 0.16749900 8777.28862856 0 312.44408405 0 2180.66833342 0 -126.55326071 0 427.10984031 0 30922
0.16850000 0.16850800 8587.61801380 0 93.01681139 0 2489.88405159 0 -146.72093597 0 522.99307591 0 30867
0.16950000 0.16949900 8403.17605558 0 159.69481464 0 2551.13402830 0 -208.20708099 0 330.36651267 0 30852
0.17050000 0.17049200 8220.49162898 0 -7.42426390 0 2582.29726071 0 395.94880481 0 757.58729716 0 31257
0.17150000 0.17149500 8403.91202195 0 13.04494886 0 2284.75814320 0 191.64893628 0 613.75530378 0 32608
0.17250000 0.17250900 8280.01702780 0 -15.67366692 0 2122.16449985 0 159.01816497 0 434.64635556 0 32361
0.17350000 0.17350400 8275.64516791 0 99.41180986 0 2085.36618171 0 118.64546691 0 903.95013606 0 32508
0.17450000 0.17449800 8189.38331943 0 0.46848982 0 2078.54476213 0 -45.08903415 0 671.34192554 0 32791
0.17550000 0.17549800 8138.15127291 0 192.00483644 0 2176.16465866 0 -118.34339116 0 988.14468799 0 33633
0.17650000 0.17650100 7821.79558257 0 289.38307237 0 2369.29541379 0 -203.02675656 0 661.13615915 0 33984
0.17750000 0.17750300 7745.94710890 0 102.74343072 0 2634.06755129 0 13.64591483 0 911.18787094 0 34069
0.17850000 0.17849800 7795.22390150 0 -46.02096529 0 2572.52099112 0 274.39242617 0 491.40034671 0 34536
