### header ###
fiducial parameters:
Omega_m = 0.31
Omega_nu = 0
Omega_de = 0.69
Omega_k = 0
H_0 = 100
w_de = -1
zeff = 0
beta = 0
fgrowth = 0
b_1 = 2
gamma = 0.55
Lx = 3500 Ly = 3500 Lz = 3500
nx = 700 ny = 700 nz = 700
xoffset = -983.599254 yoffset = -42.9823471 zoffset = 800.977702
bins = 400 dk = 0.001
kx_ny = 0.628318531 ky_ny = 0.628318531 kz_ny = 0.628318531
############################
A(data) = 9.13099375 (not used)
A(ran) = 9.13404284 (used)
Ngal = 507520
weighted Ngal = 0
Nran = 25229228
weighted Nran = 0
SN(data) = 6728.59323
SN(ran) = 135.588573
SN(data+ran) = 6864.18181
############################
13 columns: k_central k_mean P_0(k) sigma^{lin}_{P_0(k)} P^img_1(k) sigma^{lin}_{P_1(k)} P_2(k) sigma^{lin}_{P_2(k)} P^img_3(k) sigma^{lin}_{P_3(k)} P_4(k) sigma^{lin}_{P_4(k)} N_modes
### header ###
0.00050000 0 0 0 0 0 0 0 0 0 0 0 0
0.00150000 0.00179520 1583.47007589 0 -9951.39663806 0 -189.45641560 0 -10539.51065406 0 -19657.00248004 0 3
0.00250000 0.00253879 14053.66216057 0 -6457.09425421 0 -18831.73154200 0 9134.36412946 0 -12848.43485695 0 6
0.00350000 0.00331552 57003.67049080 0 -24847.98194480 0 -21390.36803338 0 -12102.91191585 0 -14060.47259557 0 7
0.00450000 0.00420575 49714.96720018 0 -3895.43700538 0 -2424.55879844 0 -25110.95261240 0 7277.52099574 0 24
0.00550000 0.00557378 72704.90869285 0 -21764.17303832 0 -10639.68995601 0 -5539.56389106 0 -8014.62975424 0 45
0.00650000 0.00659388 94384.28083084 0 -7895.27138857 0 -46162.33673592 0 -6081.48777936 0 -23064.96612340 0 40
0.00750000 0.00754703 99231.88255671 0 5767.61460242 0 13834.51993757 0 -52462.53833995 0 -30990.77462374 0 57
0.00850000 0.00846663 80920.60006361 0 21676.51614912 0 44139.96707797 0 -42541.93145883 0 15673.55707914 0 75
0.00950000 0.00948925 87111.94455336 0 -8496.03963219 0 36148.25114214 0 34839.87870197 0 -2066.16514883 0 112
0.01050000 0.01054430 96522.31803807 0 -20489.30354453 0 9173.34837755 0 40044.91841964 0 -13270.79167270 0 105
0.01150000 0.01145670 111102.36091674 0 5176.69952041 0 38611.54154350 0 -12000.09631649 0 -12999.03334704 0 144
0.01250000 0.01249090 104800.18208964 0 15943.99725609 0 21130.80258328 0 -41687.99078636 0 -11343.76810475 0 169
0.01350000 0.01339930 87021.21198384 0 9133.57324023 0 53367.66712065 0 17310.03870231 0 13617.24509191 0 180
0.01450000 0.01448870 81313.62807057 0 1480.35789307 0 53838.02651858 0 12758.14167033 0 1207.29240327 0 267
0.01550000 0.01550050 77970.91278834 0 3073.58226941 0 46313.26476319 0 3079.84347578 0 11641.01063880 0 238
0.01650000 0.01653350 77461.88769492 0 3571.34817594 0 34572.07482244 0 27749.11740926 0 3795.54330232 0 315
0.01750000 0.01747870 90109.41471936 0 -9333.19587775 0 34712.67735148 0 14429.00500568 0 25699.94539421 0 297
0.01850000 0.01844180 85541.15067423 0 -4094.25776910 0 15350.39095380 0 3197.87270817 0 5973.42155431 0 388
0.01950000 0.01947590 76303.34482477 0 2077.81978034 0 21360.59984168 0 -5448.28209291 0 14709.55098940 0 399
0.02050000 0.02045430 76770.73838810 0 10877.61579812 0 24708.36802730 0 -11489.64322863 0 9243.40798147 0 462
0.02150000 0.02154770 76101.44838072 0 4843.22986599 0 36050.92782907 0 559.05432924 0 2755.58987776 0 571
0.02250000 0.02255340 72147.33178862 0 -407.72097125 0 37788.46751998 0 5535.51058378 0 2773.56063850 0 510
0.02350000 0.02348930 68915.45084373 0 -251.78397888 0 34603.82023720 0 8250.75412644 0 29586.50686494 0 555
0.02450000 0.02439640 65019.88202349 0 -1747.92011201 0 28679.18116973 0 12041.17861794 0 6154.46927959 0 592
0.02550000 0.02547300 64128.48395851 0 6039.91117214 0 29242.68974315 0 3524.36715901 0 9537.10249858 0 837
0.02650000 0.02652900 63910.00080987 0 5612.17191582 0 38918.12096425 0 1250.75835697 0 35831.78560607 0 723
0.02750000 0.02749970 56729.38571344 0 -2987.86964956 0 35514.33145847 0 5800.65619675 0 27222.29730826 0 826
0.02850000 0.02848090 57627.37452197 0 758.90874124 0 30954.96491713 0 5983.09896275 0 13870.43948991 0 831
0.02950000 0.02946900 61515.91321576 0 802.74597350 0 20861.57070931 0 7581.77168709 0 17075.40823197 0 996
0.03050000 0.03053250 57374.18012397 0 -2608.51743546 0 17886.39922565 0 1463.24392899 0 13675.57317232 0 1041
0.03150000 0.03150510 60637.80648361 0 1281.85568195 0 22917.55315936 0 -3093.80486754 0 9116.85472076 0 1036
0.03250000 0.03246190 56045.81576171 0 3767.87316399 0 15751.32785302 0 -4013.98251267 0 -3701.29566957 0 1059
0.03350000 0.03345080 54730.41319509 0 1443.13117659 0 19839.89561352 0 -1052.60875064 0 2583.62639399 0 1302
0.03450000 0.03451200 53567.58634163 0 -1034.38204935 0 20329.58785920 0 2006.58482715 0 -7973.64631393 0 1339
0.03550000 0.03553350 54592.77650065 0 1622.12478680 0 20305.42179952 0 2843.68614986 0 -2420.36269172 0 1365
0.03650000 0.03647120 52129.70579073 0 1285.44763719 0 15769.67208923 0 -2125.60267107 0 -6626.72900858 0 1308
0.03750000 0.03744890 52497.13974358 0 521.73314544 0 19148.74630670 0 4089.97378579 0 2070.37224013 0 1579
0.03850000 0.03847530 51413.40181270 0 755.12016216 0 18482.31228819 0 1443.53760578 0 -5252.64685524 0 1662
0.03950000 0.03950240 49199.79074611 0 1155.57703556 0 19179.61295565 0 -2203.39541409 0 3276.04991123 0 1683
0.04050000 0.04050350 47718.41128779 0 270.77081259 0 20671.64744938 0 1978.72795109 0 1097.21929680 0 1822
0.04150000 0.04152450 45956.26615429 0 1592.76302429 0 18887.31347926 0 -908.28794378 0 0.06336341 0 1887
0.04250000 0.04250150 47441.70990447 0 1255.49270776 0 20519.51111913 0 -1091.77863800 0 289.54344713 0 1920
0.04350000 0.04349210 43968.16836279 0 1692.90937252 0 22959.51422662 0 2431.45711003 0 -659.20946512 0 2005
0.04450000 0.04448520 44449.51233331 0 106.79465093 0 19880.31884062 0 3030.45683746 0 1723.86389805 0 2151
0.04550000 0.04548030 43643.68408874 0 -64.60356672 0 20334.86045403 0 1885.02954697 0 -607.87965591 0 2274
0.04650000 0.04648670 43288.00362856 0 1035.17293858 0 18316.55508794 0 2128.95296571 0 1491.39738851 0 2311
0.04750000 0.04749250 42720.97999191 0 413.10011644 0 17704.60454943 0 1339.81028689 0 3223.26903998 0 2568
0.04850000 0.04851840 39351.46235258 0 1832.43541345 0 18215.60686592 0 -725.56177580 0 6590.28219676 0 2493
0.04950000 0.04949480 38739.73150553 0 1802.18390056 0 16938.86999479 0 928.18430009 0 4162.82347115 0 2644
0.05050000 0.05050630 36488.55320071 0 -431.64097650 0 19101.29295315 0 3556.15651206 0 4264.24402980 0 2829
0.05150000 0.05149060 36782.61020871 0 937.22240641 0 18792.84615507 0 397.60527836 0 2105.08348949 0 2784
0.05250000 0.05249300 36563.13844853 0 709.09699996 0 15574.58608018 0 -51.13505274 0 4256.17036895 0 3055
0.05350000 0.05348950 35496.75614234 0 -346.56985568 0 17102.10074334 0 189.79474043 0 6071.65658690 0 3009
0.05450000 0.05448610 34702.68139043 0 -3.08160101 0 14356.50682664 0 438.59750631 0 -910.39588326 0 3336
0.05550000 0.05550870 35541.90273565 0 1729.35618434 0 15043.15245870 0 548.99905150 0 -165.31342352 0 3349
0.05650000 0.05647670 34165.31609975 0 -423.15429572 0 12734.30514783 0 2430.35865277 0 3029.00687388 0 3324
0.05750000 0.05747970 34381.05310525 0 -636.54170114 0 13527.28144247 0 997.61009418 0 2478.32828123 0 3639
0.05850000 0.05849280 34612.49804954 0 467.22659783 0 12520.76505684 0 1412.17665106 0 -592.70666580 0 3846
0.05950000 0.05951020 33931.23485804 0 340.16584987 0 10837.64293850 0 -928.02831916 0 134.34022421 0 3787
0.06050000 0.06049470 33152.53850775 0 517.74354868 0 12034.47802867 0 804.09158364 0 441.91374878 0 3930
0.06150000 0.06148310 34271.53691661 0 -126.30940320 0 12125.21059819 0 -26.97492473 0 -1160.17957147 0 4083
0.06250000 0.06249100 32826.29670209 0 -54.29234844 0 10454.46809314 0 421.84823004 0 -970.97689950 0 4303
0.06350000 0.06350600 32695.03105974 0 770.66662773 0 10322.25777755 0 1199.60320246 0 -845.44520404 0 4470
0.06450000 0.06451750 33384.53268067 0 -427.95565240 0 9478.32405070 0 915.86620040 0 -924.02883629 0 4479
0.06550000 0.06550280 32020.68814897 0 1648.45480728 0 11821.81670349 0 -406.13040514 0 -2747.84575409 0 4636
0.06650000 0.06648880 29867.71192303 0 1074.07809775 0 9485.58485318 0 -885.16871387 0 1331.25330485 0 4653
0.06750000 0.06749660 29952.62266908 0 232.71915471 0 10748.09670281 0 993.43815351 0 -1238.67532714 0 5220
0.06850000 0.06852730 28845.81713578 0 -25.22101803 0 10070.48038941 0 946.80205216 0 268.20481643 0 5029
0.06950000 0.06949320 28178.39450574 0 344.34987357 0 9867.80404072 0 2194.65169432 0 466.98603569 0 5040
0.07050000 0.07048030 28472.78105092 0 143.00485506 0 8397.78263044 0 -477.25770951 0 177.73697511 0 5475
0.07150000 0.07148790 28366.01100543 0 808.36568083 0 10279.36302162 0 -709.35403896 0 -1638.94216743 0 5509
0.07250000 0.07249820 27306.65882569 0 2.40625850 0 7021.51454716 0 857.71497161 0 945.20928914 0 5916
0.07350000 0.07351270 27903.23096258 0 -596.84016046 0 8314.89304575 0 2310.06659843 0 516.65058371 0 5721
0.07450000 0.07449140 27645.31319837 0 80.23021968 0 6041.33916658 0 1495.31888093 0 -275.29755495 0 6028
0.07550000 0.07549160 28303.39894172 0 369.44522809 0 6427.15030935 0 -1513.55327141 0 -1175.31631249 0 6183
0.07650000 0.07648840 27150.45820358 0 1014.48239766 0 7138.86273604 0 -2440.88187330 0 -2180.69030257 0 6330
0.07750000 0.07749960 25747.50859349 0 420.46856773 0 7722.08861725 0 -517.24594754 0 -2502.60418663 0 6583
0.07850000 0.07848650 25563.73669421 0 -225.69671746 0 7909.35361062 0 641.90986176 0 -1600.60600912 0 6549
0.07950000 0.07947320 25685.00637550 0 270.65986840 0 7442.01497014 0 1266.71894094 0 -3898.32594797 0 6828
0.08050000 0.08048110 25169.50038426 0 1029.26104162 0 7905.81657824 0 -181.89793120 0 -2135.55469383 0 7147
0.08150000 0.08149960 24208.24043767 0 722.48719394 0 8579.31367692 0 -760.49930735 0 -1145.15267618 0 7386
0.08250000 0.08250610 24059.06994201 0 162.33330898 0 8523.68780137 0 -74.51165119 0 -1956.44025332 0 7227
0.08350000 0.08350160 23027.72842235 0 436.71584903 0 9897.95669245 0 -545.88931900 0 -2230.41746264 0 7798
0.08450000 0.08449610 22053.17714293 0 1220.83638126 0 10315.16174366 0 34.34403510 0 -1142.21979530 0 7371
0.08550000 0.08548940 21849.52316728 0 -16.77366202 0 10469.42908100 0 353.91304246 0 -3.13214103 0 8256
0.08650000 0.08650700 21526.13735048 0 119.46930985 0 9630.22970493 0 1703.90492967 0 238.30920369 0 8037
0.08750000 0.08749060 20644.29586365 0 176.21231644 0 9417.00816655 0 1248.45159673 0 775.71403884 0 8155
0.08850000 0.08849210 20898.69856463 0 673.05222349 0 8821.88599324 0 331.38917638 0 1067.74659011 0 8718
0.08950000 0.08949900 20856.73749737 0 152.66029436 0 8404.31845113 0 455.51374809 0 2373.75515026 0 8571
0.09050000 0.09049190 19927.88203990 0 -170.60249522 0 8809.49539537 0 25.74586091 0 1473.23989004 0 8932
0.09150000 0.09150830 19891.52310465 0 33.22470715 0 6984.01321636 0 314.48501763 0 1082.52084023 0 9285
0.09250000 0.09250820 19801.66930094 0 503.05387976 0 8499.77438686 0 -445.36070765 0 354.76324837 0 9204
0.09350000 0.09350330 19435.55349680 0 375.08141228 0 7881.27704310 0 -252.00806416 0 514.26912837 0 9349
0.09450000 0.09448040 19367.55899252 0 52.63521582 0 8562.01297511 0 895.73587269 0 245.54364320 0 9564
0.09550000 0.09549270 18952.23230322 0 68.61029942 0 7284.28749245 0 140.97270914 0 -1004.98513621 0 10155
0.09650000 0.09649430 19043.51410137 0 524.93075452 0 8239.46198583 0 -24.60016999 0 67.52667133 0 9913
0.09750000 0.09749140 18169.91104398 0 383.14848238 0 7660.06972045 0 151.86391285 0 -66.59364174 0 10476
0.09850000 0.09850240 17632.32606185 0 175.91902835 0 7379.38093728 0 924.91968512 0 275.58864612 0 10575
0.09950000 0.09950330 17029.49271858 0 319.74772636 0 7383.84067375 0 223.90293675 0 317.50687355 0 10882
0.10050000 0.10051200 16875.70870244 0 535.38806761 0 7078.78810860 0 115.73235826 0 1194.59423737 0 10875
0.10150000 0.10150300 16316.15457515 0 31.23562075 0 7026.05117563 0 597.03239048 0 1291.21453779 0 11118
0.10250000 0.10250800 16379.53555894 0 -87.60185649 0 6468.00193478 0 814.06887092 0 753.99644039 0 11575
0.10350000 0.10349800 16108.76584481 0 188.98407898 0 5917.44417243 0 58.20670088 0 759.24486916 0 11364
0.10450000 0.10450100 16089.54284280 0 256.74571032 0 6098.78848118 0 330.16879036 0 825.18415991 0 12093
0.10550000 0.10551000 15961.02334359 0 -117.41080095 0 5256.11798017 0 -230.06967580 0 800.70503992 0 12067
0.10650000 0.10649700 15603.58535180 0 198.97784311 0 5649.08007970 0 499.19390096 0 137.45874437 0 12054
0.10750000 0.10749900 15447.27488397 0 346.07115609 0 5606.43796894 0 -22.27814119 0 585.31185154 0 12807
0.10850000 0.10850100 15451.88840445 0 99.06063307 0 5924.81482063 0 -157.63850266 0 540.99459346 0 12736
0.10950000 0.10950300 14898.48563780 0 197.76185093 0 5870.94647670 0 210.25570378 0 389.19658804 0 12933
0.11050000 0.11050200 15173.53933524 0 -45.93847115 0 5557.62252839 0 -9.60683257 0 70.00797643 0 13428
0.11150000 0.11150900 14946.26852853 0 129.14452138 0 5771.40427996 0 76.06465006 0 118.56198416 0 13453
0.11250000 0.11250000 14721.19463634 0 1.43013643 0 5409.82510430 0 351.70074954 0 711.02589090 0 13668
0.11350000 0.11349100 14795.12080981 0 193.14503507 0 5083.85791295 0 229.03383061 0 -107.19339092 0 13791
0.11450000 0.11448600 14992.40373337 0 263.72311082 0 5447.29348138 0 245.04933743 0 708.52580218 0 14205
0.11550000 0.11549300 14606.07631569 0 -21.74209405 0 5368.23751251 0 234.57774439 0 338.38525065 0 14776
0.11650000 0.11649800 14300.04612357 0 -19.61119681 0 5256.76606996 0 -73.97758127 0 831.92209673 0 14553
0.11750000 0.11747300 14246.77094655 0 394.35933716 0 5380.25463491 0 -246.84861042 0 569.11949310 0 14568
0.11850000 0.11849100 14067.83225920 0 236.49674922 0 5781.18054956 0 13.39030382 0 404.08947155 0 16015
0.11950000 0.11950300 13829.24734273 0 102.58514303 0 5540.72825576 0 -131.29639915 0 730.28733893 0 15270
0.12050000 0.12050700 13276.06426754 0 256.50844355 0 5765.90100910 0 267.41063183 0 634.85776617 0 15999
0.12150000 0.12150000 13396.34533730 0 204.03294341 0 5605.96563232 0 336.41901216 0 -35.47885129 0 15670
0.12250000 0.12250700 13050.33130099 0 194.50162978 0 5185.45422476 0 573.71214289 0 1075.25893930 0 16887
0.12350000 0.12352200 13040.88456857 0 -122.22753603 0 5226.15206617 0 696.29887444 0 1297.09128412 0 16407
0.12450000 0.12449800 12884.79379219 0 -277.55708153 0 4381.28465065 0 303.81680074 0 1013.48609693 0 16306
0.12550000 0.12549900 13079.66010978 0 72.64383447 0 3765.64329576 0 498.12510205 0 934.67069020 0 17523
0.12650000 0.12650100 13041.32395147 0 59.91425269 0 3362.91591121 0 93.66138611 0 685.30441575 0 17154
0.12750000 0.12750600 12834.70414122 0 292.05342196 0 3734.88649253 0 -313.98521958 0 910.73201118 0 18007
0.12850000 0.12850300 12882.26734050 0 127.48694938 0 3600.85273789 0 38.95437005 0 203.73635995 0 17496
0.12950000 0.12949900 12446.50934619 0 78.10415565 0 3747.56268929 0 -308.08979948 0 -9.22407513 0 18405
0.13050000 0.13049000 12315.13385812 0 143.59143124 0 3614.98988280 0 18.63609630 0 230.87814034 0 18100
0.13150000 0.13148800 12339.73930070 0 55.09455178 0 3652.74385876 0 592.04649299 0 340.00877048 0 19059
0.13250000 0.13249300 11975.05149100 0 47.89021000 0 3278.32371776 0 475.46612573 0 575.10169133 0 18957
0.13350000 0.13349100 12143.22529722 0 270.90043054 0 3674.74595764 0 137.78388772 0 714.03895916 0 19468
0.13450000 0.13450700 11855.86887850 0 53.76267235 0 2934.49561139 0 -160.26820933 0 1153.64375078 0 19953
0.13550000 0.13551000 11727.78876220 0 -73.59806429 0 3319.96623241 0 376.68845525 0 773.11838433 0 19956
0.13650000 0.13649900 11690.33136969 0 93.17850430 0 3081.49116167 0 63.88429691 0 802.67786915 0 19723
0.13750000 0.13749600 11757.33726244 0 140.38942833 0 3012.67281445 0 -399.25186579 0 627.20261754 0 20946
0.13850000 0.13851100 11464.26886597 0 262.03697893 0 3483.20796554 0 -403.24695483 0 401.50699854 0 20955
0.13950000 0.13949800 11409.89523169 0 0.63620338 0 3556.92543214 0 121.74311638 0 -37.48342594 0 20506
0.14050000 0.14048300 11464.48855742 0 -113.10594696 0 2906.22132156 0 442.49922650 0 -26.72414694 0 21447
0.14150000 0.14148400 11381.99441734 0 128.07682093 0 3365.84879208 0 134.30177821 0 48.24358370 0 21771
0.14250000 0.14249400 11332.89337790 0 184.16734390 0 3008.22406255 0 -73.70867894 0 260.61337832 0 22470
0.14350000 0.14350900 11128.03109926 0 113.70460616 0 3084.55585742 0 218.73469536 0 262.77074838 0 22519
0.14450000 0.14449900 10996.87530263 0 220.99641885 0 3259.36434548 0 -97.55607616 0 178.28400682 0 22218
0.14550000 0.14550500 10719.70158269 0 -38.11108442 0 2880.37462228 0 259.14034714 0 990.40750994 0 23559
0.14650000 0.14650700 10815.81659278 0 8.45366115 0 3065.45368570 0 747.11680258 0 714.00600545 0 23044
0.14750000 0.14750500 10608.77936876 0 160.60214034 0 2910.43939743 0 -260.16520776 0 955.26346842 0 23649
0.14850000 0.14849900 10428.55548642 0 252.00476879 0 2837.44691263 0 2.75022941 0 1068.03548437 0 23640
0.14950000 0.14949500 10301.24429020 0 198.84492978 0 3089.45497679 0 -454.01545239 0 1044.92504212 0 24457
0.15050000 0.15050000 9995.77431129 0 77.89555862 0 3182.75793630 0 185.10213103 0 780.93720310 0 24591
0.15150000 0.15149900 10018.81994456 0 23.97888256 0 3156.25216266 0 364.23524531 0 954.71423979 0 25020
0.15250000 0.15250500 9870.95661305 0 106.16193955 0 3022.61385264 0 -356.14840298 0 241.17178331 0 25297
0.15350000 0.15350100 9724.25764622 0 284.80799789 0 3069.16647124 0 -287.80678620 0 387.05679331 0 25452
0.15450000 0.15450400 9449.19296421 0 120.33050034 0 3215.25030199 0 -94.97250469 0 -9.43168356 0 26061
0.15550000 0.15549900 9318.45458135 0 132.86938994 0 3403.27323087 0 115.81254564 0 -57.67526726 0 26128
0.15650000 0.15649500 9204.03927334 0 157.70550855 0 3179.34173423 0 124.71664017 0 -112.83243110 0 26331
0.15750000 0.15749700 9187.27681558 0 -196.23938917 0 3005.77450287 0 296.94485213 0 -134.13920653 0 27345
0.15850000 0.15849900 9320.58558843 0 50.02264508 0 2701.71054924 0 465.94359976 0 -356.90963386 0 26980
0.15950000 0.15949700 9165.93379106 0 20.80016695 0 2462.55443500 0 332.44808917 0 471.39853850 0 27777
0.16050000 0.16050000 9127.03741955 0 -3.61872464 0 2065.47312076 0 341.00616967 0 716.72688407 0 28224
0.16150000 0.16150500 9199.00833910 0 167.45431672 0 2353.92799675 0 -25.02164804 0 711.98594255 0 28075
0.16250000 0.16249700 8960.92871297 0 73.01126842 0 2240.46834655 0 -38.79146884 0 737.44268950 0 28590
0.16350000 0.16349900 8938.58609234 0 72.56068125 0 2441.78260825 0 -256.28875210 0 435.74700973 0 29163
0.16450000 0.16449100 8653.13000467 0 248.55341608 0 2512.51227110 0 -176.67916077 0 653.85009216 0 28996
0.16550000 0.16550500 8621.74708081 0 161.34469745 0 2885.85592400 0 -190.72403527 0 426.91541337 0 30777
0.16650000 0.16650700 8487.96597134 0 54.66670267 0 2710.26753129 0 48.17811565 0 240.60388091 0 29211
0.16750000 0.16749900 8361.30286490 0 4.11623790 0 3034.93854307 0 217.85263418 0 503.49765650 0 30922
0.16850000 0.16850800 8302.84296962 0 71.78330305 0 2826.47332462 0 30.29885640 0 691.68315705 0 30867
0.16950000 0.16949900 8289.72738996 0 56.77167632 0 2549.76095673 0 334.91851955 0 689.33465543 0 30852
0.17050000 0.17049200 8056.26128432 0 134.28969518 0 2838.08401784 0 63.26564578 0 899.40362147 0 31257
0.17150000 0.17149500 8077.25280252 0 197.17088092 0 2531.44967423 0 209.28247065 0 1169.12101355 0 32608
0.17250000 0.17250900 8004.51296289 0 51.67066050 0 2624.34620455 0 3.55872690 0 1034.05031526 0 32361
0.17350000 0.17350400 7998.74606228 0 -162.01255946 0 2278.13444594 0 328.74738667 0 1205.89736255 0 32508
0.17450000 0.17449800 7916.94395027 0 -134.59286938 0 2139.54209368 0 176.76703735 0 749.99146522 0 32791
0.17550000 0.17549800 7847.67523557 0 230.14546935 0 2021.76550646 0 -65.25989493 0 1205.16139619 0 33633
0.17650000 0.17650100 7905.88248568 0 215.55136622 0 2062.47433245 0 -122.58892847 0 650.61623399 0 33984
0.17750000 0.17750300 7728.61345336 0 -72.76279739 0 1771.31725160 0 -5.02692487 0 807.78789232 0 34069
0.17850000 0.17849800 7722.26437041 0 52.48747332 0 2137.37813288 0 314.72448131 0 326.44941409 0 34536
