### header ###
fiducial parameters:
Omega_m = 0.31
Omega_nu = 0
Omega_de = 0.69
Omega_k = 0
H_0 = 100
w_de = -1
zeff = 0
beta = 0
fgrowth = 0
b_1 = 2
gamma = 0.55
Lx = 3500 Ly = 3500 Lz = 3500
nx = 700 ny = 700 nz = 700
xoffset = -983.599254 yoffset = -42.9823471 zoffset = 800.977702
bins = 400 dk = 0.001
kx_ny = 0.628318531 ky_ny = 0.628318531 kz_ny = 0.628318531
############################
A(data) = 9.10353284 (not used)
A(ran) = 9.0904199 (used)
Ngal = 505202
weighted Ngal = 0
Nran = 25229228
weighted Nran = 0
SN(data) = 6725.83411
SN(ran) = 134.941021
SN(data+ran) = 6860.77513
############################
13 columns: k_central k_mean P_0(k) sigma^{lin}_{P_0(k)} P^img_1(k) sigma^{lin}_{P_1(k)} P_2(k) sigma^{lin}_{P_2(k)} P^img_3(k) sigma^{lin}_{P_3(k)} P_4(k) sigma^{lin}_{P_4(k)} N_modes
### header ###
0.00050000 0 0 0 0 0 0 0 0 0 0 0 0
0.00150000 0.00179520 45382.10254546 0 -54215.45643248 0 -87130.28878957 0 41898.67488847 0 34312.06998944 0 3
0.00250000 0.00253879 45529.84504668 0 -18728.47655974 0 -15668.50417575 0 1747.56860568 0 -10856.86594051 0 6
0.00350000 0.00331552 72722.15447180 0 -10785.70787933 0 -6513.46708070 0 -56381.17476262 0 64300.83190231 0 7
0.00450000 0.00420575 90732.78921335 0 -3050.42679041 0 4571.75713921 0 -62788.80548649 0 -19626.24567681 0 24
0.00550000 0.00557378 74747.81950152 0 15056.00440862 0 19622.73061359 0 -11421.31918718 0 1682.74864288 0 45
0.00650000 0.00659388 67420.88989832 0 4157.89139806 0 40661.70217008 0 25292.63744290 0 -1370.98450388 0 40
0.00750000 0.00754703 51771.05949595 0 7066.28766500 0 22466.96599207 0 29436.78714066 0 29092.20109878 0 57
0.00850000 0.00846663 62626.56334946 0 -780.13423084 0 44448.19418460 0 17627.27315846 0 -13679.63746418 0 75
0.00950000 0.00948925 58668.38246550 0 2727.48035652 0 32789.71807539 0 12154.64925271 0 26584.75271564 0 112
0.01050000 0.01054430 65766.83295902 0 -5778.70902073 0 31794.07641662 0 8430.07727383 0 19625.58660246 0 105
0.01150000 0.01145670 60111.64545697 0 -12069.62866093 0 4621.64906787 0 15259.65838428 0 24621.69974963 0 144
0.01250000 0.01249090 76151.75772315 0 4644.29925654 0 20062.11351684 0 9209.08119216 0 6652.10337125 0 169
0.01350000 0.01339930 72819.69747632 0 6687.62747897 0 7035.95926010 0 -16450.71558927 0 15413.22270896 0 180
0.01450000 0.01448870 79124.62244656 0 -2248.68480684 0 27952.33200202 0 2487.77501365 0 4497.81998116 0 267
0.01550000 0.01550050 68970.70324382 0 -3068.51838145 0 32075.39132043 0 -6521.98012445 0 4203.68608115 0 238
0.01650000 0.01653350 69170.29292762 0 3672.17556766 0 34288.56300411 0 -10247.55169943 0 -12184.63713585 0 315
0.01750000 0.01747870 78611.97244419 0 1460.47581670 0 35041.11607166 0 -2129.75483951 0 -7234.25276434 0 297
0.01850000 0.01844180 83589.63150942 0 -3896.20592546 0 40208.14916820 0 15346.87589057 0 -7709.42340506 0 388
0.01950000 0.01947590 86746.04844067 0 -4067.21375140 0 37940.71369596 0 -3857.93567458 0 -8949.83429467 0 399
0.02050000 0.02045430 84412.48584149 0 3174.39867656 0 45297.63118231 0 -7115.24590499 0 -19923.04882796 0 462
0.02150000 0.02154770 81050.65740297 0 2550.76055283 0 35885.93954889 0 10100.97356290 0 -9330.02133628 0 571
0.02250000 0.02255340 85249.83980937 0 -683.09651666 0 46402.12995537 0 14654.29858932 0 1436.36467988 0 510
0.02350000 0.02348930 79325.31058762 0 1792.63830698 0 30945.51818471 0 6277.37566221 0 -963.44367962 0 555
0.02450000 0.02439640 81039.67283039 0 9796.45924180 0 42844.77612490 0 2989.95671835 0 9200.57913298 0 592
0.02550000 0.02547300 74059.30649213 0 4772.28051168 0 41039.68131261 0 -4195.75521975 0 8865.73640698 0 837
0.02650000 0.02652900 64404.41642175 0 1493.34165786 0 45629.69481145 0 1015.77638031 0 14204.04095921 0 723
0.02750000 0.02749970 63946.24989939 0 -527.43194169 0 36531.94226240 0 8203.97083182 0 11207.55940474 0 826
0.02850000 0.02848090 59944.46026228 0 -2907.87999202 0 38636.69621471 0 10867.98232796 0 13306.49153359 0 831
0.02950000 0.02946900 65753.43178047 0 2244.76331443 0 26422.18104144 0 4124.53125113 0 5787.25501820 0 996
0.03050000 0.03053250 63413.82766637 0 4684.21719330 0 34347.55015888 0 772.45930998 0 14652.65090343 0 1041
0.03150000 0.03150510 61734.28651868 0 1488.91487511 0 34933.24756891 0 -1555.71206098 0 13409.08744150 0 1036
0.03250000 0.03246190 59582.07921282 0 385.84189958 0 32646.14971175 0 3845.18258582 0 5197.51528545 0 1059
0.03350000 0.03345080 56661.28136344 0 1276.33044194 0 33756.79984545 0 294.99179513 0 5143.33937348 0 1302
0.03450000 0.03451200 54314.09789426 0 1936.06387118 0 34488.48222509 0 1723.94079006 0 5165.47328723 0 1339
0.03550000 0.03553350 52575.13020891 0 792.49736728 0 35039.24869432 0 2697.37164307 0 8057.71124790 0 1365
0.03650000 0.03647120 52303.37188324 0 983.57400734 0 28930.72788184 0 2938.92239414 0 4184.99033862 0 1308
0.03750000 0.03744890 51784.02129160 0 314.26862155 0 29625.28240616 0 5734.83663784 0 5611.83139407 0 1579
0.03850000 0.03847530 49350.93846483 0 -194.76416107 0 27620.59791006 0 3733.94181929 0 9491.28584635 0 1662
0.03950000 0.03950240 47644.70480577 0 1849.99974500 0 24334.78271380 0 2141.36553272 0 2399.73366441 0 1683
0.04050000 0.04050350 47592.19854883 0 1768.80178448 0 22640.74193031 0 473.88874110 0 7819.03845485 0 1822
0.04150000 0.04152450 48296.63918847 0 -1093.72730118 0 20988.44252262 0 4898.35045120 0 -354.41723434 0 1887
0.04250000 0.04250150 46293.49253254 0 -982.44808865 0 17796.98480484 0 -16.07724012 0 2501.02240818 0 1920
0.04350000 0.04349210 47157.75870324 0 3330.59929867 0 21316.44185990 0 -4568.39586000 0 -6541.57660193 0 2005
0.04450000 0.04448520 42248.31383373 0 3328.22663099 0 22567.14529401 0 -4277.94179180 0 -3341.15547292 0 2151
0.04550000 0.04548030 42204.04600623 0 -348.00004704 0 24992.31922852 0 423.18505253 0 -5007.61399467 0 2274
0.04650000 0.04648670 39772.17148245 0 -1660.17534623 0 21330.06272990 0 5032.62586643 0 -3787.35979575 0 2311
0.04750000 0.04749250 43175.30191387 0 493.39624355 0 19680.28977391 0 4629.37122240 0 -4903.41433916 0 2568
0.04850000 0.04851840 42123.74878066 0 654.88044507 0 17171.74293351 0 -1175.55797308 0 -5538.30066521 0 2493
0.04950000 0.04949480 42115.62019695 0 1047.61077011 0 18613.24839336 0 947.64456888 0 -258.62297377 0 2644
0.05050000 0.05050630 40947.96013155 0 173.57162519 0 17719.98295105 0 421.30778907 0 -5287.45696575 0 2829
0.05150000 0.05149060 38882.31125763 0 365.05908825 0 18343.35744504 0 -855.13579397 0 -2970.92045407 0 2784
0.05250000 0.05249300 37755.18426506 0 1769.05442965 0 17154.38730883 0 -142.98947666 0 -7679.81998196 0 3055
0.05350000 0.05348950 37604.80546642 0 1110.04598221 0 18779.66466797 0 2.27599245 0 -2547.81668738 0 3009
0.05450000 0.05448610 35904.94285946 0 859.73283760 0 17947.03406630 0 -232.59942287 0 -8289.06831561 0 3336
0.05550000 0.05550870 33716.81600126 0 947.18761066 0 17416.25951917 0 2596.37948276 0 -4203.12586795 0 3349
0.05650000 0.05647670 34230.78415234 0 -714.11585117 0 16256.94772894 0 3631.21409650 0 -2881.86852415 0 3324
0.05750000 0.05747970 34348.64861613 0 -487.55135248 0 10663.22989505 0 4333.35896048 0 -3208.68152759 0 3639
0.05850000 0.05849280 34353.70151952 0 -257.44652605 0 10390.18637439 0 2006.26627455 0 -398.64771429 0 3846
0.05950000 0.05951020 33499.10177269 0 1211.55441743 0 8103.09950181 0 49.24691456 0 -366.74192477 0 3787
0.06050000 0.06049470 33050.82136565 0 885.70146564 0 8923.61411991 0 -1074.44058864 0 603.95486812 0 3930
0.06150000 0.06148310 32442.38589037 0 -479.21296343 0 7400.63608523 0 986.37287643 0 -3783.41633419 0 4083
0.06250000 0.06249100 30931.56777753 0 1048.91903271 0 8059.54567152 0 -1817.00208897 0 -2962.19870344 0 4303
0.06350000 0.06350600 29755.22989979 0 1572.62830275 0 9504.21468827 0 -599.85432718 0 -1561.13843983 0 4470
0.06450000 0.06451750 29493.57738091 0 -253.40530179 0 9608.27154434 0 1968.02897739 0 -1357.92384708 0 4479
0.06550000 0.06550280 29361.54281848 0 -223.79968177 0 8833.45274817 0 2580.95714286 0 108.89698828 0 4636
0.06650000 0.06648880 29914.72589368 0 -305.84894667 0 8480.91387574 0 752.55087063 0 -362.78967556 0 4653
0.06750000 0.06749660 29664.16779309 0 605.18404180 0 7256.61735411 0 -484.01761548 0 1192.86965947 0 5220
0.06850000 0.06852730 29086.92850395 0 126.12046855 0 9394.54471562 0 -1611.04135307 0 808.28988728 0 5029
0.06950000 0.06949320 29203.47481903 0 259.75218783 0 8159.28559056 0 1090.48026153 0 536.63042277 0 5040
0.07050000 0.07048030 29188.42595460 0 106.75433755 0 9885.25852655 0 -123.13046789 0 14.47920450 0 5475
0.07150000 0.07148790 28500.90155673 0 1095.26623980 0 9127.08135784 0 -118.49497826 0 364.19240548 0 5509
0.07250000 0.07249820 28010.11085380 0 276.26749271 0 10207.99625356 0 -939.95976190 0 -441.06793669 0 5916
0.07350000 0.07351270 27005.02246260 0 292.25334118 0 9481.46563846 0 1744.04255789 0 158.10534699 0 5721
0.07450000 0.07449140 27087.40675696 0 -166.90838346 0 9267.07973539 0 923.05560316 0 1392.00897580 0 6028
0.07550000 0.07549160 26773.35782686 0 79.92396979 0 8561.55162306 0 1547.83612244 0 344.14556052 0 6183
0.07650000 0.07648840 26757.64988807 0 584.90322544 0 7588.19766205 0 -443.72620325 0 1437.17753825 0 6330
0.07750000 0.07749960 25938.20077350 0 396.91105337 0 8254.18131309 0 -305.47107737 0 816.84137704 0 6583
0.07850000 0.07848650 25579.66432445 0 552.20434978 0 8736.55783343 0 -94.72414351 0 2258.51599930 0 6549
0.07950000 0.07947320 24958.37689925 0 114.65147632 0 8142.12768819 0 52.09565362 0 306.42563673 0 6828
0.08050000 0.08048110 25272.42582935 0 496.69820607 0 9726.47652988 0 688.67338416 0 653.73255723 0 7147
0.08150000 0.08149960 23940.76609531 0 667.19305248 0 10660.30799874 0 -1363.59188653 0 1640.98529793 0 7386
0.08250000 0.08250610 23112.41947695 0 1025.10228244 0 10336.75741336 0 -768.77947816 0 2031.81639037 0 7227
0.08350000 0.08350160 23135.59692510 0 -78.52376633 0 11684.28985477 0 662.39059734 0 1170.87854516 0 7798
0.08450000 0.08449610 22704.67214273 0 -38.50685857 0 11145.27687821 0 422.64680847 0 524.36175366 0 7371
0.08550000 0.08548940 23219.95844252 0 232.48957714 0 11081.56635724 0 830.32384142 0 1548.03384474 0 8256
0.08650000 0.08650700 22519.69194046 0 -129.23239796 0 10280.96676922 0 1021.91895330 0 2581.45144862 0 8037
0.08750000 0.08749060 22441.26209223 0 -12.26185868 0 9933.11830928 0 972.90579044 0 810.64607810 0 8155
0.08850000 0.08849210 22217.72604020 0 418.63853793 0 8741.66565968 0 543.99887406 0 1282.32801857 0 8718
0.08950000 0.08949900 22287.80761327 0 9.87223082 0 7333.08096385 0 1163.37608209 0 1492.72652180 0 8571
0.09050000 0.09049190 21067.09206231 0 202.67964407 0 7905.98134683 0 329.29112301 0 1483.69720313 0 8932
0.09150000 0.09150830 20980.97301327 0 1145.89962711 0 7283.61743352 0 -295.88813625 0 479.58753736 0 9285
0.09250000 0.09250820 20183.71273531 0 574.28663604 0 7094.56195482 0 -480.52012757 0 626.89285259 0 9204
0.09350000 0.09350330 19334.60527478 0 5.15711403 0 7368.18765782 0 377.15859495 0 -712.10896976 0 9349
0.09450000 0.09448040 18817.67128910 0 325.53000536 0 6560.75566566 0 75.50509594 0 206.20239650 0 9564
0.09550000 0.09549270 18233.51171922 0 106.67964246 0 6063.01172828 0 1209.45636407 0 282.53309291 0 10155
0.09650000 0.09649430 18312.38095036 0 227.09505355 0 5702.12458069 0 669.46795746 0 643.42463432 0 9913
0.09750000 0.09749140 18012.17258171 0 373.09100773 0 5251.81202772 0 475.85278268 0 -154.63861589 0 10476
0.09850000 0.09850240 17503.80656264 0 78.44028357 0 5667.29250104 0 -363.71787194 0 1153.54488963 0 10575
0.09950000 0.09950330 17618.15596322 0 156.01937666 0 5266.49840126 0 389.55248820 0 36.33828425 0 10882
0.10050000 0.10051200 17714.16112758 0 -80.58996443 0 5358.91161039 0 -362.57657485 0 140.66184573 0 10875
0.10150000 0.10150300 17179.32228859 0 58.21329162 0 5561.35728306 0 -520.83680432 0 -927.83718760 0 11118
0.10250000 0.10250800 17259.07028553 0 121.12907877 0 5488.45267484 0 303.20496005 0 -172.24359036 0 11575
0.10350000 0.10349800 17106.93395528 0 129.08959852 0 5084.33024957 0 443.51420100 0 -422.32276358 0 11364
0.10450000 0.10450100 17446.13755659 0 155.41302825 0 5049.71786137 0 498.41179939 0 -836.38073475 0 12093
0.10550000 0.10551000 16612.18880622 0 484.54267805 0 5654.03412193 0 -338.47422569 0 -335.19093695 0 12067
0.10650000 0.10649700 16037.36612304 0 570.57714588 0 5995.73122122 0 -947.61820590 0 193.09011221 0 12054
0.10750000 0.10749900 15699.15113326 0 84.33109016 0 5364.30503553 0 801.47945228 0 173.05644873 0 12807
0.10850000 0.10850100 15645.43657333 0 -29.27871914 0 5907.10768963 0 1066.19996229 0 616.16422055 0 12736
0.10950000 0.10950300 15587.54787583 0 173.45738563 0 5603.97742468 0 -125.85024806 0 943.88454968 0 12933
0.11050000 0.11050200 15450.13087284 0 476.36246685 0 5623.47504101 0 93.02900427 0 1081.84199365 0 13428
0.11150000 0.11150900 15098.73439596 0 -193.58222106 0 5524.42715004 0 -181.38824704 0 938.80418487 0 13453
0.11250000 0.11250000 14858.06241070 0 159.20819808 0 6249.59567815 0 208.92986587 0 1087.12886843 0 13668
0.11350000 0.11349100 14681.54032932 0 335.02067607 0 5734.38627036 0 165.48038902 0 874.26542712 0 13791
0.11450000 0.11448600 14737.78134094 0 227.10384120 0 6020.58930897 0 -99.26428705 0 888.32238465 0 14205
0.11550000 0.11549300 14184.48842001 0 185.71067635 0 5771.44821825 0 -163.87554297 0 565.97570842 0 14776
0.11650000 0.11649800 14112.53946961 0 168.29024269 0 5900.97829813 0 84.37458907 0 711.36970803 0 14553
0.11750000 0.11747300 13676.56178385 0 116.55729966 0 5823.22949340 0 35.13096988 0 -138.46602967 0 14568
0.11850000 0.11849100 13814.96739838 0 215.50742793 0 5756.64101441 0 40.76133224 0 -135.92639649 0 16015
0.11950000 0.11950300 13513.88026392 0 82.84509718 0 5354.91322597 0 477.07646407 0 125.35045001 0 15270
0.12050000 0.12050700 13626.36228716 0 -157.73296998 0 5183.15844909 0 538.60874430 0 308.89716556 0 15999
0.12150000 0.12150000 13450.05989723 0 92.38300155 0 5148.83165977 0 312.16397745 0 183.68292425 0 15670
0.12250000 0.12250700 13197.74426503 0 226.84350683 0 4596.75802641 0 -15.32930057 0 386.06818177 0 16887
0.12350000 0.12352200 13040.77472284 0 197.82665990 0 4935.82981285 0 243.70921958 0 1617.30255944 0 16407
0.12450000 0.12449800 12982.22695099 0 111.70980778 0 4817.49301243 0 598.78113444 0 1424.46838778 0 16306
0.12550000 0.12549900 12816.79928791 0 -44.74653518 0 4506.92619183 0 379.34562335 0 1391.39383973 0 17523
0.12650000 0.12650100 12725.51748976 0 374.14332978 0 4844.81164444 0 293.59126213 0 1712.20926654 0 17154
0.12750000 0.12750600 12361.48875441 0 124.61777902 0 4405.62646349 0 -420.02039716 0 1805.69896378 0 18007
0.12850000 0.12850300 12633.90615443 0 -212.71844495 0 4428.54028189 0 430.47441489 0 1476.28261664 0 17496
0.12950000 0.12949900 12362.03798304 0 -74.84349513 0 3896.37069405 0 544.41299245 0 1693.61238516 0 18405
0.13050000 0.13049000 12298.76684498 0 256.55348030 0 4007.87509032 0 -104.18240973 0 1478.76513005 0 18100
0.13150000 0.13148800 12365.99242917 0 276.16204081 0 4099.21181133 0 -520.12720093 0 1178.24919337 0 19059
0.13250000 0.13249300 12195.62170844 0 153.59178612 0 4142.56791931 0 111.05402880 0 825.42801742 0 18957
0.13350000 0.13349100 11842.46769995 0 -75.55551512 0 4363.75327281 0 -63.36165095 0 670.81686297 0 19468
0.13450000 0.13450700 11907.27667818 0 117.52284359 0 4234.05842434 0 187.99107361 0 -123.17220927 0 19953
0.13550000 0.13551000 11699.88794784 0 -16.89712862 0 4395.58656415 0 -324.26348414 0 366.36735085 0 19956
0.13650000 0.13649900 11776.34057301 0 148.26976070 0 3790.74304410 0 630.43757416 0 450.26422085 0 19723
0.13750000 0.13749600 11785.89715115 0 51.63287357 0 4225.92984063 0 107.78578892 0 499.90240589 0 20946
0.13850000 0.13851100 11645.95369647 0 73.88948500 0 3662.80572725 0 -251.14357830 0 -117.84249465 0 20955
0.13950000 0.13949800 11458.66673395 0 242.04615529 0 3818.81961162 0 -51.42109101 0 140.65855036 0 20506
0.14050000 0.14048300 11197.01421507 0 170.28723799 0 3866.71234808 0 46.97398680 0 358.04214329 0 21447
0.14150000 0.14148400 11138.57628893 0 -48.20052418 0 4180.01432724 0 495.35698976 0 612.25151580 0 21771
0.14250000 0.14249400 11084.53219183 0 224.59716174 0 3577.68627432 0 276.06427811 0 -78.17149108 0 22470
0.14350000 0.14350900 10726.83057029 0 170.18617992 0 3687.42215440 0 14.32146604 0 876.77320504 0 22519
0.14450000 0.14449900 10661.85682348 0 34.49496312 0 3204.35360599 0 551.44641427 0 1066.73930481 0 22218
0.14550000 0.14550500 10559.45863787 0 -138.86806503 0 3257.84847447 0 583.87726636 0 998.65582549 0 23559
0.14650000 0.14650700 10530.69004228 0 73.92419625 0 2847.61862684 0 -146.39908799 0 607.82033922 0 23044
0.14750000 0.14750500 10599.51937408 0 251.62909641 0 2518.37803286 0 -71.28888744 0 324.27776409 0 23649
0.14850000 0.14849900 10004.14455560 0 242.18016707 0 2851.90261015 0 -566.05919118 0 259.86972276 0 23640
0.14950000 0.14949500 9980.91218459 0 358.98461962 0 3354.31499087 0 -294.28658557 0 -251.47421393 0 24457
0.15050000 0.15050000 9808.14682703 0 67.60048766 0 3150.39738547 0 29.90330194 0 -131.67866228 0 24591
0.15150000 0.15149900 9431.31008005 0 -6.58288958 0 3098.84678635 0 246.71679555 0 -392.79074019 0 25020
0.15250000 0.15250500 9392.83112230 0 89.28216656 0 3046.67006659 0 196.16469407 0 13.51684610 0 25297
0.15350000 0.15350100 9478.44488100 0 110.91013090 0 3154.74727622 0 285.92403046 0 95.49185528 0 25452
0.15450000 0.15450400 9479.85090629 0 32.73062107 0 2879.11139643 0 159.48171394 0 154.45846890 0 26061
0.15550000 0.15549900 9297.49601687 0 65.24451653 0 3104.39399550 0 -281.03919104 0 186.05888730 0 26128
0.15650000 0.15649500 9172.76619520 0 108.78527518 0 2976.44569408 0 -135.52655805 0 93.95104929 0 26331
0.15750000 0.15749700 9329.74672196 0 -79.71745983 0 3094.76052535 0 283.71832829 0 311.68175471 0 27345
0.15850000 0.15849900 9237.86077232 0 -38.01925339 0 2793.25597714 0 159.78049431 0 24.49493778 0 26980
0.15950000 0.15949700 9370.22487193 0 50.16852020 0 2777.07570172 0 281.27426089 0 423.86499757 0 27777
0.16050000 0.16050000 9349.25532287 0 -1.54851717 0 2520.03670332 0 169.51062870 0 500.87234365 0 28224
0.16150000 0.16150500 9035.07457790 0 72.74137747 0 2468.36527390 0 413.85365812 0 743.10523667 0 28075
0.16250000 0.16249700 9154.36703613 0 159.04892178 0 2164.24639741 0 218.90935006 0 816.43934168 0 28590
0.16350000 0.16349900 8911.05875345 0 191.66980697 0 2509.24985305 0 -224.85090537 0 458.50704412 0 29163
0.16450000 0.16449100 8703.32950137 0 277.72294857 0 2419.73657108 0 -410.71866110 0 697.88284981 0 28996
0.16550000 0.16550500 8436.94263170 0 157.97023675 0 2641.76773667 0 -245.96215541 0 378.84143147 0 30777
0.16650000 0.16650700 8319.50656623 0 -20.23435161 0 2508.15139579 0 745.71187574 0 857.91379238 0 29211
0.16750000 0.16749900 8432.09843519 0 -159.49928925 0 2380.36786295 0 245.22289368 0 215.65791657 0 30922
0.16850000 0.16850800 8298.93246179 0 199.69293879 0 2102.98543613 0 -46.45287868 0 543.02234556 0 30867
0.16950000 0.16949900 8364.73005155 0 110.07640184 0 2297.00594163 0 -115.84000707 0 351.08561347 0 30852
0.17050000 0.17049200 8065.41143328 0 10.05911136 0 2220.00408783 0 -61.84940484 0 908.32968515 0 31257
0.17150000 0.17149500 8011.54308934 0 101.58082356 0 2448.63698154 0 30.07685818 0 390.92775668 0 32608
0.17250000 0.17250900 7949.20563994 0 220.17367436 0 2695.55918860 0 -150.20084856 0 704.25060654 0 32361
0.17350000 0.17350400 7924.79791966 0 41.32659835 0 2561.00915905 0 31.91457718 0 733.70573791 0 32508
0.17450000 0.17449800 7966.55028005 0 -93.39259362 0 2628.55329585 0 485.46538215 0 571.00005192 0 32791
0.17550000 0.17549800 8005.86406532 0 -121.00165773 0 2159.58893864 0 84.57000461 0 869.80569065 0 33633
0.17650000 0.17650100 7953.73128384 0 65.61315879 0 2214.21521808 0 107.69472681 0 722.02254652 0 33984
0.17750000 0.17750300 7941.61530029 0 171.21872974 0 2120.54976768 0 -113.94077447 0 920.67524628 0 34069
0.17850000 0.17849800 7888.06550895 0 135.40682621 0 2382.79545349 0 -191.28205156 0 405.30656219 0 34536
