### header ###
fiducial parameters:
Omega_m = 0.31
Omega_nu = 0
Omega_de = 0.69
Omega_k = 0
H_0 = 100
w_de = -1
zeff = 0
beta = 0
fgrowth = 0
b_1 = 2
gamma = 0.55
Lx = 3500 Ly = 3500 Lz = 3500
nx = 700 ny = 700 nz = 700
xoffset = -983.599254 yoffset = -42.9823471 zoffset = 800.977702
bins = 400 dk = 0.001
kx_ny = 0.628318531 ky_ny = 0.628318531 kz_ny = 0.628318531
############################
A(data) = 9.03331276 (not used)
A(ran) = 9.01304112 (used)
Ngal = 501349
weighted Ngal = 0
Nran = 25229228
weighted Nran = 0
SN(data) = 6759.95466
SN(ran) = 133.792386
SN(data+ran) = 6893.74705
############################
13 columns: k_central k_mean P_0(k) sigma^{lin}_{P_0(k)} P^img_1(k) sigma^{lin}_{P_1(k)} P_2(k) sigma^{lin}_{P_2(k)} P^img_3(k) sigma^{lin}_{P_3(k)} P_4(k) sigma^{lin}_{P_4(k)} N_modes
### header ###
0.00050000 0 0 0 0 0 0 0 0 0 0 0 0
0.00150000 0.00179520 33688.58564972 0 -11986.69513794 0 10637.14153517 0 -36476.47017087 0 -9919.78303817 0 3
0.00250000 0.00253879 41760.92834830 0 -6671.29341954 0 3274.14958018 0 -8031.46910400 0 3026.53534505 0 6
0.00350000 0.00331552 42103.97655001 0 -3068.72708833 0 7611.14443418 0 499.30814051 0 12110.71096238 0 7
0.00450000 0.00420575 40201.55842465 0 7535.61451311 0 13079.44041833 0 490.27332957 0 2937.19781624 0 24
0.00550000 0.00557378 38834.41852118 0 4326.26292659 0 28262.20679454 0 27318.41231835 0 22209.04822786 0 45
0.00650000 0.00659388 52911.03843844 0 -19920.30268481 0 1634.26273951 0 35414.81123088 0 42201.19001736 0 40
0.00750000 0.00754703 65120.06132543 0 -20656.26904776 0 -7973.54745278 0 15021.95223362 0 -11228.86947555 0 57
0.00850000 0.00846663 81020.44982837 0 -2604.67283506 0 73.41055764 0 -17706.80146395 0 5288.85200647 0 75
0.00950000 0.00948925 80474.18703390 0 10266.65387114 0 15727.05194761 0 -19779.37061860 0 22914.80701621 0 112
0.01050000 0.01054430 77687.62066147 0 222.78031344 0 25350.96552330 0 3741.99351099 0 15957.61812609 0 105
0.01150000 0.01145670 74739.14168919 0 -2864.91932866 0 11260.39519886 0 17854.32427372 0 4059.48061231 0 144
0.01250000 0.01249090 85873.87337772 0 2984.22277146 0 33975.06330264 0 11837.08525938 0 23389.01101455 0 169
0.01350000 0.01339930 92003.48456956 0 -2019.90911369 0 33929.47732643 0 -35.83508098 0 13668.87258305 0 180
0.01450000 0.01448870 74042.93947898 0 5649.09106427 0 29480.50573953 0 -4617.95825149 0 6384.00290825 0 267
0.01550000 0.01550050 75433.14698487 0 312.05193481 0 36633.43971305 0 -1880.65768708 0 13011.00653115 0 238
0.01650000 0.01653350 75952.82711370 0 1133.92644300 0 39885.53227149 0 6195.67241135 0 3179.93490115 0 315
0.01750000 0.01747870 79210.30211270 0 -2272.41148362 0 25942.92413971 0 9517.23140678 0 -10149.27272854 0 297
0.01850000 0.01844180 82394.51001257 0 6155.28213796 0 44438.96714363 0 -13355.59257303 0 -24512.62294390 0 388
0.01950000 0.01947590 75200.38389188 0 3239.65802227 0 27713.41754837 0 -1308.22964072 0 -11930.01474342 0 399
0.02050000 0.02045430 69661.96239636 0 -2385.28895147 0 38833.32006392 0 -2252.34266951 0 -14603.33017254 0 462
0.02150000 0.02154770 73458.67006338 0 222.34642282 0 34685.65530293 0 4710.81084352 0 -32278.49606745 0 571
0.02250000 0.02255340 73670.23293129 0 -460.21844053 0 30706.38403961 0 3483.66931759 0 -21115.53402739 0 510
0.02350000 0.02348930 75689.96629183 0 153.78731151 0 25639.74993647 0 -3648.33904516 0 -39958.35998770 0 555
0.02450000 0.02439640 74211.99205101 0 1911.45842860 0 27668.71033797 0 -4597.55990020 0 -29546.52302075 0 592
0.02550000 0.02547300 72422.71502323 0 2471.42996965 0 29852.11382996 0 -6294.74227146 0 -34055.47037394 0 837
0.02650000 0.02652900 68724.86850945 0 2040.31844955 0 33267.65682840 0 -155.06371884 0 -27588.19342095 0 723
0.02750000 0.02749970 68977.40383309 0 3374.58152729 0 34584.37754373 0 8071.87036196 0 -39230.85174564 0 826
0.02850000 0.02848090 64383.32604240 0 -787.18522798 0 26160.52852255 0 384.06020191 0 -16920.19622140 0 831
0.02950000 0.02946900 64970.45144687 0 -415.90887165 0 27807.22579822 0 7634.81618809 0 -24311.82495711 0 996
0.03050000 0.03053250 58929.04637286 0 4385.62355682 0 24356.97155042 0 1350.93765892 0 -10558.15147374 0 1041
0.03150000 0.03150510 59078.10702279 0 4033.05173068 0 24180.77900621 0 -1498.26274638 0 -6959.25398976 0 1036
0.03250000 0.03246190 53382.16675646 0 4139.81079159 0 24923.11642126 0 5265.15828341 0 -11844.66461446 0 1059
0.03350000 0.03345080 49668.17292098 0 2650.68720960 0 25490.79913227 0 3496.14779204 0 -2570.82936694 0 1302
0.03450000 0.03451200 48302.02162904 0 -3694.66098773 0 22825.61228685 0 6141.90292856 0 6559.88788442 0 1339
0.03550000 0.03553350 49775.82173228 0 -2837.00752973 0 15995.62474723 0 8204.09166212 0 -181.58926471 0 1365
0.03650000 0.03647120 49081.15736223 0 1158.20234840 0 8421.15780090 0 4681.38317357 0 5322.54169057 0 1308
0.03750000 0.03744890 49174.41638345 0 2746.19806820 0 9262.78476751 0 -383.46373961 0 12144.87298311 0 1579
0.03850000 0.03847530 44766.52709801 0 3002.30337793 0 11289.94369910 0 -1891.99376598 0 6908.06588154 0 1662
0.03950000 0.03950240 43435.41659260 0 1197.50514910 0 11304.77287209 0 1385.57201627 0 6889.82050648 0 1683
0.04050000 0.04050350 42887.72580369 0 -233.27277717 0 11369.91138750 0 28.38105987 0 2403.98469400 0 1822
0.04150000 0.04152450 41416.78168933 0 688.60637827 0 12542.84404773 0 -1006.80747680 0 3995.05609412 0 1887
0.04250000 0.04250150 41976.99489097 0 -691.15150373 0 10560.86466316 0 1641.84209459 0 3304.65373823 0 1920
0.04350000 0.04349210 42146.70653736 0 -1301.13360683 0 10242.20221258 0 812.36516371 0 -2666.29628724 0 2005
0.04450000 0.04448520 41913.72375291 0 2645.08507759 0 10044.50187526 0 -1483.09305164 0 -1369.83112376 0 2151
0.04550000 0.04548030 41332.42017190 0 1131.96020451 0 12268.99865328 0 -3120.96971553 0 -3383.13850933 0 2274
0.04650000 0.04648670 39211.62874362 0 1062.38721715 0 15994.30659852 0 -1004.36340940 0 -3130.18577192 0 2311
0.04750000 0.04749250 37433.77567133 0 916.14081472 0 15621.92958801 0 449.29318464 0 -2145.61656231 0 2568
0.04850000 0.04851840 38648.55955310 0 -380.14310332 0 14014.55708218 0 2858.06495537 0 1418.02044367 0 2493
0.04950000 0.04949480 38313.53008937 0 -747.51114873 0 15798.01228649 0 903.62938655 0 -1070.22031586 0 2644
0.05050000 0.05050630 38499.82844035 0 1070.28182946 0 15606.55118640 0 -2439.87129262 0 -4105.27529540 0 2829
0.05150000 0.05149060 34840.97715923 0 2807.94235068 0 17203.92773117 0 -485.34235493 0 2129.99650010 0 2784
0.05250000 0.05249300 35370.54340338 0 393.73541343 0 17728.33122621 0 825.68395797 0 1875.96727459 0 3055
0.05350000 0.05348950 35468.52579080 0 -848.55823191 0 16560.56131508 0 3543.33751585 0 213.81690221 0 3009
0.05450000 0.05448610 36486.90551482 0 -322.81022519 0 15770.11147213 0 1140.48423283 0 -3040.76036654 0 3336
0.05550000 0.05550870 36088.16553012 0 131.02068638 0 14624.31070617 0 391.55387732 0 1114.36291923 0 3349
0.05650000 0.05647670 34787.37244503 0 -683.12947038 0 12266.47220159 0 257.58603012 0 -509.56114056 0 3324
0.05750000 0.05747970 34785.94445060 0 996.26558250 0 12806.03440678 0 242.21971153 0 -4347.29838308 0 3639
0.05850000 0.05849280 35492.80169621 0 1235.03943361 0 13841.44021830 0 -513.48702680 0 -2004.12428289 0 3846
0.05950000 0.05951020 34192.55783975 0 -515.42800078 0 12118.83954609 0 918.34651689 0 -2818.43261749 0 3787
0.06050000 0.06049470 34197.06151451 0 -294.86327563 0 11589.05361049 0 2023.99537469 0 -3032.74162856 0 3930
0.06150000 0.06148310 33932.55300675 0 331.15190961 0 9014.09404427 0 1214.77289720 0 -3606.39994704 0 4083
0.06250000 0.06249100 33384.42283494 0 882.82899991 0 10649.14767300 0 252.05639628 0 -805.29000051 0 4303
0.06350000 0.06350600 31808.13666952 0 859.76249594 0 8758.21941056 0 1317.32486682 0 642.45579502 0 4470
0.06450000 0.06451750 32429.42409472 0 128.86771015 0 11663.85854977 0 -273.03802837 0 -1849.63725411 0 4479
0.06550000 0.06550280 31827.79905444 0 665.14882352 0 8948.84568313 0 -750.74830227 0 554.75716445 0 4636
0.06650000 0.06648880 29360.00497832 0 1122.50248751 0 12375.98839022 0 -304.91635646 0 56.76695295 0 4653
0.06750000 0.06749660 29525.21294994 0 -340.11971467 0 12032.83034278 0 155.61843976 0 2020.42538860 0 5220
0.06850000 0.06852730 30699.35391316 0 -139.04162128 0 10609.43844312 0 2845.45466604 0 1.38678032 0 5029
0.06950000 0.06949320 30215.04410805 0 -160.46043935 0 11544.45624581 0 591.71585735 0 2482.59029539 0 5040
0.07050000 0.07048030 30094.98272974 0 955.53588582 0 10571.37689912 0 -267.51937910 0 375.60977022 0 5475
0.07150000 0.07148790 28957.20070176 0 1195.98927808 0 12201.44353190 0 -1672.84055841 0 2378.44556275 0 5509
0.07250000 0.07249820 27817.99067935 0 949.09233554 0 12298.43730780 0 -716.37647621 0 300.81471705 0 5916
0.07350000 0.07351270 26160.63836828 0 176.17387043 0 13529.36851126 0 973.76039019 0 2775.26324725 0 5721
0.07450000 0.07449140 26166.67988320 0 -244.49022269 0 11001.37897739 0 2847.17924394 0 1094.73238957 0 6028
0.07550000 0.07549160 26717.66604388 0 -19.28154979 0 10106.63061778 0 2280.58400562 0 1625.03569854 0 6183
0.07650000 0.07648840 26114.72285489 0 366.77158312 0 7920.56885922 0 546.65274680 0 1224.43932107 0 6330
0.07750000 0.07749960 25194.43536402 0 554.97246207 0 7958.32283518 0 -696.77340798 0 2482.91983257 0 6583
0.07850000 0.07848650 25009.45516175 0 506.84685268 0 8298.48209431 0 -280.95570828 0 1203.43681829 0 6549
0.07950000 0.07947320 24318.08616348 0 325.65962332 0 7047.93244421 0 573.99774178 0 -333.64760450 0 6828
0.08050000 0.08048110 23476.44821230 0 404.78589345 0 7779.13150266 0 -854.42069830 0 -47.96842016 0 7147
0.08150000 0.08149960 22765.52667483 0 562.79787158 0 8574.95280161 0 450.26531931 0 -55.91685688 0 7386
0.08250000 0.08250610 22519.80178619 0 292.79048678 0 8601.54645183 0 -183.31054724 0 252.82202099 0 7227
0.08350000 0.08350160 22435.87965167 0 212.45042138 0 7593.49222604 0 1213.45474849 0 -480.78815114 0 7798
0.08450000 0.08449610 22495.63572651 0 68.54164584 0 8084.49163585 0 529.09280907 0 592.06406831 0 7371
0.08550000 0.08548940 22199.05226681 0 114.92828755 0 7539.56895924 0 909.18977719 0 1801.25021189 0 8256
0.08650000 0.08650700 21944.42987438 0 118.96292106 0 7919.55827854 0 66.35999988 0 1851.35084743 0 8037
0.08750000 0.08749060 21241.41722917 0 171.54277463 0 7286.55031440 0 1109.84825990 0 3379.08520205 0 8155
0.08850000 0.08849210 21208.90289433 0 642.97097148 0 7340.84705667 0 -341.65535791 0 3175.37630352 0 8718
0.08950000 0.08949900 20170.75093967 0 322.86954188 0 6930.93576165 0 637.44133764 0 3737.28112935 0 8571
0.09050000 0.09049190 20538.29473824 0 43.41586405 0 7348.04195171 0 1147.22876040 0 3110.07301953 0 8932
0.09150000 0.09150830 19479.16224995 0 410.10022967 0 7130.11901627 0 -290.46615123 0 3806.36310631 0 9285
0.09250000 0.09250820 19752.34857005 0 597.95509458 0 6925.03704617 0 276.61460520 0 4239.67154093 0 9204
0.09350000 0.09350330 18504.06174190 0 260.39917916 0 6834.35939951 0 -219.02139270 0 2099.03099000 0 9349
0.09450000 0.09448040 18281.62414713 0 158.33382610 0 6970.65597610 0 -38.40052790 0 2933.85850618 0 9564
0.09550000 0.09549270 17722.07001984 0 108.63555545 0 6537.45738721 0 159.84310637 0 2126.18485342 0 10155
0.09650000 0.09649430 17940.11378558 0 500.93495571 0 6131.22592401 0 5.33053846 0 1671.31370282 0 9913
0.09750000 0.09749140 17742.94070774 0 113.95395596 0 6332.36443255 0 331.38807792 0 1152.14984891 0 10476
0.09850000 0.09850240 17837.95726057 0 -383.18802684 0 5459.62915639 0 1673.70833965 0 1920.15821008 0 10575
0.09950000 0.09950330 17612.55383120 0 -118.27089298 0 4335.57784414 0 800.83026404 0 1865.54291521 0 10882
0.10050000 0.10051200 17380.99904119 0 128.27124786 0 4442.77628796 0 156.92670235 0 2034.77124040 0 10875
0.10150000 0.10150300 17303.00857586 0 492.00120283 0 4139.25057839 0 -238.52450132 0 1611.11824508 0 11118
0.10250000 0.10250800 16922.72267309 0 558.28870453 0 5371.47796142 0 -648.60495875 0 2696.53681556 0 11575
0.10350000 0.10349800 16033.41167691 0 240.68626520 0 5593.43223500 0 -321.16693313 0 1618.87335332 0 11364
0.10450000 0.10450100 16004.19271384 0 251.84109866 0 5888.53277740 0 15.11147650 0 1203.45878744 0 12093
0.10550000 0.10551000 15668.28448430 0 76.23348294 0 5773.60119448 0 -455.63457839 0 1291.91755044 0 12067
0.10650000 0.10649700 15997.05274166 0 247.24185812 0 6061.06745893 0 305.78633460 0 1027.59248504 0 12054
0.10750000 0.10749900 15695.74591576 0 -46.23736137 0 5859.42366006 0 285.71312667 0 864.50343747 0 12807
0.10850000 0.10850100 15608.41856373 0 93.86053641 0 5742.08645574 0 435.25709779 0 494.57818356 0 12736
0.10950000 0.10950300 15221.10253452 0 346.50175133 0 5795.18587960 0 -536.72379164 0 901.58296067 0 12933
0.11050000 0.11050200 15165.19106008 0 118.54990113 0 6079.69729403 0 -411.54799633 0 715.04624447 0 13428
0.11150000 0.11150900 14939.89747643 0 -143.70896617 0 5711.39555995 0 1137.27673764 0 162.04111935 0 13453
0.11250000 0.11250000 14881.89893320 0 41.07834701 0 4853.39059562 0 328.54197516 0 166.47778821 0 13668
0.11350000 0.11349100 14939.67778498 0 260.45629893 0 4844.37226153 0 326.94921214 0 412.05658204 0 13791
0.11450000 0.11448600 14639.24972488 0 278.10081787 0 4799.62111284 0 -306.99903142 0 305.54796938 0 14205
0.11550000 0.11549300 14506.55608810 0 75.72039356 0 4988.65462239 0 97.94460050 0 133.51967664 0 14776
0.11650000 0.11649800 14193.82530671 0 172.86641563 0 5146.03059376 0 -186.09953022 0 -13.26760615 0 14553
0.11750000 0.11747300 14092.10816461 0 222.23657709 0 4972.14480980 0 181.98141396 0 -686.76646236 0 14568
0.11850000 0.11849100 13831.44425725 0 -102.60326757 0 4859.28931110 0 29.26674596 0 50.23585563 0 16015
0.11950000 0.11950300 13955.13054452 0 139.83800279 0 4502.26873306 0 640.62906060 0 -105.79549421 0 15270
0.12050000 0.12050700 13647.89204942 0 37.21353499 0 3929.65394897 0 244.62752984 0 -11.95923371 0 15999
0.12150000 0.12150000 13426.11352900 0 336.57059926 0 4245.81191700 0 119.36275950 0 181.76282096 0 15670
0.12250000 0.12250700 13286.82914867 0 281.83447409 0 3968.38555189 0 54.20161587 0 876.85778625 0 16887
0.12350000 0.12352200 12802.73903501 0 154.76054464 0 3839.11910175 0 953.82339096 0 1449.37041382 0 16407
0.12450000 0.12449800 12792.08399960 0 72.15974436 0 3934.14663915 0 38.66481672 0 1054.38275911 0 16306
0.12550000 0.12549900 12527.57549184 0 -2.09390119 0 3365.37645546 0 665.34874274 0 1889.77488232 0 17523
0.12650000 0.12650100 12840.41611896 0 -189.27187478 0 3478.25392331 0 281.05786481 0 1511.90558552 0 17154
0.12750000 0.12750600 12681.02997081 0 -63.48632585 0 2896.29126795 0 -234.94023528 0 1740.67029410 0 18007
0.12850000 0.12850300 12572.39254798 0 180.06021221 0 2991.52751223 0 -130.34403671 0 854.94356395 0 17496
0.12950000 0.12949900 12437.06261377 0 494.42439954 0 3678.78828035 0 -779.49273180 0 787.39503332 0 18405
0.13050000 0.13049000 12427.06665273 0 203.28379556 0 3709.02880867 0 -134.45775914 0 -155.84691887 0 18100
0.13150000 0.13148800 12107.96481924 0 -101.24502517 0 3579.22411448 0 364.08365821 0 173.83305801 0 19059
0.13250000 0.13249300 12207.92442973 0 -76.51985075 0 3445.84943419 0 311.80588038 0 86.30095356 0 18957
0.13350000 0.13349100 12121.80538069 0 148.62895623 0 3074.42808150 0 -234.68539320 0 -547.38871316 0 19468
0.13450000 0.13450700 11843.12677430 0 258.29453505 0 3212.44923599 0 57.74754575 0 -367.90299410 0 19953
0.13550000 0.13551000 11711.64144050 0 22.86284999 0 3073.46143911 0 60.83190388 0 -341.50267235 0 19956
0.13650000 0.13649900 11679.23695139 0 97.20731598 0 3551.57594529 0 -103.08955460 0 6.42599693 0 19723
0.13750000 0.13749600 11592.78836517 0 1.51282829 0 3478.41869190 0 18.11696540 0 -305.39638228 0 20946
0.13850000 0.13851100 11715.48604091 0 -38.29628431 0 3328.89668992 0 303.58392780 0 -513.13991431 0 20955
0.13950000 0.13949800 11558.18696154 0 -7.20392436 0 3153.19845148 0 187.24741805 0 -226.16575871 0 20506
0.14050000 0.14048300 11646.17338792 0 237.38210577 0 3648.89925836 0 -362.54032576 0 -191.92684597 0 21447
0.14150000 0.14148400 11424.06533032 0 348.87222210 0 3711.57722951 0 -312.36060129 0 -54.16910154 0 21771
0.14250000 0.14249400 11198.66190095 0 82.38001038 0 4032.73317807 0 270.16666110 0 45.40000740 0 22470
0.14350000 0.14350900 11174.27614982 0 20.00927772 0 3711.20375404 0 371.04348340 0 14.38847193 0 22519
0.14450000 0.14449900 10905.00033756 0 132.72988587 0 3935.45380329 0 -55.01919761 0 448.63520874 0 22218
0.14550000 0.14550500 10755.92870306 0 137.00178615 0 3711.91775126 0 103.81805146 0 397.94909548 0 23559
0.14650000 0.14650700 10419.93259694 0 127.86701559 0 3534.64871894 0 561.73126958 0 1171.10922119 0 23044
0.14750000 0.14750500 10532.99680252 0 146.84066781 0 3320.15297015 0 126.23360965 0 279.65952872 0 23649
0.14850000 0.14849900 10153.97412560 0 235.94312676 0 3324.22824657 0 -111.12103469 0 864.30461670 0 23640
0.14950000 0.14949500 10032.02340081 0 70.06300914 0 3350.72303564 0 -89.67277796 0 874.04024338 0 24457
0.15050000 0.15050000 9855.46836571 0 -62.31009781 0 3090.33374260 0 417.55655753 0 451.84490085 0 24591
0.15150000 0.15149900 10029.60679484 0 25.03889382 0 2882.27495334 0 288.41862690 0 485.86741750 0 25020
0.15250000 0.15250500 10106.74046351 0 65.77408278 0 2702.09500928 0 146.71654214 0 466.44889009 0 25297
0.15350000 0.15350100 9899.80210065 0 52.07060879 0 2565.61169496 0 -129.98484118 0 454.87444597 0 25452
0.15450000 0.15450400 9736.70316696 0 97.80553581 0 2618.60127309 0 172.72910847 0 716.05682515 0 26061
0.15550000 0.15549900 9687.98658756 0 35.27849269 0 2569.97257028 0 -78.44039342 0 414.93673697 0 26128
0.15650000 0.15649500 9586.06073858 0 135.00369240 0 2625.14807835 0 -33.20570384 0 161.50067838 0 26331
0.15750000 0.15749700 9561.78483317 0 183.49289114 0 2705.48924221 0 149.75157954 0 505.88789949 0 27345
0.15850000 0.15849900 9344.10355833 0 83.55206427 0 2673.15066053 0 -5.91968503 0 268.56181504 0 26980
0.15950000 0.15949700 9341.57710663 0 121.26748438 0 2856.05477858 0 -97.45468856 0 208.26529923 0 27777
0.16050000 0.16050000 9037.72185989 0 103.97633915 0 2588.72323567 0 -180.05032610 0 93.51606021 0 28224
0.16150000 0.16150500 8976.15333057 0 158.94127297 0 3026.37057646 0 73.91354121 0 7.28048683 0 28075
0.16250000 0.16249700 8908.36753317 0 132.16308193 0 2969.04209216 0 -278.92685773 0 -209.95802186 0 28590
0.16350000 0.16349900 8798.60968394 0 132.36739498 0 2931.49682307 0 141.91079164 0 -333.21481234 0 29163
0.16450000 0.16449100 8314.76123088 0 86.84512929 0 3105.88789737 0 -168.07933890 0 225.06620299 0 28996
0.16550000 0.16550500 8334.31377007 0 107.09540853 0 2999.54625021 0 304.22322993 0 -57.33683258 0 30777
0.16650000 0.16650700 8415.99505178 0 26.98008748 0 3044.34133720 0 358.44308019 0 120.05368911 0 29211
0.16750000 0.16749900 8188.83409080 0 93.33470492 0 2647.36986868 0 46.50637355 0 3.35507293 0 30922
0.16850000 0.16850800 8077.09901851 0 173.45628717 0 2813.77515872 0 -75.80376646 0 358.37827121 0 30867
0.16950000 0.16949900 8015.09110628 0 78.91338912 0 2742.29854493 0 239.83935466 0 360.84540621 0 30852
0.17050000 0.17049200 8046.67175245 0 -36.20668907 0 2729.67727104 0 196.35802255 0 650.51627438 0 31257
0.17150000 0.17149500 8035.61028787 0 -80.04337210 0 2467.80506070 0 303.61138923 0 272.89303201 0 32608
0.17250000 0.17250900 7952.20442826 0 115.29297536 0 2303.25616343 0 -115.66425391 0 592.06956059 0 32361
0.17350000 0.17350400 7912.81375098 0 79.54203620 0 2553.69343371 0 -120.85556291 0 631.84250099 0 32508
0.17450000 0.17449800 7844.37986380 0 67.78360048 0 2141.72802362 0 240.32706968 0 371.16541215 0 32791
0.17550000 0.17549800 7876.53170774 0 81.71906864 0 2608.28675944 0 24.34411960 0 725.90888829 0 33633
0.17650000 0.17650100 7615.16478774 0 112.52046924 0 2470.75991072 0 -186.39721213 0 547.22394457 0 33984
0.17750000 0.17750300 7685.81755859 0 70.34377482 0 2550.81547569 0 4.13381321 0 386.97221210 0 34069
0.17850000 0.17849800 7725.02149813 0 -33.36146508 0 2475.67001467 0 148.35873574 0 250.80745038 0 34536
