### header ###
fiducial parameters:
Omega_m = 0.31
Omega_nu = 0
Omega_de = 0.69
Omega_k = 0
H_0 = 100
w_de = -1
zeff = 0
beta = 0
fgrowth = 0
b_1 = 2
gamma = 0.55
Lx = 3500 Ly = 3500 Lz = 3500
nx = 700 ny = 700 nz = 700
xoffset = -983.599254 yoffset = -42.9823471 zoffset = 800.977702
bins = 400 dk = 0.001
kx_ny = 0.628318531 ky_ny = 0.628318531 kz_ny = 0.628318531
############################
A(data) = 9.00396571 (not used)
A(ran) = 9.00113522 (used)
Ngal = 499907
weighted Ngal = 0
Nran = 25229228
weighted Nran = 0
SN(data) = 6748.13202
SN(ran) = 133.615651
SN(data+ran) = 6881.74767
############################
13 columns: k_central k_mean P_0(k) sigma^{lin}_{P_0(k)} P^img_1(k) sigma^{lin}_{P_1(k)} P_2(k) sigma^{lin}_{P_2(k)} P^img_3(k) sigma^{lin}_{P_3(k)} P_4(k) sigma^{lin}_{P_4(k)} N_modes
### header ###
0.00050000 0 0 0 0 0 0 0 0 0 0 0 0
0.00150000 0.00179520 23360.67081729 0 -8698.69401174 0 -36125.95245980 0 33409.90704333 0 1025.18576519 0 3
0.00250000 0.00253879 69425.13501151 0 -26670.87176468 0 -9357.64753632 0 -29907.80561295 0 70223.49374672 0 6
0.00350000 0.00331552 72644.27385220 0 -9337.73250623 0 -23453.92983851 0 -65816.15368991 0 -59759.58990573 0 7
0.00450000 0.00420575 82663.74188654 0 -4938.15854223 0 -11156.37129652 0 -48589.15835631 0 11544.45624581 0 24
0.00550000 0.00557378 75497.18704302 0 -10002.48588514 0 -10223.10004086 0 2820.57460915 0 -14461.62918624 0 45
0.00650000 0.00659388 72071.53823781 0 6429.90743707 0 -24179.68054896 0 -9743.97495401 0 12918.73612147 0 40
0.00750000 0.00754703 85261.92283921 0 10965.75600851 0 20547.08239631 0 -11479.09803896 0 -12684.21549685 0 57
0.00850000 0.00846663 83404.76115288 0 -6209.74364882 0 3627.23768123 0 -17657.37088733 0 491.13232314 0 75
0.00950000 0.00948925 89793.38856619 0 -11105.95210837 0 4440.45854315 0 6492.90396082 0 -38509.05548132 0 112
0.01050000 0.01054430 99102.37444598 0 15408.49934275 0 22456.97003102 0 -37910.94550426 0 -42050.81121872 0 105
0.01150000 0.01145670 79783.58695572 0 7535.08725362 0 22246.61546609 0 -33141.88347235 0 1644.14885483 0 144
0.01250000 0.01249090 77061.60987006 0 2757.67694655 0 56215.63725381 0 17768.20522468 0 -34205.84917258 0 169
0.01350000 0.01339930 88464.14543812 0 -2201.38523731 0 48689.11796680 0 -8507.76017113 0 -27942.44588670 0 180
0.01450000 0.01448870 90233.97977243 0 -6457.39083767 0 39324.11076685 0 11844.99415164 0 -26095.60969859 0 267
0.01550000 0.01550050 98260.29711189 0 -3537.95507529 0 47839.68096909 0 6705.34559455 0 -29628.57777793 0 238
0.01650000 0.01653350 98093.99068301 0 174.62724261 0 27503.72205780 0 3373.95540665 0 -12903.90694848 0 315
0.01750000 0.01747870 96924.35339455 0 5422.43539363 0 42336.95933446 0 557.03316789 0 3309.61876504 0 297
0.01850000 0.01844180 89602.91607763 0 9516.09999581 0 43417.73143074 0 -4692.84008277 0 -23902.64962845 0 388
0.01950000 0.01947590 83961.89867421 0 4469.69947536 0 46645.32839232 0 13861.87152330 0 825.30389175 0 399
0.02050000 0.02045430 85047.06459952 0 -1023.91814551 0 49316.11736975 0 -3922.48102307 0 -9341.62104492 0 462
0.02150000 0.02154770 81384.91794662 0 5640.00682275 0 46124.54980624 0 3675.28420170 0 -4668.89371455 0 571
0.02250000 0.02255340 70013.13918179 0 1541.06962573 0 38617.36336697 0 13508.93720626 0 11074.64607651 0 510
0.02350000 0.02348930 77191.77705515 0 -4722.46547503 0 35678.66066428 0 12170.46703723 0 -2962.51725604 0 555
0.02450000 0.02439640 79198.43877431 0 -414.44902195 0 32077.03900631 0 3784.95417435 0 -5460.36512275 0 592
0.02550000 0.02547300 72794.98218801 0 3811.20730282 0 29229.50825605 0 -1307.66942752 0 -8630.56769259 0 837
0.02650000 0.02652900 66913.51249078 0 4964.46659357 0 26250.27248054 0 -7906.76125149 0 -374.99243724 0 723
0.02750000 0.02749970 69104.38549213 0 4927.71221371 0 33125.62630493 0 -2024.28097358 0 -6539.10507310 0 826
0.02850000 0.02848090 62485.19190034 0 -130.87788693 0 32010.80203365 0 2792.70674851 0 -12501.65190055 0 831
0.02950000 0.02946900 63151.51607313 0 -1183.81837166 0 27895.54176177 0 8526.78545084 0 -14371.77538253 0 996
0.03050000 0.03053250 58567.87362638 0 762.71489564 0 23991.95420354 0 4612.58679549 0 -456.31232652 0 1041
0.03150000 0.03150510 59973.34968817 0 2997.45918142 0 24487.24858123 0 4591.99072190 0 -1234.44626669 0 1036
0.03250000 0.03246190 55785.15185435 0 2647.44676069 0 28334.48528212 0 1379.11308759 0 8082.14093732 0 1059
0.03350000 0.03345080 52102.24435928 0 3321.37225770 0 21737.37068122 0 1806.14933126 0 6340.39415510 0 1302
0.03450000 0.03451200 52029.63633452 0 628.39883749 0 26137.68061158 0 6090.11066884 0 11954.73003173 0 1339
0.03550000 0.03553350 50631.08055346 0 -2073.44792045 0 19973.02863320 0 5451.30285037 0 15787.02771391 0 1365
0.03650000 0.03647120 52418.38035817 0 -2040.54912557 0 20924.73200165 0 4285.09274855 0 12747.26694347 0 1308
0.03750000 0.03744890 55057.09438366 0 -380.70002115 0 16956.55515664 0 3430.20740284 0 11701.97501663 0 1579
0.03850000 0.03847530 53342.29275799 0 533.40095843 0 12111.26019101 0 2743.86933881 0 13600.10915869 0 1662
0.03950000 0.03950240 52357.30613462 0 2621.23757051 0 10674.07166819 0 -1796.28518508 0 12141.24807416 0 1683
0.04050000 0.04050350 49101.14928433 0 3242.10758196 0 18459.79391440 0 -4616.91471709 0 6129.19377808 0 1822
0.04150000 0.04152450 45013.02090673 0 2359.26649902 0 19579.56124334 0 -2824.84760788 0 3263.18697674 0 1887
0.04250000 0.04250150 42326.96337342 0 -775.46139367 0 18456.05915972 0 2854.45103099 0 732.72042175 0 1920
0.04350000 0.04349210 44228.72242442 0 1105.49836916 0 19119.96672654 0 -937.89026843 0 -3559.82535930 0 2005
0.04450000 0.04448520 40393.12937047 0 2121.37361063 0 16104.70155296 0 139.39532451 0 -2153.14099453 0 2151
0.04550000 0.04548030 41221.91537173 0 374.56843274 0 17081.01036399 0 1908.38274827 0 -2402.12830123 0 2274
0.04650000 0.04648670 40109.39786069 0 -763.64968277 0 14851.91105006 0 3120.56328634 0 -3671.12104869 0 2311
0.04750000 0.04749250 40475.18412765 0 637.66542292 0 12923.45948768 0 1114.37390380 0 -3782.48264552 0 2568
0.04850000 0.04851840 39904.20604487 0 681.57405490 0 11139.34520901 0 437.15633039 0 -3368.08964489 0 2493
0.04950000 0.04949480 38148.54180920 0 1.59181835 0 11174.49584127 0 -1017.87113831 0 -2145.12225655 0 2644
0.05050000 0.05050630 37795.16810926 0 1109.81530618 0 12193.75433110 0 91.15679371 0 -4252.77613602 0 2829
0.05150000 0.05149060 36922.33397194 0 1390.76771910 0 13365.47868835 0 21.21527395 0 -1953.84789419 0 2784
0.05250000 0.05249300 36169.56121294 0 385.25642186 0 12235.27601545 0 441.60947612 0 -1513.83887030 0 3055
0.05350000 0.05348950 35519.93359048 0 186.14017313 0 14352.11299761 0 3159.23996640 0 1257.51386911 0 3009
0.05450000 0.05448610 34850.64358310 0 265.67067554 0 14394.62329350 0 -1421.63436805 0 -1462.58485463 0 3336
0.05550000 0.05550870 35118.44746263 0 -267.29968765 0 13126.34454325 0 1818.33122225 0 1230.33803655 0 3349
0.05650000 0.05647670 35396.79653185 0 -201.05941961 0 14438.23204664 0 -350.27055819 0 680.00326102 0 3324
0.05750000 0.05747970 35008.71158255 0 657.03781512 0 14105.94872606 0 -212.21864690 0 2132.10553804 0 3639
0.05850000 0.05849280 35166.01066191 0 542.01066642 0 14551.48298996 0 -409.72345883 0 -1006.94478396 0 3846
0.05950000 0.05951020 33957.37814079 0 812.80015278 0 16944.14258963 0 516.42649842 0 3190.89750458 0 3787
0.06050000 0.06049470 32516.20221811 0 1382.32058278 0 15021.62269644 0 398.66528961 0 1768.32944786 0 3930
0.06150000 0.06148310 32176.55923390 0 374.70134607 0 17999.32063179 0 614.02662272 0 3775.02412074 0 4083
0.06250000 0.06249100 30974.62730205 0 1035.43876524 0 15775.38406697 0 3722.74853983 0 3983.74198436 0 4303
0.06350000 0.06350600 31721.35854613 0 -80.35884902 0 16188.62368748 0 1318.91762984 0 7127.64748744 0 4470
0.06450000 0.06451750 30772.40132083 0 -428.27420500 0 13913.93839734 0 132.53326202 0 4865.83611636 0 4479
0.06550000 0.06550280 28898.76277563 0 552.20874361 0 11883.55000140 0 771.12358595 0 6654.95936012 0 4636
0.06650000 0.06648880 30008.75383497 0 406.65876308 0 13060.54695349 0 296.54611215 0 3873.55573679 0 4653
0.06750000 0.06749660 29172.27863290 0 234.97099209 0 10620.07150938 0 1524.85639660 0 4548.77741337 0 5220
0.06850000 0.06852730 30079.60432812 0 -177.60516024 0 12053.26164778 0 754.74009595 0 1035.72546258 0 5029
0.06950000 0.06949320 28962.69298805 0 370.10100707 0 10497.28595706 0 -2273.34517229 0 1268.78404058 0 5040
0.07050000 0.07048030 28096.33974856 0 484.07912909 0 11101.77797079 0 988.58187397 0 294.37226524 0 5475
0.07150000 0.07148790 28690.27558803 0 -172.16889527 0 10256.96547813 0 225.37377102 0 346.25349999 0 5509
0.07250000 0.07249820 27870.05755338 0 345.38132493 0 10297.65233497 0 907.47618386 0 -263.24308500 0 5916
0.07350000 0.07351270 27174.73410898 0 710.37011192 0 10205.18420298 0 -482.94991503 0 -394.24070377 0 5721
0.07450000 0.07449140 26449.42278144 0 1088.40637422 0 11210.30554789 0 -263.07502104 0 1215.88233903 0 6028
0.07550000 0.07549160 26954.27373728 0 98.06598002 0 10445.43877448 0 1403.07044039 0 -912.31928191 0 6183
0.07650000 0.07648840 25837.36239721 0 -312.50779457 0 10333.35219586 0 180.32713732 0 -716.54234325 0 6330
0.07750000 0.07749960 25618.87924856 0 389.12848369 0 9300.08837599 0 901.87405185 0 952.89958840 0 6583
0.07850000 0.07848650 24996.71305756 0 745.14507180 0 9986.72302348 0 -443.35822007 0 269.60974327 0 6549
0.07950000 0.07947320 24790.53263020 0 732.38539229 0 9627.01122516 0 -141.49008251 0 -999.65102777 0 6828
0.08050000 0.08048110 23857.94241805 0 287.03127538 0 8851.05003344 0 1019.42106150 0 544.08784910 0 7147
0.08150000 0.08149960 23029.59579969 0 -465.71072682 0 8938.78381465 0 1520.19893782 0 1428.04935844 0 7386
0.08250000 0.08250610 23399.11682133 0 34.84515130 0 7084.41220976 0 1898.56254039 0 1404.68517256 0 7227
0.08350000 0.08350160 23063.09874606 0 397.55474932 0 6699.49081736 0 947.06897728 0 2347.00771602 0 7798
0.08450000 0.08449610 22300.76940892 0 960.99411994 0 6213.81892525 0 -506.14054466 0 1533.02891860 0 7371
0.08550000 0.08548940 21567.54918911 0 439.12037197 0 7752.37308386 0 -652.79667165 0 2645.17295417 0 8256
0.08650000 0.08650700 20981.30255045 0 556.39935805 0 8023.02196769 0 -572.04688169 0 1196.28586154 0 8037
0.08750000 0.08749060 20648.68969268 0 334.34073103 0 8639.59701125 0 -856.58246218 0 2357.14647651 0 8155
0.08850000 0.08849210 20134.94123305 0 380.89444809 0 8313.55292789 0 -210.89830128 0 -316.77200564 0 8718
0.08950000 0.08949900 19912.61348401 0 -170.24659507 0 8673.12192677 0 875.37706587 0 716.02277297 0 8571
0.09050000 0.09049190 19641.73392415 0 187.51104779 0 8607.63190504 0 294.95554604 0 596.32608247 0 8932
0.09150000 0.09150830 20080.56759878 0 370.97208367 0 8579.08300090 0 888.12246543 0 1371.63259366 0 9285
0.09250000 0.09250820 19354.48735115 0 113.61563112 0 7792.14822117 0 502.78585619 0 2324.07192847 0 9204
0.09350000 0.09350330 19350.75259647 0 48.91540016 0 7896.32590753 0 1082.42856982 0 2306.81516494 0 9349
0.09450000 0.09448040 19591.31473600 0 -237.34805359 0 7036.79408762 0 762.15138707 0 3041.60617863 0 9564
0.09550000 0.09549270 19399.74379018 0 319.95313786 0 6777.68998957 0 -282.19147270 0 1968.94069692 0 10155
0.09650000 0.09649430 18851.50377265 0 425.58957546 0 7403.31632094 0 -962.77801452 0 1578.32929592 0 9913
0.09750000 0.09749140 18170.57011833 0 419.33935366 0 7746.58421411 0 -581.62762590 0 1432.26743431 0 10476
0.09850000 0.09850240 18045.67552808 0 46.24592933 0 8158.82423851 0 220.32086764 0 631.45584404 0 10575
0.09950000 0.09950330 18163.75968333 0 260.49913877 0 7452.71394384 0 460.02950588 0 76.92265503 0 10882
0.10050000 0.10051200 17715.47927629 0 141.51754394 0 7223.97120440 0 667.16009876 0 263.63633270 0 10875
0.10150000 0.10150300 17335.96229360 0 222.73967052 0 7285.55071829 0 578.70463113 0 -243.85092056 0 11118
0.10250000 0.10250800 17004.00851019 0 420.85083085 0 6565.02866439 0 511.64601244 0 144.09562312 0 11575
0.10350000 0.10349800 16602.63222807 0 328.37940349 0 6441.75979089 0 -813.94694216 0 345.27038075 0 11364
0.10450000 0.10450100 15499.89098663 0 330.74218505 0 6629.77173519 0 707.68877775 0 789.59744012 0 12093
0.10550000 0.10551000 15936.85728392 0 105.13048819 0 6360.64970694 0 493.03375266 0 738.85860091 0 12067
0.10650000 0.10649700 15455.07393050 0 40.40620101 0 5536.96054736 0 418.15411828 0 -55.70617278 0 12054
0.10750000 0.10749900 15611.38439833 0 199.81596600 0 5846.56072557 0 -7.41944167 0 572.08532769 0 12807
0.10850000 0.10850100 15022.72115370 0 194.72241969 0 5495.75741561 0 87.72356555 0 835.84908143 0 12736
0.10950000 0.10950300 15038.09955531 0 75.94700529 0 5183.97130746 0 500.61420619 0 352.87170497 0 12933
0.11050000 0.11050200 14803.79862215 0 154.97364535 0 5619.55354860 0 301.91317431 0 607.88844357 0 13428
0.11150000 0.11150900 14679.89264343 0 16.38722476 0 4935.07187734 0 179.76802258 0 909.59400946 0 13453
0.11250000 0.11250000 14629.36360956 0 284.26536000 0 5271.37555149 0 277.56147536 0 1270.22301959 0 13668
0.11350000 0.11349100 14041.90866791 0 83.14574493 0 4472.06115846 0 94.07363712 0 1357.31969559 0 13791
0.11450000 0.11448600 14274.56191518 0 64.38134882 0 4827.66472664 0 327.00083963 0 1464.81472287 0 14205
0.11550000 0.11549300 14038.39360468 0 75.46148718 0 5028.50665171 0 -84.80122987 0 1196.43964556 0 14776
0.11650000 0.11649800 13839.35314951 0 99.61755090 0 4279.62243141 0 477.84648260 0 1282.18521913 0 14553
0.11750000 0.11747300 14132.42154598 0 45.81786054 0 4438.77790354 0 179.77351487 0 1463.05719125 0 14568
0.11850000 0.11849100 13887.90496032 0 120.10092278 0 4543.71352541 0 -332.55463953 0 395.39957618 0 16015
0.11950000 0.11950300 13517.39532715 0 337.59436143 0 4736.69049652 0 -76.03905601 0 947.28647181 0 15270
0.12050000 0.12050700 13284.30269697 0 -20.29751291 0 4928.67885610 0 -127.64952105 0 694.23157788 0 15999
0.12150000 0.12150000 13131.28760092 0 11.36321080 0 4630.89807799 0 23.92967168 0 597.31689091 0 15670
0.12250000 0.12250700 13235.42134899 0 408.01316088 0 4777.57507567 0 100.65416501 0 91.98733725 0 16887
0.12350000 0.12352200 13153.80597471 0 112.82144653 0 4864.37516820 0 93.39896467 0 424.50649661 0 16407
0.12450000 0.12449800 13260.90555737 0 -130.65490011 0 4757.64906100 0 221.76533893 0 60.07089269 0 16306
0.12550000 0.12549900 13151.27952301 0 -90.88514524 0 4633.60028284 0 225.30786359 0 193.43942161 0 17523
0.12650000 0.12650100 12883.25595203 0 128.64472333 0 4473.26946145 0 33.06026810 0 200.06092197 0 17154
0.12750000 0.12750600 13054.50543857 0 38.91790127 0 4478.80568603 0 -180.08877210 0 169.34036783 0 18007
0.12850000 0.12850300 12621.27389596 0 370.96988676 0 4570.21929905 0 -5.55482146 0 -103.62889712 0 17496
0.12950000 0.12949900 12390.59787176 0 284.08301610 0 4754.97980987 0 -244.31227261 0 255.16832569 0 18405
0.13050000 0.13049000 12238.68123296 0 -5.02190492 0 4444.59972701 0 661.40198581 0 369.83188504 0 18100
0.13150000 0.13148800 12153.77048690 0 -114.98321041 0 4093.30211128 0 707.40757270 0 -273.27309822 0 19059
0.13250000 0.13249300 12277.34692844 0 123.46659581 0 3853.03655521 0 226.14269110 0 785.03115330 0 18957
0.13350000 0.13349100 12163.43691077 0 19.22179371 0 3276.50027871 0 71.26647891 0 478.32540997 0 19468
0.13450000 0.13450700 12036.01586883 0 -165.86704598 0 2832.54779326 0 303.93763104 0 607.95215409 0 19953
0.13550000 0.13551000 12069.62866093 0 157.70660701 0 3184.58137535 0 31.68510946 0 -237.91046371 0 19956
0.13650000 0.13649900 12075.01110149 0 344.21805870 0 3090.99281695 0 -289.89495345 0 -211.33878264 0 19723
0.13750000 0.13749600 11638.37434138 0 155.76782995 0 3689.12476315 0 -101.68583607 0 553.90036779 0 20946
0.13850000 0.13851100 11376.28243959 0 -6.49474937 0 3158.32824688 0 429.24743813 0 263.54076691 0 20955
0.13950000 0.13949800 11639.36295292 0 233.72644001 0 3870.62285592 0 211.13007576 0 243.84652673 0 20506
0.14050000 0.14048300 11107.70963998 0 254.15444964 0 3331.30231132 0 -272.93477339 0 501.26119752 0 21447
0.14150000 0.14148400 10875.25411501 0 332.95337951 0 3997.51663838 0 -259.08103045 0 684.57394167 0 21771
0.14250000 0.14249400 10745.37252881 0 54.91352602 0 3855.16756229 0 -129.93541061 0 762.11953181 0 22470
0.14350000 0.14350900 10732.72928577 0 -76.57927729 0 4031.50290594 0 185.49098489 0 66.76456169 0 22519
0.14450000 0.14449900 10394.23968168 0 152.49442732 0 3732.99714604 0 202.27980563 0 418.07393090 0 22218
0.14550000 0.14550500 10581.48270590 0 -25.30570908 0 3350.96469624 0 162.86606075 0 138.57148157 0 23559
0.14650000 0.14650700 10489.80546313 0 94.45787747 0 3136.67765432 0 9.34917843 0 -294.75013453 0 23044
0.14750000 0.14750500 10303.77074190 0 216.91455168 0 3401.24108494 0 225.99000555 0 -346.05797460 0 23649
0.14850000 0.14849900 10086.79247970 0 14.67901388 0 3139.33592088 0 -208.85736769 0 -17.69438890 0 23640
0.14950000 0.14949500 10194.88067390 0 -38.22587320 0 3078.81092596 0 325.86942866 0 -513.48702680 0 24457
0.15050000 0.15050000 10096.38201156 0 154.25745122 0 2698.49206948 0 69.93394041 0 -658.37024378 0 24591
0.15150000 0.15149900 9880.75485179 0 21.44133645 0 2665.52736716 0 404.39374421 0 -81.18972209 0 25020
0.15250000 0.15250500 10098.30431176 0 -60.19381006 0 2364.03380352 0 442.18836309 0 8.39499255 0 25297
0.15350000 0.15350100 9852.85403743 0 144.56466437 0 2333.22207743 0 96.86745331 0 131.11405525 0 25452
0.15450000 0.15450400 9677.74896591 0 290.32994253 0 2550.78252198 0 -323.19907906 0 99.84844662 0 26061
0.15550000 0.15549900 9403.27745082 0 181.84410680 0 2411.91555540 0 14.53786212 0 636.92506273 0 26128
0.15650000 0.15649500 9156.06964488 0 89.54480769 0 2724.06415445 0 261.90516406 0 649.12782441 0 26331
0.15750000 0.15749700 9415.01995891 0 -51.00894985 0 2617.77743015 0 422.30628672 0 947.21397363 0 27345
0.15850000 0.15849900 9228.02957986 0 24.40486429 0 2276.60759035 0 155.38446836 0 808.03504520 0 26980
0.15950000 0.15949700 9208.67476297 0 104.32136457 0 2453.18459459 0 56.49233864 0 1486.08085538 0 27777
0.16050000 0.16050000 9035.83251340 0 14.82939268 0 2122.26336101 0 -136.41301306 0 1129.93904315 0 28224
0.16150000 0.16150500 8927.16213686 0 204.09555548 0 2643.61314486 0 176.50670298 0 1126.74253253 0 28075
0.16250000 0.16249700 8826.58739030 0 299.76459192 0 2425.96482373 0 -20.63616728 0 1262.94024797 0 28590
0.16350000 0.16349900 8648.28580816 0 95.03665460 0 2810.90818528 0 -259.90047956 0 1135.65102089 0 29163
0.16450000 0.16449100 8540.98850319 0 75.38086042 0 2809.66692857 0 -320.81103298 0 982.09109004 0 28996
0.16550000 0.16550500 8209.03471978 0 9.99849849 0 2753.77742328 0 0.14853449 0 587.79656186 0 30777
0.16650000 0.16650700 8349.81300198 0 59.98697056 0 2676.88541521 0 336.49480571 0 758.08819367 0 29211
0.16750000 0.16749900 8286.53087934 0 20.56850231 0 2439.82735433 0 196.38218861 0 683.31730657 0 30922
0.16850000 0.16850800 8357.62303309 0 -24.26525037 0 2377.90731869 0 258.86243745 0 614.58244210 0 30867
0.16950000 0.16949900 8347.07784341 0 21.48121045 0 2000.42248193 0 180.55232106 0 555.98963349 0 30852
0.17050000 0.17049200 8251.78667627 0 65.13005729 0 2111.68521761 0 245.79079608 0 961.21930367 0 31257
0.17150000 0.17149500 8129.58330630 0 103.69733100 0 1880.40504191 0 -140.52124320 0 698.75172950 0 32608
0.17250000 0.17250900 8004.38114802 0 258.56255862 0 2057.66308965 0 -32.45842337 0 798.93432682 0 32361
0.17350000 0.17350400 7972.82247099 0 51.26357224 0 1885.02954697 0 -29.06869411 0 734.69764482 0 32508
0.17450000 0.17449800 7908.40893737 0 -36.32554214 0 2422.95505085 0 -32.70239072 0 562.03334533 0 32791
0.17550000 0.17549800 7570.40265447 0 62.97411523 0 2074.06305652 0 111.53625153 0 859.88332624 0 33633
0.17650000 0.17650100 7812.23900442 0 94.82520157 0 2060.12363391 0 -213.76857009 0 419.98964036 0 33984
0.17750000 0.17750300 7720.49585422 0 -25.69082820 0 1993.91961497 0 221.10296920 0 593.74470791 0 34069
0.17850000 0.17849800 7759.12859599 0 -20.95680695 0 1951.96953228 0 219.57171979 0 253.39102185 0 34536
