### header ###
fiducial parameters:
Omega_m = 0.31
Omega_nu = 0
Omega_de = 0.69
Omega_k = 0
H_0 = 100
w_de = -1
zeff = 0
beta = 0
fgrowth = 0
b_1 = 2
gamma = 0.55
Lx = 3500 Ly = 3500 Lz = 3500
nx = 700 ny = 700 nz = 700
xoffset = -983.599254 yoffset = -42.9823471 zoffset = 800.977702
bins = 400 dk = 0.001
kx_ny = 0.628318531 ky_ny = 0.628318531 kz_ny = 0.628318531
############################
A(data) = 9.10643896 (not used)
A(ran) = 9.11080805 (used)
Ngal = 506159
weighted Ngal = 0
Nran = 25229228
weighted Nran = 0
SN(data) = 6709.04562
SN(ran) = 135.243669
SN(data+ran) = 6844.28929
############################
13 columns: k_central k_mean P_0(k) sigma^{lin}_{P_0(k)} P^img_1(k) sigma^{lin}_{P_1(k)} P_2(k) sigma^{lin}_{P_2(k)} P^img_3(k) sigma^{lin}_{P_3(k)} P_4(k) sigma^{lin}_{P_4(k)} N_modes
### header ###
0.00050000 0 0 0 0 0 0 0 0 0 0 0 0
0.00150000 0.00179520 536.53485699 0 -9725.99320869 0 -3725.03333092 0 543.24423392 0 -512.67087306 0 3
0.00250000 0.00253879 6033.18861372 0 -10151.30487447 0 5318.99367363 0 1047.81837853 0 21773.29023356 0 6
0.00350000 0.00331552 8364.52134467 0 1388.19732911 0 9206.01649641 0 -14230.40393340 0 2162.63166524 0 7
0.00450000 0.00420575 12033.37957141 0 1095.70672116 0 19459.71955648 0 1078.90691585 0 15093.68149257 0 24
0.00550000 0.00557378 28154.44813752 0 -7844.94007700 0 15469.46372058 0 14779.30302529 0 -146.61768099 0 45
0.00650000 0.00659388 40140.04481820 0 -5167.30771085 0 16074.82351554 0 11707.35745720 0 8076.49486701 0 40
0.00750000 0.00754703 39613.00502574 0 -591.93884418 0 27229.21758899 0 298.13667826 0 18558.32553045 0 57
0.00850000 0.00846663 40556.36011903 0 -639.68548582 0 20133.07385571 0 7646.95414079 0 14796.21926707 0 75
0.00950000 0.00948925 44804.53371914 0 -6276.69461871 0 12206.82597247 0 29280.58651855 0 22810.34373097 0 112
0.01050000 0.01054430 70544.90234045 0 -7854.52960886 0 8236.90258042 0 13066.58846841 0 2705.61007251 0 105
0.01150000 0.01145670 76268.30403823 0 -6612.31724936 0 -4834.11267074 0 -1360.57112907 0 12187.27343327 0 144
0.01250000 0.01249090 75942.61146120 0 -4429.50692428 0 4273.50402448 0 -11311.25376991 0 11787.32514559 0 169
0.01350000 0.01339930 65509.13488626 0 1278.25274215 0 -11100.24013062 0 -21313.36617958 0 5036.67917372 0 180
0.01450000 0.01448870 79236.55524116 0 7174.95804154 0 9738.72432831 0 -6856.66906643 0 -31545.60538483 0 267
0.01550000 0.01550050 72685.24630793 0 -2759.10494098 0 10890.07230343 0 -1294.87240046 0 -4895.23083259 0 238
0.01650000 0.01653350 75752.13897264 0 -2747.58212434 0 13610.87403982 0 4111.44862519 0 -20925.17138456 0 315
0.01750000 0.01747870 79971.20345540 0 111.45826107 0 2361.32061409 0 -4333.60062107 0 -45983.28820284 0 297
0.01850000 0.01844180 77980.57921221 0 5756.79479843 0 15838.32566786 0 -20926.15999609 0 -35287.82957184 0 388
0.01950000 0.01947590 69386.02993312 0 3805.27563363 0 22604.82237797 0 -6695.26175692 0 -30543.59267396 0 399
0.02050000 0.02045430 73089.14904174 0 -893.36100810 0 32339.24075383 0 -2980.85050768 0 -38663.05918891 0 462
0.02150000 0.02154770 67200.53937234 0 1156.08232590 0 19738.39816287 0 5069.94045949 0 -22345.47661932 0 571
0.02250000 0.02255340 73176.69608521 0 -2935.00090173 0 22038.23812422 0 15337.42915815 0 -25342.61724814 0 510
0.02350000 0.02348930 72660.86055679 0 -2756.95196476 0 19653.59726254 0 2205.95481950 0 -17748.43299403 0 555
0.02450000 0.02439640 71802.19651811 0 7037.47513112 0 19045.60117016 0 -6454.12841961 0 -21563.81443443 0 592
0.02550000 0.02547300 63595.40265114 0 6565.50100101 0 28248.14654163 0 -5168.15352294 0 -2752.03087624 0 837
0.02650000 0.02652900 55289.52793948 0 754.76755738 0 25511.34028299 0 5674.77299497 0 -2578.55152146 0 723
0.02750000 0.02749970 61699.35557787 0 -634.12729209 0 30725.82673308 0 8238.15482169 0 -2167.87130636 0 826
0.02850000 0.02848090 60710.41450837 0 -2843.35661268 0 23276.19945414 0 11581.25456396 0 7051.73310633 0 831
0.02950000 0.02946900 65550.54672489 0 -4406.58212130 0 7505.04444761 0 10261.28241515 0 5622.47544491 0 996
0.03050000 0.03053250 64606.20302007 0 -148.97167489 0 15499.23191228 0 -178.24226545 0 8375.36311781 0 1041
0.03150000 0.03150510 62708.17872374 0 7747.11147359 0 13275.51503891 0 -6237.69938604 0 10038.41642205 0 1036
0.03250000 0.03246190 58836.99565463 0 3773.68400288 0 20710.42299059 0 -3520.76421920 0 6002.98103912 0 1059
0.03350000 0.03345080 54551.47450774 0 1381.38689411 0 23264.55580720 0 214.32109409 0 14619.25780278 0 1302
0.03450000 0.03451200 53448.07419194 0 -258.46699284 0 26910.33544695 0 8525.15973410 0 9317.16938636 0 1339
0.03550000 0.03553350 54754.79894622 0 -312.89225461 0 19668.20674407 0 3020.52678385 0 19496.62772035 0 1365
0.03650000 0.03647120 52992.54396700 0 -971.05049614 0 18403.55290278 0 4293.99025235 0 9111.74689451 0 1308
0.03750000 0.03744890 56302.63506866 0 1943.13793592 0 21834.91368574 0 -1281.19660760 0 17197.11729617 0 1579
0.03850000 0.03847530 51023.22979461 0 3283.88191148 0 25606.68637300 0 -5569.29912904 0 8524.52262889 0 1662
0.03950000 0.03950240 47907.12624474 0 3910.10140977 0 27050.71828454 0 -5156.09246225 0 9399.46580414 0 1683
0.04050000 0.04050350 45877.83630606 0 1441.39561412 0 32260.92075132 0 2555.12142815 0 7135.96280888 0 1822
0.04150000 0.04152450 45329.04705990 0 -428.48730571 0 30899.49282559 0 3947.49289484 0 8638.35575455 0 1887
0.04250000 0.04250150 43864.14446045 0 -1439.55020593 0 27756.69676434 0 4753.39803141 0 8259.83836797 0 1920
0.04350000 0.04349210 43628.41553285 0 1757.24601413 0 25359.09410701 0 2847.10235193 0 3176.28802305 0 2005
0.04450000 0.04448520 42955.72030797 0 2914.92110305 0 26368.57632724 0 1308.76788478 0 6830.59169112 0 2151
0.04550000 0.04548030 41796.51836346 0 1503.43648006 0 26049.25480230 0 -281.85314786 0 8803.22320442 0 2274
0.04650000 0.04648670 38357.46837970 0 -1353.09063514 0 20513.57944993 0 1534.89629594 0 4812.73669250 0 2311
0.04750000 0.04749250 39328.61444161 0 -309.93630613 0 21242.29599498 0 5416.81129247 0 -303.86183749 0 2568
0.04850000 0.04851840 37378.52327125 0 1284.60182510 0 16465.87429943 0 828.40923042 0 4309.61031456 0 2493
0.04950000 0.04949480 37881.50684975 0 312.57040663 0 16586.15536920 0 489.37369307 0 1599.97988848 0 2644
0.05050000 0.05050630 37749.91167022 0 301.74291344 0 16339.11233184 0 -1319.88427223 0 -2575.09138110 0 2829
0.05150000 0.05149060 36599.71707523 0 1788.88158316 0 15052.70903684 0 1214.52025203 0 -2156.54621203 0 2784
0.05250000 0.05249300 34720.14686084 0 -673.75743305 0 15435.74108276 0 -239.24838465 0 -527.25728699 0 3055
0.05350000 0.05348950 34929.18327706 0 203.16516218 0 14208.10525106 0 4598.51555802 0 1288.50134836 0 3009
0.05450000 0.05448610 36247.88121545 0 -400.55683301 0 12250.54457134 0 2732.40144504 0 -2155.89812225 0 3336
0.05550000 0.05550870 35177.43461740 0 1011.58906125 0 12674.10969008 0 -1052.76912540 0 -141.28796637 0 3349
0.05650000 0.05647670 33794.03754650 0 1372.01705370 0 13015.83974309 0 -754.93781826 0 3157.76803368 0 3324
0.05750000 0.05747970 32524.33080182 0 178.17525956 0 13083.72440164 0 435.96560272 0 1283.28367639 0 3639
0.05850000 0.05849280 32423.71211698 0 193.42404321 0 13563.31084054 0 845.79561190 0 1729.23535405 0 3846
0.05950000 0.05951020 32150.30610543 0 698.73854801 0 12902.03957114 0 -302.38331402 0 106.07285467 0 3787
0.06050000 0.06049470 32065.28551365 0 774.95500487 0 13803.43359717 0 187.77357908 0 -1182.75286812 0 3930
0.06150000 0.06148310 30823.69927478 0 83.06863323 0 13732.91264120 0 -1312.97497608 0 -2524.02410317 0 4083
0.06250000 0.06249100 30903.77680890 0 506.26027650 0 12693.77207500 0 -32.77873350 0 -2421.96643932 0 4303
0.06350000 0.06350600 30424.62975290 0 -315.64608695 0 14100.45643977 0 193.64483312 0 -2632.92515574 0 4470
0.06450000 0.06451750 30934.86314930 0 324.70726088 0 12528.78379483 0 2067.69200442 0 -2742.95761929 0 4479
0.06550000 0.06550280 31075.68536980 0 -578.75845554 0 11827.96806414 0 1589.31386850 0 -4707.69122490 0 4636
0.06650000 0.06648880 30420.78515250 0 83.12619239 0 10510.82993506 0 715.47574126 0 -1194.17682361 0 4653
0.06750000 0.06749660 30893.45131067 0 572.06885084 0 11019.72321360 0 -65.71740238 0 -2211.76565840 0 5220
0.06850000 0.06852730 29177.55122774 0 280.99195737 0 9648.36523426 0 -197.61685457 0 -676.76940285 0 5029
0.06950000 0.06949320 29534.65968236 0 552.58661291 0 10544.25598942 0 1222.89049634 0 -1433.71739789 0 5040
0.07050000 0.07048030 29625.61194333 0 421.29790296 0 9632.88797149 0 747.38921998 0 -1573.33131540 0 5475
0.07150000 0.07148790 28071.95399743 0 459.71205173 0 9927.26353210 0 782.23887495 0 649.30577448 0 5509
0.07250000 0.07249820 27628.94618522 0 686.23920287 0 10341.87622418 0 -1242.48697382 0 -551.32448552 0 5916
0.07350000 0.07351270 26162.94512852 0 717.15747932 0 9541.38648189 0 444.86090960 0 63.56618369 0 5721
0.07450000 0.07449140 26714.26082638 0 316.72037815 0 10195.06741163 0 1311.70076566 0 -69.82870821 0 6028
0.07550000 0.07549160 25572.30466082 0 -407.09924444 0 8307.35762896 0 629.95315451 0 -105.72057943 0 6183
0.07650000 0.07648840 26188.64902836 0 349.14244258 0 8900.53553292 0 444.29520411 0 -1107.43165393 0 6330
0.07750000 0.07749960 25208.82515410 0 614.81970886 0 7848.91649227 0 -573.21124638 0 -314.97492957 0 6583
0.07850000 0.07848650 24961.89196247 0 -7.73945523 0 8362.73085934 0 1123.32633046 0 -353.30120176 0 6549
0.07950000 0.07947320 24429.79926663 0 469.30048514 0 7078.43660227 0 232.93005850 0 -2421.94447017 0 6828
0.08050000 0.08048110 23962.18601185 0 913.49023735 0 8703.68100769 0 -757.59059253 0 -1331.89041006 0 7147
0.08150000 0.08149960 22658.42709217 0 865.49424591 0 8795.42415789 0 -1123.52405276 0 -1910.68950852 0 7386
0.08250000 0.08250610 21950.91077220 0 116.64188087 0 9516.53937871 0 444.26444731 0 95.20691547 0 7227
0.08350000 0.08350160 21784.60434332 0 13.80804712 0 9033.07538569 0 600.50351542 0 -2009.80330692 0 7798
0.08450000 0.08449610 21713.42431299 0 12.04337553 0 8553.12645589 0 1040.48178251 0 -978.63863887 0 7371
0.08550000 0.08548940 21669.37617694 0 591.02822311 0 9074.04784142 0 -328.45959087 0 -87.63689728 0 8256
0.08650000 0.08650700 21285.79490240 0 244.98452845 0 9279.30556467 0 482.19966872 0 294.92149386 0 8037
0.08750000 0.08749060 21026.77868093 0 82.57399793 0 9031.18603920 0 668.51669347 0 386.10552932 0 8155
0.08850000 0.08849210 20798.95864560 0 -190.10340692 0 8007.17122945 0 1239.01584889 0 494.33542451 0 8718
0.08950000 0.08949900 20639.02326881 0 -90.75376975 0 7981.90671252 0 209.18800332 0 1451.81997350 0 8571
0.09050000 0.09049190 20773.14490003 0 892.28012615 0 7887.14280486 0 -176.19364266 0 1303.53922823 0 8932
0.09150000 0.09150830 20123.95666047 0 228.35388556 0 7161.98526133 0 432.24073416 0 1163.45297410 0 9285
0.09250000 0.09250820 19717.30778351 0 -63.70162347 0 7436.80828274 0 505.49904562 0 947.11291557 0 9204
0.09350000 0.09350330 19397.98625857 0 445.26953570 0 7036.75014933 0 471.79727848 0 92.09410729 0 9349
0.09450000 0.09448040 19499.26401777 0 155.54374467 0 6928.81573914 0 -231.08025648 0 1105.66313775 0 9564
0.09550000 0.09549270 18648.39902562 0 184.48260113 0 6827.97736285 0 602.80258646 0 175.42252567 0 10155
0.09650000 0.09649430 18613.24839336 0 -46.99661502 0 5570.86992292 0 -298.24981936 0 -258.84705905 0 9913
0.09750000 0.09749140 18266.68512842 0 394.12316885 0 6185.35789769 0 796.11129166 0 -654.23784757 0 10476
0.09850000 0.09850240 17918.36433186 0 322.83988354 0 5076.17969672 0 489.77023614 0 125.59101215 0 10575
0.09950000 0.09950330 17486.01155506 0 -24.35631248 0 5750.91805210 0 108.97431967 0 140.46522188 0 10882
0.10050000 0.10051200 17342.55303715 0 429.69890407 0 5532.05044342 0 23.65121276 0 -1043.28065160 0 10875
0.10150000 0.10150300 16812.54741010 0 818.16831341 0 5641.91813837 0 -1054.97263066 0 -286.54136344 0 11118
0.10250000 0.10250800 16220.14941079 0 166.86993745 0 6626.47636341 0 -396.59689459 0 -719.64328809 0 11575
0.10350000 0.10349800 15964.75809827 0 22.39029368 0 6640.25101743 0 371.66740712 0 -78.49070276 0 11364
0.10450000 0.10450100 15896.54390254 0 172.57422600 0 6807.02978293 0 -47.30429290 0 -1409.39755419 0 12093
0.10550000 0.10551000 15729.24886213 0 16.32812776 0 6385.01348893 0 238.41575405 0 -396.21243455 0 12067
0.10650000 0.10649700 15821.07988891 0 -85.83443876 0 5918.74035200 0 1497.13133540 0 137.48730426 0 12054
0.10750000 0.10749900 16045.60455247 0 -330.69714830 0 5132.25593975 0 885.35105777 0 268.49371069 0 12807
0.10850000 0.10850100 16121.06856611 0 144.63276872 0 5322.13526139 0 1276.06681220 0 910.15092729 0 12736
0.10950000 0.10950300 16110.30368498 0 282.40677032 0 4118.14921446 0 -450.93977207 0 1401.92804484 0 12933
0.11050000 0.11050200 15471.11140647 0 294.74024842 0 4798.83022361 0 -793.93305092 0 2084.42150846 0 13428
0.11150000 0.11150900 14842.46431764 0 492.68883708 0 4714.18310730 0 -102.19332332 0 429.91310323 0 13453
0.11250000 0.11250000 14599.81510931 0 334.08039666 0 5293.92687900 0 220.03856412 0 976.29453109 0 13668
0.11350000 0.11349100 14482.82941132 0 155.32625013 0 5073.73013703 0 454.55699182 0 509.02509342 0 13791
0.11450000 0.11448600 14379.90396624 0 -38.32539343 0 4845.29496563 0 256.60730470 0 1337.69026438 0 14205
0.11550000 0.11549300 13972.48616919 0 -124.82428899 0 4431.14362560 0 286.78192558 0 494.45076252 0 14776
0.11650000 0.11649800 14275.00129808 0 88.90253973 0 4609.56603803 0 24.90345404 0 522.57895753 0 14553
0.11750000 0.11747300 13986.65626782 0 227.38394781 0 4128.50766641 0 -385.11252396 0 659.27756947 0 14568
0.11850000 0.11849100 14137.80398654 0 123.67200732 0 4836.89176761 0 -181.35309640 0 -34.93291803 0 16015
0.11950000 0.11950300 13595.49563820 0 330.04027086 0 5089.50398326 0 -945.73654862 0 -810.33960853 0 15270
0.12050000 0.12050700 13301.87801310 0 305.05586053 0 5278.25189392 0 -26.22445873 0 -849.36340108 0 15999
0.12150000 0.12150000 13463.35123005 0 -85.45667931 0 5374.75136405 0 237.48206538 0 -633.67362924 0 15670
0.12250000 0.12250700 13499.38062812 0 -77.58832013 0 5090.86607026 0 822.92243642 0 -514.75574494 0 16887
0.12350000 0.12352200 13473.78657400 0 -280.65912483 0 4371.22278216 0 786.33062824 0 -365.44025292 0 16407
0.12450000 0.12449800 13711.05334176 0 122.38791079 0 4222.97499061 0 263.23869117 0 -144.65254095 0 16306
0.12550000 0.12549900 13343.07016028 0 317.59694704 0 4293.00164081 0 -352.03028672 0 30.13145151 0 17523
0.12650000 0.12650100 13123.70824583 0 187.86804640 0 3832.16586731 0 108.26186029 0 86.58193893 0 17154
0.12750000 0.12750600 13006.17331921 0 63.13240292 0 4286.32302068 0 188.95112526 0 320.43865597 0 18007
0.12850000 0.12850300 12603.80842556 0 214.43533365 0 3979.78753823 0 69.40854831 0 206.80435107 0 17496
0.12950000 0.12949900 12769.78531726 0 218.68965861 0 4563.29901832 0 309.58370135 0 94.51972061 0 18405
0.13050000 0.13049000 12449.69487224 0 8.14374242 0 3428.24116435 0 39.10958206 0 -45.89640023 0 18100
0.13150000 0.13148800 12267.35096739 0 92.79250642 0 4113.89818487 0 98.40990699 0 167.96509934 0 19059
0.13250000 0.13249300 12223.96190570 0 172.59729360 0 3978.17280606 0 -365.79066079 0 -28.17586805 0 18957
0.13350000 0.13349100 12015.58456383 0 102.33381601 0 4030.52527898 0 413.77017537 0 147.21304482 0 19468
0.13450000 0.13450700 11984.60806915 0 -92.36180133 0 3815.97460732 0 512.96855498 0 287.90235199 0 19953
0.13550000 0.13551000 11791.60912889 0 189.25979175 0 3446.96986060 0 265.42242420 0 226.73585802 0 19956
0.13650000 0.13649900 11818.19179454 0 364.80095080 0 3872.63303270 0 -230.04441128 0 356.93050454 0 19723
0.13750000 0.13749600 11379.46796564 0 298.42337560 0 3950.92008148 0 -479.60730959 0 367.55148777 0 20946
0.13850000 0.13851100 11022.57920247 0 101.28116442 0 4113.14024937 0 -382.27301195 0 -130.19684343 0 20955
0.13950000 0.13949800 10804.52445216 0 62.20255885 0 4214.65966916 0 258.78334853 0 47.39546485 0 20506
0.14050000 0.14048300 10857.21744684 0 147.89628524 0 3970.53852812 0 296.47031860 0 158.61173579 0 21447
0.14150000 0.14148400 10701.13765503 0 82.41746777 0 3829.17806357 0 352.68936107 0 260.30251492 0 21771
0.14250000 0.14249400 10693.22876277 0 -72.61252844 0 3498.02615396 0 501.99936080 0 -147.97317724 0 22470
0.14350000 0.14350900 10732.99291551 0 40.60919591 0 3400.50511858 0 47.40765773 0 26.65593275 0 22519
0.14450000 0.14449900 10440.42980938 0 135.97033478 0 3500.16814561 0 -204.20649966 0 505.46719036 0 22218
0.14550000 0.14550500 10433.02620746 0 98.26260387 0 3556.52998752 0 -172.30071014 0 204.24933949 0 23559
0.14650000 0.14650700 10478.39249222 0 89.61104466 0 3620.81170627 0 -79.22655928 0 -284.48175608 0 23044
0.14750000 0.14750500 10271.94843513 0 146.55506892 0 3781.61486429 0 -107.12660472 0 -127.80110815 0 23649
0.14850000 0.14849900 9938.19318182 0 191.35345128 0 3841.86524490 0 -7.01046407 0 -340.22956039 0 23640
0.14950000 0.14949500 10050.19188386 0 184.47161656 0 4043.44313634 0 196.87649438 0 -180.54573032 0 24457
0.15050000 0.15050000 9714.81091380 0 178.63002086 0 3810.17475300 0 -15.39103387 0 -78.07559577 0 24591
0.15150000 0.15149900 9578.16283089 0 -40.94620260 0 3519.80856138 0 469.72888347 0 122.79104460 0 25020
0.15250000 0.15250500 9666.24811842 0 13.75652947 0 3687.49904641 0 242.34713258 0 -156.22039434 0 25297
0.15350000 0.15350100 9367.46774421 0 22.34679477 0 3300.08415604 0 -39.44241461 0 662.10719537 0 25452
0.15450000 0.15450400 9615.11493305 0 -81.93030198 0 3039.54107898 0 554.56383597 0 316.42159778 0 26061
0.15550000 0.15549900 9676.92512297 0 -21.89027593 0 2667.81215826 0 241.11356507 0 462.27365406 0 26128
0.15650000 0.15649500 9570.29787692 0 256.76987638 0 2972.54617081 0 74.73969092 0 426.62322374 0 26331
0.15750000 0.15749700 9444.67830488 0 148.84754922 0 2955.94848164 0 -281.48736160 0 718.39873602 0 27345
0.15850000 0.15849900 9234.81804572 0 91.77160024 0 3149.50763510 0 -40.88392007 0 780.01010517 0 26980
0.15950000 0.15949700 8973.51703315 0 -9.73960309 0 2957.88176641 0 516.87906282 0 883.82090681 0 27777
0.16050000 0.16050000 9072.36720181 0 128.50521926 0 2977.43430561 0 90.02252675 0 913.06952822 0 28224
0.16150000 0.16150500 8953.05277443 0 272.62061461 0 2902.62936633 0 -65.45607940 0 807.26063283 0 28075
0.16250000 0.16249700 8768.97330711 0 25.79474226 0 2976.95098441 0 -229.91918716 0 705.88950477 0 28590
0.16350000 0.16349900 8728.83567890 0 -47.80892417 0 2911.76853072 0 109.26321393 0 537.12363008 0 29163
0.16450000 0.16449100 8571.80022928 0 33.87576277 0 2661.74867419 0 254.38512567 0 450.99030110 0 28996
0.16550000 0.16550500 8635.11530564 0 54.70514868 0 2619.44708518 0 -145.78834576 0 281.66311476 0 30777
0.16650000 0.16650700 8435.41577611 0 114.80745725 0 2462.31277441 0 186.66413725 0 285.24298696 0 29211
0.16750000 0.16749900 8574.65621815 0 61.93299744 0 2388.21084777 0 313.16796738 0 358.79019268 0 30922
0.16850000 0.16850800 8596.54847130 0 -108.74111719 0 2297.04987992 0 215.11088486 0 337.37357152 0 30867
0.16950000 0.16949900 8455.94594226 0 192.29153378 0 2343.51462194 0 -3.56987624 0 873.97653286 0 30852
0.17050000 0.17049200 8266.11055891 0 57.27136452 0 2469.34290086 0 -366.11909951 0 876.23605944 0 31257
0.17150000 0.17149500 8247.98601415 0 113.01697192 0 2396.24057033 0 301.73083041 0 736.32446002 0 32608
0.17250000 0.17250900 8343.90330193 0 13.32802130 0 2729.65530189 0 9.67401421 0 694.05912009 0 32361
0.17350000 0.17350400 8172.97236800 0 128.57881589 0 2601.58617017 0 -153.88177883 0 922.62281100 0 32508
0.17450000 0.17449800 8057.06315812 0 256.45352068 0 2847.30007424 0 -383.43737664 0 396.02349990 0 32791
0.17550000 0.17549800 7776.38535952 0 177.61614481 0 3109.77643607 0 -218.57322214 0 498.84239464 0 33633
0.17650000 0.17650100 7690.76061625 0 28.86701736 0 3084.68767229 0 275.49198188 0 458.84866433 0 33984
0.17750000 0.17750300 7641.45086993 0 -116.68362225 0 2899.65254716 0 313.52057216 0 186.70917399 0 34069
0.17850000 0.17849800 7684.21381099 0 109.26639946 0 2554.45136922 0 69.08010959 0 215.43273284 0 34536
