### header ###
fiducial parameters:
Omega_m = 0.31
Omega_nu = 0
Omega_de = 0.69
Omega_k = 0
H_0 = 100
w_de = -1
zeff = 0
beta = 0
fgrowth = 0
b_1 = 2
gamma = 0.55
Lx = 3500 Ly = 3500 Lz = 3500
nx = 700 ny = 700 nz = 700
xoffset = -983.599254 yoffset = -42.9823471 zoffset = 800.977702
bins = 400 dk = 0.001
kx_ny = 0.628318531 ky_ny = 0.628318531 kz_ny = 0.628318531
############################
A(data) = 8.98505202 (not used)
A(ran) = 8.98195882 (used)
Ngal = 498986
weighted Ngal = 0
Nran = 25229228
weighted Nran = 0
SN(data) = 6749.0026
SN(ran) = 133.330991
SN(data+ran) = 6882.33359
############################
13 columns: k_central k_mean P_0(k) sigma^{lin}_{P_0(k)} P^img_1(k) sigma^{lin}_{P_1(k)} P_2(k) sigma^{lin}_{P_2(k)} P^img_3(k) sigma^{lin}_{P_3(k)} P_4(k) sigma^{lin}_{P_4(k)} N_modes
### header ###
0.00050000 0 0 0 0 0 0 0 0 0 0 0 0
0.00150000 0.00179520 62158.84024895 0 -12243.40459917 0 -40077.10321730 0 43558.99303414 0 24025.78668709 0 3
0.00250000 0.00253879 95971.44172312 0 1330.57226135 0 4901.06364063 0 -27195.82448834 0 37413.12467488 0 6
0.00350000 0.00331552 71140.81540299 0 21461.43821798 0 46808.33944943 0 -100677.34246269 0 13843.19774991 0 7
0.00450000 0.00420575 58288.53594564 0 12189.58019352 0 30995.05860705 0 34637.21333785 0 41321.98482795 0 24
0.00550000 0.00557378 59234.30764489 0 -13552.65580514 0 13612.41187998 0 44711.27469792 0 22284.40239577 0 45
0.00650000 0.00659388 69512.24267208 0 -11873.77373180 0 13148.20384269 0 22283.08424706 0 5541.49717584 0 40
0.00750000 0.00754703 70763.27564337 0 3633.83940935 0 -10233.32667793 0 -12316.67169828 0 6030.88185348 0 57
0.00850000 0.00846663 64394.96968933 0 9938.44582699 0 7307.43198688 0 -3618.47199231 0 29570.57923470 0 75
0.00950000 0.00948925 63564.53600218 0 -7278.69634500 0 -15159.03969943 0 15858.86681859 0 6209.90841741 0 112
0.01050000 0.01054430 81984.34607239 0 -14960.10908998 0 -22740.26215790 0 17403.62726070 0 -1239.91658384 0 105
0.01150000 0.01145670 87504.64302314 0 -3184.74614394 0 -26949.87990824 0 -31328.98961352 0 -24254.59533396 0 144
0.01250000 0.01249090 83751.65395500 0 12814.71221912 0 -10608.05438697 0 -28031.75046178 0 -4331.94195061 0 169
0.01350000 0.01339930 74327.33006311 0 4198.09493371 0 -2921.72055348 0 -21328.74458119 0 -3787.85410151 0 180
0.01450000 0.01448870 73962.75209914 0 -1634.98772130 0 18881.49165580 0 -2543.62058065 0 -19541.88415939 0 267
0.01550000 0.01550050 76656.16929608 0 620.37680413 0 30845.55857422 0 4719.47767128 0 -18768.02102103 0 238
0.01650000 0.01653350 73428.79202596 0 5537.02645480 0 32397.67867996 0 -2770.00163698 0 -5789.44094814 0 315
0.01750000 0.01747870 65988.72132516 0 2155.61252336 0 46804.27515757 0 1247.78153781 0 8600.72260889 0 297
0.01850000 0.01844180 75842.98138788 0 1086.72353770 0 39475.91755993 0 19087.78192887 0 18419.26084157 0 388
0.01950000 0.01947590 75713.91266005 0 -5047.54291600 0 38164.68913089 0 8342.10183203 0 20445.58494565 0 399
0.02050000 0.02045430 82207.99197014 0 2272.30163789 0 37229.35277559 0 3171.03739735 0 11398.58112193 0 462
0.02150000 0.02154770 71953.12454538 0 3876.41172567 0 38530.69508930 0 -4528.25823179 0 27423.31498650 0 571
0.02250000 0.02255340 67253.70470363 0 5360.71308029 0 40126.64363965 0 16771.13557147 0 20252.80569685 0 510
0.02350000 0.02348930 66465.34192947 0 1226.16389897 0 38070.11196097 0 -1779.42386617 0 23160.31221341 0 555
0.02450000 0.02439640 63118.45250966 0 -773.93343962 0 39531.93888009 0 12465.95203966 0 18086.64798381 0 592
0.02550000 0.02547300 62985.75887287 0 2620.40274300 0 29095.93585346 0 1835.02777258 0 10600.98032223 0 837
0.02650000 0.02652900 57311.67790598 0 2463.94947572 0 23390.65870044 0 4584.80681144 0 8442.62165572 0 723
0.02750000 0.02749970 60295.96658488 0 -1951.04682818 0 22100.96003366 0 7517.31421519 0 4497.90785775 0 826
0.02850000 0.02848090 55460.00850594 0 192.14763588 0 18897.52913177 0 4387.17238155 0 11830.93389874 0 831
0.02950000 0.02946900 61063.67836259 0 -1534.23722158 0 13344.71784617 0 865.50523049 0 -485.33796111 0 996
0.03050000 0.03053250 57256.53535162 0 365.49078196 0 13885.70804580 0 -97.24795890 0 3271.49131361 0 1041
0.03150000 0.03150510 59604.26804943 0 3841.75539917 0 17269.39578376 0 -5616.85134374 0 -4586.01511442 0 1036
0.03250000 0.03246190 53769.37293995 0 3562.45067215 0 21211.09980885 0 -9821.13059182 0 -7805.15395511 0 1059
0.03350000 0.03345080 53457.63077009 0 1071.61755349 0 25429.17568008 0 2908.46217437 0 -200.86609114 0 1302
0.03450000 0.03451200 53895.36598746 0 -2007.21094779 0 23498.85674036 0 735.57970600 0 -10584.50346336 0 1339
0.03550000 0.03553350 52090.16132944 0 641.54737087 0 25065.36663619 0 2532.47123948 0 -7035.64070750 0 1365
0.03650000 0.03647120 51511.27435440 0 4122.37827491 0 27276.56109681 0 -3410.19351160 0 -10103.07161626 0 1308
0.03750000 0.03744890 47067.13597944 0 3079.18440143 0 24398.93261768 0 2896.23634509 0 -474.14578010 0 1579
0.03850000 0.03847530 49608.30700041 0 -2181.07476261 0 25707.41490357 0 7644.73525713 0 -793.95611852 0 1662
0.03950000 0.03950240 45572.57503403 0 -1319.63162706 0 16392.05797169 0 7586.09960869 0 2923.54399252 0 1683
0.04050000 0.04050350 48364.74353848 0 1876.05515117 0 14250.72539268 0 2930.09079778 0 5843.70473669 0 1822
0.04150000 0.04152450 44898.67150616 0 368.06886114 0 11753.71235349 0 3369.58354676 0 6518.93739784 0 1887
0.04250000 0.04250150 43801.53239674 0 2199.70459770 0 13808.92588346 0 -2407.74141782 0 7031.46656991 0 1920
0.04350000 0.04349210 42259.29840631 0 2086.13510179 0 15277.45339186 0 -2181.32740778 0 4596.90082585 0 2005
0.04450000 0.04448520 39995.48784303 0 1699.25845547 0 16263.97785539 0 879.03273162 0 4623.52742979 0 2151
0.04550000 0.04548030 38507.29794971 0 -1062.72444353 0 14509.63176842 0 73.28720089 0 2800.71450192 0 2274
0.04650000 0.04648670 38937.34396626 0 -16.78629428 0 17093.75246818 0 2617.57970784 0 4911.31224684 0 2311
0.04750000 0.04749250 39157.25510934 0 1198.35096119 0 14122.53543066 0 792.45782282 0 4458.67096448 0 2568
0.04850000 0.04851840 39214.04534959 0 -108.94246441 0 15758.02844229 0 -212.16262558 0 2586.36155257 0 2493
0.04950000 0.04949480 39304.77791911 0 459.03979589 0 14949.45405458 0 119.50116511 0 2784.73194881 0 2644
0.05050000 0.05050630 37673.34919933 0 406.81144864 0 16382.06201064 0 -401.90024623 0 4850.72134449 0 2829
0.05150000 0.05149060 38725.12202399 0 -568.05728493 0 16203.89224337 0 3063.11397174 0 3738.33564832 0 2784
0.05250000 0.05249300 38312.10209493 0 278.83129195 0 15232.85602718 0 76.32300721 0 1034.30955117 0 3055
0.05350000 0.05348950 35688.32708816 0 1944.57691493 0 15151.46034435 0 -842.63095654 0 4944.62845548 0 3009
0.05450000 0.05448610 35479.07098048 0 1844.45253585 0 16514.20641879 0 1148.55789368 0 3691.59629198 0 3336
0.05550000 0.05550870 34803.95914963 0 -98.77756063 0 15977.39035674 0 1043.38500504 0 5616.47786828 0 3349
0.05650000 0.05647670 34532.53036115 0 -833.16884572 0 14169.54940130 0 3418.80541650 0 1406.50861161 0 3324
0.05750000 0.05747970 33967.48394756 0 46.90467415 0 11719.98971566 0 566.08884952 0 2012.80209523 0 3639
0.05850000 0.05849280 33626.08343173 0 1120.20671185 0 11424.50471323 0 -503.29114653 0 3284.93643045 0 3846
0.05950000 0.05951020 32421.07581956 0 417.51811153 0 12736.28237089 0 -801.96497039 0 2488.58787202 0 3787
0.06050000 0.06049470 32789.49838394 0 265.45977174 0 12720.35474065 0 1437.69381316 0 959.09488734 0 3930
0.06150000 0.06148310 32453.37046295 0 -447.51038851 0 10687.92321421 0 2174.00069786 0 -358.61443952 0 4083
0.06250000 0.06249100 31714.87764831 0 555.81278187 0 9316.86181833 0 1037.73454090 0 3636.29995361 0 4303
0.06350000 0.06350600 31761.45223605 0 717.98791301 0 11733.06135704 0 -78.46719578 0 2270.84068974 0 4470
0.06450000 0.06451750 30227.01729216 0 1295.34473708 0 10439.26544469 0 108.02744951 0 4335.17141495 0 4479
0.06550000 0.06550280 30223.17269176 0 413.92176247 0 12130.04381013 0 3.57082092 0 3282.09142615 0 4636
0.06650000 0.06648880 27813.04762169 0 -174.54266140 0 11799.07863825 0 1748.84281610 0 5124.34704749 0 4653
0.06750000 0.06749660 29123.83666782 0 299.27687689 0 12061.82961440 0 610.16334855 0 4434.74656540 0 5220
0.06850000 0.06852730 28566.14991786 0 729.45251141 0 10174.54823005 0 -126.88609326 0 4531.68541843 0 5029
0.06950000 0.06949320 28662.26492795 0 128.49753006 0 12019.75870141 0 -763.17295232 0 4076.59457639 0 5040
0.07050000 0.07048030 28112.92645316 0 -207.77538729 0 10771.38399668 0 494.41121806 0 4406.35144528 0 5475
0.07150000 0.07148790 27787.34372185 0 36.31258035 0 12095.22271504 0 1017.00665244 0 4209.72759607 0 5509
0.07250000 0.07249820 27525.25182006 0 674.98001598 0 10178.06329328 0 518.55530859 0 2824.91351532 0 5916
0.07350000 0.07351270 27393.65664053 0 504.49285877 0 12842.39334203 0 -1061.80942863 0 1922.20134058 0 5721
0.07450000 0.07449140 27017.43502962 0 965.15727295 0 11166.14756611 0 -280.10001008 0 1212.25743008 0 6028
0.07550000 0.07549160 25576.58864413 0 68.05426035 0 12118.94939182 0 -342.16614054 0 2440.36559839 0 6183
0.07650000 0.07648840 25364.69623903 0 14.95351835 0 11313.01130153 0 2159.98438325 0 2068.18631019 0 6330
0.07750000 0.07749960 25711.25950397 0 -0.03402098 0 11773.70427559 0 750.39569749 0 2076.18307903 0 6583
0.07850000 0.07848650 25757.72424599 0 154.85391351 0 9133.67210139 0 238.10489064 0 794.61189750 0 6549
0.07950000 0.07947320 24491.75225599 0 775.54817179 0 10189.67398649 0 51.03838850 0 -533.55034862 0 6828
0.08050000 0.08048110 23494.46291133 0 1097.49061575 0 10773.50401919 0 -1418.22915055 0 240.75107418 0 7147
0.08150000 0.08149960 21870.39385518 0 1191.50757247 0 11185.70010531 0 704.96789913 0 707.76237439 0 7386
0.08250000 0.08250610 21699.36406009 0 -173.73529532 0 10983.27640178 0 1324.35499327 0 216.17748686 0 7227
0.08350000 0.08350160 21257.34485942 0 -369.00145135 0 9374.39900951 0 1319.86230308 0 -652.58247249 0 7798
0.08450000 0.08449610 21755.93460888 0 442.08950194 0 7941.51643913 0 968.11871371 0 -399.88238025 0 7371
0.08550000 0.08548940 20935.38703706 0 176.98892572 0 7339.28724736 0 344.13347749 0 1144.27391037 0 8256
0.08650000 0.08650700 21777.90375405 0 -165.90659044 0 6902.56261067 0 355.58489440 0 -1065.36513478 0 8037
0.08750000 0.08749060 20631.11437655 0 352.39607298 0 6658.30965475 0 -643.24558579 0 -422.85881072 0 8155
0.08850000 0.08849210 20088.47649103 0 550.27326192 0 7604.80633580 0 -1116.32915772 0 -1234.55611242 0 8718
0.08950000 0.08949900 18973.10299113 0 645.08550170 0 7739.26848877 0 -255.79115096 0 -1304.38504032 0 8571
0.09050000 0.09049190 19495.41941737 0 -113.28060166 0 7771.04685724 0 1687.74662341 0 -1019.55287637 0 8932
0.09150000 0.09150830 19344.60123583 0 97.13822302 0 7207.37351523 0 947.18431529 0 -1203.41484915 0 9285
0.09250000 0.09250820 19072.84291016 0 321.87983189 0 6611.60325214 0 467.45068311 0 -117.95563575 0 9204
0.09350000 0.09350330 18790.42954910 0 -64.55896936 0 6175.44981322 0 519.82182981 0 192.82977784 0 9349
0.09450000 0.09448040 18457.26746271 0 262.90256325 0 6866.63207376 0 -314.65527851 0 1032.78599096 0 9564
0.09550000 0.09549270 17996.02526001 0 323.11779322 0 6093.08748801 0 -206.63299174 0 86.28403732 0 10155
0.09650000 0.09649430 18036.55833284 0 89.27491674 0 6347.69889587 0 774.82428846 0 621.14572421 0 9913
0.09750000 0.09749140 18121.90846180 0 83.18880446 0 6187.81844195 0 35.15195041 0 -422.37878490 0 10476
0.09850000 0.09850240 18147.72220736 0 67.89135914 0 6384.45327573 0 283.77105424 0 -195.50671817 0 10575
0.09950000 0.09950330 17329.37155005 0 247.88006179 0 6385.62862499 0 -434.57715275 0 93.64018588 0 10882
0.10050000 0.10051200 17054.97692697 0 289.55553016 0 6227.97803931 0 -304.37591549 0 -334.89655040 0 10875
0.10150000 0.10150300 16671.72518961 0 284.27524612 0 6507.64525723 0 -374.47286696 0 -1145.46024421 0 11118
0.10250000 0.10250800 17023.01182076 0 432.63947415 0 7132.77728283 0 417.71693229 0 -1029.87727614 0 11575
0.10350000 0.10349800 16286.38638345 0 180.34690956 0 6043.22851306 0 286.22390929 0 -1687.06557991 0 11364
0.10450000 0.10450100 16336.47603443 0 -151.71012884 0 6017.12916861 0 464.27943701 0 -1434.07988878 0 12093
0.10550000 0.10551000 16155.34043256 0 -44.21740831 0 5182.11491469 0 796.78574442 0 -1211.03814252 0 12067
0.10650000 0.10649700 15979.36757981 0 117.20429099 0 5096.13866510 0 251.62030875 0 -720.68462557 0 12054
0.10750000 0.10749900 15945.53509626 0 203.39473975 0 4712.29376082 0 98.00095135 0 -1276.79179399 0 12807
0.10850000 0.10850100 15576.12392034 0 184.60672680 0 4583.22503298 0 150.02070157 0 -1302.07828007 0 12736
0.10950000 0.10950300 15294.25978791 0 483.05536692 0 4791.83305088 0 -342.54181292 0 -375.48344763 0 12933
0.11050000 0.11050200 14815.44226909 0 295.99248969 0 5165.86873184 0 -249.37725903 0 -303.32908572 0 13428
0.11150000 0.11150900 14697.35811384 0 267.66108009 0 5307.00950494 0 686.54567245 0 -589.84848002 0 13453
0.11250000 0.11250000 14397.91866527 0 -57.88232645 0 5597.28781998 0 659.74221689 0 848.07161534 0 13668
0.11350000 0.11349100 14438.56158382 0 -430.83470887 0 4902.90904882 0 668.79680007 0 713.26784217 0 13791
0.11450000 0.11448600 14494.69274971 0 174.77223897 0 4418.58825914 0 -35.51389208 0 433.16124134 0 14205
0.11550000 0.11549300 14165.59495517 0 492.06601181 0 4699.50771833 0 80.79779254 0 1948.11394730 0 14776
0.11650000 0.11649800 14098.91859961 0 82.44613750 0 4708.69082101 0 186.19070217 0 1451.55634376 0 14553
0.11750000 0.11747300 14070.57840235 0 86.54623907 0 4651.01083038 0 151.94739560 0 703.16752768 0 14568
0.11850000 0.11849100 13674.69440651 0 293.14638694 0 4585.05945661 0 348.86233598 0 1591.32404529 0 16015
0.11950000 0.11950300 13869.34103266 0 -2.19724405 0 4885.63031615 0 -288.51638959 0 1380.61797403 0 15270
0.12050000 0.12050700 13165.44962164 0 3.28552960 0 4280.96254926 0 220.54275600 0 1537.90606882 0 15999
0.12150000 0.12150000 13288.80637173 0 226.50847737 0 4289.93694506 0 310.23508650 0 1147.06399181 0 15670
0.12250000 0.12250700 13008.91946236 0 310.55034373 0 4448.34546626 0 -174.66459016 0 1120.94267821 0 16887
0.12350000 0.12352200 12843.27210783 0 66.24576032 0 4138.28393600 0 358.56171357 0 1001.59969094 0 16407
0.12450000 0.12449800 12926.20563082 0 -247.82623738 0 3727.50485975 0 757.28302450 0 831.70679911 0 16306
0.12550000 0.12549900 12764.84225960 0 221.94548592 0 3489.86461653 0 -112.48641706 0 472.15098172 0 17523
0.12650000 0.12650100 12642.14458387 0 193.53938123 0 3600.76486131 0 -621.74767879 0 1.81010378 0 17154
0.12750000 0.12750600 12450.90317523 0 318.55590023 0 3632.16975432 0 -292.27750724 0 143.50355466 0 18007
0.12850000 0.12850300 12167.61104835 0 -90.49211723 0 3949.03073500 0 178.87168146 0 137.48291043 0 17496
0.12950000 0.12949900 12247.90827392 0 -67.56610595 0 3600.52320071 0 308.25237115 0 -713.78851091 0 18405
0.13050000 0.13049000 12185.29621021 0 77.93839845 0 3449.21071340 0 -33.38167669 0 -354.40954514 0 18100
0.13150000 0.13148800 12114.44571706 0 322.87942800 0 3655.68772422 0 169.89618720 0 -94.65889515 0 19059
0.13250000 0.13249300 12151.24403521 0 11.91924986 0 3606.33403961 0 296.40001733 0 411.60291920 0 18957
0.13350000 0.13349100 12088.19258859 0 -239.74159196 0 3423.14432267 0 501.96530862 0 -48.42164362 0 19468
0.13450000 0.13450700 11819.18040607 0 110.50480017 0 3599.42474345 0 -102.14136630 0 171.06274881 0 19953
0.13550000 0.13551000 11764.80677180 0 251.75871436 0 3119.23415306 0 -229.15356245 0 474.22486902 0 19956
0.13650000 0.13649900 11644.85523921 0 271.77590098 0 3577.93891949 0 -277.27807338 0 309.74956839 0 19723
0.13750000 0.13749600 11614.97720179 0 208.93316124 0 3591.42797462 0 43.30162450 0 252.72975058 0 20946
0.13850000 0.13851100 11440.21265202 0 -127.32327925 0 3584.98003051 0 532.30579655 0 401.01379123 0 20955
0.13950000 0.13949800 11419.67150129 0 -39.65661378 0 3158.20741658 0 329.14612666 0 249.55520910 0 20506
0.14050000 0.14048300 11458.44704250 0 -91.25554502 0 3128.35134830 0 174.68326393 0 476.46682029 0 21447
0.14150000 0.14148400 11208.87755345 0 311.83553873 0 3104.88830127 0 -98.39694519 0 423.09607749 0 21771
0.14250000 0.14249400 11103.64534812 0 234.96330289 0 3081.15063992 0 -192.64743393 0 798.11597616 0 22470
0.14350000 0.14350900 10873.45264511 0 134.68184442 0 3326.17251592 0 142.34028842 0 311.28301472 0 22519
0.14450000 0.14449900 10741.20937580 0 192.32119213 0 3212.92157261 0 16.42709876 0 582.54703462 0 22218
0.14550000 0.14550500 10441.82485010 0 109.34362100 0 3169.46660348 0 -60.07759328 0 316.99389401 0 23559
0.14650000 0.14650700 10312.30575479 0 134.23916614 0 3433.16225286 0 -143.55518215 0 428.73555705 0 23044
0.14750000 0.14750500 10438.99083037 0 127.77694210 0 3182.08787737 0 326.69546851 0 -359.00658876 0 23649
0.14850000 0.14849900 10181.55638736 0 -28.70224877 0 3290.12114871 0 -249.07188791 0 284.11706827 0 23640
0.14950000 0.14949500 10069.93116079 0 102.13323771 0 3162.08497070 0 358.66716547 0 -313.67215926 0 24457
0.15050000 0.15050000 10101.31408465 0 27.88279966 0 3183.40602608 0 -104.86268431 0 429.33641317 0 24591
0.15150000 0.15149900 9925.84652224 0 44.75587206 0 2916.21728261 0 168.45830665 0 -14.37012770 0 25020
0.15250000 0.15250500 9872.56036064 0 137.30276344 0 3139.94007238 0 263.13104236 0 286.78741787 0 25297
0.15350000 0.15350100 9680.56101649 0 281.42474953 0 3030.37994545 0 -129.33125912 0 386.35707603 0 25452
0.15450000 0.15450400 9759.26547904 0 -17.53467321 0 2922.67621129 0 429.35179157 0 473.60204376 0 26061
0.15550000 0.15549900 9540.02439489 0 -132.09387912 0 3055.55658581 0 42.28016909 0 483.74849345 0 26128
0.15650000 0.15649500 9634.09627448 0 70.95880104 0 2523.66161227 0 -97.88440504 0 303.64873678 0 26331
0.15750000 0.15749700 9351.91358943 0 258.69437349 0 2870.10404692 0 -202.91910775 0 363.44984837 0 27345
0.15850000 0.15849900 9264.36654596 0 189.64754716 0 2771.89098347 0 57.47798433 0 -50.82001520 0 26980
0.15950000 0.15949700 9138.84583507 0 49.95443088 0 2726.74439016 0 402.81526113 0 273.79925925 0 27777
0.16050000 0.16050000 9125.44465652 0 -64.49635729 0 2230.35155521 0 417.14024223 0 8.86326488 0 28224
0.16150000 0.16150500 8897.73446691 0 10.60212272 0 2301.71832327 0 64.64673609 0 124.44312432 0 28075
0.16250000 0.16249700 8901.53512903 0 219.70792849 0 2144.62795078 0 -234.92375843 0 381.94347477 0 28590
0.16350000 0.16349900 8811.13209668 0 69.22126134 0 2018.28339695 0 -27.31577602 0 -247.31545475 0 29163
0.16450000 0.16449100 8736.01958937 0 109.73533086 0 2350.03945805 0 5.80923515 0 84.59493959 0 28996
0.16550000 0.16550500 8515.86678569 0 157.27930713 0 2173.83592928 0 -63.42821746 0 -150.46228139 0 30777
0.16650000 0.16650700 8305.14972987 0 152.61415916 0 2502.46138719 0 -45.76886935 0 151.10048506 0 29211
0.16750000 0.16749900 8179.10175950 0 81.00781757 0 2282.47335210 0 402.20012507 0 258.26597516 0 30922
0.16850000 0.16850800 8187.50495752 0 -11.69417597 0 2201.36326816 0 313.86658620 0 664.51171831 0 30867
0.16950000 0.16949900 8142.66593224 0 118.03802004 0 2121.25278033 0 168.21884297 0 835.12959193 0 30852
0.17050000 0.17049200 8100.79274156 0 31.69785156 0 2050.65493235 0 -7.63432188 0 709.99114417 0 31257
0.17150000 0.17149500 7931.33374035 0 -15.35840969 0 1917.74160411 0 -29.77269537 0 799.40556498 0 32608
0.17250000 0.17250900 7966.80292522 0 152.69874037 0 2123.70234001 0 -103.82211575 0 463.07882323 0 32361
0.17350000 0.17350400 7840.63412455 0 25.97346125 0 1987.43871714 0 -122.02212452 0 219.54975064 0 32508
0.17450000 0.17449800 7963.74921404 0 94.70371220 0 1933.41658919 0 175.79709959 0 395.03049454 0 32791
0.17550000 0.17549800 7859.81318827 0 24.01743841 0 2037.27572294 0 -8.39302631 0 270.82793236 0 33633
0.17650000 0.17650100 7723.15412079 0 29.35308470 0 1894.13575764 0 -65.77595015 0 62.28483330 0 33984
0.17750000 0.17750300 7735.74244097 0 145.57524505 0 2076.78723052 0 53.96215219 0 92.21504744 0 34069
0.17850000 0.17849800 7645.13070174 0 115.31714142 0 1985.63724724 0 -175.79929651 0 -14.12077790 0 34536
