### header ###
fiducial parameters:
Omega_m = 0.31
Omega_nu = 0
Omega_de = 0.69
Omega_k = 0
H_0 = 100
w_de = -1
zeff = 0
beta = 0
fgrowth = 0
b_1 = 2
gamma = 0.55
Lx = 3500 Ly = 3500 Lz = 3500
nx = 700 ny = 700 nz = 700
xoffset = -983.599254 yoffset = -42.9823471 zoffset = 800.977702
bins = 400 dk = 0.001
kx_ny = 0.628318531 ky_ny = 0.628318531 kz_ny = 0.628318531
############################
A(data) = 9.06479754 (not used)
A(ran) = 9.03902639 (used)
Ngal = 502451
weighted Ngal = 0
Nran = 25229228
weighted Nran = 0
SN(data) = 6790.12763
SN(ran) = 134.178119
SN(data+ran) = 6924.30575
############################
13 columns: k_central k_mean P_0(k) sigma^{lin}_{P_0(k)} P^img_1(k) sigma^{lin}_{P_1(k)} P_2(k) sigma^{lin}_{P_2(k)} P^img_3(k) sigma^{lin}_{P_3(k)} P_4(k) sigma^{lin}_{P_4(k)} N_modes
### header ###
0.00050000 0 0 0 0 0 0 0 0 0 0 0 0
0.00150000 0.00179520 80668.17458569 0 -27604.34074264 0 5946.64116635 0 -53985.65917408 0 142646.75799858 0 3
0.00250000 0.00253879 100124.26923322 0 -29142.07105830 0 -42959.12552547 0 64782.50541000 0 -6267.96188350 0 6
0.00350000 0.00331552 98575.66419070 0 3229.07987887 0 69690.19274790 0 -38063.30152597 0 -248.35459532 0 7
0.00450000 0.00420575 109923.71627876 0 14323.00388027 0 18411.13225786 0 -2469.07927112 0 22706.53952007 0 24
0.00550000 0.00557378 87250.89939651 0 23705.14701344 0 48604.31706648 0 12983.21556252 0 38176.11308638 0 45
0.00650000 0.00659388 53029.56197660 0 7450.57195218 0 56380.95507116 0 13400.08009198 0 26862.88209340 0 40
0.00750000 0.00754703 65633.37040215 0 -2996.10807900 0 50354.70870731 0 52247.02102590 0 9615.04902562 0 57
0.00850000 0.00846663 54643.96460888 0 5770.00923925 0 48309.49113839 0 17865.96792065 0 27581.16329449 0 75
0.00950000 0.00948925 64509.53878136 0 2134.33540627 0 36070.59021399 0 19643.49145576 0 35898.35211591 0 112
0.01050000 0.01054430 60894.18640766 0 -6848.47457528 0 20305.42179952 0 33465.48898059 0 27463.51852215 0 105
0.01150000 0.01145670 63134.16044845 0 -5289.47812710 0 33250.08151227 0 1546.25434399 0 31080.73827318 0 144
0.01250000 0.01249090 69327.59200699 0 5850.08677336 0 25983.78674972 0 -5778.26963783 0 9813.96865049 0 169
0.01350000 0.01339930 73176.80593094 0 1985.99973813 0 22084.04379189 0 6333.15532177 0 30483.61690766 0 180
0.01450000 0.01448870 68161.03039885 0 -3959.59789382 0 34326.45977952 0 12339.62945498 0 25887.78158535 0 267
0.01550000 0.01550050 77704.09752034 0 1194.27568476 0 42267.53683575 0 281.53459526 0 33915.74661070 0 238
0.01650000 0.01653350 71964.65834659 0 4853.59930250 0 34109.07508814 0 20601.01664768 0 14370.01785091 0 315
0.01750000 0.01747870 76854.33098545 0 -403.54903058 0 42791.83048506 0 -8399.08979458 0 28738.49786167 0 297
0.01850000 0.01844180 67933.53990069 0 4257.81805484 0 31959.94346260 0 4606.83087946 0 31845.26452485 0 388
0.01950000 0.01947590 69837.82540339 0 2304.16788295 0 45949.89510219 0 16630.20350525 0 40646.76315137 0 399
0.02050000 0.02045430 67239.64445072 0 -1615.58896612 0 42696.92377796 0 4340.35613321 0 27690.67948313 0 462
0.02150000 0.02154770 67340.81236420 0 -1517.84823929 0 30520.52507154 0 13679.19808127 0 29377.90983163 0 571
0.02250000 0.02255340 73295.87869772 0 -4158.82508673 0 15822.28819189 0 16921.95375301 0 33336.42025276 0 510
0.02350000 0.02348930 76449.65933155 0 -1085.58443753 0 19253.97851203 0 -4127.35428629 0 7450.52801389 0 555
0.02450000 0.02439640 71864.91842755 0 7013.97913037 0 19111.61845138 0 -13437.97686739 0 15982.55310585 0 592
0.02550000 0.02547300 68667.85857775 0 2900.93774215 0 22245.73670028 0 -1672.95040414 0 7560.17601740 0 837
0.02650000 0.02652900 60658.34763434 0 812.83640187 0 32625.16917812 0 47.49267832 0 9352.55069464 0 723
0.02750000 0.02749970 63574.53196323 0 4120.56582043 0 23972.84104725 0 2910.04395282 0 -10775.96456345 0 826
0.02850000 0.02848090 56854.28030369 0 2240.50130027 0 27267.11436439 0 1168.78049180 0 9908.41400555 0 831
0.02950000 0.02946900 58644.98532590 0 -1959.83448625 0 27297.76132190 0 2084.34461646 0 -1438.15516521 0 996
0.03050000 0.03053250 56278.68870043 0 1790.03496328 0 24960.57381376 0 4751.61853066 0 -2742.48528267 0 1041
0.03150000 0.03150510 53533.64401235 0 2290.01975347 0 25626.89798655 0 1898.73829355 0 3557.97995111 0 1036
0.03250000 0.03246190 52881.92932110 0 3047.93329244 0 22302.63678626 0 -1124.49069515 0 1248.11107498 0 1059
0.03350000 0.03345080 51206.34261954 0 2181.94254384 0 25854.16879326 0 250.94805291 0 2098.13025504 0 1302
0.03450000 0.03451200 47311.32302793 0 -491.98582443 0 23549.82515714 0 5713.06521498 0 1786.39906976 0 1339
0.03550000 0.03553350 46545.36878183 0 1130.29054948 0 25809.24189140 0 1362.71312072 0 6368.98699753 0 1365
0.03650000 0.03647120 46122.90212035 0 390.15444277 0 20816.64380745 0 3744.70670042 0 7847.02714579 0 1308
0.03750000 0.03744890 47110.08565824 0 -315.45715231 0 16940.73737212 0 1334.32898517 0 3853.55283012 0 1579
0.03850000 0.03847530 47297.26277502 0 84.12589834 0 22014.18191027 0 4478.94848547 0 2495.44224531 0 1662
0.03950000 0.03950240 47423.58535971 0 -61.51020124 0 17970.65089735 0 1358.25338426 0 7505.71450654 0 1683
0.04050000 0.04050350 44484.00389121 0 1238.60941970 0 17702.18794346 0 2272.88382024 0 8931.42415102 0 1822
0.04150000 0.04152450 44556.28237880 0 -130.23638790 0 17554.22575079 0 1311.41516677 0 3799.93713135 0 1887
0.04250000 0.04250150 45028.06977117 0 1348.48809923 0 15692.01116108 0 577.29750738 0 6750.18461982 0 1920
0.04350000 0.04349210 43533.06944285 0 1711.29754702 0 16693.03526042 0 662.11268766 0 6021.02869187 0 2005
0.04450000 0.04448520 41698.64582176 0 -136.65137828 0 16707.86443340 0 -812.80344816 0 7436.00640894 0 2151
0.04550000 0.04548030 41001.01561712 0 672.52386555 0 17492.05306998 0 1568.66287205 0 143.31901384 0 2274
0.04650000 0.04648670 39881.13844245 0 1698.00621420 0 16380.96355338 0 -2554.61613781 0 4663.61013514 0 2311
0.04750000 0.04749250 39684.84413043 0 818.41326937 0 19193.23382566 0 -951.50344923 0 126.31379703 0 2568
0.04850000 0.04851840 38569.47063052 0 -23.61441444 0 16574.84125944 0 2928.22342044 0 1831.90815396 0 2493
0.04950000 0.04949480 38993.80466933 0 -1703.15797874 0 16000.34811344 0 3536.92252547 0 1447.86552737 0 2644
0.05050000 0.05050630 40763.85869509 0 -270.56869645 0 14239.41128292 0 -438.26467376 0 342.85597170 0 2829
0.05150000 0.05149060 39287.09275725 0 2298.75248867 0 15225.49636355 0 -1769.62562743 0 -3966.79278886 0 2784
0.05250000 0.05249300 37699.16294490 0 1720.85412517 0 16432.70089024 0 -2217.78520417 0 2047.78795890 0 3055
0.05350000 0.05348950 36575.11163265 0 128.26905095 0 20052.88647587 0 2385.48667377 0 1152.19378720 0 3009
0.05450000 0.05448610 36590.38018853 0 37.41631020 0 17311.90607965 0 1706.55221166 0 1510.02722361 0 3336
0.05550000 0.05550870 36743.17559314 0 -101.44867915 0 17901.55793582 0 3864.52641813 0 2426.96441984 0 3349
0.05650000 0.05647670 35841.89141284 0 74.02151956 0 14821.59362973 0 405.72507441 0 5614.50064521 0 3324
0.05750000 0.05747970 36614.76593967 0 432.96351904 0 15534.82192744 0 1207.67686331 0 4725.20063360 0 3639
0.05850000 0.05849280 35785.32086405 0 975.50583877 0 15382.35606001 0 1682.95734976 0 8555.78472246 0 3846
0.05950000 0.05951020 34277.46858581 0 -209.94044655 0 15063.14438080 0 1474.70083819 0 7720.63865367 0 3787
0.06050000 0.06049470 34029.54678265 0 569.65114641 0 12828.77247202 0 215.09660492 0 4605.32599302 0 3930
0.06150000 0.06148310 33886.30795619 0 466.14351898 0 12993.65090647 0 881.03961303 0 3670.93431096 0 4083
0.06250000 0.06249100 31478.48964636 0 1417.94355166 0 13078.12226962 0 -1224.05486103 0 7082.32514097 0 4303
0.06350000 0.06350600 31576.14249660 0 168.99545225 0 12049.63673883 0 2236.14042496 0 4864.18843047 0 4470
0.06450000 0.06451750 31304.16447949 0 -12.14487298 0 11391.33130403 0 1528.48130555 0 2440.07999950 0 4479
0.06550000 0.06550280 30676.28631074 0 1126.68760967 0 12599.96382516 0 -672.66446808 0 2792.78364052 0 4636
0.06650000 0.06648880 30856.43330107 0 -129.64871326 0 11049.05202240 0 -1254.38326593 0 2374.73277722 0 4653
0.06750000 0.06749660 29059.35722677 0 -565.35508007 0 10242.37796574 0 1389.42760124 0 1274.95737037 0 5220
0.06850000 0.06852730 30630.81018025 0 457.76668393 0 9914.00515299 0 1965.19495767 0 862.58553110 0 5029
0.06950000 0.06949320 29964.37616174 0 62.04745668 0 8994.24492161 0 518.24444519 0 3285.50762822 0 5040
0.07050000 0.07048030 29323.75588880 0 864.81210396 0 10061.15448729 0 -1624.85994538 0 -612.77657836 0 5475
0.07150000 0.07148790 28317.56904035 0 1656.74815958 0 11457.89781387 0 -1520.19893782 0 -535.46715654 0 5509
0.07250000 0.07249820 26597.82435701 0 696.25164078 0 12323.37228756 0 -10.53122829 0 1645.89540187 0 5916
0.07350000 0.07351270 26205.45542441 0 -390.41477714 0 12516.70076499 0 1274.91343208 0 -873.06371488 0 5721
0.07450000 0.07449140 27204.94168358 0 174.39546813 0 11854.99011269 0 1151.28206768 0 274.15845477 0 6028
0.07550000 0.07549160 26548.72331757 0 -858.53991301 0 9232.08288714 0 2576.36559152 0 1881.81106720 0 6183
0.07650000 0.07648840 26743.58963517 0 -455.95972174 0 7926.19296038 0 1986.49404390 0 889.00342815 0 6330
0.07750000 0.07749960 26981.73516873 0 1084.53650930 0 8627.07459851 0 -1202.60199078 0 579.07481123 0 6583
0.07850000 0.07848650 25985.43443560 0 1159.08111421 0 9282.97441191 0 -1953.51835701 0 1269.16850062 0 6549
0.07950000 0.07947320 25166.64439539 0 261.64812506 0 9754.69589685 0 434.33659061 0 -79.10913420 0 6828
0.08050000 0.08048110 25411.60036395 0 -66.16568279 0 9152.06027589 0 704.95581610 0 -103.83266094 0 7147
0.08150000 0.08149960 24384.87236478 0 701.17712313 0 9643.89451322 0 -419.16799433 0 -551.51561708 0 7386
0.08250000 0.08250610 23749.63453240 0 116.18931648 0 8293.89054297 0 1161.88218022 0 2148.58239691 0 7227
0.08350000 0.08350160 23516.87143940 0 -325.81121042 0 8564.20988962 0 1266.42235748 0 448.95705672 0 7798
0.08450000 0.08449610 23379.56428213 0 947.15465694 0 8928.88671475 0 -567.34878000 0 -566.95004001 0 7371
0.08550000 0.08548940 22448.95129304 0 1351.44294926 0 9481.75123734 0 -982.94568978 0 2113.78327097 0 8256
0.08650000 0.08650700 21504.93712540 0 -257.97049016 0 8874.00779014 0 502.78585619 0 1412.28649678 0 8037
0.08750000 0.08749060 22101.50926229 0 -278.00744900 0 9158.72791144 0 1917.70865040 0 -628.79098673 0 8155
0.08850000 0.08849210 21291.50688014 0 767.36686213 0 8124.72812522 0 -296.01775421 0 1159.04816049 0 8718
0.08950000 0.08949900 20520.28003921 0 369.50893861 0 8159.18672941 0 471.49739965 0 1405.11357089 0 8571
0.09050000 0.09049190 20683.18125059 0 -124.22782669 0 8410.09633631 0 650.30646905 0 1388.09846796 0 8932
0.09150000 0.09150830 19791.67333989 0 314.48501763 0 7389.89317324 0 617.96569045 0 980.67408017 0 9285
0.09250000 0.09250820 19850.55064892 0 524.02562574 0 6858.88795009 0 581.12782784 0 2030.76187140 0 9204
0.09350000 0.09350330 19085.80470581 0 346.03051317 0 7132.44774565 0 -104.22590864 0 1130.85076268 0 9349
0.09450000 0.09448040 18835.57614241 0 1.44740418 0 6854.82365823 0 697.18203408 0 2007.07913292 0 9564
0.09550000 0.09549270 18648.39902562 0 341.11381848 0 7283.67235638 0 -164.95203108 0 805.16917021 0 10155
0.09650000 0.09649430 18011.84304453 0 441.95109632 0 6295.13771607 0 198.36929779 0 1613.52386647 0 9913
0.09750000 0.09749140 18213.19025995 0 287.02138926 0 6747.88884415 0 -437.26837303 0 352.48724493 0 10476
0.09850000 0.09850240 16995.22085213 0 463.08980780 0 6884.71268023 0 -1040.66852024 0 286.10198054 0 10575
0.09950000 0.09950330 16697.97831808 0 308.04805810 0 7179.37383972 0 319.21167921 0 -284.51580826 0 10882
0.10050000 0.10051200 16258.04618619 0 8.21890985 0 7574.70860692 0 466.85861465 0 -368.72244321 0 10875
0.10150000 0.10150300 16102.17510127 0 551.75947459 0 7053.13913162 0 -81.70511824 0 -1124.22706541 0 11118
0.10250000 0.10250800 15923.78564254 0 137.93108099 0 6994.00917741 0 -177.73148282 0 -1013.88154154 0 11575
0.10350000 0.10349800 15861.61296173 0 174.59099352 0 6936.97727657 0 344.06866851 0 -1357.29772644 0 11364
0.10450000 0.10450100 15528.12133816 0 -180.49849666 0 6357.92553294 0 293.73735694 0 -1557.51353088 0 12093
0.10550000 0.10551000 15529.54933260 0 11.10891794 0 6341.37178206 0 606.18803173 0 -1342.28181572 0 12067
0.10650000 0.10649700 15370.05333872 0 364.71197576 0 5972.57574222 0 -245.54584011 0 -1371.54471708 0 12054
0.10750000 0.10749900 15377.63269380 0 140.79695598 0 5751.04986697 0 637.97518787 0 -1066.07473816 0 12807
0.10850000 0.10850100 15453.09670743 0 -569.76318905 0 5008.18519244 0 1068.99773293 0 -846.85013087 0 12736
0.10950000 0.10950300 15528.78041252 0 -161.76650503 0 4650.40667889 0 986.92759734 0 -750.39789441 0 12933
0.11050000 0.11050200 15532.84470437 0 506.83806502 0 4792.86560070 0 -608.83311681 0 -284.63334319 0 13428
0.11150000 0.11150900 15216.59885976 0 155.99630906 0 4542.07682410 0 -76.96077149 0 433.89501079 0 13453
0.11250000 0.11250000 15033.92541773 0 72.50356148 0 5195.85661499 0 411.03721371 0 959.66169128 0 13668
0.11350000 0.11349100 15215.50040250 0 -36.92694749 0 4253.69884012 0 574.82488010 0 472.07518817 0 13791
0.11450000 0.11448600 14838.83940868 0 310.78651204 0 5119.88731102 0 -17.40099096 0 720.45834338 0 14205
0.11550000 0.11549300 14518.52927221 0 419.58321118 0 4949.69234344 0 -633.38473498 0 1048.36870562 0 14776
0.11650000 0.11649800 14346.84040277 0 192.44861317 0 5852.14088844 0 23.14548304 0 1422.48018014 0 14553
0.11750000 0.11747300 13946.45273218 0 107.26028696 0 5329.57181702 0 -158.27780478 0 893.62244092 0 14568
0.11850000 0.11849100 13967.21357436 0 162.62440015 0 5875.09864513 0 310.89416086 0 312.19363579 0 16015
0.11950000 0.11950300 13616.14663466 0 128.44370565 0 5548.92274690 0 -305.42823754 0 989.39473235 0 15270
0.12050000 0.12050700 13522.00884763 0 140.72226088 0 5731.13483688 0 601.04175948 0 491.11035400 0 15999
0.12150000 0.12150000 13573.52649304 0 -160.19021887 0 5218.03446703 0 96.14367982 0 592.16512637 0 15670
0.12250000 0.12250700 13725.99236047 0 100.29332181 0 4754.21088979 0 300.42915856 0 397.87879421 0 16887
0.12350000 0.12352200 13575.61356183 0 84.40919047 0 4869.94434650 0 -99.63029300 0 254.37853492 0 16407
0.12450000 0.12449800 13206.64176882 0 -109.47521618 0 4917.70526809 0 201.10225945 0 287.35422181 0 16306
0.12550000 0.12549900 13525.08452796 0 111.39345209 0 4308.84139448 0 338.98171295 0 -229.30954338 0 17523
0.12650000 0.12650100 13671.94826337 0 -115.35229205 0 4431.41823991 0 226.49968971 0 -499.24992228 0 17154
0.12750000 0.12750600 13508.93720626 0 140.98698908 0 4153.12409356 0 263.83515346 0 365.16014632 0 18007
0.12850000 0.12850300 13230.58813705 0 103.09603550 0 3845.42424641 0 -79.64452227 0 250.58995584 0 17496
0.12950000 0.12949900 13232.78505157 0 300.09742447 0 4579.29255600 0 -62.49266141 0 332.57770713 0 18405
0.13050000 0.13049000 12939.71665510 0 291.31855406 0 4431.18756389 0 -28.74388030 0 768.23464336 0 18100
0.13150000 0.13148800 12296.67977618 0 170.97926606 0 4477.22390757 0 121.68270123 0 1248.16599785 0 19059
0.13250000 0.13249300 12610.06963193 0 -30.95199908 0 4545.81157877 0 846.85452470 0 1410.43010402 0 18957
0.13350000 0.13349100 12533.06777814 0 98.64948052 0 4396.05890077 0 60.57376643 0 1148.08555706 0 19468
0.13450000 0.13450700 12316.45200683 0 295.31913539 0 4322.74786336 0 15.38707943 0 1430.50990270 0 19953
0.13550000 0.13551000 11921.55662253 0 140.31143787 0 4301.39385427 0 -367.30982718 0 1340.83185214 0 19956
0.13650000 0.13649900 11817.53272019 0 98.96616575 0 4478.76174774 0 123.02721291 0 988.70929502 0 19723
0.13750000 0.13749600 11742.28839800 0 304.86253205 0 4667.33390524 0 -168.01782529 0 1116.64771033 0 20946
0.13850000 0.13851100 11300.81842596 0 -14.37232461 0 4465.82192124 0 47.77827721 0 636.88002598 0 20955
0.13950000 0.13949800 11242.16080838 0 -51.19997157 0 4358.96399916 0 453.97151410 0 596.57103844 0 20506
0.14050000 0.14048300 11220.52120039 0 150.30080817 0 3756.88859141 0 196.81168540 0 258.78005316 0 21447
0.14150000 0.14148400 11165.37864603 0 85.35375387 0 3712.14842728 0 333.26094755 0 820.90566889 0 21771
0.14250000 0.14249400 11201.62773555 0 124.93083934 0 3386.48880397 0 265.96616054 0 358.20032113 0 22470
0.14350000 0.14350900 10957.57250194 0 142.57975211 0 3486.32758416 0 -131.84452932 0 271.28928441 0 22519
0.14450000 0.14449900 10730.31267980 0 165.87473518 0 3506.04489194 0 -88.34946650 0 608.11472576 0 22218
0.14550000 0.14550500 10469.09954382 0 140.18511528 0 3508.31869846 0 202.49510325 0 763.36737925 0 23559
0.14650000 0.14650700 10415.00052386 0 41.96919584 0 3549.33509248 0 -82.72877056 0 576.15840721 0 23044
0.14750000 0.14750500 10251.56106842 0 177.49421606 0 3878.22418014 0 80.58897582 0 359.97542806 0 23649
0.14850000 0.14849900 9894.52950581 0 278.27217720 0 3585.43039799 0 -24.40859904 0 585.34919909 0 23640
0.14950000 0.14949500 10084.82624121 0 -102.81878489 0 3613.50696550 0 222.50899449 0 1120.00898954 0 24457
0.15050000 0.15050000 9865.49728047 0 -1.46858243 0 3504.03471516 0 191.57204428 0 573.83956394 0 24591
0.15150000 0.15149900 9810.70623244 0 238.46848000 0 3288.39657081 0 164.71696123 0 397.44270668 0 25020
0.15250000 0.15250500 9807.64153669 0 -20.37209816 0 3305.59841148 0 4.23501408 0 593.02302149 0 25297
0.15350000 0.15350100 9800.32581135 0 55.86742630 0 3140.21468669 0 181.83751605 0 92.88631467 0 25452
0.15450000 0.15450400 9739.26257237 0 47.07845009 0 2724.13006188 0 -39.51754909 0 315.01667095 0 26061
0.15550000 0.15549900 9381.95639544 0 -3.18618512 0 2564.96360518 0 287.25096683 0 300.89380598 0 26128
0.15650000 0.15649500 9502.62192525 0 55.45704267 0 2643.79988260 0 264.48324324 0 489.26494580 0 26331
0.15750000 0.15749700 9523.94298063 0 241.65510450 0 2681.45499740 0 107.25534391 0 91.29618794 0 27345
0.15850000 0.15849900 9384.18626368 0 104.20899239 0 2446.93437279 0 -132.08289455 0 489.31108101 0 26980
0.15950000 0.15949700 9165.26373213 0 -15.83173492 0 2626.87265625 0 116.85498158 0 558.49411604 0 27777
0.16050000 0.16050000 9032.17465074 0 11.48546909 0 2569.95060113 0 14.61892827 0 855.31044867 0 28224
0.16150000 0.16150500 9047.94849696 0 22.23892627 0 2360.38692542 0 394.10010124 0 716.21060916 0 28075
0.16250000 0.16249700 9225.83266534 0 212.10770272 0 2599.13661048 0 68.87469808 0 826.96146376 0 28590
0.16350000 0.16349900 8862.82549525 0 193.29222834 0 2575.73947088 0 -312.71759990 0 1080.87644972 0 29163
0.16450000 0.16449100 8680.39371382 0 119.24742149 0 2879.79243993 0 143.99566351 0 938.80967715 0 28996
0.16550000 0.16550500 8699.64966955 0 22.86405829 0 2787.41218452 0 -158.82703341 0 828.47843323 0 30777
0.16650000 0.16650700 8522.71017441 0 -8.93541155 0 2536.72226907 0 463.93122606 0 1014.99647566 0 29211
0.16750000 0.16749900 8528.20246070 0 64.47482753 0 2825.82523484 0 -73.82687294 0 1120.65707932 0 30922
0.16850000 0.16850800 8450.46464055 0 175.19075119 0 2587.46000983 0 -81.66535408 0 794.28236033 0 30867
0.16950000 0.16949900 8393.05926423 0 92.52382377 0 2740.20049157 0 -51.82081961 0 932.33097624 0 30852
0.17050000 0.17049200 8380.60275893 0 25.19267783 0 2776.07610562 0 -80.02316048 0 819.73910728 0 31257
0.17150000 0.17149500 8183.26491250 0 69.84276846 0 2795.60667567 0 22.00330718 0 359.62062637 0 32608
0.17250000 0.17250900 8112.87577140 0 185.03622359 0 2836.28254794 0 -79.38748327 0 837.50555498 0 32361
0.17350000 0.17350400 8063.74177825 0 -60.34517747 0 2737.33351813 0 70.39045925 0 679.22335637 0 32508
0.17450000 0.17449800 7963.51853801 0 40.02943017 0 2781.34870046 0 258.82838528 0 41.50828318 0 32791
0.17550000 0.17549800 7971.28463083 0 209.36155957 0 2566.76507508 0 7.11870605 0 124.97587609 0 33633
0.17650000 0.17650100 7857.51741260 0 -32.15920361 0 2532.52616235 0 -83.56337838 0 290.96045699 0 33984
0.17750000 0.17750300 7902.74089792 0 -57.36890753 0 2505.95448127 0 141.03422274 0 -92.58193216 0 34069
0.17850000 0.17849800 7840.10686506 0 52.62983338 0 1942.41295413 0 54.24192925 0 -524.76269056 0 34536
