### header ###
fiducial parameters:
Omega_m = 0.31
Omega_nu = 0
Omega_de = 0.69
Omega_k = 0
H_0 = 100
w_de = -1
zeff = 0
beta = 0
fgrowth = 0
b_1 = 2
gamma = 0.55
Lx = 3500 Ly = 3500 Lz = 3500
nx = 700 ny = 700 nz = 700
xoffset = -983.599254 yoffset = -42.9823471 zoffset = 800.977702
bins = 400 dk = 0.001
kx_ny = 0.628318531 ky_ny = 0.628318531 kz_ny = 0.628318531
############################
A(data) = 9.04345298 (not used)
A(ran) = 9.05224022 (used)
Ngal = 502958
weighted Ngal = 0
Nran = 25229228
weighted Nran = 0
SN(data) = 6727.77395
SN(ran) = 134.37427
SN(data+ran) = 6862.14822
############################
13 columns: k_central k_mean P_0(k) sigma^{lin}_{P_0(k)} P^img_1(k) sigma^{lin}_{P_1(k)} P_2(k) sigma^{lin}_{P_2(k)} P^img_3(k) sigma^{lin}_{P_3(k)} P_4(k) sigma^{lin}_{P_4(k)} N_modes
### header ###
0.00050000 0 0 0 0 0 0 0 0 0 0 0 0
0.00150000 0.00179520 14385.39625253 0 -25349.09814597 0 -6984.37570726 0 -37048.87624808 0 -8629.46923533 0 3
0.00250000 0.00253879 24622.57851544 0 -17815.21919533 0 -26443.71080370 0 3671.25286356 0 10216.22369842 0 6
0.00350000 0.00331552 53238.37870137 0 -27229.76681762 0 -48299.05579444 0 5945.41089422 0 1733.90379739 0 7
0.00450000 0.00420575 46900.50001338 0 -3006.40062351 0 -16698.85708388 0 -51251.81875003 0 -18373.23548246 0 24
0.00550000 0.00557378 56808.91401893 0 -1492.80341380 0 -23004.77066566 0 -24512.62294390 0 -23463.92579956 0 45
0.00650000 0.00659388 67527.11071518 0 -8430.75831733 0 8042.08020112 0 -23846.18892539 0 -21611.37763371 0 40
0.00750000 0.00754703 71181.78785872 0 -7788.28165162 0 -11316.41651903 0 -16233.98997224 0 -15302.82775452 0 57
0.00850000 0.00846663 71432.34595930 0 -5128.04884845 0 1462.36516318 0 -9357.51572145 0 -22713.24010935 0 75
0.00950000 0.00948925 93438.17959441 0 -2462.60935787 0 -4406.83476647 0 5592.76217607 0 -8647.79150240 0 112
0.01050000 0.01054430 97245.98167973 0 -6242.65342828 0 9328.43955783 0 2278.59579798 0 6507.13996689 0 105
0.01150000 0.01145670 102164.32405302 0 -5566.82760021 0 310.46795944 0 -7248.10431036 0 -12996.39704962 0 144
0.01250000 0.01249090 99527.25771342 0 7760.54560586 0 11216.78644571 0 1293.52129803 0 -793.92646018 0 169
0.01350000 0.01339930 91232.58726580 0 10641.03007386 0 13137.10942438 0 -2284.76912777 0 18496.92176972 0 180
0.01450000 0.01448870 85798.84874698 0 5394.54556384 0 17395.38883127 0 14468.54946697 0 34347.87969605 0 267
0.01550000 0.01550050 83423.76446345 0 -7027.67689237 0 22923.26513710 0 17248.08571295 0 44680.29820324 0 238
0.01650000 0.01653350 75818.48579103 0 4895.75809207 0 14233.25992228 0 18851.28408120 0 32315.07469415 0 315
0.01750000 0.01747870 76233.59278888 0 5344.09342198 0 8332.24867042 0 -11688.13445518 0 36179.33748254 0 297
0.01850000 0.01844180 71665.76812665 0 1149.63438179 0 12083.57906811 0 5840.54117979 0 22559.78563039 0 388
0.01950000 0.01947590 68928.19294793 0 6840.21417670 0 13928.54787887 0 -2706.13733199 0 24672.22878350 0 399
0.02050000 0.02045430 58689.80238204 0 1450.38099450 0 13093.72036269 0 -956.81998236 0 28746.73629110 0 462
0.02150000 0.02154770 63322.43602249 0 -2921.32510886 0 12927.30408808 0 7478.32996710 0 16884.16682333 0 571
0.02250000 0.02255340 63462.15978573 0 -2991.59341967 0 9087.37212796 0 3864.18589638 0 3473.78320227 0 510
0.02350000 0.02348930 64883.23394057 0 6535.56804073 0 5350.34364378 0 -12061.17054004 0 -2258.70273704 0 555
0.02450000 0.02439640 60343.85932133 0 6092.50530566 0 12749.35401226 0 -5995.14903887 0 5392.64523279 0 592
0.02550000 0.02547300 54876.94739333 0 -2852.27608562 0 19911.62487248 0 1998.28049028 0 927.53071803 0 837
0.02650000 0.02652900 58738.90342147 0 -2648.24863449 0 12248.56734828 0 3115.64219783 0 -14335.85583019 0 723
0.02750000 0.02749970 59670.39517637 0 1982.63845892 0 13533.32295739 0 -5638.96328835 0 -12756.38413871 0 826
0.02850000 0.02848090 55175.06869318 0 5123.68797313 0 18617.31268522 0 -5978.22181253 0 -3357.03916487 0 831
0.02950000 0.02946900 55716.93765862 0 -1520.64930530 0 14042.34805081 0 7682.50021767 0 -5005.63677160 0 996
0.03050000 0.03053250 58662.89017921 0 -2425.64627113 0 17687.90799911 0 5311.33742654 0 -6941.27224445 0 1041
0.03150000 0.03150510 59975.65644841 0 1353.69478663 0 13499.27078239 0 1208.36889138 0 -1136.38698726 0 1036
0.03250000 0.03246190 59103.15184827 0 2141.53030131 0 10898.24482543 0 1095.48702971 0 -3684.10481348 0 1059
0.03350000 0.03345080 57267.95930711 0 1221.86893109 0 18661.14112981 0 -4228.93961352 0 7209.28483086 0 1302
0.03450000 0.03451200 55773.06882451 0 -546.68570051 0 16565.39452702 0 4852.12736978 0 604.27012536 0 1339
0.03550000 0.03553350 50897.45643856 0 1909.93157301 0 18407.72704036 0 1703.00419472 0 8674.13250745 0 1365
0.03650000 0.03647120 53288.13881516 0 3727.44993689 0 21504.38789677 0 83.39893933 0 4929.08528528 0 1308
0.03750000 0.03744890 46001.41274760 0 1243.04718702 0 20475.24329162 0 -169.68748032 0 9010.08467527 0 1579
0.03850000 0.03847530 46857.98971749 0 877.09834839 0 18274.26448350 0 3132.30579443 0 7361.23442338 0 1662
0.03950000 0.03950240 44407.44142032 0 920.44566871 0 17606.07293338 0 3758.83286076 0 5877.25162136 0 1683
0.04050000 0.04050350 44754.44406817 0 580.16228391 0 15741.00235479 0 2071.41577453 0 5834.46671115 0 1822
0.04150000 0.04152450 42708.78711634 0 1094.32156656 0 12903.90694848 0 2489.07119321 0 3750.92396850 0 1887
0.04250000 0.04250150 41237.73315625 0 184.56169005 0 11176.69275579 0 -905.36275210 0 4080.48311508 0 1920
0.04350000 0.04349210 40503.63417064 0 674.85259494 0 11363.97971830 0 -1229.03087241 0 -2771.90196804 0 2005
0.04450000 0.04448520 39906.29311367 0 1121.44796855 0 12089.73042875 0 -1777.51255054 0 -1377.77296973 0 2151
0.04550000 0.04548030 37072.38323340 0 275.43486211 0 12470.34586870 0 -1416.91100184 0 -2374.44717833 0 2274
0.04650000 0.04648670 39236.01449475 0 854.91610252 0 13997.42114895 0 1487.16832807 0 -4737.63516976 0 2311
0.04750000 0.04749250 37577.78341787 0 519.03643287 0 13438.19655884 0 1672.66480525 0 -1742.74637832 0 2568
0.04850000 0.04851840 37106.54525413 0 -353.78342450 0 12487.15226475 0 2131.95175402 0 1228.72330438 0 2493
0.04950000 0.04949480 36765.80381266 0 -150.73799416 0 12210.01149852 0 4629.54697556 0 4564.06793840 0 2644
0.05050000 0.05050630 38346.59365284 0 159.05551252 0 10929.24328925 0 -950.56866210 0 2470.50726555 0 2829
0.05150000 0.05149060 36547.54035547 0 1534.76448107 0 10133.21328343 0 511.44279784 0 5643.80748486 0 2784
0.05250000 0.05249300 35613.74184033 0 1092.97156259 0 12436.95276805 0 605.26203226 0 2318.71145705 0 3055
0.05350000 0.05348950 34495.29266010 0 368.63127126 0 10728.01690413 0 -1864.13688992 0 5470.32813008 0 3009
0.05450000 0.05448610 34311.08137791 0 483.16411419 0 12016.35348391 0 1109.98007477 0 4123.67445447 0 3336
0.05550000 0.05550870 32398.55744577 0 -204.51736306 0 11400.77803645 0 1833.46796327 0 2845.56451177 0 3349
0.05650000 0.05647670 32728.86354329 0 620.71732588 0 11992.29726996 0 -210.43475231 0 2171.04584784 0 3324
0.05750000 0.05747970 33115.41065243 0 840.56475844 0 11152.96607902 0 -766.79127053 0 1885.85338991 0 3639
0.05850000 0.05849280 32008.71496486 0 -147.77875031 0 10235.74328390 0 439.27635290 0 2617.54675413 0 3846
0.05950000 0.05951020 31839.33285565 0 -469.42021698 0 9564.78362149 0 725.56177580 0 -873.01098893 0 3787
0.06050000 0.06049470 32427.55671738 0 620.01541170 0 11564.22847646 0 -328.23989942 0 -1723.71011404 0 3930
0.06150000 0.06148310 31391.93121441 0 1081.43556446 0 10603.57268136 0 -591.16882564 0 -1035.25202750 0 4083
0.06250000 0.06249100 31595.80488152 0 -154.52767170 0 9967.62085176 0 1115.54925307 0 1280.28488807 0 4303
0.06350000 0.06350600 31387.86692256 0 -838.45022822 0 10412.71573276 0 662.01382650 0 -1373.10452639 0 4470
0.06450000 0.06451750 31396.54473490 0 982.79520114 0 8426.49630317 0 497.08156765 0 -1669.96260040 0 4479
0.06550000 0.06550280 30595.33001082 0 1208.34692224 0 10428.73123958 0 -50.07734825 0 -667.73459190 0 4636
0.06650000 0.06648880 29500.93704454 0 569.18979436 0 11244.02818571 0 -1313.51322013 0 96.30669088 0 4653
0.06750000 0.06749660 28748.60366844 0 -125.14503850 0 10601.85908804 0 671.28370730 0 -1393.74453827 0 5220
0.06850000 0.06852730 29163.16143766 0 48.17822550 0 10362.26359089 0 906.99066576 0 -631.64807406 0 5029
0.06950000 0.06949320 27440.78045691 0 366.07076739 0 10048.91767344 0 295.93646837 0 -140.33670238 0 5040
0.07050000 0.07048030 28618.65617480 0 478.85816174 0 9745.66657818 0 810.26271652 0 -840.33847625 0 5475
0.07150000 0.07148790 27669.58910377 0 766.11791623 0 11273.46684023 0 -291.75464159 0 -191.50393993 0 5509
0.07250000 0.07249820 28075.02967775 0 520.55999309 0 10899.83758845 0 -1090.44730781 0 -2121.10998088 0 5916
0.07350000 0.07351270 26156.57407642 0 -359.98311726 0 11528.85815275 0 792.27657737 0 818.22872855 0 5721
0.07450000 0.07449140 27099.37994108 0 0.51587507 0 9704.49640015 0 812.50027395 0 -760.62123611 0 6028
0.07550000 0.07549160 26274.43854022 0 208.41359096 0 10659.39627922 0 884.28445577 0 202.79058825 0 6183
0.07650000 0.07648840 25975.65816601 0 642.74029545 0 9911.36885557 0 913.60227999 0 33.30126962 0 6330
0.07750000 0.07749960 25215.52574338 0 961.35770929 0 10774.45967701 0 -1408.01349805 0 639.88210967 0 6583
0.07850000 0.07848650 24937.17667417 0 487.36571320 0 10630.46291504 0 -666.11656436 0 -858.34219071 0 6549
0.07950000 0.07947320 24151.77973460 0 -243.37419011 0 11197.78313515 0 925.35028037 0 -479.93135448 0 6828
0.08050000 0.08048110 24339.06669711 0 -142.84118493 0 10067.11911020 0 1402.25758202 0 -2244.86217559 0 7147
0.08150000 0.08149960 24112.45496476 0 509.25686790 0 10213.77413874 0 -95.83742994 0 192.00373798 0 7386
0.08250000 0.08250610 23453.49045560 0 372.44511486 0 9401.42105806 0 551.82428357 0 -1240.97110280 0 7227
0.08350000 0.08350160 23030.91394840 0 127.39248205 0 9141.95446911 0 725.28276766 0 210.28426367 0 7798
0.08450000 0.08449610 22926.34081742 0 628.30437017 0 8544.31682868 0 580.34023399 0 -312.05632863 0 7371
0.08550000 0.08548940 22044.93871350 0 548.32130337 0 8692.48772823 0 -10.10834421 0 1535.74210803 0 8256
0.08650000 0.08650700 21116.52263892 0 521.40250980 0 8633.81912607 0 516.81095847 0 -444.84553120 0 8037
0.08750000 0.08749060 20709.87376196 0 351.00322918 0 8281.56585253 0 1251.88976795 0 973.98118010 0 8155
0.08850000 0.08849210 20992.17727730 0 -34.59569165 0 8135.11953088 0 -363.10712971 0 129.90685072 0 8718
0.08950000 0.08949900 20354.19330178 0 180.61713004 0 7604.54270606 0 746.87074815 0 927.43734916 0 8571
0.09050000 0.09049190 19851.97864336 0 203.45845027 0 7451.20905739 0 -266.53076757 0 965.48681012 0 8932
0.09150000 0.09150830 19567.47821350 0 371.66191483 0 7567.52469646 0 356.14840298 0 916.82625204 0 9285
0.09250000 0.09250820 19449.28421253 0 255.22654393 0 7697.12068377 0 499.47620447 0 1383.19934859 0 9204
0.09350000 0.09350330 18639.83105901 0 632.20938572 0 8247.39284723 0 -611.75611157 0 306.74528779 0 9349
0.09450000 0.09448040 18433.32109448 0 437.49245831 0 8185.37395044 0 23.19974683 0 2176.56010328 0 9564
0.09550000 0.09549270 18327.42981479 0 85.44800150 0 8659.86354766 0 412.30043955 0 778.92263249 0 10155
0.09650000 0.09649430 18123.11676478 0 -57.66340392 0 8431.12080823 0 1133.98136586 0 2251.78245631 0 9913
0.09750000 0.09749140 17975.26441784 0 -390.70147449 0 6306.23213438 0 913.07831588 0 1731.31143826 0 10476
0.09850000 0.09850240 18040.07339607 0 -15.77900898 0 6171.63816654 0 820.29602511 0 2647.02934693 0 10575
0.09950000 0.09950330 17806.76107444 0 500.61310774 0 6413.45254734 0 -97.88605272 0 2252.46349981 0 10882
0.10050000 0.10051200 17672.63944322 0 295.94525603 0 5709.47325975 0 534.51479409 0 1851.74629205 0 10875
0.10150000 0.10150300 17315.64083433 0 50.61713015 0 5682.20955060 0 130.73948132 0 912.61037309 0 11118
0.10250000 0.10250800 16706.32659324 0 450.72337599 0 5867.23369116 0 -488.42242909 0 715.53395949 0 11575
0.10350000 0.10349800 16549.24720533 0 532.33984872 0 5651.34290165 0 -246.69812178 0 1397.12778662 0 11364
0.10450000 0.10450100 16142.26879119 0 -96.93006537 0 5753.93880956 0 181.20370622 0 491.15758766 0 12093
0.10550000 0.10551000 15937.95574117 0 -30.83742999 0 5445.25035088 0 409.44554914 0 -453.87484986 0 12067
0.10650000 0.10649700 15759.45643673 0 445.14541003 0 5986.40531910 0 -432.07376866 0 -263.97136216 0 12054
0.10750000 0.10749900 15395.20800993 0 228.29786424 0 5700.85037027 0 -131.23708246 0 516.31116041 0 12807
0.10850000 0.10850100 15415.41962348 0 277.31542093 0 5811.34418587 0 149.45279917 0 -782.18505054 0 12736
0.10950000 0.10950300 14550.16484125 0 53.69017417 0 5546.69287867 0 -183.37206084 0 -230.87814034 0 12933
0.11050000 0.11050200 14467.23131826 0 204.41960037 0 5395.43531422 0 907.41137489 0 451.21109101 0 13428
0.11150000 0.11150900 14819.61640667 0 -225.79118478 0 5673.15826280 0 767.67003633 0 -950.06776559 0 13453
0.11250000 0.11250000 14556.97527625 0 306.13893938 0 4347.03475334 0 2.61158213 0 -56.88701433 0 13668
0.11350000 0.11349100 14786.99222610 0 91.55278756 0 4930.16177339 0 -175.20722804 0 -469.04564305 0 13791
0.11450000 0.11448600 14406.37678616 0 -249.77160518 0 4131.57236216 0 -164.02603161 0 -297.41499184 0 14205
0.11550000 0.11549300 14536.76366270 0 73.21920638 0 4506.90422269 0 866.64652758 0 -1031.19981868 0 14776
0.11650000 0.11649800 14375.61998293 0 159.34440678 0 4400.35386865 0 -876.50737838 0 -761.02546838 0 14553
0.11750000 0.11747300 14177.01891066 0 355.15869299 0 4311.68639877 0 233.70556933 0 -894.75824573 0 14568
0.11850000 0.11849100 14357.93482107 0 -265.95956980 0 4117.27044866 0 499.66843449 0 -595.96029620 0 16015
0.11950000 0.11950300 14173.28415598 0 44.96798416 0 3621.95410182 0 606.80206934 0 -1131.03750041 0 15270
0.12050000 0.12050700 14190.52993493 0 371.34995297 0 3942.56082175 0 -197.23349298 0 -956.07522833 0 15999
0.12150000 0.12150000 13763.12021579 0 580.19743455 0 4178.11399618 0 -762.30297417 0 -562.66276133 0 15670
0.12250000 0.12250700 13618.01401199 0 -30.74076575 0 4324.81296301 0 107.72844945 0 -1225.65860863 0 16887
0.12350000 0.12352200 12902.58879977 0 -5.65361671 0 4379.18659729 0 236.48796156 0 -516.57808553 0 16407
0.12450000 0.12449800 13082.62594438 0 113.48381625 0 4283.10454092 0 246.47293804 0 -407.52434740 0 16306
0.12550000 0.12549900 13230.03890842 0 1.61739044 0 4032.83203922 0 207.09983608 0 281.73012065 0 17523
0.12650000 0.12650100 12893.25191308 0 143.27727246 0 4635.03926185 0 509.64242640 0 -541.46033934 0 17154
0.12750000 0.12750600 12735.95283371 0 446.63601653 0 4307.68801435 0 -347.08063831 0 246.57838993 0 18007
0.12850000 0.12850300 12513.29554749 0 293.07169184 0 4714.18310730 0 -273.41150384 0 494.38815045 0 17496
0.12950000 0.12949900 12228.68527191 0 10.80522746 0 4775.01567026 0 64.29621838 0 -230.65954735 0 18405
0.13050000 0.13049000 12003.50153399 0 247.18803371 0 4849.18350432 0 444.45777579 0 681.47079992 0 18100
0.13150000 0.13148800 12023.38361036 0 -171.92284084 0 4527.88475632 0 137.14458559 0 501.54789486 0 19059
0.13250000 0.13249300 11718.12233833 0 144.47239396 0 3824.85014197 0 651.78389406 0 533.85791665 0 18957
0.13350000 0.13349100 11704.28177687 0 188.01084585 0 4080.01077846 0 22.81221111 0 184.70558796 0 19468
0.13450000 0.13450700 11515.34712847 0 45.84894688 0 3532.74838789 0 48.43746141 0 579.28901039 0 19953
0.13550000 0.13551000 11415.05798081 0 83.75945300 0 3221.58840037 0 725.49696682 0 341.00067739 0 19956
0.13650000 0.13649900 11477.99958170 0 -37.55856042 0 2982.25653297 0 20.52994646 0 265.27303401 0 19723
0.13750000 0.13749600 11305.10240927 0 83.14541539 0 3016.31969255 0 -260.80780526 0 -17.37517722 0 20946
0.13850000 0.13851100 11353.98375725 0 212.72613415 0 2754.21680618 0 -37.02108528 0 -323.81531358 0 20955
0.13950000 0.13949800 10796.58260619 0 106.68118030 0 3221.65430781 0 -234.53710147 0 -780.28691640 0 20506
0.14050000 0.14048300 10942.39182263 0 314.18843417 0 3360.64210468 0 -380.94058329 0 -811.94665150 0 21447
0.14150000 0.14148400 10529.63552331 0 63.78499637 0 3511.82277712 0 -6.38444229 0 -892.51080218 0 21771
0.14250000 0.14249400 10331.02346647 0 42.00885015 0 3285.03529160 0 363.74753029 0 -823.12784793 0 22470
0.14350000 0.14350900 10682.91424911 0 85.20150769 0 3099.01155494 0 353.95258692 0 -862.57015269 0 22519
0.14450000 0.14449900 10211.85183854 0 233.62648040 0 3352.88699644 0 -177.56451732 0 116.17283962 0 22218
0.14550000 0.14550500 9982.29624073 0 187.98338441 0 3308.91575240 0 117.33720431 0 -17.14351258 0 23559
0.14650000 0.14650700 9979.02283810 0 -8.38241521 0 3326.69977540 0 315.13640279 0 211.35086567 0 23044
0.14750000 0.14750500 10107.07000068 0 -23.73326752 0 3221.36870892 0 -120.45462601 0 -324.94342919 0 23649
0.14850000 0.14849900 9807.70744412 0 11.70647869 0 3147.22284400 0 168.47038968 0 441.01521074 0 23640
0.14950000 0.14949500 9915.64185431 0 127.96038446 0 3325.26079640 0 -129.87829083 0 -104.85938894 0 24457
0.15050000 0.15050000 9998.56439272 0 109.40063093 0 3141.36806681 0 -68.55713409 0 -130.16388972 0 24591
0.15150000 0.15149900 9826.15054149 0 -12.05381088 0 3344.12130752 0 154.17836229 0 -8.24307591 0 25020
0.15250000 0.15250500 9851.89837962 0 16.59417411 0 3408.43597998 0 268.80347564 0 70.17131703 0 25297
0.15350000 0.15350100 9692.47927774 0 10.91707238 0 3028.55650640 0 -36.99109740 0 125.17140148 0 25452
0.15450000 0.15450400 9839.94716465 0 104.47514859 0 3249.81875191 0 103.80168444 0 153.34573169 0 26061
0.15550000 0.15549900 9673.90436551 0 174.81178343 0 3151.91325649 0 -16.78453675 0 83.88632481 0 26128
0.15650000 0.15649500 9455.43220144 0 192.83197475 0 3359.06032623 0 -112.42380500 0 578.77603085 0 26331
0.15750000 0.15749700 9340.81917113 0 141.19899133 0 3427.45027512 0 194.69935209 0 502.73313024 0 27345
0.15850000 0.15849900 9172.42567345 0 15.57403685 0 3558.47425687 0 -164.60821396 0 213.30172576 0 26980
0.15950000 0.15949700 8930.36963205 0 155.22958589 0 3469.04885149 0 169.63914820 0 356.14620606 0 27777
0.16050000 0.16050000 8953.04178986 0 75.30913116 0 3577.30181428 0 137.88824116 0 407.90221669 0 28224
0.16150000 0.16150500 9054.16576504 0 -75.76971429 0 3119.55270567 0 -4.76998474 0 243.98273543 0 28075
0.16250000 0.16249700 8949.54869578 0 -67.75273384 0 2912.52646623 0 605.78160254 0 501.71266345 0 28590
0.16350000 0.16349900 9010.93048736 0 56.92787694 0 2742.41937523 0 297.81812565 0 231.13408088 0 29163
0.16450000 0.16449100 8963.38925723 0 102.20892142 0 2526.16609482 0 137.73335868 0 1025.03307963 0 28996
0.16550000 0.16550500 9028.02248230 0 63.17491321 0 2541.39071242 0 301.11020206 0 578.60467152 0 30777
0.16650000 0.16650700 8717.32384684 0 69.20500418 0 2166.59709594 0 -234.26907790 0 1080.02294843 0 29211
0.16750000 0.16749900 8539.79118478 0 194.37530720 0 2610.86813400 0 -42.57686240 0 721.91489770 0 30922
0.16850000 0.16850800 8440.21603433 0 9.26590439 0 2371.09688369 0 -180.59296398 0 579.38347772 0 30867
0.16950000 0.16949900 8435.32789953 0 111.29678785 0 2652.29095720 0 354.24367809 0 926.72445040 0 30852
0.17050000 0.17049200 8370.17839955 0 -72.10888578 0 2340.03251243 0 115.16665277 0 878.68232376 0 31257
0.17150000 0.17149500 8448.34461804 0 93.79924250 0 2261.16328130 0 89.91213180 0 583.26981950 0 32608
0.17250000 0.17250900 8310.14771039 0 165.13876882 0 2476.55976504 0 -61.72330195 0 613.68500252 0 32361
0.17350000 0.17350400 8148.96009233 0 131.79290183 0 2510.97443094 0 -251.97181507 0 432.76909210 0 32508
0.17450000 0.17449800 8060.65511335 0 174.24168411 0 2468.56299621 0 -2.85926227 0 650.19662332 0 32791
0.17550000 0.17549800 8054.10830809 0 -55.78086787 0 2471.78147597 0 38.28881480 0 466.28082613 0 33633
0.17650000 0.17650100 7868.99629095 0 -48.88420398 0 2585.30703360 0 245.89185415 0 464.75616746 0 33984
0.17750000 0.17750300 7783.74502315 0 135.74295413 0 2200.49548693 0 166.20756773 0 470.76912249 0 34069
0.17850000 0.17849800 7805.40660028 0 57.31464374 0 2058.61874747 0 170.61677516 0 518.43667521 0 34536
