### header ###
fiducial parameters:
Omega_m = 0.31
Omega_nu = 0
Omega_de = 0.69
Omega_k = 0
H_0 = 100
w_de = -1
zeff = 0
beta = 0
fgrowth = 0
b_1 = 2
gamma = 0.55
Lx = 3500 Ly = 3500 Lz = 3500
nx = 700 ny = 700 nz = 700
xoffset = -983.599254 yoffset = -42.9823471 zoffset = 800.977702
bins = 400 dk = 0.001
kx_ny = 0.628318531 ky_ny = 0.628318531 kz_ny = 0.628318531
############################
A(data) = 9.13216579 (not used)
A(ran) = 9.13894753 (used)
Ngal = 507864
weighted Ngal = 0
Nran = 25229228
weighted Nran = 0
SN(data) = 6711.44177
SN(ran) = 135.66138
SN(data+ran) = 6847.10315
############################
13 columns: k_central k_mean P_0(k) sigma^{lin}_{P_0(k)} P^img_1(k) sigma^{lin}_{P_1(k)} P_2(k) sigma^{lin}_{P_2(k)} P^img_3(k) sigma^{lin}_{P_3(k)} P_4(k) sigma^{lin}_{P_4(k)} N_modes
### header ###
0.00050000 0 0 0 0 0 0 0 0 0 0 0 0
0.00150000 0.00179520 19419.73571228 0 -16670.40704090 0 -40291.85161127 0 53272.54072210 0 -24934.21083957 0 3
0.00250000 0.00253879 32560.36019989 0 -12010.31196899 0 8142.21556477 0 -20431.85422993 0 30997.03583012 0 6
0.00350000 0.00331552 41740.82658048 0 -5250.43895615 0 4769.84193657 0 -74540.21107974 0 -72080.87512450 0 7
0.00450000 0.00420575 45800.50491509 0 -4103.40791806 0 6016.29434109 0 -18249.10981229 0 7431.96408623 0 24
0.00550000 0.00557378 41804.42725572 0 1635.13052074 0 14380.01381196 0 -747.63417595 0 4389.53406466 0 45
0.00650000 0.00659388 50102.72261230 0 6551.66043956 0 20266.42656685 0 17228.42332803 0 41461.59874546 0 40
0.00750000 0.00754703 65183.99153785 0 -5005.75760190 0 9996.29058620 0 3916.39556986 0 -24014.80211451 0 57
0.00850000 0.00846663 52030.62494605 0 -1288.79793182 0 19607.02267479 0 16452.25342943 0 17135.71353544 0 75
0.00950000 0.00948925 49212.64269603 0 -1295.45458281 0 8263.46327692 0 10715.54941425 0 11105.95210837 0 112
0.01050000 0.01054430 58092.13178789 0 -10597.34442871 0 4012.55451824 0 7767.38899457 0 1460.67353900 0 105
0.01150000 0.01145670 64412.10562256 0 -1089.73880288 0 -4033.26043755 0 -3956.66501294 0 -10806.00736946 0 144
0.01250000 0.01249090 80050.51206944 0 -2370.75636194 0 -5423.46794345 0 -14706.03592618 0 -21052.15304360 0 169
0.01350000 0.01339930 71544.71813680 0 730.22692378 0 2250.85975222 0 -22132.37591125 0 -24373.55825502 0 180
0.01450000 0.01448870 71154.76581017 0 247.25613806 0 9303.97691469 0 -8361.39074148 0 -28203.54917695 0 267
0.01550000 0.01550050 74564.37713942 0 4570.42800593 0 22540.67247409 0 -1542.69534247 0 -16749.38611776 0 238
0.01650000 0.01653350 71310.74674082 0 544.05599384 0 27443.74629150 0 -8198.50051467 0 -33428.25127954 0 315
0.01750000 0.01747870 73121.33383940 0 5057.11047872 0 27229.10774326 0 10489.37706480 0 -3490.19415371 0 297
0.01850000 0.01844180 73007.53366746 0 -1707.47491576 0 24395.96678308 0 9421.20427328 0 -13679.74730990 0 388
0.01950000 0.01947590 68475.62855758 0 -2917.39263188 0 23767.20984853 0 2076.88609167 0 14237.54390558 0 399
0.02050000 0.02045430 71897.21307094 0 632.98819191 0 29004.10482668 0 16963.80497455 0 21459.90037782 0 462
0.02150000 0.02154770 70322.24505423 0 2709.38876548 0 21908.62016776 0 739.56381047 0 16631.74134541 0 571
0.02250000 0.02255340 78229.05024400 0 1331.78056433 0 32066.60366236 0 2158.60032710 0 9930.37216614 0 510
0.02350000 0.02348930 74023.38693978 0 -3134.67846211 0 17678.90064959 0 4892.97899521 0 10196.56131350 0 555
0.02450000 0.02439640 73443.73104467 0 1051.60915453 0 34044.15626418 0 -10903.22083681 0 13252.55728221 0 592
0.02550000 0.02547300 70116.61385550 0 4008.18265835 0 30142.98531192 0 -3068.85890320 0 14169.54940130 0 837
0.02650000 0.02652900 67957.04688601 0 747.07506120 0 32022.88506349 0 9474.99572521 0 1624.38760876 0 723
0.02750000 0.02749970 68354.68841346 0 1986.20844501 0 33875.76276651 0 1943.52239596 0 7434.63333737 0 826
0.02850000 0.02848090 70329.93425503 0 -192.50792986 0 33709.56618335 0 13224.87615931 0 11141.76181498 0 831
0.02950000 0.02946900 67102.11760201 0 21.12509061 0 24948.93016683 0 4642.26711061 0 10965.66813193 0 996
0.03050000 0.03053250 63687.78290655 0 2736.96004266 0 22050.43099979 0 -543.96152651 0 7998.66917027 0 1041
0.03150000 0.03150510 61750.98306900 0 3293.35061305 0 27438.36385094 0 -2305.50800081 0 16395.46318919 0 1036
0.03250000 0.03246190 56627.77841707 0 964.96833830 0 23919.12648733 0 5634.93195021 0 11020.49213368 0 1059
0.03350000 0.03345080 57671.09312084 0 -248.76431988 0 24027.43437298 0 6122.84469513 0 11558.40665299 0 1302
0.03450000 0.03451200 57467.65883664 0 -1119.61354493 0 13881.75359967 0 5067.07348605 0 4089.96280122 0 1339
0.03550000 0.03553350 56874.71160869 0 1222.37422142 0 15519.44352582 0 1261.58914554 0 5169.31788763 0 1365
0.03650000 0.03647120 54141.74995046 0 3877.27950690 0 12402.24151869 0 -4195.45863629 0 7282.33223853 0 1308
0.03750000 0.03744890 49148.27310070 0 3124.61659363 0 15907.74816658 0 -4022.37472613 0 2299.96079165 0 1579
0.03850000 0.03847530 45638.92185242 0 2505.15260747 0 19528.15344366 0 831.64089168 0 -1948.56431478 0 1662
0.03950000 0.03950240 45024.99409085 0 1722.62264135 0 20235.12053500 0 666.58340870 0 1853.58071567 0 1683
0.04050000 0.04050350 42907.71772579 0 -1159.85003429 0 16757.84423865 0 4365.04945237 0 -2818.21292604 0 1822
0.04150000 0.04152450 43846.01991569 0 -602.70921759 0 11947.80975100 0 4552.52315262 0 -669.41742842 0 1887
0.04250000 0.04250150 43073.03554314 0 -218.23160193 0 12840.41611896 0 463.37101286 0 7203.53989940 0 1920
0.04350000 0.04349210 42802.70521191 0 923.07427693 0 12957.84119986 0 -874.00728967 0 -2095.28525075 0 2005
0.04450000 0.04448520 42670.67064949 0 3047.55981697 0 16083.28163643 0 -6282.82401021 0 -2392.23120134 0 2151
0.04550000 0.04548030 39224.15115636 0 1405.61886123 0 15423.87774437 0 -831.78039575 0 2795.31009221 0 2274
0.04650000 0.04648670 38364.27881470 0 -847.81897017 0 19356.24488276 0 3471.92680950 0 3028.69930585 0 2311
0.04750000 0.04749250 40027.01356633 0 255.47589373 0 18549.31818094 0 2402.78737559 0 -1612.10685661 0 2568
0.04850000 0.04851840 38563.20942414 0 688.85353115 0 19222.45278872 0 1601.18819146 0 4453.70593768 0 2493
0.04950000 0.04949480 38346.48380711 0 -266.81526800 0 15230.00003831 0 1169.96682564 0 4613.78411391 0 2644
0.05050000 0.05050630 39439.33893323 0 -377.87039526 0 16372.50543249 0 2119.58312530 0 5119.05248350 0 2829
0.05150000 0.05149060 39583.56637123 0 882.26109750 0 17615.40982007 0 1265.78525227 0 3459.47030420 0 2784
0.05250000 0.05249300 37709.26875167 0 799.93062755 0 15392.57171251 0 -2792.73970223 0 3158.42710803 0 3055
0.05350000 0.05348950 35764.66986760 0 2273.45501802 0 18061.16377542 0 -2456.35913607 0 809.92658860 0 3009
0.05450000 0.05448610 35071.32364626 0 1714.10959760 0 18220.00069495 0 -142.02173582 0 -1202.90955881 0 3336
0.05550000 0.05550870 33290.39489365 0 -1120.60215646 0 17752.71697734 0 2942.94274770 0 1334.23012402 0 3349
0.05650000 0.05647670 34484.41793324 0 -568.87673404 0 14866.85006877 0 4135.21924025 0 -930.59761069 0 3324
0.05750000 0.05747970 34505.28862114 0 422.55783343 0 15664.43988390 0 121.31142267 0 -2640.02118963 0 3639
0.05850000 0.05849280 33827.87003005 0 446.31966084 0 12351.38294764 0 487.53377716 0 535.41443059 0 3846
0.05950000 0.05951020 33909.92478724 0 -150.09979050 0 12993.10167784 0 251.34130061 0 -1553.18560928 0 3787
0.06050000 0.06049470 33488.00735439 0 -354.77533140 0 11533.91105614 0 561.47313212 0 -2370.91014596 0 3930
0.06150000 0.06148310 32895.38966362 0 1451.98474209 0 12946.08770719 0 -157.15518146 0 -2351.07200788 0 4083
0.06250000 0.06249100 32173.26386213 0 320.84398670 0 14553.78975020 0 -1469.02181417 0 -1450.07342646 0 4303
0.06350000 0.06350600 31998.93869526 0 200.26962885 0 12423.66143522 0 837.76808626 0 -4336.86303913 0 4470
0.06450000 0.06451750 32431.29147206 0 -112.35350373 0 13481.58562053 0 1993.12872574 0 -2281.16618797 0 4479
0.06550000 0.06550280 32115.81454752 0 315.25723308 0 11002.80697183 0 773.84446458 0 -2808.55748674 0 4636
0.06650000 0.06648880 31129.61962117 0 694.27222080 0 11667.37361300 0 1662.35029160 0 -335.76652855 0 4653
0.06750000 0.06749660 31377.10204143 0 -350.89997420 0 9627.57143836 0 334.96026092 0 -2993.52670444 0 5220
0.06850000 0.06852730 29084.95128088 0 1380.89258835 0 10087.84699867 0 82.49875361 0 -735.23698733 0 5029
0.06950000 0.06949320 28889.97511756 0 881.53282034 0 10817.21163349 0 713.83135074 0 744.72436267 0 5040
0.07050000 0.07048030 28131.27068937 0 -67.65881574 0 8927.60151976 0 1319.76344193 0 -1240.03741414 0 5475
0.07150000 0.07148790 28680.38947271 0 -60.47490527 0 9920.43112795 0 79.81445360 0 -1570.71698712 0 5509
0.07250000 0.07249820 27971.44515831 0 113.44427179 0 7762.01753858 0 1056.40062509 0 -915.67946267 0 5916
0.07350000 0.07351270 28508.92029471 0 -270.43688158 0 7327.32504782 0 650.04393776 0 -96.15883853 0 5721
0.07450000 0.07449140 27446.60228037 0 147.46568999 0 5749.79762570 0 609.12091261 0 -67.24414813 0 6028
0.07550000 0.07549160 27624.33266474 0 864.47597604 0 6575.33219347 0 1248.06713669 0 145.13146832 0 6183
0.07650000 0.07648840 26741.50256638 0 480.67281313 0 6343.08537539 0 1216.83799684 0 2464.42181234 0 6330
0.07750000 0.07749960 26022.78198238 0 77.56733959 0 6264.86423404 0 -213.76527472 0 3979.50193934 0 6583
0.07850000 0.07848650 25767.83005277 0 486.31998189 0 6786.26894075 0 -145.36214434 0 1568.53105718 0 6549
0.07950000 0.07947320 24544.03882148 0 1154.18199484 0 6484.29205592 0 -882.84327985 0 2526.80320003 0 6828
0.08050000 0.08048110 24469.89295656 0 247.26053189 0 8016.18956354 0 -557.76803579 0 1834.74217369 0 7147
0.08150000 0.08149960 23490.61831093 0 255.64615460 0 8724.03542068 0 -110.29609329 0 1390.80067281 0 7386
0.08250000 0.08250610 23306.95625737 0 356.32195922 0 7915.34020267 0 -205.78388428 0 817.34776583 0 7227
0.08350000 0.08350160 22757.61778258 0 348.33617496 0 8091.43388572 0 839.06206891 0 1674.05984597 0 7798
0.08450000 0.08449610 22287.36823037 0 349.94431638 0 7951.66618420 0 407.03882929 0 335.58198773 0 7371
0.08550000 0.08548940 22212.89282827 0 614.84167801 0 7596.43609149 0 769.82191410 0 1509.91737789 0 8256
0.08650000 0.08650700 21400.69353160 0 131.41503253 0 7795.50950038 0 -1182.98354415 0 261.68547261 0 8037
0.08750000 0.08749060 21021.28639464 0 424.07809828 0 8151.62934347 0 -212.27356976 0 327.55885592 0 8155
0.08850000 0.08849210 20342.22011766 0 385.55190686 0 7411.62065781 0 44.92327695 0 -560.49770208 0 8718
0.08950000 0.08949900 19997.30453861 0 277.66033651 0 8382.84361173 0 -231.04730276 0 -511.53396980 0 8571
0.09050000 0.09049190 19796.83608900 0 382.99469836 0 8042.12413941 0 -129.93321369 0 -1684.36337505 0 8932
0.09150000 0.09150830 19477.18502688 0 241.06413450 0 8407.87745265 0 448.84940790 0 -1451.19385287 0 9285
0.09250000 0.09250820 18493.29686077 0 245.34811781 0 8190.61359156 0 420.53337670 0 -88.98821940 0 9204
0.09350000 0.09350330 19226.95646348 0 364.09574124 0 7796.05872901 0 915.90464640 0 -932.63524890 0 9349
0.09450000 0.09448040 19289.23899002 0 -183.46542971 0 7463.10534950 0 512.54564893 0 -339.97471831 0 9564
0.09550000 0.09549270 18487.36519158 0 -19.85428540 0 6870.88310335 0 159.00718040 0 -244.28261426 0 10155
0.09650000 0.09649430 17996.35479719 0 101.09915005 0 5912.59997592 0 347.87482291 0 730.32139110 0 9913
0.09750000 0.09749140 17999.32063179 0 323.87572873 0 6474.68055491 0 878.01665866 0 342.75930746 0 10476
0.09850000 0.09850240 17224.24919045 0 552.53388696 0 5813.16762492 0 955.82478008 0 895.25364995 0 10575
0.09950000 0.09950330 17685.49139314 0 293.39903210 0 6097.50328619 0 -377.76494336 0 289.92461180 0 10882
0.10050000 0.10051200 16346.47199547 0 195.36831256 0 5513.22288601 0 -472.51896490 0 293.99110057 0 10875
0.10150000 0.10150300 16065.48662884 0 398.29510951 0 6310.15362679 0 -352.23020594 0 150.09319975 0 11118
0.10250000 0.10250800 15635.66030374 0 488.19394998 0 5919.92668584 0 -283.82158327 0 -296.93606448 0 11575
0.10350000 0.10349800 15910.27461827 0 -63.66383654 0 6573.06937152 0 790.24882528 0 435.88980917 0 11364
0.10450000 0.10450100 15651.69777970 0 -90.97115444 0 6066.85632868 0 568.57795367 0 -611.94614468 0 12093
0.10550000 0.10551000 15625.44465123 0 -141.76689373 0 5097.72044355 0 736.59358204 0 403.98621657 0 12067
0.10650000 0.10649700 16004.41240529 0 -217.19575674 0 4857.85033209 0 728.93074421 0 -535.25515429 0 12054
0.10750000 0.10749900 15735.72975995 0 165.70117893 0 5179.53354014 0 -570.94293215 0 956.99244015 0 12807
0.10850000 0.10850100 15457.92991937 0 554.41115041 0 4788.93312372 0 25.55934287 0 856.41549668 0 12736
0.10950000 0.10950300 15364.67089815 0 -25.88152038 0 5132.48661577 0 393.03349925 0 928.50834498 0 12933
0.11050000 0.11050200 15067.42836410 0 283.44700935 0 5145.43742684 0 351.65241742 0 413.87343035 0 13428
0.11150000 0.11150900 14801.93124481 0 349.27974974 0 5375.38846926 0 115.38085194 0 1459.52015888 0 13453
0.11250000 0.11250000 14763.48524078 0 147.78973488 0 5205.85257604 0 -359.37127657 0 1189.55231855 0 13668
0.11350000 0.11349100 14077.60852880 0 113.42340110 0 5691.44757614 0 238.39488336 0 1562.90695602 0 13791
0.11450000 0.11448600 14088.37340993 0 130.32755985 0 5209.19188611 0 21.70408743 0 1174.99775988 0 14205
0.11550000 0.11549300 13871.97733008 0 54.91275710 0 5184.55348981 0 233.89340552 0 585.59635197 0 14776
0.11650000 0.11649800 14507.32500818 0 70.74405264 0 5447.30446595 0 -73.60311719 0 271.48810518 0 14553
0.11750000 0.11747300 13756.41962652 0 143.24761412 0 5239.30059955 0 -557.18365653 0 4.62026501 0 14568
0.11850000 0.11849100 13992.14855411 0 2.65020389 0 5298.33169260 0 -39.56104800 0 -17.62562547 0 16015
0.11950000 0.11950300 13821.66798765 0 -23.30552826 0 5481.09301121 0 363.68272131 0 -433.45452943 0 15270
0.12050000 0.12050700 13911.74148282 0 275.76439928 0 5456.85005952 0 480.36963893 0 -4.73676739 0 15999
0.12150000 0.12150000 13536.61832917 0 175.36430743 0 5044.20360593 0 77.81141679 0 520.22606208 0 15670
0.12250000 0.12250700 13366.68699133 0 57.41163752 0 5176.74345870 0 475.02784128 0 630.19811048 0 16887
0.12350000 0.12352200 13389.97428521 0 -131.14261513 0 4740.16162145 0 93.18948887 0 1150.42527102 0 16407
0.12450000 0.12449800 13222.13001616 0 196.68316590 0 4857.12535030 0 175.42362412 0 283.07792771 0 16306
0.12550000 0.12549900 13266.61753512 0 208.10821984 0 4632.61167131 0 166.83918065 0 761.11004959 0 17523
0.12650000 0.12650100 12898.19497074 0 214.29692803 0 4921.74759080 0 -740.61832944 0 459.01013754 0 17154
0.12750000 0.12750600 12877.76366574 0 90.50694640 0 4763.33906960 0 390.40928486 0 499.77388639 0 18007
0.12850000 0.12850300 12716.40029452 0 100.92394612 0 5053.61738464 0 267.15908512 0 247.59116753 0 17496
0.12950000 0.12949900 12433.76724200 0 173.07841788 0 4776.68532529 0 697.55001726 0 872.85061417 0 18405
0.13050000 0.13049000 12645.54980137 0 -227.18842241 0 3874.29170316 0 599.68626322 0 1178.23820879 0 18100
0.13150000 0.13148800 12271.63495070 0 293.51107475 0 4158.82508673 0 -89.83908439 0 695.77491033 0 19059
0.13250000 0.13249300 11996.58125326 0 306.77933997 0 4128.04631436 0 -233.41777352 0 1630.50601568 0 18957
0.13350000 0.13349100 11708.12637728 0 59.65820230 0 4033.13960726 0 531.85762599 0 1313.33746697 0 19468
0.13450000 0.13450700 11868.28144551 0 -62.89304908 0 3875.76363588 0 362.25143150 0 1254.11963618 0 19953
0.13550000 0.13551000 11747.45114712 0 41.93470429 0 3304.32420106 0 251.24353791 0 992.31113637 0 19956
0.13650000 0.13649900 11900.90562608 0 90.63096223 0 3375.19666335 0 -438.99954167 0 1040.28845403 0 19723
0.13750000 0.13749600 11450.31845879 0 182.27909587 0 3340.19981511 0 -309.65180570 0 915.53556477 0 20946
0.13850000 0.13851100 11382.65349169 0 256.00425167 0 3935.28903470 0 -283.39867723 0 192.54308049 0 20955
0.13950000 0.13949800 11442.29972081 0 57.54378192 0 3810.96564223 0 79.02696960 0 18.85106439 0 20506
0.14050000 0.14048300 11235.02083620 0 18.68596626 0 4213.56121190 0 216.80470595 0 -222.57709884 0 21447
0.14150000 0.14148400 11134.84153426 0 171.43512582 0 4237.26591954 0 -206.21447953 0 559.40363865 0 21771
0.14250000 0.14249400 10858.67839499 0 106.71336510 0 3850.77373326 0 679.23543940 0 446.64480419 0 22470
0.14350000 0.14350900 11131.65600821 0 -86.17221437 0 4031.16238419 0 126.04137963 0 1016.26189842 0 22519
0.14450000 0.14449900 10798.31816865 0 152.11106573 0 3664.43144399 0 339.70449782 0 916.50550253 0 22218
0.14550000 0.14550500 10700.81910242 0 304.75708015 0 3891.96588044 0 3.18347193 0 1004.15909635 0 23559
0.14650000 0.14650700 10579.01117707 0 67.51667537 0 3647.47126393 0 -294.39643130 0 1087.52541150 0 23044
0.14750000 0.14750500 10267.03833118 0 -18.34775127 0 3905.32312070 0 332.55024570 0 915.45867276 0 23649
0.14850000 0.14849900 10238.31367388 0 62.41291341 0 3252.07058929 0 258.25608905 0 764.01876441 0 23640
0.14950000 0.14949500 10190.88228948 0 15.70574188 0 3111.52298311 0 35.82761147 0 805.52726728 0 24457
0.15050000 0.15050000 10054.91525007 0 330.62025630 0 3320.61432219 0 71.53779786 0 312.08708544 0 24591
0.15150000 0.15149900 9953.68142916 0 41.20532867 0 2835.31590555 0 -98.99736193 0 526.76188277 0 25020
0.15250000 0.15250500 9536.88280713 0 102.54702656 0 3274.99539226 0 173.15530989 0 51.30674161 0 25297
0.15350000 0.15350100 9521.36160607 0 179.90423128 0 3034.55408303 0 -114.75143593 0 281.05017561 0 25452
0.15450000 0.15450400 9577.40489538 0 82.33046995 0 3053.55739360 0 126.09190866 0 361.20899556 0 26061
0.15550000 0.15549900 9480.97133269 0 -113.13340839 0 3123.46321350 0 76.87750843 0 457.03181602 0 26128
0.15650000 0.15649500 9470.62386532 0 28.52968114 0 2857.24111242 0 131.62813324 0 237.10529454 0 26331
0.15750000 0.15749700 9486.55149556 0 72.06373919 0 2883.77983978 0 155.95676460 0 299.81512095 0 27345
0.15850000 0.15849900 9524.40433268 0 42.46602806 0 2800.40693389 0 -119.62419233 0 269.40982404 0 26980
0.15950000 0.15949700 9268.93612815 0 232.95202765 0 3063.80599982 0 -246.34661545 0 103.05253659 0 27777
0.16050000 0.16050000 9077.93638011 0 310.92491766 0 3520.61043518 0 -216.44990426 0 169.24919588 0 28224
0.16150000 0.16150500 8860.24412069 0 -33.49163226 0 3134.67846211 0 273.97720932 0 337.47572804 0 28075
0.16250000 0.16249700 8775.36632836 0 87.82385470 0 3187.32751849 0 386.17583058 0 430.04931193 0 28590
0.16350000 0.16349900 8756.60467839 0 1.61587457 0 2686.35411678 0 286.47984984 0 348.05277298 0 29163
0.16450000 0.16449100 8865.46179267 0 54.79851755 0 2882.62645966 0 -94.01003644 0 375.06713233 0 28996
0.16550000 0.16550500 8504.37692277 0 133.83163850 0 2490.47721851 0 255.35176805 0 763.02905442 0 30777
0.16650000 0.16650700 8383.25004092 0 155.74805772 0 2644.96424729 0 -44.15479625 0 581.69243487 0 29211
0.16750000 0.16749900 8332.12784013 0 39.83709031 0 2614.67978068 0 -80.88775619 0 226.65567064 0 30922
0.16850000 0.16850800 8286.16838845 0 214.63744978 0 2906.23230614 0 234.85894945 0 562.68692739 0 30867
0.16950000 0.16949900 8031.94144062 0 -91.78939525 0 2456.94131841 0 -18.77153608 0 667.93011730 0 30852
0.17050000 0.17049200 8157.00079946 0 64.40309827 0 2735.86158540 0 159.60034732 0 285.32427280 0 31257
0.17150000 0.17149500 8001.16266825 0 170.14224163 0 2537.18362112 0 -302.75019874 0 230.85836811 0 32608
0.17250000 0.17250900 8071.18931846 0 39.93276593 0 2581.96772354 0 52.91169751 0 203.14758686 0 32361
0.17350000 0.17350400 7805.08804767 0 -147.63375395 0 2413.37650356 0 339.47821563 0 414.45451424 0 32508
0.17450000 0.17449800 8038.46627674 0 61.25986283 0 2139.47618624 0 386.78986819 0 216.60368827 0 32791
0.17550000 0.17549800 8059.41385665 0 -21.97749344 0 1949.05862054 0 194.70374592 0 209.74821653 0 33633
0.17650000 0.17650100 7997.87828105 0 138.10244032 0 1884.39244176 0 -26.56377218 0 230.24103513 0 33984
0.17750000 0.17750300 7800.61732663 0 101.98340814 0 1895.67359780 0 -102.02899412 0 297.57646506 0 34069
0.17850000 0.17849800 7684.24676471 0 128.50741617 0 2059.82705045 0 -170.30810867 0 457.27347662 0 34536
