### header ###
fiducial parameters:
Omega_m = 0.31
Omega_nu = 0
Omega_de = 0.69
Omega_k = 0
H_0 = 100
w_de = -1
zeff = 0
beta = 0
fgrowth = 0
b_1 = 2
gamma = 0.55
Lx = 3500 Ly = 3500 Lz = 3500
nx = 700 ny = 700 nz = 700
xoffset = -983.599254 yoffset = -42.9823471 zoffset = 800.977702
bins = 400 dk = 0.001
kx_ny = 0.628318531 ky_ny = 0.628318531 kz_ny = 0.628318531
############################
A(data) = 9.05145038 (not used)
A(ran) = 9.04546981 (used)
Ngal = 502425
weighted Ngal = 0
Nran = 25229228
weighted Nran = 0
SN(data) = 6767.56473
SN(ran) = 134.273768
SN(data+ran) = 6901.8385
############################
13 columns: k_central k_mean P_0(k) sigma^{lin}_{P_0(k)} P^img_1(k) sigma^{lin}_{P_1(k)} P_2(k) sigma^{lin}_{P_2(k)} P^img_3(k) sigma^{lin}_{P_3(k)} P_4(k) sigma^{lin}_{P_4(k)} N_modes
### header ###
0.00050000 0 0 0 0 0 0 0 0 0 0 0 0
0.00150000 0.00179520 43072.81585169 0 -28523.96915915 0 -45258.08672102 0 8134.58128682 0 -127578.12133149 0 3
0.00250000 0.00253879 50721.37374008 0 -5106.60696277 0 -15963.00056666 0 38664.59702907 0 79999.32396121 0 6
0.00350000 0.00331552 48995.47769610 0 12834.92383267 0 16660.96030848 0 -34162.02072798 0 56292.96864479 0 7
0.00450000 0.00420575 47624.71288367 0 6193.48648140 0 -2312.02185235 0 -26165.25188876 0 14864.54330853 0 24
0.00550000 0.00557378 53416.76816009 0 -15707.49940842 0 -8421.54226094 0 -2933.45207699 0 -35870.89068446 0 45
0.00650000 0.00659388 50763.88403597 0 -15826.02294657 0 -26659.11827202 0 -19924.25713094 0 10460.89406810 0 40
0.00750000 0.00754703 75364.05402334 0 6529.72424812 0 5076.02591270 0 -39349.04574661 0 -25215.85528055 0 57
0.00850000 0.00846663 67160.88506532 0 7431.63454905 0 -13527.61097965 0 -8043.49721098 0 -16904.15874543 0 75
0.00950000 0.00948925 71464.86029414 0 -2209.19526841 0 31737.06648492 0 -3914.86871427 0 -9745.35901015 0 112
0.01050000 0.01054430 73320.37429458 0 -1012.22946183 0 21150.68465965 0 11750.74651889 0 19703.02783916 0 105
0.01150000 0.01145670 71078.20333928 0 -6085.33237977 0 14833.78650530 0 21390.91726200 0 7560.03321796 0 144
0.01250000 0.01249090 79649.02594159 0 5086.15368862 0 20903.20223939 0 9689.59033516 0 1127.75311321 0 169
0.01350000 0.01339930 89022.82079961 0 4336.86303913 0 32483.13865464 0 -3860.97840119 0 25346.02246564 0 180
0.01450000 0.01448870 74523.95391232 0 -6593.75332169 0 26021.13429649 0 -5361.17443234 0 26149.43410424 0 267
0.01550000 0.01550050 79963.40440887 0 6632.21031030 0 38684.25941399 0 21401.46245168 0 9291.59730139 0 238
0.01650000 0.01653350 85975.15113692 0 6037.23093643 0 43413.44744744 0 -21061.38008456 0 9079.15566767 0 315
0.01750000 0.01747870 74903.91027791 0 -2279.22191862 0 44179.84107644 0 12215.39393908 0 24429.14019228 0 297
0.01850000 0.01844180 75086.14433703 0 3545.45753836 0 43469.46876760 0 9164.23118231 0 13496.30494779 0 388
0.01950000 0.01947590 75058.35336840 0 655.44175673 0 45310.70282369 0 22004.29579495 0 27281.39430875 0 399
0.02050000 0.02045430 78867.25391098 0 1231.56830868 0 47346.91304309 0 -1151.45782084 0 19549.90289737 0 462
0.02150000 0.02154770 69513.23128361 0 6949.68642705 0 38067.69535500 0 2397.14130528 0 24422.32975728 0 571
0.02250000 0.02255340 72611.32013445 0 265.67067554 0 54513.79742379 0 807.67365276 0 25849.66511850 0 510
0.02350000 0.02348930 60654.39318821 0 270.37976180 0 37051.73223695 0 6223.29861139 0 31498.37172273 0 555
0.02450000 0.02439640 65007.35961074 0 -1204.73299786 0 43469.68845905 0 16823.31229123 0 16927.55588503 0 592
0.02550000 0.02547300 65013.18143421 0 -461.27955024 0 34155.97921306 0 11735.91734591 0 25700.27493139 0 837
0.02650000 0.02652900 69664.15931088 0 1185.15848952 0 31128.30147246 0 13032.20675623 0 31768.48236250 0 723
0.02750000 0.02749970 68694.00186049 0 -968.52733981 0 23954.60665676 0 3920.93219834 0 30218.11978837 0 826
0.02850000 0.02848090 66651.85997190 0 5878.61370836 0 32780.60088015 0 -4747.54325423 0 31411.59359933 0 831
0.02950000 0.02946900 59626.12734887 0 4469.95212053 0 31945.77336397 0 -7672.06487371 0 20114.61977378 0 996
0.03050000 0.03053250 56664.79642667 0 1671.23681082 0 38360.65390574 0 1145.17464532 0 22824.73352105 0 1041
0.03150000 0.03150510 55149.03525617 0 -148.11707514 0 43799.22563649 0 3634.64128315 0 11442.73910371 0 1036
0.03250000 0.03246190 52205.16980437 0 635.24222621 0 35308.48056829 0 5675.22336244 0 12833.60568396 0 1059
0.03350000 0.03345080 53908.65732028 0 1127.78606693 0 35416.67860822 0 5584.15027117 0 17727.56230613 0 1302
0.03450000 0.03451200 53156.65348136 0 790.45972907 0 30996.59644721 0 6439.93635184 0 17266.86933207 0 1339
0.03550000 0.03553350 53340.53522637 0 -769.65604706 0 29002.01775789 0 6726.77649565 0 15651.91747116 0 1365
0.03650000 0.03647120 52518.23012293 0 -118.83989384 0 22977.41907993 0 1519.16638800 0 12211.10995578 0 1308
0.03750000 0.03744890 53719.61282616 0 900.33621169 0 21615.11238839 0 29.51631545 0 10421.04203878 0 1579
0.03850000 0.03847530 50555.28700265 0 2369.89956528 0 23873.76020257 0 -1817.05701183 0 12158.49385311 0 1662
0.03950000 0.03950240 45280.82478626 0 1881.78909806 0 23192.38716534 0 160.86467162 0 5321.73981677 0 1683
0.04050000 0.04050350 46481.98779803 0 772.48457450 0 21718.69690783 0 2824.78170045 0 4238.06779333 0 1822
0.04150000 0.04152450 45419.01070934 0 467.08709376 0 21146.29083062 0 3116.01567329 0 -318.21537848 0 1887
0.04250000 0.04250150 43888.74990303 0 1113.04477052 0 18632.14185820 0 217.26386109 0 5658.36204353 0 1920
0.04350000 0.04349210 40579.42772145 0 646.78371662 0 16648.76743291 0 1755.98278828 0 1126.33610335 0 2005
0.04450000 0.04448520 41179.29523012 0 928.88182045 0 18249.32950374 0 971.48218984 0 3351.57983230 0 2151
0.04550000 0.04548030 41999.95264767 0 967.31574146 0 15713.87046051 0 4347.07869163 0 340.03073963 0 2274
0.04650000 0.04648670 40688.83406436 0 -1729.20240033 0 12793.40214831 0 2169.01370191 0 5647.30057894 0 2311
0.04750000 0.04749250 40879.08686147 0 57.00213265 0 12741.99434863 0 403.09317082 0 2988.95712225 0 2568
0.04850000 0.04851840 39413.08580476 0 2550.62873796 0 12949.49292469 0 -4309.20388537 0 -716.52586640 0 2493
0.04950000 0.04949480 37258.90127584 0 2402.75442187 0 15939.93296424 0 -440.59010778 0 3197.64203215 0 2644
0.05050000 0.05050630 36864.33542871 0 -220.07151784 0 16699.84569542 0 -956.74968109 0 3391.69549137 0 2829
0.05150000 0.05149060 36171.75812746 0 -180.71489274 0 18159.91508293 0 1949.01468225 0 -1701.04894080 0 2784
0.05250000 0.05249300 34624.58107938 0 1361.38398744 0 17528.52185095 0 -296.35278367 0 -939.67745839 0 3055
0.05350000 0.05348950 34821.09508286 0 197.30159733 0 16667.55105203 0 1119.49271463 0 2642.60256418 0 3009
0.05450000 0.05448610 34748.48705810 0 676.11801770 0 18874.35168362 0 3037.00364272 0 2196.96943913 0 3336
0.05550000 0.05550870 34856.90478947 0 -816.98088111 0 15176.28547838 0 2265.34840345 0 2036.51778744 0 3349
0.05650000 0.05647670 35018.92723505 0 -284.77284726 0 14110.23270936 0 2529.34063630 0 2543.02741373 0 3324
0.05750000 0.05747970 33355.64325478 0 1667.51304071 0 14451.52337947 0 -1755.18091448 0 3799.89319306 0 3639
0.05850000 0.05849280 33444.28875551 0 583.66855948 0 15513.73154808 0 -856.55719766 0 4290.18959023 0 3846
0.05950000 0.05951020 31258.13912037 0 -111.10126246 0 14041.79882218 0 3536.42821970 0 2757.47922424 0 3787
0.06050000 0.06049470 31552.41581983 0 -236.54508134 0 12732.43777049 0 2182.95312452 0 5597.22191254 0 3930
0.06150000 0.06148310 31894.47541001 0 517.58317392 0 10320.80781397 0 2519.15793751 0 1928.07808691 0 4083
0.06250000 0.06249100 32066.93319954 0 203.98241438 0 10642.68874432 0 469.17635947 0 3639.47449509 0 4303
0.06350000 0.06350600 31256.38158876 0 325.62337423 0 9087.36114338 0 236.51652145 0 3340.10095395 0 4470
0.06450000 0.06451750 30626.85573412 0 -116.08496304 0 8315.04682976 0 -59.69071664 0 4022.53949472 0 4479
0.06550000 0.06550280 30371.57426733 0 420.12694752 0 7600.56629078 0 879.09314677 0 3047.09846492 0 4636
0.06650000 0.06648880 30224.05145757 0 709.59240418 0 8690.23589085 0 -760.94088717 0 954.21334328 0 4653
0.06750000 0.06749660 28943.79952321 0 1817.49639474 0 10258.51430286 0 -2685.91473387 0 30.90861002 0 5220
0.06850000 0.06852730 27698.69822112 0 132.69693215 0 11062.89258385 0 -77.20528808 0 2358.68431667 0 5029
0.06950000 0.06949320 27512.07033296 0 -478.96910592 0 11470.63991807 0 1396.08425223 0 259.02610758 0 5040
0.07050000 0.07048030 27222.84653689 0 -113.47063477 0 10726.33626453 0 1482.02754810 0 891.47166161 0 5475
0.07150000 0.07148790 28158.84196655 0 -16.56034162 0 8974.92305844 0 2675.79794252 0 1872.13365876 0 5509
0.07250000 0.07249820 28423.02093713 0 -478.26499482 0 8445.36779887 0 -59.26111000 0 3406.99700097 0 5916
0.07350000 0.07351270 27962.21811734 0 -225.45725377 0 7467.42228652 0 543.92527742 0 1469.47218164 0 5721
0.07450000 0.07449140 27563.80766982 0 659.33029542 0 6605.80339781 0 -172.34354997 0 2201.61591333 0 6028
0.07550000 0.07549160 26840.36371961 0 1290.22592626 0 7749.92352417 0 -1029.71799983 0 -754.02060644 0 6183
0.07650000 0.07648840 25518.48025517 0 1340.90874415 0 8552.68707299 0 -1074.09237769 0 1039.69199174 0 6330
0.07750000 0.07749960 25437.08457234 0 -197.35322483 0 9248.48285401 0 1042.51173152 0 -872.69353478 0 6583
0.07850000 0.07848650 24892.46946376 0 374.64752166 0 8510.04496223 0 -179.99540323 0 -1100.02805201 0 6549
0.07950000 0.07947320 24363.78198542 0 82.37759377 0 7551.33343647 0 952.42285795 0 -770.79734415 0 6828
0.08050000 0.08048110 24258.98916299 0 -306.83645974 0 7838.71182434 0 555.13723066 0 -511.08799615 0 7147
0.08150000 0.08149960 23292.67631301 0 854.15487164 0 7533.93387350 0 -225.70001283 0 -890.13264221 0 7386
0.08250000 0.08250610 23479.08450972 0 759.78091631 0 7999.00969202 0 -151.73759027 0 1342.43559974 0 7227
0.08350000 0.08350160 22769.81065814 0 212.92385646 0 8258.21265123 0 -394.28354361 0 -508.98554896 0 7798
0.08450000 0.08449610 22615.91679628 0 -263.57042526 0 7902.09280814 0 1262.95123254 0 155.35481002 0 7371
0.08550000 0.08548940 22406.11145997 0 -303.70256119 0 8280.21475011 0 1250.73638783 0 1288.78694725 0 8256
0.08650000 0.08650700 22802.54468443 0 569.19528665 0 7056.08299707 0 423.59258017 0 960.20432917 0 8037
0.08750000 0.08749060 22580.21693539 0 334.67356358 0 6187.73056537 0 403.81485724 0 1316.02868725 0 8155
0.08850000 0.08849210 22209.04822786 0 -56.25034850 0 7004.77405854 0 138.75931776 0 841.65332958 0 8718
0.08950000 0.08949900 21528.44411072 0 146.78574495 0 6610.38396458 0 172.67748098 0 1461.66215054 0 8571
0.09050000 0.09049190 21081.81138957 0 329.54047281 0 5558.86378509 0 248.12172238 0 141.39231981 0 8932
0.09150000 0.09150830 20604.64155663 0 661.59860966 0 5661.26197069 0 -387.90260539 0 357.25345098 0 9285
0.09250000 0.09250820 19864.28136465 0 709.87910153 0 5573.39637461 0 121.95182326 0 -876.51946141 0 9204
0.09350000 0.09350330 19181.48033299 0 502.67491201 0 6475.15289153 0 -463.39078509 0 -180.59076707 0 9349
0.09450000 0.09448040 18312.27110463 0 428.91899941 0 6210.78718322 0 449.85010247 0 -769.96910738 0 9564
0.09550000 0.09549270 18046.44444816 0 161.34799282 0 6119.85689139 0 104.55863134 0 -687.04876587 0 10155
0.09650000 0.09649430 17591.24376039 0 319.22266379 0 5817.33077793 0 564.59384919 0 -333.04564992 0 9913
0.09750000 0.09749140 17184.04565480 0 267.75664587 0 5700.96021600 0 457.19548615 0 510.69694537 0 10476
0.09850000 0.09850240 17068.37810552 0 67.49888036 0 5626.57269048 0 157.17605215 0 501.18430551 0 10575
0.09950000 0.09950330 16979.18337616 0 114.02315877 0 6407.29020212 0 -34.07689029 0 710.39647490 0 10882
0.10050000 0.10051200 16733.45848752 0 342.42757336 0 6186.80786127 0 -780.51539551 0 1158.91634562 0 10875
0.10150000 0.10150300 16313.62812346 0 125.48226488 0 6877.39695489 0 -250.73824757 0 503.58333616 0 11118
0.10250000 0.10250800 16478.83609508 0 247.96793837 0 7358.74092540 0 -101.08607841 0 263.75935991 0 11575
0.10350000 0.10349800 16058.89588529 0 288.03087148 0 6934.25310257 0 172.75437299 0 450.12251987 0 11364
0.10450000 0.10450100 16225.42200563 0 -33.15649295 0 7266.42657743 0 866.28074131 0 426.71329724 0 12093
0.10550000 0.10551000 15949.59938811 0 40.67092921 0 7162.50153624 0 43.91379473 0 311.98822428 0 12067
0.10650000 0.10649700 15655.87191729 0 254.57515877 0 6431.95056757 0 -202.87626792 0 382.26202737 0 12054
0.10750000 0.10749900 15754.62322479 0 191.86313545 0 6911.42716075 0 488.36311239 0 92.25755773 0 12807
0.10850000 0.10850100 15423.54820719 0 -47.09360880 0 5799.81038466 0 697.18972328 0 197.43451066 0 12736
0.10950000 0.10950300 15777.25144431 0 -105.56745448 0 6029.30007503 0 539.68523241 0 -703.82660203 0 12933
0.11050000 0.11050200 15633.68308067 0 -76.63551830 0 4570.32914477 0 387.50057004 0 -192.23441400 0 13428
0.11150000 0.11150900 15484.73227647 0 70.96451301 0 4673.45231217 0 -13.35042982 0 -305.83027290 0 13453
0.11250000 0.11250000 15066.54959830 0 341.28188244 0 4002.10818971 0 -232.28087026 0 -188.82150730 0 13668
0.11350000 0.11349100 15455.07393050 0 129.49712616 0 4781.91398184 0 205.00397963 0 -1167.42938937 0 13791
0.11450000 0.11448600 14705.70638900 0 169.01412602 0 4177.27916867 0 466.51150216 0 -559.59257330 0 14205
0.11550000 0.11549300 14737.45180376 0 13.84012207 0 4119.36850202 0 201.30437558 0 -598.08471254 0 14776
0.11650000 0.11649800 14549.50576689 0 129.63003949 0 4190.14210316 0 397.71402562 0 -6.30239852 0 14553
0.11750000 0.11747300 14230.84331631 0 523.23693343 0 4331.22795340 0 -479.51613764 0 417.72352304 0 14568
0.11850000 0.11849100 13642.18007167 0 197.11815497 0 4673.01292926 0 36.38266192 0 505.85055194 0 16015
0.11950000 0.11950300 13731.15510958 0 104.98494260 0 4732.65915838 0 609.19231233 0 1152.54529352 0 15270
0.12050000 0.12050700 13521.56946473 0 283.98745032 0 4986.97398278 0 116.32222981 0 1048.80479315 0 15999
0.12150000 0.12150000 13333.62342786 0 -52.67849504 0 4603.16203222 0 -292.14788929 0 1604.88999242 0 15670
0.12250000 0.12250700 13258.04956850 0 53.26847643 0 5281.52529655 0 327.04367946 0 1246.36452794 0 16887
0.12350000 0.12352200 13225.20569649 0 87.30944717 0 4477.70722877 0 -52.08906287 0 1272.52977983 0 16407
0.12450000 0.12449800 13316.37764891 0 110.64759961 0 4980.76769928 0 -10.87034401 0 924.98229719 0 16306
0.12550000 0.12549900 13291.99189778 0 92.01194269 0 4791.54745199 0 252.72206138 0 1052.74605779 0 17523
0.12650000 0.12650100 13183.46432068 0 -211.82320229 0 4452.69535700 0 381.43049523 0 735.28422099 0 17154
0.12750000 0.12750600 13265.18954068 0 138.31883640 0 4131.02313353 0 216.79042601 0 854.61512523 0 18007
0.12850000 0.12850300 12847.00686251 0 293.57478527 0 4260.33352196 0 -61.80217118 0 518.11592569 0 17496
0.12950000 0.12949900 12557.45352927 0 109.41117612 0 3841.21715512 0 184.08715652 0 1039.18779986 0 18405
0.13050000 0.13049000 12438.05122531 0 193.74259582 0 4013.89463609 0 289.33803562 0 17.31695898 0 18100
0.13150000 0.13148800 12003.83107117 0 308.55005307 0 3935.48675701 0 -103.24663399 0 519.53732938 0 19059
0.13250000 0.13249300 11931.44273786 0 37.95653148 0 3920.09737082 0 -270.59835480 0 411.58314696 0 18957
0.13350000 0.13349100 11981.53238883 0 9.57625152 0 3990.20091304 0 -157.56490602 0 -393.67280137 0 19468
0.13450000 0.13450700 12066.99236351 0 126.68837095 0 3545.35867721 0 287.00710932 0 -510.35752207 0 19953
0.13550000 0.13551000 11729.10691091 0 -34.58152155 0 3801.95829271 0 -116.82092940 0 -657.75071388 0 19956
0.13650000 0.13649900 11545.77439452 0 167.98597003 0 3412.18171923 0 506.45580189 0 196.97315861 0 19723
0.13750000 0.13749600 11621.56794534 0 119.30893509 0 3506.14375309 0 587.91629370 0 467.34523122 0 20946
0.13850000 0.13851100 11406.70970564 0 -88.07397342 0 2956.06931194 0 516.16616405 0 107.88432053 0 20955
0.13950000 0.13949800 11358.70712346 0 245.76553156 0 2935.84671382 0 12.10774513 0 903.00106899 0 20506
0.14050000 0.14048300 11188.99547708 0 107.87740025 0 2902.43164402 0 -361.57258492 0 1072.29090779 0 21447
0.14150000 0.14148400 10734.27811050 0 138.98669841 0 2961.98999656 0 386.62619806 0 882.06886748 0 21771
0.14250000 0.14249400 10989.62548473 0 83.28360132 0 2880.66022117 0 131.03167095 0 691.63812030 0 22470
0.14350000 0.14350900 10724.67759407 0 153.62913367 0 2887.03127326 0 80.13531297 0 1489.36524259 0 22519
0.14450000 0.14449900 10518.61799702 0 115.97401886 0 2875.34368804 0 -46.99969070 0 651.39613865 0 22218
0.14550000 0.14550500 10433.66331267 0 176.45507549 0 2685.23369037 0 -409.08525516 0 875.01567343 0 23559
0.14650000 0.14650700 10133.94924979 0 212.10001352 0 3556.69475611 0 46.56623947 0 377.73638347 0 23044
0.14750000 0.14750500 10167.47416531 0 114.60314420 0 3275.06129970 0 -339.43647425 0 299.98867720 0 23649
0.14850000 0.14849900 9932.70089553 0 -6.81221450 0 3499.33331809 0 -178.69263292 0 -139.13279323 0 23640
0.14950000 0.14949500 9921.79321495 0 179.80427167 0 3574.01742707 0 -146.86153850 0 -721.54801298 0 24457
0.15050000 0.15050000 9597.56158607 0 38.23114580 0 3541.18453963 0 26.95460327 0 -194.57412796 0 24591
0.15150000 0.15149900 9664.85307770 0 68.78934795 0 3457.09763652 0 291.65687889 0 -302.84905990 0 25020
0.15250000 0.15250500 9825.75509687 0 55.33818960 0 3322.98698987 0 407.65835918 0 -683.20636238 0 25297
0.15350000 0.15350100 9802.67650988 0 -21.45814285 0 3078.97569455 0 156.78390291 0 -176.67916077 0 25452
0.15450000 0.15450400 9620.27768217 0 -65.91611330 0 3021.08699705 0 218.27334331 0 7.42256129 0 26061
0.15550000 0.15549900 9749.63200889 0 19.76794666 0 2829.58195866 0 95.12420164 0 203.88135631 0 26128
0.15650000 0.15649500 9614.30207468 0 339.10034633 0 2860.22891617 0 -25.77617833 0 -91.05958025 0 26331
0.15750000 0.15749700 9496.05315085 0 130.41543643 0 3136.95226863 0 -284.05775158 0 93.80890892 0 27345
0.15850000 0.15849900 9289.19167999 0 68.70773258 0 3021.69114854 0 -50.56319589 0 -377.21791164 0 26980
0.15950000 0.15949700 8919.26422917 0 74.43486903 0 3361.03754929 0 -27.33642702 0 -250.03962875 0 27777
0.16050000 0.16050000 8873.15099348 0 132.66837227 0 2730.39126825 0 205.78388428 0 -280.37023057 0 28224
0.16150000 0.16150500 8905.12708426 0 122.78225694 0 2713.50798020 0 333.38287630 0 23.64879616 0 28075
0.16250000 0.16249700 8741.94027399 0 -87.95380220 0 2314.93276408 0 747.81212602 0 231.05609042 0 28590
0.16350000 0.16349900 8880.06028963 0 -19.76838605 0 2013.27443185 0 523.56317523 0 84.68226694 0 29163
0.16450000 0.16449100 8815.40509542 0 150.65890524 0 1879.77892127 0 -316.58966174 0 -5.61571993 0 28996
0.16550000 0.16550500 8557.47634663 0 131.55014278 0 1771.32823618 0 -154.54085319 0 525.77217278 0 30777
0.16650000 0.16650700 8278.85266311 0 5.82029661 0 1783.53209631 0 42.56192338 0 340.54811300 0 29211
0.16750000 0.16749900 8449.21239927 0 155.97873374 0 2150.92211087 0 -131.51718906 0 1.48178589 0 30922
0.16850000 0.16850800 8327.34955105 0 122.47359045 0 2055.82866603 0 -160.83830865 0 -37.90918797 0 30867
0.16950000 0.16949900 8300.59113225 0 -15.30535421 0 2291.98599196 0 -76.68934271 0 -89.28326502 0 30852
0.17050000 0.17049200 8092.07099093 0 127.37600520 0 2483.46906120 0 23.46117966 0 170.58162453 0 31257
0.17150000 0.17149500 8096.03642164 0 132.07850072 0 2446.56089732 0 -6.96280201 0 227.48280896 0 32608
0.17250000 0.17250900 8090.86268795 0 35.09845554 0 2424.70159789 0 407.31564052 0 219.51240309 0 32361
0.17350000 0.17350400 8198.09408549 0 -110.70252247 0 2055.74078945 0 529.74968651 0 433.60941190 0 32508
0.17450000 0.17449800 8111.75534500 0 -62.02318078 0 2099.09689743 0 -12.71837752 0 661.31850306 0 32791
0.17550000 0.17549800 8035.40158099 0 270.50278902 0 1959.40608791 0 -274.69889574 0 586.96832508 0 33633
0.17650000 0.17650100 7784.66772724 0 129.99802267 0 2065.39622875 0 14.60365971 0 727.12488048 0 33984
0.17750000 0.17750300 7712.31234765 0 -18.96255780 0 2154.63489640 0 27.44396598 0 376.40834864 0 34069
0.17850000 0.17849800 7859.11017563 0 126.53788231 0 2149.32934785 0 -23.45766459 0 205.66195553 0 34536
