### header ###
fiducial parameters:
Omega_m = 0.31
Omega_nu = 0
Omega_de = 0.69
Omega_k = 0
H_0 = 100
w_de = -1
zeff = 0
beta = 0
fgrowth = 0
b_1 = 2
gamma = 0.55
Lx = 3500 Ly = 3500 Lz = 3500
nx = 700 ny = 700 nz = 700
xoffset = -983.599254 yoffset = -42.9823471 zoffset = 800.977702
bins = 400 dk = 0.001
kx_ny = 0.628318531 ky_ny = 0.628318531 kz_ny = 0.628318531
############################
A(data) = 9.08450969 (not used)
A(ran) = 9.09720954 (used)
Ngal = 504708
weighted Ngal = 0
Nran = 25229228
weighted Nran = 0
SN(data) = 6715.58041
SN(ran) = 135.041808
SN(data+ran) = 6850.62222
############################
13 columns: k_central k_mean P_0(k) sigma^{lin}_{P_0(k)} P^img_1(k) sigma^{lin}_{P_1(k)} P_2(k) sigma^{lin}_{P_2(k)} P^img_3(k) sigma^{lin}_{P_3(k)} P_4(k) sigma^{lin}_{P_4(k)} N_modes
### header ###
0.00050000 0 0 0 0 0 0 0 0 0 0 0 0
0.00150000 0.00179520 21819.86482131 0 -15004.70645466 0 -44712.92238381 0 52036.66646097 0 57034.75683121 0 3
0.00250000 0.00253879 24269.20481549 0 -2823.21090657 0 -5803.35840160 0 29072.42886814 0 178.52237205 0 6
0.00350000 0.00331552 45940.99759840 0 -25607.78483026 0 -2777.54803835 0 -19324.82900518 0 8113.67764520 0 7
0.00450000 0.00420575 58936.73557366 0 -19895.36770505 0 -13385.69030190 0 -22554.18349837 0 -23785.55408474 0 24
0.00550000 0.00557378 55839.41564290 0 17796.76511339 0 -1251.29660103 0 -7813.21663138 0 23818.17826530 0 45
0.00650000 0.00659388 47046.15544581 0 -937.60576800 0 -4899.66859991 0 -5263.03826090 0 -10656.22173774 0 40
0.00750000 0.00754703 64349.49355885 0 -3391.22315475 0 10130.63190887 0 -3224.57620412 0 -17368.80616562 0 57
0.00850000 0.00846663 62815.05861496 0 4708.85558960 0 28894.14925514 0 -14767.21999545 0 -1647.77376378 0 75
0.00950000 0.00948925 48938.35791867 0 4976.43977768 0 27914.76476379 0 -6780.65582416 0 4996.90403640 0 112
0.01050000 0.01054430 45574.22271991 0 -5052.13446734 0 31308.33861707 0 11193.27946039 0 -3161.83232553 0 105
0.01150000 0.01145670 47375.58277753 0 -1617.11582171 0 26056.61446593 0 16904.48828261 0 690.25296570 0 144
0.01250000 0.01249090 54793.57448743 0 1632.13173243 0 30932.44654334 0 9469.88789896 0 3764.59976136 0 169
0.01350000 0.01339930 71503.96537253 0 -70.97637635 0 40842.72792622 0 -11431.75453113 0 -10337.85587062 0 180
0.01450000 0.01448870 62006.15469007 0 414.45012041 0 27240.64154447 0 6570.70768842 0 11867.18298825 0 267
0.01550000 0.01550050 59898.10536598 0 -5454.57625300 0 31863.93829823 0 18272.06756898 0 28754.09595473 0 238
0.01650000 0.01653350 74009.87591551 0 -5357.26392450 0 31433.23320732 0 8312.83893067 0 21431.67002628 0 315
0.01750000 0.01747870 73673.19876589 0 8.27896251 0 33967.92333047 0 101.04433703 0 16247.83053369 0 297
0.01850000 0.01844180 76211.62364371 0 3517.78740003 0 35246.63742466 0 4541.81319435 0 24932.23361650 0 388
0.01950000 0.01947590 69979.52638969 0 9964.07283482 0 36868.39972057 0 462.00123666 0 26603.09695185 0 399
0.02050000 0.02045430 71269.77428509 0 49.23999428 0 47591.31978302 0 -8131.71431338 0 17214.14338367 0 462
0.02150000 0.02154770 74009.21684115 0 -3140.57717759 0 50332.30017925 0 5747.47988088 0 -3481.47240308 0 571
0.02250000 0.02255340 75068.67886663 0 394.89867967 0 53355.69393654 0 -1467.30822084 0 16600.87469646 0 510
0.02350000 0.02348930 70838.84950273 0 -183.75981626 0 52312.70876994 0 6760.37830318 0 12365.22350909 0 555
0.02450000 0.02439640 75137.44229098 0 -1182.47825381 0 43136.74606411 0 3642.06685422 0 7848.26840249 0 592
0.02550000 0.02547300 76657.92682769 0 3074.79057240 0 47267.38473760 0 364.92397801 0 -8715.57729980 0 837
0.02650000 0.02652900 68619.63630412 0 6747.02106292 0 49416.40651741 0 4126.35469018 0 6279.30894698 0 723
0.02750000 0.02749970 67070.92141588 0 -255.13756889 0 46831.62674330 0 3981.97346817 0 9324.99040204 0 826
0.02850000 0.02848090 65648.96849522 0 359.48441767 0 47272.21794954 0 10715.84599771 0 -4340.41105607 0 831
0.02950000 0.02946900 64014.68378657 0 3859.73714449 0 37382.69740883 0 5223.39493845 0 1777.57845798 0 996
0.03050000 0.03053250 63015.96644747 0 1668.63346711 0 34929.07343133 0 3461.45851183 0 7880.26646242 0 1041
0.03150000 0.03150510 56715.21561481 0 -2325.90635209 0 35956.57035059 0 1335.10888983 0 458.01273835 0 1036
0.03250000 0.03246190 57540.48655285 0 2139.16861821 0 30881.69781801 0 2057.25666047 0 -2837.22722118 0 1059
0.03350000 0.03345080 55123.77073923 0 2528.05544131 0 28756.73225215 0 -194.49174367 0 -63.47578066 0 1302
0.03450000 0.03451200 55736.16066064 0 1775.87584923 0 30454.83732750 0 -1133.93742757 0 -8435.67940585 0 1339
0.03550000 0.03553350 54438.44325588 0 2351.30268390 0 31611.62266604 0 1989.91024597 0 -7533.35169116 0 1365
0.03650000 0.03647120 51570.26150916 0 -821.49114661 0 31047.45501826 0 481.55048048 0 -8175.76244943 0 1308
0.03750000 0.03744890 52504.27971576 0 -2010.66010358 0 22862.84998790 0 7134.26020013 0 -6611.53734470 0 1579
0.03850000 0.03847530 55219.77590359 0 -2583.42867169 0 23125.60096405 0 6297.78499806 0 -5076.88270936 0 1662
0.03950000 0.03950240 53756.85052721 0 2287.44936348 0 18890.49900531 0 1143.66975888 0 -6374.89669758 0 1683
0.04050000 0.04050350 51737.99593248 0 3950.83220490 0 17408.35062691 0 1796.39503081 0 -64.07487924 0 1822
0.04150000 0.04152450 48946.59634811 0 601.29001082 0 16501.02493169 0 2982.69591588 0 -240.35123574 0 1887
0.04250000 0.04250150 47549.02917859 0 1016.88472369 0 17946.26514622 0 4313.53180697 0 6042.49254670 0 1920
0.04350000 0.04349210 44020.01554538 0 2277.53029444 0 16914.70393511 0 -2373.67825825 0 1034.54681794 0 2005
0.04450000 0.04448520 41889.33800177 0 2567.55596431 0 17319.26574328 0 -2910.18675227 0 3162.46943074 0 2151
0.04550000 0.04548030 39295.55087814 0 1167.24265164 0 20437.56620767 0 995.98767281 0 3090.24586602 0 2274
0.04650000 0.04648670 38840.02065319 0 -1346.02755497 0 19288.47006994 0 1518.92472740 0 2039.29688430 0 2311
0.04750000 0.04749250 38678.98681915 0 636.15943802 0 18492.08855779 0 2244.03833264 0 -373.33816061 0 2568
0.04850000 0.04851840 38452.04554962 0 2032.53038759 0 16023.96494449 0 2982.97053019 0 3403.95427437 0 2493
0.04950000 0.04949480 38859.24365521 0 -790.10053355 0 15098.62455023 0 1953.36457300 0 4059.56848889 0 2644
0.05050000 0.05050630 39106.39653829 0 -427.30426724 0 16880.76160583 0 1332.56046899 0 1304.78048493 0 2829
0.05150000 0.05149060 37830.64827869 0 927.15284873 0 13195.76704197 0 -180.47872443 0 5817.71523797 0 2784
0.05250000 0.05249300 35803.44540881 0 669.39765619 0 15757.36936794 0 -199.92361481 0 3286.60608548 0 3055
0.05350000 0.05348950 35151.84056328 0 1495.52758780 0 16449.94666919 0 -320.39142231 0 6622.06056524 0 3009
0.05450000 0.05448610 35620.88181251 0 873.13840997 0 17646.71585193 0 -1228.27293690 0 -999.89378682 0 3336
0.05550000 0.05550870 33859.17606191 0 52.72968315 0 15131.68811370 0 1327.69430333 0 4016.48699522 0 3349
0.05650000 0.05647670 33334.00364680 0 -463.21942576 0 15624.56588543 0 3045.24207215 0 1548.51716594 0 3324
0.05750000 0.05747970 33378.60101148 0 212.92934875 0 11666.49484719 0 1673.97196939 0 3238.39479642 0 3639
0.05850000 0.05849280 35774.88552010 0 95.11069062 0 12542.40466483 0 1545.96874510 0 299.71955517 0 3846
0.05950000 0.05951020 33261.61531348 0 276.33230169 0 10139.47448980 0 572.09631227 0 -1036.37684773 0 3787
0.06050000 0.06049470 33805.90088489 0 266.14740599 0 10257.63553706 0 1082.90090644 0 2374.66686978 0 3930
0.06150000 0.06148310 32666.91055393 0 65.98773271 0 9438.17543791 0 -962.55283079 0 194.69825363 0 4083
0.06250000 0.06249100 32066.60366236 0 806.09626814 0 9135.60538616 0 133.29998519 0 -2447.42867856 0 4303
0.06350000 0.06350600 31292.41098683 0 310.25705565 0 9042.29144208 0 694.62262867 0 -1193.18821208 0 4470
0.06450000 0.06451750 30297.31855668 0 1231.55732410 0 9505.88434331 0 67.76053288 0 576.31548660 0 4479
0.06550000 0.06550280 30506.79435581 0 -346.80163017 0 8519.10723461 0 1948.82794452 0 -83.94531197 0 4636
0.06650000 0.06648880 30728.35318478 0 -111.87677328 0 9714.81091380 0 692.38507123 0 -846.09329382 0 4653
0.06750000 0.06749660 29047.71357983 0 1153.67670450 0 7368.74787102 0 -1232.27132132 0 257.64534681 0 5220
0.06850000 0.06852730 28326.57638986 0 200.12573094 0 9508.38882585 0 -567.70138478 0 -283.68207920 0 5029
0.06950000 0.06949320 28160.59949816 0 177.14270973 0 9143.90972303 0 1617.97261837 0 233.72863693 0 5040
0.07050000 0.07048030 28996.30578015 0 357.42371185 0 10242.75144121 0 -768.11381307 0 -2803.38375306 0 5475
0.07150000 0.07148790 27343.12760666 0 285.41544475 0 7827.52952946 0 911.18237865 0 -242.71072193 0 5509
0.07250000 0.07249820 27618.95022417 0 -112.08987399 0 8737.33773808 0 -345.84267698 0 -916.43849663 0 5916
0.07350000 0.07351270 27146.17422027 0 695.76063039 0 7767.63065517 0 303.83437606 0 -452.41390171 0 5721
0.07450000 0.07449140 27005.68153696 0 375.76684961 0 7750.70342882 0 1235.31404793 0 -1768.71390790 0 6028
0.07550000 0.07549160 26207.76218465 0 -498.68311833 0 8640.76137594 0 -335.56001859 0 -2177.69151425 0 6183
0.07650000 0.07648840 26249.94294336 0 1459.92658807 0 9109.09961252 0 -840.31870402 0 -503.37133391 0 6330
0.07750000 0.07749960 25681.82084945 0 0.79239960 0 7629.09322578 0 -548.04778751 0 -1307.91108812 0 6583
0.07850000 0.07848650 25109.08523506 0 -182.76681089 0 8604.46834814 0 1363.65779397 0 -2179.03163211 0 6549
0.07950000 0.07947320 25112.27076111 0 568.87343867 0 8721.32223126 0 -452.61052556 0 -3144.56457743 0 6828
0.08050000 0.08048110 24424.30698034 0 540.01916341 0 8773.66371961 0 538.82953420 0 1283.66813643 0 7147
0.08150000 0.08149960 24056.65333604 0 -150.26236217 0 8908.58722462 0 806.65648134 0 -1319.18125958 0 7386
0.08250000 0.08250610 24554.25447398 0 649.63091783 0 8763.62382027 0 148.27744990 0 -667.57531560 0 7227
0.08350000 0.08350160 24133.54534411 0 85.96185980 0 7429.90997116 0 -625.26493893 0 -1494.24239281 0 7798
0.08450000 0.08449610 23225.34088309 0 229.93236864 0 9416.66764480 0 167.37962162 0 -405.11323371 0 7371
0.08550000 0.08548940 22781.89368798 0 605.56410801 0 8539.91201507 0 -357.07440244 0 294.75452836 0 8256
0.08650000 0.08650700 22503.76431022 0 -44.80804878 0 9134.32019117 0 1490.43074613 0 -86.26371586 0 8037
0.08750000 0.08749060 23003.23282549 0 -148.82997390 0 7637.71611525 0 1126.42397993 0 -1559.50173852 0 8155
0.08850000 0.08849210 22568.35359700 0 506.52390624 0 7885.76973328 0 59.03955117 0 298.53431979 0 8718
0.08950000 0.08949900 21431.34048910 0 759.13392498 0 7576.56499969 0 205.83331486 0 1863.32403155 0 8571
0.09050000 0.09049190 20776.98950043 0 220.92062530 0 7679.83096653 0 378.49102361 0 748.39760374 0 8932
0.09150000 0.09150830 20214.14000137 0 925.71826355 0 8591.16603074 0 -531.83016456 0 -704.07155800 0 9285
0.09250000 0.09250820 19190.04829961 0 863.15343350 0 8377.07671113 0 -596.54247855 0 1460.33301725 0 9204
0.09350000 0.09350330 18538.44345408 0 -158.15038374 0 8657.32611140 0 759.19873396 0 573.92194823 0 9349
0.09450000 0.09448040 18593.80569989 0 -194.94980034 0 7538.59133228 0 1080.22396611 0 555.33495297 0 9564
0.09550000 0.09549270 18986.39432395 0 -130.12764063 0 7205.26447730 0 1147.47042099 0 -770.96540811 0 10155
0.09650000 0.09649430 18654.22084909 0 108.64148712 0 6156.52339467 0 319.03922142 0 760.59377468 0 9913
0.09750000 0.09749140 18787.57356023 0 388.92526910 0 6386.33163764 0 -398.94649467 0 279.03230963 0 10476
0.09850000 0.09850240 17772.37936226 0 142.91038774 0 6160.22519563 0 61.87049522 0 741.50478445 0 10575
0.09950000 0.09950330 17919.68248057 0 612.37454301 0 6895.69725281 0 -295.86946248 0 -557.54065514 0 10882
0.10050000 0.10051200 17322.01188642 0 359.09336688 0 6837.12751181 0 -506.07903105 0 24.01754826 0 10875
0.10150000 0.10150300 16770.25680566 0 -126.80920125 0 7075.26206080 0 662.35984054 0 -190.18579122 0 11118
0.10250000 0.10250800 17172.18231641 0 248.65447415 0 6935.50534384 0 318.33840569 0 -285.44180773 0 11575
0.10350000 0.10349800 16588.24243799 0 222.29809070 0 6271.19134784 0 605.04673464 0 643.27853951 0 11364
0.10450000 0.10450100 16650.63481025 0 184.64517281 0 6103.88532286 0 709.87580615 0 615.03830186 0 12093
0.10550000 0.10551000 16443.46577137 0 53.83747729 0 5429.11401376 0 782.80567889 0 1280.84510127 0 12067
0.10650000 0.10649700 15818.44359149 0 88.20930335 0 5242.48612560 0 434.91437913 0 1415.42808454 0 12054
0.10750000 0.10749900 15535.37115607 0 534.00730684 0 5009.79992461 0 492.80197817 0 2475.30752377 0 12807
0.10850000 0.10850100 15011.40704394 0 321.89411184 0 4782.12268872 0 -154.09927337 0 1936.65703810 0 12736
0.10950000 0.10950300 14899.80378651 0 172.77853905 0 5501.84286882 0 78.23717883 0 1366.77741258 0 12933
0.11050000 0.11050200 14294.66368301 0 283.11637371 0 4520.05275607 0 -78.25222769 0 1240.36695131 0 13428
0.11150000 0.11150900 14341.56780793 0 -114.66355935 0 4749.45456986 0 490.93020701 0 1724.46804955 0 13453
0.11250000 0.11250000 14288.84185954 0 -248.13490387 0 4452.57452670 0 731.99763688 0 1466.56126991 0 13668
0.11350000 0.11349100 15029.31189725 0 -197.40595077 0 3593.85556516 0 805.40863389 0 1108.33238888 0 13791
0.11450000 0.11448600 14709.00176077 0 63.44623216 0 3563.05482364 0 -535.43420282 0 1489.25539686 0 14205
0.11550000 0.11549300 14392.75591616 0 527.72962361 0 3962.17926838 0 -952.89629303 0 640.71034644 0 14776
0.11650000 0.11649800 14243.03619187 0 455.65874445 0 4751.38785463 0 -557.09138612 0 613.00835285 0 14553
0.11750000 0.11747300 13777.94938878 0 63.55629757 0 4573.59156283 0 143.54749295 0 901.15346389 0 14568
0.11850000 0.11849100 13671.83841764 0 -124.58043147 0 4834.05774788 0 523.29185629 0 346.78735022 0 16015
0.11950000 0.11950300 13824.30428507 0 120.16792867 0 4460.08797435 0 525.67001625 0 280.32409536 0 15270
0.12050000 0.12050700 13879.11730225 0 109.73664901 0 4236.73866005 0 -170.93093394 0 -124.28274956 0 15999
0.12150000 0.12150000 13664.91813692 0 -59.45795354 0 3698.03325152 0 289.98612540 0 278.30732784 0 15670
0.12250000 0.12250700 13279.24979359 0 30.29632995 0 3546.40221160 0 8.89939314 0 -412.19059383 0 16887
0.12350000 0.12352200 13128.43161204 0 222.13661748 0 3728.87793133 0 57.77434810 0 93.80407571 0 16407
0.12450000 0.12449800 13082.51609865 0 364.26050983 0 3216.06316037 0 266.45826939 0 -361.92628815 0 16306
0.12550000 0.12549900 12789.44770218 0 186.86735184 0 3812.15197606 0 -424.95137180 0 -656.07666502 0 17523
0.12650000 0.12650100 12607.76287169 0 249.95285063 0 3415.05967725 0 165.80113854 0 -664.39528184 0 17154
0.12750000 0.12750600 12231.98064368 0 146.98676263 0 4120.08249924 0 -132.82105782 0 -494.86927473 0 18007
0.12850000 0.12850300 12095.99163512 0 109.54288115 0 4045.47528227 0 -183.26111666 0 -80.21055729 0 17496
0.12950000 0.12949900 12019.75870141 0 -140.62010436 0 3682.24842072 0 998.70196069 0 -63.78982959 0 18405
0.13050000 0.13049000 12228.79511763 0 -155.56241844 0 3470.79539853 0 129.63333486 0 170.49924024 0 18100
0.13150000 0.13148800 12045.35275552 0 213.65872437 0 3058.68718899 0 157.18813518 0 5.02323406 0 19059
0.13250000 0.13249300 12314.03540086 0 32.99820526 0 3280.70737001 0 12.86601017 0 10.53346914 0 18957
0.13350000 0.13349100 11962.85861544 0 -35.13767046 0 3033.75220923 0 168.54728169 0 619.39588180 0 19468
0.13450000 0.13450700 12258.34361788 0 177.38217342 0 2933.21041640 0 126.04687191 0 -145.22264027 0 19953
0.13550000 0.13551000 11803.36262156 0 154.13881783 0 2760.99428747 0 132.92211589 0 195.81538466 0 19956
0.13650000 0.13649900 11975.82041108 0 80.41728695 0 3001.27082811 0 78.03868760 0 -294.98959821 0 19723
0.13750000 0.13749600 11521.38864339 0 207.71167677 0 2649.44595290 0 -137.04133061 0 201.11544093 0 20946
0.13850000 0.13851100 11240.18358531 0 -42.94945910 0 2864.47994575 0 -55.68002949 0 345.17811034 0 20955
0.13950000 0.13949800 11224.36580079 0 199.75335393 0 2713.11253558 0 318.82612072 0 -33.68803642 0 20506
0.14050000 0.14048300 11035.21146094 0 233.26838334 0 2715.02385121 0 -25.34316648 0 -296.07048016 0 21447
0.14150000 0.14148400 10880.04338866 0 212.34496948 0 3074.92238727 0 -150.52928728 0 112.33702687 0 21771
0.14250000 0.14249400 10661.20873369 0 168.71095182 0 3263.37371447 0 -312.54404366 0 -113.38605356 0 22470
0.14350000 0.14350900 10618.18216289 0 17.54346087 0 3269.01978478 0 102.49111509 0 99.25967353 0 22519
0.14450000 0.14449900 10347.77493966 0 30.27974324 0 3579.33396020 0 -118.24343155 0 -242.61845152 0 22218
0.14550000 0.14550500 10362.54918978 0 139.01306139 0 3346.35117575 0 99.36391712 0 174.66678707 0 23559
0.14650000 0.14650700 10414.13274262 0 132.13452204 0 3504.78166609 0 133.60206094 0 387.88832545 0 23044
0.14750000 0.14750500 10404.42238046 0 17.87255866 0 3521.43427813 0 483.34755655 0 339.56609221 0 23649
0.14850000 0.14849900 10539.22505518 0 -192.28164766 0 2811.83088937 0 408.51845121 0 454.69539743 0 23640
0.14950000 0.14949500 10374.31366701 0 65.36007424 0 2938.23036607 0 289.06122439 0 979.89856935 0 24457
0.15050000 0.15050000 10364.75708887 0 200.90673406 0 2929.32187770 0 -144.98097967 0 1035.80015767 0 24591
0.15150000 0.15149900 10049.25819519 0 249.89243548 0 2719.05518935 0 -210.45781991 0 753.40876575 0 25020
0.15250000 0.15250500 9833.18066794 0 222.98242957 0 3213.49277038 0 -65.44037146 0 611.04431127 0 25297
0.15350000 0.15350100 9466.47169688 0 26.64154296 0 3289.12155260 0 30.33345780 0 1050.75345633 0 25452
0.15450000 0.15450400 9661.23915332 0 110.66407647 0 3176.06833160 0 340.73265382 0 1072.34583065 0 26061
0.15550000 0.15549900 9536.64114653 0 -37.56866622 0 2524.19985633 0 224.54114042 0 871.25345732 0 26128
0.15650000 0.15649500 9631.86640624 0 -92.94574121 0 2818.09209574 0 149.02879467 0 376.92901739 0 26331
0.15750000 0.15749700 9364.74357021 0 241.71771657 0 2603.82702297 0 -392.55896571 0 480.19059039 0 27345
0.15850000 0.15849900 9269.02400473 0 128.68866162 0 2855.03321333 0 -16.13776512 0 555.31737765 0 26980
0.15950000 0.15949700 9248.81239118 0 -14.39297561 0 2423.35049546 0 157.37267600 0 -87.58230395 0 27777
0.16050000 0.16050000 9038.34798053 0 111.56700834 0 2621.65498427 0 244.58029618 0 274.50007498 0 28224
0.16150000 0.16150500 8960.20373118 0 240.34794037 0 2500.51711784 0 -333.47624517 0 -103.18094625 0 28075
0.16250000 0.16249700 8795.72074135 0 276.42017827 0 2755.23837143 0 -58.66860216 0 138.26061817 0 28590
0.16350000 0.16349900 8627.64579628 0 24.73659838 0 2699.00834439 0 271.26182298 0 -22.76827282 0 29163
0.16450000 0.16449100 8614.78286179 0 2.04500886 0 2662.52857885 0 -3.71271963 0 -74.07896888 0 28996
0.16550000 0.16550500 8418.89497895 0 134.50718972 0 2577.88146253 0 -166.41297924 0 144.50974151 0 30777
0.16650000 0.16650700 8291.84741247 0 -126.47087642 0 2824.28739468 0 253.00875872 0 695.09166992 0 29211
0.16750000 0.16749900 8324.14205586 0 25.19586336 0 2572.97135859 0 426.13001643 0 71.47496610 0 30922
0.16850000 0.16850800 8485.03309046 0 113.40582579 0 2306.06821401 0 166.31301963 0 568.95801988 0 30867
0.16950000 0.16949900 8417.66470682 0 87.17356801 0 2334.24364268 0 68.00889407 0 526.23022945 0 30852
0.17050000 0.17049200 8388.76429636 0 4.45641913 0 2287.99859211 0 163.73933427 0 831.70350374 0 31257
0.17150000 0.17149500 8270.65817196 0 45.76030138 0 2279.90296212 0 173.48594552 0 864.56934490 0 32608
0.17250000 0.17250900 8274.35997292 0 162.04331626 0 2159.97339868 0 -341.12699997 0 600.03557263 0 32361
0.17350000 0.17350400 8071.55180935 0 -3.83105643 0 2303.04745655 0 12.19353464 0 700.11491496 0 32508
0.17450000 0.17449800 7921.45860960 0 82.38868819 0 2327.72979114 0 10.34012968 0 510.93091676 0 32791
0.17550000 0.17549800 7894.73314451 0 86.54459138 0 2086.94796016 0 151.59259391 0 669.45916980 0 33633
0.17650000 0.17650100 8004.39213259 0 29.59793082 0 2231.96628738 0 -60.69646410 0 189.31141924 0 33984
0.17750000 0.17750300 7866.29408610 0 134.15458494 0 2076.72132308 0 -52.12179690 0 274.19360540 0 34069
0.17850000 0.17849800 7799.29917792 0 -4.41072331 0 2140.87122696 0 104.11408569 0 143.26189406 0 34536
