### header ###
fiducial parameters:
Omega_m = 0.31
Omega_nu = 0
Omega_de = 0.69
Omega_k = 0
H_0 = 100
w_de = -1
zeff = 0
beta = 0
fgrowth = 0
b_1 = 2
gamma = 0.55
Lx = 3500 Ly = 3500 Lz = 3500
nx = 700 ny = 700 nz = 700
xoffset = -983.599254 yoffset = -42.9823471 zoffset = 800.977702
bins = 400 dk = 0.001
kx_ny = 0.628318531 ky_ny = 0.628318531 kz_ny = 0.628318531
############################
A(data) = 9.05948383 (not used)
A(ran) = 9.05618321 (used)
Ngal = 502670
weighted Ngal = 0
Nran = 25229228
weighted Nran = 0
SN(data) = 6742.79774
SN(ran) = 134.432801
SN(data+ran) = 6877.23054
############################
13 columns: k_central k_mean P_0(k) sigma^{lin}_{P_0(k)} P^img_1(k) sigma^{lin}_{P_1(k)} P_2(k) sigma^{lin}_{P_2(k)} P^img_3(k) sigma^{lin}_{P_3(k)} P_4(k) sigma^{lin}_{P_4(k)} N_modes
### header ###
0.00050000 0 0 0 0 0 0 0 0 0 0 0 0
0.00150000 0.00179520 40116.86737005 0 -23836.08311861 0 -13216.08850124 0 -22556.81979579 0 -42303.12685091 0 3
0.00250000 0.00253879 47154.46333146 0 1106.84947159 0 4177.98218131 0 -9025.72670663 0 57656.04425641 0 6
0.00350000 0.00331552 28289.44853454 0 12967.61746945 0 16491.46835355 0 -24284.47337138 0 32842.88340668 0 7
0.00450000 0.00420575 26940.76271300 0 -3503.96880772 0 17535.11259450 0 4488.46112533 0 2462.80708017 0 24
0.00550000 0.00557378 34959.72038883 0 724.24033172 0 23947.35683886 0 68.36138900 0 -14440.09942398 0 45
0.00650000 0.00659388 49224.72572587 0 2211.11756862 0 11725.81153913 0 10060.56132037 0 42607.94874005 0 40
0.00750000 0.00754703 46076.54722406 0 -9969.88367371 0 21854.90560784 0 -2784.16075104 0 -17286.64156271 0 57
0.00850000 0.00846663 65660.61214216 0 -8736.70063287 0 28074.04106622 0 -3535.73619163 0 -34024.71357071 0 75
0.00950000 0.00948925 63936.47362979 0 9854.40286217 0 35313.97285458 0 -20572.45675897 0 -6390.43986779 0 112
0.01050000 0.01054430 56075.47410768 0 4435.43859348 0 55187.92064310 0 -3120.46442519 0 1735.32080726 0 105
0.01150000 0.01145670 62299.99200662 0 -2589.60200148 0 49929.16636551 0 17821.37055597 0 -3496.32354521 0 144
0.01250000 0.01249090 66337.92088752 0 -318.03303458 0 56048.56190485 0 6913.01992377 0 -18995.40167347 0 169
0.01350000 0.01339930 67011.27518676 0 4925.82286722 0 52783.61739650 0 357.29299544 0 13611.42326845 0 180
0.01450000 0.01448870 63213.24937103 0 880.79685398 0 49759.23502768 0 18712.32923804 0 15567.22641655 0 267
0.01550000 0.01550050 67347.40310775 0 -3160.99749802 0 51617.16563409 0 16281.22363434 0 19298.13649381 0 238
0.01650000 0.01653350 66761.04662336 0 -1936.43734665 0 31872.06688194 0 11387.04732072 0 -1556.71165708 0 315
0.01750000 0.01747870 84743.56085910 0 -8089.58847753 0 28508.48091181 0 13084.38347599 0 5801.64480828 0 297
0.01850000 0.01844180 77315.79287959 0 3219.63314645 0 24273.37895307 0 -9468.45990452 0 -45.74887742 0 388
0.01950000 0.01947590 74064.24954979 0 2375.53465101 0 27866.54249016 0 -7387.26786040 0 2155.55760050 0 399
0.02050000 0.02045430 69145.68748504 0 4752.01397527 0 27885.43595500 0 3996.68181086 0 2727.04097362 0 462
0.02150000 0.02154770 69755.99033766 0 -2211.61187438 0 26246.20818868 0 9667.24771453 0 -322.46530961 0 571
0.02250000 0.02255340 75733.68489070 0 -961.39615529 0 21929.05147276 0 10619.66508019 0 -14442.29633850 0 510
0.02350000 0.02348930 68298.55724757 0 5054.40827386 0 24455.72285793 0 -3706.57924899 0 12230.66249497 0 555
0.02450000 0.02439640 67330.26717452 0 3142.44455493 0 25203.88209644 0 -817.09072683 0 19611.41650383 0 592
0.02550000 0.02547300 65259.34570576 0 136.09336200 0 26694.92797863 0 4417.43487901 0 4687.64437994 0 837
0.02650000 0.02652900 65060.63478776 0 3039.98046189 0 30426.16759306 0 2277.17878812 0 13310.22628827 0 723
0.02750000 0.02749970 58073.12847732 0 2828.46153226 0 32741.82533894 0 -2030.72891769 0 12202.65183489 0 826
0.02850000 0.02848090 60683.06292265 0 764.47023034 0 39059.71210482 0 3402.95467826 0 21859.95851123 0 831
0.02950000 0.02946900 57399.88402381 0 481.85914697 0 32967.44845976 0 8572.15173560 0 13773.99494265 0 996
0.03050000 0.03053250 55558.43027627 0 1049.01899232 0 32083.30021268 0 -783.21100962 0 18107.51867172 0 1041
0.03150000 0.03150510 57552.34989124 0 2404.23733917 0 36284.89922505 0 4620.27599630 0 19253.86866630 0 1036
0.03250000 0.03246190 53818.14444221 0 2196.62891738 0 36402.65384312 0 -3331.34624961 0 9301.70310816 0 1059
0.03350000 0.03345080 52443.31533793 0 912.37530323 0 32477.09713973 0 3258.57345626 0 15675.64414793 0 1302
0.03450000 0.03451200 50553.30977958 0 1084.73642852 0 33204.16599888 0 2334.95763990 0 4233.25655054 0 1339
0.03550000 0.03553350 49565.13763017 0 2330.06950510 0 31543.73800749 0 1457.13650663 0 7546.50022454 0 1365
0.03650000 0.03647120 48734.92363447 0 -657.69469256 0 25482.78039428 0 5061.42741574 0 -2789.09282413 0 1308
0.03750000 0.03744890 47964.90509652 0 -3019.69195633 0 22331.85574932 0 8560.82664127 0 6030.95874549 0 1579
0.03850000 0.03847530 48144.39301250 0 1213.28997990 0 18480.99413948 0 833.27978991 0 3468.27993141 0 1662
0.03950000 0.03950240 47169.84173308 0 2639.85642104 0 16068.89184634 0 -132.70901518 0 -473.70749566 0 1683
0.04050000 0.04050350 44946.89377979 0 656.06787737 0 14629.69314674 0 -423.09058520 0 -3587.41860562 0 1822
0.04150000 0.04152450 43148.38971105 0 1247.00163315 0 16251.67513410 0 1378.46499781 0 689.10068403 0 1887
0.04250000 0.04250150 42492.72057367 0 974.93683791 0 16791.45703074 0 1660.83442058 0 2875.25581146 0 1920
0.04350000 0.04349210 41179.40507584 0 1139.67137446 0 15364.45120670 0 1269.66280639 0 -556.42681948 0 2005
0.04450000 0.04448520 40635.33919589 0 -450.84640320 0 12341.05744941 0 2747.67000092 0 3404.75614817 0 2151
0.04550000 0.04548030 40777.04018219 0 -720.38914057 0 12796.80736581 0 4126.96982625 0 1880.64670251 0 2274
0.04650000 0.04648670 40517.80426927 0 -160.77459813 0 8714.70951856 0 1870.57384945 0 4848.40359967 0 2311
0.04750000 0.04749250 40057.66052384 0 711.69704829 0 12383.12836240 0 -406.00627947 0 4493.32729098 0 2568
0.04850000 0.04851840 39660.01899639 0 1252.54884231 0 11385.07009766 0 -1934.78966076 0 4567.90155423 0 2493
0.04950000 0.04949480 38637.24544334 0 1217.04670372 0 13025.39632123 0 -1310.69018498 0 2977.67596621 0 2644
0.05050000 0.05050630 38953.27159651 0 664.00532951 0 16164.56747353 0 -3041.48534833 0 2497.03500834 0 2829
0.05150000 0.05149060 37399.83334205 0 1533.90768440 0 18356.53893213 0 134.15458494 0 -385.61342047 0 2784
0.05250000 0.05249300 35467.42733354 0 166.93035260 0 20724.70293495 0 -812.10482934 0 3551.78465217 0 3055
0.05350000 0.05348950 35991.39144567 0 576.82846614 0 15636.97845245 0 3406.44777235 0 729.94132489 0 3009
0.05450000 0.05448610 34315.36536121 0 212.68988506 0 19772.67002932 0 391.43744085 0 4174.78567069 0 3336
0.05550000 0.05550870 34672.80335301 0 1786.17937831 0 19115.57289751 0 268.73866666 0 1448.54657087 0 3349
0.05650000 0.05647670 33180.21963066 0 675.85328950 0 17904.85330759 0 1242.50894297 0 5163.84757049 0 3324
0.05750000 0.05747970 32307.93472197 0 -570.01363731 0 17548.62361878 0 1994.30407501 0 7926.81908102 0 3639
0.05850000 0.05849280 32390.20917061 0 -691.86989478 0 14214.47630316 0 2814.74180111 0 3817.88592295 0 3846
0.05950000 0.05951020 33301.37946623 0 324.91047547 0 15172.66056943 0 795.65543190 0 3954.11659211 0 3787
0.06050000 0.06049470 33053.12812589 0 907.35864894 0 13440.72301053 0 -1607.07592237 0 1888.21507302 0 3930
0.06150000 0.06148310 31862.62014952 0 201.34392004 0 14869.59621191 0 299.47350074 0 3016.14393939 0 4083
0.06250000 0.06249100 31164.66040771 0 191.38310963 0 15491.43286574 0 169.69846489 0 1548.35239735 0 4303
0.06350000 0.06350600 31047.89440117 0 715.93160102 0 13336.80895391 0 1821.82431633 0 3130.85583085 0 4470
0.06450000 0.06451750 32083.41005841 0 -536.24376582 0 14741.07671271 0 2994.86682230 0 3482.32919974 0 4479
0.06550000 0.06550280 31710.59366500 0 7.16177655 0 11574.44412896 0 1254.64689567 0 3328.30352300 0 4636
0.06650000 0.06648880 31198.71258271 0 936.04266332 0 12049.74658456 0 -356.59437662 0 4337.98346553 0 4653
0.06750000 0.06749660 28665.01107110 0 201.74815232 0 12036.78478891 0 -948.60462052 0 5931.17488816 0 5220
0.06850000 0.06852730 29903.52162964 0 978.27724644 0 14400.44511696 0 -583.30826550 0 164.21276935 0 5029
0.06950000 0.06949320 28758.05040086 0 1135.46428316 0 12710.24893387 0 123.49845107 0 3763.32555094 0 5040
0.07050000 0.07048030 28809.89758344 0 -419.07682238 0 14100.01705686 0 1196.98887419 0 2768.21115165 0 5475
0.07150000 0.07148790 27669.03987515 0 -605.18623871 0 12302.50159965 0 2014.57061142 0 4164.71281764 0 5509
0.07250000 0.07249820 28830.10919699 0 -164.16114186 0 11828.18775559 0 2403.45743452 0 1222.95640377 0 5916
0.07350000 0.07351270 28321.85302365 0 586.36527205 0 9361.23949155 0 -942.75753254 0 1015.44684314 0 5721
0.07450000 0.07449140 28257.48342833 0 631.32402917 0 11046.74526215 0 -412.20926760 0 2295.50105519 0 6028
0.07550000 0.07549160 27650.36610176 0 370.54917763 0 9628.01082127 0 -886.95590382 0 1868.70647211 0 6183
0.07650000 0.07648840 27020.62055567 0 -433.58963967 0 9372.01535726 0 1653.09029691 0 543.99338177 0 6330
0.07750000 0.07749960 27106.84945043 0 90.00978465 0 8987.44547118 0 1154.77516176 0 -1102.60942657 0 6583
0.07850000 0.07848650 26594.30929379 0 1042.39859042 0 8462.65751611 0 416.16591065 0 -1285.60142120 0 6549
0.07950000 0.07947320 25772.55341898 0 897.56919785 0 9001.19815606 0 -840.44282969 0 356.82944648 0 6828
0.08050000 0.08048110 24343.68021760 0 594.18848464 0 8776.38789361 0 -308.81368281 0 1336.74559114 0 7147
0.08150000 0.08149960 23607.93354610 0 461.05107113 0 8538.01168402 0 1098.08488112 0 -288.45707290 0 7386
0.08250000 0.08250610 23618.47873578 0 252.33760134 0 9208.80657784 0 182.69760809 0 1034.16345636 0 7227
0.08350000 0.08350160 22360.19594658 0 259.65003131 0 8320.92357609 0 1432.89355495 0 1283.12989237 0 7798
0.08450000 0.08449610 22323.06809126 0 453.33770426 0 7810.04208991 0 -244.33094638 0 2141.20076414 0 7371
0.08550000 0.08548940 21812.94454058 0 171.78333677 0 8804.81596745 0 -361.31444746 0 983.02038488 0 8256
0.08650000 0.08650700 21789.76709243 0 288.31097809 0 8136.05321955 0 1150.18361042 0 1281.81174366 0 8037
0.08750000 0.08749060 21453.52932572 0 -30.48471536 0 7369.75845170 0 139.56558539 0 2639.53786843 0 8155
0.08850000 0.08849210 21477.14615677 0 -152.72180797 0 6552.46231336 0 801.05984161 0 781.12284237 0 8718
0.08950000 0.08949900 21197.47893885 0 399.91972780 0 7167.58739334 0 265.92991145 0 331.30129980 0 8571
0.09050000 0.09049190 20612.77014034 0 485.24129687 0 5962.00858340 0 -151.68047049 0 250.98430200 0 8932
0.09150000 0.09150830 20516.98466743 0 523.11500467 0 6813.03834413 0 379.83333838 0 -371.51472156 0 9285
0.09250000 0.09250820 19558.14132681 0 -29.32771033 0 6145.11042375 0 -227.84200448 0 459.66262115 0 9204
0.09350000 0.09350330 19992.69101813 0 -41.09877831 0 5459.00303575 0 455.16443868 0 -1860.56690383 0 9349
0.09450000 0.09448040 19040.32857532 0 558.86429614 0 5694.69900963 0 -140.75521460 0 -536.20751673 0 9564
0.09550000 0.09549270 18531.74286481 0 156.30387709 0 5298.17790859 0 55.43320615 0 -419.09988998 0 10155
0.09650000 0.09649430 18626.32003473 0 337.03634514 0 6094.19692984 0 66.80026155 0 -426.72098644 0 9913
0.09750000 0.09749140 17769.74306484 0 753.11657612 0 6216.51014553 0 -122.69657728 0 -1263.14895485 0 10476
0.09850000 0.09850240 18076.76186849 0 146.73851129 0 6460.02713509 0 -520.38094455 0 408.52723887 0 10575
0.09950000 0.09950330 17431.85761224 0 -332.47555061 0 6061.89130188 0 1260.57856486 0 -188.83908262 0 10882
0.10050000 0.10051200 17880.24786501 0 -79.06442699 0 5924.79285149 0 178.02806628 0 252.07946388 0 10875
0.10150000 0.10150300 16994.89131495 0 635.11370671 0 5771.23951137 0 -277.12758474 0 25.87372133 0 11118
0.10250000 0.10250800 16766.08266808 0 606.83502306 0 6000.99283149 0 -23.15317224 0 399.47595107 0 11575
0.10350000 0.10349800 16542.32692460 0 -265.44549180 0 5999.87240508 0 1111.08951660 0 675.98839974 0 11364
0.10450000 0.10450100 16469.60905411 0 148.73880195 0 5963.56839270 0 -79.00137554 0 -178.76952493 0 12093
0.10550000 0.10551000 16056.91866223 0 430.94455460 0 4895.50544690 0 25.21915065 0 773.32599276 0 12067
0.10650000 0.10649700 15891.27130770 0 -49.03271540 0 5570.38660172 0 50.13644525 0 -429.37376072 0 12054
0.10750000 0.10749900 15564.69996486 0 194.84324999 0 5475.16134202 0 89.45462435 0 -150.20084856 0 12807
0.10850000 0.10850100 15638.29660116 0 420.84863394 0 5355.46245460 0 -74.13092591 0 -1052.14849705 0 12736
0.10950000 0.10950300 14866.95991449 0 121.37952702 0 5653.44095501 0 -179.00569324 0 687.98135609 0 12933
0.11050000 0.11050200 15064.68222096 0 -27.31786309 0 5240.92631629 0 885.50154641 0 -348.39219628 0 13428
0.11150000 0.11150900 15178.26270145 0 145.68838615 0 5439.01111365 0 9.56397076 0 -381.44038134 0 13453
0.11250000 0.11250000 14598.49696061 0 386.67562864 0 4816.44947803 0 120.76878479 0 952.54368825 0 13668
0.11350000 0.11349100 14318.50020551 0 -2.97312835 0 5085.87907431 0 633.42318099 0 824.41853520 0 13791
0.11450000 0.11448600 14510.51053423 0 -95.73175835 0 4481.79348977 0 745.52074418 0 959.66388820 0 14205
0.11550000 0.11549300 14395.83159648 0 96.08699943 0 4223.84277184 0 696.75583266 0 1257.98620573 0 14776
0.11650000 0.11649800 14283.23972752 0 36.45175488 0 4015.98170488 0 -251.78288042 0 1154.06116454 0 14553
0.11750000 0.11747300 14043.33666234 0 341.82232342 0 3753.48337391 0 -243.35002405 0 1264.12658181 0 14568
0.11850000 0.11849100 14311.57992478 0 -109.74642528 0 3909.58513486 0 -118.89811208 0 103.54211899 0 16015
0.11950000 0.11950300 13943.81643476 0 107.93759571 0 3709.25948470 0 -33.86576681 0 560.99859859 0 15270
0.12050000 0.12050700 13940.63090871 0 110.17306608 0 3911.36463562 0 521.96272301 0 548.65633284 0 15999
0.12150000 0.12150000 13784.10074942 0 -24.08960705 0 4010.35760372 0 -108.38939118 0 790.13788109 0 15670
0.12250000 0.12250700 13806.50927749 0 193.64703004 0 3779.29711947 0 -185.51624941 0 -529.62226547 0 16887
0.12350000 0.12352200 13495.09664481 0 389.56347277 0 4351.32972122 0 -625.16937315 0 49.93224205 0 16407
0.12450000 0.12449800 12983.43525397 0 440.32977341 0 5127.43371238 0 -537.98811594 0 100.39998201 0 16306
0.12550000 0.12549900 13047.03592922 0 -9.89689119 0 5235.34615342 0 22.79177980 0 182.50537807 0 17523
0.12650000 0.12650100 12845.68871380 0 -137.70150342 0 5037.14052576 0 541.11322684 0 -138.56159546 0 17154
0.12750000 0.12750600 13171.38129084 0 -15.45913822 0 4678.99952132 0 430.86107185 0 -240.53248119 0 18007
0.12850000 0.12850300 13098.22403745 0 203.83741802 0 5233.73142125 0 -148.50922439 0 379.35221410 0 17496
0.12950000 0.12949900 12830.31031219 0 104.35651520 0 4248.22852297 0 335.18105083 0 280.85135485 0 18405
0.13050000 0.13049000 12802.07996065 0 -24.06060778 0 5003.06638162 0 10.48061138 0 515.94537415 0 18100
0.13150000 0.13148800 12716.29044879 0 261.61077751 0 4404.13256162 0 423.73098578 0 -124.21574366 0 19059
0.13250000 0.13249300 12429.26356724 0 257.85295523 0 4616.16776616 0 -101.41232021 0 1056.11392775 0 18957
0.13350000 0.13349100 12125.64998109 0 170.15212774 0 4575.95324594 0 150.28872514 0 906.47439084 0 19468
0.13450000 0.13450700 11976.04010254 0 85.89749021 0 4315.19047743 0 506.60189671 0 1292.84025453 0 19953
0.13550000 0.13551000 11867.84206261 0 -59.29900678 0 4391.97263977 0 362.04162617 0 721.38763822 0 19956
0.13650000 0.13649900 11815.77518857 0 127.63304419 0 3894.66808530 0 144.92715527 0 572.86962618 0 19723
0.13750000 0.13749600 11690.99044405 0 145.88940382 0 3749.80354209 0 -300.54229965 0 634.87314457 0 20946
0.13850000 0.13851100 11317.84451346 0 248.27660486 0 3913.41875069 0 -87.11798607 0 483.60349709 0 20955
0.13950000 0.13949800 11559.39526452 0 -214.54847474 0 3641.50664101 0 360.11493213 0 638.92645185 0 20506
0.14050000 0.14048300 11368.59323879 0 -125.10988787 0 3359.33494054 0 393.76836715 0 19.14116695 0 21447
0.14150000 0.14148400 11530.72553009 0 231.04400739 0 3008.89412148 0 114.76681433 0 -48.48337692 0 21771
0.14250000 0.14249400 10956.28730695 0 319.08206126 0 2858.72402972 0 1.10893654 0 246.93099471 0 22470
0.14350000 0.14350900 11214.36983974 0 -51.41944333 0 3003.88515638 0 240.41824163 0 5.02067465 0 22519
0.14450000 0.14449900 10899.16752952 0 86.08137195 0 2877.36484939 0 143.26738635 0 492.98981437 0 22218
0.14550000 0.14550500 10949.23521135 0 65.00637100 0 2907.63833143 0 110.81346666 0 -18.37136811 0 23559
0.14650000 0.14650700 10855.55877638 0 126.79821668 0 2684.65150803 0 -59.69203478 0 844.85313558 0 23044
0.14750000 0.14750500 10399.60015310 0 79.82675633 0 2873.41040326 0 80.11103706 0 495.87875695 0 23649
0.14850000 0.14849900 10562.40250332 0 261.59539911 0 2802.12052721 0 207.26570312 0 814.10072618 0 23640
0.14950000 0.14949500 10283.71291236 0 180.33262961 0 3180.09966973 0 -279.95391527 0 579.55703396 0 24457
0.15050000 0.15050000 10045.21587248 0 55.89763388 0 3005.63170342 0 229.30405109 0 1217.07965744 0 24591
0.15150000 0.15149900 10046.59992862 0 139.25252507 0 3189.00815810 0 185.94025391 0 689.86630874 0 25020
0.15250000 0.15250500 9943.21313149 0 61.28974087 0 2989.48438173 0 -155.17466303 0 1059.63118789 0 25297
0.15350000 0.15350100 9665.31442975 0 232.15674459 0 3447.78271897 0 -359.22957558 0 462.27035868 0 25452
0.15450000 0.15450400 9409.53865719 0 191.06345857 0 3250.99410117 0 -151.38828086 0 641.45400200 0 26061
0.15550000 0.15549900 9496.69025606 0 103.05429412 0 3455.18632089 0 25.75530764 0 270.48741061 0 26128
0.15650000 0.15649500 9448.05056866 0 -1.40357573 0 3284.12357208 0 221.60276726 0 278.50175477 0 26331
0.15750000 0.15749700 9225.77774248 0 -128.57002824 0 3094.34311159 0 190.65922629 0 569.10850852 0 27345
0.15850000 0.15849900 9351.40829909 0 15.78087635 0 2974.62225503 0 510.26744858 0 -43.65082406 0 26980
0.15950000 0.15949700 9333.40458463 0 144.16043210 0 2997.64591916 0 -32.17765769 0 429.15736464 0 27777
0.16050000 0.16050000 9276.72419011 0 101.34773093 0 2759.95075307 0 -164.08205293 0 468.87867755 0 28224
0.16150000 0.16150500 9095.07231334 0 139.96103000 0 3258.50754882 0 -96.09468863 0 159.86397706 0 28075
0.16250000 0.16249700 9011.91909890 0 62.84768280 0 3051.28358707 0 -42.53303396 0 303.12257575 0 28590
0.16350000 0.16349900 8793.74351828 0 124.76057846 0 3194.31370665 0 328.72431907 0 409.37085405 0 29163
0.16450000 0.16449100 9003.90036091 0 2.49091660 0 2766.79414179 0 28.30087249 0 571.29553693 0 28996
0.16550000 0.16550500 8944.03444034 0 47.74092966 0 3075.93296795 0 260.01362066 0 415.35195382 0 30777
0.16650000 0.16650700 8824.30259921 0 -65.90392042 0 2555.75853336 0 134.37207947 0 618.02061332 0 29211
0.16750000 0.16749900 8624.38337823 0 122.39120616 0 2794.34344982 0 -24.57973868 0 299.98098800 0 30922
0.16850000 0.16850800 8471.90652622 0 246.29059413 0 2364.93453847 0 7.77150821 0 538.76033140 0 30867
0.16950000 0.16949900 8386.02913778 0 115.78178884 0 2711.32205025 0 188.25250644 0 413.56366540 0 30852
0.17050000 0.17049200 8362.66495190 0 20.32255773 0 2330.42101142 0 196.69524893 0 168.20126765 0 31257
0.17150000 0.17149500 8298.25141829 0 -52.32841671 0 2103.87518650 0 89.02435864 0 14.38330918 0 32608
0.17250000 0.17250900 8047.55051826 0 73.45856022 0 1884.39244176 0 -259.81919372 0 -168.64174901 0 32361
0.17350000 0.17350400 7875.86164882 0 235.33018761 0 2075.26037493 0 -62.42873120 0 22.23123706 0 32508
0.17450000 0.17449800 7842.27082586 0 48.81016796 0 1911.70008919 0 234.28555476 0 -656.38533151 0 32791
0.17550000 0.17549800 7926.29182154 0 80.36752683 0 1906.43847893 0 75.62383916 0 -563.05381212 0 33633
0.17650000 0.17650100 7788.76497282 0 95.46065910 0 1735.99086618 0 34.46618354 0 -454.46472141 0 33984
0.17750000 0.17750300 7607.80512411 0 31.30460386 0 1744.26224934 0 128.89517158 0 -165.96261176 0 34069
0.17850000 0.17849800 7705.37009778 0 74.32480361 0 1909.45923639 0 -8.38944534 0 -324.38760981 0 34536
