### header ###
fiducial parameters:
Omega_m = 0.31
Omega_nu = 0
Omega_de = 0.69
Omega_k = 0
H_0 = 100
w_de = -1
zeff = 0
beta = 0
fgrowth = 0
b_1 = 2
gamma = 0.55
Lx = 3500 Ly = 3500 Lz = 3500
nx = 700 ny = 700 nz = 700
xoffset = -983.599254 yoffset = -42.9823471 zoffset = 800.977702
bins = 400 dk = 0.001
kx_ny = 0.628318531 ky_ny = 0.628318531 kz_ny = 0.628318531
############################
A(data) = 9.0894177 (not used)
A(ran) = 9.09124697 (used)
Ngal = 505827
weighted Ngal = 0
Nran = 25229228
weighted Nran = 0
SN(data) = 6725.09194
SN(ran) = 134.953298
SN(data+ran) = 6860.04523
############################
13 columns: k_central k_mean P_0(k) sigma^{lin}_{P_0(k)} P^img_1(k) sigma^{lin}_{P_1(k)} P_2(k) sigma^{lin}_{P_2(k)} P^img_3(k) sigma^{lin}_{P_3(k)} P_4(k) sigma^{lin}_{P_4(k)} N_modes
### header ###
0.00050000 0 0 0 0 0 0 0 0 0 0 0 0
0.00150000 0.00179520 15164.64183145 0 -13346.25568633 0 -20357.81821073 0 33859.17606191 0 -3524.03762183 0 3
0.00250000 0.00253879 36074.87419729 0 -16651.29388461 0 -2504.26285709 0 -25406.32776911 0 23806.97400127 0 6
0.00350000 0.00331552 24094.87964863 0 6929.14527632 0 -8720.99269408 0 -30404.08860217 0 9806.82867832 0 7
0.00450000 0.00420575 30777.34437849 0 -348.25049529 0 -2174.61583393 0 -10844.11285175 0 -666.80529706 0 24
0.00550000 0.00557378 36626.84896951 0 -11229.52854991 0 -10652.44304477 0 6062.81400597 0 -14104.96011453 0 45
0.00650000 0.00659388 48372.54258501 0 -2499.14404627 0 -18249.87873237 0 -1498.68016014 0 1945.98294022 0 40
0.00750000 0.00754703 51208.97891696 0 4190.79019294 0 3336.58589073 0 -23389.23070600 0 5597.39766570 0 57
0.00850000 0.00846663 49122.78889232 0 -5010.72262871 0 -3241.78902935 0 -4084.20688519 0 -11700.10763929 0 75
0.00950000 0.00948925 56004.84330598 0 -7796.47614277 0 -2382.44394717 0 7689.27769895 0 10754.43480119 0 112
0.01050000 0.01054430 71664.44997794 0 -1567.63032223 0 1047.56573336 0 -8081.33906352 0 -18237.79570253 0 105
0.01150000 0.01145670 75879.23047740 0 -1901.64920528 0 7751.28561117 0 -17946.15530050 0 -7092.39799402 0 144
0.01250000 0.01249090 73480.52936281 0 -1669.73192437 0 15850.51854343 0 4298.08749792 0 -11332.45399499 0 169
0.01350000 0.01339930 86644.88052720 0 -9766.76794211 0 10352.11384583 0 -1761.38719799 0 5332.13122244 0 180
0.01450000 0.01448870 91724.58627172 0 -641.55176470 0 22317.24626779 0 -3593.42716683 0 -32558.49282255 0 267
0.01550000 0.01550050 86060.94064878 0 11458.22735105 0 23978.00379636 0 -12884.02487211 0 16795.74101405 0 238
0.01650000 0.01653350 90010.99294903 0 4339.26866053 0 33898.72052320 0 3111.49002939 0 -22810.01419379 0 315
0.01750000 0.01747870 77981.45797802 0 -113.10045467 0 41816.18074838 0 -17841.36247807 0 8696.74974239 0 297
0.01850000 0.01844180 70711.42846078 0 8865.49474639 0 40179.14989659 0 5102.43282519 0 -15622.69850809 0 388
0.01950000 0.01947590 72177.42951749 0 -183.92019102 0 42220.74255655 0 16190.38121909 0 -844.41594959 0 399
0.02050000 0.02045430 76958.35488779 0 1247.45200063 0 41012.76910978 0 7495.25719344 0 -6692.40576805 0 462
0.02150000 0.02154770 63743.58453526 0 -3425.38517548 0 23290.80893567 0 6226.46216829 0 3997.03331718 0 571
0.02250000 0.02255340 71039.53764379 0 3616.70347613 0 32643.29372288 0 6829.22960412 0 2475.04389403 0 510
0.02350000 0.02348930 69118.22605359 0 6364.79089081 0 28766.17898457 0 -6028.59706238 0 -2909.80229223 0 555
0.02450000 0.02439640 63339.46210999 0 1626.02431007 0 30628.28372856 0 -3928.18201624 0 4129.94664542 0 592
0.02550000 0.02547300 59181.25215933 0 37.00548719 0 33210.86658816 0 8418.49953433 0 -123.11508949 0 837
0.02650000 0.02652900 63432.72113121 0 -407.07178301 0 28162.46687550 0 7305.13621121 0 3982.98404885 0 723
0.02750000 0.02749970 59087.22421803 0 933.21193896 0 28626.89460424 0 1296.66288579 0 9224.26187147 0 826
0.02850000 0.02848090 57050.90415290 0 3684.81881070 0 29777.19904496 0 -3027.23835769 0 -329.83485936 0 831
0.02950000 0.02946900 56255.40140656 0 2740.66184362 0 31459.04695289 0 -1419.60222212 0 2010.93471789 0 996
0.03050000 0.03053250 54978.33499825 0 -94.82113728 0 33193.51096348 0 -3356.22630650 0 248.20190976 0 1041
0.03150000 0.03150510 53343.50106097 0 -148.93652426 0 32863.86394031 0 7369.37399166 0 211.16412793 0 1036
0.03250000 0.03246190 55046.32950253 0 1219.94663088 0 27706.93665055 0 5820.65910342 0 -502.69797961 0 1059
0.03350000 0.03345080 51468.21482988 0 -1522.80228152 0 21772.63115921 0 9424.01632386 0 7510.87725565 0 1302
0.03450000 0.03451200 55953.65519775 0 1137.04606161 0 19415.89111188 0 7937.70479245 0 -1418.86625576 0 1339
0.03550000 0.03553350 50593.84285241 0 1341.52388021 0 12970.80299550 0 -1598.40909460 0 13198.84272229 0 1365
0.03650000 0.03647120 50247.49927892 0 1408.74946441 0 16761.13961042 0 2943.38213061 0 3942.72559034 0 1308
0.03750000 0.03744890 47416.44538753 0 1475.98603318 0 13325.82438133 0 -1721.97455157 0 10864.43431102 0 1579
0.03850000 0.03847530 43818.88802141 0 1532.67741227 0 17843.99877549 0 2565.20526578 0 6741.71551436 0 1662
0.03950000 0.03950240 44881.97495584 0 1421.31581545 0 12941.69387816 0 888.63874034 0 5182.73005076 0 1683
0.04050000 0.04050350 44221.25291507 0 666.35383113 0 13495.86556489 0 -1068.38149841 0 41.86868701 0 1822
0.04150000 0.04152450 40087.75825271 0 1438.89113158 0 13004.08625042 0 -92.07960766 0 1006.02647369 0 1887
0.04250000 0.04250150 39934.30377375 0 1098.25074817 0 15235.93170750 0 -4209.94728753 0 -1748.30457205 0 1920
0.04350000 0.04349210 39295.66072387 0 -688.10328484 0 11946.93098519 0 2637.81329054 0 -2938.49399581 0 2005
0.04450000 0.04448520 39815.89008132 0 -713.88956898 0 13852.97401951 0 1779.65454219 0 -7090.78326185 0 2151
0.04550000 0.04548030 38277.28099985 0 1648.61957587 0 13359.65686488 0 -3461.55737299 0 -7802.81424115 0 2274
0.04650000 0.04648670 38740.39057988 0 402.99540812 0 12719.36612911 0 1548.83571854 0 -4333.23813018 0 2311
0.04750000 0.04749250 38477.31006656 0 -1020.23062450 0 13262.77293471 0 2114.73892879 0 -5187.87083072 0 2568
0.04850000 0.04851840 39698.35515470 0 402.33193994 0 11020.93151659 0 2034.26595006 0 -6795.06758339 0 2493
0.04950000 0.04949480 38149.85995791 0 1351.58574870 0 11618.71195646 0 1281.69091336 0 -2560.33910012 0 2644
0.05050000 0.05050630 36500.63623055 0 282.35404437 0 11960.44200947 0 -1060.71426674 0 1214.79486634 0 2829
0.05150000 0.05149060 38540.47135890 0 241.62874153 0 13186.10061810 0 3235.22025495 0 182.35708634 0 2784
0.05250000 0.05249300 36492.17810966 0 459.66152270 0 12760.77796775 0 1.44928254 0 590.89750670 0 3055
0.05350000 0.05348950 35349.12348684 0 794.62178362 0 12176.17901497 0 -1028.44378942 0 1961.21854239 0 3009
0.05450000 0.05448610 35260.14844893 0 1412.26452764 0 15951.02738255 0 -1433.34392242 0 1622.90469146 0 3336
0.05550000 0.05550870 34633.14904599 0 754.20734418 0 13144.57893374 0 -255.52752122 0 412.42895905 0 3349
0.05650000 0.05647670 33160.33755428 0 -2034.85911698 0 13648.77081522 0 3796.44403727 0 1323.10275200 0 3324
0.05750000 0.05747970 34277.02920290 0 -234.53819993 0 11042.02189594 0 3239.25159308 0 -631.50966844 0 3639
0.05850000 0.05849280 35604.18526218 0 107.58707800 0 8001.58008201 0 697.76311797 0 3201.87109259 0 3846
0.05950000 0.05951020 34491.22836824 0 487.88638194 0 8100.96849472 0 -28.47728473 0 160.67683543 0 3787
0.06050000 0.06049470 34534.39773848 0 771.37403421 0 7902.99354309 0 363.15765874 0 1282.96512378 0 3930
0.06150000 0.06148310 33181.42793364 0 1462.73863865 0 9801.24851545 0 -601.36909974 0 165.87583364 0 4083
0.06250000 0.06249100 32094.50447672 0 669.05383907 0 10866.60925639 0 -1822.83489701 0 -1092.02579089 0 4303
0.06350000 0.06350600 30774.04900671 0 1269.60788352 0 10340.51413718 0 -2446.57188190 0 -1266.46629577 0 4470
0.06450000 0.06451750 28524.84792496 0 -7.93298143 0 12179.36454102 0 1385.63792370 0 -41.61142832 0 4479
0.06550000 0.06550280 29141.74152113 0 -19.10711478 0 10988.63687320 0 2611.58213121 0 -1920.69645414 0 4636
0.06650000 0.06648880 29364.72834453 0 -372.54727138 0 9271.95688561 0 3768.52125377 0 2251.13436653 0 4653
0.06750000 0.06749660 29300.57844065 0 179.26492916 0 7506.07699744 0 332.73808189 0 2486.76443297 0 5220
0.06850000 0.06852730 29156.02146548 0 434.43764868 0 8045.69412550 0 195.24198998 0 3030.97311237 0 5029
0.06950000 0.06949320 28700.49124053 0 701.65055821 0 8070.05790748 0 -561.02935539 0 2746.52760538 0 5040
0.07050000 0.07048030 27506.46820094 0 694.67864999 0 8674.95635039 0 -1050.24487062 0 2134.24752969 0 5475
0.07150000 0.07148790 28110.50984719 0 424.16817177 0 10369.30470192 0 -548.30702343 0 1195.17641971 0 5509
0.07250000 0.07249820 26519.61420023 0 -38.56101251 0 9226.81029230 0 1212.15856892 0 2323.65451471 0 5916
0.07350000 0.07351270 26594.96836814 0 -22.68643775 0 9861.77351037 0 34.82658737 0 454.46691832 0 5721
0.07450000 0.07449140 26173.05093529 0 1017.79314784 0 9793.27371575 0 -406.94326351 0 1585.97455844 0 6028
0.07550000 0.07549160 25717.74040180 0 976.58781917 0 10675.47769348 0 -372.19356815 0 1311.30532104 0 6183
0.07650000 0.07648840 24466.81727623 0 -158.11193774 0 10052.71833555 0 743.23046080 0 1133.46509095 0 6330
0.07750000 0.07749960 25366.23407919 0 47.10964628 0 10226.28556691 0 804.17946022 0 473.16266086 0 6583
0.07850000 0.07848650 24373.33856357 0 250.17583745 0 9376.91447663 0 629.64558648 0 1135.43132944 0 6549
0.07950000 0.07947320 24419.69345986 0 283.91275522 0 9193.53802196 0 997.80122574 0 1374.49956710 0 6828
0.08050000 0.08048110 23760.83879643 0 -243.48952812 0 9102.66265299 0 456.76598936 0 3370.36345142 0 7147
0.08150000 0.08149960 23982.72716257 0 351.30640338 0 7875.15863617 0 838.42606216 0 656.84448665 0 7386
0.08250000 0.08250610 23664.28440344 0 56.02373677 0 7324.41413609 0 27.71089110 0 1943.30270451 0 7227
0.08350000 0.08350160 23736.89242820 0 217.38688830 0 8279.40189174 0 615.56885671 0 1223.64843184 0 7798
0.08450000 0.08449610 23386.92394576 0 716.98502153 0 7978.69921732 0 -2051.31400670 0 -893.87947992 0 7371
0.08550000 0.08548940 22538.03617667 0 813.59982967 0 8445.23598400 0 -260.58152306 0 -342.97570354 0 8256
0.08650000 0.08650700 21169.13874159 0 6.48584088 0 9592.01437692 0 -374.18946498 0 -1345.29158861 0 8037
0.08750000 0.08749060 21397.28831410 0 478.51434462 0 8646.75895257 0 540.06090479 0 -1584.89807033 0 8155
0.08850000 0.08849210 21120.14754787 0 -314.81455481 0 8540.31844426 0 984.88226993 0 -678.17323123 0 8718
0.08950000 0.08949900 20673.73451817 0 338.73016623 0 7239.11892999 0 514.90623358 0 -1180.90745993 0 8571
0.09050000 0.09049190 20827.18899713 0 667.93341267 0 6890.35875053 0 779.24228355 0 -1686.06598380 0 8932
0.09150000 0.09150830 20605.95970534 0 -240.67088680 0 6707.53152449 0 910.60019631 0 -430.42827969 0 9285
0.09250000 0.09250820 19724.66744714 0 158.30966004 0 6317.97464247 0 -222.99011877 0 -1100.13789774 0 9204
0.09350000 0.09350330 19598.34486246 0 931.08642417 0 6980.32239998 0 -590.76459337 0 -1183.58769564 0 9349
0.09450000 0.09448040 18439.58230085 0 282.23870636 0 5887.26955155 0 195.23100540 0 -484.62945617 0 9564
0.09550000 0.09549270 18447.71088456 0 -48.96175506 0 6126.39271207 0 1353.42017232 0 -164.86195759 0 10155
0.09650000 0.09649430 17972.40842896 0 125.78763600 0 4939.27896864 0 603.01788408 0 -788.18921792 0 9913
0.09750000 0.09749140 17974.71518921 0 774.62436924 0 5375.00400922 0 -164.36325799 0 -323.43964120 0 10476
0.09850000 0.09850240 17028.17456987 0 27.38201299 0 5155.68603306 0 -506.69306866 0 -639.62836604 0 10575
0.09950000 0.09950330 17213.92369222 0 40.04601688 0 5807.71927692 0 322.22694439 0 -373.27994237 0 10882
0.10050000 0.10051200 16578.13663121 0 362.36017877 0 5043.80816132 0 48.42999190 0 -482.81260787 0 10875
0.10150000 0.10150300 16380.08478757 0 328.49364305 0 5530.66638727 0 -177.99621102 0 -175.62464180 0 11118
0.10250000 0.10250800 16430.50397572 0 458.65753276 0 6097.36048674 0 446.66897025 0 -229.66544353 0 11575
0.10350000 0.10349800 15996.28382158 0 -324.42715428 0 5661.07523296 0 475.59903905 0 758.99661782 0 11364
0.10450000 0.10450100 16068.45246344 0 -58.79723150 0 5420.50210885 0 270.98940558 0 278.36664453 0 12093
0.10550000 0.10551000 16051.20668449 0 324.30302861 0 5426.24704031 0 -73.09848593 0 647.59987036 0 12067
0.10650000 0.10649700 15844.58687423 0 216.84425041 0 5606.09744719 0 332.60407011 0 1237.75262304 0 12054
0.10750000 0.10749900 15719.25290108 0 -15.20231892 0 5627.59425573 0 131.99172259 0 562.16516020 0 12807
0.10850000 0.10850100 15671.90939325 0 286.39966246 0 5880.82160745 0 -158.49749623 0 -3.45972295 0 12736
0.10950000 0.10950300 15287.22966146 0 230.93965395 0 5820.74698000 0 -904.53012150 0 222.32994596 0 12933
0.11050000 0.11050200 14870.69466917 0 -28.85866909 0 5642.57721273 0 208.79146025 0 2.73804752 0 13428
0.11150000 0.11150900 15157.28216782 0 -68.22078647 0 5335.69022395 0 693.66477394 0 -890.53357911 0 13453
0.11250000 0.11250000 15120.04446677 0 157.83842188 0 5091.25053030 0 613.45872032 0 -502.64415521 0 13668
0.11350000 0.11349100 15003.60799741 0 158.88964547 0 5155.01597413 0 -340.92817921 0 -1408.14531292 0 13791
0.11450000 0.11448600 14579.27395859 0 360.06330464 0 4541.07722799 0 -169.02950442 0 -738.06441631 0 14205
0.11550000 0.11549300 14564.77432278 0 197.99362541 0 5003.11031991 0 790.53991645 0 -923.85747695 0 14776
0.11650000 0.11649800 14156.91714284 0 -188.52272693 0 4339.56524399 0 65.43443979 0 -739.87028005 0 14553
0.11750000 0.11747300 13959.85391073 0 126.73889999 0 4100.00270056 0 133.23957004 0 -1352.84897455 0 14568
0.11850000 0.11849100 13810.13418644 0 331.16618955 0 4136.58132725 0 -107.64068271 0 -737.49980928 0 16015
0.11950000 0.11950300 13601.42730740 0 99.19903868 0 4275.21761780 0 138.06069895 0 -357.99271271 0 15270
0.12050000 0.12050700 13803.65328862 0 44.02199277 0 4435.22988660 0 87.18477227 0 -1032.75193878 0 15999
0.12150000 0.12150000 13743.01844797 0 39.75503555 0 4301.13022452 0 439.06654756 0 -443.29450955 0 15670
0.12250000 0.12250700 13793.54748184 0 -109.43028928 0 4060.63399243 0 -42.61816439 0 -421.78342106 0 16887
0.12350000 0.12352200 13601.09777022 0 157.12552312 0 4302.62412639 0 138.52205099 0 -106.99358154 0 16407
0.12450000 0.12449800 13745.43505394 0 192.37721345 0 4736.19619075 0 -509.26126173 0 -48.85740162 0 16306
0.12550000 0.12549900 13380.52755279 0 135.53973954 0 4723.95937690 0 223.79309103 0 -457.02852065 0 17523
0.12650000 0.12650100 13265.95846076 0 168.79553303 0 4976.95605259 0 -60.76127308 0 366.42886445 0 17154
0.12750000 0.12750600 12975.19682453 0 236.11119072 0 5014.94070458 0 55.81832526 0 345.26159309 0 18007
0.12850000 0.12850300 12859.08989235 0 202.60604743 0 4930.61214087 0 210.56986256 0 434.64965093 0 17496
0.12950000 0.12949900 12764.84225960 0 59.89360169 0 4641.90461971 0 911.51740812 0 99.19914853 0 18405
0.13050000 0.13049000 12517.35983934 0 -94.12482523 0 4227.24798934 0 380.71979338 0 858.07087176 0 18100
0.13150000 0.13148800 12382.35944232 0 188.01194430 0 3987.07030985 0 24.78679788 0 999.55765890 0 19059
0.13250000 0.13249300 12053.37149351 0 191.12607063 0 3504.77068152 0 -133.38456640 0 1126.14936561 0 18957
0.13350000 0.13349100 12140.58899980 0 86.06357695 0 3681.56737722 0 389.96331121 0 199.19643610 0 19468
0.13450000 0.13450700 11665.61608139 0 282.17609430 0 3781.57092600 0 -217.14083387 0 826.98782673 0 19953
0.13550000 0.13551000 11365.62740419 0 231.20438215 0 3742.96015337 0 134.17325871 0 1009.23396889 0 19956
0.13650000 0.13649900 11470.96945525 0 98.44362963 0 4185.25396836 0 208.49487679 0 440.88229741 0 19723
0.13750000 0.13749600 11290.82246491 0 133.32964354 0 3677.19551733 0 91.69965129 0 965.92619303 0 20946
0.13850000 0.13851100 11287.74678459 0 -137.73445714 0 3941.61614851 0 196.74577796 0 1267.45490730 0 20955
0.13950000 0.13949800 11141.98150643 0 -9.80698246 0 3583.46415949 0 59.64458143 0 946.46592424 0 20506
0.14050000 0.14048300 11111.99362329 0 170.61347979 0 3610.72786864 0 196.02299309 0 1246.00203705 0 21447
0.14150000 0.14148400 11160.87497127 0 -0.98387498 0 3596.31610941 0 200.25534890 0 1420.61280280 0 21771
0.14250000 0.14249400 11137.25814022 0 184.37165695 0 3359.03835708 0 -24.63850615 0 844.91904301 0 22470
0.14350000 0.14350900 10679.38820132 0 172.42593427 0 3372.35165905 0 -91.99821197 0 1144.60344755 0 22519
0.14450000 0.14449900 10793.43003386 0 -47.01528880 0 3600.53418529 0 -58.72484317 0 632.25771784 0 22218
0.14550000 0.14550500 10513.38934047 0 109.25102105 0 3186.25103038 0 367.73602859 0 770.28875844 0 23559
0.14650000 0.14650700 10737.95794232 0 -82.54631681 0 2814.84066226 0 410.59124006 0 326.81190498 0 23044
0.14750000 0.14750500 10549.90205973 0 33.90036821 0 2691.19831328 0 31.28735808 0 158.54033607 0 23649
0.14850000 0.14849900 10498.57115205 0 189.79583889 0 2267.41350310 0 137.30056652 0 498.11741285 0 23640
0.14950000 0.14949500 10226.56018122 0 177.50959446 0 2391.90166416 0 -16.67567964 0 431.52234311 0 24457
0.15050000 0.15050000 10125.54605176 0 108.23813362 0 2372.68964672 0 110.40374210 0 617.67569774 0 24591
0.15150000 0.15149900 9993.50050476 0 99.35952329 0 2381.27958247 0 284.92333590 0 481.35934892 0 25020
0.15250000 0.15250500 9859.80727188 0 46.98892582 0 2331.28879266 0 -141.07157029 0 874.40822656 0 25297
0.15350000 0.15350100 9804.90637812 0 55.97507511 0 2234.43781621 0 118.23025006 0 657.78366760 0 25452
0.15450000 0.15450400 9809.49792945 0 -4.34447535 0 2465.49830046 0 0.22404574 0 315.25503617 0 26061
0.15550000 0.15549900 9662.30465686 0 275.31732718 0 2511.29298355 0 -251.45444170 0 643.06104497 0 26128
0.15650000 0.15649500 9563.66319508 0 151.32017651 0 2705.52219593 0 -258.98876004 0 492.69323091 0 26331
0.15750000 0.15749700 9491.73621382 0 -39.81248486 0 2837.58971208 0 -88.33947054 0 227.75522636 0 27345
0.15850000 0.15849900 9489.44043815 0 140.70798094 0 2867.72039467 0 72.66108025 0 -188.74241838 0 26980
0.15950000 0.15949700 9247.25258188 0 42.26841560 0 2754.66717366 0 -2.23645898 0 41.64207527 0 27777
0.16050000 0.16050000 9206.12634213 0 233.54739148 0 3193.32509512 0 -32.77324122 0 -60.55871756 0 28224
0.16150000 0.16150500 8987.39054832 0 252.68581229 0 3073.10993279 0 -75.55782188 0 168.03979443 0 28075
0.16250000 0.16249700 8884.80562498 0 42.66298145 0 3230.27719729 0 113.99899271 0 343.36565586 0 28590
0.16350000 0.16349900 8742.85199352 0 -118.55209804 0 2894.05041514 0 575.33566272 0 305.54137864 0 29163
0.16450000 0.16449100 8893.28571502 0 -6.29738955 0 2670.08596478 0 231.53172241 0 297.18870965 0 28996
0.16550000 0.16550500 8742.31374946 0 130.39017191 0 2288.40502130 0 341.81902804 0 1010.32034311 0 30777
0.16650000 0.16650700 8650.77930614 0 16.13523866 0 2404.75361408 0 -63.46084164 0 866.87610515 0 29211
0.16750000 0.16749900 8626.71210761 0 119.94274493 0 2148.25285973 0 33.55182772 0 653.85887982 0 30922
0.16850000 0.16850800 8486.54896147 0 104.68506377 0 2286.93308857 0 17.33409492 0 1011.28588704 0 30867
0.16950000 0.16949900 8318.67173871 0 21.41101903 0 2010.97865618 0 76.03400311 0 667.89276975 0 30852
0.17050000 0.17049200 8272.28388870 0 100.55969769 0 2136.09293789 0 136.25373676 0 427.10215111 0 31257
0.17150000 0.17149500 8254.06048279 0 214.36722930 0 2116.00215463 0 -122.71195568 0 444.57201534 0 32608
0.17250000 0.17250900 7934.04692978 0 155.29549333 0 2191.80669002 0 -302.45691066 0 426.53864253 0 32361
0.17350000 0.17350400 7778.45045916 0 49.87468289 0 2066.34090199 0 113.14439296 0 742.55051576 0 32508
0.17450000 0.17449800 7733.72127961 0 -34.95378872 0 2073.15133699 0 488.86510736 0 259.05796284 0 32791
0.17550000 0.17549800 7936.61731976 0 -47.28979327 0 1572.41959587 0 424.70861274 0 408.77329330 0 33633
0.17650000 0.17650100 7904.63024441 0 53.95380391 0 1509.40110297 0 82.91825443 0 347.50464281 0 33984
0.17750000 0.17750300 7813.78782916 0 48.75513525 0 1545.47443933 0 -251.89272615 0 486.37820013 0 34069
0.17850000 0.17849800 7663.48592253 0 122.99645611 0 1595.97051949 0 -252.06518394 0 421.40005948 0 34536
