### header ###
fiducial parameters:
Omega_m = 0.31
Omega_nu = 0
Omega_de = 0.69
Omega_k = 0
H_0 = 100
w_de = -1
zeff = 0
beta = 0
fgrowth = 0
b_1 = 2
gamma = 0.55
Lx = 3500 Ly = 3500 Lz = 3500
nx = 700 ny = 700 nz = 700
xoffset = -983.599254 yoffset = -42.9823471 zoffset = 800.977702
bins = 400 dk = 0.001
kx_ny = 0.628318531 ky_ny = 0.628318531 kz_ny = 0.628318531
############################
A(data) = 9.047791 (not used)
A(ran) = 9.0326022 (used)
Ngal = 501932
weighted Ngal = 0
Nran = 25229228
weighted Nran = 0
SN(data) = 6745.70723
SN(ran) = 134.082757
SN(data+ran) = 6879.78998
############################
13 columns: k_central k_mean P_0(k) sigma^{lin}_{P_0(k)} P^img_1(k) sigma^{lin}_{P_1(k)} P_2(k) sigma^{lin}_{P_2(k)} P^img_3(k) sigma^{lin}_{P_3(k)} P_4(k) sigma^{lin}_{P_4(k)} N_modes
### header ###
0.00050000 0 0 0 0 0 0 0 0 0 0 0 0
0.00150000 0.00179520 17744.36870218 0 -15008.55105507 0 -15661.25435785 0 -26456.12337071 0 -28892.17203208 0 3
0.00250000 0.00253879 28169.16746477 0 -13510.25535497 0 -25523.09377565 0 55698.37373096 0 51355.29342375 0 6
0.00350000 0.00331552 47466.75472995 0 -8977.31769526 0 18523.28474392 0 -26520.49296604 0 13781.35460628 0 7
0.00450000 0.00420575 64424.18865240 0 -14292.13723131 0 -16344.16523523 0 -2822.73856995 0 14646.38969706 0 24
0.00550000 0.00557378 65079.74794406 0 -679.90110449 0 -8741.72058254 0 -14239.63097437 0 -23320.35743592 0 45
0.00650000 0.00659388 68283.72807458 0 14813.24535457 0 25902.39106689 0 -38681.73296230 0 36853.68039331 0 40
0.00750000 0.00754703 54322.55601515 0 18294.03671415 0 33672.43832803 0 12588.97925257 0 12721.56304363 0 57
0.00850000 0.00846663 43130.04547484 0 -1055.44277036 0 45132.09367351 0 6266.87441082 0 18064.12961002 0 75
0.00950000 0.00948925 41532.88862151 0 -2248.21247022 0 37974.87571669 0 15343.36082735 0 -15780.10743318 0 112
0.01050000 0.01054430 55369.71531933 0 -3391.43186163 0 29333.09277549 0 30586.10296985 0 16813.09663873 0 105
0.01150000 0.01145670 56983.78841443 0 -1922.58580062 0 31834.27995226 0 -1875.61576826 0 9891.54170206 0 144
0.01250000 0.01249090 58833.04120850 0 2321.61138421 0 40540.87187169 0 -14216.23383477 0 12204.95859513 0 169
0.01350000 0.01339930 54242.03909812 0 242.93151184 0 38085.92974548 0 11451.19722460 0 -3102.93304735 0 180
0.01450000 0.01448870 70001.71522630 0 -4822.53493124 0 28594.92949803 0 22609.76543563 0 2682.52050094 0 267
0.01550000 0.01550050 70436.37476335 0 -9569.75963287 0 15446.72565534 0 16010.34407449 0 17466.78855305 0 238
0.01650000 0.01653350 81126.89033669 0 -2470.17772837 0 10773.33925060 0 -426.03884448 0 1328.43026970 0 315
0.01750000 0.01747870 80327.54298994 0 -1321.53195812 0 9981.97768813 0 1298.03595736 0 -4290.62897314 0 297
0.01850000 0.01844180 80243.62085542 0 5969.67581506 0 11909.80312987 0 -12379.06407054 0 8224.75364314 0 388
0.01950000 0.01947590 75536.95119577 0 682.85046223 0 19473.23058075 0 2990.90139159 0 -2903.43124013 0 399
0.02050000 0.02045430 75027.59656517 0 2.85888880 0 12067.54159214 0 8231.61900101 0 -4247.85504750 0 462
0.02150000 0.02154770 69920.42938920 0 6455.67724435 0 15242.52245105 0 -10259.64571384 0 -9624.84726436 0 571
0.02250000 0.02255340 63788.29174567 0 5868.80448504 0 23156.79715018 0 -7708.51168554 0 -7893.33810379 0 510
0.02350000 0.02348930 63107.90731998 0 688.41304979 0 30282.05000080 0 -2684.09129482 0 -17097.81676004 0 555
0.02450000 0.02439640 54892.54548639 0 106.76850765 0 15629.94832599 0 586.77279969 0 -8374.37450627 0 592
0.02550000 0.02547300 64496.02775708 0 -2098.84425226 0 23154.05100704 0 5784.51985963 0 -31525.28392555 0 837
0.02650000 0.02652900 66646.91691424 0 -4093.88429363 0 11966.59337012 0 3298.70009990 0 -12576.23714838 0 723
0.02750000 0.02749970 62621.18090890 0 642.58980681 0 13629.98719611 0 1126.19330390 0 -18043.91799647 0 826
0.02850000 0.02848090 65770.45786797 0 3835.15367105 0 13510.69473787 0 -4810.83636144 0 -11917.93171358 0 831
0.02950000 0.02946900 62535.83077994 0 4848.99676659 0 17342.88257433 0 -2859.66870296 0 -23994.92003814 0 996
0.03050000 0.03053250 56499.80814649 0 -294.48430788 0 14932.53781280 0 -1777.90799515 0 -12582.82789193 0 1041
0.03150000 0.03150510 55481.42842248 0 -186.81352743 0 25810.66988583 0 -2130.07339211 0 -18467.15357803 0 1036
0.03250000 0.03246190 55915.64857662 0 5714.51517856 0 23732.71829062 0 -2792.78364052 0 -19984.89197159 0 1059
0.03350000 0.03345080 53517.93607356 0 -445.37169223 0 18606.65764981 0 5521.05488626 0 -6862.98519566 0 1302
0.03450000 0.03451200 54664.61560533 0 -2016.22928188 0 23033.98962872 0 1718.10798202 0 -15390.59448945 0 1339
0.03550000 0.03553350 53591.75240131 0 1495.59349524 0 19244.97116251 0 379.14899950 0 -10634.69197548 0 1365
0.03650000 0.03647120 51503.80484505 0 2350.89625471 0 22027.47324309 0 695.07629152 0 -7918.95412705 0 1308
0.03750000 0.03744890 49169.25363433 0 632.00397421 0 14893.21304296 0 2570.78542865 0 -300.33249432 0 1579
0.03850000 0.03847530 49406.74009354 0 -497.14637663 0 16853.51986583 0 8181.04602884 0 -1185.43310383 0 1662
0.03950000 0.03950240 50404.24912965 0 -791.24402755 0 11745.47392405 0 4938.76269373 0 -1681.68313934 0 1683
0.04050000 0.04050350 49681.02487090 0 1130.56516379 0 11157.25006232 0 -313.51288296 0 147.64583698 0 1822
0.04150000 0.04152450 46031.84001365 0 1639.94176353 0 11336.73797830 0 -2258.59289131 0 -2862.90915188 0 1887
0.04250000 0.04250150 44663.38196147 0 2608.38562059 0 10432.75159315 0 -3063.22381747 0 -467.86699841 0 1920
0.04350000 0.04349210 41781.68919048 0 1669.94063125 0 14258.30474776 0 -1556.64574965 0 -2096.96589035 0 2005
0.04450000 0.04448520 41661.07858353 0 365.76539627 0 13170.39267930 0 622.51659887 0 -4504.22398698 0 2151
0.04550000 0.04548030 39671.00356897 0 352.84204663 0 13653.16464425 0 3208.86826532 0 -4462.55950318 0 2274
0.04650000 0.04648670 40367.53531636 0 197.76514630 0 13394.03857706 0 -209.29784905 0 -4437.65747714 0 2311
0.04750000 0.04749250 40282.84426175 0 323.27377415 0 12677.51490758 0 598.86351873 0 1243.67330766 0 2568
0.04850000 0.04851840 38864.07686715 0 -265.24227721 0 13484.33176368 0 193.36582498 0 -3257.22235383 0 2493
0.04950000 0.04949480 40325.13486619 0 1677.16848001 0 13376.68295238 0 -2283.82445453 0 -2558.83421368 0 2644
0.05050000 0.05050630 37449.81314730 0 813.50646080 0 17720.64202540 0 -566.49967254 0 -3632.02695488 0 2829
0.05150000 0.05149060 37152.13123034 0 1594.59744792 0 18275.03340358 0 -702.78196918 0 -2866.27043109 0 2784
0.05250000 0.05249300 35972.38813511 0 1168.91230667 0 19790.13549973 0 435.85246163 0 -32.98041026 0 3055
0.05350000 0.05348950 35612.75322880 0 -293.55281612 0 18676.95891433 0 1020.18119392 0 878.56259191 0 3009
0.05450000 0.05448610 36219.32132674 0 -343.77977425 0 17239.62759206 0 3623.41504997 0 -3445.42103586 0 3336
0.05550000 0.05550870 35282.33728555 0 212.10880117 0 17026.63672971 0 553.98055517 0 600.90445232 0 3349
0.05650000 0.05647670 33887.40641344 0 966.60943344 0 16252.77359136 0 -542.63349169 0 608.24763909 0 3324
0.05750000 0.05747970 32716.56082200 0 872.44857882 0 15575.24515454 0 797.45470489 0 322.79814216 0 3639
0.05850000 0.05849280 33383.43422341 0 644.02109662 0 15913.56999004 0 501.99057314 0 -2283.63771680 0 3846
0.05950000 0.05951020 32233.67901132 0 240.56433645 0 14002.25436089 0 2156.42538173 0 -1336.48196140 0 3787
0.06050000 0.06049470 32590.01854586 0 -879.82142393 0 13060.65679922 0 262.31159324 0 -1466.25370188 0 3930
0.06150000 0.06148310 32295.63200068 0 581.37168535 0 11265.11856507 0 793.22015216 0 -4107.66993222 0 4083
0.06250000 0.06249100 31578.33941112 0 829.36928207 0 11961.21092955 0 -712.82955772 0 -2382.49887003 0 4303
0.06350000 0.06350600 31157.08105263 0 -135.71549270 0 11336.73797830 0 1070.72560620 0 -2554.12183204 0 4470
0.06450000 0.06451750 30807.77164454 0 -120.04929528 0 10308.63690755 0 3225.58678479 0 -2087.18962075 0 4479
0.06550000 0.06550280 30709.67941139 0 360.53454281 0 9907.01896483 0 -252.95054049 0 -2005.22274015 0 4636
0.06650000 0.06648880 30523.93028904 0 1073.07410781 0 9316.93871033 0 470.60764927 0 -1334.74639893 0 4653
0.06750000 0.06749660 29093.95863040 0 595.58791919 0 11301.36765459 0 -1408.99112501 0 1046.22232014 0 5220
0.06850000 0.06852730 28797.70470788 0 171.24838809 0 10015.42571164 0 1169.50547359 0 529.48166294 0 5029
0.06950000 0.06949320 29387.13687259 0 -711.34444351 0 10163.13525914 0 1104.85027938 0 -1125.17173865 0 5040
0.07050000 0.07048030 27922.89334750 0 734.83495197 0 9904.90992690 0 -1071.03317423 0 -2761.24693264 0 5475
0.07150000 0.07148790 27046.54414696 0 1152.21575635 0 10157.47820426 0 521.28058105 0 322.21046753 0 5509
0.07250000 0.07249820 26645.82693919 0 331.48693907 0 10463.81596441 0 -249.17074906 0 4.17824581 0 5916
0.07350000 0.07351270 26527.52309249 0 97.43491633 0 8807.26552713 0 2567.56694888 0 -1011.39353585 0 5721
0.07450000 0.07449140 26746.88500694 0 40.84129993 0 9158.71692687 0 458.50155183 0 -895.87647522 0 6028
0.07550000 0.07549160 25129.18700289 0 542.85098623 0 7188.21642065 0 129.93980444 0 -259.04478136 0 6183
0.07650000 0.07648840 25398.85825976 0 316.67534140 0 8181.14489000 0 220.24617254 0 106.13777349 0 6330
0.07750000 0.07749960 24762.85150730 0 6.77729454 0 7234.37359464 0 752.21584117 0 -168.07714198 0 6583
0.07850000 0.07848650 24584.57189430 0 -138.04092672 0 6637.08746053 0 572.41156950 0 914.60297455 0 6549
0.07950000 0.07947320 24244.70921864 0 269.55042657 0 6266.07253702 0 1526.11962244 0 -93.86679762 0 6828
0.08050000 0.08048110 24642.57043753 0 368.88171951 0 6666.47119218 0 -527.70435909 0 399.72859624 0 7147
0.08150000 0.08149960 23772.59228909 0 703.91777399 0 6644.72173847 0 -1619.42258195 0 -1440.63767862 0 7386
0.08250000 0.08250610 23262.79827559 0 794.22743746 0 7643.34021641 0 -322.28296571 0 -319.28527585 0 7227
0.08350000 0.08350160 22354.59381457 0 -81.64338494 0 8423.05813195 0 -434.44643634 0 -221.38637118 0 7798
0.08450000 0.08449610 22018.24620213 0 127.98455052 0 7812.45869588 0 1455.03845327 0 -928.17221706 0 7371
0.08550000 0.08548940 21928.83178131 0 263.60118206 0 7330.84011105 0 1279.25233825 0 446.27572255 0 8256
0.08650000 0.08650700 21988.80754761 0 439.83546764 0 7276.08201673 0 1182.37939266 0 436.32699516 0 8037
0.08750000 0.08749060 21828.98201655 0 -333.02587769 0 6811.10505936 0 -921.47162779 0 1376.61958961 0 8155
0.08850000 0.08849210 21055.11887819 0 708.82568102 0 6753.87543621 0 451.05291316 0 423.29929208 0 8718
0.08950000 0.08949900 20806.31830923 0 695.64639083 0 7161.27126411 0 -1119.85520552 0 1309.67960430 0 8571
0.09050000 0.09049190 19814.30155940 0 512.15349969 0 8050.01106252 0 -433.08764471 0 739.44957092 0 8932
0.09150000 0.09150830 19520.24455140 0 66.60264909 0 8443.95078900 0 325.45970410 0 -142.96640906 0 9285
0.09250000 0.09250820 19250.57329453 0 131.49741683 0 8160.03254149 0 902.34529001 0 705.75659144 0 9204
0.09350000 0.09350330 19273.20151405 0 -65.24363777 0 7234.79100840 0 519.82622364 0 665.10927906 0 9349
0.09450000 0.09448040 19026.15847669 0 72.96919751 0 6724.68942686 0 489.33964090 0 877.70140142 0 9564
0.09550000 0.09549270 18957.39505233 0 532.36071941 0 6437.14627040 0 163.10662289 0 581.91761861 0 10155
0.09650000 0.09649430 18667.51218191 0 63.18479933 0 6353.10330558 0 552.63824040 0 849.16897414 0 9913
0.09750000 0.09749140 18214.94779156 0 102.78418348 0 6576.48557360 0 -366.84188438 0 -337.29997488 0 10476
0.09850000 0.09850240 17979.54840114 0 451.54172664 0 6525.65995626 0 155.60965210 0 832.27250460 0 10575
0.09950000 0.09950330 17021.14444342 0 269.31425826 0 6129.65513013 0 -194.50602361 0 -6.69143913 0 10882
0.10050000 0.10051200 17244.02142110 0 412.42786060 0 7091.18969104 0 8.88368520 0 -738.69602924 0 10875
0.10150000 0.10150300 17447.01632240 0 49.85600911 0 6174.86763088 0 281.05676635 0 -1423.64454483 0 11118
0.10250000 0.10250800 16916.35162099 0 -56.56626481 0 6382.72869783 0 100.65394532 0 -1221.30871788 0 11575
0.10350000 0.10349800 16347.79014418 0 371.82228959 0 6232.04233116 0 -708.64333711 0 -370.45910413 0 11364
0.10450000 0.10450100 15812.84145947 0 478.64506103 0 6557.60309333 0 169.12397175 0 -930.19008305 0 12093
0.10550000 0.10551000 15500.65990671 0 443.20333760 0 7227.76088194 0 587.74822974 0 -746.94764016 0 12067
0.10650000 0.10649700 15665.09895825 0 24.42243960 0 6611.27371496 0 967.74743516 0 378.36579948 0 12054
0.10750000 0.10749900 15497.91376357 0 -366.67711580 0 5785.85997748 0 1499.63581795 0 684.42345303 0 12807
0.10850000 0.10850100 15678.06075390 0 -83.68409883 0 5086.05482747 0 546.21665927 0 1422.52411843 0 12736
0.10950000 0.10950300 15255.59409242 0 98.34443894 0 4488.13158815 0 205.50267922 0 1171.40580465 0 12933
0.11050000 0.11050200 15281.73737516 0 542.50277528 0 5200.59096577 0 -275.28547192 0 2062.23267185 0 13428
0.11150000 0.11150900 14815.77180626 0 144.10770615 0 4473.87361294 0 -323.43085354 0 1248.23190528 0 13453
0.11250000 0.11250000 14730.09214013 0 -31.42224863 0 4728.43009794 0 436.23802012 0 1207.46815643 0 13668
0.11350000 0.11349100 14582.23979318 0 133.67675603 0 4808.26597146 0 -402.40224120 0 537.32354930 0 13791
0.11450000 0.11448600 14285.21695059 0 307.18576915 0 5036.40455940 0 -49.57062992 0 567.86835028 0 14205
0.11550000 0.11549300 14059.59382976 0 300.44343850 0 4949.42871370 0 -235.03140724 0 -109.70929742 0 14776
0.11650000 0.11649800 13965.45604274 0 17.69581689 0 4691.92836325 0 236.42534950 0 208.68271299 0 14553
0.11750000 0.11747300 13914.15808879 0 -36.86433543 0 5150.54525309 0 408.02744082 0 -296.13419068 0 14568
0.11850000 0.11849100 13492.78988457 0 126.47856562 0 4187.58269775 0 427.18783077 0 885.47957727 0 16015
0.11950000 0.11950300 13751.14703168 0 -77.84480990 0 4220.21786289 0 319.06448594 0 601.81287647 0 15270
0.12050000 0.12050700 13855.61031693 0 146.90657525 0 4046.76047726 0 841.99934362 0 614.12109005 0 15999
0.12150000 0.12150000 13673.26641208 0 65.53989169 0 3841.79933746 0 -300.56317034 0 964.86947714 0 15670
0.12250000 0.12250700 13694.46663716 0 313.95336432 0 4588.25596723 0 -892.32186753 0 362.90940740 0 16887
0.12350000 0.12352200 12798.78458888 0 343.08664772 0 4481.92530464 0 -962.57589839 0 628.89534017 0 16407
0.12450000 0.12449800 12840.74565614 0 -11.46943162 0 5570.36463258 0 621.08201369 0 87.45015954 0 16306
0.12550000 0.12549900 12722.33196371 0 52.50307141 0 4972.13382523 0 202.60275206 0 -395.51930802 0 17523
0.12650000 0.12650100 12832.28753525 0 239.04187469 0 5177.27071818 0 33.04049587 0 -351.94790242 0 17154
0.12750000 0.12750600 12816.90913364 0 -79.58202005 0 4641.17963792 0 262.70703786 0 672.25254661 0 18007
0.12850000 0.12850300 12787.47047912 0 -112.75773600 0 4585.38899378 0 470.14849414 0 -169.41066909 0 17496
0.12950000 0.12949900 12846.23794243 0 151.13783260 0 4134.79084192 0 238.75407888 0 131.36450350 0 18405
0.13050000 0.13049000 12585.68388080 0 152.05724133 0 4106.04421548 0 -274.86805816 0 -130.12324680 0 18100
0.13150000 0.13148800 12164.20583085 0 304.22213147 0 4487.70318982 0 195.07502447 0 121.17521397 0 19059
0.13250000 0.13249300 12275.58939683 0 66.58485408 0 3984.13742897 0 304.90756880 0 525.79304346 0 18957
0.13350000 0.13349100 12335.56516312 0 -250.05390870 0 3529.63975385 0 838.25030900 0 339.82093429 0 19468
0.13450000 0.13450700 12336.99315756 0 -71.27098259 0 3124.90219251 0 494.13220991 0 125.87990641 0 19953
0.13550000 0.13551000 12430.25217877 0 237.33597056 0 2770.01262156 0 -95.95771101 0 727.88061907 0 19956
0.13650000 0.13649900 11894.86411116 0 271.04872227 0 3028.62241384 0 -514.75464648 0 286.73908575 0 19723
0.13750000 0.13749600 11684.39970050 0 207.65345853 0 3659.24672573 0 -33.07498743 0 967.45854090 0 20946
0.13850000 0.13851100 11378.14981693 0 137.81244761 0 3415.14755383 0 -120.29974354 0 34.18640648 0 20955
0.13950000 0.13949800 11239.96389386 0 -40.86447738 0 3508.82398880 0 279.22014582 0 187.97130138 0 20506
0.14050000 0.14048300 11424.06533032 0 76.52600211 0 3220.08351393 0 574.10978442 0 187.44733727 0 21447
0.14150000 0.14148400 11398.69096766 0 62.09600849 0 3023.28391156 0 192.24979240 0 474.40940984 0 21771
0.14250000 0.14249400 11233.04361313 0 78.21081585 0 2503.34015300 0 166.42396381 0 650.54703119 0 22470
0.14350000 0.14350900 11010.05678973 0 157.66925946 0 2687.91392608 0 173.55844370 0 593.92815027 0 22519
0.14450000 0.14449900 10756.21430195 0 294.78638362 0 2668.32843317 0 -164.21276935 0 1194.09993160 0 22218
0.14550000 0.14550500 10511.91740774 0 123.78295150 0 2839.19345967 0 -36.23074528 0 298.79245724 0 23559
0.14650000 0.14650700 10535.30356277 0 95.78338584 0 2488.18144284 0 186.73224160 0 1057.64847254 0 23044
0.14750000 0.14750500 10232.77744930 0 -132.44648390 0 2605.18910997 0 89.76614683 0 632.47191700 0 23649
0.14850000 0.14849900 10297.63036582 0 145.18639118 0 2471.53981537 0 -83.86391629 0 250.45045177 0 23640
0.14950000 0.14949500 10204.31642175 0 180.11403662 0 2337.49507616 0 -27.46527605 0 -24.08828891 0 24457
0.15050000 0.15050000 10068.01984516 0 223.72388822 0 2621.90762944 0 -500.93605417 0 -60.03013993 0 24591
0.15150000 0.15149900 10063.62601612 0 124.83747047 0 2585.95512338 0 168.30781801 0 -373.01631263 0 25020
0.15250000 0.15250500 9899.72520864 0 -143.62108959 0 2770.81449535 0 493.82134651 0 -229.05909512 0 25297
0.15350000 0.15350100 9833.88368058 0 -11.96208970 0 2249.50864979 0 -6.50438284 0 -817.60041100 0 25452
0.15450000 0.15450400 9734.67102103 0 420.35322971 0 2462.37868184 0 -385.44206114 0 -451.09245763 0 26061
0.15550000 0.15549900 9231.80827283 0 220.96785896 0 2712.49739952 0 -18.92224442 0 383.42858898 0 26128
0.15650000 0.15649500 9181.01560921 0 29.27245793 0 2733.96125434 0 301.00694707 0 201.71849397 0 26331
0.15750000 0.15749700 9063.21705285 0 107.04498934 0 2543.82928753 0 243.02927453 0 -48.04816816 0 27345
0.15850000 0.15849900 9064.82080045 0 32.27476131 0 2750.63583552 0 267.02727025 0 505.76597073 0 26980
0.15950000 0.15949700 8929.31511308 0 107.57642296 0 2626.13668988 0 300.39071255 0 1072.89615774 0 27777
0.16050000 0.16050000 8891.62704456 0 -125.50313557 0 2242.75313765 0 108.86546256 0 1080.01416077 0 28224
0.16150000 0.16150500 8896.71290166 0 31.51715534 0 2579.28748783 0 69.85001828 0 515.61693543 0 28075
0.16250000 0.16249700 8782.86879143 0 326.53509375 0 2376.06191050 0 -246.76622613 0 1223.57153984 0 28590
0.16350000 0.16349900 8504.17920047 0 122.64604824 0 2624.22537426 0 -495.92489216 0 666.40326171 0 29163
0.16450000 0.16449100 8502.33379227 0 -117.87544837 0 2550.39806194 0 427.83592056 0 617.35714513 0 28996
0.16550000 0.16550500 8735.38248416 0 -66.05177277 0 2493.19040793 0 270.97622409 0 77.65170111 0 30777
0.16650000 0.16650700 8607.82962735 0 136.08018051 0 1840.38824400 0 -123.00304685 0 116.95713810 0 29211
0.16750000 0.16749900 8463.70105051 0 129.90575226 0 2189.39008405 0 -141.72295544 0 22.12523594 0 30922
0.16850000 0.16850800 8278.86364768 0 221.24576865 0 2290.52504381 0 -289.59507462 0 -371.65422563 0 30867
0.16950000 0.16949900 8078.74670439 0 291.71180176 0 2739.32172576 0 -266.10236924 0 -486.44520602 0 30852
0.17050000 0.17049200 7907.03586580 0 -0.46924666 0 2665.43949058 0 -0.52228787 0 -239.05066234 0 31257
0.17150000 0.17149500 7967.57184530 0 -184.21457756 0 2688.44118557 0 327.07992855 0 -478.51214770 0 32608
0.17250000 0.17250900 7977.47992977 0 39.22239362 0 2279.19994948 0 172.45449416 0 -385.73644768 0 32361
0.17350000 0.17350400 8128.02349699 0 12.56184736 0 2462.34572812 0 219.71232231 0 0.10295357 0 32508
0.17450000 0.17449800 8031.13956682 0 171.48455640 0 2321.90796767 0 -6.63189176 0 -77.72903250 0 32791
0.17550000 0.17549800 7924.53428992 0 153.90264952 0 2423.81184751 0 79.18470806 0 186.84318578 0 33633
0.17650000 0.17650100 7872.59923076 0 -6.68675970 0 2279.35373349 0 5.08402268 0 -131.96206425 0 33984
0.17750000 0.17750300 7756.78888203 0 93.28878941 0 2393.37359689 0 129.29720694 0 344.98697878 0 34069
0.17850000 0.17849800 7553.83791902 0 22.08722932 0 2162.97218699 0 132.07190997 0 242.22630228 0 34536
