### header ###
fiducial parameters:
Omega_m = 0.31
Omega_nu = 0
Omega_de = 0.69
Omega_k = 0
H_0 = 100
w_de = -1
zeff = 0
beta = 0
fgrowth = 0
b_1 = 2
gamma = 0.55
Lx = 3500 Ly = 3500 Lz = 3500
nx = 700 ny = 700 nz = 700
xoffset = -983.599254 yoffset = -42.9823471 zoffset = 800.977702
bins = 400 dk = 0.001
kx_ny = 0.628318531 ky_ny = 0.628318531 kz_ny = 0.628318531
############################
A(data) = 9.06551387 (not used)
A(ran) = 9.06249199 (used)
Ngal = 503193
weighted Ngal = 0
Nran = 25229228
weighted Nran = 0
SN(data) = 6721.96214
SN(ran) = 134.52645
SN(data+ran) = 6856.48859
############################
13 columns: k_central k_mean P_0(k) sigma^{lin}_{P_0(k)} P^img_1(k) sigma^{lin}_{P_1(k)} P_2(k) sigma^{lin}_{P_2(k)} P^img_3(k) sigma^{lin}_{P_3(k)} P_4(k) sigma^{lin}_{P_4(k)} N_modes
### header ###
0.00050000 0 0 0 0 0 0 0 0 0 0 0 0
0.00150000 0.00179520 60271.03160512 0 -27667.28234353 0 -69394.81759118 0 101754.26995856 0 58949.91706076 0 3
0.00250000 0.00253879 71829.98748674 0 -1730.94894737 0 8539.08817213 0 -79050.14704446 0 -28942.26168305 0 6
0.00350000 0.00331552 77270.53644056 0 -10694.43706575 0 -11037.07883828 0 -126251.18496367 0 -51921.21860314 0 7
0.00450000 0.00420575 71463.76183688 0 -605.67505219 0 -13995.77346307 0 -4931.43598381 0 -27971.66484976 0 24
0.00550000 0.00557378 64880.48779743 0 16793.76379099 0 20990.74928287 0 -52702.33155940 0 6563.46885509 0 45
0.00650000 0.00659388 53650.95924752 0 14398.79743108 0 22805.07113613 0 -8696.82663440 0 -6084.87102772 0 40
0.00750000 0.00754703 40599.41964355 0 -8583.07040075 0 32815.86135813 0 37399.61365060 0 1654.16678502 0 57
0.00850000 0.00846663 52462.53833995 0 -12520.65521112 0 12400.48398708 0 14889.47828828 0 -19442.03439462 0 75
0.00950000 0.00948925 67459.44574808 0 -5621.86030884 0 -8064.65349777 0 9358.74599358 0 -11699.66825639 0 112
0.01050000 0.01054430 73880.14811332 0 -648.69503225 0 1128.80763218 0 -20513.03022130 0 -11178.99951603 0 105
0.01150000 0.01145670 68523.74098548 0 5872.55022429 0 11742.94747236 0 -5766.39531487 0 5229.24971564 0 144
0.01250000 0.01249090 71178.05310404 0 81.86406500 0 12523.40135426 0 -9686.94305316 0 -11262.48226765 0 169
0.01350000 0.01339930 61175.06192857 0 2346.16190393 0 11414.72844363 0 -8604.81985446 0 -17945.71591759 0 180
0.01450000 0.01448870 70554.45891860 0 302.08892747 0 19655.24494843 0 12671.03400976 0 -4766.28293505 0 267
0.01550000 0.01550050 68766.28034808 0 -4914.54171118 0 15625.33480551 0 6116.57250419 0 20637.48542865 0 238
0.01650000 0.01653350 75029.68363396 0 -4380.30702369 0 9513.35385266 0 12141.90714851 0 -2232.32877827 0 315
0.01750000 0.01747870 75963.70184055 0 2174.72567965 0 14661.32871577 0 -6492.87100711 0 5690.16238115 0 297
0.01850000 0.01844180 71714.10024601 0 9277.02077357 0 17935.82980227 0 -6128.27107399 0 -184.77918459 0 388
0.01950000 0.01947590 69674.15527193 0 684.64314448 0 18835.35645096 0 -596.52380477 0 10588.89729239 0 399
0.02050000 0.02045430 69758.73648080 0 -138.54182322 0 25200.36703321 0 3658.71946625 0 -993.35467076 0 462
0.02150000 0.02154770 69985.23836743 0 -863.10839675 0 21618.29791444 0 -714.83643913 0 -2377.20430605 0 571
0.02250000 0.02255340 63856.17640422 0 3431.00927664 0 27587.42450087 0 -402.56261596 0 6738.26635857 0 510
0.02350000 0.02348930 62772.43847334 0 4346.37567899 0 27201.53646608 0 -7788.18279047 0 -3632.08187774 0 555
0.02450000 0.02439640 58828.09815084 0 2596.43440562 0 32171.17679333 0 1809.18107329 0 -3863.37303801 0 592
0.02550000 0.02547300 58063.79159063 0 2264.32683820 0 31499.47017999 0 5898.13329383 0 -4959.43565932 0 837
0.02650000 0.02652900 58852.70359342 0 -324.82699272 0 30782.72681905 0 835.70408507 0 2316.07515963 0 723
0.02750000 0.02749970 57464.69300204 0 -1649.14683535 0 26171.51309513 0 9548.50448492 0 -12269.65772763 0 826
0.02850000 0.02848090 57373.08166671 0 1332.01124036 0 26846.40523453 0 -1.25920549 0 3170.55407616 0 831
0.02950000 0.02946900 54639.13139694 0 2073.27216729 0 23048.70895598 0 -788.69231134 0 -3230.40901216 0 996
0.03050000 0.03053250 54412.19012741 0 1394.20589031 0 28735.53202707 0 -3130.89976914 0 -6239.58873253 0 1041
0.03150000 0.03150510 50059.66308778 0 1818.17743824 0 22960.17330098 0 3016.60529143 0 -7329.32424003 0 1036
0.03250000 0.03246190 52366.31348413 0 -1847.64904647 0 25607.45529308 0 6797.72584996 0 7199.77219101 0 1059
0.03350000 0.03345080 54447.01122249 0 -2174.13251273 0 21653.00916380 0 2838.41355502 0 -5984.09855886 0 1302
0.03450000 0.03451200 54664.39591388 0 977.22272747 0 16556.38717750 0 6380.27913815 0 -1817.16685756 0 1339
0.03550000 0.03553350 56378.42861947 0 550.56655001 0 18006.24091252 0 -1015.26449923 0 2322.00682882 0 1365
0.03650000 0.03647120 53060.86800845 0 950.30503236 0 17838.39664347 0 -100.53399379 0 2034.27693463 0 1308
0.03750000 0.03744890 53067.01936910 0 2946.85325554 0 22637.55640426 0 -1355.36444167 0 3402.89975540 0 1579
0.03850000 0.03847530 48582.78730422 0 1184.82895234 0 16128.64792119 0 -63.71678218 0 5713.75724306 0 1662
0.03950000 0.03950240 46968.05513476 0 1504.55690647 0 24533.60347753 0 4941.46489858 0 6057.27778139 0 1683
0.04050000 0.04050350 45230.73513529 0 1258.17294347 0 20607.16800833 0 411.46561204 0 5374.43281145 0 1822
0.04150000 0.04152450 43890.50743464 0 2948.65472545 0 24821.61897061 0 -2143.82607698 0 3914.12176334 0 1887
0.04250000 0.04250150 40616.99495968 0 2085.84950290 0 22729.60712249 0 941.72278580 0 8450.57448627 0 1920
0.04350000 0.04349210 39241.83631822 0 -1582.81100154 0 24569.30333842 0 6815.70759527 0 9939.02800933 0 2005
0.04450000 0.04448520 40377.53127740 0 95.65332850 0 20724.70293495 0 1635.67974937 0 4725.80478509 0 2151
0.04550000 0.04548030 39531.93888009 0 1694.96348759 0 20924.07292730 0 946.50437024 0 8263.74887581 0 2274
0.04650000 0.04648670 38638.23405487 0 -81.28770448 0 19681.16853972 0 1899.40835248 0 8720.47641917 0 2311
0.04750000 0.04749250 39227.00714523 0 383.21878365 0 19620.20416189 0 1492.28713889 0 5284.60097688 0 2568
0.04850000 0.04851840 36961.76858751 0 1605.27445246 0 18836.78444539 0 -3530.73821110 0 2913.85559951 0 2493
0.04950000 0.04949480 36473.17479909 0 412.66512736 0 22765.74636629 0 171.77015528 0 9449.09410306 0 2644
0.05050000 0.05050630 35815.08905574 0 78.36734601 0 19621.41246488 0 2345.32707642 0 4733.62580077 0 2829
0.05150000 0.05149060 35980.40687309 0 -493.37756978 0 18081.04585179 0 2798.50660283 0 2377.45695122 0 2784
0.05250000 0.05249300 36670.67741410 0 1163.67266555 0 17608.81907652 0 2056.25706436 0 2827.09944526 0 3055
0.05350000 0.05348950 37034.70614945 0 -719.91131167 0 15644.55780753 0 3566.37216456 0 7660.21251990 0 3009
0.05450000 0.05448610 36623.99298063 0 -145.16881586 0 15236.37109040 0 719.35000001 0 3398.87940184 0 3336
0.05550000 0.05550870 34972.57233875 0 403.55781824 0 13921.18821524 0 -624.30159192 0 3806.65968977 0 3349
0.05650000 0.05647670 34256.92743508 0 976.33078017 0 14973.62011426 0 479.88961310 0 5763.14388138 0 3324
0.05750000 0.05747970 34055.47037394 0 1104.10332844 0 14557.74419633 0 -1039.51184475 0 4121.20292564 0 3639
0.05850000 0.05849280 33721.75905892 0 -100.98655818 0 14243.91495768 0 2947.52331447 0 4281.57768533 0 3846
0.05950000 0.05951020 32742.81395047 0 251.17543356 0 13297.04480117 0 1438.41879495 0 1535.15992568 0 3787
0.06050000 0.06049470 32659.00166167 0 599.30839392 0 13824.08459362 0 -651.51806740 0 6255.46143991 0 3930
0.06150000 0.06148310 31772.54665436 0 870.95248003 0 13924.04420411 0 -763.11693100 0 2718.27528470 0 4083
0.06250000 0.06249100 31431.80521288 0 875.50228999 0 15084.45445160 0 789.40850547 0 3565.07598499 0 4303
0.06350000 0.06350600 30284.24691531 0 -148.52240587 0 13752.90456329 0 1956.56108362 0 4230.57631483 0 4470
0.06450000 0.06451750 30982.64604003 0 -1152.97369186 0 12425.30912111 0 2324.47835766 0 3542.53564206 0 4479
0.06550000 0.06550280 31694.11680613 0 -718.31305635 0 11567.85338541 0 128.87979318 0 2659.89228143 0 4636
0.06650000 0.06648880 31802.53453750 0 841.71594165 0 10036.49412185 0 689.34014771 0 3040.72741282 0 4653
0.06750000 0.06749660 31725.75237516 0 743.47761368 0 11208.87755345 0 -733.22351518 0 2887.19604185 0 5220
0.06850000 0.06852730 30461.53791677 0 691.91493153 0 12559.43075233 0 -523.36655138 0 2339.32949979 0 5029
0.06950000 0.06949320 29457.21844566 0 690.23868575 0 12096.10148085 0 -262.64881962 0 3268.74517047 0 5040
0.07050000 0.07048030 28961.15514789 0 265.18735434 0 13094.92866567 0 2317.47020035 0 3320.33970788 0 5475
0.07150000 0.07148790 29375.16368848 0 504.77735920 0 11913.86742172 0 1771.29528246 0 3507.92325385 0 5509
0.07250000 0.07249820 28741.24400481 0 400.74906303 0 11806.10876470 0 103.61011350 0 5817.52850023 0 5916
0.07350000 0.07351270 27782.18097273 0 205.10503770 0 11150.98885595 0 97.72545827 0 5524.20745859 0 5721
0.07450000 0.07449140 26363.30373240 0 546.11999503 0 12131.47180456 0 99.25264340 0 5673.35598510 0 6028
0.07550000 0.07549160 26572.55984008 0 892.54046052 0 11680.22556292 0 -529.61347781 0 5112.69241598 0 6183
0.07650000 0.07648840 25583.39907913 0 296.88224007 0 12454.74777563 0 1358.59390601 0 5354.64959623 0 6330
0.07750000 0.07749960 25754.31902849 0 102.74727532 0 12224.18159715 0 84.65557443 0 3808.08768421 0 6583
0.07850000 0.07848650 24449.02226865 0 353.11556249 0 10476.88760578 0 183.78617923 0 4280.01787602 0 6549
0.07950000 0.07947320 24814.14946125 0 410.20348465 0 11513.91913404 0 671.86149582 0 2268.03962373 0 6828
0.08050000 0.08048110 23583.32810351 0 -133.93928731 0 9211.23416838 0 1380.28843685 0 3717.12443866 0 7147
0.08150000 0.08149960 24430.89772389 0 165.85056912 0 9370.75213141 0 757.68176449 0 2337.05569326 0 7386
0.08250000 0.08250610 23258.18475511 0 333.33015035 0 7301.74197828 0 1687.37314794 0 1535.31370969 0 7227
0.08350000 0.08350160 23312.55838938 0 348.43283919 0 7485.39304727 0 -312.82744563 0 2693.34030494 0 7798
0.08450000 0.08449610 22385.13092634 0 217.93392001 0 6254.61562782 0 1105.11390912 0 1455.21420643 0 7371
0.08550000 0.08548940 21711.44708993 0 1041.83288493 0 6557.17469500 0 -445.04984425 0 1605.74678909 0 8256
0.08650000 0.08650700 20109.01764176 0 698.63968686 0 6812.88456012 0 -399.09478640 0 1983.38540986 0 8037
0.08750000 0.08749060 20284.66095734 0 229.61930833 0 7521.45539905 0 529.49374597 0 1099.86328342 0 8155
0.08850000 0.08849210 19468.72690600 0 281.16990745 0 6778.55777080 0 -238.02470327 0 744.99678007 0 8718
0.08950000 0.08949900 19109.20184541 0 232.05788344 0 6350.13747098 0 736.49581935 0 1583.09660042 0 8571
0.09050000 0.09049190 19093.71359807 0 -82.88683856 0 6760.02679686 0 -300.66203150 0 355.99791433 0 8932
0.09150000 0.09150830 18737.81344643 0 507.16430682 0 6330.29933290 0 33.34147316 0 1019.81980148 0 9285
0.09250000 0.09250820 18548.32956940 0 88.93714113 0 6677.38985733 0 782.10486316 0 1019.57484551 0 9204
0.09350000 0.09350330 18034.91064695 0 -4.07301361 0 6128.35895057 0 56.27802963 0 1573.68282172 0 9349
0.09450000 0.09448040 18280.63553560 0 523.92786304 0 6873.06903329 0 280.38560897 0 897.05402140 0 9564
0.09550000 0.09549270 18112.46172938 0 74.80076514 0 6633.22089098 0 -19.13402698 0 696.93048737 0 10155
0.09650000 0.09649430 18083.13292058 0 -94.62341498 0 6789.57529710 0 -190.75149670 0 1536.75268870 0 9913
0.09750000 0.09749140 17388.46855054 0 187.00246208 0 6440.63936448 0 220.49881771 0 108.65192247 0 10476
0.09850000 0.09850240 18127.51059381 0 -20.42910809 0 5794.46089781 0 158.48980703 0 1032.00828322 0 10575
0.09950000 0.09950330 17470.19377055 0 -67.51964121 0 6165.08037671 0 1004.72809721 0 151.65850134 0 10882
0.10050000 0.10051200 17488.53800676 0 350.75827321 0 5835.68599871 0 -421.28801684 0 240.71592355 0 10875
0.10150000 0.10150300 17006.31527044 0 608.86607053 0 5598.34233894 0 -219.48604012 0 189.72993145 0 11118
0.10250000 0.10250800 16084.27024796 0 476.05380036 0 6570.49898154 0 -846.91164448 0 -67.61114270 0 11575
0.10350000 0.10349800 15494.39870034 0 385.20699128 0 6651.75186492 0 239.91734512 0 117.94904501 0 11364
0.10450000 0.10450100 15603.36566035 0 -25.49673080 0 6532.59122156 0 693.48682386 0 233.85386106 0 12093
0.10550000 0.10551000 15278.00262049 0 93.19454177 0 6321.79727372 0 494.19482198 0 69.77488380 0 12067
0.10650000 0.10649700 15130.80934790 0 409.21816849 0 6068.69075231 0 331.32876123 0 -271.30905664 0 12054
0.10750000 0.10749900 15162.33507121 0 235.12477610 0 5944.91658846 0 -93.28219866 0 1095.49032508 0 12807
0.10850000 0.10850100 14744.81146739 0 -176.20243032 0 5967.75351486 0 546.66592828 0 649.27391922 0 12736
0.10950000 0.10950300 14788.74975771 0 165.35406644 0 6049.28101255 0 -132.47064996 0 -107.99592379 0 12933
0.11050000 0.11050200 14583.44809617 0 128.78862123 0 5317.89521637 0 122.37253239 0 779.94309928 0 13428
0.11150000 0.11150900 14515.12405471 0 -3.14572894 0 5631.58165558 0 110.48392948 0 433.24142872 0 13453
0.11250000 0.11250000 14264.23641695 0 298.09054305 0 5750.68737608 0 394.29672509 0 794.06486579 0 13668
0.11350000 0.11349100 14142.63719848 0 56.36590621 0 5132.05821744 0 719.86627492 0 1063.78006095 0 13791
0.11450000 0.11448600 13950.84656121 0 -115.31274759 0 4573.99799202 0 872.88137098 0 1472.48195453 0 14205
0.11550000 0.11549300 14268.19086308 0 147.63045858 0 5123.02889878 0 207.88523302 0 755.33545978 0 14776
0.11650000 0.11649800 13804.31236297 0 278.33918310 0 4421.60901660 0 -797.60848890 0 1431.70722111 0 14553
0.11750000 0.11747300 13543.42876417 0 205.33351681 0 4702.96785869 0 126.43023350 0 1046.14103430 0 14568
0.11850000 0.11849100 13330.87728472 0 68.08314978 0 4878.03997650 0 -287.06972138 0 1016.71446281 0 16015
0.11950000 0.11950300 13542.65984409 0 137.60154381 0 5332.81226594 0 237.37441657 0 401.21371045 0 15270
0.12050000 0.12050700 13292.32143496 0 -34.11797259 0 4854.52200660 0 57.90154945 0 206.91419680 0 15999
0.12150000 0.12150000 13112.17444462 0 65.05492281 0 4890.39762065 0 325.99245587 0 361.95814341 0 15670
0.12250000 0.12250700 13407.32990988 0 -36.62893604 0 4548.66756764 0 188.95332217 0 -129.15440750 0 16887
0.12350000 0.12352200 13190.93383003 0 226.12841116 0 4825.01744465 0 -364.10672581 0 102.07501948 0 16407
0.12450000 0.12449800 13034.51351647 0 217.23969503 0 4973.94627970 0 50.30560767 0 -266.13422450 0 16306
0.12550000 0.12549900 12903.90694848 0 211.41347773 0 4949.00031537 0 -323.37812759 0 -103.88989056 0 17523
0.12650000 0.12650100 12624.34957629 0 107.10342727 0 5154.49969922 0 60.24192249 0 257.50144891 0 17154
0.12750000 0.12750600 12504.94727233 0 -38.32077991 0 4988.20425491 0 417.85533791 0 83.74308599 0 18007
0.12850000 0.12850300 12510.11002144 0 152.82835832 0 5105.91493470 0 264.50521239 0 344.77058270 0 17496
0.12950000 0.12949900 12407.29442208 0 107.05773145 0 4968.55285457 0 265.47734706 0 375.30439910 0 18405
0.13050000 0.13049000 12052.49272770 0 -28.89425910 0 4546.71231372 0 155.91612168 0 1122.96383956 0 18100
0.13150000 0.13148800 12290.63826126 0 128.93910987 0 4455.26574698 0 345.84597235 0 750.77356679 0 19059
0.13250000 0.13249300 12032.50080560 0 246.87277648 0 4098.69553642 0 637.71375504 0 1100.24774347 0 18957
0.13350000 0.13349100 11968.46074745 0 148.77065721 0 4081.57058777 0 284.66409999 0 962.51438478 0 19468
0.13450000 0.13450700 11628.48822606 0 -11.96637368 0 3856.69441788 0 -153.44569130 0 1709.82561429 0 19953
0.13550000 0.13551000 11394.18729290 0 94.54212914 0 3610.66196121 0 420.74537895 0 737.82824800 0 19956
0.13650000 0.13649900 11124.29634458 0 210.09203365 0 3357.22590261 0 -90.48552648 0 706.87042710 0 19723
0.13750000 0.13749600 10999.73129151 0 313.30417608 0 3508.06605330 0 -219.96826286 0 867.78233238 0 20946
0.13850000 0.13851100 10806.63349010 0 94.77148701 0 3487.73360945 0 144.78106045 0 812.04002036 0 20955
0.13950000 0.13949800 10921.22455127 0 -114.64488557 0 3239.25159308 0 515.03035925 0 512.80378639 0 20506
0.14050000 0.14048300 11044.43850191 0 -234.69747623 0 2873.00397408 0 167.99256077 0 172.68297327 0 21447
0.14150000 0.14148400 11117.37606385 0 90.16060283 0 2582.64876704 0 7.28019025 0 -44.89966012 0 21771
0.14250000 0.14249400 10798.04355434 0 218.58200980 0 3055.10621833 0 -457.66562586 0 14.28005420 0 22470
0.14350000 0.14350900 10891.54423615 0 191.60170262 0 3338.28849948 0 327.96967893 0 475.20798827 0 22519
0.14450000 0.14449900 10670.96303415 0 -69.21225399 0 3210.73564266 0 -28.01076993 0 424.24945761 0 22218
0.14550000 0.14550500 10584.85496968 0 210.51274278 0 3055.09523376 0 -16.78420721 0 208.63987315 0 23559
0.14650000 0.14650700 10362.07685316 0 52.14563342 0 3342.77020509 0 135.38375861 0 587.57247658 0 23044
0.14750000 0.14750500 10319.98397103 0 280.88101319 0 3388.30125844 0 92.20560071 0 254.76629034 0 23649
0.14850000 0.14849900 10213.93890733 0 102.97663320 0 3461.24980495 0 -46.71200475 0 1051.95407011 0 23640
0.14950000 0.14949500 10160.38911599 0 -157.05302494 0 3253.68532146 0 442.23779367 0 545.10172515 0 24457
0.15050000 0.15050000 10011.13074376 0 23.64550078 0 2884.90026618 0 -38.41184201 0 514.96884564 0 24591
0.15150000 0.15149900 9791.86769046 0 431.63218884 0 2988.23214046 0 -312.28151237 0 214.41556142 0 25020
0.15250000 0.15250500 9639.94006709 0 163.91948126 0 3180.24246918 0 181.78588856 0 904.67182248 0 25297
0.15350000 0.15350100 9566.20063135 0 -212.09561969 0 3016.36363084 0 331.48254524 0 635.22135552 0 25452
0.15450000 0.15450400 9600.32969836 0 206.55939511 0 2959.69422089 0 523.83998646 0 644.44839649 0 26061
0.15550000 0.15549900 9516.98974619 0 27.08092586 0 2452.69028883 0 239.68227527 0 1349.82821709 0 26128
0.15650000 0.15649500 9487.11170876 0 -123.93344015 0 2552.02377868 0 45.58740421 0 1003.18586322 0 26331
0.15750000 0.15749700 9328.18691266 0 123.60060760 0 2300.97137233 0 40.67609196 0 1184.59827632 0 27345
0.15850000 0.15849900 9459.47452415 0 71.14290247 0 2446.82452707 0 -54.89902638 0 1146.28408715 0 26980
0.15950000 0.15949700 9092.97425997 0 68.44355361 0 2301.45469353 0 195.49243823 0 1269.11357776 0 27777
0.16050000 0.16050000 9114.86651313 0 311.53456144 0 2436.23539910 0 -6.01461370 0 592.39580240 0 28224
0.16150000 0.16150500 9017.36744690 0 8.01981447 0 2282.18775322 0 -89.55853840 0 1333.18658963 0 28075
0.16250000 0.16249700 8892.51679494 0 4.91610152 0 2107.26941943 0 257.00604469 0 728.72313579 0 28590
0.16350000 0.16349900 8769.17102942 0 81.68622477 0 2088.01346370 0 72.39942773 0 797.86003562 0 29163
0.16450000 0.16449100 8734.06433545 0 154.53645936 0 2046.37094904 0 -35.16820758 0 841.50723477 0 28996
0.16550000 0.16550500 8596.93293134 0 -14.08266143 0 1892.43314889 0 -29.84222771 0 777.78792614 0 30777
0.16650000 0.16650700 8446.55413271 0 80.55371534 0 1872.64993367 0 249.19821049 0 725.79904257 0 29211
0.16750000 0.16749900 8424.21151208 0 96.94104994 0 1677.30029488 0 -42.80281506 0 541.98100808 0 30922
0.16850000 0.16850800 8304.16111833 0 161.04262170 0 1837.12582594 0 152.70972494 0 683.11519043 0 30867
0.16950000 0.16949900 8288.40924125 0 88.62144452 0 1594.77320108 0 189.31141924 0 502.81880991 0 30852
0.17050000 0.17049200 8160.96623016 0 29.87254513 0 1557.74420691 0 8.81152754 0 802.13742818 0 31257
0.17150000 0.17149500 8018.27663233 0 35.04232437 0 1618.98319905 0 174.87219858 0 877.28728304 0 32608
0.17250000 0.17250900 8044.50779166 0 67.16967272 0 1584.54656400 0 -104.90299769 0 642.51401326 0 32361
0.17350000 0.17350400 7853.94742652 0 146.15303357 0 1472.99822944 0 -161.07667388 0 790.69589738 0 32508
0.17450000 0.17449800 7756.21768426 0 96.65512152 0 1837.22468709 0 51.93341148 0 918.74745379 0 32791
0.17550000 0.17549800 7648.48099638 0 30.38409668 0 1745.85501236 0 165.33319575 0 974.50514421 0 33633
0.17650000 0.17650100 7781.07577201 0 122.07485047 0 1834.48952852 0 68.67082441 0 948.11361013 0 33984
0.17750000 0.17750300 7545.74228903 0 57.13405737 0 1845.56197768 0 -247.97343065 0 926.99796625 0 34069
0.17850000 0.17849800 7484.45935860 0 24.13090905 0 2002.89401076 0 110.78820214 0 1188.33303099 0 34536
