### header ###
fiducial parameters:
Omega_m = 0.31
Omega_nu = 0
Omega_de = 0.69
Omega_k = 0
H_0 = 100
w_de = -1
zeff = 0
beta = 0
fgrowth = 0
b_1 = 2
gamma = 0.55
Lx = 3500 Ly = 3500 Lz = 3500
nx = 700 ny = 700 nz = 700
xoffset = -983.599254 yoffset = -42.9823471 zoffset = 800.977702
bins = 400 dk = 0.001
kx_ny = 0.628318531 ky_ny = 0.628318531 kz_ny = 0.628318531
############################
A(data) = 9.11487319 (not used)
A(ran) = 9.09844052 (used)
Ngal = 504813
weighted Ngal = 0
Nran = 25229228
weighted Nran = 0
SN(data) = 6727.26932
SN(ran) = 135.060081
SN(data+ran) = 6862.32941
############################
13 columns: k_central k_mean P_0(k) sigma^{lin}_{P_0(k)} P^img_1(k) sigma^{lin}_{P_1(k)} P_2(k) sigma^{lin}_{P_2(k)} P^img_3(k) sigma^{lin}_{P_3(k)} P_4(k) sigma^{lin}_{P_4(k)} N_modes
### header ###
0.00050000 0 0 0 0 0 0 0 0 0 0 0 0
0.00150000 0.00179520 77611.16803630 0 -80764.61913296 0 4818.20700964 0 -136105.44502639 0 120487.57973024 0 3
0.00250000 0.00253879 73230.08110796 0 -30001.28432562 0 -53335.37247726 0 1611.07430679 0 47363.38990196 0 6
0.00350000 0.00331552 75692.27305207 0 -1215.68461672 0 7186.68956506 0 -61135.84700445 0 14456.35659140 0 7
0.00450000 0.00420575 78168.08586618 0 -2903.39828641 0 -14436.03513213 0 -20020.70167821 0 -5596.23330101 0 24
0.00550000 0.00557378 84131.28078341 0 11532.70275315 0 26109.34041432 0 -6965.94359447 0 7756.53623686 0 45
0.00650000 0.00659388 59473.00240709 0 18893.79437709 0 30051.37397659 0 -24850.94777940 0 28757.94055513 0 40
0.00750000 0.00754703 46776.70388039 0 -1004.35242483 0 40599.63933500 0 53804.74326366 0 5353.95756815 0 57
0.00850000 0.00846663 67115.95816346 0 -1192.62799887 0 42146.26715445 0 20603.65294510 0 9372.96003050 0 75
0.00950000 0.00948925 64713.74198564 0 -2830.04331071 0 20803.90170326 0 32802.35033386 0 36764.70535540 0 112
0.01050000 0.01054430 67624.54387397 0 -1356.05646974 0 18332.70240963 0 8931.52301217 0 47124.14591114 0 105
0.01150000 0.01145670 63642.52646751 0 1271.27753856 0 10801.72338615 0 17955.82172437 0 31809.78435541 0 144
0.01250000 0.01249090 68128.40621828 0 -49.07731276 0 7027.60000037 0 16716.76193719 0 35306.50334523 0 169
0.01350000 0.01339930 61277.87752793 0 327.26337092 0 -3390.68491069 0 1185.11455123 0 42052.23921316 0 180
0.01450000 0.01448870 68731.56909872 0 -703.08843876 0 9107.29814262 0 -702.32391251 0 33683.53274633 0 267
0.01550000 0.01550050 55578.31235264 0 -339.30136401 0 -7490.28118206 0 5779.92830829 0 23750.07391530 0 238
0.01650000 0.01653350 67333.45270057 0 1200.29523054 0 7185.43732379 0 -11282.03480685 0 -6668.69007584 0 315
0.01750000 0.01747870 67298.41191403 0 3453.63749615 0 13587.25720877 0 -10947.84017063 0 16587.58336363 0 297
0.01850000 0.01844180 66138.55089517 0 -7004.55436709 0 15710.68493447 0 -6780.15053383 0 -3985.77413029 0 388
0.01950000 0.01947590 68234.29749797 0 -1118.37228822 0 16396.67149217 0 2526.53957029 0 -16141.93925401 0 399
0.02050000 0.02045430 76453.72362341 0 1511.26848031 0 25212.23037160 0 3289.79161153 0 -698.97911015 0 462
0.02150000 0.02154770 76724.27364609 0 -1277.80237467 0 18578.75683545 0 8111.34891581 0 13112.39413608 0 571
0.02250000 0.02255340 78989.29251236 0 -156.08418564 0 18599.18814046 0 4043.57495121 0 14606.62554432 0 510
0.02350000 0.02348930 80168.92576187 0 4271.74649287 0 27242.39907609 0 740.64139704 0 16839.78915010 0 555
0.02450000 0.02439640 75252.78030309 0 698.15966104 0 27898.83713355 0 5818.72581864 0 29616.49474809 0 592
0.02550000 0.02547300 75460.16903342 0 -447.10945161 0 30520.52507154 0 7934.79388071 0 30969.68424439 0 837
0.02650000 0.02652900 76207.01012323 0 3092.06930507 0 30369.92658145 0 -5439.74708002 0 19147.42815799 0 723
0.02750000 0.02749970 65183.11277205 0 7323.39257084 0 39332.78857919 0 -12490.55748225 0 22040.76457592 0 826
0.02850000 0.02848090 61841.93532998 0 6778.40398679 0 41487.63218248 0 1702.78450327 0 25391.38875040 0 831
0.02950000 0.02946900 58017.98592296 0 -1025.30110320 0 48899.91191464 0 10369.28273277 0 17319.15589755 0 996
0.03050000 0.03053250 58078.51091788 0 1814.16806924 0 41105.03951947 0 5890.88347593 0 7577.83921011 0 1041
0.03150000 0.03150510 56590.76040747 0 3412.59913299 0 39364.31430250 0 3511.32847135 0 21233.28864546 0 1036
0.03250000 0.03246190 54468.43113903 0 -3301.86365680 0 32063.52798204 0 10738.82572355 0 11030.15855756 0 1059
0.03350000 0.03345080 55986.82860695 0 -2464.76233409 0 29807.95584818 0 6215.98288605 0 19031.21138008 0 1302
0.03450000 0.03451200 57893.97009852 0 3348.29544510 0 24338.62731421 0 -789.47770828 0 9006.00939885 0 1339
0.03550000 0.03553350 53132.15788451 0 2796.80399408 0 27023.80608172 0 -2106.83003653 0 18841.28812015 0 1365
0.03650000 0.03647120 51716.90555313 0 1257.85439086 0 29237.63683976 0 474.98939528 0 2630.31082747 0 1308
0.03750000 0.03744890 49334.02222305 0 825.28631644 0 29634.61929285 0 2139.99246115 0 5276.38451659 0 1579
0.03850000 0.03847530 46708.26999321 0 2210.23880281 0 27815.02484475 0 1575.66004479 0 10249.61679907 0 1662
0.03950000 0.03950240 45987.68203187 0 1421.26089258 0 29257.18937896 0 2854.23133954 0 10915.07319062 0 1683
0.04050000 0.04050350 45054.32289964 0 358.72867908 0 28441.91440197 0 4572.78968903 0 15018.98639902 0 1822
0.04150000 0.04152450 43937.85094247 0 346.83678080 0 27657.72576539 0 3024.53615284 0 12259.22238368 0 1887
0.04250000 0.04250150 43687.29284189 0 431.85078183 0 23812.24659611 0 6004.62872501 0 19399.08471583 0 1920
0.04350000 0.04349210 43791.31674423 0 -154.95497158 0 24645.86580931 0 1704.24545142 0 13218.17557003 0 2005
0.04450000 0.04448520 42194.59927381 0 487.54586019 0 19295.93957929 0 1743.13083836 0 12628.41386814 0 2151
0.04550000 0.04548030 41295.73169948 0 1015.31283135 0 20404.72233565 0 581.08828338 0 14622.33348311 0 2274
0.04650000 0.04648670 39824.01866503 0 660.19368283 0 18233.73141067 0 918.03565349 0 10402.67583342 0 2311
0.04750000 0.04749250 40195.40706401 0 559.00599712 0 17823.78716194 0 1878.41683427 0 2972.38140222 0 2568
0.04850000 0.04851840 38323.74574187 0 1388.07649881 0 16455.43895548 0 -2239.39185844 0 1590.53315606 0 2493
0.04950000 0.04949480 36795.13262145 0 1542.27792871 0 17498.97335071 0 -2016.26223560 0 1006.02537523 0 2644
0.05050000 0.05050630 35319.79467805 0 -461.78264366 0 16291.87866975 0 -2060.58498596 0 -4604.57904208 0 2829
0.05150000 0.05149060 35023.32106408 0 847.90245293 0 16042.96825505 0 1302.40781725 0 -7520.34595722 0 2784
0.05250000 0.05249300 34795.28133729 0 -918.94627455 0 14298.06890051 0 2871.48810306 0 -7888.73556788 0 3055
0.05350000 0.05348950 36872.35416670 0 -1087.19148049 0 12265.59343578 0 4555.41209521 0 -3542.42579633 0 3009
0.05450000 0.05448610 37960.92530951 0 319.06119057 0 9597.93506154 0 1936.53620780 0 -7021.94294549 0 3336
0.05550000 0.05550870 36971.65470283 0 -226.98301091 0 8129.12195425 0 320.49577575 0 -3418.40997189 0 3349
0.05650000 0.05647670 37254.83698398 0 22.16159487 0 7571.54505002 0 752.00713429 0 -4371.29967417 0 3324
0.05750000 0.05747970 35344.29027491 0 1106.76159501 0 7175.71597705 0 -1476.13981720 0 -129.54326137 0 3639
0.05850000 0.05849280 34449.15745525 0 1172.87773737 0 9886.36796838 0 -463.45449561 0 -2834.06366428 0 3846
0.05950000 0.05951020 34006.91856313 0 725.85176852 0 10001.22265929 0 -283.27784693 0 -3658.46682108 0 3787
0.06050000 0.06049470 32560.68973707 0 1141.00050774 0 9450.58800493 0 133.20332095 0 -3084.10548995 0 3930
0.06150000 0.06148310 32466.22241287 0 -366.44863669 0 11147.36394700 0 1450.87530026 0 -1533.44633236 0 4083
0.06250000 0.06249100 31549.55983096 0 781.20083284 0 9822.06428049 0 -251.01725571 0 -3314.61674557 0 4303
0.06350000 0.06350600 31310.75522304 0 639.20875537 0 10965.73403937 0 -1744.76753968 0 -2202.50566371 0 4470
0.06450000 0.06451750 29411.30293227 0 463.17878284 0 11812.15027962 0 -262.12595397 0 -2128.16207648 0 4479
0.06550000 0.06550280 29456.55937131 0 1288.64414781 0 11291.37169354 0 785.88575305 0 -1616.06130274 0 4636
0.06650000 0.06648880 29126.80250242 0 -327.15901748 0 11421.20934145 0 401.15219684 0 -1254.83363340 0 4653
0.06750000 0.06749660 28981.25691571 0 -563.75792322 0 9929.94376781 0 3860.23145025 0 1385.44020139 0 5220
0.06850000 0.06852730 30086.30491740 0 -597.04996580 0 10957.12213446 0 596.63694587 0 -358.32774218 0 5029
0.06950000 0.06949320 29210.50494549 0 442.40256226 0 8703.56017739 0 324.60510435 0 2683.10268329 0 5040
0.07050000 0.07048030 30292.15580757 0 697.70160436 0 10426.18281874 0 -1102.74124144 0 144.26368708 0 5475
0.07150000 0.07148790 28757.06178933 0 895.16687183 0 11371.00984475 0 -2281.60557087 0 3268.99781564 0 5509
0.07250000 0.07249820 28717.84686521 0 75.72456770 0 12340.39837506 0 781.38427520 0 851.07589594 0 5916
0.07350000 0.07351270 28451.58082584 0 334.89655040 0 12767.25886557 0 767.90840156 0 1867.06977080 0 5721
0.07450000 0.07449140 27780.42344112 0 359.03734556 0 13393.48934843 0 711.18077338 0 3798.19058431 0 6028
0.07550000 0.07549160 27755.48846136 0 512.93120743 0 13179.61972027 0 184.75501853 0 850.24436380 0 6183
0.07650000 0.07648840 26372.64061910 0 1175.19548219 0 13508.82736054 0 -1071.74497453 0 1253.54843841 0 6330
0.07750000 0.07749960 25791.44688382 0 816.04389707 0 13797.94131088 0 -1213.96003883 0 1745.87698151 0 6583
0.07850000 0.07848650 25000.55765796 0 -390.92665823 0 13809.91449499 0 1780.50035428 0 1615.29238266 0 6549
0.07950000 0.07947320 24736.37868738 0 -166.70846424 0 12065.78406052 0 2081.49961216 0 -2090.92437543 0 6828
0.08050000 0.08048110 25498.81787025 0 438.00873322 0 10804.33771443 0 422.36011112 0 -1780.92875261 0 7147
0.08150000 0.08149960 24076.75510387 0 469.59816705 0 9719.72101775 0 -401.20931662 0 -1365.95356964 0 7386
0.08250000 0.08250610 23451.07384964 0 17.21787814 0 8319.35278221 0 1281.92158939 0 -1156.37890936 0 7227
0.08350000 0.08350160 23628.69438828 0 43.79142659 0 8002.00848034 0 1254.76772597 0 -3392.21176628 0 7798
0.08450000 0.08449610 22521.66916353 0 656.22495675 0 7710.37906288 0 -491.23887350 0 -3672.84562659 0 7371
0.08550000 0.08548940 21835.24322292 0 697.16665568 0 7400.76790010 0 114.52405528 0 -916.03206745 0 8256
0.08650000 0.08650700 21411.34856701 0 -115.72796443 0 6790.83852295 0 893.51149674 0 -2493.49797596 0 8037
0.08750000 0.08749060 21687.28103025 0 65.10775860 0 7326.36939001 0 786.63050707 0 -1346.18133899 0 8155
0.08850000 0.08849210 21192.75557264 0 681.62787930 0 7241.65636626 0 -524.54299911 0 -1910.98609198 0 8718
0.08950000 0.08949900 20617.16396937 0 426.96154858 0 7221.43376814 0 -1016.58814023 0 -1945.40075787 0 8571
0.09050000 0.09049190 20188.10656435 0 287.49152897 0 8039.81737916 0 310.99631738 0 -1572.33171929 0 8932
0.09150000 0.09150830 20462.83072461 0 -395.39628081 0 7690.57387851 0 1449.80979672 0 -629.63240499 0 9285
0.09250000 0.09250820 20100.66936660 0 -139.49748104 0 7044.52722671 0 858.66403868 0 -533.52069028 0 9204
0.09350000 0.09350330 20420.86965735 0 743.96972253 0 6687.12218863 0 -210.33149733 0 -1568.47613432 0 9349
0.09450000 0.09448040 19241.78563646 0 331.70333515 0 6670.54646861 0 -923.10173836 0 -740.48431765 0 9564
0.09550000 0.09549270 18901.48357789 0 316.21508781 0 7059.45526085 0 59.87020455 0 -1563.32436978 0 10155
0.09650000 0.09649430 18176.61163325 0 457.56786316 0 7055.76444446 0 710.45029930 0 -446.77771752 0 9913
0.09750000 0.09749140 18305.24097818 0 109.17116321 0 6584.89975619 0 456.30024349 0 -974.67979892 0 10476
0.09850000 0.09850240 18313.25971616 0 190.23082796 0 5912.59997592 0 1153.07255301 0 -1145.07578417 0 10575
0.09950000 0.09950330 17804.78385137 0 24.33654025 0 5641.33595603 0 329.17029272 0 -120.33928800 0 10882
0.10050000 0.10051200 17691.09352516 0 -155.95676460 0 5405.56309014 0 179.13201583 0 861.62547945 0 10875
0.10150000 0.10150300 17600.69049281 0 332.07790908 0 5424.56640071 0 -574.68098220 0 -287.03676767 0 11118
0.10250000 0.10250800 17086.94203318 0 333.54654643 0 5375.14680866 0 88.62693680 0 -8.75156276 0 11575
0.10350000 0.10349800 16792.11610510 0 -44.86385041 0 6280.03392877 0 451.33301976 0 778.26685350 0 11364
0.10450000 0.10450100 17202.60958246 0 453.61671240 0 5819.89018334 0 14.92429938 0 -157.18813518 0 12093
0.10550000 0.10551000 16770.14695994 0 345.10011987 0 5990.08515091 0 92.19538505 0 511.35492126 0 12067
0.10650000 0.10649700 16601.97315372 0 -18.18419099 0 5663.84334525 0 -188.66223100 0 -95.86159600 0 12054
0.10750000 0.10749900 16177.85880635 0 -42.16131602 0 6102.69898902 0 321.93145938 0 438.67769369 0 12807
0.10850000 0.10850100 16250.46683111 0 150.47765979 0 5550.36172591 0 184.63858206 0 89.66497891 0 12736
0.10950000 0.10950300 15599.85059712 0 319.12819646 0 5888.43391625 0 212.55477482 0 1285.71126693 0 12933
0.11050000 0.11050200 15920.05088787 0 63.61308781 0 5759.14549696 0 403.67425471 0 718.93258625 0 13428
0.11150000 0.11150900 15840.30289093 0 160.41979644 0 5562.17014143 0 154.56172388 0 231.57016842 0 13453
0.11250000 0.11250000 15717.71506092 0 258.71524418 0 6011.38423715 0 -269.07808995 0 390.66083157 0 13668
0.11350000 0.11349100 14994.82033934 0 282.67808927 0 5739.68083435 0 -260.13445096 0 1218.02433068 0 13791
0.11450000 0.11448600 14997.23694531 0 -7.06112492 0 5923.25501133 0 686.47207581 0 1185.37818097 0 14205
0.11550000 0.11549300 14843.45292917 0 -48.42043532 0 5426.82922266 0 1067.76306697 0 954.81639632 0 14776
0.11650000 0.11649800 14865.53192006 0 312.97244199 0 5586.33620111 0 -583.25334264 0 1144.60344755 0 14553
0.11750000 0.11747300 14296.64090607 0 260.54966780 0 5355.02307170 0 -120.38322629 0 1231.70012355 0 14568
0.11850000 0.11849100 14282.36096171 0 127.09699705 0 5249.84578923 0 742.14738194 0 1535.51143200 0 16015
0.11950000 0.11950300 14245.56264357 0 -85.07068143 0 5311.01887393 0 290.58368615 0 986.46404838 0 15270
0.12050000 0.12050700 14403.41095156 0 67.35047879 0 4667.88313387 0 217.14962153 0 646.08839317 0 15999
0.12150000 0.12150000 13961.39175089 0 194.36542108 0 4678.74687615 0 -411.45023364 0 1604.02221119 0 15670
0.12250000 0.12250700 13935.57800532 0 27.71100094 0 4763.95420567 0 226.73146419 0 423.80897625 0 16887
0.12350000 0.12352200 13809.69480354 0 258.91845877 0 4952.01008826 0 -278.52042854 0 667.76205334 0 16407
0.12450000 0.12449800 13613.40049151 0 376.14801427 0 5111.12162210 0 -240.00632016 0 784.34461751 0 16306
0.12550000 0.12549900 13368.55436867 0 26.98481085 0 5290.68643009 0 161.38314345 0 1209.06091946 0 17523
0.12650000 0.12650100 13465.98752747 0 -232.69279173 0 5380.97961670 0 621.10288438 0 225.51547201 0 17154
0.12750000 0.12750600 13279.46948504 0 87.49541598 0 5195.19754064 0 374.66619543 0 1740.18697291 0 18007
0.12850000 0.12850300 13315.71857456 0 196.11196812 0 4830.90517555 0 128.57332361 0 1596.97011559 0 17496
0.12950000 0.12949900 13327.58191294 0 75.29496106 0 4913.68491452 0 440.18367859 0 1763.41934392 0 18405
0.13050000 0.13049000 13123.48855438 0 242.72719879 0 4709.67943254 0 -97.78620296 0 1852.51521213 0 18100
0.13150000 0.13148800 12616.66037548 0 116.94395662 0 5144.45979988 0 -454.76899407 0 1621.69638847 0 19059
0.13250000 0.13249300 12695.96898952 0 158.78748895 0 4687.61142623 0 609.32852103 0 1802.23882342 0 18957
0.13350000 0.13349100 12538.12068152 0 -195.22111929 0 4300.30638158 0 867.44290909 0 1761.56295115 0 19468
0.13450000 0.13450700 12724.19934105 0 69.54662438 0 4022.75918617 0 119.66263833 0 1547.98990645 0 19953
0.13550000 0.13551000 12656.64421968 0 400.97644368 0 4117.92952301 0 -732.51061642 0 1235.30306335 0 19956
0.13650000 0.13649900 11996.25171608 0 410.77248551 0 4619.64987566 0 -594.40268381 0 613.86954334 0 19723
0.13750000 0.13749600 11713.50881784 0 102.38906841 0 4674.78144545 0 -51.57234858 0 428.83331975 0 20946
0.13850000 0.13851100 11812.04043390 0 -5.31110675 0 4597.59285392 0 -42.28214632 0 -574.32508204 0 20955
0.13950000 0.13949800 11644.08631913 0 -12.40960118 0 4692.12608556 0 485.85862985 0 44.82518472 0 20506
0.14050000 0.14048300 11539.29349670 0 194.11167746 0 4330.04161956 0 90.49014001 0 -651.13141045 0 21447
0.14150000 0.14148400 11477.56019879 0 -20.51973081 0 3939.18855797 0 210.21835623 0 141.29455711 0 21771
0.14250000 0.14249400 11324.76479419 0 55.46506141 0 4124.34451340 0 436.33907819 0 -276.59263606 0 22470
0.14350000 0.14350900 11344.97640774 0 143.57056055 0 3670.09948344 0 138.63409363 0 119.61101084 0 22519
0.14450000 0.14449900 11198.00282660 0 157.05082802 0 3563.66995970 0 296.06169250 0 60.94877973 0 22218
0.14550000 0.14550500 10797.75795545 0 162.88583298 0 3420.05765777 0 -53.54320059 0 212.40208926 0 23559
0.14650000 0.14650700 10619.98363280 0 203.56609908 0 3730.84416982 0 20.35276531 0 983.55972739 0 23044
0.14750000 0.14750500 10584.21786447 0 135.88465512 0 3611.13429783 0 422.49851674 0 445.25305884 0 23649
0.14850000 0.14849900 10197.76961649 0 82.36562059 0 3391.04740159 0 67.10376529 0 897.09795969 0 23640
0.14950000 0.14949500 10099.07323184 0 151.43112069 0 3597.70016556 0 243.07321282 0 589.07296919 0 24457
0.15050000 0.15050000 10082.18994379 0 22.17675358 0 3371.62667726 0 -28.85822970 0 1169.65925761 0 24591
0.15150000 0.15149900 10020.20400071 0 142.32930385 0 2970.74470091 0 -94.61418793 0 302.76338023 0 25020
0.15250000 0.15250500 9809.33316087 0 273.33021800 0 3675.25124798 0 -621.10508130 0 354.19314906 0 25297
0.15350000 0.15350100 9373.91568831 0 148.80580784 0 3599.25997487 0 -122.01553378 0 -107.13187731 0 25452
0.15450000 0.15450400 9427.67418653 0 -77.43947917 0 3788.40333014 0 283.80620487 0 147.19656796 0 26061
0.15550000 0.15549900 9468.53679653 0 94.85057594 0 3476.97971289 0 56.84153820 0 -666.78442638 0 26128
0.15650000 0.15649500 9473.56773077 0 24.10366731 0 3306.30142412 0 250.61741727 0 -550.10080413 0 26331
0.15750000 0.15749700 9204.21502650 0 118.84428767 0 3248.11614316 0 116.94505507 0 -306.12465944 0 27345
0.15850000 0.15849900 9089.31639730 0 49.15958721 0 2947.52331447 0 118.22805315 0 -188.60401276 0 26980
0.15950000 0.15949700 9187.56241447 0 107.86652553 0 2786.11600496 0 353.72081244 0 -449.79188423 0 27777
0.16050000 0.16050000 9102.76151414 0 30.19790817 0 2488.92839377 0 414.42046206 0 -370.68099250 0 28224
0.16150000 0.16150500 8899.14049220 0 83.39784087 0 2329.31156959 0 -38.74489425 0 -6.67955382 0 28075
0.16250000 0.16249700 8749.26698390 0 119.35177493 0 2380.80724585 0 -84.22981240 0 -106.33527611 0 28590
0.16350000 0.16349900 8699.13339464 0 47.22070030 0 2392.91224484 0 120.01304619 0 159.71678379 0 29163
0.16450000 0.16449100 8651.77890224 0 6.99481105 0 2082.45526997 0 419.24818171 0 -154.95387312 0 28996
0.16550000 0.16550500 8556.03736762 0 127.80440353 0 2265.17265029 0 -293.27161106 0 36.62113699 0 30777
0.16650000 0.16650700 8401.38557025 0 150.90605812 0 2335.73754455 0 -81.21916075 0 90.03504916 0 29211
0.16750000 0.16749900 8238.44042058 0 102.27977191 0 2540.30323973 0 31.56559731 0 239.98764639 0 30922
0.16850000 0.16850800 8374.85782747 0 66.65680303 0 2716.34199992 0 41.97688505 0 -266.26274400 0 30867
0.16950000 0.16949900 8233.61819322 0 56.87976451 0 2711.01448222 0 -160.30775379 0 -260.07074044 0 30852
0.17050000 0.17049200 8202.31216136 0 34.98004185 0 2691.34111273 0 11.93144274 0 143.67711091 0 31257
0.17150000 0.17149500 8165.28316719 0 -87.18290489 0 2381.37844363 0 193.26037308 0 70.84917500 0 32608
0.17250000 0.17250900 8364.93875843 0 -49.31304169 0 2217.00529952 0 301.80991933 0 -148.82997390 0 32361
0.17350000 0.17350400 8181.92479465 0 108.16684374 0 2228.01184125 0 146.72423134 0 0.88013229 0 32508
0.17450000 0.17449800 8099.58443858 0 253.25810852 0 2055.48814428 0 -1.68034302 0 -8.10007874 0 32791
0.17550000 0.17549800 7879.44261948 0 182.54272561 0 2003.97049888 0 99.12379436 0 421.59888024 0 33633
0.17650000 0.17650100 7898.86334380 0 -77.53647294 0 2164.76267232 0 120.02622768 0 224.25004925 0 33984
0.17750000 0.17750300 7678.85333957 0 77.94103475 0 2082.16967108 0 55.66245418 0 240.10847668 0 34069
0.17850000 0.17849800 7499.03588641 0 138.51985408 0 2069.15295258 0 -141.07157029 0 520.37764918 0 34536
