### header ###
fiducial parameters:
Omega_m = 0.31
Omega_nu = 0
Omega_de = 0.69
Omega_k = 0
H_0 = 100
w_de = -1
zeff = 0
beta = 0
fgrowth = 0
b_1 = 2
gamma = 0.55
Lx = 3500 Ly = 3500 Lz = 3500
nx = 700 ny = 700 nz = 700
xoffset = -983.599254 yoffset = -42.9823471 zoffset = 800.977702
bins = 400 dk = 0.001
kx_ny = 0.628318531 ky_ny = 0.628318531 kz_ny = 0.628318531
############################
A(data) = 9.06100973 (not used)
A(ran) = 9.05427903 (used)
Ngal = 502975
weighted Ngal = 0
Nran = 25229228
weighted Nran = 0
SN(data) = 6753.33309
SN(ran) = 134.404534
SN(data+ran) = 6887.73762
############################
13 columns: k_central k_mean P_0(k) sigma^{lin}_{P_0(k)} P^img_1(k) sigma^{lin}_{P_1(k)} P_2(k) sigma^{lin}_{P_2(k)} P^img_3(k) sigma^{lin}_{P_3(k)} P_4(k) sigma^{lin}_{P_4(k)} N_modes
### header ###
0.00050000 0 0 0 0 0 0 0 0 0 0 0 0
0.00150000 0.00179520 99000.32776669 0 -18988.26170129 0 -91944.49741479 0 103833.32001103 0 -143303.63543895 0 3
0.00250000 0.00253879 157709.90237938 0 -284.38728876 0 -9629.40586198 0 -30025.99961392 0 56245.18575406 0 6
0.00350000 0.00331552 136963.34014499 0 6479.93118061 0 48064.42532410 0 -142043.70496387 0 122794.33997232 0 7
0.00450000 0.00420575 103711.06171820 0 25183.23109999 0 15381.91667711 0 -29211.71324847 0 -6127.56806134 0 24
0.00550000 0.00557378 71252.74819759 0 18110.37466059 0 41991.60437251 0 -3794.33499934 0 -1569.76132931 0 45
0.00650000 0.00659388 54499.84701661 0 11942.09777326 0 68563.06575532 0 20186.56872419 0 6468.82577773 0 40
0.00750000 0.00754703 56291.76034180 0 -4453.98055199 0 33905.31126675 0 27074.77449849 0 -29091.76171588 0 57
0.00850000 0.00846663 57783.79483553 0 -619.78473567 0 52362.57872946 0 7935.38704763 0 -10289.02944549 0 75
0.00950000 0.00948925 53449.83172356 0 7597.01827384 0 22209.70730222 0 -8937.23498991 0 1987.69136231 0 112
0.01050000 0.01054430 45507.98574725 0 2401.09575141 0 44820.24165793 0 8723.91459039 0 1435.87037412 0 105
0.01150000 0.01145670 55680.90826055 0 -2631.34337729 0 39312.46711992 0 10735.95875011 0 2530.69173873 0 144
0.01250000 0.01249090 57230.28222315 0 -3912.56195403 0 33423.52791333 0 2561.70118712 0 -18413.87840101 0 169
0.01350000 0.01339930 58317.31552580 0 -362.14927498 0 26182.05828481 0 8635.69748798 0 -3088.68605671 0 180
0.01450000 0.01448870 65349.08966375 0 -5922.56298326 0 32990.51606218 0 6948.74175380 0 331.66269223 0 267
0.01550000 0.01550050 73118.69754199 0 2025.90669032 0 35100.65245505 0 2848.37656235 0 18198.91031559 0 238
0.01650000 0.01653350 76376.72176961 0 -533.71072338 0 37518.02734303 0 8545.51414709 0 -7856.10040274 0 315
0.01750000 0.01747870 77140.58894692 0 -1069.28882410 0 29934.49812432 0 -5358.56010407 0 -330.00182486 0 297
0.01850000 0.01844180 78542.00071685 0 2321.45760020 0 39914.42169738 0 -4440.57937344 0 9630.80090270 0 388
0.01950000 0.01947590 71785.39012206 0 1211.45555628 0 41120.41792108 0 -1794.89014436 0 18930.04346661 0 399
0.02050000 0.02045430 72005.52095659 0 4286.23514410 0 56156.86979050 0 3380.55713477 0 -9228.49093191 0 462
0.02150000 0.02154770 67185.49050790 0 5470.63569811 0 44877.36143535 0 5727.75158853 0 11563.45955638 0 571
0.02250000 0.02255340 67106.07204814 0 1174.85496044 0 52603.58025189 0 8487.27394327 0 -1520.23189154 0 510
0.02350000 0.02348930 65935.44614814 0 -1032.30047285 0 53973.79583569 0 11166.25741184 0 16465.21522508 0 555
0.02450000 0.02439640 67428.79879058 0 -1360.29651476 0 39701.32098930 0 15438.70691735 0 16646.13113549 0 592
0.02550000 0.02547300 71076.55565339 0 -3145.54220439 0 31563.83977531 0 3983.46737004 0 5748.64424558 0 837
0.02650000 0.02652900 68550.98272549 0 465.85572317 0 29561.79157664 0 772.06935765 0 14340.35950494 0 723
0.02750000 0.02749970 67484.27088211 0 2319.98566747 0 25506.50707106 0 7270.55677672 0 14843.45292917 0 826
0.02850000 0.02848090 68688.18003703 0 1054.76502223 0 27523.60413417 0 79.13121319 0 10957.52856365 0 831
0.02950000 0.02946900 60032.22699720 0 4955.28349089 0 27770.42748007 0 -5164.91307403 0 768.37963972 0 996
0.03050000 0.03053250 60084.95294559 0 5790.70417399 0 33465.81851777 0 -1700.14820585 0 2511.76532017 0 1041
0.03150000 0.03150510 53460.26706751 0 580.91362868 0 31431.14613853 0 2849.94735623 0 8387.97340713 0 1036
0.03250000 0.03246190 57289.48906937 0 -2359.96951167 0 30900.81097430 0 8634.48918500 0 -1254.31735849 0 1059
0.03350000 0.03345080 53258.59031492 0 -67.67122831 0 28876.13455611 0 3494.89555077 0 6413.92488396 0 1302
0.03450000 0.03451200 51422.29931649 0 2727.16180392 0 21561.06829129 0 1802.12897770 0 3318.94466716 0 1339
0.03550000 0.03553350 52776.03804142 0 -416.78324362 0 22009.67823551 0 1142.61523991 0 3123.39730607 0 1365
0.03650000 0.03647120 51102.53840865 0 1184.44449230 0 22558.35763595 0 1860.39115067 0 1154.40168629 0 1308
0.03750000 0.03744890 49684.10055122 0 1716.17469725 0 22568.02405982 0 -1997.03923358 0 -1887.61092152 0 1579
0.03850000 0.03847530 48304.54808073 0 1626.02431007 0 24152.87819186 0 1036.11211953 0 2139.94852286 0 1662
0.03950000 0.03950240 47782.45134594 0 1297.80528134 0 24983.86110764 0 -1774.41490107 0 -8689.77453880 0 1683
0.04050000 0.04050350 45395.39387829 0 1486.81682175 0 27313.13972351 0 -4107.61500936 0 -1727.24714641 0 1822
0.04150000 0.04152450 42965.27688612 0 1188.65158360 0 28600.31193859 0 439.31260199 0 -6901.56301457 0 1887
0.04250000 0.04250150 42977.79929886 0 -337.26152888 0 27635.86646595 0 6709.77237730 0 -1525.12002634 0 1920
0.04350000 0.04349210 43877.21610182 0 -1446.43753294 0 23645.94016723 0 7629.22504065 0 -162.21687251 0 2005
0.04450000 0.04448520 42732.18425594 0 461.18178754 0 21878.85197607 0 4596.72507269 0 165.31781735 0 2151
0.04550000 0.04548030 43731.01144076 0 1994.51278188 0 19531.11927826 0 -896.37407636 0 1526.31734475 0 2274
0.04650000 0.04648670 41094.49432979 0 1052.36709004 0 19001.00380548 0 -2567.06165854 0 3829.12314070 0 2311
0.04750000 0.04749250 39811.05686938 0 -73.92309779 0 18639.06213893 0 3322.21806979 0 3197.71892415 0 2568
0.04850000 0.04851840 39696.81731454 0 319.43027221 0 16967.86926640 0 2463.48812367 0 -1525.13101091 0 2493
0.04950000 0.04949480 39098.59749176 0 651.21599166 0 14566.53185439 0 -560.87996520 0 -1752.18212617 0 2644
0.05050000 0.05050630 39238.10156354 0 897.46484441 0 17225.45749343 0 1917.13745262 0 547.74461331 0 2829
0.05150000 0.05149060 36575.55101555 0 33.00270894 0 12871.17292219 0 1995.05102594 0 702.72594786 0 2784
0.05250000 0.05249300 37147.07832696 0 -529.29712212 0 12325.78889353 0 3409.84200527 0 1219.39740225 0 3055
0.05350000 0.05348950 36579.94484458 0 64.94606570 0 9770.99700256 0 2398.21779339 0 4651.37332128 0 3009
0.05450000 0.05448610 37065.90233558 0 1143.41711371 0 8769.89601121 0 26.40284819 0 2756.66636587 0 3336
0.05550000 0.05550870 35263.55366643 0 298.14436746 0 10644.08378504 0 -114.04183254 0 2921.22624771 0 3349
0.05650000 0.05647670 35427.33364362 0 874.02047115 0 8197.53387229 0 1148.00866505 0 2146.06692979 0 3324
0.05750000 0.05747970 35306.61319095 0 211.50245277 0 11239.19497378 0 -1336.82248315 0 3754.24130942 0 3639
0.05850000 0.05849280 33665.18851012 0 80.44013486 0 8991.23514872 0 -71.32700391 0 2544.87282193 0 3846
0.05950000 0.05951020 34326.34993379 0 -214.04098749 0 9130.88201995 0 2455.76596915 0 -9.35058446 0 3787
0.06050000 0.06049470 33761.08382876 0 286.75666106 0 9026.89107132 0 472.29597808 0 2621.97353688 0 3930
0.06150000 0.06148310 33295.55764276 0 1522.41782148 0 7804.94524823 0 -118.83879539 0 1247.40806234 0 4083
0.06250000 0.06249100 31301.85771925 0 635.07855608 0 9548.31774719 0 -1102.90601003 0 5066.12881281 0 4303
0.06350000 0.06350600 31245.06747900 0 620.83046698 0 10282.99891515 0 1183.85132538 0 1266.35645004 0 4470
0.06450000 0.06451750 31963.56837155 0 -436.70266754 0 9325.42978494 0 550.25788352 0 3555.11297766 0 4479
0.06550000 0.06550280 31099.19235512 0 -170.45859732 0 9709.88982529 0 85.78379988 0 583.43788346 0 4636
0.06650000 0.06648880 31053.49653318 0 1285.68929778 0 11370.24092467 0 -1475.00840622 0 3428.74645469 0 4653
0.06750000 0.06749660 29938.78210763 0 672.51947172 0 11518.64250025 0 -797.38330517 0 2842.01649483 0 5220
0.06850000 0.06852730 29449.52924486 0 503.69537880 0 13288.25714310 0 1109.95810563 0 1392.18472896 0 5029
0.06950000 0.06949320 28493.65173883 0 817.61578940 0 13229.59952552 0 -877.53114055 0 2066.72536203 0 5040
0.07050000 0.07048030 28076.45767219 0 323.84167656 0 13833.20178886 0 1488.45352306 0 4528.26921636 0 5475
0.07150000 0.07148790 27891.69716137 0 -242.66678364 0 12662.90542605 0 2706.31308516 0 5311.63401000 0 5509
0.07250000 0.07249820 28222.88202470 0 -200.32015788 0 11628.37838034 0 487.93581252 0 3815.02993408 0 5916
0.07350000 0.07351270 26913.96035590 0 582.89854094 0 10185.90627810 0 -283.64253474 0 3392.64016461 0 5721
0.07450000 0.07449140 27584.34882054 0 850.14989648 0 10919.46701965 0 -83.86314737 0 2047.51334459 0 6028
0.07550000 0.07549160 26268.06748812 0 160.75372744 0 9981.42845950 0 -800.18876500 0 1897.55195971 0 6183
0.07650000 0.07648840 26073.53070771 0 -256.38651479 0 10077.64233074 0 1574.40780351 0 277.61090593 0 6330
0.07750000 0.07749960 25519.46886670 0 -30.18637437 0 7587.51661855 0 872.71001164 0 897.22098690 0 6583
0.07850000 0.07848650 25981.69968093 0 348.39988548 0 8237.15522559 0 685.31100649 0 -1634.16387835 0 6549
0.07950000 0.07947320 25668.30982518 0 501.33808953 0 5994.73162511 0 244.31446953 0 -1359.05525805 0 6828
0.08050000 0.08048110 24695.73576883 0 489.65050430 0 7624.68841217 0 -461.58162598 0 -556.75086437 0 7147
0.08150000 0.08149960 23309.48270906 0 335.77311929 0 6592.23745068 0 660.50564469 0 -426.43099372 0 7386
0.08250000 0.08250610 24126.29552621 0 321.16253930 0 6948.77470752 0 493.26772405 0 -1225.02150342 0 7227
0.08350000 0.08350160 23714.04451723 0 184.65615738 0 7305.76233184 0 -668.50900427 0 -2204.97719254 0 7798
0.08450000 0.08449610 22304.72385505 0 514.51737971 0 7614.06633048 0 -67.52051997 0 -1077.96224261 0 7371
0.08550000 0.08548940 22072.61983640 0 277.94483694 0 6386.65019024 0 523.16882908 0 96.33887568 0 8256
0.08650000 0.08650700 22139.07650052 0 333.51469117 0 7034.92671028 0 1224.42833650 0 -1105.66313775 0 8037
0.08750000 0.08749060 21683.98565847 0 -92.49899864 0 6243.89468498 0 860.37543509 0 252.61880640 0 8155
0.08850000 0.08849210 21564.58335452 0 515.51038507 0 6589.10684749 0 -300.52692125 0 478.57256285 0 8718
0.08950000 0.08949900 20688.34399970 0 341.14787066 0 6284.91107900 0 -827.17676138 0 -237.24589707 0 8571
0.09050000 0.09049190 19808.91911884 0 920.52475763 0 6976.90619790 0 -744.25202605 0 -274.55060401 0 8932
0.09150000 0.09150830 19235.74412154 0 526.37632427 0 7317.55976280 0 170.64753197 0 -70.64354380 0 9285
0.09250000 0.09250820 18939.92958193 0 -72.94228531 0 7193.20341660 0 852.62032685 0 -394.85474138 0 9204
0.09350000 0.09350330 18523.61428110 0 144.57674740 0 6416.00096818 0 1142.14290329 0 -553.81578658 0 9349
0.09450000 0.09448040 18707.93540901 0 243.31377496 0 6382.71771326 0 783.07919475 0 433.23264107 0 9564
0.09550000 0.09549270 18047.21336824 0 -48.59618848 0 5441.17507445 0 293.80436283 0 646.75735365 0 10155
0.09650000 0.09649430 18143.76776123 0 215.94022009 0 5210.41117366 0 678.41159645 0 752.32239152 0 9913
0.09750000 0.09749140 17682.08617564 0 162.09494375 0 4833.72821070 0 -286.52378813 0 809.51576558 0 10476
0.09850000 0.09850240 17304.76610747 0 541.65366782 0 5436.42973910 0 -879.35457960 0 348.21095083 0 10575
0.09950000 0.09950330 16933.15801704 0 528.21843709 0 5677.96950559 0 30.32642767 0 243.04794831 0 10882
0.10050000 0.10051200 16531.01281484 0 -10.57940662 0 6232.78928210 0 -174.61845495 0 859.16273828 0 10875
0.10150000 0.10150300 16311.87059184 0 189.05767561 0 6217.60860279 0 559.90123979 0 632.86736162 0 11118
0.10250000 0.10250800 16135.34851046 0 -98.26051680 0 6119.88984511 0 -55.66190495 0 194.53238659 0 11575
0.10350000 0.10349800 16593.07564993 0 351.31519104 0 6179.06373760 0 211.97149402 0 1399.99476006 0 11364
0.10450000 0.10450100 15967.94362432 0 92.44517423 0 6210.78718322 0 845.55614822 0 1597.90380426 0 12093
0.10550000 0.10551000 16360.64209410 0 96.31020594 0 6415.57256985 0 77.18540600 0 1383.67168521 0 12067
0.10650000 0.10649700 16088.11484836 0 321.39870761 0 5972.27915876 0 -91.56256383 0 1072.71491229 0 12054
0.10750000 0.10749900 15846.78378875 0 27.60686719 0 5915.18135048 0 179.83502847 0 1683.15507207 0 12807
0.10850000 0.10850100 15031.17927458 0 -136.33612105 0 5698.65345576 0 681.89590288 0 1657.14360419 0 12736
0.10950000 0.10950300 15424.09743582 0 259.99055306 0 5319.00465820 0 370.43274116 0 1332.64834557 0 12933
0.11050000 0.11050200 14830.27144207 0 483.24100620 0 4990.67578374 0 105.97597074 0 2376.24864823 0 13428
0.11150000 0.11150900 15003.05876878 0 -36.76305767 0 4663.93967231 0 815.71545835 0 1485.54261133 0 13453
0.11250000 0.11250000 14922.43200603 0 -142.46770947 0 4479.47574495 0 321.13947170 0 1459.63000461 0 13668
0.11350000 0.11349100 14669.34745375 0 231.51744247 0 4185.47365981 0 -313.31845602 0 956.91554814 0 13791
0.11450000 0.11448600 14470.85622721 0 307.27035036 0 4472.41266478 0 -535.65718964 0 1436.79307821 0 14205
0.11550000 0.11549300 14030.92409533 0 73.79007462 0 4576.40361341 0 296.44175871 0 534.55543701 0 14776
0.11650000 0.11649800 14171.52662437 0 179.34621499 0 4694.66352182 0 162.09494375 0 1180.98435194 0 14553
0.11750000 0.11747300 14100.67613122 0 0.32233349 0 4641.72886655 0 295.96063443 0 949.68550246 0 14568
0.11850000 0.11849100 13576.16279046 0 132.24217085 0 4703.03376613 0 -15.99639367 0 1490.80422159 0 16015
0.11950000 0.11950300 13607.90820522 0 277.42966049 0 4847.72255617 0 32.62923347 0 1530.33769831 0 15270
0.12050000 0.12050700 13482.02500344 0 -66.67591619 0 4655.44859771 0 249.64198723 0 1384.07811439 0 15999
0.12150000 0.12150000 13668.43320014 0 -176.68245614 0 4189.91142714 0 856.48250257 0 1295.27882965 0 15670
0.12250000 0.12250700 13775.53278281 0 -17.99207081 0 3876.57649425 0 143.31462001 0 1311.12956788 0 16887
0.12350000 0.12352200 13657.33878184 0 169.10419952 0 3217.49115480 0 134.24795380 0 1761.91445747 0 16407
0.12450000 0.12449800 13471.47981376 0 132.28830605 0 3609.60744224 0 -190.48567005 0 911.08461596 0 16306
0.12550000 0.12549900 13340.76340004 0 238.83536472 0 3729.25140679 0 80.57733217 0 1066.17909160 0 17523
0.12650000 0.12650100 13040.66487712 0 179.08807754 0 3674.93269538 0 -8.43910659 0 1498.07600864 0 17154
0.12750000 0.12750600 12925.32686501 0 122.46919662 0 3814.77728891 0 -116.25961774 0 1017.06926451 0 18007
0.12850000 0.12850300 12757.59244170 0 170.22901975 0 3703.94295157 0 -188.48867475 0 436.55108044 0 17496
0.12950000 0.12949900 12906.76293735 0 28.30768293 0 4127.83760748 0 336.48162423 0 765.24244579 0 18405
0.13050000 0.13049000 12585.79372653 0 -66.11757036 0 3363.81664616 0 218.40735509 0 1156.55466252 0 18100
0.13150000 0.13148800 12570.85470781 0 167.84426904 0 4068.03759435 0 -288.30548580 0 -36.55599848 0 19059
0.13250000 0.13249300 12290.41856981 0 298.48269230 0 3812.37166752 0 -81.09789107 0 382.12911405 0 18957
0.13350000 0.13349100 11968.13121028 0 243.40055309 0 4132.11060621 0 -119.28916286 0 419.19765268 0 19468
0.13450000 0.13450700 11708.56576018 0 129.62564566 0 4277.52437805 0 -152.65480208 0 184.18821459 0 19953
0.13550000 0.13551000 11684.83908340 0 97.51444463 0 4128.25502124 0 454.18681172 0 -66.57826334 0 19956
0.13650000 0.13649900 11224.03626362 0 385.85727798 0 4114.52430551 0 -124.51342558 0 639.27026897 0 19723
0.13750000 0.13749600 11327.51093733 0 -50.53178002 0 3734.66680108 0 379.26323906 0 506.99514441 0 20946
0.13850000 0.13851100 11384.74056048 0 -42.22041302 0 3755.68028842 0 481.74710433 0 124.97367917 0 20955
0.13950000 0.13949800 11394.62667580 0 65.28318223 0 3430.05361882 0 67.35322493 0 347.61448854 0 20506
0.14050000 0.14048300 10936.25144656 0 242.60197466 0 3409.05111605 0 -70.07871708 0 972.35216799 0 21447
0.14150000 0.14148400 10844.13482089 0 94.83519754 0 3425.44009834 0 215.01092525 0 1055.71628622 0 21771
0.14250000 0.14249400 10502.69036677 0 37.01295670 0 3304.57684623 0 360.80366484 0 408.24383690 0 22470
0.14350000 0.14350900 10763.24442840 0 166.52282496 0 2991.42865108 0 82.50512466 0 855.87505571 0 22519
0.14450000 0.14449900 10480.66629875 0 83.68926158 0 2790.20226596 0 158.93358376 0 475.99118830 0 22218
0.14550000 0.14550500 10326.13533167 0 -6.95254242 0 2983.04742220 0 30.77877237 0 931.30172179 0 23559
0.14650000 0.14650700 10314.32691615 0 66.01574337 0 2675.20477561 0 188.35795834 0 306.95729004 0 23044
0.14750000 0.14750500 10251.27546953 0 60.78082562 0 2618.63422681 0 -195.58251173 0 151.19714930 0 23649
0.14850000 0.14849900 10058.28751385 0 96.95994341 0 2641.75675210 0 97.84189474 0 244.19144231 0 23640
0.14950000 0.14949500 9983.53749743 0 192.70675062 0 2831.83379604 0 103.03144621 0 610.17433312 0 24457
0.15050000 0.15050000 10045.41359478 0 -103.41975085 0 2389.55096563 0 58.59039200 0 132.27732148 0 24591
0.15150000 0.15149900 9956.15295799 0 100.27058374 0 2393.91184094 0 504.49505569 0 506.05047116 0 25020
0.15250000 0.15250500 9848.69088442 0 30.38266869 0 2452.32779793 0 -0.11730535 0 979.02529583 0 25297
0.15350000 0.15350100 9843.51715074 0 212.08902894 0 2379.43417428 0 157.35070686 0 936.12394916 0 25452
0.15450000 0.15450400 9626.40707367 0 229.37105699 0 2395.46066568 0 -177.63262167 0 998.41196798 0 26061
0.15550000 0.15549900 9348.37655706 0 98.41968326 0 2685.39845896 0 -3.31043162 0 952.74909976 0 26128
0.15650000 0.15649500 9070.54376276 0 194.12815432 0 2771.27584740 0 -197.40485232 0 1053.73247241 0 26331
0.15750000 0.15749700 8881.22465432 0 70.17252533 0 2505.60297495 0 53.95413345 0 1083.83349666 0 27345
0.15850000 0.15849900 9089.85464136 0 -159.70030693 0 2614.32827436 0 316.29966902 0 656.54241090 0 26980
0.15950000 0.15949700 9198.82160137 0 55.61939465 0 2225.43046669 0 -60.03936697 0 -79.62266297 0 27777
0.16050000 0.16050000 9098.57639199 0 77.89457001 0 2248.80563714 0 -58.90905445 0 331.88567906 0 28224
0.16150000 0.16150500 8992.70708145 0 143.23443263 0 2336.87994010 0 -262.63453968 0 -218.79840588 0 28075
0.16250000 0.16249700 8831.64029369 0 178.26643151 0 2188.91774743 0 -26.20051237 0 -38.10723982 0 28590
0.16350000 0.16349900 8783.86838753 0 51.53236473 0 2373.84302684 0 183.94216016 0 -471.54573177 0 29163
0.16450000 0.16449100 8526.22523764 0 60.01322369 0 2314.42747374 0 -95.85643325 0 -289.75984321 0 28996
0.16550000 0.16550500 8362.97251993 0 302.58543015 0 2463.32335508 0 23.47798605 0 -43.94301369 0 30777
0.16650000 0.16650700 8216.08681538 0 123.03490211 0 2535.53593523 0 113.61892650 0 71.79329901 0 29211
0.16750000 0.16749900 8106.30699700 0 -27.09213012 0 2517.12579159 0 -41.60692464 0 -225.90432588 0 30922
0.16850000 0.16850800 8000.72328535 0 86.66673983 0 2322.24848942 0 169.25578662 0 -45.97241348 0 30867
0.16950000 0.16949900 7834.57064048 0 91.46732758 0 2383.22385182 0 137.00508152 0 142.85436642 0 30852
0.17050000 0.17049200 7872.51135418 0 58.70605955 0 2233.35034352 0 47.64272758 0 395.04806986 0 31257
0.17150000 0.17149500 7780.51555881 0 36.99560107 0 2139.90458457 0 329.25377547 0 66.72139232 0 32608
0.17250000 0.17250900 7919.90978487 0 5.01823608 0 1920.65251585 0 81.38733455 0 264.50081856 0 32361
0.17350000 0.17350400 7818.91762455 0 -44.25266879 0 1882.21749639 0 51.28389370 0 152.58889464 0 32508
0.17450000 0.17449800 7716.72814583 0 238.56624269 0 2261.97613967 0 -343.07786006 0 220.12973607 0 32791
0.17550000 0.17549800 7547.98314183 0 170.95619846 0 2125.76743966 0 -287.88697358 0 -50.50970103 0 33633
0.17650000 0.17650100 7567.56863475 0 77.40773375 0 2425.76710143 0 -92.04742286 0 -47.01726602 0 33984
0.17750000 0.17750300 7414.24597066 0 -103.78037437 0 2406.45622283 0 211.72873496 0 102.01460433 0 34069
0.17850000 0.17849800 7450.80262821 0 -18.12223800 0 2513.67663580 0 236.05187403 0 31.66621599 0 34536
