### header ###
fiducial parameters:
Omega_m = 0.31
Omega_nu = 0
Omega_de = 0.69
Omega_k = 0
H_0 = 100
w_de = -1
zeff = 0
beta = 0
fgrowth = 0
b_1 = 2
gamma = 0.55
Lx = 3500 Ly = 3500 Lz = 3500
nx = 700 ny = 700 nz = 700
xoffset = -983.599254 yoffset = -42.9823471 zoffset = 800.977702
bins = 400 dk = 0.001
kx_ny = 0.628318531 ky_ny = 0.628318531 kz_ny = 0.628318531
############################
A(data) = 9.10752648 (not used)
A(ran) = 9.11550117 (used)
Ngal = 506687
weighted Ngal = 0
Nran = 25229228
weighted Nran = 0
SN(data) = 6701.09171
SN(ran) = 135.313335
SN(data+ran) = 6836.40505
############################
13 columns: k_central k_mean P_0(k) sigma^{lin}_{P_0(k)} P^img_1(k) sigma^{lin}_{P_1(k)} P_2(k) sigma^{lin}_{P_2(k)} P^img_3(k) sigma^{lin}_{P_3(k)} P_4(k) sigma^{lin}_{P_4(k)} N_modes
### header ###
0.00050000 0 0 0 0 0 0 0 0 0 0 0 0
0.00150000 0.00179520 37194.97106341 0 -4954.13011077 0 40165.85856376 0 -63378.89672556 0 15426.18450461 0 3
0.00250000 0.00253879 59081.62208601 0 4257.34571821 0 -23424.71087544 0 956.10268977 0 -10517.10212600 0 6
0.00350000 0.00331552 61282.60089414 0 16369.10021499 0 19788.81735102 0 -6432.62062650 0 38136.89816226 0 7
0.00450000 0.00420575 56204.21329833 0 7863.77861898 0 10343.07354259 0 1722.34802704 0 43861.72785448 0 24
0.00550000 0.00557378 41715.01283491 0 -12431.35063603 0 25836.04424850 0 21926.19548389 0 -941.05712070 0 45
0.00650000 0.00659388 48097.81842475 0 -6225.20992702 0 9632.14102056 0 -14036.19669017 0 -9247.40636589 0 40
0.00750000 0.00754703 61908.39199410 0 14691.97567327 0 2904.83726542 0 -1967.22710359 0 -25.60525838 0 57
0.00850000 0.00846663 57320.79510122 0 2950.48914907 0 40304.48386974 0 -31529.12852596 0 6938.93253049 0 75
0.00950000 0.00948925 58281.50581919 0 3112.52257921 0 51481.61600843 0 3090.36669632 0 -17476.67466837 0 112
0.01050000 0.01054430 52213.29838808 0 2833.93184941 0 57564.54276680 0 5317.45583347 0 -555.37120205 0 105
0.01150000 0.01145670 55038.96983890 0 -437.06735535 0 59918.31697953 0 6564.12792944 0 1612.48033208 0 144
0.01250000 0.01249090 65155.76118632 0 -3668.75936559 0 55139.47867802 0 31748.38059468 0 15581.28666946 0 169
0.01350000 0.01339930 67737.57512584 0 -6439.81552154 0 60801.14707790 0 25031.86368982 0 21559.64029685 0 180
0.01450000 0.01448870 70484.59703698 0 239.47576530 0 43847.55775585 0 8638.64135344 0 12054.25025931 0 267
0.01550000 0.01550050 84567.69785207 0 3604.60946171 0 48142.96501806 0 2041.41690681 0 37730.90835966 0 238
0.01650000 0.01653350 77473.09195896 0 -2377.14938318 0 38664.59702907 0 10398.04034379 0 21350.38418918 0 315
0.01750000 0.01747870 78925.36229994 0 2231.40607417 0 44605.60310969 0 4118.58859737 0 24262.83376340 0 297
0.01850000 0.01844180 78678.20941685 0 4090.12756981 0 52501.42372688 0 1743.28462238 0 7960.67353372 0 388
0.01950000 0.01947590 73373.64947160 0 3940.59458326 0 47754.66037731 0 693.40443957 0 22647.99174821 0 399
0.02050000 0.02045430 72712.81758510 0 -1906.58127837 0 49510.10492153 0 12129.93396440 0 16162.59025046 0 462
0.02150000 0.02154770 73372.44116861 0 210.98068557 0 44833.42314503 0 6334.98974539 0 8003.20579875 0 571
0.02250000 0.02255340 73431.75786055 0 2149.40623985 0 43674.55073769 0 10819.23279485 0 28925.78482418 0 510
0.02350000 0.02348930 72145.13487410 0 -562.72976723 0 34762.21777382 0 -101.03741675 0 10443.69222744 0 555
0.02450000 0.02439640 70259.41329906 0 3643.38500293 0 42447.68382608 0 5449.45744218 0 28601.19070440 0 592
0.02550000 0.02547300 67390.79216944 0 3170.18060069 0 35558.37959452 0 12699.48405274 0 12041.61800085 0 837
0.02650000 0.02652900 68867.88764446 0 -1275.35281498 0 35295.73846410 0 2424.20729212 0 23419.76781778 0 723
0.02750000 0.02749970 63655.81780034 0 -377.74956496 0 26870.46144848 0 4851.24860397 0 8721.62979929 0 826
0.02850000 0.02848090 65087.76668204 0 1167.89074142 0 28636.45118238 0 575.31918586 0 22728.61851096 0 831
0.02950000 0.02946900 64495.03914555 0 1163.01359119 0 24385.53143913 0 4056.93219147 0 2019.43677707 0 996
0.03050000 0.03053250 61625.75894158 0 -1098.75384159 0 19774.64725239 0 1735.00225465 0 8141.54550584 0 1041
0.03150000 0.03150510 66394.71112777 0 -902.07397107 0 21633.78616178 0 -2895.19281069 0 -3161.55771122 0 1036
0.03250000 0.03246190 59467.83965797 0 6509.23802025 0 22164.89024609 0 -8260.22282801 0 -1334.19717030 0 1059
0.03350000 0.03345080 57981.95652489 0 3781.16449681 0 29806.74754520 0 -1974.37806034 0 -4443.33650116 0 1302
0.03450000 0.03451200 55324.34903456 0 -114.54822134 0 28879.64961934 0 4378.60441494 0 -10035.08809656 0 1339
0.03550000 0.03553350 52797.01857505 0 2204.95522340 0 31412.14282796 0 3090.61934149 0 -2748.34005985 0 1365
0.03650000 0.03647120 50162.14914996 0 1319.65359620 0 29284.10158178 0 324.30302861 0 1259.26041615 0 1308
0.03750000 0.03744890 50725.21834048 0 594.29064117 0 27710.34186805 0 10214.55404339 0 3091.49810729 0 1579
0.03850000 0.03847530 51823.12636999 0 -1084.91657551 0 22858.78569605 0 3234.04490568 0 3262.50593324 0 1662
0.03950000 0.03950240 48911.00633295 0 712.14521885 0 22796.50316951 0 -2147.16538705 0 1822.84588158 0 1683
0.04050000 0.04050350 47644.70480577 0 2136.79595053 0 22646.89329096 0 139.11741483 0 3620.08672448 0 1822
0.04150000 0.04152450 46611.38606304 0 2302.70693480 0 24899.71928166 0 -1330.89081396 0 2900.89380386 0 1887
0.04250000 0.04250150 44473.45870154 0 558.27112922 0 22061.19588092 0 2932.27672773 0 2119.39638756 0 1920
0.04350000 0.04349210 43566.57238922 0 86.48670268 0 20872.77497334 0 2841.52218906 0 1752.98399997 0 2005
0.04450000 0.04448520 43954.21795562 0 870.26704270 0 20849.04829657 0 1523.96664622 0 1996.33622093 0 2151
0.04550000 0.04548030 40940.93000510 0 953.34995588 0 22617.34479071 0 326.95690134 0 4480.20072674 0 2274
0.04650000 0.04648670 40720.68932485 0 617.04847864 0 19252.88005477 0 4909.24714720 0 3608.19043237 0 2311
0.04750000 0.04749250 40556.79950193 0 171.11767167 0 19980.16860538 0 -1395.73274590 0 5757.16827390 0 2568
0.04850000 0.04851840 40029.43017230 0 1686.63718157 0 19378.10418220 0 -773.34906036 0 -943.43967449 0 2493
0.04950000 0.04949480 39091.45751958 0 -34.69565126 0 22166.64777770 0 1068.70114947 0 6099.52444754 0 2644
0.05050000 0.05050630 38784.43871593 0 -57.11406545 0 21370.37611128 0 1251.50530791 0 3394.21095849 0 2829
0.05150000 0.05149060 38069.45288661 0 48.02751716 0 17258.85059408 0 2103.98503223 0 3692.02469032 0 2784
0.05250000 0.05249300 40272.73845498 0 -566.83909583 0 16923.93097608 0 4183.23280701 0 1009.50528783 0 3055
0.05350000 0.05348950 39889.81625479 0 396.26735741 0 15432.66540243 0 511.63722478 0 -207.42827480 0 3009
0.05450000 0.05448610 39229.09421403 0 728.63635767 0 15879.73750649 0 -2186.54507975 0 -535.15299776 0 3336
0.05550000 0.05550870 37343.15294753 0 1752.30295647 0 16584.39783759 0 -1589.17106906 0 -2442.38675974 0 3349
0.05650000 0.05647670 34740.24862866 0 1508.58824460 0 17190.52655262 0 -2349.83075117 0 -956.71343200 0 3324
0.05750000 0.05747970 34966.31113238 0 219.72001152 0 17796.87495911 0 2242.50049248 0 -6220.28883850 0 3639
0.05850000 0.05849280 33823.36635529 0 -636.31432049 0 14332.23092123 0 4633.33665310 0 -2333.77130606 0 3846
0.05950000 0.05951020 34721.90439245 0 -1092.77933257 0 12263.72605844 0 4114.65612038 0 191.90817220 0 3787
0.06050000 0.06049470 35854.41382558 0 -307.64712120 0 8898.06400409 0 3336.60785987 0 -247.29897790 0 3930
0.06150000 0.06148310 35877.37158228 0 114.02974951 0 6394.27348362 0 2036.47384915 0 1019.43863681 0 4083
0.06250000 0.06249100 34369.40945831 0 1090.60878102 0 6243.24659520 0 -2576.59626754 0 2493.61880626 0 4303
0.06350000 0.06350600 33559.62676762 0 850.67495905 0 9434.29788379 0 -1358.65981344 0 -836.37963629 0 4470
0.06450000 0.06451750 32314.74515697 0 1017.84257842 0 8702.95602590 0 -1330.59423050 0 -711.07861685 0 4479
0.06550000 0.06550280 31407.30961603 0 582.77990756 0 10507.53456328 0 -68.90468596 0 -466.75755658 0 4636
0.06650000 0.06648880 31438.61564788 0 770.88192536 0 11051.68831982 0 -53.47015318 0 -2444.01247649 0 4653
0.06750000 0.06749660 30132.87950514 0 705.16232606 0 10967.77716987 0 666.86900758 0 -490.55453462 0 5220
0.06850000 0.06852730 29061.11475838 0 169.13275941 0 11150.00024442 0 -62.12006471 0 -410.30783809 0 5029
0.06950000 0.06949320 28094.80190840 0 332.67766674 0 9746.53435942 0 2256.79142141 0 1218.85915820 0 5040
0.07050000 0.07048030 28974.33663499 0 607.74784104 0 10091.92227509 0 775.70854655 0 457.95561857 0 5475
0.07150000 0.07148790 28352.49998116 0 -207.29096764 0 9316.78492632 0 -540.98251043 0 -639.68987965 0 5509
0.07250000 0.07249820 27966.72179210 0 -173.22231578 0 8861.10091735 0 769.97459966 0 -135.73965876 0 5916
0.07350000 0.07351270 28044.71225743 0 441.85003826 0 10383.03541764 0 209.38902100 0 875.65717247 0 5721
0.07450000 0.07449140 27443.74629150 0 395.26336748 0 8001.30546769 0 -568.48897863 0 -576.09689360 0 6028
0.07550000 0.07549160 27223.94499415 0 520.20848676 0 10220.66146575 0 -829.97233510 0 -1723.31466942 0 6183
0.07650000 0.07648840 26409.87832015 0 1104.74043365 0 9522.75664679 0 -604.14270432 0 -1133.19047664 0 6330
0.07750000 0.07749960 25790.78780946 0 290.82534675 0 11598.39049719 0 1.04337402 0 -486.54516563 0 6583
0.07850000 0.07848650 25629.20474679 0 -163.75031884 0 10096.23921212 0 1222.14354540 0 -1715.95500579 0 6549
0.07950000 0.07947320 25366.67346210 0 71.96619619 0 9834.71850810 0 1347.93887060 0 -232.29734712 0 6828
0.08050000 0.08048110 24818.87282746 0 233.47159793 0 8977.20784954 0 1404.53138854 0 1003.36930558 0 7147
0.08150000 0.08149960 25083.93056385 0 253.41848328 0 8199.60995650 0 680.77877184 0 -875.17934356 0 7386
0.08250000 0.08250610 24538.32684374 0 737.74696217 0 8968.58496006 0 -588.71597058 0 -326.30441773 0 7227
0.08350000 0.08350160 23440.52865996 0 729.59421240 0 7947.03069457 0 -545.46860987 0 258.92285260 0 7798
0.08450000 0.08449610 22693.90726160 0 -82.62474665 0 8251.33630879 0 789.39093016 0 199.43480133 0 7371
0.08550000 0.08548940 22279.89872101 0 -1.29766248 0 7873.17042853 0 1364.49262148 0 862.05387778 0 8256
0.08650000 0.08650700 21848.97393865 0 474.02165443 0 7461.04024985 0 367.94693239 0 -191.31390682 0 8037
0.08750000 0.08749060 20990.96897432 0 1191.25492730 0 6791.77221162 0 325.13016692 0 1371.01745760 0 8155
0.08850000 0.08849210 21140.46900715 0 45.72361291 0 7040.26521255 0 199.72040022 0 682.49785745 0 8718
0.08950000 0.08949900 20329.25832202 0 -141.52633160 0 7435.00681284 0 70.63431676 0 1246.08991363 0 8571
0.09050000 0.09049190 19715.66009762 0 859.30114389 0 7334.02563710 0 -477.47630251 0 192.91655596 0 8932
0.09150000 0.09150830 19114.69413170 0 364.35278024 0 7638.88047995 0 -1319.21421330 0 921.49579385 0 9285
0.09250000 0.09250820 19250.68314026 0 -295.58825742 0 7961.77199097 0 648.00300418 0 -667.98943399 0 9204
0.09350000 0.09350330 19063.94540637 0 297.52593602 0 7818.53316451 0 749.66192804 0 -946.40111526 0 9349
0.09450000 0.09448040 19014.95421266 0 155.93369699 0 7437.51129538 0 412.12908022 0 875.38255815 0 9564
0.09550000 0.09549270 19017.59051008 0 46.41893635 0 7568.46936970 0 1148.86546171 0 1032.38395560 0 10155
0.09650000 0.09649430 18962.55780145 0 340.37565521 0 6724.93108746 0 360.67953917 0 1747.86518914 0 9913
0.09750000 0.09749140 18903.57064669 0 -106.93250732 0 6946.75354617 0 16.04802116 0 910.69795900 0 10476
0.09850000 0.09850240 18065.99698736 0 85.17228873 0 6933.19858360 0 53.54891257 0 2380.44475496 0 10575
0.09950000 0.09950330 18323.91475157 0 372.21773421 0 7514.06278170 0 278.40509053 0 1332.09911694 0 10882
0.10050000 0.10051200 17764.58031573 0 375.05944313 0 6733.53200779 0 -478.40230198 0 354.45458188 0 10875
0.10150000 0.10150300 17723.49801427 0 164.80813318 0 7179.69239233 0 -286.91483891 0 172.78073596 0 11118
0.10250000 0.10250800 17153.83808020 0 -93.85691150 0 6462.97100054 0 584.40342739 0 -557.41872638 0 11575
0.10350000 0.10349800 17193.05300432 0 167.87173047 0 6635.58257408 0 822.19525771 0 505.29363411 0 11364
0.10450000 0.10450100 16739.28031098 0 551.53648777 0 5924.16673085 0 -568.64495956 0 -763.96933383 0 12093
0.10550000 0.10551000 16361.96024281 0 482.23591781 0 6130.80851025 0 558.96205883 0 78.69128106 0 12067
0.10650000 0.10649700 16330.65421096 0 -164.36765182 0 5997.25807681 0 643.92113700 0 161.59185033 0 12054
0.10750000 0.10749900 15923.45610537 0 -59.39424302 0 5484.90465790 0 334.88776274 0 577.46996517 0 12807
0.10850000 0.10850100 15749.02109278 0 337.48781107 0 5281.76695715 0 114.28459159 0 58.02545543 0 12736
0.10950000 0.10950300 15604.90350051 0 166.85895288 0 5422.98462226 0 -57.12076603 0 728.04758458 0 12933
0.11050000 0.11050200 15594.24846510 0 164.95422800 0 5552.52568671 0 429.58466451 0 279.92645383 0 13428
0.11150000 0.11150900 15237.79908484 0 184.05639972 0 5685.03258576 0 -326.68009011 0 406.90152213 0 13453
0.11250000 0.11250000 15283.49490678 0 344.89031454 0 5659.44951621 0 -289.00849844 0 -54.41625442 0 13668
0.11350000 0.11349100 14991.52496757 0 -119.85486835 0 5882.08483329 0 15.45880869 0 27.79755937 0 13791
0.11450000 0.11448600 14913.53450224 0 -66.32682647 0 5764.07757005 0 464.96157897 0 -534.16548469 0 14205
0.11550000 0.11549300 14856.19503336 0 402.57250208 0 5540.16804255 0 -459.35505312 0 -616.26198324 0 14776
0.11650000 0.11649800 14364.85510180 0 352.78822222 0 5787.57357080 0 76.97669912 0 -310.78651204 0 14553
0.11750000 0.11747300 14357.27574672 0 122.01553378 0 5447.62301856 0 818.39020177 0 -244.44628440 0 14568
0.11850000 0.11849100 14175.59091622 0 8.92505310 0 5260.40196348 0 550.97517611 0 -275.93246324 0 16015
0.11950000 0.11950300 13963.36897395 0 40.70366324 0 4747.88377598 0 329.45699006 0 172.03158811 0 15270
0.12050000 0.12050700 13488.17636408 0 398.22151288 0 4774.88385538 0 -201.37797222 0 -37.77550572 0 15999
0.12150000 0.12150000 13152.26813455 0 261.40975983 0 4938.43315655 0 -343.48319079 0 665.21363250 0 15670
0.12250000 0.12250700 12781.09942702 0 33.84687334 0 4391.85180947 0 240.79281556 0 -141.46371953 0 16887
0.12350000 0.12352200 12632.14862282 0 70.98450494 0 4927.36070739 0 498.43816237 0 191.89059688 0 16407
0.12450000 0.12449800 12899.51311945 0 92.11113338 0 4251.65570962 0 422.40734479 0 -253.17242885 0 16306
0.12550000 0.12549900 12809.00024138 0 151.92213109 0 4534.33270043 0 -14.28653510 0 230.89901103 0 17523
0.12650000 0.12650100 12658.07221411 0 -96.53648814 0 4236.22238514 0 -149.72631503 0 103.09043337 0 17154
0.12750000 0.12750600 12641.70520096 0 -69.92152785 0 4069.55346536 0 423.34652574 0 537.84311959 0 18007
0.12850000 0.12850300 13083.72440164 0 -224.60485094 0 3994.22126660 0 598.87670022 0 408.33171348 0 17496
0.12950000 0.12949900 13103.16709511 0 127.55725064 0 4004.38199624 0 56.58263182 0 200.41023137 0 18405
0.13050000 0.13049000 12857.55205219 0 286.75226724 0 3794.19219989 0 -355.71231544 0 569.38861513 0 18100
0.13150000 0.13148800 12520.21582822 0 41.82540779 0 4028.98743882 0 103.46281038 0 1061.14156662 0 19059
0.13250000 0.13249300 12474.52000628 0 134.74665340 0 4069.80611053 0 470.60325544 0 1031.28769526 0 18957
0.13350000 0.13349100 12604.68719137 0 184.26400814 0 3782.16409292 0 165.41997387 0 868.14811865 0 19468
0.13450000 0.13450700 12017.56178689 0 60.10988793 0 3592.68021589 0 109.46247408 0 1224.47227479 0 19953
0.13550000 0.13551000 11961.21092955 0 186.77727834 0 3793.17063464 0 92.64311623 0 869.41354141 0 19956
0.13650000 0.13649900 11749.42837018 0 249.49699087 0 3291.70292716 0 600.24208259 0 1638.94216743 0 19723
0.13750000 0.13749600 11964.28660987 0 -177.11195293 0 3376.14133659 0 313.21849641 0 1197.87862457 0 20946
0.13850000 0.13851100 11696.48273034 0 190.09242235 0 2899.68550088 0 -58.94398539 0 1128.06068124 0 20955
0.13950000 0.13949800 11525.34308952 0 237.25468473 0 3359.77432345 0 -860.01294420 0 408.87435137 0 20506
0.14050000 0.14048300 11210.52523934 0 219.01260504 0 3427.79079687 0 -211.67710747 0 476.06808030 0 21447
0.14150000 0.14148400 10848.44077334 0 -8.49870888 0 3761.64491134 0 -45.95308063 0 116.34200204 0 21771
0.14250000 0.14249400 10975.18077179 0 169.03719363 0 3485.65752523 0 382.75413623 0 -241.51999426 0 22470
0.14350000 0.14350900 10789.21195798 0 150.56224100 0 3202.47524408 0 51.88749597 0 -382.40372836 0 22519
0.14450000 0.14449900 10842.92651791 0 74.59864901 0 3026.78799022 0 -95.93277603 0 -621.22041931 0 22218
0.14550000 0.14550500 10672.87434978 0 18.19616417 0 3013.96899401 0 190.70536150 0 -327.60279421 0 23559
0.14650000 0.14650700 10527.42762423 0 -169.65342815 0 2528.39596306 0 431.75741297 0 -470.22099232 0 23044
0.14750000 0.14750500 10660.16519930 0 32.09153864 0 2373.93090342 0 236.50773379 0 -794.08463802 0 23649
0.14850000 0.14849900 10533.45815457 0 206.42758023 0 2489.84011330 0 -54.90836327 0 -499.22465776 0 23640
0.14950000 0.14949500 10408.22304257 0 225.46823835 0 2525.50702047 0 -476.91499085 0 -795.11608939 0 24457
0.15050000 0.15050000 10209.36932513 0 338.88285179 0 2767.40927785 0 -396.13554254 0 -815.78026733 0 24591
0.15150000 0.15149900 9793.87786724 0 115.03703482 0 3026.78799022 0 70.22964511 0 -666.71632203 0 25020
0.15250000 0.15250500 10037.07630419 0 -230.83530051 0 2897.42267893 0 679.53751514 0 -296.81743109 0 25297
0.15350000 0.15350100 9958.29494964 0 15.09148458 0 2696.35007782 0 456.99776385 0 -558.85880385 0 25452
0.15450000 0.15450400 10047.78626246 0 82.69065409 0 2456.67768867 0 14.63935957 0 -330.03368012 0 26061
0.15550000 0.15549900 9870.35246155 0 143.24651566 0 2529.62623518 0 -73.16911673 0 275.01964526 0 26128
0.15650000 0.15649500 9535.16921381 0 168.84935743 0 2524.26576377 0 -105.18464213 0 300.79714174 0 26331
0.15750000 0.15749700 9560.14813186 0 132.10596215 0 2754.44748221 0 124.44751815 0 278.52152700 0 27345
0.15850000 0.15849900 9282.10663068 0 196.60188006 0 2574.00390841 0 350.15631863 0 549.88221114 0 26980
0.15950000 0.15949700 9363.86480440 0 -106.85286917 0 2603.09105661 0 54.35089621 0 462.01331969 0 27777
0.16050000 0.16050000 9248.31808542 0 194.38409486 0 2618.91982570 0 -77.35116320 0 128.23280186 0 28224
0.16150000 0.16150500 8984.88606577 0 256.49416360 0 2864.09548571 0 -213.15013865 0 880.23554232 0 28075
0.16250000 0.16249700 8777.09090625 0 38.57331523 0 2685.93670302 0 -149.94600648 0 760.26423750 0 28590
0.16350000 0.16349900 8765.60104333 0 -20.67098838 0 2779.59116885 0 327.25348480 0 -10.83915881 0 29163
0.16450000 0.16449100 8854.87266470 0 106.13239105 0 2799.34143035 0 105.13960538 0 281.68837928 0 28996
0.16550000 0.16550500 8710.38159696 0 37.38083003 0 2602.09146050 0 -118.94754265 0 187.32980234 0 30777
0.16650000 0.16650700 8740.42440297 0 94.78895248 0 2649.00657000 0 -215.69087029 0 60.56937260 0 29211
0.16750000 0.16749900 8516.41601432 0 129.84314020 0 2818.93790783 0 1.78326847 0 -2.39869013 0 30922
0.16850000 0.16850800 8532.09099940 0 131.20632566 0 2852.46282335 0 187.33859000 0 133.79868478 0 30867
0.16950000 0.16949900 8386.17193723 0 -28.37073437 0 2637.37390764 0 130.73179212 0 -56.27088965 0 30852
0.17050000 0.17049200 8359.60025615 0 27.23624772 0 2820.54165543 0 212.98427161 0 231.84588119 0 31257
0.17150000 0.17149500 8308.41214792 0 86.80064177 0 2605.88113804 0 132.99131870 0 192.03559324 0 32608
0.17250000 0.17250900 8171.05006779 0 82.91946274 0 2507.25066084 0 59.49057772 0 666.06933070 0 32361
0.17350000 0.17350400 8212.98916591 0 174.85791864 0 2586.65813603 0 69.07934067 0 442.86940659 0 32508
0.17450000 0.17449800 7969.46119178 0 116.89232912 0 2559.82282521 0 69.11635868 0 744.61012311 0 32791
0.17550000 0.17549800 7898.51183748 0 -26.87265836 0 2497.06796205 0 79.75041355 0 714.14770643 0 33633
0.17650000 0.17650100 7792.09329831 0 21.32358183 0 2373.51348966 0 255.45721995 0 640.52910099 0 33984
0.17750000 0.17750300 7802.64947256 0 228.14188331 0 2570.97216638 0 -22.76926143 0 826.61105589 0 34069
0.17850000 0.17849800 7611.92433883 0 106.11888003 0 2232.96588348 0 4.61627761 0 874.58288127 0 34536
