### header ###
fiducial parameters:
Omega_m = 0.31
Omega_nu = 0
Omega_de = 0.69
Omega_k = 0
H_0 = 100
w_de = -1
zeff = 0
beta = 0
fgrowth = 0
b_1 = 2
gamma = 0.55
Lx = 3500 Ly = 3500 Lz = 3500
nx = 700 ny = 700 nz = 700
xoffset = -983.599254 yoffset = -42.9823471 zoffset = 800.977702
bins = 400 dk = 0.001
kx_ny = 0.628318531 ky_ny = 0.628318531 kz_ny = 0.628318531
############################
A(data) = 9.09363782 (not used)
A(ran) = 9.08568831 (used)
Ngal = 504484
weighted Ngal = 0
Nran = 25229228
weighted Nran = 0
SN(data) = 6745.15378
SN(ran) = 134.870784
SN(data+ran) = 6880.02457
############################
13 columns: k_central k_mean P_0(k) sigma^{lin}_{P_0(k)} P^img_1(k) sigma^{lin}_{P_1(k)} P_2(k) sigma^{lin}_{P_2(k)} P^img_3(k) sigma^{lin}_{P_3(k)} P_4(k) sigma^{lin}_{P_4(k)} N_modes
### header ###
0.00050000 0 0 0 0 0 0 0 0 0 0 0 0
0.00150000 0.00179520 62583.28413349 0 -49428.70923871 0 -2306.56251978 0 -100134.70457717 0 -15978.59865973 0 3
0.00250000 0.00253879 67859.06449859 0 -13937.88476556 0 -46032.82862518 0 40857.55709921 0 82979.87788543 0 6
0.00350000 0.00331552 78428.74977353 0 6632.53984748 0 37119.83658696 0 -87692.36936856 0 22599.43993740 0 7
0.00450000 0.00420575 74805.59835330 0 4522.98563695 0 1258.49149607 0 -19882.95513804 0 20481.39465227 0 24
0.00550000 0.00557378 59126.21945069 0 2255.68197958 0 30490.09780549 0 13355.48272730 0 -15848.32162891 0 45
0.00650000 0.00659388 44325.93589177 0 -1671.57733257 0 -10264.85240124 0 28130.28207784 0 49250.97885434 0 40
0.00750000 0.00754703 79432.30032456 0 -6600.08043550 0 35831.45606889 0 15596.55522535 0 -22098.43358197 0 57
0.00850000 0.00846663 65874.59161604 0 -1641.80914087 0 11920.01878237 0 -15884.13133553 0 19331.63944018 0 75
0.00950000 0.00948925 72215.87552152 0 1346.88435163 0 13390.74320529 0 11258.41797580 0 -12374.67024151 0 112
0.01050000 0.01054430 71667.85519544 0 7172.84900361 0 17405.82417522 0 -13788.60442418 0 14258.74413066 0 105
0.01150000 0.01145670 77405.31714613 0 -1840.77270404 0 23893.53243321 0 17767.43630460 0 15032.60726902 0 144
0.01250000 0.01249090 75254.64768043 0 -3072.37396643 0 7741.60820273 0 11720.86848147 0 22530.23713014 0 169
0.01350000 0.01339930 65329.53712455 0 862.18898802 0 17945.38638041 0 -9750.80735815 0 5698.65345576 0 180
0.01450000 0.01448870 70807.76316232 0 8006.61101625 0 14630.02268391 0 3225.64170766 0 23961.85647467 0 267
0.01550000 0.01550050 58366.52641097 0 2144.07872215 0 20748.10007454 0 1087.64404489 0 24370.59242042 0 238
0.01650000 0.01653350 69042.76203995 0 -2083.63061924 0 19377.99433647 0 15013.60395845 0 17863.88085186 0 315
0.01750000 0.01747870 66854.74502747 0 -4989.62126478 0 11112.98223482 0 8397.70573844 0 8018.70503066 0 297
0.01850000 0.01844180 62979.05828360 0 -5247.96742732 0 6913.00893920 0 2181.20657748 0 20208.64771507 0 388
0.01950000 0.01947590 67314.66908146 0 7337.41987002 0 10088.76970276 0 -2034.26595006 0 26416.35921797 0 399
0.02050000 0.02045430 73300.71190966 0 3568.00886587 0 5889.93880269 0 -12416.30177160 0 -13516.73625279 0 462
0.02150000 0.02154770 70713.18599240 0 -7447.38642613 0 11494.80597775 0 6361.71521048 0 -5961.32753989 0 571
0.02250000 0.02255340 68044.70377521 0 1286.32640299 0 8289.95806599 0 -1790.17776273 0 -12391.25694611 0 510
0.02350000 0.02348930 69950.74680953 0 2595.44579409 0 10468.75902207 0 -8671.27651858 0 -982.20752651 0 555
0.02450000 0.02439640 72682.93954768 0 3024.75584429 0 13902.84397903 0 -2872.36686887 0 -13251.45882496 0 592
0.02550000 0.02547300 66972.06026264 0 2001.94933752 0 14346.29117414 0 4786.04418113 0 -10450.09623325 0 837
0.02650000 0.02652900 66383.94624664 0 -1096.71840029 0 19649.53297068 0 891.68256541 0 -7974.34932658 0 723
0.02750000 0.02749970 63618.25056211 0 2512.03993448 0 11624.53377993 0 -1584.62345601 0 -7463.80836214 0 826
0.02850000 0.02848090 62661.71398172 0 2202.28597226 0 22779.80661919 0 -2923.62088453 0 -627.60465289 0 831
0.02950000 0.02946900 56562.09067303 0 1345.03894344 0 13565.17821788 0 3509.75767747 0 -5465.51688729 0 996
0.03050000 0.03053250 54738.65162453 0 4166.31656523 0 26895.17673679 0 -978.30251095 0 -486.74508485 0 1041
0.03150000 0.03150510 53417.20754299 0 4206.41025515 0 21594.35154621 0 -857.70947933 0 -291.08677958 0 1036
0.03250000 0.03246190 51239.84556592 0 -314.70141371 0 27039.51402051 0 3520.36877459 0 -4208.00301818 0 1059
0.03350000 0.03345080 50035.38718237 0 -1566.30118895 0 18506.14881069 0 6238.97359646 0 200.87268188 0 1302
0.03450000 0.03451200 52775.04942989 0 -2881.29732638 0 16524.53191702 0 5731.93671068 0 162.63538472 0 1339
0.03550000 0.03553350 51547.96282682 0 1053.23596973 0 14176.35983630 0 -2626.11472074 0 -483.75508420 0 1365
0.03650000 0.03647120 53103.81768725 0 3771.80564097 0 14209.20370832 0 -4225.35864286 0 4066.67550735 0 1308
0.03750000 0.03744890 50573.41154741 0 290.40463762 0 17533.57475434 0 -3552.88310943 0 -4015.10293908 0 1579
0.03850000 0.03847530 49598.53073081 0 1919.04876825 0 19560.44808705 0 -2189.90635896 0 -8422.01459756 0 1662
0.03950000 0.03950240 49771.20821179 0 533.71182184 0 23475.45960077 0 2131.43547911 0 -4595.52775428 0 1683
0.04050000 0.04050350 45237.98495320 0 790.33340648 0 24199.23308815 0 1646.06017046 0 -1777.35876652 0 1822
0.04150000 0.04152450 46527.57377425 0 1242.53091211 0 22914.03809613 0 3284.84855387 0 1582.84395525 0 1887
0.04250000 0.04250150 44191.59456910 0 -114.83601714 0 22534.63095917 0 4335.85245845 0 4087.38142666 0 1920
0.04350000 0.04349210 44321.87159991 0 1570.20071221 0 19990.27441216 0 4283.82952271 0 9095.25905107 0 2005
0.04450000 0.04448520 43205.39964275 0 50.57066540 0 18079.39816591 0 3088.13682808 0 7777.68153908 0 2151
0.04550000 0.04548030 43094.34561395 0 -370.22732965 0 15898.19158843 0 3293.92181082 0 11517.43419726 0 2274
0.04650000 0.04648670 42030.81929662 0 781.24477113 0 14955.93495240 0 1326.71667637 0 8226.17065301 0 2311
0.04750000 0.04749250 40238.02720562 0 1362.09798466 0 14129.89509429 0 951.51333534 0 10478.56824538 0 2568
0.04850000 0.04851840 39412.86611331 0 1285.65634407 0 12946.74678155 0 -833.88394140 0 11527.43015831 0 2493
0.04950000 0.04949480 38422.49704938 0 -761.79658538 0 13062.63402228 0 812.54311379 0 7166.45598237 0 2644
0.05050000 0.05050630 38830.24438360 0 6.03377080 0 13123.15901720 0 1856.17307480 0 1331.33019686 0 2829
0.05150000 0.05149060 38370.97940397 0 645.79180972 0 11351.01792266 0 -2145.12225655 0 4880.23689101 0 2784
0.05250000 0.05249300 38150.51903226 0 715.13082568 0 12844.91979372 0 -1725.86309026 0 287.02138926 0 3055
0.05350000 0.05348950 36404.41137473 0 998.75468664 0 14792.81404957 0 -2108.25803096 0 -3706.26069638 0 3009
0.05450000 0.05448610 35558.70913170 0 2415.45258777 0 16580.33354573 0 -2751.19604872 0 -6191.57516577 0 3336
0.05550000 0.05550870 34680.82209099 0 227.90132117 0 17661.87456209 0 137.64108827 0 -2897.27987948 0 3349
0.05650000 0.05647670 33486.57935995 0 -487.98524310 0 14541.15749173 0 4921.48396105 0 -4347.68284312 0 3324
0.05750000 0.05747970 34537.14388163 0 134.85869604 0 16843.41405905 0 -694.62043175 0 -5622.47544491 0 3639
0.05850000 0.05849280 32130.64372051 0 1000.25408080 0 13334.94157657 0 301.68689212 0 -5452.73084481 0 3846
0.05950000 0.05951020 31475.30412031 0 679.43535862 0 15060.72777483 0 2724.87701282 0 -1232.43608991 0 3787
0.06050000 0.06049470 31379.51864740 0 -126.37201526 0 11336.07890395 0 1639.90880981 0 446.72279465 0 3930
0.06150000 0.06148310 32839.58803491 0 -1506.09474663 0 11653.42320582 0 5272.06757956 0 1519.23229544 0 4083
0.06250000 0.06249100 33110.24790331 0 -746.00516383 0 7233.96716545 0 1958.82390557 0 1522.56062093 0 4303
0.06350000 0.06350600 33025.55684871 0 1029.07100851 0 8418.51051891 0 222.49032072 0 3484.10870050 0 4470
0.06450000 0.06451750 32418.76905932 0 1153.87442681 0 8946.93436750 0 -2522.76087732 0 6739.06823237 0 4479
0.06550000 0.06550280 30930.35947455 0 -39.92518658 0 8267.42870762 0 -36.85126379 0 4838.81406781 0 4636
0.06650000 0.06648880 31872.61611057 0 191.00853570 0 10634.17570057 0 2225.56228156 0 5120.01912589 0 4653
0.06750000 0.06749660 30523.27121468 0 422.60177172 0 8959.03936649 0 873.80846890 0 5179.76421616 0 5220
0.06850000 0.06852730 31105.01417859 0 1443.60351321 0 10322.27974670 0 -305.93572479 0 4878.53428226 0 5029
0.06950000 0.06949320 29182.71397685 0 358.67375621 0 9664.02923476 0 -229.92797482 0 7587.18708138 0 5040
0.07050000 0.07048030 29267.18534001 0 -1079.95813945 0 9504.59914831 0 636.42636313 0 3747.31004412 0 5475
0.07150000 0.07148790 28627.99306150 0 1332.52751527 0 9197.47049894 0 -619.24099933 0 3641.93503934 0 5509
0.07250000 0.07249820 27908.28386597 0 1096.13182412 0 10702.22512771 0 -1125.47930668 0 3098.52823375 0 5916
0.07350000 0.07351270 27136.72748785 0 504.10949719 0 12280.09307159 0 -1050.50190962 0 753.37581203 0 5721
0.07450000 0.07449140 26479.41066459 0 592.75939175 0 11315.31806177 0 570.32120534 0 -643.60478131 0 6028
0.07550000 0.07549160 26291.46462772 0 135.34421415 0 11031.03732336 0 -316.54132962 0 -358.45406476 0 6183
0.07650000 0.07648840 26374.83753361 0 -304.27815279 0 11566.86477388 0 961.65648966 0 -492.78330440 0 6330
0.07750000 0.07749960 25810.99942301 0 194.69825363 0 10888.02917293 0 172.17878138 0 -226.57438481 0 6583
0.07850000 0.07848650 25644.36345695 0 464.04326870 0 11145.71626111 0 -1012.27230166 0 -904.43235880 0 6549
0.07950000 0.07947320 24669.92202326 0 680.41298558 0 11680.44525437 0 497.49129221 0 -1160.81667668 0 6828
0.08050000 0.08048110 23880.79032902 0 443.24507897 0 11349.04069959 0 -64.39343185 0 1425.97327422 0 7147
0.08150000 0.08149960 23986.13238007 0 253.75680812 0 11705.70977131 0 2490.12571218 0 233.43425038 0 7386
0.08250000 0.08250610 23947.90606749 0 -143.38931511 0 10166.44161548 0 919.22308578 0 1523.87876964 0 7227
0.08350000 0.08350160 23317.39160132 0 516.28369898 0 9388.08578694 0 1459.86068063 0 2249.43175778 0 7798
0.08450000 0.08449610 22796.06378661 0 421.29350913 0 9320.53066557 0 -462.52959460 0 2732.81885879 0 7371
0.08550000 0.08548940 22687.20667233 0 218.62375117 0 8680.70128185 0 -102.90896823 0 2217.66437387 0 8256
0.08650000 0.08650700 21385.20528426 0 -117.01865171 0 8586.31084966 0 967.42119335 0 176.08050156 0 8037
0.08750000 0.08749060 21680.80013243 0 414.97188761 0 7597.52356418 0 225.82963079 0 937.53107290 0 8155
0.08850000 0.08849210 21123.22322820 0 833.88613831 0 7634.66240407 0 -593.01093846 0 -587.92508136 0 8718
0.08950000 0.08949900 20761.83079027 0 302.89080127 0 8301.44792891 0 614.40009819 0 -23.31047132 0 8571
0.09050000 0.09049190 20317.06544645 0 -408.66784140 0 7264.26261663 0 1068.15631467 0 572.90038298 0 8932
0.09150000 0.09150830 20305.31195379 0 302.48876592 0 6673.18276603 0 160.34839671 0 -1257.78848343 0 9285
0.09250000 0.09250820 19391.94474365 0 620.28892755 0 6800.64774626 0 -475.96592378 0 -289.39076157 0 9204
0.09350000 0.09350330 18982.11034064 0 352.83325897 0 6879.54993111 0 -197.65310366 0 -169.90936869 0 9349
0.09450000 0.09448040 18894.56329717 0 116.28048843 0 7405.15074456 0 69.85001828 0 -354.73468848 0 9564
0.09550000 0.09549270 18388.61388407 0 490.58529143 0 7340.40767376 0 536.07130803 0 -854.50857488 0 10155
0.09650000 0.09649430 18308.31665850 0 163.17802261 0 6539.48953314 0 -170.52780012 0 -682.62857387 0 9913
0.09750000 0.09749140 18061.38346687 0 32.87298114 0 6714.03439146 0 565.91968710 0 -946.12759941 0 10476
0.09850000 0.09850240 18016.12702784 0 -248.46444105 0 6189.32332839 0 654.62011070 0 -1068.18816993 0 10575
0.09950000 0.09950330 18265.25713398 0 -197.34883100 0 5708.67138595 0 -52.39663090 0 -1462.74962322 0 10882
0.10050000 0.10051200 17448.99354546 0 697.52365429 0 5729.83865732 0 -598.20005055 0 -1104.87224852 0 10875
0.10150000 0.10150300 17248.52509585 0 578.55853632 0 6245.75107774 0 5.54328766 0 -1685.79136949 0 11118
0.10250000 0.10250800 16982.14921076 0 407.42988007 0 6706.34519065 0 -565.98010225 0 -1234.25952896 0 11575
0.10350000 0.10349800 16480.26408952 0 435.62837635 0 7146.32126083 0 502.69248733 0 -1622.08084851 0 11364
0.10450000 0.10450100 16534.96726097 0 -86.74055615 0 6994.33871459 0 -214.55396703 0 -1287.42486025 0 12093
0.10550000 0.10551000 15787.46709681 0 147.96438959 0 7274.35743883 0 129.28402545 0 -333.51578963 0 12067
0.10650000 0.10649700 15552.72678075 0 104.06103020 0 6895.36771563 0 725.25750314 0 -322.72784090 0 12054
0.10750000 0.10749900 15755.06260769 0 -15.27393833 0 6340.36120139 0 1065.73861024 0 88.76501288 0 12807
0.10850000 0.10850100 15903.79372045 0 74.16047441 0 6311.49374464 0 1439.23165333 0 789.52713886 0 12736
0.10950000 0.10950300 16078.66811594 0 -213.46210052 0 5255.36004466 0 397.25157512 0 1762.69436213 0 12933
0.11050000 0.11050200 15770.55085503 0 -65.13423142 0 5275.05538330 0 313.82594328 0 1457.83951928 0 13428
0.11150000 0.11150900 15503.40604986 0 205.10723461 0 4696.69566775 0 -685.07923201 0 246.66406960 0 13453
0.11250000 0.11250000 15056.77332870 0 695.42010864 0 5146.97526700 0 -75.80772091 0 1527.74533919 0 13668
0.11350000 0.11349100 14997.01725386 0 76.03400311 0 5449.76501021 0 242.61625460 0 23.01751277 0 13791
0.11450000 0.11448600 15134.54410257 0 294.53044308 0 5285.21611294 0 -405.22307944 0 222.91322676 0 14205
0.11550000 0.11549300 14371.44584535 0 234.14714914 0 5563.78487360 0 80.73803647 0 -12.09203719 0 14776
0.11650000 0.11649800 14187.56410034 0 -232.66752722 0 5571.41915155 0 35.30946918 0 811.41939201 0 14553
0.11750000 0.11747300 13968.20218589 0 -35.36867603 0 4696.50893002 0 891.39367115 0 -269.08577915 0 14568
0.11850000 0.11849100 14203.05234768 0 502.46620513 0 5303.26376569 0 12.30557728 0 165.14426110 0 16015
0.11950000 0.11950300 13604.61283345 0 435.24721168 0 5405.74982788 0 -658.76678685 0 1117.52647614 0 15270
0.12050000 0.12050700 13341.75201157 0 131.72040365 0 5812.17901339 0 118.86076453 0 572.44891705 0 15999
0.12150000 0.12150000 13064.94078252 0 255.71316049 0 5602.68124511 0 197.89476425 0 919.51527541 0 15670
0.12250000 0.12250700 12999.80226712 0 -147.86662689 0 5562.36786374 0 561.32264348 0 1393.39303194 0 16887
0.12350000 0.12352200 13016.27912599 0 -14.45492860 0 4965.60898911 0 242.43940299 0 1170.76869944 0 16407
0.12450000 0.12449800 13285.40115423 0 151.00162390 0 4911.72966060 0 294.00757743 0 788.96692565 0 16306
0.12550000 0.12549900 12548.66587120 0 153.77083465 0 4311.11520100 0 153.17656928 0 1058.22406414 0 17523
0.12650000 0.12650100 12880.39996316 0 122.72623562 0 4588.94799530 0 -110.90903244 0 1120.30557300 0 17154
0.12750000 0.12750600 12424.10081813 0 -125.02420821 0 4217.14218257 0 684.65852288 0 1181.91804061 0 18007
0.12850000 0.12850300 12842.72287920 0 -139.32831862 0 3556.11257377 0 509.58310971 0 455.14906028 0 17496
0.12950000 0.12949900 12436.62323087 0 265.94199448 0 3691.70613771 0 22.19268121 0 977.41385903 0 18405
0.13050000 0.13049000 12233.84802102 0 229.67313273 0 3297.93117981 0 -1.28171288 0 1698.03916791 0 18100
0.13150000 0.13148800 12126.08936400 0 -34.77386142 0 3962.33305240 0 58.50031851 0 925.81273087 0 19059
0.13250000 0.13249300 12163.43691077 0 273.73994256 0 3585.13381453 0 53.69819291 0 1282.43786430 0 18957
0.13350000 0.13349100 12286.02474078 0 -42.23359451 0 3577.54347487 0 556.97824502 0 1371.41290221 0 19468
0.13450000 0.13450700 11958.90416931 0 -27.80689626 0 3788.49120672 0 -290.20801377 0 1282.82232434 0 19953
0.13550000 0.13551000 12063.91668319 0 342.79116272 0 4045.80481944 0 -241.15530645 0 1297.47574416 0 19956
0.13650000 0.13649900 11643.20755332 0 166.63157223 0 4192.56969370 0 -385.23335426 0 1503.12891203 0 19723
0.13750000 0.13749600 11633.87066663 0 -31.17937973 0 4405.43972576 0 37.94961120 0 1247.61676922 0 20946
0.13850000 0.13851100 11684.50954623 0 24.71034525 0 4345.57380519 0 335.85550359 0 921.42439413 0 20955
0.13950000 0.13949800 11472.83683258 0 196.44040684 0 4138.41575088 0 1.03484780 0 701.14197250 0 20506
0.14050000 0.14048300 11548.52053767 0 192.74299971 0 4087.55717982 0 94.97744775 0 717.66606503 0 21447
0.14150000 0.14148400 11362.66156959 0 -59.10864413 0 3897.67785818 0 53.67380716 0 508.62086115 0 21771
0.14250000 0.14249400 11287.19755596 0 25.11227076 0 3739.47804387 0 347.13006889 0 117.70518750 0 22470
0.14350000 0.14350900 11053.00646852 0 41.94305256 0 3359.73038516 0 364.57466860 0 279.64305186 0 22519
0.14450000 0.14449900 11004.23496626 0 157.76262833 0 3213.05338748 0 -245.11524487 0 -494.11243768 0 22218
0.14550000 0.14550500 10835.95131432 0 223.03625398 0 3234.68201089 0 229.23045446 0 134.02606544 0 23559
0.14650000 0.14650700 10613.62356527 0 -34.90249077 0 2903.39828641 0 382.04013901 0 389.10980992 0 23044
0.14750000 0.14750500 10676.65304274 0 -41.17358325 0 2707.71911045 0 433.93235834 0 345.11769519 0 23649
0.14850000 0.14849900 10755.82984191 0 124.53759164 0 2562.08564716 0 -52.30699679 0 -199.94009167 0 23640
0.14950000 0.14949500 10382.89261820 0 296.74273600 0 2655.26777637 0 -371.19287358 0 -37.27911289 0 24457
0.15050000 0.15050000 10076.11547515 0 221.46216473 0 3055.77627726 0 -554.11017312 0 -2.78654440 0 24591
0.15150000 0.15149900 9811.23349192 0 233.67920635 0 3311.05774405 0 -33.46977296 0 215.75897464 0 25020
0.15250000 0.15250500 9612.43469734 0 47.13073665 0 3337.67336341 0 358.12782296 0 -116.70888676 0 25297
0.15350000 0.15350100 9495.63573709 0 251.43027564 0 3151.08941355 0 328.30910223 0 247.36708225 0 25452
0.15450000 0.15450400 9542.89136833 0 52.05742730 0 3128.34036373 0 45.23666680 0 598.33735771 0 26061
0.15550000 0.15549900 9311.68808464 0 10.75790593 0 2891.65577832 0 328.97916115 0 382.26092892 0 26128
0.15650000 0.15649500 9336.26057350 0 -98.21031731 0 2720.90059754 0 178.61793783 0 738.43789178 0 26331
0.15750000 0.15749700 9217.12189929 0 136.38665008 0 2546.74019927 0 183.65985665 0 900.14288321 0 27345
0.15850000 0.15849900 9171.84349111 0 196.31737963 0 2679.86223438 0 -516.36718173 0 66.18051196 0 26980
0.15950000 0.15949700 8988.51097472 0 120.12618729 0 2565.24920407 0 268.82544478 0 504.53899398 0 27777
0.16050000 0.16050000 8845.73350031 0 36.01588704 0 2950.13764274 0 152.35931708 0 472.11473263 0 28224
0.16150000 0.16150500 8825.25825702 0 48.40373877 0 2595.46776324 0 126.05456111 0 644.97455752 0 28075
0.16250000 0.16249700 8932.44571627 0 -47.02682260 0 2649.46792205 0 245.58428612 0 451.16495580 0 28590
0.16350000 0.16349900 8781.06732153 0 14.10869487 0 2339.77986726 0 -85.27675201 0 260.58591689 0 29163
0.16450000 0.16449100 8566.19809726 0 188.94123914 0 2525.67178906 0 83.18550908 0 699.01316233 0 28996
0.16550000 0.16550500 8512.86799738 0 181.03783917 0 2405.73124104 0 -43.22495218 0 623.68425894 0 30777
0.16650000 0.16650700 8508.80370552 0 103.02452593 0 2472.89091780 0 44.05483664 0 607.39084243 0 29211
0.16750000 0.16749900 8301.76648151 0 75.91405157 0 2400.83212167 0 -21.90334757 0 231.74702003 0 30922
0.16850000 0.16850800 8355.08559682 0 50.25551802 0 2410.49854554 0 0.05520659 0 468.98962173 0 30867
0.16950000 0.16949900 8094.90501066 0 49.89203851 0 2455.94172231 0 -127.48694938 0 70.57818560 0 30852
0.17050000 0.17049200 8008.01704154 0 198.65709359 0 2435.80700077 0 -32.86419348 0 106.67316156 0 31257
0.17150000 0.17149500 7843.28140654 0 54.42086794 0 2468.83761052 0 13.82584213 0 92.96990727 0 32608
0.17250000 0.17250900 7815.94080538 0 -28.15862228 0 2454.21714441 0 55.73912650 0 -179.60435245 0 32361
0.17350000 0.17350400 7886.12123961 0 171.73939848 0 2455.98566060 0 181.20480467 0 -157.29688245 0 32508
0.17450000 0.17449800 7730.85430617 0 79.68582426 0 2444.25413708 0 -249.27180713 0 -285.26056228 0 32791
0.17550000 0.17549800 7854.17810254 0 -56.89525276 0 2610.41776652 0 219.92981685 0 188.15144837 0 33633
0.17650000 0.17650100 7850.90469991 0 -118.88822596 0 2222.92598414 0 0.84741913 0 -659.11389934 0 33984
0.17750000 0.17750300 7891.87715564 0 126.62795580 0 2322.57802660 0 33.18098855 0 -107.42121095 0 34069
0.17850000 0.17849800 7752.34013014 0 1.34389655 0 2285.60395529 0 -178.76403265 0 -269.53175280 0 34536
