### header ###
fiducial parameters:
Omega_m = 0.31
Omega_nu = 0
Omega_de = 0.69
Omega_k = 0
H_0 = 100
w_de = -1
zeff = 0
beta = 0
fgrowth = 0
b_1 = 2
gamma = 0.55
Lx = 3500 Ly = 3500 Lz = 3500
nx = 700 ny = 700 nz = 700
xoffset = -983.599254 yoffset = -42.9823471 zoffset = 800.977702
bins = 400 dk = 0.001
kx_ny = 0.628318531 ky_ny = 0.628318531 kz_ny = 0.628318531
############################
A(data) = 9.16175228 (not used)
A(ran) = 9.16510591 (used)
Ngal = 508730
weighted Ngal = 0
Nran = 25229228
weighted Nran = 0
SN(data) = 6696.17846
SN(ran) = 136.049683
SN(data+ran) = 6832.22815
############################
13 columns: k_central k_mean P_0(k) sigma^{lin}_{P_0(k)} P^img_1(k) sigma^{lin}_{P_1(k)} P_2(k) sigma^{lin}_{P_2(k)} P^img_3(k) sigma^{lin}_{P_3(k)} P_4(k) sigma^{lin}_{P_4(k)} N_modes
### header ###
0.00050000 0 0 0 0 0 0 0 0 0 0 0 0
0.00150000 0.00179520 160778.99195860 0 -73648.92286049 0 -41325.71958263 0 88345.40220852 0 -176031.07098780 0 3
0.00250000 0.00253879 174476.75396754 0 14399.78604261 0 26962.18262954 0 -24983.64141618 0 167416.96916951 0 6
0.00350000 0.00331552 119128.78810193 0 54259.61441425 0 39808.53041769 0 -94464.46821068 0 112643.49644990 0 7
0.00450000 0.00420575 66687.77952424 0 26604.08556338 0 34595.36211631 0 62582.95459632 0 80407.95006124 0 24
0.00550000 0.00557378 59575.48846927 0 -375.42962323 0 30821.61220599 0 29910.66160182 0 -56246.61374849 0 45
0.00650000 0.00659388 58353.45476960 0 5220.15448954 0 14887.39121949 0 42609.37673448 0 -3122.18900309 0 40
0.00750000 0.00754703 70901.46156644 0 2929.05824796 0 27292.81826423 0 -1675.10338036 0 -10689.83452984 0 57
0.00850000 0.00846663 56236.61778744 0 -2572.89446658 0 10626.16794716 0 -10569.56444465 0 34460.25187356 0 75
0.00950000 0.00948925 63090.55169530 0 -3969.78059261 0 27241.08092738 0 3033.64236351 0 -8464.06354140 0 112
0.01050000 0.01054430 67471.74846937 0 6215.89500947 0 7012.41932106 0 1695.93012998 0 13205.21377439 0 105
0.01150000 0.01145670 62604.04497567 0 -2446.47302074 0 11200.08989539 0 7774.83653478 0 20170.42140249 0 144
0.01250000 0.01249090 68395.66086919 0 -5984.80157150 0 6028.69592354 0 26172.06232376 0 5542.11231190 0 169
0.01350000 0.01339930 77686.52220421 0 -5566.04769556 0 14312.12915341 0 11474.37467275 0 25775.18971640 0 180
0.01450000 0.01448870 81647.44923132 0 -3630.10465467 0 -12442.44505434 0 127.25517490 0 7793.96067565 0 267
0.01550000 0.01550050 80630.49750174 0 2583.83510087 0 14068.71102501 0 -5394.82017816 0 41014.08725849 0 238
0.01650000 0.01653350 77134.21789482 0 6782.97356898 0 6682.90411276 0 -11449.65938444 0 5939.14968785 0 315
0.01750000 0.01747870 77181.01217402 0 168.20566148 0 5886.36881660 0 7008.51979779 0 14672.09359690 0 297
0.01850000 0.01844180 78170.61231787 0 -3803.26545685 0 14220.95720098 0 755.70454142 0 -1296.37728690 0 388
0.01950000 0.01947590 70139.68145793 0 4697.04717407 0 15986.94693489 0 -7689.43148296 0 13852.64448233 0 399
0.02050000 0.02045430 77109.50260651 0 6601.68418310 0 26155.58546489 0 -5410.30842550 0 -3394.06815905 0 462
0.02150000 0.02154770 66755.33464561 0 3884.82590826 0 24634.55169955 0 -7521.29063046 0 -5851.59165981 0 571
0.02250000 0.02255340 65313.38980286 0 1083.00745680 0 38860.12242102 0 -2077.69895004 0 1641.46861912 0 510
0.02350000 0.02348930 60369.23368400 0 1256.04193639 0 39961.76520520 0 1667.97439276 0 -2078.35802440 0 555
0.02450000 0.02439640 63817.40086301 0 -1839.14698729 0 36296.65271771 0 12516.26138209 0 1527.92109235 0 592
0.02550000 0.02547300 65741.34875063 0 301.84177459 0 29326.94141485 0 7225.35526055 0 -1450.53477851 0 837
0.02650000 0.02652900 65309.32551101 0 1180.47906160 0 34408.84407388 0 -945.78268383 0 9266.60739877 0 723
0.02750000 0.02749970 66066.27240759 0 1485.86116393 0 31601.29716781 0 3582.57440911 0 5891.98193319 0 826
0.02850000 0.02848090 62957.08913844 0 1904.32944099 0 32809.81984321 0 -956.72661349 0 1006.45267511 0 831
0.02950000 0.02946900 58609.06577356 0 2517.33449847 0 28199.26519365 0 2713.81554823 0 -4030.83284701 0 996
0.03050000 0.03053250 59534.62585927 0 -1242.56386583 0 25371.28698258 0 7401.73454249 0 4268.26438336 0 1041
0.03150000 0.03150510 58006.67181320 0 -1889.88472805 0 23198.53852599 0 3425.53895949 0 -1198.87822067 0 1036
0.03250000 0.03246190 58161.44444087 0 2601.04792611 0 17156.25468617 0 3506.27556796 0 -3415.91647391 0 1059
0.03350000 0.03345080 56390.29195786 0 2051.32499128 0 12519.11737096 0 -262.50162635 0 -4721.58670922 0 1302
0.03450000 0.03451200 50769.92555089 0 1113.20953911 0 16069.88045788 0 3956.91765811 0 3991.78269149 0 1339
0.03550000 0.03553350 51070.13391954 0 907.63985399 0 12502.97004926 0 2380.63149269 0 2753.78840785 0 1365
0.03650000 0.03647120 49648.51053606 0 924.22655859 0 11992.62680713 0 1943.76405656 0 2826.80286180 0 1308
0.03750000 0.03744890 48821.59191213 0 1340.19474693 0 10143.95619541 0 1643.10532044 0 -532.92752336 0 1579
0.03850000 0.03847530 45750.30541839 0 1916.04997994 0 14989.43789878 0 -4170.15018106 0 4373.61741899 0 1662
0.03950000 0.03950240 44063.84398998 0 2337.24243100 0 17600.80033854 0 -5590.32360096 0 -1315.54536606 0 1683
0.04050000 0.04050350 43015.58622854 0 347.00594322 0 18839.42074281 0 -1845.18850221 0 -3741.67495838 0 1822
0.04150000 0.04152450 44640.97343340 0 437.94282579 0 20896.50165012 0 -794.14285626 0 -7679.58930593 0 1887
0.04250000 0.04250150 41013.97741277 0 1142.82394679 0 22461.14416860 0 -3189.44754100 0 -9579.98626994 0 1920
0.04350000 0.04349210 42071.24252372 0 1597.47540593 0 22759.04577701 0 1564.42282703 0 -8023.09885970 0 2005
0.04450000 0.04448520 40596.34396323 0 -1661.51546408 0 22097.33512471 0 4230.51040740 0 -3714.02678920 0 2151
0.04550000 0.04548030 41919.87511355 0 -1324.86028361 0 18213.62964285 0 6923.59806717 0 -5730.37690137 0 2274
0.04650000 0.04648670 43448.26854252 0 1135.49723688 0 15936.85728392 0 824.63383283 0 -5125.36861274 0 2311
0.04750000 0.04749250 40432.34429459 0 2108.77430588 0 14476.12882205 0 -2360.01344996 0 -3561.48402976 0 2568
0.04850000 0.04851840 39048.28814934 0 7.09189270 0 19149.51522678 0 -373.09869693 0 -1081.34329405 0 2493
0.04950000 0.04949480 37262.63603051 0 1164.51847764 0 16956.11577374 0 633.72965056 0 -423.23008927 0 2644
0.05050000 0.05050630 38182.81367565 0 -199.85880583 0 13690.51219103 0 3503.39760995 0 -2413.93671676 0 2829
0.05150000 0.05149060 36592.57710305 0 -37.19233477 0 16923.93097608 0 2293.88632302 0 -3575.79692783 0 2784
0.05250000 0.05249300 37264.28371640 0 1124.17214255 0 13196.86549923 0 -908.28684532 0 -2620.63341902 0 3055
0.05350000 0.05348950 35929.98768494 0 1043.25978091 0 14539.83934302 0 -1322.69632281 0 -343.45353244 0 3009
0.05450000 0.05448610 35332.64662797 0 -215.15152778 0 15345.44789614 0 -13.96633481 0 -3682.96241794 0 3336
0.05550000 0.05550870 34734.31695947 0 393.90347740 0 13252.11789931 0 2135.51075554 0 -4028.42722562 0 3349
0.05650000 0.05647670 34915.89194424 0 118.01055861 0 13163.91178148 0 1754.64267043 0 -2262.69013689 0 3324
0.05750000 0.05747970 35339.78660015 0 -358.84841092 0 11935.28733826 0 1147.18482211 0 -2357.26730681 0 3639
0.05850000 0.05849280 35651.19923283 0 472.84081288 0 10766.34207787 0 692.83543871 0 -4100.99131209 0 3846
0.05950000 0.05951020 33961.55227837 0 1383.78153093 0 10735.51936721 0 -2186.27046544 0 -4016.04761232 0 3787
0.06050000 0.06049470 32331.33186157 0 1007.97513687 0 11825.00222954 0 1186.88306741 0 -1359.25298036 0 3930
0.06150000 0.06148310 32296.73045794 0 247.35060539 0 13599.12054715 0 -4.38801819 0 -5149.68845643 0 4083
0.06250000 0.06249100 31374.68543546 0 116.11242447 0 10155.36916632 0 929.86933353 0 -2817.75157399 0 4303
0.06350000 0.06350600 31698.84017234 0 -495.15157825 0 10034.83545139 0 2043.44905273 0 -2183.56826058 0 4470
0.06450000 0.06451750 31288.34669497 0 -187.03321889 0 8499.78537144 0 2816.54327101 0 -1241.45442400 0 4479
0.06550000 0.06550280 29379.44767179 0 1329.40789666 0 9023.89228301 0 -1441.76908959 0 171.54497155 0 4636
0.06650000 0.06648880 29525.10310422 0 1822.82391244 0 9208.35621037 0 -1317.22600566 0 270.73676041 0 4653
0.06750000 0.06749660 27673.87308708 0 510.71122531 0 9797.35997675 0 830.29967536 0 437.23761623 0 5220
0.06850000 0.06852730 27387.61512561 0 264.20093973 0 10658.31979110 0 140.74752540 0 -481.82729171 0 5029
0.06950000 0.06949320 26718.87434686 0 390.77946495 0 10980.35450547 0 -1072.04814873 0 -787.35109503 0 5040
0.07050000 0.07048030 26155.14608198 0 1088.39538965 0 12506.70480394 0 -1333.64794167 0 -1423.95211286 0 5475
0.07150000 0.07148790 25626.89798655 0 421.15510351 0 13043.30117454 0 -547.59082930 0 -605.02256858 0 5509
0.07250000 0.07249820 26053.86832278 0 -618.02940097 0 12462.32713071 0 3338.35440691 0 -422.16678265 0 5916
0.07350000 0.07351270 26581.01796096 0 -601.21531572 0 11955.16941463 0 626.97084305 0 -117.01755325 0 5721
0.07450000 0.07449140 25113.25937264 0 698.28268825 0 10664.39425974 0 357.17106668 0 2070.59193158 0 6028
0.07550000 0.07549160 25373.48389710 0 304.80211690 0 11384.08148613 0 1062.59372711 0 1459.19062171 0 6183
0.07650000 0.07648840 25409.73298661 0 735.73788384 0 11797.10141519 0 -213.87731736 0 2308.23217481 0 6330
0.07750000 0.07749960 24250.86057928 0 936.49412925 0 12006.35752286 0 -241.15201108 0 2190.99383165 0 6583
0.07850000 0.07848650 23873.76020257 0 -348.63605379 0 10534.49070440 0 856.41000439 0 2544.24670129 0 6549
0.07950000 0.07947320 24541.62221551 0 -607.60504159 0 11168.34448063 0 1748.37047948 0 1525.99879215 0 6828
0.08050000 0.08048110 24464.84005317 0 128.98194971 0 9312.88540305 0 651.65866993 0 1745.00920027 0 7147
0.08150000 0.08149960 23191.50839954 0 413.82729514 0 9505.82942044 0 -1288.84187011 0 1015.91149056 0 7386
0.08250000 0.08250610 22943.14721347 0 1044.21214336 0 9826.29334093 0 328.21573336 0 652.35509183 0 7227
0.08350000 0.08350160 22569.01267135 0 130.02877947 0 9825.26079111 0 -413.33958012 0 82.96373056 0 7798
0.08450000 0.08449610 22485.20038256 0 -39.39781725 0 9632.02019026 0 1473.66828837 0 -137.69051885 0 7371
0.08550000 0.08548940 22396.11549892 0 -6.78667537 0 8502.78415975 0 1505.44665685 0 1091.33595973 0 8256
0.08650000 0.08650700 22514.85872853 0 39.86927510 0 7266.70119174 0 1535.45650914 0 895.63371616 0 8037
0.08750000 0.08749060 22276.71319496 0 214.31230643 0 7632.37761298 0 -138.36167623 0 1294.34514098 0 8155
0.08850000 0.08849210 21474.29016790 0 604.95116886 0 7672.42736461 0 -915.30488874 0 1520.27582983 0 8718
0.08950000 0.08949900 20979.43517311 0 730.89149042 0 9158.93661832 0 -1380.94751121 0 1071.26494871 0 8571
0.09050000 0.09049190 20010.37617998 0 349.26546980 0 9218.39610971 0 -213.59940767 0 1159.33375938 0 8932
0.09150000 0.09150830 19874.82655433 0 183.50717109 0 10352.38846014 0 359.89743760 0 751.38321057 0 9285
0.09250000 0.09250820 19482.34777600 0 590.13847273 0 9325.90212156 0 62.76881356 0 454.03192925 0 9204
0.09350000 0.09350330 19651.07081085 0 291.57229768 0 10156.90700648 0 329.44161166 0 435.35925432 0 9349
0.09450000 0.09448040 19320.98440478 0 16.78222999 0 9915.45511657 0 723.54720519 0 1588.89645475 0 9564
0.09550000 0.09549270 18444.96474141 0 28.86954381 0 9468.15233649 0 -26.56728725 0 1113.91255176 0 10155
0.09650000 0.09649430 18577.32884102 0 -0.71964219 0 8667.97016223 0 977.10079871 0 861.88141999 0 9913
0.09750000 0.09749140 18217.14470608 0 511.80748565 0 8808.47383012 0 636.81741392 0 789.99618011 0 10476
0.09850000 0.09850240 18147.83205309 0 408.60083551 0 8573.55776089 0 0.30773500 0 1232.78759623 0 10575
0.09950000 0.09950330 17236.99129464 0 -55.10300990 0 8223.97373849 0 27.02160917 0 -116.23874706 0 10882
0.10050000 0.10051200 16991.59594318 0 635.77497798 0 8209.89151644 0 180.61053930 0 268.29269301 0 10875
0.10150000 0.10150300 16376.89926152 0 469.73437575 0 7496.94881762 0 -528.70615211 0 -698.89892277 0 11118
0.10250000 0.10250800 16160.72287312 0 46.18869971 0 7708.00639520 0 597.34435235 0 -1575.23164645 0 11575
0.10350000 0.10349800 15974.64421360 0 114.26481936 0 6992.09786178 0 191.56874890 0 -1572.15596613 0 11364
0.10450000 0.10450100 15714.30984342 0 103.17204874 0 6702.06120735 0 696.30546519 0 -1310.12997178 0 12093
0.10550000 0.10551000 15389.60587791 0 -121.15544174 0 5855.83170482 0 1195.03362027 0 -976.23301748 0 12067
0.10650000 0.10649700 15493.95931744 0 47.45203540 0 5166.27516103 0 393.37072562 0 -1710.66044181 0 12054
0.10750000 0.10749900 15339.62607267 0 315.11223673 0 5065.95305964 0 128.66669247 0 -635.44983463 0 12807
0.10850000 0.10850100 14775.01904199 0 336.91551484 0 4617.76052918 0 239.23080933 0 -743.99608551 0 12736
0.10950000 0.10950300 14706.58515481 0 287.99242548 0 5124.33606291 0 -79.40868349 0 641.89008953 0 12933
0.11050000 0.11050200 14370.78677099 0 50.57769553 0 4748.67466521 0 682.86913601 0 48.71141665 0 13428
0.11150000 0.11150900 14231.39254494 0 25.13973219 0 4875.11808019 0 252.86376237 0 982.11635455 0 13453
0.11250000 0.11250000 14482.60971987 0 -274.44625057 0 4471.09451607 0 603.21340948 0 1172.40540075 0 13668
0.11350000 0.11349100 14607.17477294 0 61.13430916 0 4382.75658338 0 277.88112642 0 1193.27608866 0 13791
0.11450000 0.11448600 14457.67474011 0 69.92888751 0 4421.45523258 0 43.04974825 0 1568.61893376 0 14205
0.11550000 0.11549300 14304.65964405 0 231.21536672 0 4507.33262102 0 -335.63031985 0 1079.92848110 0 14776
0.11650000 0.11649800 14375.61998293 0 257.89799198 0 4962.12687961 0 -437.40348327 0 419.77763811 0 14553
0.11750000 0.11747300 13690.62203676 0 219.59588585 0 4715.73193203 0 114.02755260 0 749.59931598 0 14568
0.11850000 0.11849100 13942.60813177 0 -13.77981677 0 4984.74411455 0 -92.36213086 0 -53.67226932 0 16015
0.11950000 0.11950300 13425.56430037 0 141.21546819 0 4820.92019907 0 -256.77646712 0 -368.01613519 0 15270
0.12050000 0.12050700 13293.41989222 0 235.06326250 0 4997.84870964 0 44.13678155 0 -408.23065541 0 15999
0.12150000 0.12150000 13517.17563570 0 132.64750158 0 4888.65107361 0 351.57113158 0 -815.55288667 0 15670
0.12250000 0.12250700 13184.45293221 0 -73.98373263 0 4389.03975889 0 255.22983930 0 -683.51283196 0 16887
0.12350000 0.12352200 13292.21158923 0 -48.55917047 0 4039.74133538 0 223.81615863 0 -387.91468842 0 16407
0.12450000 0.12449800 13032.20675623 0 23.39999559 0 3962.55274385 0 271.94286648 0 -363.56848175 0 16306
0.12550000 0.12549900 13352.95627561 0 -24.97672114 0 3872.22660351 0 694.20082108 0 290.78470383 0 17523
0.12650000 0.12650100 13355.37288157 0 94.98041358 0 3784.03147026 0 -45.86674189 0 -71.30734152 0 17154
0.12750000 0.12750600 13269.25383254 0 231.83050279 0 3868.33806482 0 -206.64287786 0 -132.64310775 0 18007
0.12850000 0.12850300 13008.48007946 0 160.89432997 0 4229.37899642 0 -396.16520089 0 787.83002239 0 17496
0.12950000 0.12949900 12721.78273508 0 11.33860536 0 4240.62719875 0 159.81674340 0 485.23250921 0 18405
0.13050000 0.13049000 12685.64349129 0 348.19557243 0 4426.82668857 0 141.63068503 0 457.06257282 0 18100
0.13150000 0.13148800 12587.88079532 0 70.33158194 0 4404.09960790 0 259.27765430 0 229.52484100 0 19059
0.13250000 0.13249300 12246.37043376 0 251.34239906 0 4504.39974014 0 -180.64788684 0 505.08712415 0 18957
0.13350000 0.13349100 12070.94680964 0 134.85540067 0 4300.84462564 0 31.33645912 0 756.09449375 0 19468
0.13450000 0.13450700 11978.23701705 0 -1.36739255 0 4319.59529103 0 637.92795420 0 887.05806035 0 19953
0.13550000 0.13551000 12000.20616221 0 -42.47602402 0 3669.84683827 0 673.07199572 0 357.38856122 0 19956
0.13650000 0.13649900 11844.66461446 0 77.17914480 0 3810.64708962 0 -220.53177143 0 989.05311214 0 19723
0.13750000 0.13749600 11554.89158977 0 300.23143625 0 3576.98326167 0 172.54456765 0 1317.10517537 0 20946
0.13850000 0.13851100 11338.82504709 0 160.46593164 0 3925.09535135 0 -420.27853462 0 632.11711531 0 20955
0.13950000 0.13949800 11428.45915936 0 92.72022793 0 3357.36870205 0 461.23121812 0 525.11090151 0 20506
0.14050000 0.14048300 11314.21960451 0 -211.93963876 0 3530.36473564 0 458.52352098 0 849.94558343 0 21447
0.14150000 0.14148400 10975.14781807 0 172.76425910 0 3295.48162013 0 274.39462308 0 803.52148433 0 21771
0.14250000 0.14249400 11199.32097531 0 313.84022322 0 3038.32179143 0 -334.88336892 0 683.77096942 0 22470
0.14350000 0.14350900 10694.08555943 0 88.83948828 0 3377.39357787 0 94.78159282 0 904.04680030 0 22519
0.14450000 0.14449900 10872.82652447 0 152.92392411 0 3363.34430954 0 81.17049909 0 646.11036232 0 22218
0.14550000 0.14550500 10704.57582624 0 94.59452555 0 3265.09829237 0 -467.08929068 0 33.29226227 0 23559
0.14650000 0.14650700 10454.00674109 0 -77.64576944 0 3231.35368540 0 359.42400252 0 368.22484207 0 23044
0.14750000 0.14750500 10317.62228792 0 31.85844601 0 3188.40400661 0 172.73789613 0 -87.48421172 0 23649
0.14850000 0.14849900 10237.20423205 0 330.20613791 0 3253.50956830 0 -251.29296849 0 513.15968654 0 23640
0.14950000 0.14949500 10191.96976216 0 65.53505848 0 3172.44342265 0 88.05156489 0 266.35501441 0 24457
0.15050000 0.15050000 10199.65896297 0 26.20633419 0 3257.20038468 0 438.98965556 0 310.20982198 0 24591
0.15150000 0.15149900 10024.78456748 0 111.87457637 0 2961.04532332 0 58.21021594 0 110.35321307 0 25020
0.15250000 0.15250500 9857.07211330 0 201.14839465 0 3251.85089784 0 -307.32966705 0 675.33262076 0 25297
0.15350000 0.15350100 9648.07963537 0 226.75892563 0 3330.40157636 0 -149.70214897 0 409.11491351 0 25452
0.15450000 0.15450400 9522.10855701 0 20.19370870 0 3261.75898230 0 71.88458081 0 368.99046678 0 26061
0.15550000 0.15549900 9460.63888884 0 -38.55354300 0 3429.70211250 0 280.68219243 0 303.88270818 0 26128
0.15650000 0.15649500 9442.30563720 0 207.14267591 0 3252.43308018 0 76.58147420 0 368.92895317 0 26331
0.15750000 0.15749700 9131.06875769 0 87.09371016 0 3123.18859919 0 -150.51061351 0 344.07086542 0 27345
0.15850000 0.15849900 9105.52962643 0 164.53571578 0 3288.42952453 0 204.61732267 0 417.89378391 0 26980
0.15950000 0.15949700 8962.36769198 0 67.35608092 0 3128.31839459 0 408.33391040 0 685.62077144 0 27777
0.16050000 0.16050000 8962.52147600 0 -74.55536979 0 2664.49481734 0 427.53164790 0 658.75250690 0 28224
0.16150000 0.16150500 8915.04615330 0 190.56146360 0 2620.45766586 0 -79.89584929 0 814.49067850 0 28075
0.16250000 0.16249700 8558.69563419 0 203.18603287 0 2807.11850773 0 -206.62530254 0 976.24510051 0 28590
0.16350000 0.16349900 8368.58563652 0 28.24990407 0 2695.33949715 0 133.68774060 0 1136.93621589 0 29163
0.16450000 0.16449100 8495.07298980 0 -80.13157822 0 2681.03758365 0 526.55756972 0 807.89554113 0 28996
0.16550000 0.16550500 8498.85168277 0 116.59135184 0 2434.90626582 0 -245.55023394 0 477.91129158 0 30777
0.16650000 0.16650700 8383.33791750 0 133.37028645 0 2467.37666237 0 15.61599792 0 859.79984349 0 29211
0.16750000 0.16749900 8357.07380446 0 -6.10480803 0 2618.70013425 0 27.87313323 0 626.59626913 0 30922
0.16850000 0.16850800 8269.41691526 0 83.59556318 0 2455.46938569 0 -66.03397776 0 285.06064306 0 30867
0.16950000 0.16949900 8275.32661531 0 78.35537283 0 2513.85238896 0 -227.91999495 0 152.36590782 0 30852
0.17050000 0.17049200 8082.31669048 0 74.77022803 0 2562.65684494 0 43.79307428 0 470.23307535 0 31257
0.17150000 0.17149500 8076.67062017 0 62.73509093 0 2609.71475388 0 229.28427886 0 46.05611592 0 32608
0.17250000 0.17250900 8016.98045277 0 -52.24064997 0 2291.29396389 0 4.12550888 0 142.07226485 0 32361
0.17350000 0.17350400 8187.02163633 0 101.81138974 0 2330.16836625 0 457.32290719 0 187.77138216 0 32508
0.17450000 0.17449800 8119.62029897 0 41.30012553 0 2408.38950760 0 -296.54611215 0 33.16670861 0 32791
0.17550000 0.17549800 8094.13609058 0 123.73352093 0 2224.82631520 0 -70.78788109 0 180.17555022 0 33633
0.17650000 0.17650100 7852.08004918 0 -70.66276680 0 2440.69513557 0 135.70011430 0 -34.56284778 0 33984
0.17750000 0.17750300 7929.43340929 0 -71.81823399 0 2240.45736198 0 159.91121072 0 10.86462105 0 34069
0.17850000 0.17849800 7996.41733290 0 147.38440415 0 1966.86461270 0 107.83708687 0 60.99315741 0 34536
