### header ###
fiducial parameters:
Omega_m = 0.31
Omega_nu = 0
Omega_de = 0.69
Omega_k = 0
H_0 = 100
w_de = -1
zeff = 0
beta = 0
fgrowth = 0
b_1 = 2
gamma = 0.55
Lx = 3500 Ly = 3500 Lz = 3500
nx = 700 ny = 700 nz = 700
xoffset = -983.599254 yoffset = -42.9823471 zoffset = 800.977702
bins = 400 dk = 0.001
kx_ny = 0.628318531 ky_ny = 0.628318531 kz_ny = 0.628318531
############################
A(data) = 9.03851739 (not used)
A(ran) = 9.03981499 (used)
Ngal = 502220
weighted Ngal = 0
Nran = 25229228
weighted Nran = 0
SN(data) = 6726.66612
SN(ran) = 134.189826
SN(data+ran) = 6860.85595
############################
13 columns: k_central k_mean P_0(k) sigma^{lin}_{P_0(k)} P^img_1(k) sigma^{lin}_{P_1(k)} P_2(k) sigma^{lin}_{P_2(k)} P^img_3(k) sigma^{lin}_{P_3(k)} P_4(k) sigma^{lin}_{P_4(k)} N_modes
### header ###
0.00050000 0 0 0 0 0 0 0 0 0 0 0 0
0.00150000 0.00179520 132781.51336328 0 -27182.31346407 0 -23112.63916840 0 96596.24421154 0 -178042.34622744 0 3
0.00250000 0.00253879 181404.72389459 0 18228.45881584 0 51624.63514344 0 -109305.28484243 0 62834.39146270 0 6
0.00350000 0.00331552 133685.54368672 0 33564.89936246 0 27307.20805432 0 -148589.41176509 0 91534.00393743 0 7
0.00450000 0.00420575 78123.15896432 0 34781.88015874 0 46295.79929278 0 -6900.35471158 0 21830.84939389 0 24
0.00550000 0.00557378 70315.98384786 0 2775.13143238 0 46235.82352649 0 57095.06213468 0 -10338.97629702 0 45
0.00650000 0.00659388 74767.26219499 0 -598.90745702 0 40781.87339412 0 34298.88850234 0 18064.89853010 0 40
0.00750000 0.00754703 72709.41236760 0 -2949.14903121 0 7857.45150517 0 18181.11530801 0 -11101.77797079 0 57
0.00850000 0.00846663 69155.57360036 0 4803.13617606 0 35935.69966269 0 -27979.57374202 0 21474.83939653 0 75
0.00950000 0.00948925 61658.27327642 0 12637.20152621 0 30090.47905498 0 6160.82934712 0 -8843.70135438 0 112
0.01050000 0.01054430 57467.65883664 0 3415.63087502 0 45520.61800572 0 11509.96468791 0 24623.34743552 0 105
0.01150000 0.01145670 47149.52027380 0 -5372.15900492 0 26157.78237940 0 14972.96103990 0 5827.39264641 0 144
0.01250000 0.01249090 59370.62619063 0 -5241.45357578 0 21014.47595964 0 35561.01589194 0 22272.86859456 0 169
0.01350000 0.01339930 62432.90533485 0 -9638.99539385 0 -1079.40781236 0 6039.36194351 0 -9360.05315772 0 180
0.01450000 0.01448870 84233.21761697 0 170.91555554 0 9905.08568006 0 -11155.93191361 0 627.65737884 0 267
0.01550000 0.01550050 68842.18374462 0 3350.72303564 0 238.10928447 0 -8368.13526905 0 6939.85523459 0 238
0.01650000 0.01653350 78345.81625054 0 -2328.75135639 0 23230.61347793 0 -12835.58290703 0 -756.55035351 0 315
0.01750000 0.01747870 75845.50783958 0 4111.71225493 0 20138.89567918 0 -14064.31719597 0 -22658.75662934 0 297
0.01850000 0.01844180 76961.65025957 0 441.95219478 0 31304.38417094 0 2523.46388997 0 -10391.09809392 0 388
0.01950000 0.01947590 70440.65874665 0 -889.09460011 0 41087.13466616 0 11920.23847382 0 -4281.53374704 0 399
0.02050000 0.02045430 81008.47664426 0 1280.44965666 0 32261.57982568 0 -2369.54805896 0 -9902.71301238 0 462
0.02150000 0.02154770 75661.18671166 0 3095.15596996 0 36754.92908580 0 -2099.73400264 0 -7774.19942957 0 571
0.02250000 0.02255340 78369.10354442 0 2108.28000011 0 46088.08102527 0 9254.22778547 0 402.10785466 0 510
0.02350000 0.02348930 74085.12023769 0 -2320.72163383 0 33620.37145399 0 1865.90540610 0 -2191.20253853 0 555
0.02450000 0.02439640 72574.30212485 0 -4212.52866208 0 33797.11322683 0 16747.40889469 0 8488.60307655 0 592
0.02550000 0.02547300 73384.08481555 0 2063.75952744 0 28538.02941206 0 5071.77488311 0 6408.26782908 0 837
0.02650000 0.02652900 74626.33012877 0 8036.10459363 0 28797.81455360 0 -6159.87368930 0 -3058.64325070 0 723
0.02750000 0.02749970 68610.07972597 0 6432.96114825 0 36664.08667056 0 -10275.71614352 0 -3016.46249199 0 826
0.02850000 0.02848090 57805.54428924 0 4715.12778054 0 44930.85630382 0 -1438.22107265 0 8571.98696701 0 831
0.02950000 0.02946900 56212.56157349 0 -1307.54859722 0 43919.72639771 0 8387.47910136 0 -3256.45343375 0 996
0.03050000 0.03053250 57573.00088769 0 1250.71441868 0 39453.61887759 0 10273.60710559 0 602.63671941 0 1041
0.03150000 0.03150510 58192.42093555 0 -1901.22080695 0 35759.94650139 0 4451.65182261 0 10336.18621558 0 1036
0.03250000 0.03246190 57615.95056648 0 -541.78767960 0 32021.45706905 0 5123.39138967 0 4145.99510596 0 1059
0.03350000 0.03345080 59007.58606681 0 1013.60912414 0 26614.63075306 0 2740.94744250 0 9905.76672356 0 1302
0.03450000 0.03451200 59411.26910918 0 212.55587328 0 24637.73722560 0 4236.70570633 0 4892.89111863 0 1339
0.03550000 0.03553350 57425.58792365 0 1467.40708200 0 31004.50533947 0 -1274.78161721 0 11229.30885846 0 1365
0.03650000 0.03647120 53470.26302856 0 2643.10785452 0 28681.81746715 0 -1275.31986127 0 6889.30423157 0 1308
0.03750000 0.03744890 50986.21178501 0 2595.55563982 0 30741.75436332 0 -55.71935426 0 9540.48574694 0 1579
0.03850000 0.03847530 48030.48299483 0 2012.04415972 0 33532.49487334 0 4302.01997490 0 5932.78962033 0 1662
0.03950000 0.03950240 47170.50080743 0 1573.70479087 0 29912.30928771 0 1563.18157033 0 3474.89264410 0 1683
0.04050000 0.04050350 44298.25476886 0 1008.81325976 0 29297.17322315 0 2335.36406908 0 5947.30024071 0 1822
0.04150000 0.04152450 45328.71752272 0 -809.94636083 0 26415.91983507 0 4556.56547533 0 6183.13901403 0 1887
0.04250000 0.04250150 47225.75320752 0 -1901.22080695 0 23036.95546332 0 5039.34842485 0 5708.93501569 0 1920
0.04350000 0.04349210 45181.96363303 0 -555.48104778 0 15544.48835131 0 1517.44181010 0 1275.51758357 0 2005
0.04450000 0.04448520 43575.36004729 0 2309.14389433 0 17266.64964061 0 1231.77701555 0 5263.36779808 0 2151
0.04550000 0.04548030 43834.81565166 0 1422.45821099 0 17702.51748064 0 469.36419566 0 1534.19328329 0 2274
0.04650000 0.04648670 42619.26284981 0 853.55621243 0 16120.29964602 0 825.58729373 0 1792.40763096 0 2311
0.04750000 0.04749250 42496.78486552 0 -849.99391555 0 15631.92554906 0 -46.29755682 0 -3200.84952734 0 2568
0.04850000 0.04851840 41531.13108990 0 338.71698475 0 13546.17490731 0 -603.46605464 0 -786.88315224 0 2493
0.04950000 0.04949480 40406.53054902 0 752.07414018 0 14881.89893320 0 870.10337257 0 -1773.62401185 0 2644
0.05050000 0.05050630 40327.33178071 0 757.09848368 0 13308.24906520 0 741.63879623 0 -1877.95548222 0 2829
0.05150000 0.05149060 39244.69230709 0 1221.51742476 0 14081.78266638 0 -72.51718235 0 -6097.95365366 0 2784
0.05250000 0.05249300 38124.26590379 0 783.70421693 0 13724.89390321 0 2254.21004685 0 -1445.43793683 0 3055
0.05350000 0.05348950 37835.48149063 0 401.74975759 0 13962.70989960 0 1095.15749253 0 -1508.37953772 0 3009
0.05450000 0.05448610 35686.89909372 0 900.39223301 0 12300.30468514 0 -495.20759957 0 -3526.57505810 0 3336
0.05550000 0.05550870 34441.57810017 0 1115.25266961 0 13078.12226962 0 -325.69367549 0 -1137.14492277 0 3349
0.05650000 0.05647670 33410.45627196 0 814.59832732 0 12128.17643279 0 1956.58305276 0 -227.92768415 0 3324
0.05750000 0.05747970 33488.88612019 0 465.28782077 0 12593.92231024 0 2031.59669892 0 671.59127534 0 3639
0.05850000 0.05849280 32384.16765569 0 186.91788087 0 13333.07419923 0 -761.28470429 0 -371.43782955 0 3846
0.05950000 0.05951020 32034.30901897 0 5.64912402 0 11196.02560353 0 1725.21500048 0 2922.86294902 0 3787
0.06050000 0.06049470 31252.20745118 0 -56.35338379 0 12270.97587634 0 1179.29272776 0 3374.03229866 0 3930
0.06150000 0.06148310 31848.01066799 0 168.53410020 0 9610.66618116 0 1206.85302037 0 3216.88700331 0 4083
0.06250000 0.06249100 32007.94604478 0 508.21113659 0 11589.16345622 0 2590.65652045 0 3748.86985342 0 4303
0.06350000 0.06350600 32443.92373053 0 -61.57797605 0 9778.79604909 0 234.37343134 0 7029.32457826 0 4470
0.06450000 0.06451750 31314.92936062 0 399.63083354 0 12499.34514031 0 -1525.12002634 0 3644.35164531 0 4479
0.06550000 0.06550280 30226.79760071 0 1728.35658824 0 11073.21808207 0 -1480.17115534 0 5015.11645774 0 4636
0.06650000 0.06648880 29568.82170309 0 439.73550803 0 13773.33586829 0 -618.67419538 0 4629.49205270 0 4653
0.06750000 0.06749660 28023.18249517 0 673.64978424 0 13968.31203161 0 1222.83557347 0 3873.51179850 0 5220
0.06850000 0.06852730 28452.45959165 0 404.17734813 0 13951.39578984 0 1085.95132225 0 4063.48998130 0 5029
0.06950000 0.06949320 27864.01603846 0 -122.67241122 0 13609.33619966 0 425.41052693 0 4944.79322407 0 5040
0.07050000 0.07048030 27168.80243979 0 586.44765634 0 12884.57410074 0 1353.45312604 0 3150.58412321 0 5475
0.07150000 0.07148790 26906.93022945 0 26.12999141 0 11239.85404813 0 -295.73325378 0 4290.05777536 0 5509
0.07250000 0.07249820 26843.76893711 0 109.58901635 0 11691.10028978 0 1346.97222821 0 4376.38553128 0 5916
0.07350000 0.07351270 26630.44853758 0 6.47142912 0 11002.91681755 0 1013.91998755 0 4197.28207534 0 5721
0.07450000 0.07449140 26363.41357813 0 5.47453522 0 10075.22572477 0 825.67736722 0 3059.31330963 0 6028
0.07550000 0.07549160 26118.12807239 0 839.19278533 0 9691.45771249 0 -165.76598791 0 3063.67418494 0 6183
0.07650000 0.07648840 25905.35690148 0 347.23112695 0 11342.01057314 0 -914.83584749 0 3681.96282183 0 6330
0.07750000 0.07749960 25097.44158813 0 421.90315291 0 10701.80771395 0 547.65453982 0 2603.99179156 0 6583
0.07850000 0.07848650 24634.33200810 0 1.97050051 0 10192.61785195 0 1267.41096901 0 1521.22050307 0 6549
0.07950000 0.07947320 24224.27791364 0 -34.38138264 0 9306.29465950 0 298.30144685 0 2701.08442861 0 6828
0.08050000 0.08048110 24188.79774420 0 622.46277447 0 9703.22218973 0 1158.14742554 0 3473.34381937 0 7147
0.08150000 0.08149960 23899.57394813 0 137.41480608 0 9082.06657940 0 1250.50571181 0 2787.40119995 0 7386
0.08250000 0.08250610 24094.11072855 0 -68.13653480 0 8276.34818056 0 511.86899926 0 2938.43907294 0 7227
0.08350000 0.08350160 22900.63691758 0 94.70382205 0 7166.11546062 0 890.54676060 0 5046.60922733 0 7798
0.08450000 0.08449610 22914.25778759 0 -94.04958090 0 6524.18802354 0 1083.01185063 0 3572.60041721 0 7371
0.08550000 0.08548940 23155.14946429 0 529.51461666 0 6343.68952688 0 294.55570760 0 3788.66695989 0 8256
0.08650000 0.08650700 22360.63532949 0 906.13277064 0 6248.16768371 0 -1417.03183214 0 2010.20973610 0 8037
0.08750000 0.08749060 21645.75934589 0 540.54752136 0 7940.31912072 0 -1270.82717108 0 2109.53224138 0 8155
0.08850000 0.08849210 20402.52542114 0 230.80344525 0 7057.75265210 0 385.60682972 0 1085.01433821 0 8718
0.08950000 0.08949900 20531.15476606 0 -256.17890637 0 7128.51526867 0 1184.74107576 0 1617.03892970 0 8571
0.09050000 0.09049190 20989.21144270 0 12.42651742 0 6398.83208124 0 55.06555250 0 -619.83526471 0 8932
0.09150000 0.09150830 20396.59375194 0 794.40428908 0 6656.40932370 0 -758.08709521 0 -444.13043552 0 9285
0.09250000 0.09250820 19756.08332472 0 330.67188379 0 5971.82879128 0 -337.38565455 0 -753.96458512 0 9204
0.09350000 0.09350330 19348.22614478 0 344.66952463 0 6659.06759026 0 -20.65528044 0 -2283.07750360 0 9349
0.09450000 0.09448040 18745.72233869 0 597.21912822 0 7167.45557847 0 -522.54600381 0 -1569.77231388 0 9564
0.09550000 0.09549270 17925.83384122 0 -20.50863639 0 5946.38852118 0 1272.52977983 0 -928.17770935 0 10155
0.09650000 0.09649430 18468.25203529 0 -237.28434307 0 6131.96189037 0 1287.76538200 0 -1415.39513082 0 9913
0.09750000 0.09749140 18116.30632978 0 318.40211621 0 5094.63377865 0 386.15825527 0 -1800.00895519 0 10476
0.09850000 0.09850240 17367.92739981 0 600.50790925 0 4927.15200051 0 -121.67611048 0 105.27515501 0 10575
0.09950000 0.09950330 16559.57270355 0 698.34090649 0 5919.19071947 0 -303.57733706 0 573.70665061 0 10882
0.10050000 0.10051200 16339.11233184 0 474.43577282 0 6342.42630103 0 -10.25315383 0 572.91795830 0 10875
0.10150000 0.10150300 15950.91753682 0 181.29048434 0 6528.59283714 0 -64.32367981 0 211.36624407 0 11118
0.10250000 0.10250800 15407.73042267 0 15.97310637 0 6554.68119702 0 148.20934555 0 1056.71368541 0 11575
0.10350000 0.10349800 15583.48358397 0 -92.59566288 0 5846.86829360 0 690.61325968 0 706.56725289 0 11364
0.10450000 0.10450100 15680.03797696 0 -50.97742413 0 5728.12506399 0 817.99256024 0 1747.64549769 0 12093
0.10550000 0.10551000 16122.60640627 0 -58.87137737 0 5832.75311783 0 707.97547510 0 1512.52072159 0 12067
0.10650000 0.10649700 15837.55674778 0 123.35345472 0 5267.78359625 0 -382.68822879 0 1581.16331565 0 12054
0.10750000 0.10749900 15755.17245342 0 229.61161913 0 5889.33465120 0 -266.66038553 0 1393.09644848 0 12807
0.10850000 0.10850100 15283.71459823 0 447.08199018 0 6398.57943607 0 -730.70914651 0 1252.93330235 0 12736
0.10950000 0.10950300 15110.37804290 0 360.88714759 0 6371.79904811 0 -199.49082265 0 1208.66547484 0 12933
0.11050000 0.11050200 14770.07598433 0 -149.60109090 0 6777.73392786 0 129.55534440 0 822.04367061 0 13428
0.11150000 0.11150900 14903.64838691 0 -187.79335131 0 6517.86090973 0 541.72946137 0 -29.32518388 0 13453
0.11250000 0.11250000 14895.62964893 0 214.77695385 0 5877.29555965 0 36.83983983 0 110.89475249 0 13668
0.11350000 0.11349100 14859.49040514 0 30.94013574 0 6390.27509920 0 56.14676398 0 -85.20348491 0 13791
0.11450000 0.11448600 14682.08955795 0 234.94353066 0 5748.80901416 0 167.94093328 0 -253.09004456 0 14205
0.11550000 0.11549300 14648.69645730 0 -80.16002826 0 5564.49887082 0 -109.45050089 0 -714.51129578 0 14776
0.11650000 0.11649800 14347.82901430 0 333.79040394 0 5811.81652249 0 451.22866633 0 -237.84455627 0 14553
0.11750000 0.11747300 14167.90171542 0 -175.39835961 0 4554.93975859 0 679.67152693 0 -368.30832482 0 14568
0.11850000 0.11849100 14352.77207196 0 98.00787163 0 4678.47226184 0 416.25818106 0 -642.04497201 0 16015
0.11950000 0.11950300 14363.97633599 0 516.04423530 0 4355.39401308 0 122.91956410 0 -380.29578888 0 15270
0.12050000 0.12050700 13631.30534482 0 33.67749123 0 4491.65763595 0 83.84645082 0 313.35580357 0 15999
0.12150000 0.12150000 13633.39241361 0 42.38770806 0 4523.05154438 0 145.73012752 0 276.80353985 0 15670
0.12250000 0.12250700 13243.00070407 0 183.65875819 0 4124.26762139 0 18.69101917 0 643.18077681 0 16887
0.12350000 0.12352200 13210.81590640 0 25.47036783 0 4577.37025580 0 128.74578140 0 385.89242861 0 16407
0.12450000 0.12449800 13181.81663479 0 117.42727781 0 4225.52341145 0 372.75817518 0 673.87277106 0 16306
0.12550000 0.12549900 13272.76889576 0 72.13568814 0 4136.06505234 0 -180.98511322 0 358.81765411 0 17523
0.12650000 0.12650100 13157.65057511 0 43.27833720 0 4402.35306086 0 -173.87479939 0 -216.55206078 0 17154
0.12750000 0.12750600 12991.12445478 0 239.39667638 0 4324.37358011 0 -250.10553619 0 11.30367441 0 18007
0.12850000 0.12850300 12710.13908815 0 37.95752009 0 4633.95178917 0 -35.90197702 0 79.44888703 0 17496
0.12950000 0.12949900 12667.73863798 0 156.34561846 0 4505.55312026 0 500.62079694 0 -425.43249608 0 18405
0.13050000 0.13049000 12766.59979121 0 161.61052410 0 4537.63905677 0 -40.63808534 0 -618.38530112 0 18100
0.13150000 0.13148800 12291.51702707 0 96.67972696 0 4147.86248330 0 352.89257566 0 -218.34913686 0 19059
0.13250000 0.13249300 12250.32487989 0 16.50344154 0 4509.66135041 0 -66.02870517 0 -53.56429097 0 18957
0.13350000 0.13349100 12184.96667303 0 135.61773000 0 4172.28118814 0 40.49352836 0 -602.72020217 0 19468
0.13450000 0.13450700 11945.61283648 0 401.57839826 0 4344.21171819 0 -4.70157282 0 -494.69901386 0 19953
0.13550000 0.13551000 11563.89893928 0 163.16264421 0 4030.63512471 0 116.03113863 0 196.88418358 0 19956
0.13650000 0.13649900 11525.67262670 0 48.38649299 0 4296.65950348 0 161.77199732 0 -383.61972054 0 19723
0.13750000 0.13749600 11263.14134201 0 50.99884404 0 4185.92402729 0 106.46621221 0 -36.33663656 0 20946
0.13850000 0.13851100 11143.29965514 0 58.71286998 0 3769.59774188 0 260.53428940 0 226.14598648 0 20955
0.13950000 0.13949800 11220.41135466 0 107.01851652 0 3694.77083346 0 499.62669312 0 320.38593002 0 20506
0.14050000 0.14048300 11179.54874466 0 -52.39322569 0 3396.21015070 0 322.28296571 0 201.72947854 0 21447
0.14150000 0.14148400 10992.59131933 0 77.54141600 0 3207.70390063 0 42.09529874 0 385.79576437 0 21771
0.14250000 0.14249400 10906.09879482 0 95.27556905 0 3242.17348939 0 17.88606969 0 189.04339567 0 22470
0.14350000 0.14350900 10819.46347087 0 180.41062008 0 3127.04418417 0 -68.06535477 0 281.22702723 0 22519
0.14450000 0.14449900 10733.58608243 0 39.21009090 0 3145.08085235 0 94.00553277 0 337.06270812 0 22218
0.14550000 0.14550500 10788.13546987 0 6.64442516 0 3228.38785080 0 315.26162691 0 245.38326844 0 23559
0.14650000 0.14650700 10733.17965325 0 53.95644021 0 2960.67184785 0 -159.44985868 0 -113.78699046 0 23044
0.14750000 0.14750500 10443.01118394 0 95.20230195 0 3089.35611564 0 172.21063664 0 622.11895735 0 23649
0.14850000 0.14849900 10565.26947677 0 29.75402160 0 2890.84291995 0 210.08654136 0 16.64195700 0 23640
0.14950000 0.14949500 10509.10535716 0 84.35679406 0 2749.14193365 0 -58.20351535 0 208.74971888 0 24457
0.15050000 0.15050000 10396.83204081 0 193.19446565 0 2897.55449380 0 76.16032569 0 357.62912336 0 24591
0.15150000 0.15149900 9866.01355539 0 132.88257143 0 2891.19442627 0 -67.24173152 0 366.69688803 0 25020
0.15250000 0.15250500 9983.36174427 0 162.17073730 0 2888.82175859 0 301.32110585 0 129.33345603 0 25297
0.15350000 0.15350100 9955.54880650 0 -2.79841873 0 2507.31656827 0 635.94963268 0 562.23106763 0 25452
0.15450000 0.15450400 9822.96501544 0 10.08400240 0 2160.83019534 0 375.59549027 0 846.95887814 0 26061
0.15550000 0.15549900 9732.63887510 0 45.15922557 0 1868.91517899 0 32.92032464 0 941.57888790 0 26128
0.15650000 0.15649500 9642.21387361 0 144.15164444 0 2017.80007576 0 130.07930851 0 771.04559549 0 26331
0.15750000 0.15749700 9377.51862812 0 156.71250319 0 1958.32959980 0 -196.80399620 0 1060.32321596 0 27345
0.15850000 0.15849900 9203.92942762 0 145.22154181 0 2193.75095937 0 -292.56310613 0 616.80571959 0 26980
0.15950000 0.15949700 9252.66797616 0 156.90143784 0 2320.61178811 0 -356.80088659 0 295.18841898 0 27777
0.16050000 0.16050000 9060.00955766 0 90.85746411 0 2371.34952886 0 -114.31644685 0 75.94524776 0 28224
0.16150000 0.16150500 8942.60644591 0 10.27880281 0 2288.40502130 0 396.68367272 0 96.09754462 0 28075
0.16250000 0.16249700 8967.77210169 0 57.60903029 0 2488.28030399 0 14.04707142 0 2.58947019 0 28590
0.16350000 0.16349900 8775.98146442 0 52.84282424 0 2140.56365893 0 6.24162088 0 42.24600707 0 29163
0.16450000 0.16449100 8723.79376009 0 114.69431615 0 2074.91985318 0 249.65407026 0 -40.82526246 0 28996
0.16550000 0.16550500 8600.23928769 0 83.42013955 0 1830.23849893 0 -0.71096877 0 -5.69903792 0 30777
0.16650000 0.16650700 8491.86549460 0 156.08528409 0 1885.77649790 0 72.28419956 0 -227.91560112 0 29211
0.16750000 0.16749900 8314.69532344 0 93.35678391 0 1955.14407375 0 -114.57458431 0 -372.59230813 0 30922
0.16850000 0.16850800 8273.97551288 0 55.37114331 0 1909.18462207 0 81.05702846 0 -346.22054628 0 30867
0.16950000 0.16949900 8078.35125978 0 21.69046656 0 1802.04110111 0 -67.10222745 0 -506.85234496 0 30852
0.17050000 0.17049200 8130.79160928 0 145.45221784 0 1956.85766708 0 40.43959411 0 -117.12410361 0 31257
0.17150000 0.17149500 7991.16670720 0 -3.11235781 0 1737.39689147 0 73.01170781 0 -115.17544043 0 32608
0.17250000 0.17250900 8065.19174183 0 113.88365469 0 2130.49080587 0 96.75903558 0 -108.18540767 0 32361
0.17350000 0.17350400 8034.83038321 0 23.03794407 0 1886.12800422 0 131.20083337 0 125.69646405 0 32508
0.17450000 0.17449800 8112.88675598 0 20.87409312 0 2095.73561822 0 94.62385436 0 549.84156822 0 32791
0.17550000 0.17549800 7822.78419410 0 -39.40319969 0 2069.08704514 0 195.12006122 0 914.21302223 0 33633
0.17650000 0.17650100 7875.23552818 0 207.54690818 0 2134.97251148 0 39.11408574 0 1118.97643972 0 33984
0.17750000 0.17750300 7740.54269919 0 114.98211195 0 2306.07919858 0 -26.82136041 0 1235.51177023 0 34069
0.17850000 0.17849800 7704.68905428 0 140.20378906 0 2407.38991150 0 55.73187668 0 1103.09274776 0 34536
