### header ###
fiducial parameters:
Omega_m = 0.31
Omega_nu = 0
Omega_de = 0.69
Omega_k = 0
H_0 = 100
w_de = -1
zeff = 0
beta = 0
fgrowth = 0
b_1 = 2
gamma = 0.55
Lx = 3500 Ly = 3500 Lz = 3500
nx = 700 ny = 700 nz = 700
xoffset = -983.599254 yoffset = -42.9823471 zoffset = 800.977702
bins = 400 dk = 0.001
kx_ny = 0.628318531 ky_ny = 0.628318531 kz_ny = 0.628318531
############################
A(data) = 8.96140541 (not used)
A(ran) = 8.94949166 (used)
Ngal = 497242
weighted Ngal = 0
Nran = 25229228
weighted Nran = 0
SN(data) = 6785.36852
SN(ran) = 132.849038
SN(data+ran) = 6918.21756
############################
13 columns: k_central k_mean P_0(k) sigma^{lin}_{P_0(k)} P^img_1(k) sigma^{lin}_{P_1(k)} P_2(k) sigma^{lin}_{P_2(k)} P^img_3(k) sigma^{lin}_{P_3(k)} P_4(k) sigma^{lin}_{P_4(k)} N_modes
### header ###
0.00050000 0 0 0 0 0 0 0 0 0 0 0 0
0.00150000 0.00179520 53458.50953590 0 12232.20033513 0 -1136.59569414 0 35693.92922017 0 -33817.21499465 0 3
0.00250000 0.00253879 56471.35810351 0 25100.29757700 0 24290.51488630 0 25592.95565727 0 125164.81073537 0 6
0.00350000 0.00331552 40548.01184387 0 13957.21761331 0 20612.66029462 0 44141.94430103 0 -9947.91452855 0 7
0.00450000 0.00420575 39440.10785331 0 -10315.69998772 0 15374.66685920 0 37944.66814209 0 1390.14159846 0 24
0.00550000 0.00557378 41572.32323708 0 526.92335598 0 11105.07334256 0 198.98882768 0 -4493.47009042 0 45
0.00650000 0.00659388 48095.62151023 0 5573.26455974 0 10467.88025626 0 -33312.80342171 0 7071.31859924 0 40
0.00750000 0.00754703 41920.42434218 0 6051.13740532 0 32397.78852569 0 -5135.70509554 0 20176.46291741 0 57
0.00850000 0.00846663 43117.19352492 0 -3764.75354538 0 25018.35266554 0 -4326.98790838 0 -18086.09875518 0 75
0.00950000 0.00948925 52774.28050981 0 -14639.13987916 0 25414.23666137 0 26619.46396500 0 5011.71124024 0 112
0.01050000 0.01054430 74681.69237458 0 -10714.86837075 0 13609.88542828 0 5886.09420229 0 -22279.67902956 0 105
0.01150000 0.01145670 81461.15088034 0 1397.85276841 0 8880.54361082 0 -5169.99893114 0 -7794.20233625 0 144
0.01250000 0.01249090 89761.64315143 0 -2924.32389718 0 4220.51444635 0 -3389.77319117 0 4083.25122737 0 169
0.01350000 0.01339930 94205.89137212 0 -15684.10226882 0 22356.02180900 0 -8338.01557103 0 -15452.76717026 0 180
0.01450000 0.01448870 88325.19059497 0 4187.73648177 0 2684.99202978 0 2356.19081870 0 -31652.81481322 0 267
0.01550000 0.01550050 96097.10523345 0 6497.83603391 0 13754.22271200 0 -14577.18688980 0 -625.92181637 0 238
0.01650000 0.01653350 86382.45908823 0 2169.42013110 0 20566.74478123 0 -11237.76697934 0 -34763.64576826 0 315
0.01750000 0.01747870 90633.92806011 0 4575.90930765 0 21022.05531472 0 3350.69008192 0 -11939.35163011 0 297
0.01850000 0.01844180 84351.85100084 0 543.01026253 0 20774.46304874 0 -951.06846015 0 -39501.29192259 0 388
0.01950000 0.01947590 76519.08183027 0 4874.95331160 0 27183.63161278 0 -1651.47556474 0 3181.92310878 0 399
0.02050000 0.02045430 85755.78922247 0 1944.46706920 0 29464.90764647 0 -6030.98071463 0 -36553.47202466 0 462
0.02150000 0.02154770 76285.22028001 0 2490.54312594 0 32133.93909228 0 -8017.22211336 0 -22015.93944188 0 571
0.02250000 0.02255340 69163.59233835 0 5670.42310422 0 42340.36455196 0 15170.90303782 0 -3399.31878474 0 510
0.02350000 0.02348930 70452.85162222 0 -728.49355822 0 38881.43249183 0 -1231.83193842 0 170.67938723 0 555
0.02450000 0.02439640 69069.45455132 0 2682.71822325 0 33719.01291577 0 9733.03431972 0 -3330.87391299 0 592
0.02550000 0.02547300 72316.82374355 0 2418.60516011 0 37319.86565366 0 8619.92364176 0 1324.45385442 0 837
0.02650000 0.02652900 65053.82435276 0 -1204.00801607 0 29779.17626802 0 2768.17819793 0 18554.92031295 0 723
0.02750000 0.02749970 64287.65041521 0 1312.32688629 0 40215.06944893 0 5040.49082040 0 8435.97598931 0 826
0.02850000 0.02848090 59138.74186344 0 3990.92589483 0 30338.40085814 0 -4333.66652851 0 10328.23338504 0 831
0.02950000 0.02946900 57110.66022774 0 4240.18781584 0 36317.52340561 0 1310.64624669 0 6504.69040720 0 996
0.03050000 0.03053250 53768.93355705 0 1412.01188247 0 37725.96530199 0 3046.91172719 0 13411.72373892 0 1041
0.03150000 0.03150510 56235.29963873 0 2413.26665783 0 36455.92902014 0 5074.80662515 0 1550.88983361 0 1036
0.03250000 0.03246190 56173.67618655 0 -3798.44322948 0 30479.44277008 0 8391.06007203 0 7266.07507111 0 1059
0.03350000 0.03345080 56326.91097406 0 -3470.43290763 0 25382.60109234 0 5520.06627473 0 5251.66922828 0 1302
0.03450000 0.03451200 56399.84853600 0 2591.57922454 0 23844.76093095 0 -177.52497286 0 6546.53064417 0 1339
0.03550000 0.03553350 54404.94030951 0 2871.87256310 0 22851.86541532 0 825.64331505 0 10352.77292018 0 1365
0.03650000 0.03647120 55370.04485650 0 213.55986321 0 25727.07728849 0 5338.77688885 0 9073.79519625 0 1308
0.03750000 0.03744890 51042.67248808 0 1215.31114125 0 24019.74517217 0 2059.49751328 0 9262.30144631 0 1579
0.03850000 0.03847530 50784.97441532 0 683.47987824 0 20916.05418931 0 533.96007318 0 10988.41718175 0 1662
0.03950000 0.03950240 46934.00295976 0 207.63368630 0 20484.25064114 0 3078.73403395 0 7019.27369435 0 1683
0.04050000 0.04050350 45981.75036268 0 3721.05691565 0 19745.64798077 0 719.03693969 0 11074.64607651 0 1822
0.04150000 0.04152450 43484.62747776 0 2696.36106240 0 21271.62480377 0 -1549.98909866 0 6556.73531209 0 1887
0.04250000 0.04250150 39912.66416576 0 1321.80657243 0 20056.51138482 0 3047.24126436 0 10196.11094603 0 1920
0.04350000 0.04349210 43352.15353243 0 -1264.65384129 0 21348.51681184 0 2514.88493878 0 3351.71164717 0 2005
0.04450000 0.04448520 39723.72951736 0 -1093.90305434 0 14561.58879673 0 5765.43965705 0 9406.80349862 0 2151
0.04550000 0.04548030 42028.07315348 0 -1394.88693381 0 12498.57622023 0 1841.13519493 0 4343.61855127 0 2274
0.04650000 0.04648670 40550.86783274 0 1620.57596207 0 10261.46915289 0 396.81658604 0 7290.77937484 0 2311
0.04750000 0.04749250 41906.58378073 0 1464.43026283 0 10537.31373955 0 -559.60465633 0 3769.02654411 0 2568
0.04850000 0.04851840 38312.10209493 0 1737.41886062 0 15184.52390782 0 -3871.19405369 0 4742.05096794 0 2493
0.04950000 0.04949480 37239.56842809 0 1377.76198516 0 15414.54085767 0 -1968.57820602 0 -1082.11880488 0 2644
0.05050000 0.05050630 34866.35152189 0 395.40616692 0 16909.32149454 0 -1186.50959195 0 -1625.62886546 0 2829
0.05150000 0.05149060 35934.27166825 0 -120.77757245 0 16686.22482542 0 2783.45773839 0 -1376.37792901 0 2784
0.05250000 0.05249300 36562.58921990 0 60.52752137 0 14515.56343762 0 970.08934603 0 -4640.08118067 0 3055
0.05350000 0.05348950 36661.88975604 0 -145.28085850 0 12624.45942201 0 1566.25725066 0 -3887.06676107 0 3009
0.05450000 0.05448610 36051.36721197 0 -787.48510681 0 12318.09969272 0 1503.29368062 0 -3641.37482614 0 3336
0.05550000 0.05550870 35578.48136234 0 998.93153826 0 12106.42697908 0 -627.36189384 0 -1200.88839746 0 3349
0.05650000 0.05647670 34434.65781945 0 1362.88887388 0 12992.44260349 0 -545.81682082 0 -1584.57951772 0 3324
0.05750000 0.05747970 33954.52215192 0 582.39215215 0 10546.15632048 0 446.06152338 0 -3532.16620554 0 3639
0.05850000 0.05849280 31530.99590329 0 1137.28772221 0 13031.98706478 0 2182.22814273 0 749.04020124 0 3846
0.05950000 0.05951020 32320.56698044 0 78.56605693 0 10624.30056982 0 749.08194261 0 -424.98542397 0 3787
0.06050000 0.06049470 31631.50474241 0 -1187.99250924 0 9666.05039611 0 3319.21928148 0 -186.79705057 0 3930
0.06150000 0.06148310 33055.21519468 0 -0.95240528 0 7500.72751059 0 1701.01598708 0 203.63310497 0 4083
0.06250000 0.06249100 32097.47031131 0 819.03939001 0 6187.65367336 0 -1513.60819427 0 470.71749500 0 4303
0.06350000 0.06350600 31255.94220586 0 1614.86398433 0 9396.67572270 0 -2391.52818869 0 -1487.73952584 0 4470
0.06450000 0.06451750 28741.35385054 0 931.37641689 0 10737.26591425 0 -1582.27275748 0 895.23937001 0 4479
0.06550000 0.06550280 28856.36232546 0 -2.41469465 0 12003.61137971 0 -617.81300489 0 -4231.05963603 0 4636
0.06650000 0.06648880 28872.39980143 0 109.85341501 0 11589.82253058 0 2134.14866854 0 -869.99352684 0 4653
0.06750000 0.06749660 27805.90764951 0 222.69792914 0 12032.94018851 0 1104.22415874 0 -984.46156080 0 5220
0.06850000 0.06852730 28618.21679190 0 520.58855298 0 10757.52146609 0 484.11318126 0 1200.15243109 0 5029
0.06950000 0.06949320 28411.26744447 0 -2.59148036 0 12455.07731281 0 1535.57733944 0 1856.72230342 0 5040
0.07050000 0.07048030 27731.54209313 0 163.61301168 0 10260.62334080 0 202.92240312 0 823.69135650 0 5475
0.07150000 0.07148790 27680.24413918 0 266.62743181 0 11623.54516840 0 881.89640969 0 4492.90987722 0 5509
0.07250000 0.07249820 27667.39218926 0 -540.86827088 0 7983.04910806 0 2444.11133764 0 4579.17172570 0 5916
0.07350000 0.07351270 28325.36808688 0 -85.36023476 0 9110.65942183 0 606.11333664 0 3251.37856121 0 5721
0.07450000 0.07449140 26997.55295325 0 1112.68227963 0 8659.85256309 0 -1147.99768048 0 3617.19778189 0 6028
0.07550000 0.07549160 25978.62400060 0 1349.64147935 0 10042.93108138 0 -492.65478490 0 3750.02323354 0 6183
0.07650000 0.07648840 25743.66399309 0 -217.92952618 0 9952.84660164 0 410.24412757 0 3509.25238713 0 6330
0.07750000 0.07749960 25370.73775395 0 -81.42852670 0 9473.27114731 0 1606.68047776 0 1395.89751449 0 6583
0.07850000 0.07848650 25075.36259724 0 -95.67222197 0 8827.60895555 0 465.98643959 0 1638.92019828 0 6549
0.07950000 0.07947320 25389.74106452 0 234.14824760 0 8547.41447815 0 -404.70021379 0 2909.94509167 0 6828
0.08050000 0.08048110 24679.47860141 0 492.43289654 0 8690.04915312 0 -506.09221254 0 1281.44925277 0 7147
0.08150000 0.08149960 24540.85329543 0 747.93185786 0 8594.08792705 0 345.75040657 0 977.04148202 0 7386
0.08250000 0.08250610 23267.52164180 0 492.86349178 0 9613.07180255 0 -256.86434370 0 975.57284467 0 7227
0.08350000 0.08350160 22842.63837435 0 84.34339288 0 8116.34689634 0 983.50041070 0 1779.10531356 0 7798
0.08450000 0.08449610 22631.62473507 0 399.09368794 0 9395.73104946 0 744.24323839 0 1528.70099700 0 7371
0.08550000 0.08548940 21763.95334687 0 465.58440423 0 8011.60899678 0 -865.82707846 0 1808.31329206 0 8256
0.08650000 0.08650700 21790.75570397 0 494.90222845 0 8593.81331273 0 637.47099598 0 915.68605341 0 8037
0.08750000 0.08749060 21658.28175863 0 -220.68335853 0 8376.80209681 0 208.96281959 0 1557.67829947 0 8155
0.08850000 0.08849210 21317.10093426 0 266.06502169 0 8052.30683819 0 -164.14905883 0 -0.51725364 0 8718
0.08950000 0.08949900 20928.24706488 0 148.92663814 0 8063.04975017 0 -145.09521923 0 669.56572015 0 8571
0.09050000 0.09049190 20632.10298809 0 388.27388395 0 7989.76068191 0 -0.43902700 0 -419.31518760 0 8932
0.09150000 0.09150830 20476.78113179 0 282.26287242 0 8523.19349561 0 838.05478361 0 -350.01461765 0 9285
0.09250000 0.09250820 20183.05366096 0 220.88657312 0 8124.22283488 0 629.22377889 0 511.99312493 0 9204
0.09350000 0.09350330 19591.75411891 0 255.03651082 0 7755.16316529 0 61.61774020 0 -313.62163023 0 9349
0.09450000 0.09448040 19177.74557832 0 615.93244607 0 8541.28508665 0 -195.34744187 0 1175.87652569 0 9564
0.09550000 0.09549270 18809.54270539 0 289.80597841 0 7790.22592097 0 -324.81600814 0 -293.15078076 0 10155
0.09650000 0.09649430 18266.02605406 0 251.20728882 0 7723.05525964 0 680.79195333 0 -339.44526191 0 9913
0.09750000 0.09749140 17593.22098346 0 158.41181657 0 7462.83073518 0 149.15072342 0 156.15009307 0 10476
0.09850000 0.09850240 18004.15384372 0 168.40008842 0 7037.91451402 0 797.35364682 0 -96.06887488 0 10575
0.09950000 0.09950330 17164.27342416 0 238.12905670 0 6989.23088834 0 417.25558025 0 -78.06054690 0 10882
0.10050000 0.10051200 17262.03612013 0 185.01754982 0 6031.78258843 0 734.18466528 0 -25.46278847 0 10875
0.10150000 0.10150300 16775.63924623 0 -27.81216886 0 6026.24636385 0 593.26358363 0 532.34753792 0 11118
0.10250000 0.10250800 16350.64613306 0 535.10137027 0 5753.45548837 0 -164.88172982 0 361.28808449 0 11575
0.10350000 0.10349800 16144.24601425 0 331.98783558 0 6154.49124874 0 9.58625846 0 494.96374206 0 11364
0.10450000 0.10450100 15395.75723856 0 302.36024642 0 5467.79069382 0 442.28612579 0 482.82139553 0 12093
0.10550000 0.10551000 15326.55443130 0 -73.43263663 0 5650.58496614 0 747.39471226 0 1306.58195483 0 12067
0.10650000 0.10649700 14906.50437579 0 -5.99737891 0 5058.68127260 0 -216.39717831 0 534.21491526 0 12054
0.10750000 0.10749900 15027.88390281 0 440.11337733 0 5177.67714737 0 396.89457651 0 992.95812769 0 12807
0.10850000 0.10850100 15174.85748395 0 125.44491734 0 4591.08998695 0 291.41302138 0 1338.10767814 0 12736
0.10950000 0.10950300 14979.77147490 0 -589.84188927 0 4260.49829054 0 841.88071024 0 993.68860177 0 12933
0.11050000 0.11050200 15244.71936557 0 -69.58649838 0 4267.75909302 0 319.44125678 0 767.76779903 0 13428
0.11150000 0.11150900 15019.86516483 0 358.77042045 0 3887.68189713 0 -614.40888585 0 1587.21581514 0 13453
0.11250000 0.11250000 14986.14252700 0 203.56390216 0 4450.46548877 0 -267.23268176 0 665.09719603 0 13668
0.11350000 0.11349100 14807.97275973 0 -28.66775721 0 4133.96699898 0 -109.64185215 0 334.41981995 0 13791
0.11450000 0.11448600 15000.09293418 0 160.43407638 0 4587.70673860 0 349.84545523 0 209.87234220 0 14205
0.11550000 0.11549300 14559.50172794 0 215.35364391 0 4460.98870930 0 -25.08041550 0 339.90112167 0 14776
0.11650000 0.11649800 14570.26660907 0 246.09177337 0 4283.11552549 0 134.14360036 0 263.61985584 0 14553
0.11750000 0.11747300 14251.71400421 0 -40.97673971 0 4353.27399057 0 563.89523038 0 550.22492980 0 14568
0.11850000 0.11849100 13999.94760065 0 277.93824620 0 4055.35041302 0 287.74417414 0 817.11159752 0 16015
0.11950000 0.11950300 13929.31679895 0 -13.95765700 0 4060.90860674 0 -382.57838306 0 748.64695354 0 15270
0.12050000 0.12050700 13859.67460878 0 40.36841408 0 3796.40009898 0 640.76197393 0 250.21318500 0 15999
0.12150000 0.12150000 13744.33659668 0 72.26750301 0 3815.97460732 0 -447.44777644 0 860.67092009 0 15670
0.12250000 0.12250700 13264.96984923 0 261.65251889 0 3602.05005630 0 -134.76422871 0 67.12573443 0 16887
0.12350000 0.12352200 13249.81113907 0 390.09073225 0 4189.54893624 0 -389.33169829 0 -307.77673916 0 16407
0.12450000 0.12449800 13023.96832680 0 158.34371222 0 3685.12637873 0 407.39472944 0 -687.45629352 0 16306
0.12550000 0.12549900 12893.25191308 0 -162.27399229 0 4215.87895672 0 470.50659121 0 278.19967902 0 17523
0.12650000 0.12650100 12909.72877195 0 236.64833632 0 3846.67648769 0 -133.19123792 0 -38.43479977 0 17154
0.12750000 0.12750600 12788.01970775 0 -22.81232095 0 3874.76403978 0 -3.83472527 0 -233.24751265 0 18007
0.12850000 0.12850300 12542.29481910 0 78.14842348 0 3648.33904516 0 -164.19629249 0 -228.72077029 0 17496
0.12950000 0.12949900 12170.79657440 0 303.47957436 0 3768.63109950 0 -20.45964520 0 69.40371509 0 18405
0.13050000 0.13049000 12258.78300078 0 288.14511104 0 4089.35864973 0 -187.22984273 0 -595.90207797 0 18100
0.13150000 0.13148800 11980.43393157 0 303.16431713 0 4173.52244485 0 59.39281503 0 -337.31535329 0 19059
0.13250000 0.13249300 11922.87477124 0 -126.27535102 0 3898.01837993 0 655.00896457 0 -267.93349749 0 18957
0.13350000 0.13349100 12024.48206762 0 -268.89135222 0 3486.49235275 0 604.49091527 0 -142.64565954 0 19468
0.13450000 0.13450700 12013.05811213 0 89.40804976 0 3340.96873519 0 -308.87849179 0 -741.93208432 0 19953
0.13550000 0.13551000 11955.82848899 0 27.80755534 0 2575.25614969 0 160.47471930 0 -247.23087355 0 19956
0.13650000 0.13649900 12008.33474592 0 149.70873971 0 3142.60932351 0 261.37351074 0 -320.19260155 0 19723
0.13750000 0.13749600 11581.14471824 0 187.57036448 0 2907.90196117 0 -337.06160966 0 -602.15010285 0 20946
0.13850000 0.13851100 11319.05281645 0 215.50852639 0 3257.83748989 0 75.66678884 0 -281.13475682 0 20955
0.13950000 0.13949800 11220.08181749 0 122.15064402 0 2834.50304718 0 579.54604939 0 145.43903635 0 20506
0.14050000 0.14048300 11302.68580330 0 -91.04562984 0 2912.22988277 0 156.78829674 0 -342.08046087 0 21447
0.14150000 0.14148400 10967.42566354 0 374.72880750 0 2826.42938633 0 -245.48652342 0 -157.16177221 0 21771
0.14250000 0.14249400 10579.96683488 0 301.57265256 0 2889.74446269 0 42.57016181 0 473.49439495 0 22470
0.14350000 0.14350900 10585.00875370 0 -78.59966972 0 3139.54462776 0 286.92362657 0 630.13000613 0 22519
0.14450000 0.14449900 10578.47293301 0 -100.01376443 0 2646.65587147 0 394.65701907 0 302.12627502 0 22218
0.14550000 0.14550500 10637.42713406 0 30.72088368 0 2578.18903057 0 376.88178372 0 467.80878018 0 23559
0.14650000 0.14650700 10523.44022438 0 187.02443123 0 2356.34460271 0 -452.90491210 0 627.27731263 0 23044
0.14750000 0.14750500 10430.02741915 0 175.55214362 0 2768.43084310 0 -46.99309996 0 474.88943567 0 23649
0.14850000 0.14849900 10064.50478193 0 -11.87706910 0 2491.16924658 0 122.52961177 0 640.72242947 0 23640
0.14950000 0.14949500 10261.46915289 0 94.59035141 0 2763.80633805 0 -356.99531352 0 -268.49810452 0 24457
0.15050000 0.15050000 10050.99375765 0 293.70220631 0 2759.36857072 0 -9.56810096 0 -253.10761988 0 24591
0.15150000 0.15149900 9935.46900782 0 -39.53534410 0 2912.69123481 0 -217.20674131 0 129.32796374 0 25020
0.15250000 0.15250500 9832.80719247 0 -16.85286079 0 2780.77750268 0 684.97817394 0 -68.09885772 0 25297
0.15350000 0.15350100 9941.47756902 0 11.95220358 0 2615.80020709 0 71.29998186 0 -424.00560010 0 25452
0.15450000 0.15450400 9746.80897373 0 223.98312413 0 2592.97426526 0 -299.28017226 0 44.02364045 0 26061
0.15550000 0.15549900 9664.13908049 0 130.60107571 0 2672.22795644 0 -130.98443729 0 -57.22566870 0 26128
0.15650000 0.15649500 9337.76545995 0 233.51773314 0 2859.36113493 0 122.92945022 0 16.77135526 0 26331
0.15750000 0.15749700 9235.45515093 0 108.75968112 0 2860.70125279 0 -1.87605515 0 -395.67858432 0 27345
0.15850000 0.15849900 9034.74504072 0 158.21958655 0 2825.77031198 0 135.53314879 0 51.08737970 0 26980
0.15950000 0.15949700 8907.09332275 0 -50.18433799 0 2509.10705360 0 193.87660760 0 -116.36506964 0 27777
0.16050000 0.16050000 9094.21551667 0 26.46644887 0 2622.25913576 0 5.77158003 0 -273.01496077 0 28224
0.16150000 0.16150500 8709.81039919 0 193.10219524 0 2518.29015628 0 -104.71527134 0 -305.11957105 0 28075
0.16250000 0.16249700 8682.11829171 0 90.37480199 0 2692.16495567 0 -186.08744719 0 -178.33563432 0 28590
0.16350000 0.16349900 8631.14987494 0 -13.26420093 0 2603.91489955 0 183.37315930 0 -659.58294059 0 29163
0.16450000 0.16449100 8696.37626692 0 27.24877013 0 2529.23079057 0 90.28242174 0 -353.70982786 0 28996
0.16550000 0.16550500 8670.40873734 0 149.73620114 0 2539.58924252 0 38.60385234 0 -441.34145254 0 30777
0.16650000 0.16650700 8521.28217998 0 55.32050443 0 2424.51486015 0 232.74002540 0 -19.81364249 0 29211
0.16750000 0.16749900 8369.69507835 0 77.95355716 0 2514.41260216 0 45.69395456 0 -321.24712051 0 30922
0.16850000 0.16850800 8167.64485029 0 214.74839397 0 2622.80836439 0 -101.54754030 0 68.90842072 0 30867
0.16950000 0.16949900 7939.72595380 0 146.34526359 0 2536.55750048 0 16.28089410 0 434.12239144 0 30852
0.17050000 0.17049200 8131.53856022 0 -104.19614044 0 2691.29717444 0 387.15894983 0 500.87563902 0 31257
0.17150000 0.17149500 7997.60366673 0 -64.81941357 0 2168.48644243 0 192.46289311 0 115.35668588 0 32608
0.17250000 0.17250900 8106.41684272 0 144.66791935 0 2082.11474822 0 55.37619622 0 20.73568751 0 32361
0.17350000 0.17350400 8027.83321048 0 155.14390622 0 2067.60412784 0 -39.53841978 0 305.54028018 0 32508
0.17450000 0.17449800 7872.78596849 0 -13.78783550 0 2087.40931221 0 -29.73391983 0 281.23361797 0 32791
0.17550000 0.17549800 7720.93523713 0 146.28924227 0 2430.43554478 0 -216.34555082 0 89.21307360 0 33633
0.17650000 0.17650100 7572.77532215 0 164.28966136 0 2056.67447812 0 100.20116124 0 -132.63102472 0 33984
0.17750000 0.17750300 7688.82733147 0 -108.49110832 0 2276.10230001 0 415.55846378 0 97.69030764 0 34069
0.17850000 0.17849800 7740.13627000 0 -123.77416385 0 1824.21895316 0 185.65685194 0 -66.61198597 0 34536
