### header ###
fiducial parameters:
Omega_m = 0.31
Omega_nu = 0
Omega_de = 0.69
Omega_k = 0
H_0 = 100
w_de = -1
zeff = 0
beta = 0
fgrowth = 0
b_1 = 2
gamma = 0.55
Lx = 3500 Ly = 3500 Lz = 3500
nx = 700 ny = 700 nz = 700
xoffset = -983.599254 yoffset = -42.9823471 zoffset = 800.977702
bins = 400 dk = 0.001
kx_ny = 0.628318531 ky_ny = 0.628318531 kz_ny = 0.628318531
############################
A(data) = 9.06980467 (not used)
A(ran) = 9.08463044 (used)
Ngal = 505133
weighted Ngal = 0
Nran = 25229228
weighted Nran = 0
SN(data) = 6686.11334
SN(ran) = 134.85508
SN(data+ran) = 6820.96842
############################
13 columns: k_central k_mean P_0(k) sigma^{lin}_{P_0(k)} P^img_1(k) sigma^{lin}_{P_1(k)} P_2(k) sigma^{lin}_{P_2(k)} P^img_3(k) sigma^{lin}_{P_3(k)} P_4(k) sigma^{lin}_{P_4(k)} N_modes
### header ###
0.00050000 0 0 0 0 0 0 0 0 0 0 0 0
0.00150000 0.00179520 68971.36231817 0 -57654.50641624 0 33416.49778688 0 -213881.71118859 0 59231.34181030 0 3
0.00250000 0.00253879 118355.47419220 0 -30215.04410805 0 -43832.17935424 0 2150.85620344 0 -6261.59083141 0 6
0.00350000 0.00331552 162266.30308612 0 -27420.45899763 0 -25462.56878073 0 -105267.68549871 0 -28187.18216381 0 7
0.00450000 0.00420575 122412.07684649 0 19066.80139524 0 -24957.27844199 0 -47924.92125232 0 38770.15877158 0 24
0.00550000 0.00557378 88851.46146734 0 21241.63692062 0 29794.00544101 0 -12928.18285389 0 -21555.90554218 0 45
0.00650000 0.00659388 59963.90295575 0 3890.34016370 0 19348.99506486 0 -18162.55138035 0 31604.26300241 0 40
0.00750000 0.00754703 75359.98973148 0 26658.45919766 0 61694.63221166 0 16108.76584481 0 -27164.84799366 0 57
0.00850000 0.00846663 52656.41604601 0 6088.03458462 0 34255.06005774 0 8199.30238847 0 33344.54883647 0 75
0.00950000 0.00948925 61074.99247235 0 -19631.07888875 0 52794.60196908 0 35467.75687072 0 -22954.13178606 0 112
0.01050000 0.01054430 72406.01847291 0 444.04695277 0 10992.70116505 0 17301.47073570 0 -192.21793714 0 105
0.01150000 0.01145670 62114.68226717 0 -993.63367891 0 18327.97904342 0 -4164.42721875 0 30874.88738301 0 144
0.01250000 0.01249090 70267.32219132 0 107.37968927 0 22577.03140934 0 -178.27412071 0 22018.90527648 0 169
0.01350000 0.01339930 78330.32800320 0 7102.95416827 0 35057.92246771 0 14005.65957839 0 389.76888428 0 180
0.01450000 0.01448870 76534.24054043 0 -4019.00246234 0 31424.33570353 0 -2151.20770976 0 15755.39214487 0 267
0.01550000 0.01550050 75699.08348707 0 829.90093538 0 35655.26352469 0 11874.54265188 0 24603.35551342 0 238
0.01650000 0.01653350 79440.09937110 0 6189.36726668 0 43667.63045697 0 -2698.97539067 0 2760.54391999 0 315
0.01750000 0.01747870 72135.68814168 0 4172.31414186 0 47462.47074665 0 -2473.22045498 0 38208.29788404 0 297
0.01850000 0.01844180 74352.04535142 0 -1874.46238814 0 51345.18761697 0 8479.15634413 0 68.06919937 0 388
0.01950000 0.01947590 75015.73322678 0 2497.90278957 0 55323.47026876 0 -822.84444595 0 15757.80875084 0 399
0.02050000 0.02045430 71707.07011956 0 1916.78594630 0 49095.98653522 0 6033.80374979 0 3694.21062026 0 462
0.02150000 0.02154770 75742.80208594 0 -4961.17122179 0 42639.80400053 0 17743.59978210 0 14702.41101722 0 571
0.02250000 0.02255340 84953.25634967 0 -935.63403722 0 31965.21605743 0 12030.96296544 0 -12900.94111388 0 510
0.02350000 0.02348930 78726.21199904 0 5401.02646167 0 33518.10508326 0 -9873.76866363 0 4503.76263493 0 555
0.02450000 0.02439640 73311.58663651 0 1975.47651760 0 28801.87884546 0 -3894.60217786 0 3933.58642595 0 592
0.02550000 0.02547300 69787.07667806 0 3075.80115307 0 41901.42103161 0 1356.93523555 0 -4538.91326719 0 837
0.02650000 0.02652900 68513.08595008 0 2591.90876172 0 25847.24851253 0 4673.86972593 0 -8483.85774119 0 723
0.02750000 0.02749970 64403.86719313 0 570.03231108 0 39036.53465667 0 6693.19665727 0 -13960.73267653 0 826
0.02850000 0.02848090 61813.81482417 0 3765.63231118 0 24023.91930975 0 1772.70130775 0 -2001.00466428 0 831
0.02950000 0.02946900 63790.15912301 0 -93.47497791 0 23249.83647995 0 6307.13286933 0 -6691.70275540 0 996
0.03050000 0.03053250 58993.08643101 0 -335.53804944 0 25389.74106452 0 2535.76661126 0 -5397.77502818 0 1041
0.03150000 0.03150510 56363.26990931 0 1845.02373363 0 18515.92508029 0 4817.55891986 0 10637.98734726 0 1036
0.03250000 0.03246190 57958.44953957 0 221.47095239 0 19912.94302118 0 3269.18455337 0 -4506.36597863 0 1059
0.03350000 0.03345080 55338.40928747 0 1885.47991444 0 15419.59376106 0 -4571.57040148 0 85.05343565 0 1302
0.03450000 0.03451200 54287.84476579 0 1693.26087884 0 18801.08458450 0 4277.84293065 0 1583.26136901 0 1339
0.03550000 0.03553350 52015.13669871 0 -524.82310571 0 15921.36903658 0 2413.94770133 0 6677.95007053 0 1365
0.03650000 0.03647120 52144.09558081 0 -560.13960501 0 14153.95130824 0 6788.97114561 0 2325.29121603 0 1308
0.03750000 0.03744890 51202.49801914 0 1853.04247161 0 14274.23237800 0 -644.30120322 0 4162.47196483 0 1579
0.03850000 0.03847530 49087.63826005 0 3167.44544212 0 14544.23317205 0 -252.02893485 0 9386.48203935 0 1662
0.03950000 0.03950240 46587.00031191 0 349.91795341 0 16602.52238235 0 2413.53028757 0 6527.10991984 0 1683
0.04050000 0.04050350 43993.98210836 0 1396.52363513 0 13664.58859974 0 1655.71560976 0 8246.92051061 0 1822
0.04150000 0.04152450 44773.77691591 0 12.69179485 0 15151.13080717 0 1329.29805093 0 6556.51562064 0 1887
0.04250000 0.04250150 45609.92258080 0 -528.04597930 0 10634.29653087 0 3290.51659332 0 7629.56556240 0 1920
0.04350000 0.04349210 42966.48518910 0 1485.72934906 0 12516.26138209 0 -168.55167552 0 6309.59341359 0 2005
0.04450000 0.04448520 41870.44453694 0 150.39417704 0 9724.02697020 0 764.66355882 0 9346.61902545 0 2151
0.04550000 0.04548030 42319.38401833 0 777.92852867 0 14626.83715787 0 -419.58211272 0 3418.68458620 0 2274
0.04650000 0.04648670 39680.12076422 0 -253.19329954 0 9461.55060837 0 2225.29865182 0 5366.15044372 0 2311
0.04750000 0.04749250 42308.06990858 0 -258.30002734 0 10766.56176932 0 1563.45618465 0 2961.67144395 0 2568
0.04850000 0.04851840 40243.62933764 0 1922.08051028 0 9200.87571644 0 -2514.63229361 0 3232.49608095 0 2493
0.04950000 0.04949480 38787.40455053 0 1517.71642442 0 15008.44120934 0 -3934.87162094 0 298.38602806 0 2644
0.05050000 0.05050630 37987.39812943 0 858.28946476 0 14540.60826310 0 -999.65432314 0 -323.75270152 0 2829
0.05150000 0.05149060 37901.16923467 0 639.22523223 0 15668.39433003 0 2218.89464600 0 -301.09262674 0 2784
0.05250000 0.05249300 36353.22326650 0 -670.27971737 0 15192.10326290 0 905.09143316 0 -1404.28972794 0 3055
0.05350000 0.05348950 37781.98662216 0 919.43069420 0 18325.45259173 0 -1300.58437820 0 -152.77892775 0 3009
0.05450000 0.05448610 35975.24412398 0 1919.13664483 0 17454.81536893 0 -2993.98805649 0 993.08225336 0 3336
0.05550000 0.05550870 35238.72853240 0 -341.63778260 0 17782.04578613 0 2040.79078617 0 -1260.82022546 0 3349
0.05650000 0.05647670 35377.13414693 0 -81.38744440 0 17425.48656014 0 3521.11572552 0 -3231.21088596 0 3324
0.05750000 0.05747970 35185.23366393 0 552.31749088 0 16968.41849503 0 561.78619244 0 1153.59981249 0 3639
0.05850000 0.05849280 34583.93816083 0 563.50967188 0 17045.85973173 0 430.33271390 0 2493.72865199 0 3846
0.05950000 0.05951020 32984.36470153 0 491.57829679 0 14561.14941383 0 2047.93075835 0 932.25188732 0 3787
0.06050000 0.06049470 32529.82308812 0 343.94564130 0 14851.25197570 0 -474.03593438 0 1823.09852675 0 3930
0.06150000 0.06148310 32441.28743311 0 1473.95388725 0 14459.10273455 0 990.64697362 0 -888.95180066 0 4083
0.06250000 0.06249100 31433.78243595 0 -103.27706126 0 14648.47676585 0 129.02478954 0 2643.85480546 0 4303
0.06350000 0.06350600 30358.06324306 0 -8.21224221 0 12862.38526412 0 2914.50368929 0 1147.87685018 0 4470
0.06450000 0.06451750 30762.18566833 0 232.56317378 0 13578.90893360 0 -489.10237413 0 1352.85995912 0 4479
0.06550000 0.06550280 29867.71192303 0 762.94667012 0 11633.43128372 0 1956.73683678 0 1806.83037476 0 4636
0.06650000 0.06648880 30265.24360475 0 -340.45035030 0 12884.02487211 0 -288.35931020 0 2929.22301655 0 4653
0.06750000 0.06749660 29418.00352155 0 592.69348431 0 11206.24125603 0 809.30156642 0 2033.31029224 0 5220
0.06850000 0.06852730 29242.36020597 0 53.71060548 0 11701.86517090 0 445.51229475 0 1572.57337989 0 5029
0.06950000 0.06949320 28783.75430070 0 362.77869099 0 11850.15690075 0 -63.03112516 0 2201.09963842 0 5040
0.07050000 0.07048030 28478.82256584 0 412.80023761 0 11761.84093720 0 128.17458362 0 1824.59242862 0 5475
0.07150000 0.07148790 28801.98869119 0 -38.17018142 0 10927.24409704 0 83.37334528 0 915.99691681 0 5509
0.07250000 0.07249820 28389.18845358 0 78.68952353 0 11790.62051736 0 635.55638498 0 749.58064221 0 5916
0.07350000 0.07351270 28648.86374940 0 549.66581506 0 11485.68878250 0 839.77606613 0 1080.10533272 0 5721
0.07450000 0.07449140 27330.49534819 0 -265.43121186 0 9411.06551278 0 1159.99283374 0 2132.11652261 0 6028
0.07550000 0.07549160 27880.05351443 0 166.00874696 0 10013.59128802 0 1570.89274029 0 734.36591072 0 6183
0.07650000 0.07648840 27049.61982728 0 336.74635243 0 9684.07607972 0 768.87724086 0 2741.12319567 0 6330
0.07750000 0.07749960 27098.17163809 0 988.94656178 0 9222.09791067 0 203.98900512 0 1849.05507176 0 6583
0.07850000 0.07848650 25873.83117818 0 185.13618320 0 8424.76074070 0 -584.50338700 0 2145.66050060 0 6549
0.07950000 0.07947320 25580.76278171 0 447.06002103 0 8922.62550838 0 78.10734118 0 961.60486217 0 6828
0.08050000 0.08048110 24582.48482551 0 579.69983341 0 9114.30629993 0 251.55110594 0 2892.07319208 0 7147
0.08150000 0.08149960 23813.45489909 0 414.53360316 0 8933.29152836 0 916.22869130 0 1262.44594220 0 7386
0.08250000 0.08250610 23452.28215262 0 565.08376113 0 8439.74369771 0 -281.95310748 0 1652.99143576 0 7227
0.08350000 0.08350160 22646.56375378 0 602.14021673 0 9237.34449741 0 1255.08627857 0 2423.53723319 0 7798
0.08450000 0.08449610 21681.56905251 0 304.03759065 0 8015.64033491 0 -92.03995335 0 3081.43623881 0 7371
0.08550000 0.08548940 22027.25355164 0 106.10866438 0 7978.36968014 0 1174.29474724 0 3212.42726684 0 8256
0.08650000 0.08650700 21249.65565861 0 84.69962257 0 7868.60084634 0 62.68027791 0 2436.89447345 0 8037
0.08750000 0.08749060 21534.70531709 0 119.54400495 0 7559.81352650 0 96.96906060 0 3336.33324556 0 8155
0.08850000 0.08849210 20837.40464963 0 55.54206326 0 6701.51197872 0 976.69107416 0 2669.92119619 0 8718
0.08950000 0.08949900 21180.56269707 0 169.24040822 0 6596.93884774 0 572.84985395 0 2239.19413613 0 8571
0.09050000 0.09049190 20510.94315251 0 558.45896541 0 5775.75417071 0 436.00734410 0 1709.45213883 0 8932
0.09150000 0.09150830 20223.47688806 0 330.15670733 0 6615.00846964 0 -625.00130919 0 1744.19634190 0 9285
0.09250000 0.09250820 19175.43881807 0 569.10301624 0 7112.97209847 0 -596.02730209 0 2463.64190769 0 9204
0.09350000 0.09350330 18886.21502201 0 564.02814371 0 7110.91798340 0 338.99050060 0 1264.17052010 0 9349
0.09450000 0.09448040 18557.44676465 0 -11.92309446 0 6666.82269850 0 170.99903829 0 1768.60406218 0 9564
0.09550000 0.09549270 18688.82225272 0 67.71967027 0 6715.07792585 0 1124.00737396 0 786.02855249 0 10155
0.09650000 0.09649430 18276.24170656 0 -15.17309995 0 6067.72410992 0 567.04340888 0 2886.88847382 0 9913
0.09750000 0.09749140 18100.04916236 0 76.19943077 0 5897.73784922 0 1061.05149312 0 2822.66167794 0 10476
0.09850000 0.09850240 17981.41577848 0 242.69644198 0 4850.25999244 0 80.00163072 0 3019.76884834 0 10575
0.09950000 0.09950330 17474.47775385 0 186.74102925 0 5097.85225842 0 372.29792158 0 2499.73721319 0 10882
0.10050000 0.10051200 17085.40419302 0 503.93923631 0 5239.36650699 0 -400.32725544 0 3774.74950643 0 10875
0.10150000 0.10150300 16402.16377846 0 543.27169536 0 5749.44611937 0 91.23610233 0 2211.61187438 0 11118
0.10250000 0.10250800 16297.81033894 0 313.47114158 0 5244.51827153 0 -253.85457081 0 2501.14323848 0 11575
0.10350000 0.10349800 15765.16841447 0 140.29276409 0 5915.60974881 0 236.23092256 0 1751.72077412 0 11364
0.10450000 0.10450100 15816.90575133 0 -112.38645745 0 5643.36810196 0 -67.92420301 0 869.22460676 0 12093
0.10550000 0.10551000 15240.10584508 0 298.50136607 0 4721.98215383 0 353.94929155 0 1358.31929169 0 12067
0.10650000 0.10649700 15020.96362208 0 210.19858400 0 5314.23735370 0 -195.96477485 0 546.58464245 0 12054
0.10750000 0.10749900 14631.23098690 0 476.90180936 0 5010.71164413 0 23.05431109 0 1313.66700415 0 12807
0.10850000 0.10850100 14328.05678365 0 385.69910013 0 5068.68821822 0 273.47741127 0 321.16034239 0 12736
0.10950000 0.10950300 14301.58396373 0 -189.77936203 0 4727.68314700 0 96.97301505 0 1076.60454944 0 12933
0.11050000 0.11050200 13966.22496282 0 136.75243635 0 4979.02115224 0 718.00988215 0 1243.46460078 0 13428
0.11150000 0.11150900 14133.73969469 0 -102.07216349 0 4188.86789274 0 572.39728956 0 1523.95566165 0 13453
0.11250000 0.11250000 14229.85470478 0 -203.19811590 0 4062.30364746 0 263.30130323 0 1591.82933563 0 13668
0.11350000 0.11349100 14075.96084291 0 274.10023654 0 4164.53706447 0 -198.72080411 0 548.46080744 0 13791
0.11450000 0.11448600 14065.41565323 0 381.47992581 0 4142.31527414 0 -380.64399983 0 1613.96324938 0 14205
0.11550000 0.11549300 13680.73592143 0 161.36996196 0 4852.07244691 0 -285.85702457 0 1306.24143308 0 14776
0.11650000 0.11649800 13469.83212787 0 -66.30222103 0 4597.69171507 0 236.67909312 0 1321.55392726 0 14553
0.11750000 0.11747300 13958.42591629 0 -192.55626198 0 4650.45061718 0 477.46641639 0 -168.93613556 0 14568
0.11850000 0.11849100 13588.90489465 0 163.20987787 0 4343.75036614 0 -696.94916114 0 469.66956678 0 16015
0.11950000 0.11950300 13626.36228716 0 433.86754936 0 4627.06446216 0 -43.75133290 0 246.02147210 0 15270
0.12050000 0.12050700 13431.60581529 0 -96.40873756 0 4477.04815441 0 204.17244748 0 -177.67326459 0 15999
0.12150000 0.12150000 13507.39936610 0 -132.21361096 0 4428.58422018 0 363.37185791 0 -620.86451916 0 15670
0.12250000 0.12250700 13150.62044866 0 292.85309885 0 4414.69972044 0 -97.94185435 0 -405.59655491 0 16887
0.12350000 0.12352200 13170.28283358 0 176.61325333 0 3949.40421047 0 636.09133367 0 710.66449847 0 16407
0.12450000 0.12449800 13041.10426002 0 -163.86455840 0 4159.42923822 0 377.24866845 0 163.67891912 0 16306
0.12550000 0.12549900 12847.44624541 0 79.92506825 0 3614.18800900 0 131.82805246 0 224.19732330 0 17523
0.12650000 0.12650100 12604.68719137 0 341.57517053 0 3663.69547763 0 -294.12291544 0 456.94613635 0 17154
0.12750000 0.12750600 12477.15630370 0 249.37506211 0 4236.25533886 0 -84.10063383 0 833.82462471 0 18007
0.12850000 0.12850300 12448.37672353 0 237.67649231 0 4134.98856423 0 134.69392745 0 -20.23017748 0 17496
0.12950000 0.12949900 11898.26932866 0 127.48255555 0 4227.78623340 0 -98.71626672 0 839.12687789 0 18405
0.13050000 0.13049000 12387.08280853 0 -74.69948738 0 4325.17545390 0 273.22696302 0 680.12958360 0 18100
0.13150000 0.13148800 12180.90238118 0 -118.02264164 0 4282.67614259 0 116.48040765 0 547.18220320 0 19059
0.13250000 0.13249300 12163.32706505 0 -0.08855103 0 4123.80626934 0 -111.16607144 0 1016.54749731 0 18957
0.13350000 0.13349100 12241.31753037 0 69.63581911 0 4284.74124223 0 455.95313099 0 934.99912892 0 19468
0.13450000 0.13450700 12420.58575490 0 17.65868904 0 3993.27659336 0 232.24462117 0 910.82428159 0 19953
0.13550000 0.13551000 12137.62316521 0 96.95379205 0 4091.41276480 0 -202.30287323 0 998.75358819 0 19956
0.13650000 0.13649900 12112.90787690 0 197.70912498 0 4224.93024453 0 57.70888005 0 916.87128879 0 19723
0.13750000 0.13749600 12007.56582584 0 139.25252507 0 4228.18167801 0 243.17207398 0 898.36118554 0 20946
0.13850000 0.13851100 11714.49742937 0 135.83302763 0 3749.45203577 0 -3.21061481 0 787.75422884 0 20955
0.13950000 0.13949800 11407.36878000 0 41.22718797 0 3881.47561363 0 498.45573768 0 1160.66289266 0 20506
0.14050000 0.14048300 11210.96462224 0 372.72741837 0 3562.15408869 0 92.75625733 0 1095.06192675 0 21447
0.14150000 0.14148400 10876.07795796 0 190.20007116 0 3532.21014383 0 172.16889527 0 1605.34035990 0 21771
0.14250000 0.14249400 10651.09194235 0 98.51217336 0 3481.97769341 0 7.69534118 0 1275.89105904 0 22470
0.14350000 0.14350900 10478.99664371 0 258.47907587 0 3719.50809091 0 287.74746951 0 1226.41654413 0 22519
0.14450000 0.14449900 10381.11311744 0 159.33891449 0 3453.99998705 0 -271.32992733 0 1302.62750870 0 22218
0.14550000 0.14550500 10250.73722547 0 -28.97455633 0 3574.79733173 0 138.98889533 0 1025.99203282 0 23559
0.14650000 0.14650700 10176.53643769 0 -129.61026726 0 3262.61577897 0 328.53867979 0 958.81368228 0 23044
0.14750000 0.14750500 10088.39622729 0 305.35573936 0 3282.43194790 0 -48.88925688 0 976.66690810 0 23649
0.14850000 0.14849900 10066.84449589 0 237.24479861 0 3437.05079156 0 22.95523024 0 1521.75874713 0 23640
0.14950000 0.14949500 9686.42677825 0 -188.92805766 0 3316.05572457 0 150.18327325 0 1502.53574511 0 24457
0.15050000 0.15050000 9906.32693676 0 -35.66635794 0 3234.67102632 0 527.67689766 0 1272.70553299 0 24591
0.15150000 0.15149900 9991.40245140 0 113.30696463 0 2680.59820074 0 303.57953397 0 1379.73920822 0 25020
0.15250000 0.15250500 9916.32289781 0 127.71103466 0 3017.30830408 0 -142.91807694 0 1623.13536748 0 25297
0.15350000 0.15350100 9598.38542901 0 233.43425038 0 2895.21477984 0 -441.48864582 0 1508.05000055 0 25452
0.15450000 0.15450400 9533.81811138 0 187.45942030 0 3194.07204606 0 -158.43927800 0 1224.76885825 0 26061
0.15550000 0.15549900 9159.00252576 0 150.18327325 0 3568.11871160 0 -210.42157083 0 736.44748723 0 26128
0.15650000 0.15649500 9158.68397315 0 134.40832856 0 3616.75839899 0 -177.99071874 0 394.71963114 0 26331
0.15750000 0.15749700 8930.54538521 0 34.14312726 0 3561.71470578 0 147.54368046 0 577.22720612 0 27345
0.15850000 0.15849900 9025.25437001 0 -64.03643324 0 3301.13867501 0 426.96374549 0 294.08337098 0 26980
0.15950000 0.15949700 8913.91474232 0 -14.34574195 0 3066.24457493 0 267.69732918 0 635.95951880 0 27777
0.16050000 0.16050000 9036.10712772 0 -11.57708043 0 2575.33304170 0 339.95494608 0 310.54594990 0 28224
0.16150000 0.16150500 9020.67380324 0 159.60364269 0 2601.14678726 0 321.80513680 0 659.95751452 0 28075
0.16250000 0.16249700 8713.89666019 0 192.94291893 0 2709.47664206 0 -251.46872165 0 885.97058766 0 28590
0.16350000 0.16349900 8514.31796096 0 206.30784839 0 2931.50780765 0 -370.14164999 0 686.77195464 0 29163
0.16450000 0.16449100 8235.05717222 0 132.26853382 0 2741.03531909 0 200.82325130 0 832.63719241 0 28996
0.16550000 0.16550500 8353.93221670 0 -76.19020373 0 2753.85431529 0 332.62933462 0 763.59695682 0 30777
0.16650000 0.16650700 8207.10143501 0 -85.85728667 0 2703.12755911 0 170.16091540 0 922.83041942 0 29211
0.16750000 0.16749900 8371.46359454 0 190.19348042 0 2391.64901899 0 -21.46813881 0 755.25087857 0 30922
0.16850000 0.16850800 8287.22290741 0 65.78616581 0 2407.88421727 0 -94.92142643 0 568.88002942 0 30867
0.16950000 0.16949900 8246.88755690 0 121.58823390 0 2706.13733199 0 -189.73652220 0 169.58422534 0 30852
0.17050000 0.17049200 8002.62361640 0 148.56414725 0 2652.37883378 0 -304.85044902 0 116.24863317 0 31257
0.17150000 0.17149500 7890.64688351 0 -24.45956746 0 2871.44416477 0 43.72178440 0 -7.90926573 0 32608
0.17250000 0.17250900 7930.05952993 0 36.13924379 0 2767.46420072 0 15.24032554 0 -256.91267582 0 32361
0.17350000 0.17350400 7864.47064705 0 8.89947003 0 2545.43303513 0 444.94109698 0 31.40038934 0 32508
0.17450000 0.17449800 7933.94806863 0 -150.87200595 0 2176.09875123 0 243.94978172 0 -169.94122395 0 32791
0.17550000 0.17549800 8009.12648337 0 150.09100284 0 2247.16893583 0 82.95428383 0 -289.49181964 0 33633
0.17650000 0.17650100 7918.85526590 0 156.31156629 0 2069.88891894 0 -27.68463797 0 -45.39209851 0 33984
0.17750000 0.17750300 7845.54422849 0 -33.53535086 0 2071.02032991 0 179.81415778 0 -98.62959844 0 34069
0.17850000 0.17849800 7805.61530716 0 66.47522804 0 2049.54549052 0 150.11736581 0 32.90274933 0 34536
