### header ###
fiducial parameters:
Omega_m = 0.31
Omega_nu = 0
Omega_de = 0.69
Omega_k = 0
H_0 = 100
w_de = -1
zeff = 0
beta = 0
fgrowth = 0
b_1 = 2
gamma = 0.55
Lx = 3500 Ly = 3500 Lz = 3500
nx = 700 ny = 700 nz = 700
xoffset = -983.599254 yoffset = -42.9823471 zoffset = 800.977702
bins = 400 dk = 0.001
kx_ny = 0.628318531 ky_ny = 0.628318531 kz_ny = 0.628318531
############################
A(data) = 9.04588646 (not used)
A(ran) = 9.04077669 (used)
Ngal = 502364
weighted Ngal = 0
Nran = 25229228
weighted Nran = 0
SN(data) = 6750.95485
SN(ran) = 134.204101
SN(data+ran) = 6885.15895
############################
13 columns: k_central k_mean P_0(k) sigma^{lin}_{P_0(k)} P^img_1(k) sigma^{lin}_{P_1(k)} P_2(k) sigma^{lin}_{P_2(k)} P^img_3(k) sigma^{lin}_{P_3(k)} P_4(k) sigma^{lin}_{P_4(k)} N_modes
### header ###
0.00050000 0 0 0 0 0 0 0 0 0 0 0 0
0.00150000 0.00179520 3239.89968287 0 -6845.89320073 0 6504.89911408 0 -10907.91124930 0 -14650.12445174 0 3
0.00250000 0.00253879 14531.38122213 0 -8455.52852851 0 15548.44279744 0 -13687.54635643 0 17668.46530564 0 6
0.00350000 0.00331552 16027.91939062 0 -10513.01586500 0 -11643.42724477 0 19593.84118770 0 30897.95498543 0 7
0.00450000 0.00420575 26659.66750065 0 -20892.10782109 0 -2690.62711551 0 9157.76126906 0 20085.18111926 0 24
0.00550000 0.00557378 56326.36174543 0 -4672.32090119 0 -13412.60250472 0 11295.76552257 0 -9361.64592074 0 45
0.00650000 0.00659388 74827.56749846 0 -8339.16895115 0 3398.82447897 0 16065.70632030 0 35147.66642570 0 40
0.00750000 0.00754703 85418.45299849 0 -11239.52451096 0 9839.68353491 0 -3169.49955719 0 616.92325451 0 57
0.00850000 0.00846663 92637.07471605 0 -7539.93145013 0 -11776.77995591 0 8838.63746642 0 35873.30729042 0 75
0.00950000 0.00948925 83943.22490082 0 5037.48104751 0 4495.83177353 0 -14485.02632584 0 19603.17807439 0 112
0.01050000 0.01054430 99099.73814856 0 4762.42735008 0 14594.54251448 0 -5012.68886720 0 15792.08061729 0 105
0.01150000 0.01145670 91464.91097589 0 5690.76653264 0 31377.87096151 0 -13507.50921183 0 -21821.07312429 0 144
0.01250000 0.01249090 88210.84119440 0 8093.98230656 0 40686.96668702 0 -6373.62248716 0 29439.53328381 0 169
0.01350000 0.01339930 79469.75771707 0 -6924.11434208 0 40854.92080179 0 13719.40161692 0 9538.34375528 0 180
0.01450000 0.01448870 91848.16271326 0 -8726.68270268 0 31303.94478804 0 13897.35169274 0 -21665.09219363 0 267
0.01550000 0.01550050 94221.59931091 0 13587.03751732 0 53352.28871904 0 -16370.52820943 0 1119.25105403 0 238
0.01650000 0.01653350 82194.15140869 0 12666.20079782 0 46558.76996038 0 -17330.36016159 0 -10481.03977421 0 315
0.01750000 0.01747870 84116.89099333 0 -99.01054342 0 63296.29273975 0 4139.39337784 0 -6928.17863393 0 297
0.01850000 0.01844180 76519.85075035 0 -1809.63144077 0 53330.64911105 0 16167.31361667 0 -15116.19986636 0 388
0.01950000 0.01947590 74808.01495927 0 3141.44495882 0 44838.47604841 0 7291.65814065 0 -14242.48696324 0 399
0.02050000 0.02045430 73718.23551348 0 3318.03294764 0 50267.71089247 0 8983.20542617 0 643.95409072 0 462
0.02150000 0.02154770 66720.07416763 0 3659.16983372 0 34727.61637019 0 14106.16841751 0 3190.05169249 0 571
0.02250000 0.02255340 70645.74071675 0 -1221.52840934 0 39179.00456305 0 1329.86924871 0 6989.09907347 0 510
0.02350000 0.02348930 59741.02597807 0 1782.35674705 0 24697.38345471 0 5852.40451818 0 4379.50514989 0 555
0.02450000 0.02439640 65973.23307782 0 1293.08191513 0 22416.21726675 0 2975.20443737 0 6107.97158386 0 592
0.02550000 0.02547300 63896.37993987 0 -1487.46491153 0 27766.91241685 0 -1197.91157829 0 90.41654337 0 837
0.02650000 0.02652900 63979.53315431 0 2871.76271738 0 25801.77238204 0 4942.04708093 0 -3216.86503416 0 723
0.02750000 0.02749970 61496.69021375 0 -796.80881202 0 29923.62339747 0 -5575.75805772 0 -1897.95838889 0 826
0.02850000 0.02848090 63988.10112092 0 -1040.58833286 0 25899.75476947 0 5583.74384198 0 -5922.22246151 0 831
0.02950000 0.02946900 65566.69404659 0 2341.01013939 0 27149.46959205 0 -931.10949177 0 -15920.81980795 0 996
0.03050000 0.03053250 59482.99836813 0 5700.85037027 0 30445.50044081 0 -3512.09739143 0 1225.79042350 0 1041
0.03150000 0.03150510 58104.98373781 0 176.15080283 0 31117.53659133 0 8545.03082590 0 4322.23158845 0 1036
0.03250000 0.03246190 58400.35889452 0 -2966.64745533 0 24495.81654785 0 6121.90002189 0 -713.65889295 0 1059
0.03350000 0.03345080 57541.58501011 0 897.52306265 0 23505.88686682 0 6158.67637089 0 1778.73183810 0 1302
0.03450000 0.03451200 54071.00930303 0 4406.76885904 0 21563.15536008 0 -2607.32011705 0 6373.99596263 0 1339
0.03550000 0.03553350 52490.32930858 0 -727.19847712 0 21681.34936106 0 1436.45255646 0 3058.63226613 0 1365
0.03650000 0.03647120 51592.34050005 0 1826.44882139 0 22085.58163205 0 5202.43637397 0 -698.22227310 0 1308
0.03750000 0.03744890 48871.46187165 0 1188.32204642 0 19910.74610667 0 -1291.66490527 0 -162.53542511 0 1579
0.03850000 0.03847530 49509.99507581 0 810.93167699 0 21477.58553967 0 -4433.83484588 0 632.11381994 0 1662
0.03950000 0.03950240 46375.32759827 0 -218.04376574 0 17021.91336350 0 5025.35407938 0 -5478.52262123 0 1683
0.04050000 0.04050350 48804.45597891 0 -584.83621955 0 18971.89468814 0 2543.40088920 0 -2929.23400112 0 1822
0.04150000 0.04152450 46894.89788137 0 843.17579134 0 12192.32633666 0 2037.03406235 0 -6341.54753523 0 1887
0.04250000 0.04250150 50924.47848711 0 16.84495190 0 15593.80908220 0 -570.16632286 0 -6750.14068153 0 1920
0.04350000 0.04349210 46350.28277278 0 1596.43187154 0 14140.33043824 0 -1592.38954883 0 -6322.97262299 0 2005
0.04450000 0.04448520 44043.41268498 0 3045.62653219 0 17185.91303214 0 -3396.83627134 0 -6986.38588404 0 2151
0.04550000 0.04548030 41999.51326477 0 1277.59366779 0 19054.71836540 0 637.55887257 0 -795.97837833 0 2274
0.04650000 0.04648670 41533.98707877 0 -566.09434181 0 18687.06472111 0 5875.51605889 0 -3798.93753525 0 2311
0.04750000 0.04749250 41894.61059661 0 -568.01114972 0 16408.97421346 0 2079.06103704 0 1033.58676630 0 2568
0.04850000 0.04851840 42684.73090239 0 1390.42719735 0 18192.09988059 0 585.58317048 0 -911.58441401 0 2493
0.04950000 0.04949480 40077.76229166 0 1031.18114490 0 15744.62726374 0 -2595.69843926 0 4448.66401886 0 2644
0.05050000 0.05050630 39145.50161668 0 1161.50870475 0 21925.97579244 0 -128.40855502 0 3756.33936278 0 2829
0.05150000 0.05149060 37634.24412094 0 1055.70310473 0 18385.53820375 0 1821.22016484 0 2537.42528172 0 2784
0.05250000 0.05249300 37057.33436897 0 174.95568133 0 20543.45748735 0 1747.28300680 0 3261.08892338 0 3055
0.05350000 0.05348950 36957.59444993 0 433.27218553 0 18198.69062414 0 2739.78307781 0 3234.47330401 0 3009
0.05450000 0.05448610 36613.88717386 0 470.01887618 0 17958.01863888 0 2475.12078604 0 5496.18581394 0 3336
0.05550000 0.05550870 35534.65291774 0 123.09092343 0 16903.93905398 0 197.23349298 0 6163.71828971 0 3349
0.05650000 0.05647670 35078.79315562 0 1096.73268024 0 15759.23674528 0 2491.34499974 0 5235.12646197 0 3324
0.05750000 0.05747970 34466.51307993 0 -442.94080631 0 14150.32639929 0 -324.04598961 0 3856.26601955 0 3639
0.05850000 0.05849280 33054.88565750 0 430.20309595 0 12885.67255800 0 1092.46517379 0 3404.30578069 0 3846
0.05950000 0.05951020 34396.76104404 0 585.59745043 0 14143.29627283 0 1449.37041382 0 4174.17053463 0 3787
0.06050000 0.06049470 33120.24386436 0 329.69755220 0 11920.01878237 0 -503.31421413 0 3438.20417168 0 3930
0.06150000 0.06148310 32833.98590289 0 246.01268445 0 12780.55019839 0 1060.95592734 0 963.21410206 0 4083
0.06250000 0.06249100 31929.51619655 0 385.96382833 0 12618.19821564 0 -669.47125283 0 1064.80931540 0 4303
0.06350000 0.06350600 31331.51606522 0 895.73038040 0 12763.30441944 0 1123.20550016 0 3583.61794351 0 4470
0.06450000 0.06451750 31799.01947428 0 -784.98721501 0 12480.45167547 0 1339.26105826 0 4010.42351116 0 4479
0.06550000 0.06550280 32944.93008596 0 -517.63370295 0 10128.31416405 0 2964.93386201 0 2508.54684040 0 4636
0.06650000 0.06648880 32516.31206384 0 56.43785516 0 9912.10482194 0 186.72015857 0 4164.02078956 0 4653
0.06750000 0.06749660 32213.90678068 0 814.99157501 0 10306.00061013 0 -1414.18682784 0 3417.06985403 0 5220
0.06850000 0.06852730 31915.89532654 0 586.44765634 0 12479.57290966 0 -1392.71198844 0 1555.15184778 0 5029
0.06950000 0.06949320 30025.77992247 0 1511.78475523 0 12343.36420966 0 -1238.90600316 0 859.14406451 0 5040
0.07050000 0.07048030 29290.91201678 0 954.60768944 0 13389.86443948 0 -686.83346825 0 412.15324628 0 5475
0.07150000 0.07148790 28669.95412876 0 -301.32330277 0 14410.00169511 0 951.63306718 0 399.27053956 0 5509
0.07250000 0.07249820 28378.42357245 0 328.36072972 0 12624.23973056 0 2315.38313156 0 -1696.64412720 0 5916
0.07350000 0.07351270 28280.33133930 0 146.08932305 0 12315.57324102 0 714.14880489 0 -1805.13875058 0 5721
0.07450000 0.07449140 27401.12614989 0 197.97495163 0 10059.71550828 0 -201.26592958 0 -1024.05105884 0 6028
0.07550000 0.07549160 27030.94605390 0 579.93050943 0 10596.46566290 0 -66.30639516 0 -3404.07510467 0 6183
0.07650000 0.07648840 26228.08364392 0 696.22747472 0 10210.10529150 0 -38.75357207 0 -886.35394925 0 6330
0.07750000 0.07749960 24941.90004038 0 1.44673412 0 9580.81011288 0 1646.47758422 0 -977.47647110 0 6583
0.07850000 0.07848650 26089.01895505 0 -226.76441791 0 7928.59858178 0 2500.29742639 0 -1934.46012358 0 6549
0.07950000 0.07947320 25543.30538920 0 442.60467839 0 6978.72963695 0 812.95283834 0 -2192.29001121 0 6828
0.08050000 0.08048110 25318.67087992 0 662.15992132 0 7464.68712795 0 -872.07839872 0 -828.63331570 0 7147
0.08150000 0.08149960 23788.19038216 0 545.94314341 0 8217.21822635 0 -1192.48519943 0 413.72623708 0 7386
0.08250000 0.08250610 22631.51488934 0 412.13896634 0 8428.96783200 0 93.64534863 0 -235.93543756 0 7227
0.08350000 0.08350160 23344.63334132 0 605.91561433 0 8769.43465916 0 1244.77176492 0 -268.42450788 0 7798
0.08450000 0.08449610 22425.99353634 0 321.17791771 0 8602.23847990 0 345.10231679 0 246.73107549 0 7371
0.08550000 0.08548940 22169.06438367 0 -11.52292648 0 8208.34269171 0 1409.35361590 0 2616.81078776 0 8256
0.08650000 0.08650700 21689.36809904 0 83.57546141 0 6840.22516127 0 1083.14586241 0 2118.97897380 0 8037
0.08750000 0.08749060 21082.80000110 0 506.28004873 0 6444.42904202 0 476.08016333 0 2584.06577690 0 8155
0.08850000 0.08849210 20617.27381510 0 338.24025430 0 7112.96111390 0 806.47633435 0 3752.67051554 0 8718
0.08950000 0.08949900 20083.31374192 0 312.91751912 0 6348.69849198 0 -256.98078017 0 3039.58501727 0 8571
0.09050000 0.09049190 20258.51767459 0 410.80434077 0 5861.12626881 0 -800.81818101 0 1495.17608148 0 8932
0.09150000 0.09150830 19984.01320579 0 -117.48000376 0 6392.16444568 0 142.34468225 0 1722.50181105 0 9285
0.09250000 0.09250820 19149.29553533 0 141.31432934 0 6185.21509825 0 221.14141521 0 1681.35360216 0 9204
0.09350000 0.09350330 19622.51092213 0 -20.71646451 0 5383.91249758 0 536.33493777 0 626.64679816 0 9349
0.09450000 0.09448040 19464.77245987 0 231.95902229 0 5918.77330571 0 373.58751041 0 206.94605206 0 9564
0.09550000 0.09549270 18948.38770282 0 841.28644486 0 6078.82951280 0 -982.02737952 0 469.26423605 0 10155
0.09650000 0.09649430 18061.27362115 0 497.86696459 0 6327.75091206 0 -228.69880114 0 1362.52638299 0 9913
0.09750000 0.09749140 17847.18430154 0 -69.35944727 0 6619.32540666 0 1141.09936890 0 779.86401036 0 10476
0.09850000 0.09850240 17947.36360348 0 -81.03989252 0 6503.03173674 0 86.71298488 0 594.76847007 0 10575
0.09950000 0.09950330 17509.73823184 0 387.59613582 0 5931.24079559 0 235.64105101 0 1184.58729174 0 10882
0.10050000 0.10051200 17170.20509335 0 140.41249594 0 6453.20571551 0 235.53559912 0 1690.84427287 0 10875
0.10150000 0.10150300 17203.15881109 0 185.25481658 0 6216.21356207 0 -68.28691360 0 1254.70181853 0 11118
0.10250000 0.10250800 16627.78689928 0 570.91766763 0 6980.65193715 0 -112.99390432 0 1006.20552222 0 11575
0.10350000 0.10349800 16604.93898831 0 -59.96247496 0 6880.16506718 0 -333.43560225 0 1773.95354902 0 11364
0.10450000 0.10450100 16143.03771127 0 315.25723308 0 7213.08549297 0 -197.14671486 0 111.50329782 0 12093
0.10550000 0.10551000 16110.30368498 0 352.21482753 0 6974.52254565 0 135.59356394 0 1411.12213209 0 12067
0.10650000 0.10649700 16038.79411747 0 -79.96274533 0 7228.20026485 0 482.16232117 0 1218.51863645 0 12054
0.10750000 0.10749900 15861.39327028 0 -142.91917540 0 6697.57950173 0 1426.95090118 0 1520.02318466 0 12807
0.10850000 0.10850100 16044.94547812 0 -66.22686686 0 5780.37867576 0 619.21134098 0 1077.59975172 0 12736
0.10950000 0.10950300 15978.15927682 0 122.97888079 0 5771.28344967 0 -40.53153498 0 2089.82591817 0 12933
0.11050000 0.11050200 15396.08677574 0 387.78067664 0 5558.76492393 0 48.46404407 0 2758.69851180 0 13428
0.11150000 0.11150900 15586.99864720 0 -158.24704798 0 5627.75902432 0 41.58517519 0 1656.64929843 0 13453
0.11250000 0.11250000 15204.29613847 0 379.01608618 0 5632.44943681 0 123.32159946 0 1748.55721722 0 13668
0.11350000 0.11349100 15047.98567063 0 384.56878762 0 5636.52471324 0 -722.98809045 0 853.17834314 0 13791
0.11450000 0.11448600 14374.74121712 0 76.17240872 0 5890.55393875 0 87.70478194 0 1429.83984377 0 14205
0.11550000 0.11549300 14436.80405221 0 253.90509985 0 5734.32036293 0 798.63115261 0 1256.73396446 0 14776
0.11650000 0.11649800 14195.80252977 0 126.03918271 0 5468.38386073 0 112.62921651 0 960.28781192 0 14553
0.11750000 0.11747300 14185.14749437 0 173.02788884 0 6085.65093237 0 -440.95150022 0 53.31032765 0 14568
0.11850000 0.11849100 13613.62018296 0 211.66063061 0 5193.33016330 0 -143.97808820 0 9.86113641 0 16015
0.11950000 0.11950300 13574.07572167 0 -103.36680521 0 6063.92344780 0 103.91153017 0 65.85756553 0 15270
0.12050000 0.12050700 14006.75803565 0 83.26415862 0 5163.02372755 0 526.73661825 0 -293.25074038 0 15999
0.12150000 0.12150000 13470.93058513 0 -1.37255530 0 5108.81486186 0 152.43511063 0 -417.69276623 0 15670
0.12250000 0.12250700 13694.46663716 0 201.65917728 0 4870.46062141 0 119.29685206 0 -699.80405155 0 16887
0.12350000 0.12352200 13559.35639441 0 9.48633180 0 4133.78026125 0 720.45944184 0 -65.83658499 0 16407
0.12450000 0.12449800 13510.80458360 0 -305.27335507 0 3973.97669933 0 356.51968153 0 -110.80687591 0 16306
0.12550000 0.12549900 13530.24727707 0 25.66874921 0 3814.05230712 0 720.06289877 0 -435.11759372 0 17523
0.12650000 0.12650100 13532.22450013 0 457.15813860 0 3719.88156638 0 -939.04804238 0 528.55566347 0 17154
0.12750000 0.12750600 13262.99262617 0 171.25168346 0 3717.20133067 0 245.73257785 0 -379.45766599 0 18007
0.12850000 0.12850300 12981.67772236 0 210.20297783 0 4751.45376207 0 -618.17000350 0 -445.29809559 0 17496
0.12950000 0.12949900 12815.15160202 0 12.32073599 0 4397.02554316 0 -154.82864899 0 -0.99085019 0 18405
0.13050000 0.13049000 12626.32679935 0 -39.72383936 0 4646.57306306 0 423.66837372 0 -372.94710982 0 18100
0.13150000 0.13148800 12680.81027935 0 162.15096507 0 4429.72661573 0 153.83454517 0 -139.87315342 0 19059
0.13250000 0.13249300 12654.11776798 0 134.43798691 0 4305.45814612 0 478.96031826 0 188.47000098 0 18957
0.13350000 0.13349100 12783.84557017 0 145.17101278 0 4096.58649849 0 629.84111187 0 437.03440164 0 19468
0.13450000 0.13450700 12332.15994562 0 44.76378095 0 3769.15835898 0 55.34071605 0 682.16063107 0 19953
0.13550000 0.13551000 12075.12094722 0 294.61831966 0 3964.98033439 0 -114.25053942 0 1005.65519514 0 19956
0.13650000 0.13649900 11687.36553510 0 150.49743202 0 3598.43613192 0 467.81207555 0 1241.14685597 0 19723
0.13750000 0.13749600 11838.84279099 0 -134.59177092 0 3332.32387657 0 718.43608357 0 1665.43695649 0 20946
0.13850000 0.13851100 11643.31739905 0 227.39053855 0 3356.27024479 0 54.65901347 0 1493.80300991 0 20955
0.13950000 0.13949800 11588.72407332 0 142.22604887 0 2995.86641840 0 76.74272773 0 1866.91598678 0 20506
0.14050000 0.14048300 11524.90370662 0 -114.29008388 0 3017.39618066 0 391.84057466 0 1836.15918355 0 21447
0.14150000 0.14148400 11548.74022912 0 23.19612192 0 2672.59044733 0 130.53516827 0 2005.89279908 0 21771
0.14250000 0.14249400 11352.77545427 0 111.93169615 0 2906.77055019 0 -242.41633538 0 1606.10927998 0 22470
0.14350000 0.14350900 11179.87828184 0 226.86767289 0 2687.16697515 0 -263.15081459 0 1313.42534355 0 22519
0.14450000 0.14449900 11043.88927328 0 348.22962460 0 3350.43743675 0 -213.49175886 0 733.86830959 0 22218
0.14550000 0.14550500 10675.77427694 0 312.15079596 0 3450.84741472 0 -232.00186212 0 934.99693201 0 23559
0.14650000 0.14650700 10548.92443277 0 -35.99699358 0 3679.24963240 0 -168.24959977 0 818.79223713 0 23044
0.14750000 0.14750500 10295.24671357 0 161.95434122 0 3554.23421185 0 -207.59414184 0 -279.60131049 0 23649
0.14850000 0.14849900 10207.79853125 0 229.95983008 0 3525.43266255 0 -100.25707272 0 -242.84583217 0 23640
0.14950000 0.14949500 9887.44445649 0 78.08515234 0 3762.04035595 0 255.21116553 0 274.15735631 0 24457
0.15050000 0.15050000 9945.68466032 0 -37.66456154 0 3406.31595747 0 424.09457514 0 -86.42387093 0 24591
0.15150000 0.15149900 9801.69888292 0 48.99734507 0 3012.85955218 0 610.83011210 0 151.22021690 0 25020
0.15250000 0.15250500 9831.73070436 0 98.90904597 0 2765.79454568 0 55.41958528 0 487.27563971 0 25297
0.15350000 0.15350100 9552.87634481 0 123.14474784 0 2890.80996623 0 -75.57924180 0 344.99356952 0 25452
0.15450000 0.15450400 9652.39657240 0 208.45203696 0 3093.14579318 0 -28.54549892 0 560.48561905 0 26061
0.15550000 0.15549900 9411.49391111 0 109.82386651 0 2867.91811697 0 -28.53352574 0 834.77149486 0 26128
0.15650000 0.15649500 9338.32567315 0 -123.09421880 0 3198.92722714 0 208.84967849 0 864.66820606 0 26331
0.15750000 0.15749700 9130.33279132 0 24.34807405 0 2634.34216560 0 231.88322873 0 567.24003273 0 27345
0.15850000 0.15849900 9158.70594230 0 283.13394903 0 2787.07166277 0 203.89234088 0 651.51696894 0 26980
0.15950000 0.15949700 9046.85003970 0 39.41308580 0 2854.38512355 0 165.08384595 0 1308.71296191 0 27777
0.16050000 0.16050000 8909.56485158 0 29.12790096 0 2427.01934270 0 280.85135485 0 794.31092022 0 28224
0.16150000 0.16150500 8901.13968441 0 46.54580816 0 2203.35147580 0 235.08413319 0 1041.51543079 0 28075
0.16250000 0.16249700 8731.31819230 0 110.09178024 0 2046.35996447 0 -85.32288722 0 1191.92498623 0 28590
0.16350000 0.16349900 8673.95675429 0 39.48481506 0 2081.66438075 0 34.88612375 0 1054.02905587 0 29163
0.16450000 0.16449100 8676.23056081 0 70.88893915 0 1751.70978955 0 143.50355466 0 666.14402579 0 28996
0.16550000 0.16550500 8803.77243305 0 -116.57157960 0 1869.26668531 0 23.29696030 0 609.66135358 0 30777
0.16650000 0.16650700 8756.75846240 0 127.95599063 0 2122.35123759 0 -387.58185587 0 285.28692525 0 29211
0.16750000 0.16749900 8540.28549054 0 147.98745719 0 2005.81590707 0 -596.37221767 0 -269.77561031 0 30922
0.16850000 0.16850800 8452.87026194 0 145.83118559 0 2580.90221999 0 10.66387798 0 -193.72941433 0 30867
0.16950000 0.16949900 8387.98439170 0 1.72532485 0 2596.56622050 0 196.02958383 0 -96.00824004 0 30852
0.17050000 0.17049200 8494.74345262 0 -8.93213815 0 2298.38999778 0 521.36516226 0 6.73679443 0 31257
0.17150000 0.17149500 8581.71929832 0 -77.95981837 0 1982.95701153 0 386.02204657 0 414.73022701 0 32608
0.17250000 0.17250900 8610.12540301 0 -51.07507698 0 1826.17420708 0 99.18355044 0 142.40070357 0 32361
0.17350000 0.17350400 8352.93262060 0 104.94748521 0 1664.87674329 0 -12.54998402 0 474.20619525 0 32508
0.17450000 0.17449800 8464.33815572 0 185.97210917 0 1597.35457563 0 18.36312968 0 535.31117561 0 32791
0.17550000 0.17549800 8099.87003747 0 152.04515830 0 2042.97671611 0 -366.23663443 0 239.67129070 0 33633
0.17650000 0.17650100 8061.81947804 0 321.13727479 0 2102.08470117 0 -115.21498489 0 110.86399569 0 33984
0.17750000 0.17750300 7734.69890657 0 171.53179006 0 2487.96175138 0 -234.09222628 0 317.77270021 0 34069
0.17850000 0.17849800 7829.41887594 0 -110.73767311 0 2188.04996620 0 289.64889903 0 306.88808723 0 34536
