### header ###
fiducial parameters:
Omega_m = 0.31
Omega_nu = 0
Omega_de = 0.69
Omega_k = 0
H_0 = 100
w_de = -1
zeff = 0
beta = 0
fgrowth = 0
b_1 = 2
gamma = 0.55
Lx = 3500 Ly = 3500 Lz = 3500
nx = 700 ny = 700 nz = 700
xoffset = -983.599254 yoffset = -42.9823471 zoffset = 800.977702
bins = 400 dk = 0.001
kx_ny = 0.628318531 ky_ny = 0.628318531 kz_ny = 0.628318531
############################
A(data) = 9.06371295 (not used)
A(ran) = 9.05562542 (used)
Ngal = 502760
weighted Ngal = 0
Nran = 25229228
weighted Nran = 0
SN(data) = 6750.03245
SN(ran) = 134.424521
SN(data+ran) = 6884.45697
############################
13 columns: k_central k_mean P_0(k) sigma^{lin}_{P_0(k)} P^img_1(k) sigma^{lin}_{P_1(k)} P_2(k) sigma^{lin}_{P_2(k)} P^img_3(k) sigma^{lin}_{P_3(k)} P_4(k) sigma^{lin}_{P_4(k)} N_modes
### header ###
0.00050000 0 0 0 0 0 0 0 0 0 0 0 0
0.00150000 0.00179520 22798.26070113 0 -18865.78371701 0 -1638.70050683 0 -16457.96540717 0 -17571.25183829 0 3
0.00250000 0.00253879 39262.15777750 0 -25330.75390975 0 -23939.33810088 0 2390.95699092 0 51984.59958693 0 6
0.00350000 0.00331552 21761.86627808 0 -5856.83130093 0 -7054.19365059 0 -12812.73499606 0 17166.58018440 0 7
0.00450000 0.00420575 48304.76777218 0 -31343.15971215 0 -48939.12683876 0 8870.60257264 0 -12055.67825375 0 24
0.00550000 0.00557378 84862.08439725 0 -8908.78494693 0 -51701.52715151 0 -11502.05579565 0 -12231.76095223 0 45
0.00650000 0.00659388 78219.38382013 0 10893.77410439 0 -20733.38074729 0 -69658.55717886 0 -22334.16250956 0 40
0.00750000 0.00754703 74849.20710645 0 6126.85406412 0 -8692.16917562 0 -28896.45601538 0 -10186.23581528 0 57
0.00850000 0.00846663 79237.10446979 0 5025.41998682 0 28851.63895925 0 -15418.16576662 0 -35881.43587414 0 75
0.00950000 0.00948925 64931.01683130 0 -957.49992740 0 1874.51731101 0 -1328.36436226 0 -7417.10195953 0 112
0.01050000 0.01054430 75487.41077343 0 -14614.09505367 0 25109.41477224 0 14142.08796985 0 -30405.18705943 0 105
0.01150000 0.01145670 81871.53451198 0 9280.60174423 0 2941.58066070 0 4193.44845951 0 -18398.71969085 0 144
0.01250000 0.01249090 77694.87047937 0 5237.25746905 0 18049.19059131 0 -16699.07677534 0 263.19804825 0 169
0.01350000 0.01339930 72975.45871552 0 4259.89413905 0 33361.46507825 0 -8579.78601355 0 -13860.22383741 0 180
0.01450000 0.01448870 70691.54638441 0 1038.82091513 0 34252.53360605 0 8099.23293226 0 659.23472964 0 267
0.01550000 0.01550050 67487.23671671 0 -4399.32131883 0 26569.04477685 0 21574.13993266 0 14643.86324537 0 238
0.01650000 0.01653350 75958.09970854 0 -1552.57047322 0 12026.34944496 0 6027.37777483 0 4775.74065205 0 315
0.01750000 0.01747870 78852.64442945 0 -2375.87517276 0 19520.46424285 0 16202.90363184 0 18764.94534071 0 297
0.01850000 0.01844180 79038.39355180 0 3813.36027905 0 25736.74371236 0 -9900.93351162 0 -3415.30133785 0 388
0.01950000 0.01947590 70884.65517039 0 9848.77876100 0 23265.21488156 0 -16675.78948146 0 14824.01023570 0 399
0.02050000 0.02045430 65215.73695261 0 1377.41047884 0 41259.04322706 0 909.04258391 0 4583.11518726 0 462
0.02150000 0.02154770 66624.50838617 0 -615.68858856 0 37426.41600770 0 -2008.46318906 0 -11403.85371677 0 571
0.02250000 0.02255340 62761.89328367 0 7562.01044102 0 40728.48837138 0 9854.86421421 0 2854.96730590 0 510
0.02350000 0.02348930 60266.52793036 0 372.51212075 0 31965.65544034 0 6373.56756430 0 15904.89217770 0 555
0.02450000 0.02439640 60042.00326680 0 -5679.40848459 0 35542.01258137 0 21945.63817736 0 15291.29395331 0 592
0.02550000 0.02547300 65368.53235722 0 -421.13642974 0 20045.85634942 0 5036.08600680 0 -2655.66322098 0 837
0.02650000 0.02652900 59266.16290538 0 5069.88553663 0 22572.08835168 0 -5778.56622129 0 15682.45458293 0 723
0.02750000 0.02749970 60150.31115245 0 208.20488408 0 19156.10597033 0 -1589.55552910 0 6881.32943187 0 826
0.02850000 0.02848090 62252.75834452 0 -3149.44172766 0 19416.55018623 0 8560.53005781 0 3431.98690360 0 831
0.02950000 0.02946900 63026.95102005 0 -2466.64069600 0 13045.38824333 0 6594.36845776 0 -6639.58095850 0 996
0.03050000 0.03053250 65077.77072099 0 -266.62633335 0 9383.69195791 0 -1968.22669970 0 -6845.21215723 0 1041
0.03150000 0.03150510 60538.17641030 0 7489.83081459 0 14098.69890815 0 -9865.71697193 0 -3375.74589198 0 1036
0.03250000 0.03246190 58141.89190168 0 2501.59360596 0 18127.73028526 0 -8399.90265295 0 -7534.88953132 0 1059
0.03350000 0.03345080 51853.00440741 0 813.37684285 0 21382.56898684 0 1798.44914588 0 -8968.07966972 0 1302
0.03450000 0.03451200 54089.90276787 0 688.81398669 0 19687.42974609 0 3464.29253156 0 -16745.65136308 0 1339
0.03550000 0.03553350 51688.23581869 0 897.03424917 0 19890.20495594 0 5524.35025804 0 -2905.97966097 0 1365
0.03650000 0.03647120 52578.53542641 0 -807.74175711 0 13701.05738071 0 889.23739955 0 -7502.02369015 0 1308
0.03750000 0.03744890 50834.73452912 0 -1245.91416047 0 14550.38453270 0 2925.29053956 0 -3777.35285013 0 1579
0.03850000 0.03847530 51192.39221237 0 2164.08162882 0 10926.42025410 0 3037.32219532 0 -8506.55186815 0 1662
0.03950000 0.03950240 46714.31150813 0 2762.32342075 0 14844.00215780 0 -2320.56784982 0 2272.36754533 0 1683
0.04050000 0.04050350 47512.01116899 0 1962.77835170 0 15359.61799477 0 -2897.34578692 0 -5261.06103783 0 1822
0.04150000 0.04152450 43801.09301383 0 1290.53349429 0 17406.59309530 0 85.25258595 0 -5153.31336538 0 1887
0.04250000 0.04250150 42091.67382872 0 481.43074864 0 18207.58812793 0 -248.20520513 0 -2531.30687479 0 1920
0.04350000 0.04349210 41475.65899836 0 -63.03540914 0 15164.75167717 0 1301.25443713 0 -3258.54050254 0 2005
0.04450000 0.04448520 42123.52908921 0 809.30046796 0 16729.72373284 0 1911.00806112 0 -5408.84747734 0 2151
0.04550000 0.04548030 40047.88425424 0 1622.71795372 0 15400.91998767 0 -1038.96810841 0 -4808.43074005 0 2274
0.04650000 0.04648670 40297.23405184 0 -868.75446706 0 17914.19019428 0 2465.44337759 0 -3244.95258625 0 2311
0.04750000 0.04749250 38073.51717847 0 1322.36678563 0 14128.13756267 0 -682.53081117 0 -5885.83057254 0 2568
0.04850000 0.04851840 39009.40276240 0 1049.93181030 0 16828.69473180 0 -793.20916759 0 -5679.88082122 0 2493
0.04950000 0.04949480 36120.89955641 0 1514.23431491 0 14870.03559482 0 -2226.75959997 0 -7209.72421376 0 2644
0.05050000 0.05050630 36173.40581335 0 -13.91229071 0 17373.74922328 0 1063.04409459 0 -4937.62029818 0 2829
0.05150000 0.05149060 34193.32675983 0 573.20355718 0 16181.59356103 0 -124.84076584 0 -8247.93109129 0 2784
0.05250000 0.05249300 34506.60676985 0 1343.90753246 0 15412.01440598 0 1380.40926715 0 -4246.02062388 0 3055
0.05350000 0.05348950 34735.74495390 0 93.89788396 0 15235.71201605 0 2586.28466056 0 -4435.09807173 0 3009
0.05450000 0.05448610 34508.14461002 0 -1700.55463504 0 13821.00891330 0 4268.50604396 0 -1745.52547518 0 3336
0.05550000 0.05550870 33719.67199013 0 608.30366041 0 11916.72341060 0 1879.43839952 0 -423.70791818 0 3349
0.05650000 0.05647670 34235.28782709 0 1107.35476193 0 10747.47058217 0 573.19367107 0 3127.26387562 0 3324
0.05750000 0.05747970 34761.33900802 0 -380.87577431 0 13183.68401213 0 428.37965690 0 2478.60289554 0 3639
0.05850000 0.05849280 32478.52513416 0 511.68445844 0 12327.98580804 0 357.18974046 0 3795.22474972 0 3846
0.05950000 0.05951020 32279.37483326 0 1336.71263742 0 12699.70374419 0 -619.37171574 0 3849.48853827 0 3787
0.06050000 0.06049470 31250.44991957 0 796.13985155 0 14974.38903434 0 -529.54427500 0 5518.07806709 0 3930
0.06150000 0.06148310 30757.79183929 0 395.13924181 0 13995.55377162 0 1447.96438853 0 3170.75179847 0 4083
0.06250000 0.06249100 30982.75588576 0 -516.50558735 0 12512.63647313 0 1947.48782666 0 2583.00027336 0 4303
0.06350000 0.06350600 30374.75979338 0 460.59081754 0 12650.82239621 0 -334.29239891 0 1672.91745042 0 4470
0.06450000 0.06451750 30295.12164217 0 146.50673680 0 10849.07787855 0 -635.66403380 0 385.21907431 0 4479
0.06550000 0.06550280 29229.39841033 0 -428.46533657 0 10159.10392100 0 2688.70481531 0 2817.23529908 0 4636
0.06650000 0.06648880 29412.84077243 0 87.16038652 0 6307.48437565 0 1591.48881388 0 -1647.86164036 0 4653
0.06750000 0.06749660 29633.63068132 0 867.43631835 0 7288.09913913 0 1548.14369047 0 463.13923838 0 5220
0.06850000 0.06852730 29358.79667533 0 -92.74933705 0 5601.80247931 0 426.23546833 0 -3080.07415181 0 5029
0.06950000 0.06949320 28597.12641254 0 -52.80921145 0 5734.37528579 0 -1298.65109343 0 -174.89746310 0 5040
0.07050000 0.07048030 27252.50488286 0 598.06164493 0 3872.07281950 0 -61.19373570 0 -1939.09561321 0 5475
0.07150000 0.07148790 27052.58566188 0 713.58090249 0 7720.57274623 0 -1892.57594833 0 -1316.53397759 0 5509
0.07250000 0.07249820 26159.32021957 0 1217.83759295 0 6748.66874881 0 980.07542097 0 -1898.32087979 0 5916
0.07350000 0.07351270 26640.44449863 0 -474.30725332 0 6914.12936560 0 527.77575882 0 76.48173428 0 5721
0.07450000 0.07449140 26164.26327723 0 -200.13781397 0 7453.46089477 0 1742.20813426 0 743.13709193 0 6028
0.07550000 0.07549160 25992.46456206 0 -57.38681238 0 5581.72268063 0 1381.70544672 0 1405.00372516 0 6183
0.07650000 0.07648840 26486.11125386 0 181.75732867 0 6071.51378746 0 -216.87061339 0 3192.43534474 0 6330
0.07750000 0.07749960 25491.23851517 0 588.87195151 0 6973.24833523 0 163.71187284 0 2394.03267124 0 6583
0.07850000 0.07848650 25122.04703071 0 1283.90979703 0 8448.65218607 0 -2312.93357187 0 2483.89745953 0 6549
0.07950000 0.07947320 23751.17237256 0 735.67966561 0 8740.03994293 0 -1124.33691114 0 2129.29348746 0 6828
0.08050000 0.08048110 23279.16528874 0 -605.26972146 0 8871.56921502 0 1841.22307151 0 2367.97726508 0 7147
0.08150000 0.08149960 24279.53031372 0 -438.76776719 0 7488.60054246 0 1180.58890733 0 1607.49333613 0 7386
0.08250000 0.08250610 23727.88507869 0 1161.25605958 0 7617.51548627 0 -399.91862934 0 733.64312585 0 7227
0.08350000 0.08350160 23198.20898881 0 1146.64657805 0 8148.10329567 0 -732.86322120 0 975.18508925 0 7798
0.08450000 0.08449610 22102.71756528 0 -19.44917437 0 9262.83969037 0 -805.61953769 0 1308.24062529 0 7371
0.08550000 0.08548940 21656.08484412 0 87.24881233 0 8110.51408830 0 1249.00082536 0 399.15630000 0 8256
0.08650000 0.08650700 20933.84919689 0 -261.24059742 0 7517.94033582 0 906.85775243 0 158.75014140 0 8037
0.08750000 0.08749060 20875.74080794 0 485.04906685 0 7192.78600284 0 230.27179194 0 1181.83016403 0 8155
0.08850000 0.08849210 21195.94109869 0 571.28565081 0 6750.81074046 0 495.84140941 0 85.15317557 0 8718
0.08950000 0.08949900 20667.03392889 0 139.91489480 0 6219.34416526 0 -437.35515116 0 -163.48119681 0 8571
0.09050000 0.09049190 19983.02459425 0 171.77454911 0 6259.06437971 0 657.17951611 0 -302.85565064 0 8932
0.09150000 0.09150830 19661.06677189 0 232.58733984 0 6211.70988731 0 125.33726852 0 173.27284481 0 9285
0.09250000 0.09250820 19444.23130914 0 200.79029759 0 5696.70918641 0 369.66601799 0 -320.00806073 0 9204
0.09350000 0.09350330 18749.23740192 0 315.58237643 0 5944.72985072 0 49.64137056 0 -500.00456242 0 9349
0.09450000 0.09448040 19088.11146605 0 39.30444838 0 5594.08032478 0 96.70488163 0 -201.78220449 0 9564
0.09550000 0.09549270 18558.98460481 0 158.08887013 0 5394.79820901 0 -15.34116391 0 -415.09161945 0 10155
0.09650000 0.09649430 18272.61679761 0 629.29627707 0 5519.89052157 0 629.76312140 0 -125.88430024 0 9913
0.09750000 0.09749140 18435.51800899 0 189.61788881 0 5547.49475247 0 -739.95046743 0 -1369.09515739 0 10476
0.09850000 0.09850240 17102.32043480 0 613.09183560 0 6232.74534381 0 -437.63635621 0 -1007.53685242 0 10575
0.09950000 0.09950330 16538.70201565 0 240.51270895 0 6216.81771356 0 120.31841731 0 -351.85233664 0 10882
0.10050000 0.10051200 16413.03850532 0 -16.13194329 0 6089.23190303 0 733.72990397 0 -408.58985094 0 10875
0.10150000 0.10150300 16257.82649474 0 385.33221541 0 5935.27213373 0 211.00595009 0 -628.02755894 0 11118
0.10250000 0.10250800 15883.47226117 0 -74.71772177 0 4913.97051341 0 927.18360553 0 95.17681774 0 11575
0.10350000 0.10349800 16316.48411233 0 -114.14838289 0 4933.95145093 0 784.82244642 0 388.18381045 0 11364
0.10450000 0.10450100 16201.36579167 0 -96.07206041 0 4121.35670966 0 739.84611399 0 393.65961988 0 12093
0.10550000 0.10551000 16595.16271872 0 7.99784533 0 4023.23152279 0 45.90628635 0 891.67377775 0 12067
0.10650000 0.10649700 16016.49543513 0 37.09632960 0 3415.20247669 0 347.52221813 0 1261.16074721 0 12054
0.10750000 0.10749900 15883.25256972 0 229.71707102 0 3911.26577447 0 -270.00079405 0 709.37930347 0 12807
0.10850000 0.10850100 15565.57873067 0 780.70213324 0 4420.94994224 0 -694.22608560 0 700.92337950 0 12736
0.10950000 0.10950300 15159.25939088 0 503.78105847 0 5163.52901788 0 -941.60964470 0 261.89308103 0 12933
0.11050000 0.11050200 14584.98593633 0 -64.95232690 0 5254.23961826 0 -77.68992742 0 553.97176751 0 13428
0.11150000 0.11150900 14541.26733746 0 125.03738969 0 5911.07312034 0 489.93830010 0 -185.78097761 0 13453
0.11250000 0.11250000 14250.83523841 0 331.40125941 0 5430.82760708 0 278.59732055 0 1160.59698523 0 13668
0.11350000 0.11349100 14212.93846300 0 -32.01190049 0 5092.39292585 0 695.25753696 0 511.94039898 0 13791
0.11450000 0.11448600 14315.75406236 0 -76.75041693 0 4774.70810222 0 556.92112525 0 492.49550860 0 14205
0.11550000 0.11549300 14014.66692791 0 120.27997131 0 4595.07738680 0 -73.65562345 0 854.40971372 0 14776
0.11650000 0.11649800 13516.51656134 0 300.17761184 0 4170.07328906 0 507.58611441 0 1391.11922542 0 14553
0.11750000 0.11747300 13540.79246675 0 -38.03792716 0 4261.73954725 0 121.03570990 0 1180.32527758 0 14568
0.11850000 0.11849100 13417.43571666 0 287.78921089 0 4101.15608068 0 -54.13977273 0 755.03448249 0 16015
0.11950000 0.11950300 13346.47537778 0 151.10927272 0 3944.69182883 0 104.67682534 0 753.34725215 0 15270
0.12050000 0.12050700 13516.62640707 0 -287.52887652 0 3563.54912940 0 692.30598231 0 892.62723865 0 15999
0.12150000 0.12150000 13374.15650069 0 -263.80769203 0 3235.37403896 0 366.21136992 0 1208.06132335 0 15670
0.12250000 0.12250700 13376.24356948 0 204.47452323 0 3021.54834910 0 -409.85637216 0 -28.58174801 0 16887
0.12350000 0.12352200 13238.16749213 0 477.21486968 0 3624.60138381 0 -418.06184787 0 687.42333980 0 16407
0.12450000 0.12449800 12807.35255549 0 260.15312473 0 3789.17225022 0 -272.53823032 0 -435.82939402 0 16306
0.12550000 0.12549900 12507.36387829 0 186.62239587 0 4211.74875743 0 -454.72285886 0 -580.23807746 0 17523
0.12650000 0.12650100 12501.98143773 0 109.62317837 0 3787.71130207 0 205.51805763 0 -1031.37007955 0 17154
0.12750000 0.12750600 12354.01924506 0 -196.05265143 0 3631.47772625 0 605.29388752 0 -330.30719598 0 18007
0.12850000 0.12850300 12482.64858999 0 -44.43336501 0 3105.63525221 0 491.52007855 0 -1104.58664963 0 17496
0.12950000 0.12949900 12575.24853685 0 183.13918791 0 2979.48842068 0 24.62609358 0 -548.49925345 0 18405
0.13050000 0.13049000 12228.79511763 0 153.17217545 0 2771.74818402 0 357.48632392 0 124.47607803 0 18100
0.13150000 0.13148800 12233.40863812 0 -55.69947219 0 2930.83774872 0 36.41616487 0 -169.57433922 0 19059
0.13250000 0.13249300 12112.57833972 0 214.08492578 0 3051.78887741 0 -163.59873174 0 -352.52788785 0 18957
0.13350000 0.13349100 11931.44273786 0 248.27330948 0 3028.87505901 0 -106.19994617 0 -38.84485387 0 19468
0.13450000 0.13450700 11582.35302122 0 223.61074712 0 3593.96541088 0 -213.20506152 0 106.32407184 0 19953
0.13550000 0.13551000 11670.33944760 0 116.93846433 0 3591.86735752 0 207.04711013 0 237.98515880 0 19956
0.13650000 0.13649900 11207.22986757 0 -17.97724164 0 3348.71285886 0 273.82232685 0 368.01613519 0 19723
0.13750000 0.13749600 11157.03037087 0 131.88407378 0 3518.25973665 0 -49.49824158 0 613.94533689 0 20946
0.13850000 0.13851100 11160.87497127 0 197.02698302 0 3148.78265330 0 310.38667360 0 779.78601989 0 20955
0.13950000 0.13949800 11211.95323378 0 -42.02851254 0 2936.01148240 0 470.72738111 0 745.66574054 0 20506
0.14050000 0.14048300 11071.24085901 0 19.85845954 0 2863.63413367 0 275.35247781 0 490.93679775 0 21447
0.14150000 0.14148400 11027.30256868 0 72.14821055 0 2800.72548649 0 61.24261705 0 888.99354204 0 21771
0.14250000 0.14249400 10863.55554521 0 15.07599633 0 2454.87621877 0 0.16171488 0 906.68749155 0 22470
0.14350000 0.14350900 11086.50941490 0 94.52312583 0 2404.95133639 0 14.65924165 0 614.35945527 0 22519
0.14450000 0.14449900 10860.30411173 0 29.52213727 0 2574.17966157 0 -199.84342743 0 332.99951472 0 22218
0.14550000 0.14550500 10554.26293504 0 222.97034654 0 2684.22310969 0 -23.84772677 0 77.95926914 0 23559
0.14650000 0.14650700 10630.55079162 0 177.54364663 0 3087.45578458 0 -236.49894613 0 686.38749460 0 23044
0.14750000 0.14750500 10208.36972903 0 246.45975655 0 2977.51119762 0 -130.69005074 0 -168.20346457 0 23649
0.14850000 0.14849900 10161.13606693 0 109.30067132 0 3372.73611909 0 -292.91790783 0 -134.03045927 0 23640
0.14950000 0.14949500 9830.25877163 0 131.95767042 0 3365.81583837 0 69.80157631 0 -386.15166452 0 24457
0.15050000 0.15050000 9790.14311257 0 92.48109379 0 3343.76980120 0 84.37711552 0 -72.71885910 0 24591
0.15150000 0.15149900 9879.16208876 0 -58.61961096 0 3224.59817326 0 391.89000524 0 87.95446127 0 25020
0.15250000 0.15250500 9877.17388113 0 24.18901744 0 3054.30434453 0 -105.10357598 0 -579.48783116 0 25297
0.15350000 0.15350100 9542.40804714 0 358.29369000 0 3196.23600686 0 -250.27469861 0 -497.34080356 0 25452
0.15450000 0.15450400 9486.16703552 0 184.41339832 0 3196.68637433 0 -318.24064300 0 -183.09634807 0 26061
0.15550000 0.15549900 9269.27664990 0 -9.36968663 0 3725.74732814 0 284.25767080 0 -559.13671354 0 26128
0.15650000 0.15649500 9152.17012161 0 -74.27669118 0 3115.08198463 0 94.65120594 0 -676.97261744 0 26331
0.15750000 0.15749700 9228.15041016 0 58.43265354 0 2895.17084155 0 483.69137368 0 -419.05814861 0 27345
0.15850000 0.15849900 9312.99524878 0 83.95409963 0 2903.54108585 0 325.28285248 0 -173.33545688 0 26980
0.15950000 0.15949700 9036.97490895 0 66.52828353 0 2527.25356751 0 119.32651041 0 -22.36788515 0 27777
0.16050000 0.16050000 9134.40806775 0 -39.82237098 0 2439.08040340 0 296.88114161 0 153.83124980 0 28224
0.16150000 0.16150500 8784.84601449 0 147.48656068 0 2227.22095202 0 87.68896415 0 143.60351427 0 28075
0.16250000 0.16249700 8898.07498866 0 99.63655421 0 2090.61680740 0 277.01883747 0 200.12902632 0 28590
0.16350000 0.16349900 8671.69393233 0 45.63936124 0 1992.83214228 0 4.46367993 0 -162.31133983 0 29163
0.16450000 0.16449100 8485.05505960 0 84.03384762 0 2084.54233876 0 -156.70261707 0 125.48446180 0 28996
0.16550000 0.16550500 8493.83173310 0 164.35227342 0 1747.94208115 0 218.44140727 0 -83.71551471 0 30777
0.16650000 0.16650700 8467.84223437 0 12.40509751 0 1849.00014890 0 -39.53226842 0 -369.09811559 0 29211
0.16750000 0.16749900 8293.53903665 0 45.92485028 0 1688.88901895 0 -200.54534162 0 -692.23348413 0 30922
0.16850000 0.16850800 8182.43008499 0 165.71436042 0 1874.29761955 0 -182.67344203 0 -669.87658356 0 30867
0.16950000 0.16949900 8031.44713486 0 149.69226285 0 1929.69281908 0 -139.09324877 0 -617.65702396 0 30852
0.17050000 0.17049200 8015.72821149 0 142.40180203 0 1964.68966733 0 132.22569399 0 -800.24368787 0 31257
0.17150000 0.17149500 7935.34310934 0 -152.58889464 0 1957.41788028 0 162.77488880 0 -521.46072804 0 32608
0.17250000 0.17250900 8007.90719582 0 128.47995474 0 1862.81874121 0 338.38964448 0 -645.97744899 0 32361
0.17350000 0.17350400 8006.61101625 0 127.70444392 0 1864.89482542 0 -140.84309118 0 -305.75008552 0 32508
0.17450000 0.17449800 7818.53316451 0 57.29542074 0 2086.12411721 0 -55.10388866 0 -196.66449212 0 32791
0.17550000 0.17549800 7747.45199534 0 -4.52204096 0 1862.73086463 0 134.93778496 0 9.03711771 0 33633
0.17650000 0.17650100 7759.65585548 0 -12.21429548 0 1882.29438839 0 283.05156473 0 68.68246806 0 33984
0.17750000 0.17750300 7745.01342023 0 -10.54717789 0 1763.60608165 0 38.86912977 0 141.22864968 0 34069
0.17850000 0.17849800 7718.32090885 0 226.43268382 0 1904.32944099 0 -33.86422897 0 218.93900841 0 34536
