### header ###
fiducial parameters:
Omega_m = 0.31
Omega_nu = 0
Omega_de = 0.69
Omega_k = 0
H_0 = 100
w_de = -1
zeff = 0
beta = 0
fgrowth = 0
b_1 = 2
gamma = 0.55
Lx = 3500 Ly = 3500 Lz = 3500
nx = 700 ny = 700 nz = 700
xoffset = -983.599254 yoffset = -42.9823471 zoffset = 800.977702
bins = 400 dk = 0.001
kx_ny = 0.628318531 ky_ny = 0.628318531 kz_ny = 0.628318531
############################
A(data) = 9.1453104 (not used)
A(ran) = 9.15745074 (used)
Ngal = 508547
weighted Ngal = 0
Nran = 25229228
weighted Nran = 0
SN(data) = 6676.13677
SN(ran) = 135.936047
SN(data+ran) = 6812.07281
############################
13 columns: k_central k_mean P_0(k) sigma^{lin}_{P_0(k)} P^img_1(k) sigma^{lin}_{P_1(k)} P_2(k) sigma^{lin}_{P_2(k)} P^img_3(k) sigma^{lin}_{P_3(k)} P_4(k) sigma^{lin}_{P_4(k)} N_modes
### header ###
0.00050000 0 0 0 0 0 0 0 0 0 0 0 0
0.00150000 0.00179520 51017.07843397 0 -17433.17576095 0 25964.56374770 0 -40628.96814379 0 25980.16184076 0 3
0.00250000 0.00253879 57456.89395551 0 -17357.82159304 0 5793.50524000 0 -10178.07427785 0 -1455.70851220 0 6
0.00350000 0.00331552 68190.46905337 0 -13674.25502361 0 -40369.29284797 0 82571.91085976 0 85332.77333236 0 7
0.00450000 0.00420575 82331.12902878 0 -6710.29963678 0 -2329.28960045 0 -31373.58697820 0 2795.01350875 0 24
0.00550000 0.00557378 88720.30567072 0 1203.44780287 0 16292.09836120 0 -18423.54482488 0 -27787.12403039 0 45
0.00650000 0.00659388 98300.83018471 0 -2103.23808129 0 -31686.75714250 0 26782.91440501 0 20815.43550447 0 40
0.00750000 0.00754703 65002.96578171 0 4434.90034942 0 7747.41904162 0 -6748.60284137 0 25382.71093806 0 57
0.00850000 0.00846663 72094.27630305 0 11271.48961717 0 4063.03961382 0 12293.27455868 0 39336.74302532 0 75
0.00950000 0.00948925 80494.83803036 0 -5354.66058080 0 17076.94607213 0 10550.60507237 0 -9234.89493772 0 112
0.01050000 0.01054430 65107.31922123 0 4778.16824259 0 1407.37639284 0 -10251.19857752 0 10770.63704575 0 105
0.01150000 0.01145670 73080.91061231 0 6024.02748019 0 17905.73207340 0 -509.87969317 0 18431.12417996 0 144
0.01250000 0.01249090 57062.98718274 0 -656.32601482 0 23828.06438063 0 2094.57125353 0 27121.56877769 0 169
0.01350000 0.01339930 64869.39337912 0 -5121.12856772 0 17521.60157023 0 16931.83986833 0 1412.12172819 0 180
0.01450000 0.01448870 83982.54967066 0 -7297.46897954 0 6390.67054381 0 -6043.17359020 0 -12378.29515046 0 267
0.01550000 0.01550050 75361.52757164 0 7640.81376472 0 21798.33505905 0 -17267.41856069 0 3934.68488321 0 238
0.01650000 0.01653350 71162.34516525 0 9478.49980386 0 29937.57380464 0 -14471.62514729 0 3387.14787832 0 315
0.01750000 0.01747870 68580.53122573 0 -1107.60740709 0 33610.37549294 0 13307.91952802 0 10760.69600756 0 297
0.01850000 0.01844180 76452.18578325 0 -6540.78571271 0 34367.10269807 0 18053.36472889 0 -13446.87437118 0 388
0.01950000 0.01947590 75387.89054584 0 1608.85542313 0 25034.49998724 0 10993.68977659 0 7811.31630033 0 399
0.02050000 0.02045430 74774.84155007 0 2974.64422417 0 29219.40244928 0 -12906.98262880 0 2867.78630210 0 462
0.02150000 0.02154770 68969.05555793 0 2656.93743140 0 24414.31101929 0 10180.64466783 0 8695.49750112 0 571
0.02250000 0.02255340 65810.99094080 0 2131.56729398 0 31884.25975751 0 3958.74109716 0 11823.13485220 0 510
0.02350000 0.02348930 68029.54506505 0 -438.77765330 0 23791.26606248 0 17910.01605670 0 16993.68301197 0 555
0.02450000 0.02439640 68883.59558325 0 -2324.28063535 0 20475.79252025 0 8511.29720350 0 21798.44490477 0 592
0.02550000 0.02547300 67639.04350978 0 1417.32841560 0 14106.16841751 0 -1749.42499845 0 13515.41810408 0 837
0.02650000 0.02652900 63482.92062791 0 3006.07108633 0 16767.73035397 0 -2203.74692041 0 21868.85601502 0 723
0.02750000 0.02749970 61247.88964478 0 -1760.29972531 0 15945.75478771 0 -2882.81319739 0 3641.78125533 0 826
0.02850000 0.02848090 61153.75185776 0 1685.05540312 0 13811.78187233 0 2806.31663394 0 4177.90528931 0 831
0.02950000 0.02946900 61474.39153141 0 3381.66657660 0 14271.04685196 0 -2051.21514555 0 -4610.12625124 0 996
0.03050000 0.03053250 60166.45847415 0 942.58068092 0 14267.86132591 0 -613.33459465 0 -3445.50891244 0 1041
0.03150000 0.03150510 59710.81840347 0 1822.99966560 0 19802.65791247 0 -1401.53260023 0 -5661.60249244 0 1036
0.03250000 0.03246190 53576.15430824 0 32.47061624 0 18106.85959736 0 -3793.73084785 0 -11982.96038326 0 1059
0.03350000 0.03345080 54532.69088863 0 3542.41481176 0 19349.87383067 0 -3375.98755258 0 -7565.11907506 0 1302
0.03450000 0.03451200 49627.74969388 0 508.17928133 0 24909.93493416 0 3231.70519172 0 -1765.38558241 0 1339
0.03550000 0.03553350 51695.81517377 0 1497.94419377 0 25460.15217476 0 2054.78513164 0 -4788.18617278 0 1365
0.03650000 0.03647120 49630.60568275 0 -272.11971810 0 21068.73974819 0 2714.73825233 0 1091.41395020 0 1308
0.03750000 0.03744890 51169.32460995 0 -156.01168746 0 22236.18012214 0 7469.38852501 0 3122.97989231 0 1579
0.03850000 0.03847530 50825.06810525 0 -616.48936390 0 19921.51098780 0 4413.78800092 0 12864.69202437 0 1662
0.03950000 0.03950240 50759.60005266 0 1099.98411372 0 19943.58997869 0 2599.86159227 0 10153.65557300 0 1683
0.04050000 0.04050350 49529.43776928 0 1122.53544123 0 17528.30215950 0 -1246.72701884 0 15099.06393314 0 1822
0.04150000 0.04152450 46816.79757031 0 3122.68330885 0 18390.26156996 0 2980.02666474 0 11779.19656188 0 1887
0.04250000 0.04250150 43999.91377755 0 1803.26038867 0 21666.73987952 0 -1829.96388462 0 15027.66421136 0 1920
0.04350000 0.04349210 42845.76473643 0 1210.31316073 0 22753.44364499 0 1392.84380331 0 11815.33580567 0 2005
0.04450000 0.04448520 41297.81876827 0 131.50290911 0 18650.81563159 0 2985.44205902 0 7502.96836340 0 2151
0.04550000 0.04548030 40165.63887231 0 -259.27326047 0 13866.04566088 0 3859.78108278 0 10879.82369721 0 2274
0.04650000 0.04648670 39202.18201120 0 -205.01386574 0 14225.90025865 0 2863.70004110 0 9225.45918988 0 2311
0.04750000 0.04749250 40222.31926683 0 437.05527232 0 10899.27737525 0 2726.10728495 0 9230.34732468 0 2568
0.04850000 0.04851840 38212.14248444 0 2530.15349467 0 12000.31600794 0 -1792.25384694 0 4614.92650945 0 2493
0.04950000 0.04949480 36012.37197930 0 937.47505158 0 12482.42889854 0 -785.82863327 0 10091.38403104 0 2644
0.05050000 0.05050630 34931.70972875 0 251.76420665 0 13034.62336220 0 1632.02188670 0 5966.17173640 0 2829
0.05150000 0.05149060 35665.80871436 0 -422.70502670 0 12137.07393658 0 2319.51333085 0 8470.51148551 0 2784
0.05250000 0.05249300 36029.39806681 0 -527.80102333 0 10396.55742649 0 1228.87708839 0 6338.63662349 0 3055
0.05350000 0.05348950 35534.65291774 0 579.70642415 0 12077.20801601 0 -707.02970340 0 8133.68055187 0 3009
0.05450000 0.05448610 34983.55691134 0 1229.95357651 0 11524.79386089 0 -977.68957180 0 3471.24576600 0 3336
0.05550000 0.05550870 34716.96133479 0 53.61086556 0 13035.06274510 0 -1495.74727926 0 4334.04000398 0 3349
0.05650000 0.05647670 34167.84255145 0 424.26483601 0 14030.37486670 0 1067.11278027 0 3878.91620821 0 3324
0.05750000 0.05747970 33697.37330779 0 -278.79284594 0 12177.60700940 0 169.15033472 0 498.44475311 0 3639
0.05850000 0.05849280 34055.58021966 0 307.94809849 0 11794.79465494 0 471.98511468 0 -702.77208307 0 3846
0.05950000 0.05951020 34558.78348962 0 61.40639703 0 11413.73983210 0 1037.26440120 0 -336.29049266 0 3787
0.06050000 0.06049470 33741.09190666 0 -575.09180521 0 9738.83417404 0 925.74133115 0 1394.70019608 0 3930
0.06150000 0.06148310 33594.88724560 0 594.20825687 0 10648.87305868 0 -880.02134315 0 -2719.76918657 0 4083
0.06250000 0.06249100 32939.54764540 0 614.78895206 0 9577.93215487 0 -552.47457026 0 -1806.77545190 0 4303
0.06350000 0.06350600 32761.37787813 0 211.91547270 0 9565.26694268 0 2034.11216604 0 -2033.77164429 0 4470
0.06450000 0.06451750 33036.98080420 0 -453.06638532 0 9988.83206142 0 622.37599634 0 -725.92646361 0 4479
0.06550000 0.06550280 32921.09356346 0 972.89260896 0 9240.00276397 0 29.41404908 0 -727.02162550 0 4636
0.06650000 0.06648880 32305.40827028 0 831.69581454 0 9783.94781363 0 -308.17657760 0 2202.34089512 0 4653
0.06750000 0.06749660 31224.63617400 0 381.90173339 0 11228.86947555 0 205.99368962 0 -454.51085661 0 5220
0.06850000 0.06852730 30366.30167249 0 725.68919684 0 11874.10326898 0 -978.34425233 0 1072.81157653 0 5029
0.06950000 0.06949320 29240.05344573 0 842.91765389 0 12505.82603813 0 -271.88574670 0 -27.21735425 0 5040
0.07050000 0.07048030 28585.04338270 0 315.13091050 0 12603.80842556 0 -524.30353542 0 1333.73581825 0 5475
0.07150000 0.07148790 28765.08052731 0 668.49911816 0 13402.71638940 0 424.07919673 0 -152.15829940 0 5509
0.07250000 0.07249820 28221.23433881 0 581.78360683 0 13057.91065607 0 325.43553804 0 45.79633078 0 5916
0.07350000 0.07351270 27148.81051769 0 376.89276830 0 13691.61064829 0 1419.47040725 0 -65.88524665 0 5721
0.07450000 0.07449140 26996.01511309 0 -3.52673983 0 12588.97925257 0 -135.14978721 0 1124.91909348 0 6028
0.07550000 0.07549160 27009.96552026 0 110.12473396 0 11664.18808695 0 1718.08601288 0 510.59588730 0 6183
0.07650000 0.07648840 26404.82541676 0 124.25748504 0 10393.77832963 0 2128.43669080 0 2250.71695277 0 6330
0.07750000 0.07749960 26279.05206070 0 437.70116519 0 10059.51778598 0 -71.59063365 0 1604.68128555 0 6583
0.07850000 0.07848650 25178.94711668 0 504.39399762 0 9253.04145163 0 961.30718026 0 1653.02438948 0 6549
0.07950000 0.07947320 25181.03418547 0 88.08671552 0 9158.28852854 0 880.52773195 0 2605.77129232 0 6828
0.08050000 0.08048110 24373.22871784 0 -0.02928245 0 8387.72076196 0 -43.67070614 0 2116.27676895 0 7147
0.08150000 0.08149960 24036.33187677 0 965.11113774 0 8428.40761880 0 156.89704401 0 1478.64429975 0 7386
0.08250000 0.08250610 23468.09993714 0 161.63359171 0 8755.20963767 0 -404.43219021 0 726.27687148 0 7227
0.08350000 0.08350160 23637.59189207 0 229.78847074 0 7517.64375236 0 755.92862670 0 544.49427828 0 7798
0.08450000 0.08449610 23071.22732977 0 127.64293031 0 8534.92501912 0 -197.10717040 0 -157.45725721 0 7371
0.08550000 0.08548940 22441.81132086 0 424.39774934 0 7716.78306869 0 -151.57611705 0 1465.12229090 0 8256
0.08650000 0.08650700 22476.08318732 0 -20.20700003 0 8060.14982301 0 782.75514986 0 -400.51948546 0 8037
0.08750000 0.08749060 22196.74550657 0 193.14064124 0 8197.85242489 0 272.02195540 0 552.69645863 0 8155
0.08850000 0.08849210 21529.76225943 0 1039.59532750 0 7118.36552361 0 114.62731026 0 188.08773785 0 8718
0.08950000 0.08949900 20952.74266173 0 -224.41701475 0 8120.75170994 0 703.78156529 0 2187.42384556 0 8571
0.09050000 0.09049190 21134.09795505 0 201.01877670 0 7486.84301085 0 718.47892340 0 249.32563154 0 8932
0.09150000 0.09150830 20443.38803114 0 756.50092293 0 7423.06658244 0 -963.24046503 0 1557.62337661 0 9285
0.09250000 0.09250820 19360.96824897 0 632.93546597 0 7733.84210991 0 13.62811982 0 2008.40826620 0 9204
0.09350000 0.09350330 18841.06842870 0 -6.11054197 0 7842.77611620 0 745.79426004 0 875.83512254 0 9349
0.09450000 0.09448040 18762.19919756 0 183.10184036 0 7263.90012574 0 1546.84751090 0 1303.59415109 0 9564
0.09550000 0.09549270 18706.94679748 0 82.94044327 0 6622.02761152 0 183.36547010 0 803.33694351 0 10155
0.09650000 0.09649430 17594.09974926 0 208.51904285 0 5799.36001718 0 625.53625788 0 2442.90303466 0 9913
0.09750000 0.09749140 17970.43120590 0 168.87352349 0 5329.41803301 0 892.03517019 0 1589.73128226 0 10476
0.09850000 0.09850240 17342.77272860 0 210.04370153 0 4200.02821848 0 881.03741612 0 3012.79364475 0 10575
0.09950000 0.09950330 17645.94693185 0 266.01229575 0 4527.64309572 0 198.97125237 0 957.49223820 0 10882
0.10050000 0.10051200 16847.80788809 0 244.35071861 0 4524.16098621 0 -418.98565043 0 2600.35589804 0 10875
0.10150000 0.10150300 16688.86112283 0 233.66163104 0 4730.35239814 0 -512.15349969 0 989.10693654 0 11118
0.10250000 0.10250800 16045.93408965 0 391.03101167 0 4897.61448484 0 -511.37139812 0 1488.73912195 0 11575
0.10350000 0.10349800 16147.10200312 0 137.09185964 0 5812.82710317 0 377.71331587 0 1217.67282436 0 11364
0.10450000 0.10450100 16145.78385441 0 173.82976264 0 5566.27837158 0 -15.35434540 0 491.37837757 0 12093
0.10550000 0.10551000 15559.31752430 0 139.43486898 0 6005.34272223 0 -388.13547833 0 1763.81478853 0 12067
0.10650000 0.10649700 15761.87304270 0 6.04545838 0 5710.04445752 0 413.02761826 0 755.16190354 0 12054
0.10750000 0.10749900 15594.68784801 0 86.33511558 0 5605.72397172 0 250.43397491 0 1092.84963383 0 12807
0.10850000 0.10850100 15910.16477254 0 -30.51536232 0 5401.33402970 0 -41.17479156 0 681.33678813 0 12736
0.10950000 0.10950300 15512.52324510 0 82.73459238 0 5221.07719364 0 298.80014644 0 414.02062362 0 12933
0.11050000 0.11050200 15514.72015961 0 110.77062682 0 5211.79522981 0 2.17445107 0 925.17892104 0 13428
0.11150000 0.11150900 15454.85423905 0 -75.86242408 0 5279.46019691 0 327.50063768 0 -325.71564464 0 13453
0.11250000 0.11250000 15505.93250155 0 359.21419718 0 4746.79630329 0 36.01830365 0 135.41341695 0 13668
0.11350000 0.11349100 14892.11458570 0 245.49750799 0 5226.13009703 0 -213.88830193 0 -523.03811266 0 13791
0.11450000 0.11448600 14785.67407739 0 200.46735115 0 5082.00152019 0 139.05590122 0 34.10501080 0 14205
0.11550000 0.11549300 14617.61011690 0 268.91771519 0 5237.80669768 0 -376.67747067 0 -989.91979492 0 14776
0.11650000 0.11649800 13765.42697604 0 265.61245730 0 5310.74425962 0 -351.87101041 0 -362.27120373 0 14553
0.11750000 0.11747300 13687.87589361 0 89.96397898 0 5264.89465367 0 546.01893696 0 -123.48636804 0 14568
0.11850000 0.11849100 13657.44862756 0 28.92128115 0 4610.76335645 0 861.03890328 0 -452.78847563 0 16015
0.11950000 0.11950300 13534.64110610 0 260.17838925 0 4720.16969936 0 419.17678199 0 -280.18678820 0 15270
0.12050000 0.12050700 13197.63441931 0 317.19601015 0 4484.70440150 0 -102.13290818 0 639.89309424 0 15999
0.12150000 0.12150000 13177.64249721 0 68.00966299 0 4741.05137183 0 399.17167841 0 1015.31832364 0 15670
0.12250000 0.12250700 12751.44108105 0 72.23641667 0 4412.95317340 0 -130.33415059 0 774.50024357 0 16887
0.12350000 0.12352200 12978.38235058 0 -85.80412134 0 4553.34699556 0 72.52992445 0 647.23298564 0 16407
0.12450000 0.12449800 13098.11419172 0 80.04875454 0 4761.82319858 0 -7.22380644 0 177.16138351 0 16306
0.12550000 0.12549900 12713.76399710 0 137.99149614 0 4334.13886513 0 31.87624102 0 1381.52969356 0 17523
0.12650000 0.12650100 12782.30773001 0 -11.36573725 0 4730.76981190 0 29.76083203 0 324.80172820 0 17154
0.12750000 0.12750600 13008.48007946 0 110.29279792 0 4752.07988271 0 382.21808908 0 792.69399113 0 18007
0.12850000 0.12850300 13056.15312446 0 -43.96366469 0 4658.23867914 0 339.65946107 0 915.19943685 0 17496
0.12950000 0.12949900 12574.15007959 0 37.16663087 0 4151.36656195 0 133.41971703 0 1586.18326532 0 18405
0.13050000 0.13049000 12719.03659194 0 159.48720622 0 4296.59359605 0 316.45455150 0 1258.74414124 0 18100
0.13150000 0.13148800 12405.64673619 0 181.70460273 0 4372.42010058 0 -47.86824086 0 1228.80019638 0 19059
0.13250000 0.13249300 12310.19080046 0 255.30453439 0 4311.35686160 0 19.73081881 0 1368.02965385 0 18957
0.13350000 0.13349100 12059.08347125 0 42.41824517 0 4287.63018482 0 41.19654101 0 1610.68984675 0 19468
0.13450000 0.13450700 11993.94495584 0 -106.02715885 0 3868.17329623 0 525.49755846 0 1078.63779383 0 19953
0.13550000 0.13551000 12149.26681214 0 -25.23496844 0 3195.25837990 0 637.05907451 0 869.59039303 0 19956
0.13650000 0.13649900 12333.91747724 0 73.69516791 0 3257.31023041 0 -126.41046127 0 507.79262438 0 19723
0.13750000 0.13749600 11923.31415414 0 229.14367633 0 3074.30725120 0 -110.51248937 0 1154.44562458 0 20946
0.13850000 0.13851100 11864.98607374 0 46.71310321 0 3317.17615098 0 -185.44155432 0 360.71249288 0 20955
0.13950000 0.13949800 11463.60979162 0 160.78118887 0 2955.35531472 0 -39.16856922 0 238.74968506 0 20506
0.14050000 0.14048300 11473.38606121 0 209.09133909 0 3358.37928273 0 -289.74446481 0 -448.99220735 0 21447
0.14150000 0.14148400 10997.31468554 0 276.26309888 0 3550.03810513 0 -246.24226201 0 -275.22395831 0 21771
0.14250000 0.14249400 10999.51160005 0 267.89944531 0 3829.51858532 0 87.65930581 0 -494.82533644 0 22470
0.14350000 0.14350900 10712.28699620 0 23.13581662 0 3704.61301049 0 -212.72503570 0 -579.73059021 0 22519
0.14450000 0.14449900 10618.47874635 0 85.51588616 0 3672.80168830 0 203.56609908 0 -719.68832484 0 22218
0.14550000 0.14550500 10608.71346133 0 -57.75545464 0 3421.71632823 0 455.62139690 0 -321.65464816 0 23559
0.14650000 0.14650700 10325.04785899 0 136.99409695 0 3254.02584321 0 567.36415840 0 16.26397786 0 23044
0.14750000 0.14750500 10583.26220666 0 61.13639623 0 2867.37987292 0 308.45338883 0 -71.93708707 0 23649
0.14850000 0.14849900 10366.03129929 0 -83.64883836 0 2464.31196662 0 678.97071120 0 906.96649970 0 23640
0.14950000 0.14949500 10278.57213240 0 -5.54745081 0 2215.96176512 0 28.85888878 0 683.43154612 0 24457
0.15050000 0.15050000 10104.74127130 0 207.22396175 0 2177.44985365 0 -63.76456507 0 754.71043760 0 24591
0.15150000 0.15149900 9999.41020481 0 321.10432107 0 2346.35962624 0 -313.13830903 0 766.49908090 0 25020
0.15250000 0.15250500 9636.22728156 0 173.83525493 0 2582.50596759 0 -93.54813517 0 834.30245361 0 25297
0.15350000 0.15350100 9625.49535414 0 -88.64121675 0 2541.65434216 0 338.71259092 0 497.83730625 0 25452
0.15450000 0.15450400 9571.45125704 0 49.97255543 0 2777.87757552 0 -121.15104791 0 368.82569819 0 26061
0.15550000 0.15549900 9451.06034155 0 327.54237906 0 2882.35184534 0 -317.71118660 0 344.15764355 0 26128
0.15650000 0.15649500 9191.92328979 0 226.27780135 0 3151.69356504 0 -247.18913217 0 500.95472794 0 26331
0.15750000 0.15749700 9070.06044157 0 105.14312045 0 3366.51885101 0 90.55264222 0 411.03062296 0 27345
0.15850000 0.15849900 9063.60151289 0 -26.90594162 0 3118.93756960 0 340.99848047 0 437.66271919 0 26980
0.15950000 0.15949700 8954.57963002 0 -19.18016218 0 2833.70117338 0 220.38457816 0 92.88093223 0 27777
0.16050000 0.16050000 9036.29386545 0 27.53755454 0 2764.66313471 0 188.65673871 0 457.09442808 0 28224
0.16150000 0.16150500 8847.01869530 0 -42.53314380 0 2375.66646588 0 416.29003632 0 931.10839331 0 28075
0.16250000 0.16249700 8839.69198539 0 132.77272571 0 2267.51236425 0 83.51768256 0 605.29059215 0 28590
0.16350000 0.16349900 8695.02516450 0 118.75641109 0 2035.74886736 0 128.58760355 0 575.38069947 0 29163
0.16450000 0.16449100 8698.61711973 0 71.64753374 0 2065.08866072 0 -138.26830737 0 198.12653874 0 28996
0.16550000 0.16550500 8302.60130903 0 326.56145673 0 2180.95393231 0 -432.39012435 0 294.51945851 0 30777
0.16650000 0.16650700 8237.60559306 0 36.88641442 0 2208.60210150 0 123.97188615 0 323.05737807 0 29211
0.16750000 0.16749900 8300.72294712 0 -213.03370219 0 2329.28960045 0 248.13819924 0 118.16324417 0 30922
0.16850000 0.16850800 8323.70267296 0 112.40952505 0 1906.37257149 0 312.16727282 0 24.43353402 0 30867
0.16950000 0.16949900 8322.75799971 0 185.18561378 0 2153.23985569 0 -425.50389580 0 -174.36471133 0 30852
0.17050000 0.17049200 8044.85929798 0 181.03234688 0 2186.35834202 0 -67.83456890 0 314.96284654 0 31257
0.17150000 0.17149500 7925.90736150 0 76.36672581 0 2391.57212698 0 141.60432206 0 462.23081422 0 32608
0.17250000 0.17250900 7941.79105345 0 -27.95848336 0 2369.11966063 0 70.28742396 0 341.16654443 0 32361
0.17350000 0.17350400 7848.75172368 0 131.40844179 0 2276.64054406 0 176.56711813 0 226.46673600 0 32508
0.17450000 0.17449800 7868.66675377 0 13.87186748 0 2303.75046919 0 -77.01470575 0 683.96429789 0 32791
0.17550000 0.17549800 7854.32090198 0 -4.89838340 0 2285.81266217 0 -44.28474374 0 180.01847083 0 33633
0.17650000 0.17650100 7804.63768020 0 44.52585511 0 2326.82905619 0 147.96988187 0 211.34207801 0 33984
0.17750000 0.17750300 7780.68032740 0 55.59467937 0 2238.96346011 0 35.28057975 0 186.81462589 0 34069
0.17850000 0.17849800 7676.51362561 0 103.73841330 0 2184.65573327 0 -122.92395793 0 151.33555491 0 34536
