### header ###
fiducial parameters:
Omega_m = 0.31
Omega_nu = 0
Omega_de = 0.69
Omega_k = 0
H_0 = 100
w_de = -1
zeff = 0
beta = 0
fgrowth = 0
b_1 = 2
gamma = 0.55
Lx = 3500 Ly = 3500 Lz = 3500
nx = 700 ny = 700 nz = 700
xoffset = -983.599254 yoffset = -42.9823471 zoffset = 800.977702
bins = 400 dk = 0.001
kx_ny = 0.628318531 ky_ny = 0.628318531 kz_ny = 0.628318531
############################
A(data) = 9.03232212 (not used)
A(ran) = 9.01523381 (used)
Ngal = 500407
weighted Ngal = 0
Nran = 25229228
weighted Nran = 0
SN(data) = 6782.77845
SN(ran) = 133.824935
SN(data+ran) = 6916.60338
############################
13 columns: k_central k_mean P_0(k) sigma^{lin}_{P_0(k)} P^img_1(k) sigma^{lin}_{P_1(k)} P_2(k) sigma^{lin}_{P_2(k)} P^img_3(k) sigma^{lin}_{P_3(k)} P_4(k) sigma^{lin}_{P_4(k)} N_modes
### header ###
0.00050000 0 0 0 0 0 0 0 0 0 0 0 0
0.00150000 0.00179520 55549.31308103 0 -28099.52527461 0 -28269.34676672 0 37189.58862285 0 -8338.04852475 0 3
0.00250000 0.00253879 49981.89231390 0 -8238.63814289 0 24151.01081452 0 -6139.96964379 0 11067.72579578 0 6
0.00350000 0.00331552 35251.36079087 0 7641.68154595 0 38376.80122744 0 -24026.33591572 0 49473.96567774 0 7
0.00450000 0.00420575 26626.93347435 0 5421.27102893 0 37837.45871369 0 26679.76926847 0 31434.44151030 0 24
0.00550000 0.00557378 29254.22354436 0 -8134.66916340 0 27578.63684280 0 36213.06012037 0 4483.58397510 0 45
0.00650000 0.00659388 45022.57748488 0 -15636.31937809 0 1633.35101998 0 36783.48897451 0 10206.35955225 0 40
0.00750000 0.00754703 64785.14170742 0 -1311.59091993 0 13682.82299022 0 7263.73535715 0 -1462.37614775 0 57
0.00850000 0.00846663 74450.90650465 0 1625.31031285 0 -9963.52360619 0 -5195.66987726 0 10432.72962400 0 75
0.00950000 0.00948925 77043.70501675 0 -10684.79261103 0 5465.05553524 0 803.32815585 0 -3405.07470077 0 112
0.01050000 0.01054430 88613.31593378 0 -11684.72923768 0 10753.97344914 0 -23233.57931252 0 -11641.34017598 0 105
0.01150000 0.01145670 109520.69231075 0 -6729.11620961 0 -1692.97527995 0 -27288.09489802 0 -60132.84568205 0 144
0.01250000 0.01249090 83773.07387153 0 8356.71131356 0 29527.84924736 0 -25993.67286504 0 -29397.79190800 0 169
0.01350000 0.01339930 97071.43682141 0 10485.47754154 0 31418.84341724 0 -9592.12422264 0 -36179.44732827 0 180
0.01450000 0.01448870 93422.47165561 0 7473.74940033 0 49832.39228107 0 4796.02915760 0 -27036.87772309 0 267
0.01550000 0.01550050 82181.84868740 0 6549.46352505 0 59350.30473135 0 5496.55928941 0 8905.36874486 0 238
0.01650000 0.01653350 82368.47657556 0 2399.93138672 0 53262.87429822 0 18607.53641562 0 -4732.00008403 0 315
0.01750000 0.01747870 75698.64410417 0 1174.40459296 0 56239.58362204 0 11485.24939960 0 17496.77643619 0 297
0.01850000 0.01844180 72817.72025326 0 -1156.51072423 0 52031.50371185 0 5825.18474732 0 15049.96289370 0 388
0.01950000 0.01947590 70490.85824335 0 8185.72545676 0 52221.86635469 0 5549.23031493 0 20363.31049702 0 399
0.02050000 0.02045430 75396.45851245 0 5886.99493724 0 66793.78064965 0 -4149.87266008 0 16165.00685643 0 462
0.02150000 0.02154770 63903.51991204 0 2002.05918325 0 61940.24725458 0 4343.76135071 0 13882.08313685 0 571
0.02250000 0.02255340 61731.10099263 0 -404.86827775 0 57950.10126441 0 17593.98990354 0 12123.34322085 0 510
0.02350000 0.02348930 65783.74920079 0 -2047.10691540 0 55221.97281811 0 5717.96433436 0 10093.21845466 0 555
0.02450000 0.02439640 65711.03133030 0 834.06189147 0 52361.48027220 0 14911.77697063 0 16714.23548550 0 592
0.02550000 0.02547300 64040.71722359 0 -1911.97470351 0 35848.48215639 0 9567.67256408 0 15448.15364977 0 837
0.02650000 0.02652900 65976.52844960 0 2675.80892710 0 32837.83050330 0 6413.50747021 0 18848.97732096 0 723
0.02750000 0.02749970 62635.46085325 0 921.14318907 0 28093.70345114 0 4735.18561008 0 4996.70631409 0 826
0.02850000 0.02848090 59773.86985009 0 -49.89280743 0 24867.64432973 0 4651.90058076 0 13062.41433083 0 831
0.02950000 0.02946900 61050.93625840 0 2508.17336493 0 24228.45205122 0 -3036.39949123 0 -1485.12519757 0 996
0.03050000 0.03053250 56782.66089046 0 2176.14268952 0 22017.03789914 0 -3954.18249954 0 -4192.16326452 0 1041
0.03150000 0.03150510 55064.45404729 0 2508.05253464 0 27924.32134194 0 -482.39739103 0 -1220.18829148 0 1036
0.03250000 0.03246190 52825.79815521 0 435.75799430 0 23986.02253435 0 3320.66924506 0 -4968.77254602 0 1059
0.03350000 0.03345080 52967.27945006 0 -1884.32653432 0 22535.72941643 0 10486.07070846 0 -2469.18911684 0 1302
0.03450000 0.03451200 55766.91746387 0 804.87478367 0 24092.46304266 0 2294.53441280 0 -1036.32082641 0 1339
0.03550000 0.03553350 51683.07306957 0 1732.77238642 0 10874.64996352 0 3728.24082612 0 6479.38195198 0 1365
0.03650000 0.03647120 51829.16788491 0 175.67626929 0 18072.03850228 0 3679.40341642 0 10169.35252722 0 1308
0.03750000 0.03744890 48684.61429205 0 1823.61480166 0 16016.05605223 0 -76.45690915 0 10228.06506767 0 1579
0.03850000 0.03847530 47316.04639414 0 2601.15777183 0 16588.79166662 0 4425.65133931 0 12967.94700663 0 1662
0.03950000 0.03950240 44569.90324880 0 266.80648034 0 18908.84324152 0 1591.20321499 0 13928.87741605 0 1683
0.04050000 0.04050350 45572.79472548 0 -136.05271908 0 18650.59594014 0 -2881.11058864 0 8007.01744544 0 1822
0.04150000 0.04152450 42832.25371216 0 2640.19694279 0 21675.52753759 0 -6407.60875473 0 7845.76391994 0 1887
0.04250000 0.04250150 42529.07950891 0 1763.74888110 0 22715.21733241 0 -2568.50063755 0 5756.58609155 0 1920
0.04350000 0.04349210 39685.72289623 0 373.16350590 0 23729.86230175 0 3827.01410277 0 6220.48656081 0 2005
0.04450000 0.04448520 40641.60040226 0 -1361.63663261 0 20536.31751518 0 6558.74548888 0 2698.59093063 0 2151
0.04550000 0.04548030 44306.16366112 0 -617.14953671 0 18443.75643843 0 3779.58271836 0 3598.90846854 0 2274
0.04650000 0.04648670 41541.67627958 0 1332.92295988 0 15830.19708415 0 2455.49135483 0 5197.46036259 0 2311
0.04750000 0.04749250 40122.13996489 0 1352.04710075 0 16572.09511630 0 -1368.28229902 0 7253.71742695 0 2568
0.04850000 0.04851840 38829.47546352 0 2155.14018674 0 15984.64017464 0 -2677.33578269 0 4267.48447871 0 2493
0.04950000 0.04949480 35383.39535330 0 1097.76413160 0 17565.53986055 0 2269.05020441 0 4851.32549598 0 2644
0.05050000 0.05050630 34783.52784463 0 680.76229499 0 18567.55257142 0 616.33448142 0 4644.17842624 0 2829
0.05150000 0.05149060 33599.83030326 0 216.67289108 0 17354.63606699 0 1649.86083257 0 2761.45563951 0 2784
0.05250000 0.05249300 33946.28372248 0 592.69238586 0 16574.07233936 0 3178.81447474 0 5953.87999968 0 3055
0.05350000 0.05348950 32687.34185893 0 -389.89081303 0 15282.06691234 0 -53.54825349 0 7553.99170304 0 3009
0.05450000 0.05448610 34084.90902846 0 244.87797810 0 17364.41233659 0 427.15487706 0 5776.99542741 0 3336
0.05550000 0.05550870 33300.50070042 0 1087.66162020 0 15125.31706161 0 1673.52160191 0 7674.28375737 0 3349
0.05650000 0.05647670 32972.61120887 0 -1099.18223992 0 17014.33400842 0 593.61508995 0 8206.49728351 0 3324
0.05750000 0.05747970 33084.87354065 0 735.18975367 0 17411.75584441 0 764.36587690 0 3479.48419544 0 3639
0.05850000 0.05849280 32622.97226361 0 794.77337072 0 17918.80371477 0 -2809.91957374 0 6256.53792802 0 3846
0.05950000 0.05951020 31387.53738538 0 828.80028121 0 18187.04697720 0 -1167.72597283 0 4102.73785913 0 3787
0.06050000 0.06049470 31305.48262820 0 95.63454488 0 18915.43398507 0 2686.63971566 0 2183.23872340 0 3930
0.06150000 0.06148310 32499.61551352 0 -108.09632278 0 17479.75034869 0 566.56448152 0 151.07522054 0 4083
0.06250000 0.06249100 30522.83183178 0 701.89002189 0 17043.00374286 0 -612.39101987 0 1702.81745699 0 4303
0.06350000 0.06350600 31583.06277733 0 191.49075844 0 17172.07247069 0 2584.45023694 0 80.71200303 0 4470
0.06450000 0.06451750 30368.49858701 0 94.44700274 0 14378.25628035 0 990.41300222 0 -673.37516992 0 4479
0.06550000 0.06550280 30075.10065336 0 384.40731440 0 14217.99136639 0 280.97328360 0 1160.65190809 0 4636
0.06650000 0.06648880 28061.95803638 0 891.15530592 0 14531.16153068 0 791.17043091 0 1370.55610555 0 4653
0.06750000 0.06749660 28437.85011011 0 530.18357713 0 13821.99752483 0 1115.38448448 0 869.56732543 0 5220
0.06850000 0.06852730 28030.98154170 0 184.87804574 0 12909.06969759 0 799.10019386 0 460.23491738 0 5029
0.06950000 0.06949320 27392.00895464 0 -155.34053007 0 13734.34063563 0 67.20866796 0 2335.61671425 0 5040
0.07050000 0.07048030 27426.93989545 0 83.97815584 0 12165.96336247 0 998.17030738 0 442.53767250 0 5475
0.07150000 0.07148790 27580.94360304 0 373.05915246 0 13508.82736054 0 -428.66196041 0 2695.85577206 0 5509
0.07250000 0.07249820 26829.70868421 0 370.90507778 0 11883.55000140 0 1276.64899455 0 1221.55037848 0 5916
0.07350000 0.07351270 27551.72463998 0 -591.84327840 0 12076.21940448 0 1768.72489248 0 2365.82428885 0 5721
0.07450000 0.07449140 27297.32193899 0 -52.72484993 0 10805.39223340 0 1982.97898067 0 2761.78517669 0 6028
0.07550000 0.07549160 27264.69775843 0 247.25723652 0 9881.22718841 0 6.79551795 0 3258.60640997 0 6183
0.07650000 0.07648840 27197.25248278 0 437.93843196 0 10146.82316885 0 66.63560280 0 3113.84072792 0 6330
0.07750000 0.07749960 26584.09364129 0 676.87924858 0 9958.86614742 0 104.50832200 0 1867.08075537 0 6583
0.07850000 0.07848650 25389.96075597 0 404.37287352 0 9995.00539121 0 -806.21929535 0 2769.82588382 0 6549
0.07950000 0.07947320 25613.71649945 0 109.26914560 0 10495.85796263 0 15.75055893 0 -613.58833828 0 6828
0.08050000 0.08048110 24428.70080938 0 420.71242524 0 9669.55447477 0 -513.95606805 0 -760.29060047 0 7147
0.08150000 0.08149960 24437.04908454 0 433.27657936 0 10699.24830854 0 -332.61725159 0 -1760.59630877 0 7386
0.08250000 0.08250610 23977.78410491 0 422.86540146 0 9482.06978995 0 849.48423138 0 -1396.05129851 0 7227
0.08350000 0.08350160 23172.06570607 0 241.07621753 0 10727.00632346 0 503.65803126 0 -1758.78385429 0 7798
0.08450000 0.08449610 22972.91540517 0 216.82118281 0 8613.99197256 0 -5.72668608 0 -1008.57159916 0 7371
0.08550000 0.08548940 22810.01419379 0 -41.46577288 0 8513.95547007 0 2646.35928801 0 -921.88684463 0 8256
0.08650000 0.08650700 23019.27030146 0 323.30782633 0 7257.41922791 0 1043.99684573 0 91.89935082 0 8037
0.08750000 0.08749060 21807.78179147 0 245.02407291 0 7489.16075566 0 -103.49345734 0 969.65875079 0 8155
0.08850000 0.08849210 21442.87429031 0 786.32733286 0 6455.45755289 0 -407.39912327 0 444.54455391 0 8718
0.08950000 0.08949900 21088.07259594 0 319.78836927 0 7088.46551704 0 945.65196741 0 367.30872872 0 8571
0.09050000 0.09049190 19876.25454876 0 314.74315509 0 6977.56527226 0 -289.95756552 0 488.30269724 0 8932
0.09150000 0.09150830 19385.79338301 0 573.71543827 0 6504.78926836 0 437.26837303 0 324.93573999 0 9285
0.09250000 0.09250820 19055.48728549 0 273.12590495 0 6118.49480439 0 814.39621118 0 421.59668333 0 9204
0.09350000 0.09350330 18682.78073780 0 77.86974487 0 5630.29646058 0 93.53308630 0 -268.15209048 0 9349
0.09450000 0.09448040 18280.08630697 0 480.55417975 0 6169.88063492 0 -198.17706777 0 77.56536237 0 9564
0.09550000 0.09549270 17960.98447348 0 332.53267038 0 6259.47080890 0 -536.55682614 0 462.08581786 0 10155
0.09650000 0.09649430 17507.54131732 0 230.40250835 0 6405.96106884 0 306.81449060 0 465.15490744 0 9913
0.09750000 0.09749140 17559.93772854 0 -284.59270027 0 5693.07329289 0 424.78989858 0 -1143.79058918 0 10476
0.09850000 0.09850240 17249.95309029 0 387.34019528 0 6344.68912298 0 -789.60073549 0 -1079.85708138 0 10575
0.09950000 0.09950330 16882.73882890 0 631.04282411 0 6126.07415947 0 424.46365677 0 -237.83027633 0 10882
0.10050000 0.10051200 16391.50874306 0 77.75594470 0 6262.06316803 0 451.11442677 0 302.93803493 0 10875
0.10150000 0.10150300 16180.38525804 0 57.54520992 0 5864.98185378 0 652.01676700 0 -702.49527184 0 11118
0.10250000 0.10250800 16125.13285796 0 320.05199902 0 5717.14049141 0 494.93628063 0 248.58856672 0 11575
0.10350000 0.10349800 15755.83152778 0 95.01369684 0 5455.18040449 0 219.67607323 0 1323.28948973 0 11364
0.10450000 0.10450100 15669.27309583 0 -85.18514068 0 4660.25984050 0 644.88887785 0 169.39419223 0 12093
0.10550000 0.10551000 15800.42889246 0 -57.69075551 0 4489.80124318 0 115.31714142 0 579.94478938 0 12067
0.10650000 0.10649700 15456.94130784 0 570.92865220 0 5433.22224390 0 -459.93394010 0 -122.93384404 0 12054
0.10750000 0.10749900 14912.98527361 0 119.62529078 0 4644.11251880 0 -191.10410148 0 1002.73220037 0 12807
0.10850000 0.10850100 15101.48053910 0 -278.66762182 0 4908.44527340 0 508.42643421 0 -272.35368950 0 12736
0.10950000 0.10950300 15284.92290121 0 266.34402984 0 4853.02810473 0 -445.86160416 0 -1213.47671763 0 12933
0.11050000 0.11050200 14930.56058974 0 417.18198361 0 5680.92435561 0 -737.69863005 0 -805.17356404 0 13428
0.11150000 0.11150900 14480.19311390 0 147.47008382 0 5485.00351905 0 -18.46078253 0 -598.71193163 0 13453
0.11250000 0.11250000 14433.61852616 0 131.47874306 0 5932.30629914 0 246.13790857 0 -482.44682160 0 13668
0.11350000 0.11349100 14547.85808101 0 52.55096415 0 5417.72301199 0 613.11270629 0 -904.99147355 0 13791
0.11450000 0.11448600 14742.61455287 0 -150.74788028 0 5239.75096703 0 1125.22666152 0 472.74414864 0 14205
0.11550000 0.11549300 14725.69831110 0 -345.39670333 0 4127.84859205 0 663.04308095 0 -107.38232557 0 14776
0.11650000 0.11649800 14165.59495517 0 139.01306139 0 3579.37789849 0 212.89309966 0 809.23126515 0 14553
0.11750000 0.11747300 14682.19940367 0 405.37686346 0 4075.36430426 0 363.53882341 0 610.42258446 0 14568
0.11850000 0.11849100 14099.02844533 0 244.99221765 0 3852.71800261 0 -302.19328091 0 1379.61837793 0 16015
0.11950000 0.11950300 13927.88880451 0 166.39101009 0 4231.97135555 0 -105.20089930 0 255.32540508 0 15270
0.12050000 0.12050700 13487.84682691 0 167.35655402 0 4450.36662761 0 -646.55743442 0 123.82359442 0 15999
0.12150000 0.12150000 13184.56277793 0 442.32786716 0 4828.47758501 0 -160.06609320 0 500.58784322 0 15670
0.12250000 0.12250700 13182.03632624 0 31.35842827 0 4997.67295648 0 -85.12088093 0 7.52762873 0 16887
0.12350000 0.12352200 13127.44300051 0 24.02249132 0 5248.64847082 0 173.36401677 0 -166.24052145 0 16407
0.12450000 0.12449800 12947.95508453 0 274.95483628 0 5182.89481935 0 -494.64958328 0 -227.96942552 0 16306
0.12550000 0.12549900 12767.14901984 0 141.75371225 0 5521.95562121 0 0.32020029 0 12.59150570 0 17523
0.12650000 0.12650100 12631.81908564 0 125.54487695 0 5600.11085513 0 276.42567055 0 -416.59430898 0 17154
0.12750000 0.12750600 12593.70261878 0 65.16169286 0 5443.89924845 0 231.56906996 0 481.19677724 0 18007
0.12850000 0.12850300 12532.18901233 0 -75.67217128 0 5250.92227734 0 494.84510867 0 226.84570375 0 17496
0.12950000 0.12949900 12428.93403006 0 -93.04152668 0 4778.30005746 0 207.80943947 0 -181.88255280 0 18405
0.13050000 0.13049000 12505.16696378 0 338.62141897 0 4882.35691352 0 275.88632804 0 724.13158445 0 18100
0.13150000 0.13148800 12090.38950311 0 43.86260662 0 4142.02967526 0 339.66934719 0 472.04223445 0 19059
0.13250000 0.13249300 12195.07247981 0 31.42115018 0 4410.05324624 0 613.79155287 0 837.83179678 0 18957
0.13350000 0.13349100 12275.25985965 0 195.36611565 0 3833.04463311 0 144.00115580 0 423.56621719 0 19468
0.13450000 0.13450700 11677.14988260 0 280.52511304 0 4271.62566257 0 -915.68275804 0 408.57996482 0 19953
0.13550000 0.13551000 11373.64614217 0 127.33096845 0 4088.05148559 0 -191.27326390 0 461.55526301 0 19956
0.13650000 0.13649900 11489.20384573 0 17.86322178 0 4657.01939159 0 285.05734769 0 -362.41290472 0 19723
0.13750000 0.13749600 11336.95766975 0 19.81155542 0 4418.81893516 0 182.71957723 0 -410.64506447 0 20946
0.13850000 0.13851100 11493.70752049 0 95.56325501 0 4235.37657305 0 266.71530839 0 -399.41883129 0 20955
0.13950000 0.13949800 11130.99693385 0 -21.80613411 0 3915.38498918 0 124.96489151 0 54.49040028 0 20506
0.14050000 0.14048300 11051.90801127 0 116.93626741 0 3699.26352365 0 400.66228490 0 -7.58184858 0 21447
0.14150000 0.14148400 11175.81398998 0 42.56071508 0 3412.23664210 0 477.83989186 0 -159.46743399 0 21771
0.14250000 0.14249400 11005.55311497 0 241.27613675 0 3216.73321929 0 111.69662629 0 186.32471395 0 22470
0.14350000 0.14350900 10808.01754624 0 91.57618470 0 3132.97585336 0 171.78663214 0 182.51526418 0 22519
0.14450000 0.14449900 10677.43294740 0 90.97444981 0 3021.53736452 0 -257.98586856 0 -393.12027737 0 22218
0.14550000 0.14550500 10415.05544672 0 135.24645145 0 3110.35861842 0 -124.51232712 0 -319.25012522 0 23559
0.14650000 0.14650700 10215.29000975 0 37.77528603 0 2842.67556918 0 186.17092994 0 328.00482957 0 23044
0.14750000 0.14750500 10340.78875150 0 -72.19083070 0 2815.52170576 0 501.44683680 0 -501.87303821 0 23649
0.14850000 0.14849900 10343.11748088 0 208.57616263 0 3113.68694391 0 -163.27468685 0 -148.36093266 0 23640
0.14950000 0.14949500 9985.60259708 0 285.70324055 0 2758.89623410 0 -100.82255851 0 54.46623422 0 24457
0.15050000 0.15050000 9748.33582932 0 65.43301180 0 3214.86584195 0 131.39745722 0 816.41737254 0 24591
0.15150000 0.15149900 9771.56820033 0 -31.13785805 0 2848.36557778 0 295.07967171 0 453.72545967 0 25020
0.15250000 0.15250500 9760.06735284 0 122.05507824 0 3029.30345734 0 224.18743718 0 767.53822146 0 25297
0.15350000 0.15350100 9674.16799525 0 60.84211953 0 2918.77668802 0 122.54938400 0 900.49109416 0 25452
0.15450000 0.15450400 9667.99466546 0 4.01177461 0 2711.11334337 0 248.43038887 0 1052.76033774 0 26061
0.15550000 0.15549900 9385.02109119 0 133.69213443 0 2440.53036698 0 158.00099355 0 1308.49327046 0 26128
0.15650000 0.15649500 9606.32727499 0 16.85934169 0 2487.65418335 0 386.39662049 0 1283.58025985 0 26331
0.15750000 0.15749700 9409.20912002 0 22.25716066 0 2454.84326505 0 -78.77729026 0 1172.25161674 0 27345
0.15850000 0.15849900 9239.27778218 0 291.79857988 0 2413.95868590 0 -227.31144963 0 611.96591691 0 26980
0.15950000 0.15949700 8992.09194539 0 213.71584414 0 2558.39483078 0 -382.71129639 0 1100.36857376 0 27777
0.16050000 0.16050000 8655.16215060 0 128.82816569 0 2734.16996122 0 -42.19723557 0 649.53754897 0 28224
0.16150000 0.16150500 8647.98922470 0 30.09674026 0 2817.91634258 0 -3.67450430 0 552.25707573 0 28075
0.16250000 0.16249700 8600.71162431 0 106.89735669 0 2856.50514606 0 -27.42628082 0 81.70819392 0 28590
0.16350000 0.16349900 8515.61414053 0 25.74608060 0 2804.18562686 0 149.96138488 0 373.36891741 0 29163
0.16450000 0.16449100 8379.05393419 0 96.57284707 0 2859.19636634 0 5.50681888 0 130.70982297 0 28996
0.16550000 0.16550500 8430.40681101 0 107.69923049 0 2702.76506821 0 -54.45590873 0 80.19473951 0 30777
0.16650000 0.16650700 8391.92785326 0 -20.79148914 0 2638.76894835 0 349.08532281 0 340.69201090 0 29211
0.16750000 0.16749900 8360.41311452 0 -146.75169277 0 2532.53714692 0 338.70050789 0 373.99393959 0 30922
0.16850000 0.16850800 8379.15279535 0 122.97119159 0 2337.25341557 0 -50.62141413 0 357.47973317 0 30867
0.16950000 0.16949900 8189.16362798 0 277.64056428 0 2398.75603745 0 144.28455777 0 681.35985573 0 30852
0.17050000 0.17049200 8211.68200177 0 -46.33314684 0 2468.63988821 0 -74.36621545 0 898.59845230 0 31257
0.17150000 0.17149500 8087.20482528 0 -24.13112874 0 2402.89722131 0 157.94716915 0 620.47566529 0 32608
0.17250000 0.17250900 8148.48775571 0 34.83537503 0 2195.38766068 0 78.65316459 0 502.44972827 0 32361
0.17350000 0.17350400 8027.87714877 0 175.36979972 0 2077.07282941 0 59.38183045 0 784.02057262 0 32508
0.17450000 0.17449800 8030.97479824 0 129.86401089 0 2203.31852208 0 -198.92072333 0 578.72110799 0 32791
0.17550000 0.17549800 7833.47218322 0 104.33520513 0 2391.62704985 0 88.96559118 0 839.38062152 0 33633
0.17650000 0.17650100 7678.13934235 0 60.49226090 0 2442.14509915 0 -126.42144584 0 541.02754718 0 33984
0.17750000 0.17750300 7508.35080396 0 117.49538216 0 2351.35760676 0 24.76329089 0 183.20948917 0 34069
0.17850000 0.17849800 7568.12884795 0 93.56109696 0 2264.08517760 0 -34.02394465 0 316.08766677 0 34536
