### header ###
fiducial parameters:
Omega_m = 0.31
Omega_nu = 0
Omega_de = 0.69
Omega_k = 0
H_0 = 100
w_de = -1
zeff = 0
beta = 0
fgrowth = 0
b_1 = 2
gamma = 0.55
Lx = 3500 Ly = 3500 Lz = 3500
nx = 700 ny = 700 nz = 700
xoffset = -983.599254 yoffset = -42.9823471 zoffset = 800.977702
bins = 400 dk = 0.001
kx_ny = 0.628318531 ky_ny = 0.628318531 kz_ny = 0.628318531
############################
A(data) = 9.05114374 (not used)
A(ran) = 9.0468739 (used)
Ngal = 502021
weighted Ngal = 0
Nran = 25229228
weighted Nran = 0
SN(data) = 6755.56223
SN(ran) = 134.29461
SN(data+ran) = 6889.85684
############################
13 columns: k_central k_mean P_0(k) sigma^{lin}_{P_0(k)} P^img_1(k) sigma^{lin}_{P_1(k)} P_2(k) sigma^{lin}_{P_2(k)} P^img_3(k) sigma^{lin}_{P_3(k)} P_4(k) sigma^{lin}_{P_4(k)} N_modes
### header ###
0.00050000 0 0 0 0 0 0 0 0 0 0 0 0
0.00150000 0.00179520 13758.17715813 0 1793.84660997 0 10692.89922559 0 -4027.59239810 0 -8079.94402280 0 3
0.00250000 0.00253879 17379.79073820 0 1874.35254242 0 5412.27466399 0 -10282.87808485 0 820.15542259 0 6
0.00350000 0.00331552 16666.34274904 0 -1210.64269791 0 9581.05177348 0 -10491.36527244 0 -17434.49390966 0 7
0.00450000 0.00420575 20197.88283394 0 -12866.33971025 0 -4913.10273218 0 13479.71824320 0 -11985.92621786 0 24
0.00550000 0.00557378 44123.27052764 0 -13698.20139184 0 168.62966598 0 -18542.28805448 0 -20681.86310188 0 45
0.00650000 0.00659388 68698.50553525 0 2021.32612356 0 -12772.64130613 0 -16399.74717249 0 14980.97977789 0 40
0.00750000 0.00754703 53937.21720899 0 -4186.86870053 0 5382.52844144 0 -13782.89244644 0 -527.71754058 0 57
0.00850000 0.00846663 54113.73929037 0 -907.34217208 0 9537.25628260 0 -1244.65093462 0 -6486.65373903 0 75
0.00950000 0.00948925 64736.48005089 0 10563.81951319 0 23359.35266858 0 4231.07062060 0 -180.70830199 0 112
0.01050000 0.01054430 57078.69512153 0 -2913.43818575 0 6447.20813889 0 23937.14118636 0 21296.99916643 0 105
0.01150000 0.01145670 60167.77662286 0 -6740.88068685 0 21643.12304847 0 4708.76771302 0 -10794.12206193 0 144
0.01250000 0.01249090 57104.06948419 0 4900.18487482 0 5301.67100267 0 6085.76077810 0 21680.25090380 0 169
0.01350000 0.01339930 71152.01966702 0 -9068.83016944 0 3093.39843835 0 -1607.83385788 0 4552.79776693 0 180
0.01450000 0.01448870 65707.40642135 0 -677.87664777 0 2381.31253619 0 -9990.83125363 0 -3224.92771044 0 267
0.01550000 0.01550050 64862.14356122 0 6644.80961505 0 2084.60824620 0 3426.43969444 0 4885.95985333 0 238
0.01650000 0.01653350 62711.03471261 0 1607.48235155 0 18875.23044943 0 -9681.05532226 0 3270.68943981 0 315
0.01750000 0.01747870 61188.68279857 0 4001.39419250 0 25123.36517942 0 4316.02530494 0 17185.69334069 0 297
0.01850000 0.01844180 68510.22996121 0 -1156.40087850 0 24561.61413761 0 120.03831071 0 -12156.29693860 0 388
0.01950000 0.01947590 61673.87136948 0 -1336.21833166 0 21113.66665005 0 5622.95876610 0 9574.38413792 0 399
0.02050000 0.02045430 69145.02841068 0 -3664.71704288 0 35643.72972347 0 5828.21648935 0 16738.29169945 0 462
0.02150000 0.02154770 69223.01887601 0 -2206.82260074 0 18541.84867158 0 13502.45630844 0 17709.43776137 0 571
0.02250000 0.02255340 82186.24251643 0 740.32613981 0 21385.31512999 0 -172.08760943 0 5151.67666407 0 510
0.02350000 0.02348930 73763.05256961 0 1947.15828949 0 16136.33712199 0 1831.31498704 0 13982.04274734 0 555
0.02450000 0.02439640 69964.58737098 0 3300.43566236 0 25832.30949382 0 -4123.75134648 0 25458.72418033 0 592
0.02550000 0.02547300 65142.46985349 0 5013.87520104 0 32110.32226123 0 -5093.33759909 0 10452.37003978 0 837
0.02650000 0.02652900 61909.38060563 0 4987.30351996 0 36192.62881536 0 -1528.89871931 0 11758.43571970 0 723
0.02750000 0.02749970 56802.43312111 0 928.90928188 0 26794.00882332 0 10129.70920477 0 10289.55670498 0 826
0.02850000 0.02848090 57020.69657830 0 -2193.50929877 0 29752.92313955 0 8206.91469727 0 12781.53880993 0 831
0.02950000 0.02946900 54737.00393864 0 2476.41696560 0 25150.38722797 0 504.86853115 0 4577.23844093 0 996
0.03050000 0.03053250 56621.73690215 0 2883.12076543 0 22657.32863491 0 2158.33669736 0 3636.32192276 0 1041
0.03150000 0.03150510 53666.33764914 0 -884.64474975 0 24535.14131769 0 -921.01576803 0 2954.75116323 0 1036
0.03250000 0.03246190 51025.64640058 0 847.69704142 0 24427.05312349 0 1203.60158688 0 3374.14214438 0 1059
0.03350000 0.03345080 51845.64474378 0 275.29425958 0 24284.69306283 0 491.40693746 0 3175.68387156 0 1302
0.03450000 0.03451200 49403.77425895 0 -246.71020481 0 22861.75153065 0 1757.39979814 0 -3225.82844539 0 1339
0.03550000 0.03553350 49882.81146922 0 3824.95998769 0 22354.92335174 0 882.89051351 0 -1307.60352008 0 1365
0.03650000 0.03647120 48792.48279479 0 627.45306579 0 28655.01511005 0 1756.36724832 0 7656.46678065 0 1308
0.03750000 0.03744890 47934.80736764 0 -824.47895035 0 22537.26725659 0 3538.69104165 0 3602.48943920 0 1579
0.03850000 0.03847530 48891.45379375 0 -283.26137007 0 22894.92493984 0 2335.34209994 0 -2082.40034711 0 1662
0.03950000 0.03950240 47485.53834907 0 1748.88675439 0 21873.46953550 0 334.65159443 0 4739.99685287 0 1683
0.04050000 0.04050350 47895.48259780 0 -700.00397078 0 19422.04247252 0 5209.79603760 0 9454.81706538 0 1822
0.04150000 0.04152450 47312.09194801 0 -746.20068922 0 17487.32970377 0 3413.63168281 0 5244.24365721 0 1887
0.04250000 0.04250150 49160.57582200 0 1336.63574542 0 18141.79053817 0 -3896.85401524 0 -928.53580642 0 1920
0.04350000 0.04349210 43997.05778868 0 3740.99391488 0 18108.72697470 0 -6275.91471405 0 -388.53202140 0 2005
0.04450000 0.04448520 43091.16008790 0 503.88760882 0 20213.81046419 0 1929.85758767 0 2189.49992978 0 2151
0.04550000 0.04548030 41912.95483282 0 726.48447990 0 21949.81231494 0 2999.93071026 0 -4567.03377300 0 2274
0.04650000 0.04648670 39407.15413557 0 1746.23947240 0 19737.73908851 0 418.14642908 0 -1304.78048493 0 2311
0.04750000 0.04749250 38932.18121715 0 922.54262362 0 19725.54621295 0 2871.87256310 0 -3903.03832960 0 2568
0.04850000 0.04851840 36971.54485711 0 639.47238511 0 17836.52926613 0 2015.85580641 0 2477.88889833 0 2493
0.04950000 0.04949480 36006.22061866 0 494.91650840 0 16116.34519990 0 1874.70404874 0 -413.06826118 0 2644
0.05050000 0.05050630 35673.05853227 0 362.57877176 0 14694.61197069 0 1033.78339015 0 3352.87601187 0 2829
0.05150000 0.05149060 34819.77693415 0 -898.35129942 0 12929.83053977 0 4981.13019017 0 1463.26589813 0 2784
0.05250000 0.05249300 35156.01470086 0 -142.64675800 0 9729.37645705 0 2306.17805974 0 834.00916552 0 3055
0.05350000 0.05348950 35249.16387635 0 -211.58483706 0 8997.11189506 0 -1496.17567759 0 832.18462802 0 3009
0.05450000 0.05448610 34221.55711137 0 1824.16403029 0 8936.89446816 0 -506.71284089 0 515.58727708 0 3336
0.05550000 0.05550870 34328.10746541 0 977.04477739 0 10559.22796185 0 -1208.83024343 0 591.57635328 0 3349
0.05650000 0.05647670 32712.82606732 0 -156.53455311 0 11824.12346374 0 -320.96591546 0 389.01534260 0 3324
0.05750000 0.05747970 32578.15520747 0 -186.73553697 0 11480.41618767 0 1538.13674485 0 -133.28680370 0 3639
0.05850000 0.05849280 33208.88936509 0 -279.00265128 0 10920.31283174 0 -29.26399981 0 -1128.90649333 0 3846
0.05950000 0.05951020 33008.42091548 0 1432.92650866 0 11375.07413661 0 -693.15289286 0 -1202.53608334 0 3787
0.06050000 0.06049470 33035.88234694 0 -86.00480948 0 12661.91681451 0 62.35096042 0 529.05546152 0 3930
0.06150000 0.06148310 31432.68397869 0 181.55081871 0 12171.34580303 0 791.82950527 0 -1796.21927765 0 4083
0.06250000 0.06249100 32106.91704373 0 1001.86661605 0 13825.62243378 0 -1653.21112721 0 818.22653164 0 4303
0.06350000 0.06350600 31720.58962605 0 25.77211404 0 12695.09022371 0 1655.78151719 0 -361.46383765 0 4470
0.06450000 0.06451750 30411.99749443 0 -175.43790407 0 13363.17192811 0 -421.85701770 0 432.09903318 0 4479
0.06550000 0.06550280 30328.73443427 0 868.01959915 0 13122.82948003 0 448.13870606 0 705.36883602 0 4636
0.06650000 0.06648880 30309.84096943 0 591.95532104 0 13733.35202410 0 2462.94987962 0 1130.55417922 0 4653
0.06750000 0.06749660 30001.39417134 0 -41.76125789 0 12428.38480143 0 -330.26984843 0 2964.21986479 0 5220
0.06850000 0.06852730 28930.83772756 0 371.82448651 0 11992.18742423 0 1825.09771896 0 57.99173279 0 5029
0.06950000 0.06949320 29548.82978099 0 649.92750129 0 11756.01911373 0 1062.06646763 0 5308.32765365 0 5040
0.07050000 0.07048030 28864.82044635 0 -394.23521149 0 10959.80237017 0 1152.56726267 0 2305.62883111 0 5475
0.07150000 0.07148790 28729.92989505 0 -31.79704225 0 9357.86722777 0 1008.98681600 0 2377.95125698 0 5509
0.07250000 0.07249820 28068.87831711 0 330.78063106 0 9054.94566970 0 461.98146443 0 2644.65667926 0 5916
0.07350000 0.07351270 27792.61631669 0 64.52304981 0 9079.72686544 0 174.49652620 0 2683.93751081 0 5721
0.07450000 0.07449140 26850.90890929 0 1372.07197656 0 8798.49983821 0 -780.07491415 0 1369.29287970 0 6028
0.07550000 0.07549160 26729.08999936 0 471.20081619 0 10154.41350851 0 551.15532310 0 2399.92040214 0 6183
0.07650000 0.07648840 25655.23818381 0 43.01668469 0 9222.26267926 0 962.34632082 0 3512.70154292 0 6330
0.07750000 0.07749960 26222.70120336 0 227.47402130 0 9490.28625024 0 645.96866133 0 2150.97703373 0 6583
0.07850000 0.07848650 24792.61969899 0 307.95578769 0 9035.25033106 0 44.01902693 0 2909.28601731 0 6549
0.07950000 0.07947320 24389.37603953 0 385.88803478 0 9298.60545870 0 447.32035540 0 4648.14385694 0 6828
0.08050000 0.08048110 24237.78893791 0 694.47214002 0 8848.86410350 0 -73.11331510 0 3307.59760369 0 7147
0.08150000 0.08149960 23620.23626739 0 429.98779832 0 9954.09884291 0 -287.48493823 0 3158.97633666 0 7386
0.08250000 0.08250610 23337.60321487 0 392.11628744 0 9769.45916240 0 55.84468824 0 2946.07335089 0 7227
0.08350000 0.08350160 22915.79562775 0 465.53607211 0 11018.29521917 0 -422.68854984 0 1982.84716580 0 7798
0.08450000 0.08449610 22374.58573666 0 131.15689508 0 10516.01465331 0 410.00027006 0 2731.14920376 0 7371
0.08550000 0.08548940 23141.41874857 0 -281.47857394 0 9833.99352631 0 1363.30628764 0 687.54966238 0 8256
0.08650000 0.08650700 21825.35710760 0 97.00563923 0 8570.59192629 0 -65.40587990 0 1508.13787713 0 8037
0.08750000 0.08749060 22047.24547374 0 642.60079138 0 8472.38984742 0 1479.88555645 0 2269.76420163 0 8155
0.08850000 0.08849210 21823.81926744 0 247.33742390 0 8330.33735480 0 -93.86493024 0 1904.60405531 0 8718
0.08950000 0.08949900 21039.52078513 0 513.65179539 0 9011.40282398 0 -595.00463839 0 1734.49696431 0 8571
0.09050000 0.09049190 20184.04227249 0 657.13338091 0 9512.47508685 0 -892.34932896 0 1533.62208552 0 8932
0.09150000 0.09150830 19474.32903801 0 254.15884347 0 9551.23964349 0 146.50234297 0 1792.49550754 0 9285
0.09250000 0.09250820 19899.32215118 0 -203.02565811 0 9548.21888603 0 1394.39262805 0 1548.38535107 0 9204
0.09350000 0.09350330 19856.26262667 0 146.32878673 0 9185.34353081 0 949.30873162 0 1579.97698181 0 9349
0.09450000 0.09448040 19492.78311995 0 105.01921447 0 8222.10636115 0 289.54234867 0 2284.11005342 0 9564
0.09550000 0.09549270 19504.09722971 0 368.47858570 0 8622.16449456 0 196.56672943 0 2059.36569841 0 10155
0.09650000 0.09649430 18732.10146869 0 313.49201227 0 8559.14600166 0 102.17388063 0 2074.40357827 0 9913
0.09750000 0.09749140 18094.77656752 0 627.74635388 0 8196.30360016 0 40.91720333 0 1452.90744619 0 10476
0.09850000 0.09850240 17617.71658031 0 391.93833736 0 8222.96315781 0 394.84265835 0 2587.11948808 0 10575
0.09950000 0.09950330 17411.53615296 0 -69.80509138 0 7275.34605037 0 1241.58623887 0 1637.54712671 0 10882
0.10050000 0.10051200 17027.84503270 0 -244.58578847 0 6089.58340935 0 993.79515212 0 1160.80569211 0 10875
0.10150000 0.10150300 16991.81563463 0 383.72187707 0 5413.37312125 0 108.36401682 0 1114.76934842 0 11118
0.10250000 0.10250800 16106.56893030 0 564.44775438 0 5003.52773366 0 -310.68874935 0 724.41828180 0 11575
0.10350000 0.10349800 16361.41101418 0 174.70633153 0 5797.14113352 0 -111.63401423 0 401.20162742 0 11364
0.10450000 0.10450100 15296.67639388 0 161.51166295 0 5681.95690543 0 322.60481368 0 795.25779037 0 12093
0.10550000 0.10551000 15722.10888995 0 -106.76488274 0 4733.28527902 0 850.11584430 0 783.52956223 0 12067
0.10650000 0.10649700 15745.83556673 0 -205.17314205 0 4661.02876058 0 164.89381285 0 -80.78636859 0 12054
0.10750000 0.10749900 15798.78120657 0 324.65233801 0 4827.82949523 0 -31.96203053 0 797.20535509 0 12807
0.10850000 0.10850100 15576.56330325 0 218.28762325 0 5032.16451438 0 -456.94393944 0 900.88763723 0 12736
0.10950000 0.10950300 15294.04009646 0 146.08602767 0 5105.21192205 0 -305.67099659 0 555.89846154 0 12933
0.11050000 0.11050200 15108.95004846 0 165.66602830 0 5632.48239053 0 229.50067494 0 1088.13615374 0 13428
0.11150000 0.11150900 14712.18728682 0 120.37224172 0 5193.69265419 0 96.87019945 0 125.75358383 0 13453
0.11250000 0.11250000 14543.46425197 0 334.89874732 0 5277.95531046 0 534.02158679 0 843.12196694 0 13668
0.11350000 0.11349100 14469.31838705 0 267.08878386 0 5250.50486358 0 295.06868714 0 409.36206639 0 13791
0.11450000 0.11448600 14536.98335415 0 -133.32305279 0 4627.17430788 0 29.68020527 0 850.46405525 0 14205
0.11550000 0.11549300 14180.31428243 0 158.64359105 0 4898.38340492 0 498.26131075 0 26.28608219 0 14776
0.11650000 0.11649800 14068.27164210 0 155.65359039 0 4268.39619823 0 -60.89396672 0 629.84001341 0 14553
0.11750000 0.11747300 14035.64746154 0 -128.43381954 0 4291.89219898 0 162.34758892 0 255.53850579 0 14568
0.11850000 0.11849100 13881.97329112 0 116.89562450 0 4616.26662731 0 141.93825307 0 36.06125333 0 16015
0.11950000 0.11950300 13431.71566101 0 352.85632657 0 4132.89051087 0 -429.31883785 0 51.74370791 0 15270
0.12050000 0.12050700 13342.08154875 0 227.84420140 0 5044.51117397 0 -408.79745936 0 277.23962738 0 15999
0.12150000 0.12150000 13048.35407793 0 290.96924465 0 4975.94547191 0 57.88034923 0 -189.08074321 0 15670
0.12250000 0.12250700 13189.39598987 0 141.74931842 0 5357.94496800 0 -240.34574345 0 -498.28877218 0 16887
0.12350000 0.12352200 12768.24747710 0 179.78559790 0 5259.03987648 0 13.17522589 0 -695.93967892 0 16407
0.12450000 0.12449800 12484.40612160 0 69.26772609 0 5350.06902946 0 93.68621124 0 -506.34925154 0 16306
0.12550000 0.12549900 12659.50020855 0 -299.77228112 0 4406.93362763 0 1138.17747259 0 -64.36025844 0 17523
0.12650000 0.12650100 12778.13359242 0 -176.09917534 0 4023.51712168 0 1240.07036785 0 171.48675331 0 17154
0.12750000 0.12750600 13061.75525648 0 -25.25474067 0 2877.13417337 0 441.71822338 0 311.24896255 0 18007
0.12850000 0.12850300 12824.59833444 0 96.81571597 0 2891.46904059 0 -171.69875556 0 193.12416438 0 17496
0.12950000 0.12949900 12635.55384032 0 340.44925184 0 2672.61241648 0 -250.95684057 0 231.66463574 0 18405
0.13050000 0.13049000 12418.49868611 0 166.49756044 0 2644.50289524 0 377.45298150 0 762.61493603 0 18100
0.13150000 0.13148800 12245.82120513 0 4.25598363 0 2813.33577582 0 31.49287944 0 -396.26406204 0 19059
0.13250000 0.13249300 12069.73850665 0 237.02730407 0 2940.65795661 0 -482.85215233 0 -427.14389248 0 18957
0.13350000 0.13349100 11811.27151382 0 232.21606128 0 2727.76595541 0 197.72230646 0 -437.81650320 0 19468
0.13450000 0.13450700 11710.21344607 0 76.90453048 0 3063.28972490 0 -197.93760409 0 77.15541812 0 19953
0.13550000 0.13551000 11558.40665299 0 6.81806928 0 2993.57064273 0 -62.90194658 0 -682.90977892 0 19956
0.13650000 0.13649900 11391.66084121 0 233.82310425 0 3050.40482127 0 -30.37750594 0 -682.11339741 0 19723
0.13750000 0.13749600 11588.72407332 0 -77.48605375 0 2902.01423027 0 371.81350193 0 -219.00162047 0 20946
0.13850000 0.13851100 11185.59025958 0 -36.36893121 0 2799.23158462 0 238.78154032 0 -791.94154791 0 20955
0.13950000 0.13949800 11298.18212854 0 259.16231628 0 2893.60004767 0 -220.46147016 0 -595.48356575 0 20506
0.14050000 0.14048300 11044.98773054 0 207.90939908 0 3131.36112119 0 -339.57378141 0 -287.27732981 0 21447
0.14150000 0.14148400 10809.76409328 0 196.40415775 0 3036.42146037 0 330.42033708 0 207.80943947 0 21771
0.14250000 0.14249400 10884.00881936 0 -120.14266415 0 3274.49010193 0 201.76792455 0 -333.72998879 0 22470
0.14350000 0.14350900 10753.63292739 0 233.74511379 0 2963.14337668 0 201.97004068 0 -244.70991414 0 22519
0.14450000 0.14449900 10702.84026378 0 303.75858251 0 3555.66220629 0 -541.76680891 0 21.74165466 0 22218
0.14550000 0.14550500 10101.35802294 0 181.19931239 0 3507.14334920 0 -335.62153219 0 90.05548047 0 23559
0.14650000 0.14650700 10243.59725330 0 95.36641147 0 3627.27063495 0 371.15991987 0 22.23211583 0 23044
0.14750000 0.14750500 10059.84732316 0 -56.95984205 0 3372.78005738 0 150.71932039 0 -106.69161564 0 23649
0.14850000 0.14849900 9970.13631888 0 19.45422727 0 3169.31281946 0 586.26201707 0 -31.48573946 0 23640
0.14950000 0.14949500 10095.00893999 0 -38.71259961 0 2815.60958234 0 225.56819796 0 21.82799341 0 24457
0.15050000 0.15050000 10154.07298676 0 -70.90882123 0 2180.07516650 0 258.29343659 0 236.64613941 0 24591
0.15150000 0.15149900 10069.63457733 0 38.57902721 0 2260.95457442 0 -74.76308806 0 -373.39747730 0 25020
0.15250000 0.15250500 9842.91299925 0 270.52805353 0 2165.55356155 0 113.28609395 0 41.95052207 0 25297
0.15350000 0.15350100 9601.50504763 0 115.95204971 0 2358.90400813 0 -16.38854291 0 224.67075838 0 25452
0.15450000 0.15450400 9687.82181897 0 10.78808055 0 2197.73835921 0 239.36591958 0 98.05071147 0 26061
0.15550000 0.15549900 9711.74621805 0 1.06692714 0 2245.49928080 0 355.72330002 0 341.68062243 0 26128
0.15650000 0.15649500 9597.40780205 0 100.13492427 0 2080.10457144 0 134.28530135 0 562.07398824 0 26331
0.15750000 0.15749700 9616.60883493 0 140.38613296 0 2239.62253446 0 -177.26244157 0 779.18186840 0 27345
0.15850000 0.15849900 9402.43163873 0 45.70219299 0 2278.66170542 0 -117.24273699 0 480.71784988 0 26980
0.15950000 0.15949700 9268.69446756 0 328.85503548 0 2689.83622628 0 -425.85540212 0 587.43626788 0 27777
0.16050000 0.16050000 9056.63729387 0 122.79873380 0 2671.40411349 0 -183.06229590 0 759.34702569 0 28224
0.16150000 0.16150500 8900.05221173 0 -30.45505702 0 2949.29183066 0 259.44901363 0 665.66839380 0 28075
0.16250000 0.16249700 8781.67147302 0 151.46956670 0 2880.29773027 0 174.80079886 0 594.87392197 0 28590
0.16350000 0.16349900 8605.01757676 0 180.37766636 0 2876.78266705 0 -325.01922274 0 396.29701576 0 29163
0.16450000 0.16449100 8677.52674037 0 169.75009239 0 2845.69632664 0 189.68269779 0 566.94235081 0 28996
0.16550000 0.16550500 8586.48660282 0 -130.69554303 0 3065.05824109 0 223.34492047 0 224.41262092 0 30777
0.16650000 0.16650700 8567.06587850 0 39.03818234 0 2687.72718835 0 -117.22296476 0 324.69737476 0 29211
0.16750000 0.16749900 8519.12920375 0 88.80367858 0 2529.06602198 0 224.38076566 0 81.14973825 0 30922
0.16850000 0.16850800 8396.55235832 0 -24.52547489 0 2544.20276300 0 22.40622131 0 504.46979117 0 30867
0.16950000 0.16949900 8271.15247773 0 145.06446242 0 2111.70718676 0 467.74287274 0 163.20768096 0 30852
0.17050000 0.17049200 8381.99779965 0 50.42314259 0 2354.68593225 0 264.56343062 0 493.43468955 0 31257
0.17150000 0.17149500 8255.11500176 0 130.03537022 0 2073.94222622 0 -169.03499671 0 365.09863272 0 32608
0.17250000 0.17250900 7779.70270044 0 198.12214491 0 2302.32247476 0 -198.12434182 0 787.63669392 0 32361
0.17350000 0.17350400 7761.76489341 0 103.70161499 0 2115.34308028 0 237.27006313 0 101.69418435 0 32508
0.17450000 0.17449800 7788.64414252 0 -9.49005557 0 2255.67099501 0 -85.30476267 0 272.41080927 0 32791
0.17550000 0.17549800 7669.06608540 0 220.07151784 0 2295.41317861 0 -178.90133980 0 -306.95948696 0 33633
0.17650000 0.17650100 7439.84002477 0 83.88456728 0 2422.14219248 0 -352.75966233 0 210.50065975 0 33984
0.17750000 0.17750300 7357.23603896 0 -38.15809839 0 2312.37335867 0 152.16928397 0 -111.96025604 0 34069
0.17850000 0.17849800 7464.55531308 0 -0.64357842 0 2282.25366065 0 337.62511823 0 -463.46438172 0 34536
