### header ###
fiducial parameters:
Omega_m = 0.31
Omega_nu = 0
Omega_de = 0.69
Omega_k = 0
H_0 = 100
w_de = -1
zeff = 0
beta = 0
fgrowth = 0
b_1 = 2
gamma = 0.55
Lx = 3500 Ly = 3500 Lz = 3500
nx = 700 ny = 700 nz = 700
xoffset = -983.599254 yoffset = -42.9823471 zoffset = 800.977702
bins = 400 dk = 0.001
kx_ny = 0.628318531 ky_ny = 0.628318531 kz_ny = 0.628318531
############################
A(data) = 9.12546969 (not used)
A(ran) = 9.13040759 (used)
Ngal = 507374
weighted Ngal = 0
Nran = 25229228
weighted Nran = 0
SN(data) = 6701.04254
SN(ran) = 135.53461
SN(data+ran) = 6836.57715
############################
13 columns: k_central k_mean P_0(k) sigma^{lin}_{P_0(k)} P^img_1(k) sigma^{lin}_{P_1(k)} P_2(k) sigma^{lin}_{P_2(k)} P^img_3(k) sigma^{lin}_{P_3(k)} P_4(k) sigma^{lin}_{P_4(k)} N_modes
### header ###
0.00050000 0 0 0 0 0 0 0 0 0 0 0 0
0.00150000 0.00179520 73533.80453983 0 -44123.05083619 0 -53934.36122012 0 67933.53990069 0 -7291.81192467 0 3
0.00250000 0.00253879 81410.84153792 0 -14167.57217824 0 -12199.13677166 0 2283.04454988 0 39028.29622724 0 6
0.00350000 0.00331552 93013.40617269 0 -1338.61296848 0 42278.74109978 0 -125220.83205554 0 59731.68909138 0 7
0.00450000 0.00420575 83871.71533331 0 -6612.32823393 0 3916.53836931 0 -26539.49627661 0 1838.48791294 0 24
0.00550000 0.00557378 92919.37823139 0 17947.36360348 0 47121.94899662 0 -28880.30869369 0 -21616.21084565 0 45
0.00650000 0.00659388 68077.76733868 0 23538.18151021 0 13706.11028410 0 14744.92131311 0 35906.26100817 0 40
0.00750000 0.00754703 92912.45795066 0 -25333.28036145 0 65644.57466619 0 57760.17800448 0 -2513.08346888 0 57
0.00850000 0.00846663 73686.38025299 0 -2900.71805070 0 33078.83202573 0 2476.24121244 0 -34184.20956459 0 75
0.00950000 0.00948925 102746.83593701 0 12088.08274286 0 55668.05631063 0 -17290.15662594 0 -14695.16119932 0 112
0.01050000 0.01054430 73159.77984344 0 15506.26203873 0 38723.14480093 0 -7517.94033582 0 4145.63261506 0 105
0.01150000 0.01145670 69482.36463466 0 3669.57222396 0 51409.88674948 0 226.40741930 0 -3342.71528223 0 144
0.01250000 0.01249090 61822.16309933 0 -1508.77498234 0 52994.30149861 0 23855.08642918 0 -18942.23634217 0 169
0.01350000 0.01339930 70461.85897174 0 699.36576711 0 40579.86710435 0 23103.19243598 0 395.97846316 0 180
0.01450000 0.01448870 68071.83566949 0 -1520.22090697 0 23470.51654310 0 14692.85443908 0 -4387.99622450 0 267
0.01550000 0.01550050 71097.42634129 0 294.92478924 0 22543.41861724 0 2821.46435953 0 11813.57827406 0 238
0.01650000 0.01653350 67361.68305210 0 2759.05001812 0 21426.83681435 0 5395.76485140 0 644.94929300 0 315
0.01750000 0.01747870 65319.54116351 0 -3110.02908124 0 8707.96499100 0 5787.32092563 0 23803.67862950 0 297
0.01850000 0.01844180 71292.84188751 0 -2273.55387917 0 16936.23369737 0 2946.51273379 0 -1702.52087353 0 388
0.01950000 0.01947590 68460.68953887 0 505.08163186 0 15361.15583493 0 1706.12381333 0 14007.96633863 0 399
0.02050000 0.02045430 69104.49533786 0 846.01420490 0 13737.74585313 0 5019.29059532 0 13039.78611131 0 462
0.02150000 0.02154770 73499.64251911 0 3269.99741174 0 19612.84449826 0 -8607.80765820 0 6329.96979572 0 571
0.02250000 0.02255340 68345.13183531 0 37.64083486 0 15471.44094364 0 7491.52243877 0 13837.15623499 0 510
0.02350000 0.02348930 70379.69436883 0 -445.57600528 0 29283.66219888 0 2441.03565732 0 3168.93934399 0 555
0.02450000 0.02439640 69413.05198167 0 2414.62874483 0 24496.25593075 0 -841.56764992 0 3666.62835851 0 592
0.02550000 0.02547300 63157.33789659 0 3622.87680592 0 26757.86957952 0 -3853.65169128 0 2111.87195534 0 837
0.02650000 0.02652900 61223.17435647 0 -287.83864146 0 25419.83879339 0 1962.76736712 0 10634.23062343 0 723
0.02750000 0.02749970 64054.88732222 0 -521.79246213 0 22541.55123990 0 13800.79729975 0 6717.25287123 0 826
0.02850000 0.02848090 68244.95253337 0 -986.38935329 0 21755.49522598 0 7159.82130053 0 8806.33183846 0 831
0.02950000 0.02946900 60110.54699971 0 1380.32139057 0 14707.79345779 0 -1979.55179403 0 8818.32699172 0 996
0.03050000 0.03053250 60945.04497871 0 3701.97671307 0 20626.61070179 0 1417.83370594 0 11489.97276581 0 1041
0.03150000 0.03150510 58222.40881870 0 4356.08604115 0 19522.22177447 0 -2220.12491813 0 13799.25945959 0 1036
0.03250000 0.03246190 53740.92289696 0 -225.29578056 0 24106.52329556 0 -673.35539769 0 16430.72366717 0 1059
0.03350000 0.03345080 56273.30625987 0 -724.57755810 0 20351.33731291 0 9256.94097489 0 9222.60320101 0 1302
0.03450000 0.03451200 56913.15761273 0 -3078.34957391 0 17776.22396266 0 4434.43899737 0 14034.10962138 0 1339
0.03550000 0.03553350 56936.55475233 0 -407.28268680 0 16358.00579668 0 1750.11702652 0 16206.96792369 0 1365
0.03650000 0.03647120 56950.83469668 0 3107.39278382 0 15250.21165186 0 -5634.84407363 0 10236.96257146 0 1308
0.03750000 0.03744890 51282.24601608 0 3855.55202233 0 20530.93507461 0 -1240.20218272 0 14013.67831637 0 1579
0.03850000 0.03847530 49900.60647680 0 1234.70989643 0 19939.63553256 0 3971.57107794 0 12567.99871894 0 1662
0.03950000 0.03950240 48835.10293641 0 3554.28913472 0 26255.87461256 0 1168.51686206 0 7292.50395274 0 1683
0.04050000 0.04050350 45336.07718635 0 3375.10878677 0 20901.88409068 0 -2086.47562354 0 14458.00427729 0 1822
0.04150000 0.04152450 41079.55531108 0 -1179.74309524 0 24404.86428687 0 3667.25447914 0 8879.66484502 0 1887
0.04250000 0.04250150 41782.89749346 0 -84.86702745 0 20601.67572204 0 586.74204289 0 10812.88371190 0 1920
0.04350000 0.04349210 40202.32734473 0 1273.40854564 0 19578.79232326 0 2344.72292492 0 5969.01674070 0 2005
0.04450000 0.04448520 40763.08977501 0 1020.39978691 0 19438.95871430 0 929.79793381 0 5432.61809241 0 2151
0.04550000 0.04548030 39859.38898874 0 845.28043545 0 19837.69869900 0 -487.92043412 0 -1848.64864258 0 2274
0.04650000 0.04648670 37839.43593676 0 -64.01270656 0 16252.00467127 0 1709.27638567 0 4297.58220758 0 2311
0.04750000 0.04749250 40159.15797449 0 -1737.69347493 0 15806.90979028 0 1834.26983707 0 -333.85411446 0 2568
0.04850000 0.04851840 38088.45619718 0 873.13291769 0 12338.20146054 0 1279.38415312 0 -3311.43121952 0 2493
0.04950000 0.04949480 38498.18075446 0 1148.87644628 0 12368.84841804 0 502.91767106 0 -2463.99341401 0 2644
0.05050000 0.05050630 37529.12176134 0 -213.07544356 0 12610.72870629 0 1419.73403699 0 529.08841524 0 2829
0.05150000 0.05149060 37186.73263398 0 1351.48688755 0 13632.51364780 0 -735.96526449 0 -3115.66416697 0 2784
0.05250000 0.05249300 36300.27762666 0 725.99566642 0 11960.44200947 0 -467.46056923 0 -3192.00694641 0 3055
0.05350000 0.05348950 34850.75342883 0 215.49644336 0 13876.70069629 0 -115.60823259 0 -2918.42518170 0 3009
0.05450000 0.05448610 34422.13540670 0 123.41386987 0 12260.43068667 0 -213.40498074 0 -3143.69679620 0 3336
0.05550000 0.05550870 34623.37277639 0 890.07112861 0 11825.11207527 0 1080.11082501 0 -2996.18497100 0 3349
0.05650000 0.05647670 33993.18784740 0 241.57272021 0 13166.43823318 0 1037.17432770 0 -3993.16674763 0 3324
0.05750000 0.05747970 34263.51817863 0 -28.43839934 0 11327.40109161 0 1456.58727800 0 -905.02772263 0 3639
0.05850000 0.05849280 34017.79328998 0 -330.28302992 0 13483.23330642 0 566.18771068 0 78.88526861 0 3846
0.05950000 0.05951020 33821.16944078 0 80.22406832 0 9863.53104198 0 1959.15344275 0 -390.24451627 0 3787
0.06050000 0.06049470 34105.23048773 0 563.83042140 0 11611.46213856 0 -746.48079582 0 1742.83425490 0 3930
0.06150000 0.06148310 32221.81567293 0 1901.09997665 0 13207.52053463 0 -1952.33202317 0 451.83831010 0 4083
0.06250000 0.06249100 32316.28299713 0 825.99042754 0 13090.75452809 0 -239.59989097 0 1861.72028395 0 4303
0.06350000 0.06350600 31058.65928230 0 413.11219947 0 16342.29785789 0 820.92544112 0 1028.69204076 0 4470
0.06450000 0.06451750 30241.51692797 0 -501.78626009 0 13908.66580250 0 183.92458484 0 2798.14411194 0 4479
0.06550000 0.06550280 29842.11786891 0 391.17051574 0 15147.28620677 0 1764.46287831 0 660.82309884 0 4636
0.06650000 0.06648880 29439.42343808 0 339.88354635 0 13090.20529946 0 -639.91616184 0 3.64435165 0 4653
0.06750000 0.06749660 29244.66696621 0 1442.25241079 0 13838.03500080 0 603.42541173 0 943.13100801 0 5220
0.06850000 0.06852730 27907.18540871 0 336.76063237 0 13791.02103015 0 173.42882574 0 741.55751039 0 5029
0.06950000 0.06949320 27868.62955895 0 351.49863340 0 14457.89443156 0 1181.97296347 0 1487.79444871 0 5040
0.07050000 0.07048030 26793.67928614 0 181.93527875 0 11858.17563874 0 2109.02695105 0 1011.01127273 0 5475
0.07150000 0.07148790 26851.67782937 0 -147.73151665 0 11386.82762927 0 1099.28110108 0 3647.38338734 0 5509
0.07250000 0.07249820 26321.67220232 0 295.10713314 0 11391.99037839 0 1393.03054105 0 1196.02223180 0 5916
0.07350000 0.07351270 26408.88970861 0 179.22538469 0 9856.69863784 0 -287.77053711 0 3207.15467200 0 5721
0.07450000 0.07449140 25233.32075096 0 543.21018175 0 10143.75847310 0 -47.04220100 0 3287.67158902 0 6028
0.07550000 0.07549160 25520.67716969 0 961.06112583 0 10454.11658682 0 569.12388693 0 2278.20035337 0 6183
0.07650000 0.07648840 24915.53706618 0 -612.05818732 0 9783.81599876 0 1068.62974975 0 2120.27515337 0 6330
0.07750000 0.07749960 24860.94374045 0 126.61697123 0 9077.65078122 0 328.85723240 0 1296.09168802 0 6583
0.07850000 0.07848650 24652.56639858 0 305.46888046 0 9052.48512544 0 -156.41811664 0 2211.44710579 0 6549
0.07950000 0.07947320 24352.79741284 0 -44.00969005 0 8770.35736326 0 793.61999060 0 1954.26530795 0 6828
0.08050000 0.08048110 24701.22805512 0 -244.09038424 0 8490.38257731 0 389.93255441 0 232.82350815 0 7147
0.08150000 0.08149960 24608.29857108 0 934.14562763 0 7847.71917386 0 -256.13386962 0 -998.82279099 0 7386
0.08250000 0.08250610 23947.24699313 0 306.50362719 0 9191.15436971 0 -1335.54827273 0 -241.94509722 0 7227
0.08350000 0.08350160 22998.61930501 0 656.93236323 0 8773.29024414 0 -105.42575350 0 -415.38820291 0 7798
0.08450000 0.08449610 22202.67717577 0 147.11967595 0 9820.25182601 0 352.69155798 0 -1554.96511004 0 7371
0.08550000 0.08548940 21793.06246421 0 780.81417589 0 9426.92723559 0 189.65194099 0 -273.07427746 0 8256
0.08650000 0.08650700 21584.79496807 0 247.53294929 0 9316.22471312 0 970.84508463 0 -867.91744263 0 8037
0.08750000 0.08749060 21059.84224440 0 -464.85173324 0 8619.55016629 0 1046.15641270 0 1226.49343614 0 8155
0.08850000 0.08849210 21309.30188773 0 331.03547314 0 7745.90317061 0 1513.02601193 0 125.15821999 0 8718
0.08950000 0.08949900 21282.71922208 0 412.50694952 0 6894.47796525 0 -123.13376327 0 1310.99775301 0 8571
0.09050000 0.09049190 20764.02770479 0 230.51784636 0 7303.43360246 0 430.86876105 0 3063.20184832 0 8932
0.09150000 0.09150830 20011.47463724 0 276.43665512 0 7185.17369405 0 476.10432939 0 1838.48791294 0 9285
0.09250000 0.09250820 19666.22952101 0 427.11093877 0 7307.59675546 0 -411.87973042 0 2178.57028006 0 9204
0.09350000 0.09350330 19113.48582871 0 520.98509605 0 7549.00470708 0 742.38904254 0 2110.81743638 0 9349
0.09450000 0.09448040 18890.60885104 0 -70.50975171 0 7580.22286236 0 546.09363205 0 3178.30918440 0 9564
0.09550000 0.09549270 18366.75458463 0 528.51831592 0 7388.09170334 0 218.99393127 0 2087.98050998 0 10155
0.09650000 0.09649430 18249.32950374 0 439.63225305 0 7375.87685863 0 -1007.99161373 0 1062.70796667 0 9913
0.09750000 0.09749140 17389.23747062 0 65.78012429 0 7170.61913538 0 218.60288048 0 1161.11326014 0 10476
0.09850000 0.09850240 16717.42101155 0 375.60647485 0 7480.29620559 0 706.53320072 0 1925.84821868 0 10575
0.09950000 0.09950330 16888.34096091 0 31.34217110 0 6300.35538805 0 348.66900751 0 1429.15880027 0 10882
0.10050000 0.10051200 16950.95302463 0 176.43859863 0 6112.67298092 0 714.82435610 0 -351.03288752 0 10875
0.10150000 0.10150300 16494.43418814 0 206.79226804 0 6058.25540835 0 -676.56618826 0 174.32956069 0 11118
0.10250000 0.10250800 15681.68566285 0 463.29412085 0 6652.31207812 0 -376.60057867 0 394.58232398 0 11575
0.10350000 0.10349800 16286.60607491 0 -70.30214329 0 6023.89566532 0 339.11792165 0 193.52949511 0 11364
0.10450000 0.10450100 16319.01056402 0 -452.29087449 0 5943.02724197 0 336.00159840 0 -1703.79508395 0 12093
0.10550000 0.10551000 16259.03479773 0 80.22802276 0 5338.99658030 0 -6.65566237 0 -1254.03175960 0 12067
0.10650000 0.10649700 16248.70929950 0 199.62703135 0 6054.31194680 0 -399.04974965 0 -1081.82441833 0 12054
0.10750000 0.10749900 15859.30620149 0 358.88026618 0 5805.88485330 0 -67.42231789 0 -1209.25864176 0 12807
0.10850000 0.10850100 15834.15153028 0 -36.05510197 0 5891.95996404 0 723.76799510 0 -1551.51595425 0 12736
0.10950000 0.10950300 15799.55012665 0 146.33098364 0 6060.24361599 0 113.76502131 0 -730.73990332 0 12933
0.11050000 0.11050200 15588.53648736 0 330.48514605 0 5169.46068708 0 751.73911072 0 45.19272851 0 13428
0.11150000 0.11150900 15779.88774173 0 -159.56739360 0 5470.59175982 0 191.19307652 0 -327.36772436 0 13453
0.11250000 0.11250000 15017.88794176 0 -43.63577520 0 4802.32331769 0 1218.82620448 0 1201.81110155 0 13668
0.11350000 0.11349100 15071.71234741 0 335.96974314 0 4781.11210804 0 -112.48751552 0 793.90998332 0 13791
0.11450000 0.11448600 14511.60899149 0 476.26031032 0 4516.66950771 0 -452.99718251 0 1663.65745573 0 14205
0.11550000 0.11549300 14538.85073149 0 154.13003018 0 5125.13793671 0 611.73963471 0 1631.81317982 0 14776
0.11650000 0.11649800 14239.74082010 0 0.88833337 0 4719.09321124 0 663.35943664 0 1968.53426773 0 14553
0.11750000 0.11747300 14056.84768662 0 -4.66571917 0 4480.94767768 0 133.15279192 0 1387.28560959 0 14568
0.11850000 0.11849100 14191.29885501 0 262.18746757 0 4530.07068626 0 -232.36435301 0 1928.87996071 0 16015
0.11950000 0.11950300 13774.76386273 0 249.08726631 0 5122.99594506 0 -281.47747548 0 1394.13998288 0 15270
0.12050000 0.12050700 13642.72930030 0 177.37228730 0 4769.51239939 0 -380.09257429 0 413.26049120 0 15999
0.12150000 0.12150000 13388.43644504 0 269.08028687 0 5245.64968250 0 -79.36386644 0 938.39885414 0 15670
0.12250000 0.12250700 13120.08333688 0 74.17178852 0 5079.80460567 0 -68.32865498 0 159.37516358 0 16887
0.12350000 0.12352200 13248.27329891 0 53.29505910 0 4779.47540672 0 207.25801392 0 22.57296712 0 16407
0.12450000 0.12449800 12951.90953066 0 98.96825281 0 4942.81600101 0 318.83820375 0 -519.63399362 0 16306
0.12550000 0.12549900 12967.72731518 0 -9.74016331 0 4623.72515209 0 250.09674853 0 54.92033646 0 17523
0.12650000 0.12650100 12710.68831678 0 -30.37882409 0 3987.23507844 0 136.86557745 0 -262.28962410 0 17154
0.12750000 0.12750600 12642.14458387 0 250.19451123 0 4217.18612086 0 135.87916283 0 169.52710556 0 18007
0.12850000 0.12850300 12586.23310943 0 181.38165629 0 3894.05294923 0 268.41572023 0 -549.81300833 0 17496
0.12950000 0.12949900 12564.15411854 0 54.27246636 0 4108.19719170 0 411.50515650 0 194.43132852 0 18405
0.13050000 0.13049000 12421.57436643 0 -207.36566273 0 3457.97640232 0 135.39254627 0 -177.19543568 0 18100
0.13150000 0.13148800 12421.35467498 0 123.22713213 0 3442.92753789 0 146.08273230 0 -25.41555481 0 19059
0.13250000 0.13249300 12146.52066900 0 241.90555276 0 3482.19738487 0 -189.58493510 0 337.83272665 0 18957
0.13350000 0.13349100 12268.22973320 0 278.24801114 0 3861.89012071 0 -162.90999904 0 182.71957723 0 19468
0.13450000 0.13450700 11743.71639244 0 133.96125646 0 3955.77526257 0 -52.62027680 0 -17.95604142 0 19953
0.13550000 0.13551000 11746.24284413 0 18.25229534 0 3883.92517331 0 729.89518968 0 278.22274663 0 19956
0.13650000 0.13649900 11665.39638993 0 48.06530409 0 3780.99972822 0 -95.12222442 0 562.65287522 0 19723
0.13750000 0.13749600 11466.46578049 0 179.96464643 0 3570.91977761 0 257.44872296 0 944.34260636 0 20946
0.13850000 0.13851100 11505.35116742 0 84.05197217 0 3376.54776578 0 183.99708302 0 1126.86336283 0 20955
0.13950000 0.13949800 11140.88304918 0 61.16506597 0 3128.31839459 0 231.24832044 0 1010.72018156 0 20506
0.14050000 0.14048300 11387.37685790 0 44.61988305 0 3128.51611689 0 306.79801374 0 701.80653914 0 21447
0.14150000 0.14148400 11054.54430869 0 99.46431611 0 3230.93627164 0 -233.53201308 0 965.43298572 0 21771
0.14250000 0.14249400 10761.00357560 0 212.71075575 0 3249.57709131 0 -362.10423823 0 313.48432307 0 22470
0.14350000 0.14350900 10736.66176275 0 166.15703869 0 3377.85492992 0 -165.03990766 0 -639.69756885 0 22519
0.14450000 0.14449900 10559.74423676 0 103.28112555 0 3106.44811058 0 98.09563837 0 -458.73003094 0 22218
0.14550000 0.14550500 10436.50831697 0 108.11433748 0 3622.39348472 0 -360.68393299 0 -1056.25233336 0 23559
0.14650000 0.14650700 10298.46519334 0 321.35916315 0 3223.37888570 0 -102.36907649 0 -1006.77891691 0 23044
0.14750000 0.14750500 9966.19285733 0 -17.10188105 0 3368.84758040 0 7.97660116 0 -968.73824361 0 23649
0.14850000 0.14849900 10041.10764233 0 -122.94043479 0 2988.57266221 0 810.82073281 0 -1134.72831680 0 23640
0.14950000 0.14949500 10144.56034690 0 14.41055092 0 3061.30151727 0 405.24065476 0 -674.94156997 0 24457
0.15050000 0.15050000 10006.49525413 0 -14.96735891 0 2430.05108474 0 23.53620429 0 -138.42868213 0 24591
0.15150000 0.15149900 9927.08777894 0 322.25770119 0 2935.40733091 0 -84.75509466 0 -321.45363048 0 25020
0.15250000 0.15250500 9768.51448915 0 232.38851907 0 3058.95081873 0 -584.29358166 0 9.72661933 0 25297
0.15350000 0.15350100 9491.16501605 0 177.40194565 0 3444.26765574 0 -14.05476062 0 -231.51634401 0 25452
0.15450000 0.15450400 9482.19062025 0 -54.36100202 0 3557.71632136 0 210.26229452 0 82.21568117 0 26061
0.15550000 0.15549900 9573.42848011 0 -144.18240125 0 3321.33930399 0 305.45460051 0 -373.79182346 0 26128
0.15650000 0.15649500 9619.64057696 0 170.45969577 0 3192.18269957 0 194.70154900 0 -225.77800329 0 26331
0.15750000 0.15749700 9521.86689641 0 53.07877286 0 3131.53687435 0 172.91255083 0 344.26309544 0 27345
0.15850000 0.15849900 9525.16226819 0 -70.99988334 0 3128.27445630 0 -20.21578769 0 -176.79449878 0 26980
0.15950000 0.15949700 9409.01139771 0 64.08959857 0 2580.30905308 0 190.40548267 0 401.87717863 0 27777
0.16050000 0.16050000 9346.19062712 0 159.30266540 0 2732.71999764 0 122.29124655 0 101.29159976 0 28224
0.16150000 0.16150500 9174.42486566 0 99.04437590 0 2914.08627553 0 -122.16162859 0 107.63650858 0 28075
0.16250000 0.16249700 8982.22779921 0 268.01807870 0 2646.97442407 0 249.54642145 0 186.13138548 0 28590
0.16350000 0.16349900 8967.12401191 0 15.05534533 0 2679.33497490 0 -101.28775516 0 -4.93794984 0 29163
0.16450000 0.16449100 8653.51446471 0 148.14233966 0 2706.49982289 0 162.55080352 0 488.25656204 0 28996
0.16550000 0.16550500 8686.09470699 0 6.30098151 0 2646.52405660 0 14.95220020 0 4.75094847 0 30777
0.16650000 0.16650700 8508.91355125 0 63.28574755 0 2484.85311734 0 19.76223469 0 103.01288228 0 29211
0.16750000 0.16749900 8465.63433528 0 119.78237017 0 2442.36479060 0 256.44143766 0 266.67246856 0 30922
0.16850000 0.16850800 8458.80193113 0 58.78152356 0 2472.52842691 0 272.41080927 0 389.55468511 0 30867
0.16950000 0.16949900 8480.52941570 0 73.07124419 0 2574.30049187 0 323.11120248 0 730.57074090 0 30852
0.17050000 0.17049200 8251.76470712 0 78.42644301 0 1993.02986459 0 -45.85026503 0 673.89803558 0 31257
0.17150000 0.17149500 8250.29277440 0 7.86518464 0 2225.49637413 0 -18.36686443 0 1077.08567372 0 32608
0.17250000 0.17250900 8078.54898209 0 110.28620717 0 1963.36053404 0 -100.36131631 0 578.60796689 0 32361
0.17350000 0.17350400 8125.42015329 0 101.89564141 0 2559.73494863 0 86.72869282 0 1097.90473413 0 32508
0.17450000 0.17449800 8075.14376459 0 95.83292626 0 2313.07637132 0 -201.95026845 0 789.85447912 0 32791
0.17550000 0.17549800 7984.37824135 0 -84.82759284 0 2477.59231487 0 107.88508945 0 323.69228637 0 33633
0.17650000 0.17650100 7908.01349276 0 96.21167433 0 2436.49902884 0 113.39374276 0 532.95388633 0 33984
0.17750000 0.17750300 7862.80099202 0 142.25680567 0 2266.39193785 0 23.43360838 0 437.67040839 0 34069
0.17850000 0.17849800 7627.56637019 0 139.04271973 0 2317.25050890 0 20.13439200 0 556.51030223 0 34536
