### header ###
fiducial parameters:
Omega_m = 0.31
Omega_nu = 0
Omega_de = 0.69
Omega_k = 0
H_0 = 100
w_de = -1
zeff = 0
beta = 0
fgrowth = 0
b_1 = 2
gamma = 0.55
Lx = 3500 Ly = 3500 Lz = 3500
nx = 700 ny = 700 nz = 700
xoffset = -983.599254 yoffset = -42.9823471 zoffset = 800.977702
bins = 400 dk = 0.001
kx_ny = 0.628318531 ky_ny = 0.628318531 kz_ny = 0.628318531
############################
A(data) = 9.09535428 (not used)
A(ran) = 9.08666925 (used)
Ngal = 504220
weighted Ngal = 0
Nran = 25229228
weighted Nran = 0
SN(data) = 6722.94073
SN(ran) = 134.885345
SN(data+ran) = 6857.82607
############################
13 columns: k_central k_mean P_0(k) sigma^{lin}_{P_0(k)} P^img_1(k) sigma^{lin}_{P_1(k)} P_2(k) sigma^{lin}_{P_2(k)} P^img_3(k) sigma^{lin}_{P_3(k)} P_4(k) sigma^{lin}_{P_4(k)} N_modes
### header ###
0.00050000 0 0 0 0 0 0 0 0 0 0 0 0
0.00150000 0.00179520 42061.24656267 0 -20797.64049689 0 -11215.90767991 0 14158.56482872 0 15083.35599435 0 3
0.00250000 0.00253879 56926.11940838 0 -7254.18976357 0 17063.54489358 0 -79933.19683427 0 23786.54269627 0 6
0.00350000 0.00331552 47757.95574908 0 2913.08667943 0 -23653.18998513 0 -14206.23787373 0 -946.24293742 0 7
0.00450000 0.00420575 55947.50383710 0 -9632.94289435 0 -186.80803515 0 3990.11303646 0 22469.38259804 0 24
0.00550000 0.00557378 58530.08669670 0 -513.17396648 0 20821.58686511 0 -27871.81508500 0 -5149.63353357 0 45
0.00650000 0.00659388 53891.96076996 0 9566.71690626 0 9099.24645092 0 21419.47715072 0 10145.93341848 0 40
0.00750000 0.00754703 93943.25024170 0 -10696.01884420 0 18295.24501713 0 16575.61017952 0 -23080.56421647 0 57
0.00850000 0.00846663 81915.03341940 0 -24135.41272145 0 -12215.83332199 0 -10311.92129475 0 -33255.68364429 0 75
0.00950000 0.00948925 96661.93195558 0 10558.38214976 0 41478.40514151 0 -29465.12733792 0 -7561.20856722 0 112
0.01050000 0.01054430 73254.24716764 0 15069.18589572 0 28178.61419719 0 -38056.60093669 0 14450.09538503 0 105
0.01150000 0.01145670 74686.30589507 0 14389.24085293 0 54999.20568616 0 19986.31996603 0 -28892.17203208 0 144
0.01250000 0.01249090 86972.55032730 0 -6332.27655597 0 66643.07231383 0 10077.81808390 0 -5340.17192957 0 169
0.01350000 0.01339930 76656.71852471 0 -10561.90819756 0 38054.51386790 0 31858.00662904 0 -7735.97311699 0 180
0.01450000 0.01448870 83716.28363129 0 1099.40193138 0 43370.49776864 0 16431.82212443 0 22294.06881964 0 267
0.01550000 0.01550050 85328.48934905 0 469.41362623 0 22861.31214774 0 -3522.69750397 0 11059.48736635 0 238
0.01650000 0.01653350 92411.67128668 0 1433.47573729 0 19030.88184290 0 25781.67061422 0 10419.17466144 0 315
0.01750000 0.01747870 88754.02830854 0 1596.25611838 0 41653.82876563 0 -12692.89330919 0 20828.50714584 0 297
0.01850000 0.01844180 82216.45009103 0 5114.49388588 0 29293.65815993 0 -6783.86331936 0 5380.01297432 0 388
0.01950000 0.01947590 67379.03867678 0 7518.67630219 0 36796.45077016 0 4750.26742823 0 24088.17905935 0 399
0.02050000 0.02045430 74123.78593318 0 1379.91496139 0 43186.72586936 0 4611.03797076 0 4723.93740775 0 462
0.02150000 0.02154770 72307.37701113 0 3640.30932260 0 46168.26840511 0 4578.46871306 0 16242.99732176 0 571
0.02250000 0.02255340 64678.48150766 0 4653.44940550 0 42761.73275619 0 1102.01625965 0 18065.00837583 0 510
0.02350000 0.02348930 63551.90374372 0 1323.73985721 0 44498.50352702 0 4370.35500093 0 23332.22077431 0 555
0.02450000 0.02439640 62186.52137186 0 272.07248444 0 49419.04281483 0 5102.11427258 0 9066.50144005 0 592
0.02550000 0.02547300 56323.28606511 0 3216.48057412 0 42112.10513372 0 6558.56973572 0 11239.74420241 0 837
0.02650000 0.02652900 57213.58567283 0 1850.54897363 0 43660.05110189 0 5825.08588617 0 23702.18117884 0 723
0.02750000 0.02749970 56286.15820979 0 -1916.34656340 0 32943.39224580 0 6896.88358665 0 15339.95560985 0 826
0.02850000 0.02848090 58431.11569775 0 -2415.46357235 0 30926.07549124 0 15913.78968150 0 17581.24779934 0 831
0.02950000 0.02946900 57321.78371276 0 167.60370690 0 25260.56249096 0 4263.81563146 0 17769.96275629 0 996
0.03050000 0.03053250 59302.19230345 0 180.83462458 0 18769.77855264 0 1356.69357495 0 13733.68156128 0 1041
0.03150000 0.03150510 57480.29109510 0 576.17378561 0 19734.22402529 0 -1995.62222372 0 9806.10369653 0 1036
0.03250000 0.03246190 58701.88541188 0 1093.01440242 0 19898.33353965 0 1673.40077161 0 5197.51528545 0 1059
0.03350000 0.03345080 54909.24203672 0 611.19479991 0 20637.48542865 0 -1181.70933373 0 6400.71044315 0 1302
0.03450000 0.03451200 53358.76961686 0 2992.46120090 0 23605.40709440 0 -5911.32576550 0 -966.06130327 0 1339
0.03550000 0.03553350 54797.30924211 0 934.04896339 0 23322.11496753 0 5304.85652872 0 -497.23974550 0 1365
0.03650000 0.03647120 54758.09431800 0 -2817.38908310 0 21239.98923474 0 5008.08633129 0 3822.32369028 0 1308
0.03750000 0.03744890 53560.99559808 0 -575.23240774 0 16858.57276922 0 4670.57435415 0 1263.32470801 0 1579
0.03850000 0.03847530 53619.43352421 0 933.51950700 0 13826.61104531 0 3627.27063495 0 4262.66225134 0 1662
0.03950000 0.03950240 55502.84833901 0 3528.98067949 0 18127.40074809 0 -2669.20719898 0 4061.89721827 0 1683
0.04050000 0.04050350 47756.30806320 0 1768.73587705 0 14904.41730700 0 -376.16119576 0 7072.15342676 0 1822
0.04150000 0.04152450 47570.66878657 0 -1245.60659243 0 18172.10795849 0 3875.81855875 0 7374.44886419 0 1887
0.04250000 0.04250150 44709.84670349 0 1115.75795995 0 13500.58893110 0 2111.04811240 0 5449.72107192 0 1920
0.04350000 0.04349210 47034.95118178 0 2246.54281519 0 15672.67831333 0 -1427.51111438 0 1270.45369561 0 2005
0.04450000 0.04448520 40956.96748107 0 2668.80076979 0 14900.02347796 0 -1757.96001135 0 5519.01175576 0 2151
0.04550000 0.04548030 40180.68773675 0 1293.31259115 0 17985.48007034 0 -774.13775267 0 4428.72701963 0 2274
0.04650000 0.04648670 40443.87809580 0 -349.09411046 0 16688.20204848 0 3387.32363148 0 1327.25492043 0 2311
0.04750000 0.04749250 39984.83280762 0 -228.92947717 0 17724.59647153 0 926.26090143 0 -686.03379137 0 2568
0.04850000 0.04851840 40560.09487371 0 1055.49989014 0 14436.69420648 0 -2142.85943460 0 -192.94072202 0 2493
0.04950000 0.04949480 38474.23438624 0 219.85182639 0 16617.46140106 0 -418.07173399 0 2960.26541866 0 2644
0.05050000 0.05050630 38058.90769693 0 633.01345643 0 19304.50754590 0 460.64024811 0 -2317.55807693 0 2829
0.05150000 0.05149060 37888.97635910 0 796.42215507 0 17424.93733151 0 -250.81843495 0 -2383.22385182 0 2784
0.05250000 0.05249300 37159.82043115 0 453.54091885 0 18714.63599829 0 1364.73428208 0 107.96967066 0 3055
0.05350000 0.05348950 38336.70753752 0 -96.88821415 0 16543.64507331 0 263.02119663 0 -3212.97649547 0 3009
0.05450000 0.05448610 36564.67628869 0 1068.93512086 0 17492.49245289 0 2098.88819055 0 -1693.56844687 0 3336
0.05550000 0.05550870 35763.68125606 0 419.51840220 0 15188.03897105 0 2136.44444421 0 -327.87301469 0 3349
0.05650000 0.05647670 34982.01907117 0 -579.15829398 0 14920.56462869 0 9.12275344 0 410.53412028 0 3324
0.05750000 0.05747970 35329.02171902 0 199.57430540 0 13195.65719624 0 3213.34997094 0 -425.98062625 0 3639
0.05850000 0.05849280 33802.16613021 0 973.86474363 0 10020.21498528 0 1025.78222748 0 -96.29307001 0 3846
0.05950000 0.05951020 33992.96815595 0 236.98116887 0 10286.03065718 0 1107.90399055 0 -2856.90059067 0 3787
0.06050000 0.06049470 33939.69297893 0 442.64641977 0 9842.85807638 0 1474.76674563 0 742.12321588 0 3930
0.06150000 0.06148310 32777.52519982 0 -213.64444442 0 9021.64044563 0 -561.01507545 0 1372.80794293 0 4083
0.06250000 0.06249100 32260.15183124 0 -131.98732877 0 7346.78971043 0 -47.27243764 0 -203.09705783 0 4303
0.06350000 0.06350600 32220.38767850 0 1155.52211269 0 9012.19371321 0 1167.44037395 0 -2161.31351653 0 4470
0.06450000 0.06451750 31432.13475006 0 957.81188926 0 9013.20429389 0 -718.89304179 0 949.72504693 0 4479
0.06550000 0.06550280 31476.40257756 0 90.15478100 0 11053.99508006 0 -988.87626052 0 653.46563212 0 4636
0.06650000 0.06648880 29402.95465711 0 754.80929876 0 11005.44326925 0 -490.12613629 0 26.72370756 0 4653
0.06750000 0.06749660 29120.54129604 0 422.99172405 0 12108.18451069 0 -638.68698817 0 490.11295481 0 5220
0.06850000 0.06852730 28874.48687022 0 823.20144456 0 12468.36864563 0 674.82403505 0 1093.73608884 0 5029
0.06950000 0.06949320 28150.05430848 0 509.63473720 0 12985.63216849 0 825.96296611 0 -459.40008987 0 5040
0.07050000 0.07048030 27622.90467030 0 324.36124684 0 12328.42519094 0 631.47781318 0 111.93608998 0 5475
0.07150000 0.07148790 28046.14025186 0 -353.87020262 0 11104.41426821 0 1384.64931217 0 -238.92214285 0 5509
0.07250000 0.07249820 27356.52878521 0 457.59093076 0 11448.45108145 0 -115.86856696 0 21.83678106 0 5916
0.07350000 0.07351270 26980.85640292 0 833.05240925 0 10455.26996694 0 -141.38243369 0 1534.32509816 0 5721
0.07450000 0.07449140 26026.62658278 0 -56.01077498 0 10242.97113266 0 343.71496527 0 4.51145184 0 6028
0.07550000 0.07549160 25993.67286504 0 215.00433451 0 10663.19694133 0 1114.62654897 0 -126.26766182 0 6183
0.07650000 0.07648840 25729.05451155 0 673.27850569 0 9894.41966008 0 856.80984283 0 334.47364436 0 6330
0.07750000 0.07749960 24765.81734190 0 211.19708165 0 9313.76416886 0 254.82011474 0 1823.35117192 0 6583
0.07850000 0.07848650 24228.34220549 0 261.35703389 0 8897.77840520 0 1508.19279999 0 1656.01219322 0 6549
0.07950000 0.07947320 23974.15919596 0 320.65505205 0 8067.61933237 0 545.90359895 0 1076.86268690 0 6828
0.08050000 0.08048110 23432.50992197 0 519.68342420 0 8701.56098518 0 465.92272907 0 2093.56067285 0 7147
0.08150000 0.08149960 23117.25268889 0 150.05914758 0 7912.39633722 0 -419.06583781 0 -140.30374867 0 7386
0.08250000 0.08250610 22372.16913070 0 356.75584984 0 8398.89207228 0 -379.00729852 0 1103.26850092 0 7227
0.08350000 0.08350160 22044.82886777 0 603.82964400 0 8439.96338916 0 -1588.95137761 0 -1413.96713639 0 7798
0.08450000 0.08449610 21652.45993517 0 188.53920379 0 8603.32595259 0 762.98072230 0 -570.00704656 0 7371
0.08550000 0.08548940 22458.39802546 0 -742.04302850 0 7816.75366375 0 1144.70230870 0 -1876.31878091 0 8256
0.08650000 0.08650700 22289.23560771 0 -210.70716971 0 7806.41718096 0 157.45615875 0 -4206.83865349 0 8037
0.08750000 0.08749060 22599.54978313 0 1085.02861815 0 8086.07341430 0 -1846.68240409 0 -4279.16107936 0 8155
0.08850000 0.08849210 21023.04392626 0 564.74873167 0 8625.03146801 0 -999.29402916 0 -1660.12042336 0 8718
0.08950000 0.08949900 21120.69677650 0 99.00856620 0 9365.89695033 0 839.18729304 0 -3641.23202670 0 8571
0.09050000 0.09049190 20756.99757834 0 230.98139533 0 8649.88955576 0 1069.12735088 0 -2610.03330648 0 8932
0.09150000 0.09150830 20639.46265171 0 360.47961994 0 8582.16966580 0 774.35414875 0 -2069.17492172 0 9285
0.09250000 0.09250820 19606.80298334 0 562.27390746 0 9091.67808041 0 -120.22175307 0 -903.13727769 0 9204
0.09350000 0.09350330 19228.38445792 0 551.10479406 0 9232.82983808 0 -476.52284161 0 -1291.46718296 0 9349
0.09450000 0.09448040 18393.88647891 0 696.46913532 0 9042.69787127 0 12.44925549 0 -441.06024749 0 9564
0.09550000 0.09549270 17511.71545490 0 28.93962539 0 9275.70262486 0 766.81433813 0 -207.15036511 0 10155
0.09650000 0.09649430 18104.55283712 0 -115.75872123 0 8803.26714271 0 1382.05695304 0 -303.69267507 0 9913
0.09750000 0.09749140 17580.25918781 0 -124.80561521 0 7493.70836871 0 814.71805916 0 151.78262701 0 10476
0.09850000 0.09850240 17437.89912716 0 -118.76959258 0 6917.07323105 0 590.26589377 0 423.60246628 0 10575
0.09950000 0.09950330 17463.16364409 0 700.91788721 0 6498.12163280 0 423.64201074 0 273.11821575 0 10882
0.10050000 0.10051200 17045.09081165 0 -116.90990444 0 5753.94979413 0 808.90941718 0 842.58701825 0 10875
0.10150000 0.10150300 17193.82192440 0 33.44362968 0 5974.30032011 0 416.23511345 0 743.12281199 0 11118
0.10250000 0.10250800 16640.96838638 0 519.13419557 0 5800.97474935 0 -188.47988709 0 206.45064784 0 11575
0.10350000 0.10349800 16340.65017201 0 388.32551144 0 5930.12036919 0 -613.77617447 0 1038.90769326 0 11364
0.10450000 0.10450100 15775.93329560 0 349.51042576 0 6208.60125327 0 195.44520457 0 1024.85403110 0 12093
0.10550000 0.10551000 15697.50344737 0 -306.17299156 0 5798.71192740 0 764.86457650 0 1626.16710951 0 12067
0.10650000 0.10649700 15594.68784801 0 103.14942052 0 5388.96540097 0 869.44869204 0 695.57608957 0 12054
0.10750000 0.10749900 15844.25733706 0 393.29383362 0 5539.62979850 0 -160.55380822 0 907.87162848 0 12807
0.10850000 0.10850100 15319.41445912 0 193.66570381 0 5828.87556371 0 -532.29591043 0 1338.15161643 0 12736
0.10950000 0.10950300 14856.85410772 0 140.76949454 0 5442.89965235 0 40.27383691 0 448.61543651 0 12933
0.11050000 0.11050200 14800.06386747 0 85.45151656 0 5934.39336793 0 203.68253555 0 765.64887498 0 13428
0.11150000 0.11150900 14524.68063286 0 66.46918653 0 5517.74852992 0 159.02585417 0 451.58676339 0 13453
0.11250000 0.11250000 14687.47199851 0 49.88709545 0 5222.93358640 0 670.13801638 0 651.94317036 0 13668
0.11350000 0.11349100 14653.20013206 0 470.87567284 0 5086.69193268 0 357.52476992 0 -100.14579900 0 13791
0.11450000 0.11448600 14091.33924452 0 88.05771625 0 4407.41694882 0 443.35053087 0 1357.55037161 0 14205
0.11550000 0.11549300 13761.69222136 0 -142.08984017 0 4672.97997555 0 356.13851686 0 1153.89639595 0 14776
0.11650000 0.11649800 13908.11657387 0 250.06159790 0 4334.43544859 0 -27.98429711 0 961.97504227 0 14553
0.11750000 0.11747300 13829.02765128 0 -44.77608368 0 4439.40402418 0 303.14344644 0 1619.54341225 0 14568
0.11850000 0.11849100 13595.71532965 0 99.23276132 0 3950.73334375 0 292.34671005 0 1501.54713358 0 16015
0.11950000 0.11950300 13721.04930281 0 92.50888475 0 4283.13749464 0 -392.09102292 0 1272.37599581 0 15270
0.12050000 0.12050700 13811.23264370 0 23.85717350 0 4186.67097823 0 -187.31442394 0 1065.08612663 0 15999
0.12150000 0.12150000 13615.15802312 0 90.37732844 0 4353.88912663 0 247.23087355 0 1311.55796621 0 15670
0.12250000 0.12250700 13500.14954820 0 -64.15297956 0 4523.27123584 0 -275.54470783 0 733.65301196 0 16887
0.12350000 0.12352200 13876.04162193 0 150.41834310 0 4554.25871509 0 -193.30980366 0 -47.23574917 0 16407
0.12450000 0.12449800 13594.61687240 0 292.70480712 0 5056.92374098 0 -936.79510654 0 -789.72925499 0 16306
0.12550000 0.12549900 13130.84821801 0 245.50300028 0 5087.69152878 0 128.87100552 0 -341.14896912 0 17523
0.12650000 0.12650100 13100.20126051 0 274.40011537 0 5715.38295980 0 -50.65909121 0 -491.77711755 0 17154
0.12750000 0.12750600 12818.88635670 0 99.14422567 0 5271.25472119 0 198.00570844 0 -966.80715575 0 18007
0.12850000 0.12850300 12486.05380749 0 183.92238793 0 5303.78004060 0 256.95222028 0 -691.44698874 0 17496
0.12950000 0.12949900 12280.86199167 0 -32.71952666 0 4802.37824056 0 739.31226376 0 256.14375574 0 18405
0.13050000 0.13049000 12262.73744691 0 -18.84645087 0 4487.11002290 0 695.59915717 0 180.83352612 0 18100
0.13150000 0.13148800 12269.21834473 0 193.78323874 0 4186.23159532 0 395.63794141 0 536.03286203 0 19059
0.13250000 0.13249300 12260.32084094 0 31.49870126 0 3916.97775221 0 -76.11243295 0 768.66084478 0 18957
0.13350000 0.13349100 12106.75651625 0 180.18433788 0 4192.47083255 0 -120.23054073 0 559.82434778 0 19468
0.13450000 0.13450700 12002.95230536 0 -19.51585072 0 4109.49337127 0 55.73451297 0 776.12046802 0 19953
0.13550000 0.13551000 11684.28985477 0 158.45685331 0 3890.65871630 0 196.32506883 0 1277.82434382 0 19956
0.13650000 0.13649900 11893.43611672 0 34.37786758 0 4299.03217116 0 146.05856624 0 454.88213517 0 19723
0.13750000 0.13749600 11561.15279614 0 284.34005510 0 4314.48746478 0 -72.97084520 0 835.67662364 0 20946
0.13850000 0.13851100 11568.73215122 0 124.73751086 0 4092.84075924 0 64.07553832 0 1242.77257271 0 20955
0.13950000 0.13949800 11393.52821855 0 29.49819090 0 4203.23571368 0 -51.40384523 0 499.60692089 0 20506
0.14050000 0.14048300 11123.52742450 0 48.73063965 0 4248.04178524 0 293.54183155 0 1033.91081119 0 21447
0.14150000 0.14148400 11283.57264701 0 -20.10176782 0 4025.88978935 0 230.79465759 0 341.71577306 0 21771
0.14250000 0.14249400 10790.47518383 0 281.11608304 0 3692.27733548 0 181.78259319 0 881.91068964 0 22470
0.14350000 0.14350900 11064.86980691 0 181.84081143 0 3641.69337875 0 66.46391394 0 749.62458050 0 22519
0.14450000 0.14449900 10882.64673236 0 -100.94558573 0 3750.94593764 0 180.38974939 0 872.18604753 0 22218
0.14550000 0.14550500 10552.86789432 0 121.12138957 0 3802.97985796 0 -68.63380640 0 523.75540525 0 23559
0.14650000 0.14650700 10338.87743587 0 223.70191908 0 3263.47257563 0 -23.44041881 0 887.66331030 0 23044
0.14750000 0.14750500 10378.16925199 0 45.81906884 0 3581.47595186 0 417.56534519 0 505.18928067 0 23649
0.14850000 0.14849900 10329.60645661 0 66.44524016 0 3344.18721495 0 -2.52065184 0 402.58678202 0 23640
0.14950000 0.14949500 10075.53329280 0 164.36765182 0 3163.40311941 0 166.03071611 0 357.32155533 0 24457
0.15050000 0.15050000 10003.95781786 0 -8.54437175 0 2871.97142426 0 72.65361074 0 747.04650131 0 24591
0.15150000 0.15149900 9829.46788241 0 40.19793352 0 2944.49157244 0 228.00567461 0 275.19100459 0 25020
0.15250000 0.15250500 9830.42354022 0 285.15840575 0 3002.81965284 0 -65.20694929 0 497.05630313 0 25297
0.15350000 0.15350100 9526.20580258 0 38.98743362 0 2676.56686261 0 176.72859135 0 418.67368857 0 25452
0.15450000 0.15450400 9566.98053600 0 62.24001624 0 2801.05502367 0 159.27410551 0 -26.76544893 0 26061
0.15550000 0.15549900 9252.48123843 0 197.38617854 0 2513.01756144 0 -232.54559846 0 81.39436468 0 26128
0.15650000 0.15649500 9294.99153432 0 175.52468219 0 2863.49133422 0 -104.54775661 0 70.85214084 0 26331
0.15750000 0.15749700 9088.53649265 0 -14.66539301 0 2759.19281756 0 -20.02333798 0 -64.27007510 0 27345
0.15850000 0.15849900 8852.04962955 0 88.29267626 0 2787.31332337 0 47.92151603 0 38.55409223 0 26980
0.15950000 0.15949700 8981.36001797 0 57.18843100 0 2419.78050937 0 186.35327384 0 -9.92368256 0 27777
0.16050000 0.16050000 8907.46679822 0 44.76806494 0 2545.58681915 0 412.42566368 0 -161.86646464 0 28224
0.16150000 0.16150500 8796.46769228 0 203.77041213 0 2679.91715724 0 -125.25817960 0 364.19240548 0 28075
0.16250000 0.16249700 8678.13089187 0 49.44298918 0 2656.11358846 0 -151.81997456 0 590.11650359 0 28590
0.16350000 0.16349900 8543.16344856 0 56.18191462 0 2799.26453834 0 9.63662273 0 37.08995855 0 29163
0.16450000 0.16449100 8471.14859072 0 71.63709839 0 2880.23182284 0 -40.90940428 0 324.12398007 0 28996
0.16550000 0.16550500 8559.78310687 0 6.83342571 0 2798.00131249 0 153.18535693 0 305.56444624 0 30777
0.16650000 0.16650700 8550.19357501 0 38.05791909 0 2837.07343716 0 3.19711477 0 231.26479730 0 29211
0.16750000 0.16749900 8297.22985304 0 140.82112204 0 2783.85318301 0 86.85589417 0 297.98728807 0 30922
0.16850000 0.16850800 8221.44728680 0 150.65121604 0 2770.08951356 0 131.05583701 0 429.98999524 0 30867
0.16950000 0.16949900 8193.66730274 0 84.95622218 0 2527.39636695 0 484.08022754 0 819.19756786 0 30852
0.17050000 0.17049200 8192.11847800 0 -39.08091233 0 2250.46430760 0 333.97164939 0 739.70660991 0 31257
0.17150000 0.17149500 8129.28672284 0 61.12068829 0 2299.41156303 0 -171.53618389 0 766.43207500 0 32608
0.17250000 0.17250900 7884.67127603 0 -3.28175090 0 2061.05732258 0 173.74298452 0 897.66366518 0 32361
0.17350000 0.17350400 7927.30240221 0 -37.13927928 0 2054.10408814 0 51.99086079 0 803.93560271 0 32508
0.17450000 0.17449800 8002.95315358 0 118.67402680 0 1965.23889596 0 -77.58755121 0 403.96314897 0 32791
0.17550000 0.17549800 7843.72078944 0 113.09386393 0 1839.86098451 0 91.88111643 0 681.86953990 0 33633
0.17650000 0.17650100 7890.20750061 0 46.86578876 0 2089.63918044 0 -50.45631600 0 243.12703723 0 33984
0.17750000 0.17750300 7815.10597787 0 85.74711141 0 1993.85370753 0 41.14524306 0 437.20466251 0 34069
0.17850000 0.17849800 7908.56272139 0 -72.95392895 0 2090.01265591 0 205.44665790 0 422.06792149 0 34536
