### header ###
fiducial parameters:
Omega_m = 0.31
Omega_nu = 0
Omega_de = 0.69
Omega_k = 0
H_0 = 100
w_de = -1
zeff = 0
beta = 0
fgrowth = 0
b_1 = 2
gamma = 0.55
Lx = 3500 Ly = 3500 Lz = 3500
nx = 700 ny = 700 nz = 700
xoffset = -983.599254 yoffset = -42.9823471 zoffset = 800.977702
bins = 400 dk = 0.001
kx_ny = 0.628318531 ky_ny = 0.628318531 kz_ny = 0.628318531
############################
A(data) = 9.03263797 (not used)
A(ran) = 9.03544885 (used)
Ngal = 501825
weighted Ngal = 0
Nran = 25229228
weighted Nran = 0
SN(data) = 6725.47131
SN(ran) = 134.125013
SN(data+ran) = 6859.59632
############################
13 columns: k_central k_mean P_0(k) sigma^{lin}_{P_0(k)} P^img_1(k) sigma^{lin}_{P_1(k)} P_2(k) sigma^{lin}_{P_2(k)} P^img_3(k) sigma^{lin}_{P_3(k)} P_4(k) sigma^{lin}_{P_4(k)} N_modes
### header ###
0.00050000 0 0 0 0 0 0 0 0 0 0 0 0
0.00150000 0.00179520 14492.16629802 0 -14029.38625517 0 -934.65091797 0 -52657.84404044 0 -70642.55519070 0 3
0.00250000 0.00253879 27358.39616255 0 -8415.67649918 0 -18316.66493366 0 5734.81466870 0 -1369.94096948 0 6
0.00350000 0.00331552 44581.10751283 0 -19196.41935170 0 15223.62898621 0 -41439.30006312 0 18731.88177724 0 7
0.00450000 0.00420575 22178.84065326 0 752.18288745 0 -2349.11675396 0 4880.37969046 0 21697.82621993 0 24
0.00550000 0.00557378 38423.70535236 0 -164.40060554 0 22116.44828100 0 -8899.94236600 0 -16766.41220526 0 45
0.00650000 0.00659388 34786.27398778 0 1225.86731551 0 15287.33950718 0 -12946.63693582 0 7658.21332769 0 40
0.00750000 0.00754703 52978.15417692 0 399.96805992 0 34471.01675469 0 18833.48907362 0 -4347.69382770 0 57
0.00850000 0.00846663 48046.63031652 0 -2297.50024740 0 46837.55841249 0 -11448.67077290 0 9590.13601500 0 75
0.00950000 0.00948925 51374.95580867 0 5960.15219063 0 50726.31679774 0 18806.57687079 0 6666.73482192 0 112
0.01050000 0.01054430 53590.43425260 0 -4876.48016719 0 40191.01323497 0 2170.51858836 0 26332.43708345 0 105
0.01150000 0.01145670 62864.92857448 0 -17659.45795612 0 982.06033323 0 49156.40168441 0 716.04144674 0 144
0.01250000 0.01249090 98384.97201069 0 -16851.76233422 0 16247.28130506 0 24702.76589528 0 17214.69261230 0 169
0.01350000 0.01339930 87397.21390330 0 580.35341548 0 14560.81987665 0 -11566.42539098 0 9857.46755792 0 180
0.01450000 0.01448870 97467.10112579 0 5606.59175295 0 2350.53376382 0 -19826.82397215 0 20141.64182233 0 267
0.01550000 0.01550050 91719.64321405 0 2610.18709050 0 26136.25261714 0 -8413.60041496 0 858.96501597 0 238
0.01650000 0.01653350 83331.16451659 0 10047.91807733 0 34321.51672186 0 -8367.59702499 0 -11866.85345108 0 315
0.01750000 0.01747870 70650.46408296 0 6180.30499430 0 42306.97145132 0 -3594.29494806 0 9017.40040061 0 297
0.01850000 0.01844180 78295.94629102 0 3186.19610752 0 48111.32944903 0 816.81171869 0 -7634.14612916 0 388
0.01950000 0.01947590 67324.99457968 0 -1794.43977689 0 32644.94140877 0 13600.21900441 0 3168.84048284 0 399
0.02050000 0.02045430 75963.59199483 0 -2088.63958433 0 35721.39065162 0 9230.53406241 0 -16504.64984065 0 462
0.02150000 0.02154770 73930.67714720 0 286.93131577 0 23978.55302499 0 -5453.47779574 0 -17785.67069508 0 571
0.02250000 0.02255340 71196.61703170 0 4629.88749731 0 27085.75907108 0 409.60921927 0 -19175.98804670 0 510
0.02350000 0.02348930 62738.49614407 0 5213.83836031 0 25806.93513116 0 -9747.67675497 0 -14840.15755739 0 555
0.02450000 0.02439640 62599.21176374 0 1456.09297224 0 23315.41437826 0 6372.68879849 0 -11643.97647340 0 592
0.02550000 0.02547300 60523.56692877 0 -2434.06045373 0 19419.51602083 0 11743.60654671 0 -23511.48899883 0 837
0.02650000 0.02652900 61458.35405544 0 1194.68211395 0 16233.77028079 0 397.10108647 0 -16309.89336878 0 723
0.02750000 0.02749970 58434.41106952 0 5573.70394264 0 13709.18596442 0 -8234.54089731 0 -14268.95978316 0 826
0.02850000 0.02848090 55219.44636641 0 -1183.59868021 0 15183.31560484 0 2225.71606558 0 -9373.95962660 0 831
0.02950000 0.02946900 58465.38756420 0 -2077.22661342 0 13443.13961650 0 5903.83428700 0 -14101.11551412 0 996
0.03050000 0.03053250 57753.03803230 0 1073.57170895 0 11845.10399737 0 -4072.88179086 0 -8387.19350248 0 1041
0.03150000 0.03150510 56551.65532908 0 1215.66264758 0 15027.88390281 0 2438.33345246 0 -6280.56118825 0 1036
0.03250000 0.03246190 58332.80377314 0 -981.14202297 0 12169.58827142 0 -2204.17531874 0 -7869.78718018 0 1059
0.03350000 0.03345080 56495.19462601 0 264.57771057 0 15764.06995721 0 1994.77641163 0 -7617.96585375 0 1302
0.03450000 0.03451200 57543.01300454 0 2658.70594759 0 17063.32520213 0 1274.66078691 0 -5102.19116459 0 1339
0.03550000 0.03553350 52811.51821086 0 2467.76112241 0 16016.16589795 0 -2833.70117338 0 -4193.50338237 0 1365
0.03650000 0.03647120 52179.13636735 0 1564.40085789 0 24070.05451459 0 -3794.24712276 0 -8134.77900913 0 1308
0.03750000 0.03744890 48846.19735472 0 2527.08879892 0 24687.71703084 0 -2620.82015676 0 -6054.23505479 0 1579
0.03850000 0.03847530 45467.78221160 0 1363.95437743 0 25054.05252643 0 992.47920033 0 -10574.01319654 0 1662
0.03950000 0.03950240 47501.46597931 0 318.22636305 0 24645.53627213 0 2144.32038275 0 -8609.71897383 0 1683
0.04050000 0.04050350 42957.36799386 0 1214.09185370 0 25162.68994926 0 2816.33456413 0 -2149.17556383 0 1822
0.04150000 0.04152450 44493.23093218 0 -454.38673094 0 21133.10934352 0 1370.22656837 0 -6938.48216301 0 1887
0.04250000 0.04250150 44268.59642289 0 -692.70032847 0 19588.23905568 0 6602.94740894 0 -3549.15933932 0 1920
0.04350000 0.04349210 46067.43002881 0 242.59208854 0 19186.97261928 0 1026.33694839 0 -2793.56354517 0 2005
0.04450000 0.04448520 43084.78903580 0 1187.49820348 0 18190.01281180 0 -1859.64419973 0 -1146.11931856 0 2151
0.04550000 0.04548030 42031.80790815 0 3555.77205202 0 21675.30784614 0 -851.20441544 0 -788.98010714 0 2274
0.04650000 0.04648670 39127.81645483 0 1276.22059622 0 21094.88303094 0 -1046.89128061 0 2741.44174827 0 2311
0.04750000 0.04749250 38588.69363253 0 -1299.09047633 0 20563.33956373 0 5888.35702424 0 -65.86745164 0 2568
0.04850000 0.04851840 39117.93033950 0 1114.51670325 0 19813.75233078 0 3425.25336060 0 -10.50044951 0 2493
0.04950000 0.04949480 36704.18036048 0 1786.81648352 0 19885.59143546 0 -2656.90447768 0 4627.25119989 0 2644
0.05050000 0.05050630 35904.94285946 0 465.73818825 0 19010.34069218 0 1466.02302585 0 2861.51411116 0 2829
0.05150000 0.05149060 34830.76150673 0 -196.31628117 0 19302.64016857 0 784.24905173 0 1632.45028503 0 2784
0.05250000 0.05249300 35701.61842098 0 -55.32028474 0 17522.37049031 0 3755.92194902 0 3822.18089083 0 3055
0.05350000 0.05348950 36528.64689063 0 -864.19586944 0 12876.88489993 0 1909.37135981 0 3891.08711463 0 3009
0.05450000 0.05448610 35485.99126121 0 665.26086616 0 16222.34632531 0 1243.01423330 0 4317.85972856 0 3336
0.05550000 0.05550870 35522.89942508 0 1380.20056027 0 15609.07763809 0 38.08944481 0 5212.49824245 0 3349
0.05650000 0.05647670 34332.61114017 0 20.24621495 0 15536.57945905 0 86.26261740 0 3973.06497981 0 3324
0.05750000 0.05747970 34299.32788524 0 -193.08571838 0 15026.12637120 0 762.37217698 0 3714.29041894 0 3639
0.05850000 0.05849280 34192.88737693 0 259.16671011 0 16007.92746852 0 416.23840882 0 2560.35008469 0 3846
0.05950000 0.05951020 34615.79342131 0 314.89693910 0 14435.04652059 0 895.81056778 0 3180.52806807 0 3787
0.06050000 0.06049470 33042.03370758 0 -241.42333002 0 13051.75929543 0 837.62089299 0 2718.93435905 0 3930
0.06150000 0.06148310 33512.61279697 0 392.78964174 0 11590.04222203 0 2050.46819461 0 3802.36472189 0 4083
0.06250000 0.06249100 33428.36112527 0 183.28528272 0 13945.02473774 0 538.19462591 0 3419.51941372 0 4303
0.06350000 0.06350600 34123.79441539 0 634.27448536 0 12306.89542869 0 -436.55657273 0 338.80046750 0 4470
0.06450000 0.06451750 31878.54777977 0 1070.60916973 0 13829.24734273 0 -3066.01389890 0 994.21915662 0 4479
0.06550000 0.06550280 29976.01980868 0 803.88617213 0 13890.21172056 0 -709.97466731 0 2229.51672769 0 4636
0.06650000 0.06648880 30703.63789647 0 541.42848408 0 15782.96342205 0 373.82258026 0 -1775.56828119 0 4653
0.06750000 0.06749660 30433.30756524 0 768.34119372 0 15204.84536710 0 650.75354115 0 -1532.01833792 0 5220
0.06850000 0.06852730 29333.31246694 0 23.17492169 0 14329.26508664 0 3018.91205168 0 -549.64604283 0 5029
0.06950000 0.06949320 29914.17666505 0 -1339.59059544 0 12515.82199918 0 1909.62400498 0 1037.76419925 0 5040
0.07050000 0.07048030 28836.15071191 0 596.02071135 0 10931.14362031 0 1244.55207347 0 733.35313313 0 5475
0.07150000 0.07148790 28550.44197907 0 1136.55175585 0 10023.94973996 0 -973.80762385 0 1375.03781116 0 5509
0.07250000 0.07249820 27512.18017868 0 572.94102590 0 10744.01044181 0 1018.30722584 0 536.31077171 0 5916
0.07350000 0.07351270 27210.87335278 0 -210.58414250 0 10029.60679484 0 2539.12789047 0 1734.72764034 0 5721
0.07450000 0.07449140 27363.55891166 0 -86.38125079 0 8441.08381556 0 -128.00432275 0 781.25575570 0 6028
0.07550000 0.07549160 27046.98352986 0 5.55604075 0 7874.62039211 0 1226.77903503 0 196.37669632 0 6183
0.07650000 0.07648840 27426.06112965 0 545.68280904 0 7785.87603023 0 -1551.27429366 0 -740.14709127 0 6330
0.07750000 0.07749960 25128.96731144 0 918.04004731 0 8399.46327005 0 -1455.21420643 0 -1781.31321265 0 6583
0.07850000 0.07848650 25343.27632250 0 584.33312612 0 8699.17733293 0 1286.15064983 0 291.84581354 0 6549
0.07950000 0.07947320 25232.88136806 0 -673.39933598 0 8008.78596162 0 1574.97900129 0 -1488.56336879 0 6828
0.08050000 0.08048110 25286.15654507 0 482.80162330 0 7406.73252301 0 214.09591035 0 -1985.90087698 0 7147
0.08150000 0.08149960 23873.87004829 0 1018.99595854 0 7569.75456469 0 -1097.02596833 0 -452.83570929 0 7386
0.08250000 0.08250610 23299.15721084 0 865.90397047 0 7921.22793358 0 -443.88877493 0 -936.60727035 0 7227
0.08350000 0.08350160 21947.17601752 0 377.25196382 0 9145.46953234 0 -600.47605399 0 -872.58039369 0 7798
0.08450000 0.08449610 22185.10185964 0 92.72857621 0 8379.81186970 0 1834.24786792 0 -1198.74640580 0 7371
0.08550000 0.08548940 21920.48350615 0 -256.79514089 0 7882.10088604 0 1629.18786697 0 -688.11097404 0 8256
0.08650000 0.08650700 21961.23627043 0 88.70284020 0 5974.58591900 0 1108.94752495 0 313.32504677 0 8037
0.08750000 0.08749060 21434.63586088 0 514.94577804 0 6605.72650581 0 492.42740425 0 626.89065567 0 8155
0.08850000 0.08849210 21038.09279069 0 347.21684701 0 5974.55296528 0 81.91063959 0 1687.85646913 0 8718
0.08950000 0.08949900 20543.34764163 0 89.80832758 0 6012.42777154 0 178.61793783 0 1853.35003964 0 8571
0.09050000 0.09049190 20218.97321330 0 320.18820772 0 5513.13500943 0 436.51153598 0 1431.66328282 0 8932
0.09150000 0.09150830 19905.58335756 0 581.61554287 0 5715.72348155 0 -154.85830734 0 1827.20675690 0 9285
0.09250000 0.09250820 19722.36068690 0 184.45733661 0 5904.22973162 0 -152.76684472 0 2231.26327473 0 9204
0.09350000 0.09350330 18727.59779393 0 192.63754782 0 6933.60501279 0 -311.21930420 0 1314.32607850 0 9349
0.09450000 0.09448040 19082.28964258 0 306.76615848 0 6189.49908155 0 219.69474700 0 1736.30941879 0 9564
0.09550000 0.09549270 18206.92905358 0 309.58919363 0 6772.64807075 0 -254.10282215 0 291.64918969 0 10155
0.09650000 0.09649430 18134.87025744 0 257.05877063 0 6410.46474360 0 62.23792917 0 266.41542956 0 9913
0.09750000 0.09749140 17927.59137283 0 123.44352821 0 6397.68968569 0 497.94715197 0 799.59120426 0 10476
0.09850000 0.09850240 17580.14934208 0 218.86101794 0 6705.58725514 0 201.14619774 0 474.41600059 0 10575
0.09950000 0.09950330 17086.39280455 0 540.15207674 0 6275.02496367 0 -499.58275483 0 -296.54391523 0 10882
0.10050000 0.10051200 17127.80464319 0 465.23948865 0 6812.06071717 0 288.63941681 0 157.13431078 0 10875
0.10150000 0.10150300 16347.57045273 0 -49.52757039 0 6601.08003160 0 -295.39053511 0 -82.26774804 0 11118
0.10250000 0.10250800 16196.42273401 0 49.73792496 0 6651.27952830 0 119.58354941 0 -478.68131012 0 11575
0.10350000 0.10349800 15907.30878367 0 596.96208922 0 6795.44105886 0 63.29925857 0 338.74115081 0 11364
0.10450000 0.10450100 15549.32156325 0 261.84145354 0 7422.93476757 0 21.41475378 0 418.03328798 0 12093
0.10550000 0.10551000 15272.73002565 0 158.55900984 0 6974.56648394 0 324.80062974 0 573.11348369 0 12067
0.10650000 0.10649700 15362.69367509 0 -59.84515973 0 6898.73997941 0 729.53599416 0 571.68658771 0 12054
0.10750000 0.10749900 15040.84569846 0 -161.72476366 0 6125.67871486 0 808.55571394 0 1454.30248691 0 12807
0.10850000 0.10850100 15484.07320211 0 -53.33866785 0 5953.46258593 0 803.27542990 0 1634.94378301 0 12736
0.10950000 0.10950300 15271.41187694 0 241.02349158 0 5855.30444534 0 -531.63903299 0 1428.85123224 0 12933
0.11050000 0.11050200 14896.17887756 0 371.17969210 0 5921.05809681 0 70.97308098 0 1138.84753152 0 13428
0.11150000 0.11150900 14852.13074151 0 21.97507683 0 5531.86370568 0 9.61376383 0 647.56691664 0 13453
0.11250000 0.11250000 14555.21774463 0 117.04391623 0 6004.07949638 0 -214.10469801 0 301.72204275 0 13668
0.11350000 0.11349100 14277.19821260 0 220.39116890 0 5719.99648028 0 368.29624179 0 -307.24728276 0 13791
0.11450000 0.11448600 14228.97593897 0 378.07360985 0 5531.38038449 0 -88.42613882 0 447.99480816 0 14205
0.11550000 0.11549300 14164.71618937 0 11.89189828 0 5499.94253776 0 -306.41794753 0 -639.32738875 0 14776
0.11650000 0.11649800 13598.13193562 0 23.48446695 0 5384.03332788 0 652.85928371 0 304.31879571 0 14553
0.11750000 0.11747300 13918.99130072 0 -410.02992840 0 4787.65891330 0 772.27696607 0 -286.80059936 0 14568
0.11850000 0.11849100 13870.10995274 0 122.21874837 0 4369.52017341 0 951.87362932 0 414.63905506 0 16015
0.11950000 0.11950300 14229.08578469 0 108.51626299 0 3991.16755542 0 -59.90030228 0 339.04871884 0 15270
0.12050000 0.12050700 13901.41598459 0 26.39460976 0 3573.33638357 0 636.05288766 0 1158.14742554 0 15999
0.12150000 0.12150000 13966.11511710 0 -152.30768958 0 3729.80063542 0 745.99088389 0 1815.76083227 0 15670
0.12250000 0.12250700 13797.94131088 0 -58.28765718 0 2688.39724728 0 354.49961863 0 1335.48236529 0 16887
0.12350000 0.12352200 13968.09234016 0 348.98316628 0 3297.93117981 0 -384.24364427 0 1546.08957540 0 16407
0.12450000 0.12449800 13314.62011730 0 524.83189336 0 3144.44374714 0 -217.90206475 0 1945.15909728 0 16306
0.12550000 0.12549900 13290.45405762 0 10.64339176 0 3689.81679123 0 58.45780821 0 1796.88933657 0 17523
0.12650000 0.12650100 12846.12809670 0 158.37337056 0 3674.29559017 0 -347.01692779 0 1522.41782148 0 17154
0.12750000 0.12750600 12916.64905268 0 220.81846877 0 4120.99421876 0 154.74516624 0 1486.69599145 0 18007
0.12850000 0.12850300 12765.06195105 0 -19.91865500 0 3692.31028920 0 329.91504674 0 1681.99070737 0 17496
0.12950000 0.12949900 12770.55423734 0 127.25078107 0 3551.57594529 0 181.98690624 0 1152.72104669 0 18405
0.13050000 0.13049000 12650.27316758 0 30.84896379 0 3497.37806417 0 -209.13417892 0 1356.89129726 0 18100
0.13150000 0.13148800 12045.46260125 0 104.44516070 0 3510.25198324 0 230.61560906 0 1395.06268698 0 19059
0.13250000 0.13249300 12256.58608626 0 313.63591017 0 3852.78391004 0 -170.09390951 0 999.30830910 0 18957
0.13350000 0.13349100 11840.82001406 0 309.54305843 0 3488.91994329 0 -83.79998607 0 1038.21236981 0 19468
0.13450000 0.13450700 11972.30534786 0 -149.88449287 0 3627.92970930 0 127.98235360 0 883.79564229 0 19953
0.13550000 0.13551000 11626.07162009 0 156.51807625 0 3580.65210891 0 231.65255271 0 503.15603629 0 19956
0.13650000 0.13649900 11507.10869904 0 315.93388276 0 3620.54807653 0 -126.16001301 0 837.17382089 0 19723
0.13750000 0.13749600 11199.54066676 0 164.96081874 0 3400.28542713 0 -68.69751692 0 1074.25934319 0 20946
0.13850000 0.13851100 11260.61489031 0 6.33272692 0 4053.01069906 0 122.52302103 0 631.90401460 0 20955
0.13950000 0.13949800 11007.96972094 0 97.72084475 0 3529.54089269 0 244.04754441 0 1210.07150013 0 20506
0.14050000 0.14048300 11040.15451860 0 66.55805172 0 3896.93090725 0 60.38713854 0 770.40080108 0 21447
0.14150000 0.14148400 10944.10541595 0 33.11508112 0 3401.63652955 0 -32.98106933 0 862.03190864 0 21771
0.14250000 0.14249400 10922.89420630 0 179.24076310 0 3707.68869082 0 8.48413236 0 1369.01826539 0 22470
0.14350000 0.14350900 10648.49958322 0 61.65541729 0 3745.64038908 0 141.89431478 0 1211.46654085 0 22519
0.14450000 0.14449900 10886.98563853 0 57.72711444 0 3577.59839774 0 628.23516736 0 1023.49414101 0 22218
0.14550000 0.14550500 10870.58567167 0 -67.41946190 0 3321.10862796 0 71.03525366 0 1097.77731309 0 23559
0.14650000 0.14650700 10486.51009136 0 73.12484890 0 3055.38083265 0 -5.98919540 0 1017.81731390 0 23044
0.14750000 0.14750500 10289.33701352 0 253.21526869 0 3346.52692891 0 -41.24860788 0 1359.31888780 0 23649
0.14850000 0.14849900 10246.07976670 0 75.77289981 0 2774.71401862 0 290.03116215 0 1309.69058887 0 23640
0.14950000 0.14949500 10237.51180009 0 -57.37407028 0 2890.67815136 0 487.07242512 0 1146.22916429 0 24457
0.15050000 0.15050000 10171.49451887 0 -32.52026651 0 2331.31076180 0 137.74214634 0 865.48765517 0 24591
0.15150000 0.15149900 10343.15043460 0 218.92472846 0 2149.24147127 0 123.27875962 0 669.79310081 0 25020
0.15250000 0.15250500 10193.56252519 0 -112.43918340 0 1905.76842000 0 -418.40127117 0 711.90795208 0 25297
0.15350000 0.15350100 9945.76155233 0 146.87911381 0 2186.01782027 0 132.75405193 0 277.51643861 0 25452
0.15450000 0.15450400 9757.21136397 0 157.61213968 0 2088.60663062 0 -214.76047700 0 493.91801075 0 26061
0.15550000 0.15549900 9545.39585088 0 267.59407420 0 2458.99543349 0 -239.91075438 0 414.58083682 0 26128
0.15650000 0.15649500 9562.26815437 0 266.81966183 0 2740.23344529 0 -274.37924468 0 -503.67231120 0 26331
0.15750000 0.15749700 9094.79769902 0 271.83851304 0 3127.85704254 0 -183.13699099 0 218.40955201 0 27345
0.15850000 0.15849900 9036.84309408 0 6.16342171 0 2877.77127858 0 260.18058616 0 315.01337557 0 26980
0.15950000 0.15949700 9122.48980650 0 -176.10466762 0 3064.06962956 0 399.11455863 0 306.83975512 0 27777
0.16050000 0.16050000 8973.74770918 0 64.63674013 0 2703.14952825 0 261.09230569 0 738.63561409 0 28224
0.16150000 0.16150500 9060.52583257 0 32.09351587 0 2445.95674583 0 397.86012044 0 720.85378799 0 28075
0.16250000 0.16249700 8994.57445879 0 86.14980584 0 2293.17232580 0 96.89205875 0 818.93613503 0 28590
0.16350000 0.16349900 8863.66032276 0 116.83740626 0 2433.18168792 0 164.06667453 0 1056.17983518 0 29163
0.16450000 0.16449100 8683.68908559 0 41.14908766 0 2246.68561463 0 107.38836708 0 1267.90527477 0 28996
0.16550000 0.16550500 8709.27215513 0 112.82474190 0 2090.13348621 0 61.45978205 0 724.80274184 0 30777
0.16650000 0.16650700 8445.60945946 0 166.39430546 0 2196.46414879 0 -295.03683188 0 851.50978656 0 29211
0.16750000 0.16749900 8401.46246226 0 156.06111803 0 2267.36956481 0 -205.11602227 0 510.67497622 0 30922
0.16850000 0.16850800 8163.13019096 0 91.41580994 0 2327.08170136 0 -67.57302623 0 555.79850193 0 30867
0.16950000 0.16949900 8236.44122837 0 -60.62528407 0 2408.30163102 0 110.93429696 0 196.56892634 0 30852
0.17050000 0.17049200 8050.85687461 0 20.61189137 0 1987.37280971 0 243.12484031 0 -76.92463225 0 31257
0.17150000 0.17149500 8088.61085057 0 103.09394843 0 2156.20569028 0 156.41811664 0 523.48848014 0 32608
0.17250000 0.17250900 8287.84902805 0 -91.33034996 0 1879.83384414 0 134.21060626 0 127.05964951 0 32361
0.17350000 0.17350400 8138.29407236 0 17.56828600 0 1783.58701918 0 115.56649121 0 258.20006773 0 32508
0.17450000 0.17449800 8064.45577546 0 202.44567267 0 1742.65850174 0 -145.37312891 0 25.96533267 0 32791
0.17550000 0.17549800 7758.31573762 0 184.44745050 0 2061.00239972 0 -139.36676463 0 598.56473836 0 33633
0.17650000 0.17650100 7757.29417237 0 44.01232634 0 1944.55494578 0 105.93093399 0 58.96397731 0 33984
0.17750000 0.17750300 7757.52484840 0 97.88824964 0 2049.49056765 0 189.09722007 0 421.89216833 0 34069
0.17850000 0.17849800 7659.53147640 0 -5.05319997 0 1859.69912259 0 -4.24959061 0 190.19787425 0 34536
