### header ###
fiducial parameters:
Omega_m = 0.31
Omega_nu = 0
Omega_de = 0.69
Omega_k = 0
H_0 = 100
w_de = -1
zeff = 0
beta = 0
fgrowth = 0
b_1 = 2
gamma = 0.55
Lx = 3500 Ly = 3500 Lz = 3500
nx = 700 ny = 700 nz = 700
xoffset = -983.599254 yoffset = -42.9823471 zoffset = 800.977702
bins = 400 dk = 0.001
kx_ny = 0.628318531 ky_ny = 0.628318531 kz_ny = 0.628318531
############################
A(data) = 8.93561429 (not used)
A(ran) = 8.92517976 (used)
Ngal = 496303
weighted Ngal = 0
Nran = 25229228
weighted Nran = 0
SN(data) = 6776.83819
SN(ran) = 132.488145
SN(data+ran) = 6909.32634
############################
13 columns: k_central k_mean P_0(k) sigma^{lin}_{P_0(k)} P^img_1(k) sigma^{lin}_{P_1(k)} P_2(k) sigma^{lin}_{P_2(k)} P^img_3(k) sigma^{lin}_{P_3(k)} P_4(k) sigma^{lin}_{P_4(k)} N_modes
### header ###
0.00050000 0 0 0 0 0 0 0 0 0 0 0 0
0.00150000 0.00179520 75457.64258173 0 -26505.11456443 0 23283.55911777 0 -64895.31697041 0 -116309.04832029 0 3
0.00250000 0.00253879 95100.03558024 0 -10488.77291331 0 19908.10980925 0 -83397.07195207 0 107946.38336839 0 6
0.00350000 0.00331552 75326.04740221 0 26511.48561652 0 -5551.91055064 0 37118.84797542 0 -61755.48674376 0 7
0.00450000 0.00420575 74897.97860871 0 10753.51209709 0 32572.11369255 0 5809.03742563 0 41525.96834078 0 24
0.00550000 0.00557378 68269.77766740 0 2260.22959263 0 45194.37620005 0 26090.33710375 0 -1178.24919337 0 45
0.00650000 0.00659388 62499.58169042 0 11898.26932866 0 27544.47482207 0 34625.78938236 0 57316.73080937 0 40
0.00750000 0.00754703 95605.32591898 0 -14514.35513463 0 -15546.79511155 0 87866.36499825 0 30139.68994014 0 57
0.00850000 0.00846663 97981.83819695 0 -33497.89346971 0 3346.18640716 0 -8860.26608984 0 19129.74299614 0 75
0.00950000 0.00948925 89306.00308076 0 15006.79352345 0 -27074.88434422 0 -21978.48204938 0 24668.60387455 0 112
0.01050000 0.01054430 79880.69057733 0 15676.52291374 0 1969.81946272 0 -175.21711416 0 20693.72644027 0 105
0.01150000 0.01145670 73633.32476742 0 6078.29126874 0 13257.50033987 0 -15585.68049849 0 23317.61129277 0 144
0.01250000 0.01249090 66090.98769589 0 2730.14960766 0 20611.45199163 0 6488.58702380 0 12211.21980150 0 169
0.01350000 0.01339930 67752.51414455 0 -210.71705583 0 16622.84384162 0 7470.00366108 0 3828.07960631 0 180
0.01450000 0.01448870 65359.52500770 0 -2831.77887318 0 19746.63659230 0 2906.82547306 0 2891.01867311 0 267
0.01550000 0.01550050 71206.83268420 0 2248.37723881 0 22586.80767894 0 4857.96017782 0 30223.06284603 0 238
0.01650000 0.01653350 75794.75911425 0 -9178.31340436 0 11278.84928080 0 -364.69659736 0 -7529.06770785 0 315
0.01750000 0.01747870 75833.97403837 0 5125.47845846 0 17637.92819386 0 -633.19689879 0 10139.55138181 0 297
0.01850000 0.01844180 81815.40334609 0 7541.11778397 0 32047.05112317 0 -13681.72453297 0 -15561.95382171 0 388
0.01950000 0.01947590 68787.70026461 0 1078.86956831 0 36349.70820328 0 377.38707406 0 12894.13067888 0 399
0.02050000 0.02045430 69433.48328667 0 -458.40708451 0 27535.35762683 0 9246.45070808 0 -7038.73835696 0 462
0.02150000 0.02154770 68868.54671881 0 -1749.67764362 0 22660.40431523 0 11499.74903541 0 2046.78836280 0 571
0.02250000 0.02255340 70445.60180432 0 2877.50764884 0 20936.70518577 0 10697.99606727 0 5792.69238163 0 510
0.02350000 0.02348930 67935.84666093 0 4111.11908801 0 21146.62036780 0 -3704.50316477 0 5412.81290805 0 555
0.02450000 0.02439640 61035.33816533 0 3744.82753071 0 15445.40750663 0 151.65740289 0 1480.53364623 0 592
0.02550000 0.02547300 54983.71743882 0 2673.38133656 0 19041.86641548 0 -1109.84825990 0 1550.52734272 0 837
0.02650000 0.02652900 52130.69440226 0 3545.77609097 0 15275.91555170 0 3833.05561769 0 6960.40736989 0 723
0.02750000 0.02749970 53302.30891379 0 -2917.48050846 0 16757.18516429 0 6645.24899795 0 -216.33566470 0 826
0.02850000 0.02848090 56022.52846783 0 -846.04935553 0 12630.39109121 0 2955.64091361 0 -537.27302027 0 831
0.02950000 0.02946900 53515.73915905 0 454.16264566 0 12411.02917676 0 -4972.77093044 0 -4497.08401480 0 996
0.03050000 0.03053250 50740.26720492 0 2850.48560029 0 15660.81497495 0 -5845.50620660 0 765.17763682 0 1041
0.03150000 0.03150510 52861.16847892 0 2096.63635317 0 20274.66499629 0 -1014.23414632 0 -1054.91111705 0 1036
0.03250000 0.03246190 49279.31905160 0 202.50279245 0 20013.01247740 0 4429.59480086 0 -34.59986579 0 1059
0.03350000 0.03345080 52381.80173147 0 943.92958643 0 24946.40371513 0 1869.66212993 0 -3650.77762027 0 1302
0.03450000 0.03451200 47427.64965156 0 2341.15293883 0 25851.20295866 0 357.66976628 0 7598.91860489 0 1339
0.03550000 0.03553350 47743.23642182 0 -522.64486496 0 27239.65293294 0 -2646.06270455 0 4326.82313979 0 1365
0.03650000 0.03647120 48173.72182129 0 -241.83305458 0 28303.61863317 0 981.76704515 0 7098.92283014 0 1308
0.03750000 0.03744890 50697.75690903 0 -2169.55194597 0 23404.49926189 0 8101.91316797 0 2030.86073256 0 1579
0.03850000 0.03847530 53403.03744436 0 -1810.42232999 0 26042.55421303 0 3349.22913377 0 6717.85702272 0 1662
0.03950000 0.03950240 52550.74445778 0 3243.09619349 0 23661.53826029 0 -4223.67800325 0 -501.26668981 0 1683
0.04050000 0.04050350 48257.42426436 0 2754.64520451 0 26514.01206822 0 -2606.21067522 0 6699.82035454 0 1822
0.04150000 0.04152450 50076.57932955 0 208.77498340 0 27167.59413681 0 1490.47468442 0 684.89688810 0 1887
0.04250000 0.04250150 47228.38950494 0 1653.41983409 0 27749.55679217 0 3330.86292841 0 3016.75907545 0 1920
0.04350000 0.04349210 47315.05778260 0 500.98328783 0 27136.39795068 0 4123.49870131 0 3617.64814937 0 2005
0.04450000 0.04448520 45414.06765168 0 -1889.88472805 0 21985.95155874 0 5189.01322627 0 8321.83529562 0 2151
0.04550000 0.04548030 46683.88424208 0 -675.31504544 0 18137.17701768 0 4348.75933124 0 2504.53747141 0 2274
0.04650000 0.04648670 45321.13816764 0 2043.16345385 0 17632.54575330 0 -3319.43897293 0 4578.28197532 0 2311
0.04750000 0.04749250 42308.28960003 0 4295.08870960 0 19245.08100824 0 -3626.83125204 0 3289.56093551 0 2568
0.04850000 0.04851840 40001.08997504 0 237.07124237 0 19625.69644818 0 3186.26201495 0 3206.70430453 0 2493
0.04950000 0.04949480 40042.83135085 0 -653.98410395 0 21755.60507171 0 3665.52990125 0 -341.41369732 0 2644
0.05050000 0.05050630 38869.34946199 0 749.22144668 0 17506.77239724 0 1216.40959851 0 349.72572339 0 2829
0.05150000 0.05149060 36901.57312976 0 1755.55438995 0 16451.37466363 0 -1407.58509972 0 -1515.68427849 0 2784
0.05250000 0.05249300 37296.13897689 0 892.60856487 0 18690.14040143 0 123.89279723 0 -470.93389108 0 3055
0.05350000 0.05348950 36875.42984702 0 -591.25560376 0 16949.52503019 0 2550.37609279 0 -908.69437296 0 3009
0.05450000 0.05448610 35479.51036338 0 -334.97563933 0 15931.14530617 0 74.75287240 0 -4268.91247314 0 3336
0.05550000 0.05550870 35661.08534815 0 1079.85927830 0 13824.96335943 0 1752.64347822 0 -3089.66368367 0 3349
0.05650000 0.05647670 36019.62179721 0 -364.61860689 0 13771.02910805 0 1384.16599098 0 -2075.69975783 0 3324
0.05750000 0.05747970 35953.05528737 0 -474.55880003 0 11996.69109899 0 2206.69078587 0 -3894.96466876 0 3639
0.05850000 0.05849280 35152.38979191 0 1373.98329219 0 13015.72989736 0 -2920.12779045 0 -3798.69587465 0 3846
0.05950000 0.05951020 33347.18513389 0 1079.42648614 0 11512.16160243 0 -315.98551025 0 -2317.62398437 0 3787
0.06050000 0.06049470 32872.43190693 0 479.43924563 0 11500.84749267 0 3122.05718821 0 -2417.92411661 0 3930
0.06150000 0.06148310 32498.29736481 0 -726.45372309 0 11325.09433136 0 2408.85085965 0 -756.59209489 0 4083
0.06250000 0.06249100 32889.67768588 0 123.73352093 0 9689.53541229 0 2326.67527217 0 -2073.57973533 0 4303
0.06350000 0.06350600 32131.41264059 0 1012.30635384 0 8801.15810478 0 294.53264000 0 1342.39166145 0 4470
0.06450000 0.06451750 31191.68245626 0 603.10685912 0 9323.71619162 0 -2796.11196601 0 1169.35168957 0 4479
0.06550000 0.06550280 30323.13230225 0 1085.40099516 0 10339.48158736 0 -563.62830526 0 -500.25610913 0 4636
0.06650000 0.06648880 29112.19302088 0 881.94034798 0 11423.29641024 0 181.14438952 0 -523.20727508 0 4653
0.06750000 0.06749660 28289.33868881 0 15.71551815 0 10879.24151486 0 7.99341854 0 766.90770700 0 5220
0.06850000 0.06852730 27785.25665306 0 477.94754067 0 11214.47968547 0 2190.35672644 0 443.74377857 0 5029
0.06950000 0.06949320 27932.12038847 0 226.54143109 0 9878.66778300 0 1675.19125695 0 2242.10504787 0 5040
0.07050000 0.07048030 27891.03808701 0 -298.45742778 0 9226.38189397 0 1646.33478477 0 384.35898228 0 5475
0.07150000 0.07148790 28040.75781130 0 -442.58051233 0 7774.72668906 0 565.33530784 0 435.49326610 0 5509
0.07250000 0.07249820 28321.74317793 0 379.27202672 0 6984.94690503 0 -626.27112578 0 209.64056771 0 5916
0.07350000 0.07351270 27285.12906343 0 949.04729880 0 7638.29829760 0 -1518.21073019 0 118.36645876 0 5721
0.07450000 0.07449140 26815.75827703 0 295.69370932 0 6884.19640532 0 -176.97794114 0 -1641.18302023 0 6028
0.07550000 0.07549160 26385.05318611 0 514.02417240 0 8397.31029382 0 -265.93100991 0 -4047.65022764 0 6183
0.07650000 0.07648840 26182.60751344 0 -69.27695313 0 7856.25418676 0 -208.57067035 0 -3603.97235650 0 6330
0.07750000 0.07749960 25586.14522227 0 290.21130914 0 8224.09456879 0 649.89894140 0 -3822.41156686 0 6583
0.07850000 0.07848650 24943.43788054 0 -318.38783627 0 8012.27905570 0 24.63136617 0 -3491.06193494 0 6549
0.07950000 0.07947320 24736.26884165 0 1297.72838933 0 7860.54915464 0 -1423.75439056 0 -4734.24093683 0 6828
0.08050000 0.08048110 23450.85415818 0 1208.74236685 0 9001.91215327 0 -125.87111875 0 -3880.05860376 0 7147
0.08150000 0.08149960 23066.94334647 0 566.66224421 0 10112.58425612 0 133.58668253 0 -3496.97163499 0 7386
0.08250000 0.08250610 22693.57772443 0 294.51396622 0 11191.74162023 0 -684.36193942 0 -4025.92274307 0 7227
0.08350000 0.08350160 22053.61652584 0 -330.71582208 0 10112.58425612 0 1044.50762836 0 -2039.91202036 0 7798
0.08450000 0.08449610 22336.68896126 0 -680.20427870 0 9580.76617459 0 2021.08446296 0 -2405.80813305 0 7371
0.08550000 0.08548940 22931.06418363 0 -63.53476781 0 8271.72367550 0 502.74521327 0 -1487.93724815 0 8256
0.08650000 0.08650700 22368.65406747 0 763.90452485 0 8393.69636944 0 192.08831919 0 -1582.20685004 0 8037
0.08750000 0.08749060 22028.13231745 0 991.17862693 0 8501.67471792 0 -574.32947587 0 -21.05204320 0 8155
0.08850000 0.08849210 21284.91613659 0 206.91639371 0 8943.00189052 0 676.61781575 0 278.72144622 0 8718
0.08950000 0.08949900 21269.64758071 0 -445.51559013 0 8102.27565886 0 1723.69912946 0 1068.13214861 0 8571
0.09050000 0.09049190 20682.85171341 0 -223.74805428 0 7414.20203237 0 1384.85801905 0 37.99157227 0 8932
0.09150000 0.09150830 20423.72564622 0 1177.85374875 0 6830.94319744 0 -1082.65924585 0 311.23028878 0 9285
0.09250000 0.09250820 19855.93308949 0 485.52579730 0 7111.19259771 0 259.20625457 0 1685.69250833 0 9204
0.09350000 0.09350330 19346.79815034 0 -17.22633626 0 7038.23306662 0 605.18184488 0 496.77290116 0 9349
0.09450000 0.09448040 18740.12020667 0 400.72709388 0 6305.80373605 0 144.13626604 0 -959.39476617 0 9564
0.09550000 0.09549270 18480.11537367 0 381.42390449 0 6438.83789458 0 -150.81049234 0 70.47196478 0 10155
0.09650000 0.09649430 17940.22363130 0 -92.79239657 0 5954.18756772 0 108.27965530 0 83.75571825 0 9913
0.09750000 0.09749140 17503.91640837 0 284.52679283 0 5956.90075714 0 463.74778370 0 2.54861856 0 10476
0.09850000 0.09850240 17761.72432685 0 617.41426491 0 6061.55078013 0 -98.01523130 0 -1247.28723204 0 10575
0.09950000 0.09950330 17113.52469883 0 354.54795075 0 6348.25910907 0 -512.99162258 0 -834.91429431 0 10882
0.10050000 0.10051200 16506.95660089 0 -93.07327209 0 6744.45067294 0 508.77025134 0 -586.77499661 0 10875
0.10150000 0.10150300 16676.11901864 0 -248.82253811 0 5455.05957419 0 1080.69630273 0 -232.68290562 0 11118
0.10250000 0.10250800 16882.40929172 0 118.84209076 0 5670.37916593 0 541.08247004 0 -671.65828123 0 11575
0.10350000 0.10349800 16678.09624171 0 465.02309257 0 4779.66214446 0 -299.85137004 0 64.58115819 0 11364
0.10450000 0.10450100 16555.28872025 0 307.69874869 0 5729.11367553 0 218.56663139 0 -189.53550452 0 12093
0.10550000 0.10551000 15904.01341190 0 22.43752734 0 5146.15142406 0 4.17274254 0 150.41394927 0 12067
0.10650000 0.10649700 15806.69009883 0 -106.10965299 0 5122.06225639 0 255.03321545 0 -370.78644440 0 12054
0.10750000 0.10749900 15577.77160623 0 308.58849907 0 4886.62991225 0 195.96038102 0 -262.03478201 0 12807
0.10850000 0.10850100 15428.38141913 0 534.86630042 0 5420.75475402 0 -360.02815401 0 -184.53972091 0 12736
0.10950000 0.10950300 14858.94117651 0 63.93087150 0 5083.79200552 0 -286.25466610 0 190.65153709 0 12933
0.11050000 0.11050200 14635.73466166 0 -2.58726229 0 5592.98186752 0 628.95465686 0 143.96600517 0 13428
0.11150000 0.11150900 14868.60760038 0 217.15621228 0 5437.62705751 0 257.17740402 0 -431.24553189 0 13453
0.11250000 0.11250000 14815.77180626 0 -263.71542162 0 4357.81061904 0 413.03420900 0 818.11119363 0 13668
0.11350000 0.11349100 15044.25091596 0 -37.76990359 0 5112.91210743 0 497.29027453 0 -133.57020567 0 13791
0.11450000 0.11448600 14644.19278254 0 360.01936635 0 4225.92984063 0 183.34240250 0 1660.97722002 0 14205
0.11550000 0.11549300 14710.86913811 0 92.64663129 0 4909.26911634 0 -125.24939194 0 903.68980169 0 14776
0.11650000 0.11649800 14362.76803301 0 49.73144406 0 4491.58074394 0 63.14272842 0 785.44746860 0 14553
0.11750000 0.11747300 14488.54138907 0 157.25074725 0 4756.11122084 0 243.49611887 0 201.17585608 0 14568
0.11850000 0.11849100 14111.00162945 0 245.25145357 0 4607.90736758 0 -158.59306201 0 827.99511204 0 16015
0.11950000 0.11950300 13996.87192032 0 202.14579384 0 4565.61676314 0 448.21559807 0 542.97401344 0 15270
0.12050000 0.12050700 13764.65805596 0 -47.02978843 0 4116.53448229 0 -36.99384354 0 359.29987685 0 15999
0.12150000 0.12150000 13791.78995023 0 159.60803652 0 4218.75691474 0 318.94145873 0 -13.21257344 0 15670
0.12250000 0.12250700 13295.39711528 0 246.14999160 0 4086.63447573 0 -381.00868764 0 -417.05675948 0 16887
0.12350000 0.12352200 12891.60422719 0 388.45622785 0 4332.35936437 0 -141.52413468 0 -15.73122609 0 16407
0.12450000 0.12449800 12612.59608362 0 142.69069629 0 4205.79511909 0 256.56666178 0 283.23390864 0 16306
0.12550000 0.12549900 12771.87238605 0 -366.85506587 0 3531.08971743 0 977.58192299 0 -499.37075258 0 17523
0.12650000 0.12650100 12758.36136178 0 55.95134844 0 3210.84548839 0 452.25792078 0 -209.90419746 0 17154
0.12750000 0.12750600 12332.15994562 0 242.13622878 0 2703.69875688 0 -390.94533200 0 -164.67851522 0 18007
0.12850000 0.12850300 12357.53430829 0 418.52869221 0 3410.78667852 0 -160.45384861 0 -601.08459931 0 17496
0.12950000 0.12949900 11925.40122294 0 337.47462959 0 3375.69096912 0 -287.89795816 0 -334.58019471 0 18405
0.13050000 0.13049000 11997.67971052 0 -112.07669250 0 3491.27064182 0 360.83442164 0 -124.90887019 0 18100
0.13150000 0.13148800 11768.54152647 0 -191.28864230 0 3157.87787940 0 90.54890747 0 -804.61225238 0 19059
0.13250000 0.13249300 11945.39314503 0 381.84681053 0 3223.33494741 0 -14.34255642 0 -840.36813459 0 18957
0.13350000 0.13349100 11731.41367115 0 195.44959840 0 3680.41399710 0 -348.49764817 0 263.49353325 0 19468
0.13450000 0.13450700 11389.90330959 0 -197.82116762 0 3508.01113043 0 528.79183178 0 205.74983211 0 19953
0.13550000 0.13551000 11799.18848398 0 -104.99680594 0 3484.32839195 0 221.87079083 0 -49.00975764 0 19956
0.13650000 0.13649900 11564.00878501 0 348.81729924 0 3245.51279946 0 -93.84757461 0 -65.72344390 0 19723
0.13750000 0.13749600 11368.04401016 0 152.99971766 0 3552.91606315 0 3.83877858 0 1352.38762250 0 20946
0.13850000 0.13851100 11391.00176685 0 -5.78467364 0 3543.88674448 0 410.75820556 0 553.41594814 0 20955
0.13950000 0.13949800 11327.62078306 0 153.74007785 0 3397.33057710 0 234.73702069 0 456.24532062 0 20506
0.14050000 0.14048300 11026.64349433 0 63.40767631 0 3508.63725107 0 -135.34311569 0 921.00038963 0 21447
0.14150000 0.14148400 11064.75996119 0 115.68182923 0 3248.84112495 0 233.22993733 0 1084.93195391 0 21771
0.14250000 0.14249400 10846.91391775 0 -9.48601325 0 3076.53711944 0 416.97767056 0 1005.00600690 0 22470
0.14350000 0.14350900 10743.24152173 0 119.41438699 0 3038.48656002 0 -75.87132159 0 912.36651558 0 22519
0.14450000 0.14449900 10442.30817129 0 337.93268626 0 2853.01205198 0 -46.76934422 0 1144.14209550 0 22218
0.14550000 0.14550500 10268.07088101 0 290.58588307 0 3126.42904810 0 -69.30287672 0 884.60520529 0 23559
0.14650000 0.14650700 10115.25350726 0 54.56103109 0 3341.02365805 0 -100.29661718 0 1252.12044397 0 23044
0.14750000 0.14750500 10063.18663322 0 -105.38027737 0 2960.83661644 0 464.99013886 0 653.73255723 0 23649
0.14850000 0.14849900 10105.27951535 0 -59.40017469 0 2413.12385839 0 303.70915193 0 625.73837401 0 23640
0.14950000 0.14949500 9946.99182445 0 33.41199411 0 2547.86062567 0 -48.23688311 0 570.60900114 0 24457
0.15050000 0.15050000 9871.06645877 0 352.54326625 0 2450.20777542 0 -395.27215514 0 100.90549204 0 24591
0.15150000 0.15149900 9557.77546418 0 175.23798485 0 2612.05446784 0 -322.88711720 0 148.59270714 0 25020
0.15250000 0.15250500 9481.97092880 0 141.66473721 0 2673.52413600 0 225.33532502 0 2.51580764 0 25297
0.15350000 0.15350100 9377.10121436 0 -78.66568700 0 2625.57647668 0 443.47355808 0 117.90730363 0 25452
0.15450000 0.15450400 9216.29805634 0 179.58567868 0 2493.02563934 0 71.24648699 0 -45.01642612 0 26061
0.15550000 0.15549900 9227.38149008 0 191.01402799 0 2504.55944055 0 -154.56721616 0 -8.60739024 0 26128
0.15650000 0.15649500 8872.49191912 0 69.23521175 0 2738.06948449 0 20.37056031 0 545.97609713 0 26331
0.15750000 0.15749700 9011.44676227 0 -121.22684146 0 2400.75522966 0 325.70575852 0 491.25315344 0 27345
0.15850000 0.15849900 8850.94018772 0 10.57880247 0 2605.78227689 0 -225.40782320 0 367.79095145 0 26980
0.15950000 0.15949700 8910.70724713 0 300.92566124 0 2666.47204040 0 36.62289452 0 409.93436262 0 27777
0.16050000 0.16050000 8737.32675351 0 -11.19448776 0 2661.41913702 0 -71.81966199 0 221.16228590 0 28224
0.16150000 0.16150500 8790.01974818 0 66.82047316 0 2974.79800819 0 -58.15847861 0 433.62039648 0 28075
0.16250000 0.16249700 8780.96846037 0 82.29982300 0 2855.21995107 0 -11.08980479 0 81.94326377 0 28590
0.16350000 0.16349900 8662.14833876 0 53.20937943 0 2811.78695108 0 59.23298950 0 427.80406530 0 29163
0.16450000 0.16449100 8792.22764727 0 24.99638352 0 2873.95963189 0 56.55165533 0 -325.53549765 0 28996
0.16550000 0.16550500 8603.27102972 0 89.09422052 0 2703.30331227 0 4.28679536 0 154.41233369 0 30777
0.16650000 0.16650700 8358.33703031 0 117.52394205 0 3070.58348110 0 -105.70981455 0 -26.39153408 0 29211
0.16750000 0.16749900 8458.60420883 0 93.90172856 0 2546.45460038 0 85.23127588 0 219.11915540 0 30922
0.16850000 0.16850800 8352.71292914 0 22.44554608 0 2743.32011018 0 406.97731568 0 -47.09437772 0 30867
0.16950000 0.16949900 8161.18592162 0 84.56989477 0 2428.32650684 0 126.79162593 0 -33.98429034 0 30852
0.17050000 0.17049200 8274.75541753 0 -6.39052774 0 2344.81080150 0 198.38467619 0 252.22995253 0 31257
0.17150000 0.17149500 8039.27913511 0 79.25380102 0 2277.00303496 0 -42.00808123 0 90.29593276 0 32608
0.17250000 0.17250900 8011.07075272 0 105.11467040 0 2047.61220574 0 182.50208270 0 47.26683551 0 32361
0.17350000 0.17350400 7773.29869462 0 125.18018914 0 1938.85395262 0 279.71774695 0 416.45370645 0 32508
0.17450000 0.17449800 7894.96382053 0 -50.16214915 0 1900.12234969 0 130.98004346 0 576.52968576 0 32791
0.17550000 0.17549800 7834.47177933 0 -13.18533170 0 1519.85841607 0 371.82668342 0 402.52526841 0 33633
0.17650000 0.17650100 7797.29998571 0 -25.59647072 0 1557.94192921 0 -241.31348430 0 223.10765370 0 33984
0.17750000 0.17750300 7715.54181199 0 223.88536144 0 1675.47685583 0 -68.76639019 0 444.32705937 0 34069
0.17850000 0.17849800 7735.86327127 0 63.02167843 0 1393.48090852 0 12.58623311 0 318.60752772 0 34536
