### header ###
fiducial parameters:
Omega_m = 0.31
Omega_nu = 0
Omega_de = 0.69
Omega_k = 0
H_0 = 100
w_de = -1
zeff = 0
beta = 0
fgrowth = 0
b_1 = 2
gamma = 0.55
Lx = 3500 Ly = 3500 Lz = 3500
nx = 700 ny = 700 nz = 700
xoffset = -983.599254 yoffset = -42.9823471 zoffset = 800.977702
bins = 400 dk = 0.001
kx_ny = 0.628318531 ky_ny = 0.628318531 kz_ny = 0.628318531
############################
A(data) = 9.02332503 (not used)
A(ran) = 9.02610108 (used)
Ngal = 501798
weighted Ngal = 0
Nran = 25229228
weighted Nran = 0
SN(data) = 6737.12698
SN(ran) = 133.986252
SN(data+ran) = 6871.11323
############################
13 columns: k_central k_mean P_0(k) sigma^{lin}_{P_0(k)} P^img_1(k) sigma^{lin}_{P_1(k)} P_2(k) sigma^{lin}_{P_2(k)} P^img_3(k) sigma^{lin}_{P_3(k)} P_4(k) sigma^{lin}_{P_4(k)} N_modes
### header ###
0.00050000 0 0 0 0 0 0 0 0 0 0 0 0
0.00150000 0.00179520 7910.12253070 0 -8230.11411456 0 12096.43101803 0 -36174.39442488 0 -446.44708188 0 3
0.00250000 0.00253879 25137.64512377 0 -25787.60228341 0 -27515.36570473 0 -48086.39446927 0 -78270.46208264 0 6
0.00350000 0.00331552 41970.84353033 0 -24945.85448650 0 -25848.89619842 0 -5764.53892210 0 1831.72141623 0 7
0.00450000 0.00420575 69223.01887601 0 -22671.71842499 0 -19975.99446780 0 -73965.05885938 0 -36795.46215863 0 24
0.00550000 0.00557378 82412.41486588 0 3008.34489285 0 26414.27214918 0 -45685.05705726 0 3917.39516597 0 45
0.00650000 0.00659388 87020.22337230 0 18406.62858311 0 65358.86593335 0 -3312.90315224 0 34287.57439258 0 40
0.00750000 0.00754703 73202.39998506 0 10313.31633547 0 57014.87475483 0 37427.18492778 0 29941.19871360 0 57
0.00850000 0.00846663 101743.28538598 0 -15158.16093362 0 39788.75818704 0 66494.67073826 0 34731.79050777 0 75
0.00950000 0.00948925 103174.13581043 0 -10667.49190921 0 55120.47536745 0 38805.41924956 0 -5655.64885410 0 112
0.01050000 0.01054430 111326.44619740 0 676.16964519 0 28316.58042882 0 -7183.24040927 0 65395.77409722 0 105
0.01150000 0.01145670 94013.22196904 0 11424.61455895 0 11479.20788468 0 8405.69152270 0 40830.53505066 0 144
0.01250000 0.01249090 94402.18568414 0 6653.14690564 0 41982.48717726 0 15020.19470200 0 47727.30879158 0 169
0.01350000 0.01339930 95596.86779809 0 347.72103889 0 42441.09308254 0 -2536.61242335 0 3133.83265002 0 180
0.01450000 0.01448870 93031.53071744 0 335.96974314 0 35777.41197179 0 -11602.34494332 0 858.19170206 0 267
0.01550000 0.01550050 82361.44644910 0 6466.61787864 0 34724.65053559 0 1797.66924123 0 36662.21929322 0 238
0.01650000 0.01653350 78143.26073214 0 -769.92407063 0 36449.99735095 0 8267.57150707 0 13008.58992518 0 315
0.01750000 0.01747870 86864.90151600 0 1655.03456626 0 35396.46699467 0 17619.03472902 0 -6878.25375155 0 297
0.01850000 0.01844180 80431.56689229 0 8490.44848474 0 39518.86723872 0 3640.13356944 0 7356.62090289 0 388
0.01950000 0.01947590 78884.17015275 0 5109.74855053 0 37518.68641738 0 7547.03846859 0 34541.20817349 0 399
0.02050000 0.02045430 73501.72958790 0 -2838.46847788 0 30699.46375889 0 11811.49120527 0 22249.14191778 0 462
0.02150000 0.02154770 74303.38369488 0 1160.97046069 0 38251.02787138 0 4753.70559945 0 22349.32121973 0 571
0.02250000 0.02255340 65484.63928940 0 4204.87241499 0 39423.41130299 0 1506.32542265 0 22172.90898407 0 510
0.02350000 0.02348930 68269.99735885 0 3009.41039639 0 33550.61941810 0 2611.19767117 0 24496.14608502 0 555
0.02450000 0.02439640 65128.95882922 0 -844.46647862 0 32545.64087263 0 2265.08477371 0 19149.07584388 0 592
0.02550000 0.02547300 68306.57598555 0 -369.09921405 0 32835.74343451 0 13016.38897171 0 10032.68247516 0 837
0.02650000 0.02652900 65035.15057937 0 -1805.11678144 0 28481.67855471 0 3319.32912720 0 24690.79271117 0 723
0.02750000 0.02749970 62279.01147299 0 2208.70096265 0 14243.69526623 0 6611.37257611 0 10722.56855613 0 826
0.02850000 0.02848090 64560.17766096 0 1437.37526056 0 16992.36486326 0 6470.80300079 0 14762.16709207 0 831
0.02950000 0.02946900 61959.14071942 0 18.06643637 0 16995.98977221 0 -2312.10972893 0 16508.82397823 0 996
0.03050000 0.03053250 57919.89368981 0 3658.58765138 0 12342.70513530 0 4623.61530637 0 7168.25745227 0 1041
0.03150000 0.03150510 57606.50383406 0 2828.68122371 0 17110.66870996 0 -4904.78741073 0 12357.31461683 0 1036
0.03250000 0.03246190 51199.97156745 0 3662.64095866 0 16306.26845983 0 -4177.57575213 0 4111.60240920 0 1059
0.03350000 0.03345080 48885.19258738 0 2803.84510511 0 24434.30294139 0 -2751.26195616 0 10044.40301411 0 1302
0.03450000 0.03451200 47206.85974268 0 -1368.24934530 0 21251.30334450 0 3135.07390672 0 1031.66117072 0 1339
0.03550000 0.03553350 48111.21960330 0 1011.95045368 0 25005.39086990 0 2795.54076823 0 -1293.20274543 0 1365
0.03650000 0.03647120 44854.18398721 0 1331.98927121 0 19743.01168335 0 -85.74282743 0 1291.95050415 0 1308
0.03750000 0.03744890 49379.71804499 0 -82.40263860 0 25151.15614805 0 -254.17971416 0 3337.57450226 0 1579
0.03850000 0.03847530 45816.54239106 0 -788.44625691 0 21042.15708255 0 1958.68110612 0 383.88774412 0 1662
0.03950000 0.03950240 47952.60237522 0 1361.77943205 0 24686.50872786 0 1634.75704527 0 -919.31315928 0 1683
0.04050000 0.04050350 47562.21066568 0 1131.58672904 0 22601.96638910 0 -1284.66773253 0 3301.84168765 0 1822
0.04150000 0.04152450 45192.61866844 0 -162.11251907 0 21989.13708478 0 4736.95412626 0 2675.11689902 0 1887
0.04250000 0.04250150 45307.18776046 0 -384.77310067 0 20960.76139972 0 -1175.29434334 0 1607.25167553 0 1920
0.04350000 0.04349210 44652.72692606 0 2382.89431464 0 22187.95784851 0 2653.19169215 0 -1575.94564367 0 2005
0.04450000 0.04448520 43942.57430868 0 782.27402558 0 21059.73239868 0 655.58016234 0 2723.80052471 0 2151
0.04550000 0.04548030 40830.86458784 0 -70.09728101 0 16796.50993413 0 2383.22385182 0 2851.74882613 0 2274
0.04650000 0.04648670 43028.43817846 0 -258.08253280 0 20670.76868357 0 572.11608450 0 -5566.78366192 0 2311
0.04750000 0.04749250 40924.34330050 0 2764.44344326 0 17051.57170947 0 232.59832441 0 -1464.01284907 0 2568
0.04850000 0.04851840 38976.11950748 0 1650.95928983 0 19894.48893925 0 -2372.20632552 0 -109.72280845 0 2493
0.04950000 0.04949480 36267.54360037 0 -525.89959382 0 17787.53807242 0 1334.81230637 0 610.72575866 0 2644
0.05050000 0.05050630 37380.50049431 0 499.53661962 0 19049.88515347 0 2753.26114837 0 -6522.97972055 0 2829
0.05150000 0.05149060 35550.25101081 0 1868.11330519 0 15808.77716762 0 690.96586446 0 -1907.46004418 0 2784
0.05250000 0.05249300 35069.78580610 0 29.05474371 0 16641.29792356 0 1297.44279045 0 1147.82192731 0 3055
0.05350000 0.05348950 34388.30292315 0 -1414.72507190 0 14584.43670770 0 3496.22468405 0 799.53847831 0 3009
0.05450000 0.05448610 35460.83659000 0 401.12034158 0 13865.38658653 0 2010.16579781 0 -2399.93138672 0 3336
0.05550000 0.05550870 34836.58333020 0 1164.68324623 0 11296.09505975 0 -1178.65562255 0 2246.91629066 0 3349
0.05650000 0.05647670 35125.03820618 0 -88.55817338 0 14013.56847065 0 1152.53430895 0 1536.85154986 0 3324
0.05750000 0.05747970 34755.07780164 0 -1054.20261212 0 11943.08638479 0 22.65644987 0 471.73356796 0 3639
0.05850000 0.05849280 34733.87757656 0 876.67654080 0 13586.70798014 0 904.68829934 0 -857.15475841 0 3846
0.05950000 0.05951020 33574.23624915 0 2151.59216980 0 13023.41909817 0 -810.09904639 0 2994.83386858 0 3787
0.06050000 0.06049470 32527.62617360 0 359.45366087 0 16062.08141134 0 28.33767081 0 3489.63394050 0 3930
0.06150000 0.06148310 32874.73866717 0 231.37574148 0 15954.43260005 0 229.84339361 0 2754.41452849 0 4083
0.06250000 0.06249100 31870.30935033 0 576.08810594 0 15177.82331855 0 2549.36551211 0 2868.77491363 0 4303
0.06350000 0.06350600 31498.15203128 0 -190.69218001 0 16233.33089789 0 -177.11085447 0 5796.56993575 0 4470
0.06450000 0.06451750 30373.00226177 0 491.60136439 0 14525.44955294 0 2317.44823120 0 6442.19917379 0 4479
0.06550000 0.06550280 30900.70112858 0 594.07204817 0 15007.78213499 0 1462.88143809 0 4731.40691711 0 4636
0.06650000 0.06648880 31258.02927465 0 -628.29997634 0 12523.62104572 0 802.22640322 0 6320.40223301 0 4653
0.06750000 0.06749660 30966.27902689 0 -562.73745643 0 12841.73426767 0 981.17168131 0 4619.80365968 0 5220
0.06850000 0.06852730 30525.24843775 0 -158.42499805 0 9551.42638123 0 1152.87483070 0 4254.48972934 0 5029
0.06950000 0.06949320 30792.61293438 0 197.05005062 0 9946.38767296 0 717.23986361 0 3202.42032122 0 5040
0.07050000 0.07048030 30737.14084284 0 1094.82246307 0 8640.46479248 0 -962.67146417 0 488.63772671 0 5475
0.07150000 0.07148790 29919.66895134 0 692.94089061 0 9239.59633479 0 -1027.60017424 0 -652.61762312 0 5509
0.07250000 0.07249820 28881.73668813 0 571.82389487 0 9945.66269117 0 -154.11904560 0 -992.58684914 0 5916
0.07350000 0.07351270 27736.04576789 0 64.16890719 0 10335.75781725 0 -346.95870955 0 -1445.37202940 0 5721
0.07450000 0.07449140 27682.66074515 0 752.16641059 0 8840.38401347 0 1666.71116691 0 -1903.71430493 0 6028
0.07550000 0.07549160 26818.17488299 0 393.60689394 0 7786.34836685 0 1498.04305493 0 -64.68781839 0 6183
0.07650000 0.07648840 25970.16587971 0 64.49328161 0 9283.53462511 0 839.33997860 0 -286.94120188 0 6330
0.07750000 0.07749960 26045.52004762 0 876.54362747 0 7459.23877995 0 161.48529998 0 247.74605000 0 6583
0.07850000 0.07848650 25287.03531088 0 80.28272593 0 7139.42294924 0 716.22159374 0 1226.25177555 0 6549
0.07950000 0.07947320 24403.21660099 0 412.74751166 0 8392.07065270 0 -523.37643750 0 301.85056225 0 6828
0.08050000 0.08048110 23923.19077918 0 993.71496474 0 8672.33103754 0 -1625.67280375 0 -551.42664204 0 7147
0.08150000 0.08149960 23164.26665954 0 849.07011299 0 10031.11168128 0 -1104.15825130 0 -1504.33721501 0 7386
0.08250000 0.08250610 22497.83264103 0 188.08334402 0 10102.43451105 0 -974.87202894 0 -1520.72619731 0 7227
0.08350000 0.08350160 22299.34141448 0 -24.69463731 0 10418.95496998 0 579.07590969 0 -2670.19581051 0 7798
0.08450000 0.08449610 21578.09437879 0 -122.64714670 0 9910.42418233 0 1554.91018718 0 -1803.93044760 0 7371
0.08550000 0.08548940 22265.61877666 0 189.82879261 0 8789.41559669 0 1620.57596207 0 -1005.91223414 0 8256
0.08650000 0.08650700 21813.27407776 0 211.78365783 0 8018.18875575 0 626.45566660 0 -674.29457865 0 8037
0.08750000 0.08749060 22126.11470487 0 -85.96614379 0 8581.33483828 0 709.17169505 0 -27.47439325 0 8155
0.08850000 0.08849210 21365.87243652 0 516.11563502 0 8194.48016111 0 -609.97111853 0 -374.05984703 0 8718
0.08950000 0.08949900 20720.52879737 0 759.69853201 0 8219.51400202 0 -121.88371891 0 160.44066712 0 8571
0.09050000 0.09049190 20399.33989509 0 202.71369625 0 8091.01647197 0 548.04998443 0 403.97523200 0 8932
0.09150000 0.09150830 19627.34413407 0 229.39192767 0 8234.21136014 0 368.04799045 0 820.87271517 0 9285
0.09250000 0.09250820 19222.23309727 0 378.67885980 0 8170.96219121 0 1242.41008181 0 1264.35725783 0 9204
0.09350000 0.09350330 19010.67022935 0 205.23795102 0 7310.84818895 0 851.48342359 0 1924.13462536 0 9349
0.09450000 0.09448040 18818.98943781 0 269.96234805 0 7024.79893436 0 419.69525382 0 2426.75571296 0 9564
0.09550000 0.09549270 17965.37830251 0 217.07932027 0 6158.20403427 0 435.48337999 0 3166.24812371 0 10155
0.09650000 0.09649430 17784.57223782 0 142.58963822 0 7278.24597753 0 6.07075585 0 2625.68632241 0 9913
0.09750000 0.09749140 17498.64381353 0 443.18905765 0 7008.57472066 0 -497.91200134 0 2679.40088233 0 10476
0.09850000 0.09850240 17181.95858601 0 448.32214842 0 7849.50965919 0 -555.74577598 0 2085.84950290 0 10575
0.09950000 0.09950330 17015.10292850 0 238.03678629 0 7627.76409249 0 -137.42688911 0 1099.94017543 0 10882
0.10050000 0.10051200 16613.28726348 0 152.33405256 0 8097.09094060 0 30.63597293 0 1222.44012886 0 10875
0.10150000 0.10150300 16747.73843187 0 123.76208082 0 8089.31386322 0 -318.96123096 0 408.22736004 0 11118
0.10250000 0.10250800 16388.10352556 0 189.03131264 0 8008.99466850 0 841.45670573 0 1147.73405073 0 11575
0.10350000 0.10349800 16325.38161612 0 -259.44242288 0 7086.91669231 0 596.14813239 0 239.65701075 0 11364
0.10450000 0.10450100 16511.67996710 0 -122.38681233 0 6530.29544589 0 1271.31049227 0 624.67287047 0 12093
0.10550000 0.10551000 16293.19681845 0 498.03832392 0 6794.93576852 0 -639.56355706 0 726.16592729 0 12067
0.10650000 0.10649700 15511.75432502 0 652.30016897 0 6770.76970884 0 -506.96109223 0 591.97509327 0 12054
0.10750000 0.10749900 15125.86629024 0 -40.27976858 0 6907.75831350 0 674.48241484 0 1499.98732427 0 12807
0.10850000 0.10850100 15313.81232710 0 32.70392856 0 6787.67496604 0 278.74121845 0 559.27511915 0 12736
0.10950000 0.10950300 15146.51728669 0 244.39905073 0 6465.16791506 0 814.90259998 0 1396.12819052 0 12933
0.11050000 0.11050200 14963.62415321 0 221.69613612 0 6581.64832271 0 -122.09462270 0 1190.58486837 0 13428
0.11150000 0.11150900 14760.95878908 0 124.38161071 0 5956.85681885 0 327.94551287 0 1067.63564593 0 13453
0.11250000 0.11250000 14645.84046843 0 86.01403652 0 6544.38865251 0 -367.37353770 0 1323.88265665 0 13668
0.11350000 0.11349100 14236.11591115 0 -5.70305827 0 6076.48979884 0 -173.71662154 0 435.67890538 0 13791
0.11450000 0.11448600 14186.02626018 0 332.60956239 0 6730.41238918 0 693.56481433 0 724.62149639 0 14205
0.11550000 0.11549300 13782.78260071 0 42.74613466 0 5851.48181408 0 -280.66791248 0 1161.54165847 0 14776
0.11650000 0.11649800 13876.92038774 0 -14.13286093 0 6022.09419541 0 874.64878870 0 557.08479538 0 14553
0.11750000 0.11747300 14127.80802549 0 105.31426009 0 5512.95925627 0 699.97211552 0 906.98407501 0 14568
0.11850000 0.11849100 13877.46961637 0 -0.29646153 0 5200.38225889 0 270.92130123 0 1245.47477756 0 16015
0.11950000 0.11950300 13939.09306855 0 199.79399685 0 4819.97552583 0 35.88736754 0 938.42082328 0 15270
0.12050000 0.12050700 13689.96296240 0 28.75288765 0 4800.81843125 0 268.38825879 0 1564.80728708 0 15999
0.12150000 0.12150000 13656.56986175 0 -86.09048915 0 4619.32033849 0 35.06077846 0 929.04329367 0 15670
0.12250000 0.12250700 13442.48054214 0 181.90122658 0 4831.53129619 0 -375.52299209 0 504.30502258 0 16887
0.12350000 0.12352200 12954.10644518 0 365.61820300 0 4707.09805798 0 178.18844104 0 751.38211211 0 16407
0.12450000 0.12449800 13054.39559285 0 75.11327623 0 4789.47136777 0 136.90841728 0 495.68433002 0 16306
0.12550000 0.12549900 13036.38089381 0 51.58179531 0 4336.09411905 0 539.30406774 0 -23.97108352 0 17523
0.12650000 0.12650100 13142.27217350 0 -145.19078501 0 4276.54675109 0 304.76696627 0 250.62071264 0 17154
0.12750000 0.12750600 13112.06459890 0 -232.51594012 0 3577.36772171 0 484.53608731 0 938.28681150 0 18007
0.12850000 0.12850300 13065.16047398 0 70.62970324 0 3099.67062929 0 173.92093459 0 307.47576187 0 17496
0.12950000 0.12949900 13157.87026656 0 269.72508128 0 3028.89702815 0 -52.05314332 0 456.20797308 0 18405
0.13050000 0.13049000 12692.23423484 0 274.22655912 0 4042.59732425 0 -432.24183262 0 569.72254613 0 18100
0.13150000 0.13148800 12428.49464716 0 177.23937397 0 3575.04997690 0 -225.11014128 0 235.54987906 0 19059
0.13250000 0.13249300 12346.22019853 0 230.01914677 0 4042.79504656 0 129.75306670 0 181.02026385 0 18957
0.13350000 0.13349100 12338.31130627 0 17.43713021 0 3440.56585478 0 446.29879015 0 43.42618955 0 19468
0.13450000 0.13450700 12140.91853698 0 77.40718452 0 3718.09108105 0 152.73938329 0 311.25445484 0 19953
0.13550000 0.13551000 11784.24946527 0 145.57744196 0 3474.58507607 0 392.18219487 0 857.96651832 0 19956
0.13650000 0.13649900 11855.31964987 0 -83.65422080 0 3056.81981165 0 638.06526136 0 1024.37290682 0 19723
0.13750000 0.13749600 11735.69765446 0 77.29074805 0 2601.97063021 0 533.22850065 0 1182.10477834 0 20946
0.13850000 0.13851100 11693.07751284 0 103.00277648 0 2338.03332022 0 -94.49236903 0 1107.12408590 0 20955
0.13950000 0.13949800 11362.66156959 0 123.19747379 0 2718.93435905 0 -169.65123123 0 951.58034123 0 20506
0.14050000 0.14048300 11155.60237643 0 452.01626018 0 2622.32504320 0 -420.05774471 0 677.05280482 0 21447
0.14150000 0.14148400 10808.01754624 0 258.62626914 0 2872.09225455 0 -222.51228987 0 887.29532712 0 21771
0.14250000 0.14249400 10638.53657589 0 -24.82172882 0 3018.89008253 0 348.03409921 0 517.23496297 0 22470
0.14350000 0.14350900 10906.90066862 0 -72.49784950 0 2955.97045078 0 363.26530755 0 418.09809696 0 22519
0.14450000 0.14449900 10870.10235047 0 17.68801784 0 2524.66120838 0 -170.13565088 0 668.84842756 0 22218
0.14550000 0.14550500 10452.12837918 0 153.17656928 0 2801.80197461 0 26.78137656 0 771.53770434 0 23559
0.14650000 0.14650700 10388.65951881 0 163.23624085 0 2648.46832594 0 263.80219974 0 1552.74622638 0 23044
0.14750000 0.14750500 10437.46397478 0 100.33385488 0 2973.77644294 0 -15.00877075 0 576.43302152 0 23649
0.14850000 0.14849900 10252.62657196 0 365.86535588 0 2944.18400440 0 -487.10757575 0 777.98784536 0 23640
0.14950000 0.14949500 9903.24027186 0 106.27310343 0 3118.97052332 0 7.20918597 0 736.03886113 0 24457
0.15050000 0.15050000 9704.16686297 0 -80.92631204 0 3063.36661691 0 168.73621634 0 882.19409161 0 24591
0.15150000 0.15149900 9752.38913660 0 87.52815001 0 2907.59439314 0 177.75894425 0 422.08110298 0 25020
0.15250000 0.15250500 9558.13795508 0 247.27920566 0 3066.38737437 0 -115.10733608 0 143.51124386 0 25297
0.15350000 0.15350100 9262.41129204 0 298.01584796 0 3024.77781343 0 -274.85927050 0 417.93113146 0 25452
0.15450000 0.15450400 9223.14144506 0 -113.41571190 0 2809.96351203 0 562.28489204 0 297.74562748 0 26061
0.15550000 0.15549900 9390.74405351 0 -200.44648046 0 2454.60160445 0 577.89287122 0 359.23396941 0 26128
0.15650000 0.15649500 9288.58752850 0 -20.52763970 0 2357.14647651 0 218.87969171 0 -2.61709639 0 26331
0.15750000 0.15749700 9290.27915268 0 225.00468938 0 2069.89990351 0 -333.43670071 0 315.34291275 0 27345
0.15850000 0.15849900 9090.23910140 0 199.90823641 0 2166.72891082 0 9.77327081 0 219.24218261 0 26980
0.15950000 0.15949700 9158.18966739 0 -20.03421270 0 2211.98534985 0 -30.76614011 0 4.70170463 0 27777
0.16050000 0.16050000 8769.61041232 0 185.00326987 0 2485.30348482 0 -98.59763334 0 360.33791896 0 28224
0.16150000 0.16150500 8657.58974114 0 174.66349170 0 2531.46065881 0 -138.50886951 0 284.18297571 0 28075
0.16250000 0.16249700 8515.64709424 0 143.07295941 0 2613.88889146 0 136.31964419 0 124.92095322 0 28590
0.16350000 0.16349900 8562.14478998 0 183.16335396 0 2624.29128169 0 114.78768502 0 166.45911444 0 29163
0.16450000 0.16449100 8286.24528045 0 -59.99916343 0 2648.90770885 0 -49.17573453 0 645.19095360 0 28996
0.16550000 0.16550500 8293.02276174 0 -33.63201510 0 2645.77710566 0 126.44780881 0 573.65941695 0 30777
0.16650000 0.16650700 8357.72189424 0 6.25905340 0 2297.10480278 0 337.42410055 0 694.91481830 0 29211
0.16750000 0.16749900 8440.29292633 0 -18.36258045 0 2450.95472636 0 175.83005331 0 457.99955686 0 30922
0.16850000 0.16850800 8467.10626801 0 228.37915008 0 2422.82323598 0 -49.99727072 0 543.67043534 0 30867
0.16950000 0.16949900 8269.16427009 0 46.71024722 0 2263.78859414 0 -189.29823775 0 869.24877282 0 30852
0.17050000 0.17049200 8255.67521496 0 -8.47701435 0 2521.14614515 0 -91.93658852 0 677.07038014 0 31257
0.17150000 0.17149500 8060.32557617 0 81.56034157 0 2318.20616671 0 224.88715446 0 606.28689288 0 32608
0.17250000 0.17250900 8134.60325597 0 107.29269145 0 2560.52583786 0 -6.66630642 0 546.62198999 0 32361
0.17350000 0.17350400 7998.49341711 0 165.33319575 0 2540.79754550 0 93.72487694 0 753.58232200 0 32508
0.17450000 0.17449800 7829.57265996 0 58.68365102 0 2479.62446079 0 -203.17614675 0 397.43391902 0 32791
0.17550000 0.17549800 7725.10937471 0 82.79083339 0 2660.83695467 0 157.45615875 0 643.40705901 0 33633
0.17650000 0.17650100 7640.79179557 0 114.11762609 0 2564.95262061 0 150.98514705 0 762.22278679 0 33984
0.17750000 0.17750300 7624.67742760 0 -101.45944403 0 2264.81015939 0 268.09387225 0 835.02304157 0 34069
0.17850000 0.17849800 7684.41153329 0 -107.63661842 0 2139.76178513 0 531.68846357 0 722.85407866 0 34536
