### header ###
fiducial parameters:
Omega_m = 0.31
Omega_nu = 0
Omega_de = 0.69
Omega_k = 0
H_0 = 100
w_de = -1
zeff = 0
beta = 0
fgrowth = 0
b_1 = 2
gamma = 0.55
Lx = 3500 Ly = 3500 Lz = 3500
nx = 700 ny = 700 nz = 700
xoffset = -983.599254 yoffset = -42.9823471 zoffset = 800.977702
bins = 400 dk = 0.001
kx_ny = 0.628318531 ky_ny = 0.628318531 kz_ny = 0.628318531
############################
A(data) = 8.98736922 (not used)
A(ran) = 8.97840051 (used)
Ngal = 498904
weighted Ngal = 0
Nran = 25229228
weighted Nran = 0
SN(data) = 6770.47201
SN(ran) = 133.27817
SN(data+ran) = 6903.75018
############################
13 columns: k_central k_mean P_0(k) sigma^{lin}_{P_0(k)} P^img_1(k) sigma^{lin}_{P_1(k)} P_2(k) sigma^{lin}_{P_2(k)} P^img_3(k) sigma^{lin}_{P_3(k)} P_4(k) sigma^{lin}_{P_4(k)} N_modes
### header ###
0.00050000 0 0 0 0 0 0 0 0 0 0 0 0
0.00150000 0.00179520 18322.81629431 0 4713.12858833 0 2512.45734824 0 8555.68586130 0 36746.25127346 0 3
0.00250000 0.00253879 38032.21518556 0 -15797.46305786 0 -19834.40332723 0 17066.40088246 0 -20492.04968767 0 6
0.00350000 0.00331552 36277.75925287 0 -20153.61500644 0 -15438.04784300 0 6649.53298126 0 33712.64186367 0 7
0.00450000 0.00420575 56405.45066802 0 -21174.41133643 0 -27305.88990561 0 -18121.24938744 0 -42406.38183318 0 24
0.00550000 0.00557378 75236.96251857 0 -3949.67882478 0 -26631.43714911 0 -16184.22985845 0 507.50702549 0 45
0.00650000 0.00659388 56283.19237519 0 8285.58620610 0 1742.95508520 0 -43371.59622590 0 10907.19725208 0 40
0.00750000 0.00754703 57848.16443085 0 5393.58990603 0 6374.49026840 0 -27997.25890388 0 -24724.07596609 0 57
0.00850000 0.00846663 72836.94325527 0 2924.21405145 0 4108.20817628 0 11057.94952619 0 -22396.44503610 0 75
0.00950000 0.00948925 57064.19548572 0 179.01008707 0 7369.89026657 0 -3375.04287934 0 2428.63407487 0 112
0.01050000 0.01054430 67347.29326202 0 -4405.30791088 0 26645.82693919 0 8546.98607982 0 -12239.88953594 0 105
0.01150000 0.01145670 74722.55498459 0 -3711.98365870 0 15331.16795178 0 -6445.09910095 0 -25333.71974435 0 144
0.01250000 0.01249090 68394.01318330 0 -1276.07779677 0 16303.63216241 0 -1830.86461957 0 -16557.37578904 0 169
0.01350000 0.01339930 73112.76587279 0 -5158.36626877 0 3490.94110464 0 273.87395434 0 13134.03374406 0 180
0.01450000 0.01448870 83790.31965049 0 2173.58328411 0 16017.48404666 0 9573.42848011 0 -9408.30838507 0 267
0.01550000 0.01550050 76035.21140806 0 4053.93340315 0 25304.72047274 0 -15921.58872803 0 5315.88503959 0 238
0.01650000 0.01653350 73355.41508111 0 4870.04320766 0 22258.36895875 0 4273.03168786 0 1858.02946756 0 315
0.01750000 0.01747870 75666.23961505 0 -1067.40826528 0 34194.97444572 0 -6193.68420371 0 11851.91443237 0 297
0.01850000 0.01844180 69980.73469267 0 382.06760044 0 25270.44860628 0 18321.60799133 0 4617.34311542 0 388
0.01950000 0.01947590 82046.62859892 0 -1069.16250152 0 28706.09337255 0 5311.88665517 0 16704.89859880 0 399
0.02050000 0.02045430 72255.85936572 0 5718.09614923 0 31638.20533169 0 -6680.67424453 0 20487.87555009 0 462
0.02150000 0.02154770 64170.22533432 0 6236.99637340 0 44302.53875217 0 -6810.02857125 0 24086.31168201 0 571
0.02250000 0.02255340 61614.55467754 0 3584.67246248 0 45237.43572457 0 11135.06122571 0 5897.86966409 0 510
0.02350000 0.02348930 61331.15270495 0 -3789.52375655 0 43109.72401556 0 19439.17840575 0 22209.26791931 0 555
0.02450000 0.02439640 67780.41495890 0 -2402.74343730 0 39840.38567818 0 5167.14294226 0 19820.67261150 0 592
0.02550000 0.02547300 62795.83561294 0 5008.77835936 0 39366.51121702 0 -2960.96843131 0 28743.77045650 0 837
0.02650000 0.02652900 59494.86170652 0 3295.65737329 0 38928.77599965 0 3878.01547326 0 28142.69464485 0 723
0.02750000 0.02749970 63149.53885006 0 -450.45425396 0 41692.27476967 0 3382.16088237 0 -697.36547644 0 826
0.02850000 0.02848090 55141.12636391 0 3132.02019555 0 44582.31581582 0 -412.32131024 0 13230.14875415 0 831
0.02950000 0.02946900 58904.33108455 0 -11.48744631 0 39380.46162420 0 6232.59155979 0 19239.58872195 0 996
0.03050000 0.03053250 56441.69975754 0 -3526.27847464 0 35334.40415958 0 10469.71467988 0 19392.38412655 0 1041
0.03150000 0.03150510 63249.60830628 0 -3064.39916674 0 29652.74383761 0 12742.43373154 0 6157.81957423 0 1036
0.03250000 0.03246190 62550.87964438 0 -685.11548110 0 17183.05704327 0 3070.12212905 0 12799.33381751 0 1059
0.03350000 0.03345080 60355.28327682 0 2730.67686714 0 18643.56581368 0 784.59726268 0 16455.87833838 0 1302
0.03450000 0.03451200 58941.67863133 0 3815.99657647 0 24896.64360134 0 -1118.31736536 0 15030.19066305 0 1339
0.03550000 0.03553350 56057.89879155 0 2664.06641901 0 25308.56507314 0 -5574.19824841 0 7027.58901579 0 1365
0.03650000 0.03647120 53109.41981926 0 1651.59639504 0 26324.08880829 0 -1187.17965087 0 1277.95615869 0 1308
0.03750000 0.03744890 50638.65990854 0 2244.82922187 0 31110.72615633 0 -1190.50797637 0 3445.32217471 0 1579
0.03850000 0.03847530 48598.93462591 0 313.65897777 0 29842.99663472 0 917.00749749 0 3201.65140114 0 1662
0.03950000 0.03950240 48621.45299970 0 -383.99649138 0 28286.37285422 0 3128.32937916 0 -3251.33462292 0 1683
0.04050000 0.04050350 48464.26376606 0 1385.17657165 0 28229.80230542 0 5083.35262261 0 3801.25528006 0 1822
0.04150000 0.04152450 46389.60754263 0 709.45070320 0 22776.07186451 0 4485.18772270 0 5007.87762441 0 1887
0.04250000 0.04250150 46457.38235545 0 -449.93248676 0 22650.73789136 0 3177.00202027 0 5288.29179326 0 1920
0.04350000 0.04349210 45755.90755041 0 2139.52012453 0 21934.87329623 0 4387.28222728 0 5198.20731352 0 2005
0.04450000 0.04448520 44532.44585630 0 -889.36811596 0 16145.78385441 0 2491.01546256 0 11972.63488504 0 2151
0.04550000 0.04548030 44502.01859025 0 -913.75386709 0 14786.66268892 0 5348.99254135 0 7442.81684394 0 2274
0.04650000 0.04648670 43466.72262446 0 1544.27712092 0 13648.77081522 0 -374.87490231 0 9296.99072653 0 2311
0.04750000 0.04749250 41606.92464071 0 2124.22959950 0 13310.00659681 0 -1763.63903537 0 9936.21595875 0 2568
0.04850000 0.04851840 39202.62139410 0 1408.87029471 0 14212.93846300 0 1351.76150186 0 4741.53469303 0 2493
0.04950000 0.04949480 39571.26364993 0 -238.92433976 0 15528.01149244 0 -993.51834089 0 5818.14363630 0 2644
0.05050000 0.05050630 38768.51108569 0 464.05535173 0 13520.03162457 0 698.85498448 0 1340.90874415 0 2829
0.05150000 0.05149060 37672.03105062 0 1375.93854611 0 15950.14861674 0 -3328.99555107 0 -365.30294577 0 2784
0.05250000 0.05249300 37115.00337502 0 1055.08357484 0 16552.32288565 0 357.36659208 0 1198.28505375 0 3055
0.05350000 0.05348950 35817.39581599 0 -403.06461093 0 16364.59654023 0 1222.86852719 0 3756.85563769 0 3009
0.05450000 0.05448610 36881.25167049 0 -1292.00542702 0 15703.65480801 0 1886.33671110 0 -2233.81169557 0 3336
0.05550000 0.05550870 37312.39614431 0 1279.58187543 0 14173.39400171 0 2201.92348137 0 -631.86447014 0 3349
0.05650000 0.05647670 37060.51989502 0 903.10981626 0 16869.11795889 0 -873.86558868 0 2958.51887162 0 3324
0.05750000 0.05747970 35297.16645853 0 380.83842677 0 15029.20205152 0 -1561.34714671 0 3479.51714916 0 3639
0.05850000 0.05849280 34865.03337318 0 854.71288793 0 17475.57621111 0 553.32038235 0 905.20786963 0 3846
0.05950000 0.05951020 34224.52294597 0 291.99959756 0 14806.43491957 0 2192.31198036 0 2380.66444641 0 3787
0.06050000 0.06049470 34285.26763234 0 -798.35214447 0 14783.36731715 0 4321.61645239 0 1353.63986377 0 3930
0.06150000 0.06148310 34590.63875010 0 -172.96967061 0 11708.89529736 0 2446.05560699 0 1848.03350651 0 4083
0.06250000 0.06249100 33550.61941810 0 1331.69268775 0 9606.29432127 0 -1150.75480819 0 3622.52529959 0 4303
0.06350000 0.06350600 31883.38099170 0 861.01254030 0 10983.64987725 0 -1152.17181806 0 2384.61889254 0 4470
0.06450000 0.06451750 30613.78409275 0 928.63027374 0 10301.47496623 0 -575.54766497 0 338.89823019 0 4479
0.06550000 0.06550280 31497.05357402 0 -329.00113030 0 9778.37863533 0 1768.54913931 0 -412.82000984 0 4636
0.06650000 0.06648880 31257.80958320 0 -197.12254880 0 11307.40916951 0 812.83090959 0 -1566.63072612 0 4653
0.06750000 0.06749660 30959.79812906 0 372.87790702 0 7977.30417660 0 496.16106047 0 -155.10985405 0 5220
0.06850000 0.06852730 30162.75754256 0 -525.18449814 0 10011.93261756 0 -16.35558919 0 131.14151668 0 5029
0.06950000 0.06949320 30066.97206965 0 1275.15509268 0 9520.12034937 0 196.91054655 0 238.53219052 0 5040
0.07050000 0.07048030 29380.54612904 0 1046.99124022 0 9182.38868079 0 547.82480069 0 798.22032960 0 5475
0.07150000 0.07148790 29032.77456112 0 570.57055514 0 12017.12240399 0 -73.86169403 0 3310.04716337 0 5509
0.07250000 0.07249820 27878.73536572 0 80.77626278 0 11003.90542909 0 521.86715722 0 2093.47279627 0 5916
0.07350000 0.07351270 27583.90943764 0 413.02542134 0 10079.54266179 0 272.55470717 0 2563.97499365 0 5721
0.07450000 0.07449140 26622.21010814 0 454.64926223 0 11002.80697183 0 305.61167990 0 2454.01942211 0 6028
0.07550000 0.07549160 26612.98306718 0 531.13593957 0 10920.17003230 0 238.34215741 0 2510.24944915 0 6183
0.07650000 0.07648840 26425.03703031 0 342.84059329 0 9842.35278604 0 406.34570276 0 2435.69715504 0 6330
0.07750000 0.07749960 25153.35306257 0 -82.91265230 0 10008.50543091 0 364.49777659 0 2091.27588175 0 6583
0.07850000 0.07848650 24460.11668696 0 564.75971624 0 10394.71201830 0 -79.42559974 0 1338.27244673 0 6549
0.07950000 0.07947320 24374.98624945 0 780.50990322 0 9507.16953830 0 24.10970882 0 765.55550611 0 6828
0.08050000 0.08048110 23776.98611812 0 826.80877820 0 10329.09018170 0 569.51823308 0 617.62077487 0 7147
0.08150000 0.08149960 23046.51204146 0 -145.05018248 0 9122.77540539 0 1129.11520021 0 861.32010833 0 7386
0.08250000 0.08250610 22961.27175823 0 -216.84315196 0 9371.86157324 0 227.03244148 0 1358.96738147 0 7227
0.08350000 0.08350160 22569.12251708 0 510.31578070 0 8004.11751827 0 1828.27226044 0 1843.01355684 0 7798
0.08450000 0.08449610 23085.50727413 0 -165.16623025 0 7604.37793747 0 56.50112630 0 769.67581929 0 7371
0.08550000 0.08548940 22210.03683940 0 497.02554633 0 7297.30421096 0 285.21003325 0 2477.50443829 0 8256
0.08650000 0.08650700 22000.01181164 0 661.31960152 0 7252.72881542 0 -837.88342427 0 663.33307367 0 8037
0.08750000 0.08749060 21021.72577755 0 231.53282087 0 7407.07304476 0 -185.51954478 0 1935.22904366 0 8155
0.08850000 0.08849210 20621.99718131 0 375.27144538 0 8731.31819230 0 398.38628147 0 645.92801842 0 8718
0.08950000 0.08949900 20318.38359516 0 74.40718791 0 7806.03272092 0 114.38564966 0 -485.24239532 0 8571
0.09050000 0.09049190 20282.02465992 0 471.85110289 0 8037.90606353 0 33.82325651 0 246.12912092 0 8932
0.09150000 0.09150830 19663.59322359 0 185.57446765 0 7579.97021719 0 -303.76846862 0 167.67620508 0 9285
0.09250000 0.09250820 19965.22958667 0 47.60713757 0 6913.14075407 0 360.85089850 0 -723.43845792 0 9204
0.09350000 0.09350330 18995.95090209 0 -122.01553378 0 6986.67148293 0 1279.65876744 0 -529.43003545 0 9349
0.09450000 0.09448040 18795.92183539 0 430.61611588 0 6471.78062775 0 488.58719767 0 -476.42727583 0 9564
0.09550000 0.09549270 18551.07571255 0 476.01315744 0 6167.34319866 0 -15.75473307 0 -767.13289074 0 10155
0.09650000 0.09649430 18168.81258672 0 384.62041511 0 5859.05018459 0 -69.73347196 0 -190.70206613 0 9913
0.09750000 0.09749140 17202.28004529 0 97.80300936 0 5844.97894711 0 703.38721913 0 -351.50302723 0 10476
0.09850000 0.09850240 17386.82086465 0 134.69392745 0 5116.47110895 0 -30.91772722 0 -604.86329228 0 10575
0.09950000 0.09950330 17251.60077618 0 265.20822503 0 5361.55889238 0 23.13296063 0 -1179.55635750 0 10882
0.10050000 0.10051200 16578.90555130 0 347.77376484 0 5112.18712564 0 -287.55743641 0 -1245.68348444 0 10875
0.10150000 0.10150300 16357.78610523 0 352.08411112 0 5268.23396373 0 -360.40712177 0 -1928.83602242 0 11118
0.10250000 0.10250800 15720.57104979 0 509.19315738 0 5512.81645683 0 -164.00076710 0 -2298.91725726 0 11575
0.10350000 0.10349800 15114.33248903 0 399.35402231 0 6467.07923069 0 -433.11510614 0 -1552.66933437 0 11364
0.10450000 0.10450100 14881.78908748 0 52.82283232 0 5706.54037887 0 68.66972596 0 -2300.15851396 0 12093
0.10550000 0.10551000 14914.08373087 0 -57.05266168 0 6092.35152165 0 982.69633999 0 -1571.10144716 0 12067
0.10650000 0.10649700 14918.14802272 0 -55.24910471 0 4812.62684677 0 545.58504634 0 -1697.17138668 0 12054
0.10750000 0.10749900 15368.40565283 0 -224.35550114 0 5489.57310124 0 145.88501000 0 -1170.52703884 0 12807
0.10850000 0.10850100 15250.32149758 0 77.88940726 0 4625.07625452 0 455.98059242 0 -1549.14328657 0 12736
0.10950000 0.10950300 15362.47398364 0 135.33213112 0 4935.23664593 0 55.75604274 0 -358.26732703 0 12933
0.11050000 0.11050200 15525.26534929 0 -32.92625631 0 5186.06936082 0 239.17698493 0 -83.75923331 0 13428
0.11150000 0.11150900 15071.49265596 0 242.97105630 0 4759.39560804 0 296.37145745 0 334.12543341 0 13453
0.11250000 0.11250000 14857.51318207 0 44.01628079 0 4921.92334396 0 663.64174016 0 967.66285395 0 13668
0.11350000 0.11349100 14737.89118666 0 109.17281090 0 4490.42736382 0 300.43465084 0 1300.58437820 0 13791
0.11450000 0.11448600 14665.17331617 0 424.56691176 0 4961.35795952 0 -112.07559405 0 1379.53050135 0 14205
0.11550000 0.11549300 14010.71248178 0 -38.70589902 0 4158.91296331 0 505.70226021 0 2106.08308559 0 14776
0.11650000 0.11649800 14154.61038259 0 57.89539809 0 4473.82967465 0 188.94782989 0 1509.98328532 0 14553
0.11750000 0.11747300 13888.78372612 0 353.89656560 0 4340.16939548 0 -247.16935994 0 1159.28982109 0 14568
0.11850000 0.11849100 13507.06982892 0 352.75417005 0 4550.67774443 0 -109.47027312 0 1529.05250332 0 16015
0.11950000 0.11950300 13741.37076208 0 -46.96992251 0 4317.71692912 0 333.22579691 0 1040.43235193 0 15270
0.12050000 0.12050700 13210.70606068 0 11.43494006 0 3930.93914396 0 143.46950248 0 817.97937876 0 15999
0.12150000 0.12150000 13509.26674344 0 -3.56324156 0 3748.39751680 0 579.06492511 0 1179.62226494 0 15670
0.12250000 0.12250700 13306.49153359 0 4.01900246 0 3708.87502466 0 -331.56492954 0 848.95697189 0 16887
0.12350000 0.12352200 12999.58257566 0 273.70039809 0 4162.49393397 0 -393.18069252 0 797.94901065 0 16407
0.12450000 0.12449800 12885.34302082 0 225.46933680 0 4364.22560943 0 -122.84706592 0 1128.24741897 0 16306
0.12550000 0.12549900 13074.05797777 0 139.73474781 0 4500.95058435 0 -85.51259079 0 34.67115567 0 17523
0.12650000 0.12650100 13067.90661712 0 -105.31953268 0 4688.00687084 0 194.08311757 0 242.77772782 0 17154
0.12750000 0.12750600 12879.08181445 0 -188.46011486 0 4335.61079786 0 637.57205405 0 967.10593612 0 18007
0.12850000 0.12850300 12935.10313461 0 26.76050588 0 3846.28104308 0 438.04388386 0 537.82774118 0 17496
0.12950000 0.12949900 13208.61899189 0 240.52259507 0 3697.31925430 0 -14.27818682 0 847.07641307 0 18405
0.13050000 0.13049000 12595.78968757 0 315.98880562 0 3893.97605722 0 -496.82013482 0 424.48892129 0 18100
0.13150000 0.13148800 12553.16954596 0 246.13461320 0 4299.05414031 0 88.09253735 0 234.87432785 0 19059
0.13250000 0.13249300 12280.64230022 0 -102.88392340 0 3906.60831569 0 25.22442325 0 10.54946268 0 18957
0.13350000 0.13349100 12110.93065383 0 -4.33580852 0 3696.87987140 0 175.53237139 0 -564.23025984 0 19468
0.13450000 0.13450700 12093.13564625 0 259.10739342 0 3610.35439317 0 -249.33661611 0 -214.23211905 0 19953
0.13550000 0.13551000 11794.79465494 0 211.70676582 0 3652.38136787 0 304.37921086 0 -453.06968069 0 19956
0.13650000 0.13649900 11891.45889366 0 -107.48305410 0 3591.99917239 0 507.00722744 0 -202.38635598 0 19723
0.13750000 0.13749600 11626.18146582 0 131.06352621 0 3260.88021650 0 66.05100385 0 -43.14333681 0 20946
0.13850000 0.13851100 11551.04698936 0 332.13612731 0 3254.05879692 0 124.17839612 0 299.28786147 0 20955
0.13950000 0.13949800 11328.60939459 0 316.22277701 0 3522.19221364 0 126.36322760 0 998.73381595 0 20506
0.14050000 0.14048300 10984.14418301 0 -139.46452732 0 3488.43662209 0 262.46208189 0 593.59092389 0 21447
0.14150000 0.14148400 10977.39965545 0 143.99017123 0 3635.55300267 0 184.06189200 0 914.43710751 0 21771
0.14250000 0.14249400 10860.60069519 0 150.74128953 0 3262.33018008 0 -162.16194965 0 1164.61733879 0 22470
0.14350000 0.14350900 10639.16269652 0 67.76371841 0 3495.35690282 0 -95.04082873 0 798.74649062 0 22519
0.14450000 0.14449900 10551.34103874 0 62.12775391 0 3570.75500902 0 162.66284616 0 708.64992785 0 22218
0.14550000 0.14550500 10340.21755372 0 283.37890500 0 3101.29634604 0 21.04149801 0 599.95428679 0 23559
0.14650000 0.14650700 10033.27564208 0 127.51331235 0 3243.92003643 0 -47.65975367 0 648.40284262 0 23044
0.14750000 0.14750500 10078.02679078 0 181.56290174 0 3470.74047566 0 196.20204162 0 334.28361125 0 23649
0.14850000 0.14849900 9901.13123393 0 -88.77610730 0 3016.39658455 0 -155.97983220 0 124.32339248 0 23640
0.14950000 0.14949500 9892.87083535 0 31.18124711 0 3061.24659440 0 316.27660142 0 251.32152837 0 24457
0.15050000 0.15050000 9922.29850529 0 -39.10683592 0 2811.06196929 0 69.07439761 0 133.07919528 0 24591
0.15150000 0.15149900 9912.11580651 0 151.20703541 0 2995.92134126 0 -57.20391925 0 472.28719042 0 25020
0.15250000 0.15250500 9897.86881587 0 36.59642170 0 2966.03231927 0 81.28045466 0 -284.98484951 0 25297
0.15350000 0.15350100 9876.08640844 0 10.76484818 0 3198.74048940 0 31.48200471 0 299.94473891 0 25452
0.15450000 0.15450400 9619.80534555 0 169.84016588 0 2671.76660439 0 -66.87330896 0 -139.65456043 0 26061
0.15550000 0.15549900 9478.37897356 0 176.56272430 0 3319.59275694 0 -213.83996981 0 123.25898739 0 26128
0.15650000 0.15649500 9443.61280134 0 179.74495498 0 2901.88241539 0 592.71215809 0 310.47784555 0 26331
0.15750000 0.15749700 9367.53365164 0 -132.11035598 0 2825.70440454 0 393.36083951 0 716.83233597 0 27345
0.15850000 0.15849900 9435.16566503 0 -85.24643459 0 2145.61656231 0 368.76528304 0 -42.36870475 0 26980
0.15950000 0.15949700 9206.03846555 0 242.34383720 0 2364.38530984 0 -3.04348454 0 561.84001685 0 27777
0.16050000 0.16050000 8995.49716289 0 102.15004411 0 1937.62368049 0 -27.36366876 0 866.50482659 0 28224
0.16150000 0.16150500 9052.25444941 0 -7.81086593 0 1959.91137825 0 456.86924435 0 442.12465257 0 28075
0.16250000 0.16249700 8964.57559107 0 81.09250862 0 1941.32548145 0 3.14036847 0 613.52572621 0 28590
0.16350000 0.16349900 8846.04106834 0 217.87460332 0 1894.94861601 0 -207.76220580 0 404.64529092 0 29163
0.16450000 0.16449100 8656.19470042 0 69.87945693 0 2242.39064676 0 -433.30404079 0 121.34657331 0 28996
0.16550000 0.16550500 8298.99836922 0 223.55802118 0 2155.53563135 0 -198.90204956 0 51.92099891 0 30777
0.16650000 0.16650700 8202.32314593 0 164.60272167 0 2419.92330882 0 167.94532711 0 438.39539018 0 29211
0.16750000 0.16749900 8201.01598180 0 76.48239336 0 2388.74909183 0 65.37578218 0 167.79044464 0 30922
0.16850000 0.16850800 8185.95613279 0 -32.80531617 0 2293.08444922 0 510.04556021 0 524.61220191 0 30867
0.16950000 0.16949900 8117.28058501 0 -16.69962600 0 1998.26950571 0 376.25786000 0 300.29075294 0 30852
0.17050000 0.17049200 8008.62119303 0 87.95314312 0 1879.69104469 0 -46.66916491 0 818.36713417 0 31257
0.17150000 0.17149500 7957.05960934 0 225.08158139 0 1904.29648727 0 -205.84100406 0 641.24529512 0 32608
0.17250000 0.17250900 7780.87804970 0 96.35963652 0 2124.11975377 0 -235.67180782 0 702.53921013 0 32361
0.17350000 0.17350400 7711.07109095 0 -27.31841232 0 2299.00513384 0 124.65622502 0 535.46166425 0 32508
0.17450000 0.17449800 7743.10210460 0 -91.30321807 0 1913.54549739 0 238.53878126 0 552.69316326 0 32791
0.17550000 0.17549800 7920.83248896 0 -64.59148369 0 1797.73514866 0 306.84634586 0 467.85601384 0 33633
0.17650000 0.17650100 8025.94386399 0 -9.68164849 0 1649.53129540 0 -35.94525624 0 20.46733440 0 33984
0.17750000 0.17750300 8025.76811083 0 143.83309184 0 1524.47193656 0 -284.54326969 0 457.68979192 0 34069
0.17850000 0.17849800 7894.66723707 0 63.48511754 0 2058.38807145 0 -152.79210923 0 187.08814175 0 34536
