### header ###
fiducial parameters:
Omega_m = 0.31
Omega_nu = 0
Omega_de = 0.69
Omega_k = 0
H_0 = 100
w_de = -1
zeff = 0
beta = 0
fgrowth = 0
b_1 = 2
gamma = 0.55
Lx = 3500 Ly = 3500 Lz = 3500
nx = 700 ny = 700 nz = 700
xoffset = -983.599254 yoffset = -42.9823471 zoffset = 800.977702
bins = 400 dk = 0.001
kx_ny = 0.628318531 ky_ny = 0.628318531 kz_ny = 0.628318531
############################
A(data) = 9.0233065 (not used)
A(ran) = 9.00588604 (used)
Ngal = 500476
weighted Ngal = 0
Nran = 25229228
weighted Nran = 0
SN(data) = 6754.56086
SN(ran) = 133.686174
SN(data+ran) = 6888.24703
############################
13 columns: k_central k_mean P_0(k) sigma^{lin}_{P_0(k)} P^img_1(k) sigma^{lin}_{P_1(k)} P_2(k) sigma^{lin}_{P_2(k)} P^img_3(k) sigma^{lin}_{P_3(k)} P_4(k) sigma^{lin}_{P_4(k)} N_modes
### header ###
0.00050000 0 0 0 0 0 0 0 0 0 0 0 0
0.00150000 0.00179520 18596.00261441 0 -15966.40578416 0 -11111.55424038 0 17725.36539161 0 -23453.49045560 0 3
0.00250000 0.00253879 39743.72143946 0 -23291.13847285 0 1364.11914601 0 -1967.02938129 0 27653.99101071 0 6
0.00350000 0.00331552 58091.14317635 0 -6348.35797023 0 24241.96307549 0 -36051.36721197 0 14447.89847051 0 7
0.00450000 0.00420575 57191.72637339 0 21610.93825081 0 35089.77772820 0 -28282.85779099 0 51587.06790521 0 24
0.00550000 0.00557378 40833.61073098 0 2014.40584283 0 48458.44194260 0 27854.02007742 0 11591.90959937 0 45
0.00650000 0.00659388 44289.90649370 0 -5500.61259669 0 59879.87097550 0 37967.84559024 0 26670.87176468 0 40
0.00750000 0.00754703 60651.86673652 0 51.06606963 0 35231.25902305 0 33862.80097086 0 -14732.61859182 0 57
0.00850000 0.00846663 60177.22335528 0 -2896.49997483 0 56349.09981068 0 -3608.20141695 0 31880.52500283 0 75
0.00950000 0.00948925 64328.73271667 0 7128.07588577 0 38212.03263872 0 8671.40833345 0 2327.55403798 0 112
0.01050000 0.01054430 66083.29849509 0 -7262.21948613 0 52226.80941235 0 5320.50954464 0 7228.13435741 0 105
0.01150000 0.01145670 72859.35178334 0 -4714.00735414 0 52462.86787712 0 6987.23169613 0 -6315.82166624 0 144
0.01250000 0.01249090 81879.99263286 0 -6809.98463296 0 29477.21036776 0 15129.82073636 0 -3511.87769998 0 169
0.01350000 0.01339930 82597.06553097 0 -1816.50778320 0 28744.86891376 0 -985.97084107 0 -29628.79746938 0 180
0.01450000 0.01448870 86701.23138454 0 9940.25828146 0 36439.34231554 0 -6086.20016100 0 -15464.63050864 0 267
0.01550000 0.01550050 78494.54736329 0 5997.37890711 0 46244.94072173 0 -7711.69721159 0 -9997.10344457 0 238
0.01650000 0.01653350 77758.80069180 0 3245.80938292 0 46307.66263117 0 7.79323569 0 -28990.15441950 0 315
0.01750000 0.01747870 77022.83432885 0 57.34847622 0 49115.31938296 0 4667.39981268 0 -25233.21090523 0 297
0.01850000 0.01844180 70725.92809659 0 -3675.59176973 0 30384.53606298 0 11057.61998901 0 -7565.71224198 0 388
0.01950000 0.01947590 70367.06211036 0 -1173.07545968 0 35028.04443029 0 6134.33455805 0 -4878.36951367 0 399
0.02050000 0.02045430 71018.88664734 0 4564.10089212 0 27485.48766731 0 7996.43930204 0 -12618.41790709 0 462
0.02150000 0.02154770 68588.98934662 0 795.81580666 0 28870.31273264 0 345.93824276 0 -4924.48274937 0 571
0.02250000 0.02255340 64573.90837668 0 6973.09455122 0 30124.42138425 0 -9086.78994561 0 -8081.28414066 0 510
0.02350000 0.02348930 65393.57718270 0 2491.93816666 0 36318.07263424 0 -1275.35281498 0 -11353.98375725 0 555
0.02450000 0.02439640 60611.77304659 0 -892.42841788 0 32566.18202336 0 6877.94618352 0 -4655.40465942 0 592
0.02550000 0.02547300 64764.82024815 0 -2919.83120699 0 26057.05384883 0 12040.19000641 0 -4529.98280968 0 837
0.02650000 0.02652900 62410.93618969 0 -2964.17592650 0 17683.29447862 0 5476.86395077 0 5729.71782702 0 723
0.02750000 0.02749970 62316.79840267 0 3586.21030264 0 15596.11584244 0 5695.53383714 0 218.85442720 0 826
0.02850000 0.02848090 64601.47965386 0 1844.16693696 0 11866.74360535 0 1660.43897597 0 4608.00622873 0 831
0.02950000 0.02946900 62503.75582800 0 1125.19370780 0 9580.10710024 0 -152.50760880 0 -3180.62692922 0 996
0.03050000 0.03053250 57400.87263534 0 779.65310656 0 8837.74771605 0 -104.69187420 0 3119.34399879 0 1041
0.03150000 0.03150510 54031.79437892 0 1206.99581981 0 11681.32402018 0 -3027.34820342 0 -2480.15172028 0 1036
0.03250000 0.03246190 54317.17357458 0 4716.74251271 0 11951.65435140 0 -1243.37672420 0 -10041.72277840 0 1059
0.03350000 0.03345080 52858.20264433 0 -380.32654568 0 13922.61620968 0 1457.18044492 0 -876.44916015 0 1302
0.03450000 0.03451200 50745.75949121 0 339.92748464 0 11933.74949810 0 877.10603759 0 -4088.19428503 0 1339
0.03550000 0.03553350 51325.30554060 0 845.01241188 0 10805.67783228 0 3914.87969885 0 -6226.74776718 0 1365
0.03650000 0.03647120 50545.95011595 0 -800.33156445 0 10801.84421645 0 875.24415254 0 3745.22297533 0 1308
0.03750000 0.03744890 47837.70374602 0 1936.92066784 0 12578.10452572 0 -427.18563386 0 3546.76470250 0 1579
0.03850000 0.03847530 44935.35997858 0 1338.83265993 0 14970.10505103 0 -819.09870670 0 2521.62946635 0 1662
0.03950000 0.03950240 47473.23562777 0 2784.06188989 0 15472.20986373 0 -1895.84935096 0 2994.65811542 0 1683
0.04050000 0.04050350 43507.03600583 0 2491.05940085 0 18452.32440504 0 -602.92231830 0 4381.78994099 0 1822
0.04150000 0.04152450 41231.91133278 0 628.03854351 0 20290.15324363 0 -577.40405774 0 4208.06892561 0 1887
0.04250000 0.04250150 41085.26728882 0 -89.50943736 0 20400.65804380 0 2920.72095737 0 3781.26335797 0 1920
0.04350000 0.04349210 40556.90934766 0 -322.39610681 0 21093.78457368 0 996.05028487 0 3033.00525830 0 2005
0.04450000 0.04448520 39015.44427732 0 291.33722783 0 18018.65347953 0 1690.10830651 0 1295.67427426 0 2151
0.04550000 0.04548030 39550.61265348 0 2208.30551804 0 17496.00751611 0 576.48794439 0 -577.62594610 0 2274
0.04650000 0.04648670 37449.15407294 0 -758.19474403 0 18410.14364633 0 14.90979975 0 3710.34695738 0 2311
0.04750000 0.04749250 38878.79619441 0 381.25913590 0 15206.05367008 0 3538.00999815 0 -563.03733526 0 2568
0.04850000 0.04851840 37469.36568649 0 915.76514233 0 15583.15404680 0 1850.28534389 0 1301.60594345 0 2493
0.04950000 0.04949480 37657.86095199 0 -499.99247939 0 11594.10651388 0 1807.36861882 0 1583.60189076 0 2644
0.05050000 0.05050630 37088.86009228 0 -248.79617514 0 12720.46458637 0 2777.44917719 0 1538.30151344 0 2829
0.05150000 0.05149060 35880.44726260 0 1815.37637223 0 11552.14544662 0 -1200.04258537 0 2427.59054048 0 2784
0.05250000 0.05249300 36191.53035811 0 313.51288296 0 10704.56484167 0 -30.35432849 0 5044.86268029 0 3055
0.05350000 0.05348950 33490.75349753 0 445.59797442 0 13015.40036018 0 408.65246300 0 182.22746838 0 3009
0.05450000 0.05448610 33308.62928413 0 1217.48608663 0 11654.08228018 0 -556.38837348 0 3643.07743489 0 3336
0.05550000 0.05550870 32794.22175015 0 399.18925372 0 12490.44763652 0 1050.98742772 0 788.39902325 0 3349
0.05650000 0.05647670 32098.01953994 0 -69.71029452 0 11181.19643055 0 1211.80706260 0 2299.07104128 0 3324
0.05750000 0.05747970 33145.83791848 0 -431.10273244 0 10808.56677487 0 1815.69492483 0 1541.93740696 0 3639
0.05850000 0.05849280 32198.63822479 0 -76.10606190 0 9252.36040813 0 1596.49777897 0 1482.65366874 0 3846
0.05950000 0.05951020 32199.51699059 0 259.21723915 0 7865.79978033 0 1725.97293599 0 2669.86627333 0 3787
0.06050000 0.06049470 32851.23168185 0 134.26443066 0 6490.65212344 0 798.41146116 0 3709.34736128 0 3930
0.06150000 0.06148310 32260.26167697 0 -50.91294469 0 7493.14815551 0 -587.90750604 0 3915.03348286 0 4083
0.06250000 0.06249100 31110.94584778 0 646.68485547 0 7390.06892641 0 -901.61042210 0 2791.90487471 0 4303
0.06350000 0.06350600 31054.15560754 0 1121.65667543 0 10043.29357228 0 -1286.46920244 0 2726.76635930 0 4470
0.06450000 0.06451750 30606.86381203 0 977.95649692 0 10828.34999009 0 -2144.34235189 0 -807.13980253 0 4479
0.06550000 0.06550280 29993.15574191 0 -764.72507243 0 12478.80398958 0 994.57176140 0 3207.23156401 0 4636
0.06650000 0.06648880 30234.48680152 0 36.60147461 0 11251.49769507 0 1128.82960132 0 343.46451702 0 4653
0.06750000 0.06749660 30439.67861734 0 662.34336368 0 11924.52245713 0 -1437.58396744 0 -1307.37284406 0 5220
0.06850000 0.06852730 30117.28141208 0 863.70485904 0 13420.95077989 0 -886.60000367 0 -1080.24813217 0 5029
0.06950000 0.06949320 28224.20017341 0 593.49316120 0 13655.69109595 0 765.51266628 0 1140.90164659 0 5040
0.07050000 0.07048030 28649.08344085 0 -428.02924903 0 13307.58999085 0 1027.23658489 0 -1462.96931467 0 5475
0.07150000 0.07148790 28737.50925013 0 24.88884455 0 11719.77002421 0 1341.95227854 0 -265.75965058 0 5509
0.07250000 0.07249820 27742.96604862 0 628.13630621 0 11104.63395966 0 1096.85351054 0 192.16191582 0 5916
0.07350000 0.07351270 27315.88586666 0 521.44864501 0 9870.74790617 0 1631.02229060 0 1008.99120983 0 5721
0.07450000 0.07449140 27117.50448584 0 377.16408724 0 11236.66852209 0 184.88793186 0 829.02216957 0 6028
0.07550000 0.07549160 26215.01200255 0 562.05311756 0 9294.64002799 0 530.04077768 0 2053.18138404 0 6183
0.07650000 0.07648840 25942.92413971 0 -148.69706058 0 10096.19527383 0 -62.29570802 0 1366.04144622 0 6330
0.07750000 0.07749960 24929.81701054 0 398.81358134 0 9439.42767919 0 -1313.31549783 0 944.22836681 0 6583
0.07850000 0.07848650 24732.53408697 0 925.58315331 0 10328.44209191 0 955.53808274 0 -523.54120609 0 6549
0.07950000 0.07947320 24682.22474455 0 233.23542962 0 10307.48352743 0 -600.60567194 0 691.06143024 0 6828
0.08050000 0.08048110 24562.27321196 0 -165.02672618 0 10506.00770769 0 1474.08570213 0 407.08716141 0 7147
0.08150000 0.08149960 23890.78629007 0 231.09124105 0 8670.03526187 0 885.34995931 0 935.41873960 0 7386
0.08250000 0.08250610 24311.27572848 0 289.30508190 0 9373.58615114 0 994.18839982 0 120.38981703 0 7227
0.08350000 0.08350160 23630.12238271 0 468.81057320 0 9117.38198025 0 -1517.55165583 0 5.20393028 0 7798
0.08450000 0.08449610 22672.70703652 0 1195.44004946 0 9909.10603362 0 -1750.32573340 0 -2054.46657903 0 7371
0.08550000 0.08548940 21465.06312693 0 467.26614229 0 11375.29382806 0 -629.50388549 0 -937.41903026 0 8256
0.08650000 0.08650700 21075.44033747 0 -3.47115789 0 10713.12182371 0 1152.76498498 0 -1436.26581873 0 8037
0.08750000 0.08749060 21064.23607344 0 -332.61175931 0 9608.77683468 0 2113.98099328 0 -349.84545523 0 8155
0.08850000 0.08849210 21554.58739347 0 105.06611859 0 8193.42564214 0 1635.13052074 0 -1388.76852689 0 8718
0.08950000 0.08949900 21097.07994545 0 225.89443976 0 7350.28280452 0 373.63035024 0 -404.06969932 0 8571
0.09050000 0.09049190 20303.33473073 0 572.30721606 0 7065.72745180 0 -5.73965887 0 -417.40387198 0 8932
0.09150000 0.09150830 20036.73915418 0 233.83299037 0 6684.00257002 0 582.57888988 0 958.48194819 0 9285
0.09250000 0.09250820 19970.50218151 0 222.61774176 0 6891.41326950 0 376.94988807 0 177.89405450 0 9204
0.09350000 0.09350330 19657.11232577 0 -470.62412613 0 5533.34662298 0 441.31838494 0 -479.65014942 0 9349
0.09450000 0.09448040 19063.06664057 0 18.80800487 0 5518.00117508 0 643.68606715 0 -233.78575671 0 9564
0.09550000 0.09549270 19239.69856767 0 616.40038886 0 5302.37401531 0 -301.02891622 0 -327.46768397 0 10155
0.09650000 0.09649430 19052.63129661 0 611.86815421 0 5780.26883004 0 -82.62309897 0 497.20239795 0 9913
0.09750000 0.09749140 18432.99155730 0 157.81864965 0 6496.17736345 0 -96.71092315 0 -944.97202237 0 10476
0.09850000 0.09850240 17902.21701017 0 567.39271829 0 7501.40855409 0 -1164.27681704 0 -786.65137775 0 10575
0.09950000 0.09950330 17296.52767803 0 605.58168332 0 7492.45612744 0 -185.85127888 0 49.40915670 0 10882
0.10050000 0.10051200 17529.94984539 0 -271.82203618 0 7709.31355934 0 593.64255139 0 -558.62593091 0 10875
0.10150000 0.10150300 16850.00480260 0 -112.68413937 0 7034.34452793 0 566.50077099 0 -261.61297443 0 11118
0.10250000 0.10250800 17117.47914496 0 180.84890452 0 6150.78944778 0 747.56167777 0 -257.52451651 0 11575
0.10350000 0.10349800 16980.39167914 0 323.82410124 0 6558.14133738 0 557.14960436 0 831.79467569 0 11364
0.10450000 0.10450100 16356.35811080 0 309.79021131 0 5845.61605232 0 419.72601062 0 450.74314822 0 12093
0.10550000 0.10551000 16053.29375328 0 133.82504776 0 5244.33153379 0 124.79133527 0 711.33785277 0 12067
0.10650000 0.10649700 16182.69201829 0 176.07830465 0 5653.29815557 0 453.23994157 0 -477.79375666 0 12054
0.10750000 0.10749900 15507.47034171 0 507.84095650 0 5335.41560964 0 -509.53917142 0 666.42083702 0 12807
0.10850000 0.10850100 14885.30415070 0 -3.67616297 0 5487.72769305 0 175.05014866 0 597.54537002 0 12736
0.10950000 0.10950300 14845.43015223 0 61.35762552 0 5562.98299981 0 -23.64791739 0 29.59342715 0 12933
0.11050000 0.11050200 14902.44008393 0 366.79574918 0 5506.55525045 0 517.75343479 0 91.59057449 0 13428
0.11150000 0.11150900 15040.51616128 0 42.32894060 0 5192.78093467 0 64.56369272 0 200.82434976 0 13453
0.11250000 0.11250000 14621.34487157 0 -394.26816520 0 4505.79478086 0 719.77949679 0 303.99365236 0 13668
0.11350000 0.11349100 15027.55436563 0 -18.25811716 0 4663.63210428 0 535.50230717 0 -263.28922020 0 13791
0.11450000 0.11448600 14654.84781795 0 572.86413389 0 4289.48657759 0 -386.22965499 0 711.24338544 0 14205
0.11550000 0.11549300 14384.18794954 0 126.42583967 0 4503.68574292 0 -224.23686776 0 733.70793483 0 14776
0.11650000 0.11649800 14121.98620203 0 -257.77057094 0 4439.18433273 0 551.52550319 0 281.38300816 0 14553
0.11750000 0.11747300 14379.02520043 0 3.36710103 0 3547.32491570 0 1090.55605508 0 263.73739076 0 14568
0.11850000 0.11849100 14322.12511446 0 139.35687851 0 3200.26734499 0 247.20121520 0 561.73017112 0 16015
0.11950000 0.11950300 14252.15338712 0 202.85759415 0 3755.49355069 0 -148.37411414 0 822.43472140 0 15270
0.12050000 0.12050700 13661.51291942 0 206.77908656 0 3155.35142771 0 -297.13378678 0 247.98661214 0 15999
0.12150000 0.12150000 13506.63044602 0 202.65437955 0 3498.66325917 0 327.36882281 0 1478.01817911 0 15670
0.12250000 0.12250700 13294.62819520 0 124.53209935 0 3321.53702629 0 107.74283924 0 614.66592485 0 16887
0.12350000 0.12352200 13378.87986690 0 119.62638924 0 3436.72125438 0 112.82254498 0 540.89133848 0 16407
0.12450000 0.12449800 12945.09909566 0 6.34480995 0 3178.93530504 0 -134.83452998 0 176.59457956 0 16306
0.12550000 0.12549900 13063.62263381 0 200.34102857 0 3313.92471749 0 10.42722635 0 14.02180690 0 17523
0.12650000 0.12650100 12859.74896670 0 228.52854027 0 3501.62909376 0 -818.00903710 0 49.40827793 0 17154
0.12750000 0.12750600 12809.00024138 0 300.22814088 0 3898.21610224 0 -81.83473619 0 32.63351745 0 18007
0.12850000 0.12850300 12209.90165279 0 -45.88761258 0 3811.00958052 0 466.86300848 0 93.15236102 0 17496
0.12950000 0.12949900 12411.68825111 0 1.26632350 0 3824.13614475 0 131.77972034 0 -125.60199672 0 18405
0.13050000 0.13049000 12243.40459917 0 190.28245545 0 3567.34979152 0 476.70298860 0 743.96423025 0 18100
0.13150000 0.13148800 12393.56370635 0 -101.92639821 0 3547.14916254 0 23.59848681 0 718.64588890 0 19059
0.13250000 0.13249300 12179.14484956 0 89.88521959 0 3546.45713447 0 -91.00388846 0 804.11025742 0 18957
0.13350000 0.13349100 12105.21867609 0 301.63087080 0 3744.25633294 0 -65.76902987 0 618.74779202 0 19468
0.13450000 0.13450700 11941.43869890 0 104.60861114 0 3857.34250766 0 304.58572082 0 947.50945864 0 19953
0.13550000 0.13551000 11826.21053253 0 68.75024287 0 3638.24422296 0 189.30922232 0 536.66008112 0 19956
0.13650000 0.13649900 11750.30713599 0 240.91694123 0 3835.17564020 0 -42.31575911 0 957.87559978 0 19723
0.13750000 0.13749600 11385.07009766 0 232.43465428 0 3798.77276666 0 -482.57973493 0 775.14723489 0 20946
0.13850000 0.13851100 11085.41095764 0 69.17018308 0 4220.94284468 0 -40.67378520 0 770.16792814 0 20955
0.13950000 0.13949800 10997.97375989 0 83.45067667 0 4047.89188823 0 411.41178763 0 728.72862808 0 20506
0.14050000 0.14048300 11142.20119789 0 -163.07147226 0 3693.59548419 0 406.97621722 0 432.87234708 0 21447
0.14150000 0.14148400 11347.83239661 0 82.72086166 0 3466.05006317 0 249.58486745 0 336.16636699 0 21771
0.14250000 0.14249400 11068.27502441 0 218.99722664 0 3653.97413089 0 -296.41429728 0 668.62544074 0 22470
0.14350000 0.14350900 10854.95462488 0 76.99021015 0 3577.68627432 0 53.00583530 0 636.75260494 0 22519
0.14450000 0.14449900 10653.59642489 0 129.23898871 0 3642.71494400 0 310.38557514 0 612.10871635 0 22218
0.14550000 0.14550500 10346.88518928 0 197.71901109 0 3037.93733139 0 304.38360469 0 637.16782178 0 23559
0.14650000 0.14650700 10591.53358981 0 -13.82221722 0 3075.75721478 0 564.06658971 0 1105.88282920 0 23044
0.14750000 0.14750500 10366.20705245 0 108.81833874 0 2497.60620611 0 -47.34098137 0 614.58354055 0 23649
0.14850000 0.14849900 10297.83907270 0 -9.20675246 0 2699.62348045 0 -63.85101366 0 475.35078771 0 23640
0.14950000 0.14949500 9991.90774174 0 163.57017185 0 2453.06376429 0 -236.79003731 0 96.20475404 0 24457
0.15050000 0.15050000 9889.30084926 0 225.26392530 0 2809.01883879 0 -284.08850838 0 -225.85599376 0 24591
0.15150000 0.15149900 9768.51448915 0 153.50171262 0 2653.83978193 0 -230.76939308 0 -286.96097412 0 25020
0.15250000 0.15250500 9626.89039486 0 -32.86166703 0 2960.74873986 0 33.89795160 0 -502.89680038 0 25297
0.15350000 0.15350100 9454.38866704 0 125.29882252 0 2874.97021257 0 393.07853599 0 -455.21826309 0 25452
0.15450000 0.15450400 9477.64300720 0 207.83360553 0 2898.40030589 0 -270.25124230 0 -401.72119770 0 26061
0.15550000 0.15549900 9405.77094880 0 -36.97451069 0 3076.80074918 0 286.09648825 0 -175.31817223 0 26128
0.15650000 0.15649500 9295.94719213 0 66.74951282 0 2972.54617081 0 373.95878896 0 -89.95288456 0 26331
0.15750000 0.15749700 9220.47219392 0 176.31007913 0 2997.12964425 0 -198.08369890 0 141.64386652 0 27345
0.15850000 0.15849900 8985.89664645 0 287.47285520 0 3153.14352862 0 -362.40411706 0 269.43289165 0 26980
0.15950000 0.15949700 8747.36665285 0 94.18578960 0 3203.87028480 0 -52.13552761 0 84.25738368 0 27777
0.16050000 0.16050000 8528.59790532 0 167.09951502 0 3487.45899513 0 -28.93753832 0 -417.81139962 0 28224
0.16150000 0.16150500 8566.12120525 0 51.88035599 0 3245.93021321 0 274.68132043 0 -140.84199272 0 28075
0.16250000 0.16249700 8550.36932817 0 -137.40052613 0 2991.84606484 0 322.43894664 0 143.68370165 0 28590
0.16350000 0.16349900 8624.74586912 0 34.37589036 0 2820.58559372 0 262.41814360 0 -519.49558800 0 29163
0.16450000 0.16449100 8397.90346074 0 182.11213037 0 2432.35784498 0 31.30471371 0 98.88202392 0 28996
0.16550000 0.16550500 8431.38443797 0 -9.18300382 0 2586.22973770 0 165.03551383 0 239.40436558 0 30777
0.16650000 0.16650700 8306.25917170 0 -107.26017712 0 2393.46147347 0 149.06394530 0 62.06151694 0 29211
0.16750000 0.16749900 8372.86961983 0 29.15733961 0 2144.04576843 0 292.79048678 0 350.74728864 0 30922
0.16850000 0.16850800 8327.17379789 0 91.94065281 0 2114.35446875 0 299.79205335 0 389.42067332 0 30867
0.16950000 0.16949900 8444.97235425 0 -29.32221805 0 1853.72351511 0 220.80748420 0 570.48597393 0 30852
0.17050000 0.17049200 8400.97914107 0 53.94062243 0 1928.28679379 0 -78.23146685 0 660.15853219 0 31257
0.17150000 0.17149500 8349.88989399 0 139.11741483 0 2043.37216073 0 -225.93508268 0 751.93902994 0 32608
0.17250000 0.17250900 8175.25715909 0 142.63687188 0 2026.03850519 0 13.41963263 0 491.02247742 0 32361
0.17350000 0.17350400 8109.13003215 0 -87.27671314 0 2108.53264528 0 163.41858475 0 795.03919738 0 32508
0.17450000 0.17449800 8141.60042870 0 28.19640920 0 1918.02720300 0 28.55582442 0 365.61600608 0 32791
0.17550000 0.17549800 8082.02010702 0 140.45094194 0 2124.99851958 0 4.89503311 0 489.18146305 0 33633
0.17650000 0.17650100 8097.09094060 0 149.02330238 0 2009.97906008 0 -175.77293353 0 39.91672846 0 33984
0.17750000 0.17750300 7885.98942474 0 112.09976011 0 2050.08373457 0 -132.85620846 0 199.48752728 0 34069
0.17850000 0.17849800 7665.21050042 0 30.57182303 0 2057.37749077 0 107.23919659 0 62.29142404 0 34536
