### header ###
fiducial parameters:
Omega_m = 0.31
Omega_nu = 0
Omega_de = 0.69
Omega_k = 0
H_0 = 100
w_de = -1
zeff = 0
beta = 0
fgrowth = 0
b_1 = 2
gamma = 0.55
Lx = 3500 Ly = 3500 Lz = 3500
nx = 700 ny = 700 nz = 700
xoffset = -983.599254 yoffset = -42.9823471 zoffset = 800.977702
bins = 400 dk = 0.001
kx_ny = 0.628318531 ky_ny = 0.628318531 kz_ny = 0.628318531
############################
A(data) = 9.05275268 (not used)
A(ran) = 9.06368451 (used)
Ngal = 503803
weighted Ngal = 0
Nran = 25229228
weighted Nran = 0
SN(data) = 6707.74156
SN(ran) = 134.544152
SN(data+ran) = 6842.28571
############################
13 columns: k_central k_mean P_0(k) sigma^{lin}_{P_0(k)} P^img_1(k) sigma^{lin}_{P_1(k)} P_2(k) sigma^{lin}_{P_2(k)} P^img_3(k) sigma^{lin}_{P_3(k)} P_4(k) sigma^{lin}_{P_4(k)} N_modes
### header ###
0.00050000 0 0 0 0 0 0 0 0 0 0 0 0
0.00150000 0.00179520 23578.38504585 0 -35132.72740699 0 -17432.07730369 0 -22741.90984378 0 -67348.61141073 0 3
0.00250000 0.00253879 34575.15050276 0 -38264.09951275 0 -20370.45046920 0 4743.11647148 0 -23496.54998012 0 6
0.00350000 0.00331552 69490.16368119 0 -32801.25187660 0 -17302.23965578 0 -65158.83686664 0 -18229.44742737 0 7
0.00450000 0.00420575 87287.03864031 0 2650.05010439 0 -16919.42730132 0 -45548.73851152 0 -3628.61075280 0 24
0.00550000 0.00557378 75785.31238183 0 16610.65096606 0 23959.76940588 0 -22081.51734019 0 -1514.26726863 0 45
0.00650000 0.00659388 67721.53764987 0 11743.93608389 0 37338.53942705 0 20218.86336758 0 43950.48320094 0 40
0.00750000 0.00754703 61833.80674627 0 -3134.14021805 0 46627.86292191 0 46238.89920681 0 18510.54263972 0 57
0.00850000 0.00846663 71312.72396389 0 -12457.93330168 0 23054.09139655 0 30745.15958082 0 -257.45641216 0 75
0.00950000 0.00948925 78161.93450553 0 7231.70434350 0 36736.47500387 0 193.89857675 0 20946.59130109 0 112
0.01050000 0.01054430 70940.56664483 0 7883.69364907 0 36067.73422511 0 22668.64274467 0 50023.30415253 0 105
0.01150000 0.01145670 80288.32806583 0 -4073.74957209 0 58507.12894001 0 -159.56190132 0 18632.47139538 0 144
0.01250000 0.01249090 88451.07379675 0 -9695.41215862 0 29657.35735809 0 24771.41947391 0 21293.59394893 0 169
0.01350000 0.01339930 82868.49431946 0 -3281.67401239 0 51779.40777111 0 -7102.28410935 0 6959.85814126 0 180
0.01450000 0.01448870 82903.86464317 0 20498.20104832 0 49925.54145656 0 -6707.88303081 0 23625.61870795 0 267
0.01550000 0.01550050 81863.95515690 0 2141.95869964 0 77651.37157195 0 16136.33712199 0 53479.38022380 0 238
0.01650000 0.01653350 73184.38528602 0 -5118.83279205 0 63642.08708461 0 19133.03836791 0 25267.26308023 0 315
0.01750000 0.01747870 87790.35175598 0 -480.85735395 0 57268.50853574 0 27943.98372686 0 40509.67568556 0 297
0.01850000 0.01844180 78732.14366823 0 -2165.45470040 0 45873.44247703 0 19751.14026706 0 47806.61740562 0 388
0.01950000 0.01947590 80593.36964641 0 -465.93151673 0 34178.49758685 0 10224.76969589 0 45764.03613412 0 399
0.02050000 0.02045430 77524.82929581 0 3995.41858501 0 38181.71521839 0 -6704.54372075 0 32571.67430965 0 462
0.02150000 0.02154770 76072.88849201 0 6467.94701192 0 43401.91364623 0 2988.37493990 0 39337.18240823 0 571
0.02250000 0.02255340 74073.36674503 0 -1266.47728034 0 39948.47387238 0 13389.75459375 0 28593.61134932 0 510
0.02350000 0.02348930 77535.48433122 0 -3908.98098337 0 28529.68113689 0 5156.45495314 0 6427.93021401 0 555
0.02450000 0.02439640 72238.94312395 0 2858.38350797 0 31681.26485621 0 -2883.53817918 0 8205.93707031 0 592
0.02550000 0.02547300 68742.00444267 0 5186.58563573 0 32651.42230659 0 -5757.53076479 0 7115.46559644 0 837
0.02650000 0.02652900 64245.68934795 0 565.37704922 0 33192.96173485 0 -2184.60081040 0 3306.29043955 0 723
0.02750000 0.02749970 64995.93565526 0 3583.54105150 0 31741.78985113 0 3872.97355445 0 -13500.25939392 0 826
0.02850000 0.02848090 59988.39855260 0 2362.10051875 0 29817.07304343 0 3172.91575927 0 -4770.65479494 0 831
0.02950000 0.02946900 57863.98221537 0 1644.00605539 0 33233.60465340 0 5348.80580361 0 -5325.62835547 0 996
0.03050000 0.03053250 56878.00698047 0 2105.23727350 0 31050.75039004 0 1882.50309527 0 2036.37498799 0 1041
0.03150000 0.03150510 54997.44815454 0 -1428.11526587 0 27239.65293294 0 5179.29187954 0 2218.48821682 0 1036
0.03250000 0.03246190 53881.19588883 0 -614.79334589 0 23753.03974990 0 4512.25370954 0 -3205.07858778 0 1059
0.03350000 0.03345080 57090.44861419 0 -314.62012787 0 22128.09192794 0 4579.24861771 0 8485.84594883 0 1302
0.03450000 0.03451200 54176.79073699 0 999.91795288 0 27373.77456416 0 -626.98292608 0 3447.80468811 0 1339
0.03550000 0.03553350 54495.01380467 0 2768.99105630 0 23452.83138125 0 -1658.59356777 0 7876.43284659 0 1365
0.03650000 0.03647120 51948.13080596 0 1139.18805327 0 21097.84886553 0 8917.00140722 0 16485.97606726 0 1308
0.03750000 0.03744890 53221.68215104 0 -3783.00990501 0 18469.57018400 0 4977.86777211 0 7793.89476821 0 1579
0.03850000 0.03847530 56563.51866747 0 -940.47054453 0 13203.45624277 0 6408.24585994 0 5576.04365660 0 1662
0.03950000 0.03950240 55287.11133351 0 2811.90778138 0 14199.97666735 0 -2052.18178794 0 6134.62015694 0 1683
0.04050000 0.04050350 48818.07684891 0 2924.19208231 0 16271.33751902 0 -5283.40365846 0 11399.35004201 0 1822
0.04150000 0.04152450 48553.01911252 0 3462.53499995 0 16357.89595096 0 -963.61613741 0 -2471.14437076 0 1887
0.04250000 0.04250150 44821.55980664 0 2324.33555821 0 22220.36233762 0 -2138.43265185 0 7061.79497481 0 1920
0.04350000 0.04349210 41842.98310548 0 -186.89810864 0 20341.34135186 0 2100.92033648 0 1059.69929224 0 2005
0.04450000 0.04448520 40267.24616869 0 1541.14651774 0 21251.52303595 0 347.46619681 0 2934.98991715 0 2151
0.04550000 0.04548030 39494.48148759 0 989.25962210 0 19602.40915431 0 1594.85009309 0 2880.78105147 0 2274
0.04650000 0.04648670 40201.88796183 0 -714.97484475 0 18767.47179240 0 5259.98454972 0 2298.84036525 0 2311
0.04750000 0.04749250 39211.29920644 0 -328.22561947 0 15626.87264567 0 1410.11155141 0 1952.91420552 0 2568
0.04850000 0.04851840 40027.78248641 0 1978.71696651 0 16285.50761765 0 -2137.66373176 0 -1264.48907270 0 2493
0.04950000 0.04949480 37329.09269463 0 987.11103971 0 16018.14312102 0 -1662.92148937 0 -666.79980478 0 2644
0.05050000 0.05050630 34612.27835809 0 2049.88601227 0 18138.82470357 0 -245.74246396 0 -1452.03966496 0 2829
0.05150000 0.05149060 33507.77958503 0 203.43977649 0 15339.62607267 0 1045.23261015 0 -2888.79978945 0 2784
0.05250000 0.05249300 35660.20658235 0 -456.48917813 0 17348.48470634 0 2244.91709845 0 -4112.22852984 0 3055
0.05350000 0.05348950 34273.07475677 0 -142.38202980 0 13343.61938891 0 1030.69123297 0 -3535.28582415 0 3009
0.05450000 0.05448610 34253.74190903 0 466.27643230 0 13936.01738822 0 1145.19661447 0 -1593.37816036 0 3336
0.05550000 0.05550870 33975.06330264 0 -1067.75427931 0 11742.94747236 0 2133.16005701 0 -1062.76728336 0 3349
0.05650000 0.05647670 35687.99755098 0 -143.88911316 0 12577.22575991 0 2703.46808086 0 -1013.18621810 0 3324
0.05750000 0.05747970 35234.00516619 0 986.44647307 0 11980.87331447 0 -1675.46587126 0 951.25519789 0 3639
0.05850000 0.05849280 34434.54797372 0 666.56143955 0 13237.39857205 0 -132.50580059 0 2953.67467512 0 3846
0.05950000 0.05951020 33739.00483787 0 74.96311712 0 13628.11981877 0 686.67529041 0 1452.90744619 0 3787
0.06050000 0.06049470 33624.21605439 0 289.76204012 0 14733.27766618 0 171.94810536 0 2202.93406204 0 3930
0.06150000 0.06148310 33845.11580901 0 1194.47340707 0 14735.91396360 0 260.80670680 0 2656.58592508 0 4083
0.06250000 0.06249100 31679.83686177 0 256.89619896 0 16145.34447151 0 928.38861314 0 5837.02611656 0 4303
0.06350000 0.06350600 32207.31603713 0 318.02424692 0 13296.27588109 0 802.08799760 0 750.90757858 0 4470
0.06450000 0.06451750 31569.33206160 0 1096.58988080 0 15277.23370041 0 426.19372696 0 3658.80734283 0 4479
0.06550000 0.06550280 30222.40377168 0 73.28236767 0 13003.09763889 0 1225.03248799 0 4120.66468158 0 4636
0.06650000 0.06648880 30010.07198368 0 -36.63234126 0 13897.02215556 0 968.45923546 0 2720.20856947 0 4653
0.06750000 0.06749660 29083.63313217 0 949.78875745 0 13115.57966212 0 -1027.94399136 0 1942.32507755 0 5220
0.06850000 0.06852730 28997.73377458 0 789.35907490 0 14259.62289647 0 -188.33598919 0 2035.72689821 0 5029
0.06950000 0.06949320 28475.08781116 0 -868.56882778 0 12681.24966226 0 525.07025859 0 1146.97611523 0 5040
0.07050000 0.07048030 28980.37814991 0 62.25418634 0 12171.78518593 0 1784.18018610 0 -1301.82563491 0 5475
0.07150000 0.07148790 28532.75681722 0 274.65166208 0 12055.12902512 0 523.74442068 0 1250.96706385 0 5509
0.07250000 0.07249820 28706.09337255 0 334.26823285 0 11158.12882813 0 435.29444534 0 1843.20029458 0 5916
0.07350000 0.07351270 28074.70014057 0 -98.03928751 0 10229.06466377 0 2479.80021396 0 2050.62197863 0 5721
0.07450000 0.07449140 28259.90003430 0 241.07841444 0 10888.06212664 0 246.69592486 0 672.68753568 0 6028
0.07550000 0.07549160 27163.85938213 0 1147.37155984 0 9707.89063308 0 -890.61376649 0 1641.30385053 0 6183
0.07650000 0.07648840 26683.61386887 0 610.95204086 0 11575.43274049 0 -1626.71633814 0 633.87904075 0 6330
0.07750000 0.07749960 24831.17554876 0 130.48683615 0 10802.21769192 0 -341.20608889 0 -322.43455281 0 6583
0.07850000 0.07848650 25553.08165880 0 651.71249434 0 13158.41949519 0 26.44832432 0 -1364.75625122 0 6549
0.07950000 0.07947320 24645.64611786 0 670.48073505 0 11950.00666552 0 -718.58107993 0 -2549.16778981 0 6828
0.08050000 0.08048110 24881.48489118 0 -237.87091925 0 12460.02037047 0 722.04451566 0 -2577.72767852 0 7147
0.08150000 0.08149960 24724.95473189 0 -193.01871248 0 11203.82465007 0 780.15070770 0 -3042.63872845 0 7386
0.08250000 0.08250610 24545.13727874 0 10.58654659 0 10728.99453109 0 1128.55498701 0 -2791.54238381 0 7227
0.08350000 0.08350160 24356.09278461 0 488.68935420 0 9383.48325103 0 514.83263694 0 -2767.05777153 0 7798
0.08450000 0.08449610 23910.44867499 0 205.34999366 0 9241.48568127 0 1474.70083819 0 -1336.14143965 0 7371
0.08550000 0.08548940 23923.08093346 0 -160.72516755 0 7814.73250240 0 1267.53179931 0 -779.58610067 0 8256
0.08650000 0.08650700 23118.46099187 0 750.67580409 0 7205.50613789 0 390.69708066 0 -2307.51817759 0 8037
0.08750000 0.08749060 22184.11324810 0 817.62567552 0 7677.44731428 0 601.40205346 0 696.91840434 0 8155
0.08850000 0.08849210 21059.18317005 0 354.27113952 0 7530.00139652 0 -28.13335776 0 -323.07824876 0 8718
0.08950000 0.08949900 21147.16959642 0 630.26072254 0 7371.82355135 0 -26.55487468 0 -273.86956051 0 8571
0.09050000 0.09049190 19884.93236110 0 360.30386678 0 6746.93318634 0 513.25964615 0 304.72302798 0 8932
0.09150000 0.09150830 20080.34790732 0 -94.20501261 0 6667.62457230 0 1122.57937952 0 448.04753411 0 9285
0.09250000 0.09250820 19587.57998133 0 233.81761197 0 6428.10596717 0 364.49448122 0 1612.17276405 0 9204
0.09350000 0.09350330 19007.37485758 0 161.36446968 0 5802.53455866 0 1042.41396882 0 804.40244705 0 9349
0.09450000 0.09448040 19372.50205018 0 111.40004283 0 6396.50335185 0 -279.24101650 0 1478.61134603 0 9564
0.09550000 0.09549270 18800.75504732 0 256.90938045 0 5661.56953872 0 297.01735031 0 1494.69276029 0 10155
0.09650000 0.09649430 18296.45332011 0 409.58944704 0 6248.88168093 0 -969.40500716 0 882.57305936 0 9913
0.09750000 0.09749140 17647.59461773 0 558.79948716 0 6261.82150743 0 -452.59075333 0 622.54515876 0 10476
0.09850000 0.09850240 17258.96043981 0 536.32175628 0 7010.17846825 0 -44.36306375 0 -77.80021253 0 10575
0.09950000 0.09950330 16433.35996459 0 697.15237573 0 7379.44684472 0 -338.48850564 0 456.78356468 0 10882
0.10050000 0.10051200 16230.36506329 0 162.07077769 0 7115.08113640 0 323.26169112 0 283.00982336 0 10875
0.10150000 0.10150300 16769.81742276 0 -342.71207379 0 6905.62730642 0 1215.16834181 0 1144.27391037 0 11118
0.10250000 0.10250800 16264.63692974 0 -241.06633141 0 6022.69834691 0 904.95632291 0 187.10571706 0 11575
0.10350000 0.10349800 16451.48450935 0 207.96542040 0 6277.32073934 0 -576.87130597 0 975.51572489 0 11364
0.10450000 0.10450100 15964.31871537 0 336.42779982 0 5495.84529219 0 222.91432522 0 1229.48123988 0 12093
0.10550000 0.10551000 15801.74704117 0 106.74258406 0 6363.35191180 0 154.40244758 0 855.33131936 0 12067
0.10650000 0.10649700 15571.94978276 0 223.04504164 0 5453.02742827 0 175.78501656 0 372.52310532 0 12054
0.10750000 0.10749900 15470.56217784 0 372.13425145 0 6411.32154026 0 220.17147745 0 812.00157436 0 12807
0.10850000 0.10850100 14922.32216030 0 28.27857381 0 5554.95327725 0 31.70850660 0 1237.32422471 0 12736
0.10950000 0.10950300 15175.84609548 0 -74.95323101 0 5609.05229721 0 884.41736910 0 607.48640821 0 12933
0.11050000 0.11050200 14623.98116899 0 137.67184508 0 5103.59718988 0 228.18582160 0 1219.17771080 0 13428
0.11150000 0.11150900 14829.39267626 0 367.73273322 0 5517.10044013 0 -44.01309526 0 841.37651836 0 13453
0.11250000 0.11250000 14546.32024084 0 -149.25397841 0 4366.22480164 0 169.84126434 0 1169.56039645 0 13668
0.11350000 0.11349100 14838.94925441 0 -80.48912605 0 4782.04579671 0 874.57958590 0 28.13028208 0 13791
0.11450000 0.11448600 14709.00176077 0 -196.75127025 0 4381.10889749 0 -562.36068559 0 250.16155751 0 14205
0.11550000 0.11549300 14564.88416851 0 369.76817452 0 4159.28643878 0 -265.51798998 0 -112.90053545 0 14776
0.11650000 0.11649800 14368.58985648 0 471.61822995 0 4760.97738650 0 -181.55191717 0 -133.90193977 0 14553
0.11750000 0.11747300 14258.85397639 0 67.26249236 0 4667.74033443 0 -18.11630633 0 161.28867613 0 14568
0.11850000 0.11849100 13932.61217072 0 -61.26502558 0 4876.79871979 0 584.25623411 0 -82.07233250 0 16015
0.11950000 0.11950300 14205.24926219 0 -20.79632235 0 4813.18705998 0 203.58257594 0 -100.67042218 0 15270
0.12050000 0.12050700 13726.54158910 0 335.14809711 0 4534.09103983 0 -285.27484222 0 -76.00324630 0 15999
0.12150000 0.12150000 13232.01613149 0 372.07493476 0 4815.81237282 0 -130.53187290 0 610.13808403 0 15670
0.12250000 0.12250700 13437.42763876 0 -70.78118050 0 4687.73225652 0 340.22626502 0 225.04533230 0 16887
0.12350000 0.12352200 13273.64766157 0 -55.96980252 0 4336.36873336 0 1177.06285953 0 382.54762626 0 16407
0.12450000 0.12449800 13364.27038537 0 155.35151465 0 3853.34412324 0 139.48320110 0 877.51356523 0 16306
0.12550000 0.12549900 13181.04771471 0 3.82803567 0 3587.56140507 0 147.73591048 0 1295.71821255 0 17523
0.12650000 0.12650100 13232.56536012 0 -119.19359708 0 3535.39566988 0 462.30001703 0 386.04401571 0 17154
0.12750000 0.12750600 12923.12995050 0 195.64622225 0 3339.56270990 0 -389.67990924 0 683.58642860 0 18007
0.12850000 0.12850300 12785.60310178 0 286.31727816 0 3551.49905328 0 -422.38647410 0 740.16796196 0 17496
0.12950000 0.12949900 12683.55642250 0 287.73648494 0 4184.24338769 0 -442.30809493 0 -227.32133574 0 18405
0.13050000 0.13049000 12418.16914893 0 182.88873965 0 3884.11191105 0 -192.60020027 0 49.51856304 0 18100
0.13150000 0.13148800 12461.11882773 0 94.85793560 0 4584.97158003 0 329.65581082 0 -300.87732912 0 19059
0.13250000 0.13249300 12112.46849400 0 -49.04501812 0 4065.54409637 0 61.74801723 0 60.25433505 0 18957
0.13350000 0.13349100 12217.59085360 0 135.59136703 0 4307.98459781 0 407.27609606 0 217.17927988 0 19468
0.13450000 0.13450700 12070.72711819 0 212.16921632 0 4256.75255129 0 -51.95461170 0 365.05579288 0 19953
0.13550000 0.13551000 11701.31594228 0 191.45121398 0 4550.10654665 0 -118.12260125 0 536.55353077 0 19956
0.13650000 0.13649900 11754.48127357 0 35.83321360 0 4584.30152110 0 290.45956048 0 665.27514610 0 19723
0.13750000 0.13749600 11667.81299590 0 71.12642561 0 4188.05503437 0 -150.99063933 0 578.47834894 0 20946
0.13850000 0.13851100 11605.96985227 0 156.85530263 0 4684.20620873 0 116.83411089 0 361.67474144 0 20955
0.13950000 0.13949800 11275.00468039 0 106.93832914 0 4226.64383785 0 117.63818160 0 727.10181288 0 20506
0.14050000 0.14048300 11293.45876233 0 -62.33008974 0 4289.87103763 0 354.07561413 0 128.05155641 0 21447
0.14150000 0.14148400 11285.11048717 0 191.29962688 0 4137.52600050 0 120.49966276 0 541.61741873 0 21771
0.14250000 0.14249400 10995.44730820 0 283.83806013 0 3871.75426689 0 40.30514294 0 -12.23659416 0 22470
0.14350000 0.14350900 10771.54876527 0 59.81692937 0 3767.85119484 0 178.60255943 0 534.45987123 0 22519
0.14450000 0.14449900 10617.11665935 0 -25.68786236 0 3611.82632590 0 371.24010725 0 666.37140645 0 22218
0.14550000 0.14550500 10459.46607366 0 -49.08763826 0 3164.12810120 0 561.14359495 0 468.94458498 0 23559
0.14650000 0.14650700 10713.39643803 0 12.54899541 0 2409.54288773 0 558.36889191 0 848.73837890 0 23044
0.14750000 0.14750500 10509.31406404 0 30.74043621 0 2500.84665502 0 366.35087399 0 778.98414609 0 23649
0.14850000 0.14849900 10367.78883090 0 277.33958699 0 2223.16764474 0 -581.49471257 0 102.01724063 0 23640
0.14950000 0.14949500 10058.71591218 0 327.95649745 0 2680.41146301 0 -417.74439373 0 326.78224664 0 24457
0.15050000 0.15050000 9944.71801793 0 55.05346947 0 3048.21889132 0 -265.89695773 0 -169.66660963 0 24591
0.15150000 0.15149900 9757.89240747 0 146.25079626 0 2908.46217437 0 -66.58617223 0 -368.74001853 0 25020
0.15250000 0.15250500 9552.12939387 0 -90.16719357 0 2805.63559044 0 169.93573166 0 -322.74981004 0 25297
0.15350000 0.15350100 9897.59420156 0 5.95216641 0 2800.71450192 0 492.91072544 0 27.54052038 0 25452
0.15450000 0.15450400 9696.75227648 0 118.94095191 0 2646.73276347 0 81.37558106 0 -156.91132395 0 26061
0.15550000 0.15549900 9698.80639155 0 0.22887895 0 2347.43611435 0 -0.39341247 0 338.74664309 0 26128
0.15650000 0.15649500 9592.12422264 0 275.45902817 0 2876.20048470 0 -361.88234986 0 -494.69462003 0 26331
0.15750000 0.15749700 9374.97020728 0 382.30926104 0 3148.12357895 0 -574.33496816 0 43.98277784 0 27345
0.15850000 0.15849900 9070.91723823 0 -8.77184028 0 3646.83415872 0 198.48024197 0 -200.53325859 0 26980
0.15950000 0.15949700 9066.34765604 0 -46.89412896 0 3347.24092613 0 -45.48030462 0 -459.64065201 0 27777
0.16050000 0.16050000 8919.85739609 0 81.07020994 0 3335.48743347 0 464.49693155 0 -449.32064607 0 28224
0.16150000 0.16150500 8939.78341075 0 8.51007792 0 2976.76424668 0 43.67444089 0 -46.61457159 0 28075
0.16250000 0.16249700 8822.79771276 0 91.88419211 0 2744.41856744 0 510.14881519 0 109.80596166 0 28590
0.16350000 0.16349900 8872.34911968 0 79.19338587 0 2635.46259201 0 292.89374177 0 291.82274594 0 29163
0.16450000 0.16449100 8739.23806914 0 111.52856233 0 2573.44369521 0 124.93303625 0 673.17415225 0 28996
0.16550000 0.16550500 8529.31190253 0 35.59704529 0 2547.19056674 0 293.59236058 0 670.22149914 0 30777
0.16650000 0.16650700 8537.77002342 0 -6.05215897 0 2329.35550788 0 90.03691654 0 1052.54064629 0 29211
0.16750000 0.16749900 8594.84586255 0 168.73951171 0 2330.73956403 0 63.70447946 0 769.17162741 0 30922
0.16850000 0.16850800 8397.55195442 0 -32.22049752 0 2302.93761082 0 -97.05495996 0 957.45818602 0 30867
0.16950000 0.16949900 8358.94118180 0 138.57807231 0 2195.75015158 0 50.52233328 0 775.84255833 0 30852
0.17050000 0.17049200 8274.96412441 0 93.48761017 0 2338.62648714 0 -116.35957735 0 1046.67708144 0 31257
0.17150000 0.17149500 8204.77270562 0 48.20612631 0 2223.46422820 0 -34.05525068 0 364.94265178 0 32608
0.17250000 0.17250900 8080.36143656 0 197.61026382 0 2296.07225296 0 -95.97517648 0 -54.33365043 0 32361
0.17350000 0.17350400 7948.00832153 0 57.53730103 0 2474.95601745 0 40.01954406 0 401.32685155 0 32508
0.17450000 0.17449800 7898.62168320 0 45.21184167 0 2306.01329115 0 22.86669459 0 43.50011573 0 32791
0.17550000 0.17549800 7745.96907804 0 18.35697832 0 2057.53127478 0 212.10440734 0 -30.74944356 0 33633
0.17650000 0.17650100 7716.92586814 0 97.65702439 0 2177.96612857 0 18.08005724 0 -9.30653632 0 33984
0.17750000 0.17750300 7632.15792153 0 102.35798207 0 2181.40429978 0 -384.10523865 0 -192.66171388 0 34069
0.17850000 0.17849800 7409.70934218 0 263.62205275 0 2405.65434903 0 -162.77598725 0 -281.51811840 0 34536
