### header ###
fiducial parameters:
Omega_m = 0.31
Omega_nu = 0
Omega_de = 0.69
Omega_k = 0
H_0 = 100
w_de = -1
zeff = 0
beta = 0
fgrowth = 0
b_1 = 2
gamma = 0.55
Lx = 3500 Ly = 3500 Lz = 3500
nx = 700 ny = 700 nz = 700
xoffset = -983.599254 yoffset = -42.9823471 zoffset = 800.977702
bins = 400 dk = 0.001
kx_ny = 0.628318531 ky_ny = 0.628318531 kz_ny = 0.628318531
############################
A(data) = 9.02756731 (not used)
A(ran) = 9.02979402 (used)
Ngal = 501757
weighted Ngal = 0
Nran = 25229228
weighted Nran = 0
SN(data) = 6727.33606
SN(ran) = 134.041071
SN(data+ran) = 6861.37713
############################
13 columns: k_central k_mean P_0(k) sigma^{lin}_{P_0(k)} P^img_1(k) sigma^{lin}_{P_1(k)} P_2(k) sigma^{lin}_{P_2(k)} P^img_3(k) sigma^{lin}_{P_3(k)} P_4(k) sigma^{lin}_{P_4(k)} N_modes
### header ###
0.00050000 0 0 0 0 0 0 0 0 0 0 0 0
0.00150000 0.00179520 17354.52622126 0 -9291.60828596 0 412.30703030 0 -11363.21079822 0 -12497.47776297 0 3
0.00250000 0.00253879 30329.06397144 0 -7742.33318452 0 231.80743518 0 -23700.20395578 0 9534.40029373 0 6
0.00350000 0.00331552 18335.44855278 0 2491.33401517 0 15914.77829303 0 -33972.31715950 0 24305.01452211 0 7
0.00450000 0.00420575 15794.16768608 0 2510.69981663 0 2317.63496894 0 7053.68836025 0 4109.95472332 0 24
0.00550000 0.00557378 29438.32498082 0 -10462.59667685 0 1550.32962041 0 18096.42425341 0 -2464.83922610 0 45
0.00650000 0.00659388 39772.94040253 0 -11636.17742687 0 -9505.63169814 0 3920.26213941 0 -19322.08286203 0 40
0.00750000 0.00754703 56906.56686918 0 -3353.46917879 0 1418.32801170 0 -5016.63232875 0 -8811.35178813 0 57
0.00850000 0.00846663 52814.04466255 0 4598.41669686 0 13417.76525384 0 -28414.56281624 0 -6625.00443069 0 75
0.00950000 0.00948925 60664.16945781 0 415.97258217 0 32351.65332085 0 -6531.73442490 0 -778.53707399 0 112
0.01050000 0.01054430 60425.25500416 0 -4525.52307322 0 39866.74865237 0 -9750.30206781 0 -7799.47493108 0 105
0.01150000 0.01145670 55861.82417097 0 7176.06748338 0 43118.95105653 0 -7457.17368030 0 -8122.92665531 0 144
0.01250000 0.01249090 65354.69179577 0 3645.79062432 0 54335.40796507 0 12848.87423985 0 8705.01014097 0 169
0.01350000 0.01339930 64511.73569587 0 -10421.60225198 0 43378.95588953 0 36109.91498383 0 8679.85546976 0 180
0.01450000 0.01448870 72190.83069604 0 -1153.25929074 0 35362.52466539 0 14693.95289634 0 3017.83556356 0 267
0.01550000 0.01550050 82949.01123648 0 906.55018439 0 40091.38316166 0 14578.28534706 0 34515.50427365 0 238
0.01650000 0.01653350 79461.18975045 0 -4342.25646427 0 20069.80271765 0 11903.10254060 0 22479.15886764 0 315
0.01750000 0.01747870 82996.90397294 0 -6044.15121716 0 27050.16905591 0 241.20254011 0 28338.11019108 0 297
0.01850000 0.01844180 81408.20524050 0 6154.41435673 0 19048.23746758 0 -3525.22395567 0 17814.45027524 0 388
0.01950000 0.01947590 73274.89816409 0 7632.52041242 0 23602.00187690 0 -3772.39880789 0 32435.35576392 0 399
0.02050000 0.02045430 74270.32013141 0 3062.50982025 0 33182.30669945 0 -758.31008204 0 10253.08792401 0 462
0.02150000 0.02154770 68925.33695906 0 -23.75260037 0 28344.70093462 0 4997.55212618 0 10507.25994897 0 571
0.02250000 0.02255340 69514.54943232 0 -1929.70380365 0 33284.46322445 0 5743.45952732 0 14608.71261311 0 510
0.02350000 0.02348930 67928.15746012 0 382.90242795 0 20734.91858745 0 2287.31754861 0 12524.38996580 0 555
0.02450000 0.02439640 71707.28981101 0 745.45044292 0 24876.98121642 0 5235.43403000 0 3672.65888885 0 592
0.02550000 0.02547300 66795.31848981 0 3841.22813969 0 24021.28301233 0 -1297.67346647 0 1283.44844498 0 837
0.02650000 0.02652900 62668.41457100 0 3574.88520831 0 27286.66690359 0 101.77041728 0 851.83712682 0 723
0.02750000 0.02749970 62650.72940914 0 1764.04546456 0 30933.21546342 0 -7941.98877575 0 -5273.45163571 0 826
0.02850000 0.02848090 59552.20117540 0 212.27906205 0 28410.93790729 0 5370.88479450 0 -4489.47170600 0 831
0.02950000 0.02946900 59340.52846175 0 -516.12112731 0 27682.33120797 0 -1202.20654617 0 -11805.88907325 0 996
0.03050000 0.03053250 56629.31625723 0 -503.91507025 0 20858.38518326 0 14131.65262590 0 -6436.26750459 0 1041
0.03150000 0.03150510 60873.64525693 0 -1524.02156908 0 19893.50032772 0 3753.04399100 0 1928.83602242 0 1036
0.03250000 0.03246190 56318.89223608 0 3179.16598106 0 11475.47313000 0 734.34833541 0 2379.84060347 0 1059
0.03350000 0.03345080 58275.90368717 0 4618.00218978 0 19610.64758375 0 -1286.31541842 0 -2369.50412067 0 1302
0.03450000 0.03451200 54955.04770438 0 2711.76143316 0 21653.66823815 0 -3363.35529411 0 978.70015248 0 1339
0.03550000 0.03553350 47968.63985119 0 481.57135117 0 23576.40782279 0 39.94539819 0 131.35242047 0 1365
0.03650000 0.03647120 44859.67627350 0 1798.40520759 0 29694.70490487 0 565.16394851 0 4471.01762407 0 1308
0.03750000 0.03744890 43727.93576044 0 1158.35613242 0 25239.14257443 0 172.64672418 0 4072.47536167 0 1579
0.03850000 0.03847530 43945.54014328 0 211.87043595 0 21496.91838741 0 6014.00955000 0 4188.32964869 0 1662
0.03950000 0.03950240 45775.46008960 0 -649.24645779 0 18710.79139788 0 6172.64874721 0 3865.22943078 0 1683
0.04050000 0.04050350 44417.54722710 0 688.91284784 0 18670.03863361 0 4816.66916948 0 9234.64229255 0 1822
0.04150000 0.04152450 44153.03871934 0 -2041.94416629 0 13321.21086085 0 4687.33681191 0 10332.52835291 0 1887
0.04250000 0.04250150 45031.80452585 0 1639.04102858 0 14783.58700860 0 2075.42514352 0 7314.96740367 0 1920
0.04350000 0.04349210 44487.51895444 0 2504.74617829 0 11855.09995841 0 -7551.61903536 0 2493.02563934 0 2005
0.04450000 0.04448520 39619.15638639 0 1305.17592954 0 18838.32228555 0 -3448.11225615 0 7772.77143514 0 2151
0.04550000 0.04548030 40021.08189714 0 203.05861182 0 16456.53741274 0 1460.39892469 0 2122.90046622 0 2274
0.04650000 0.04648670 40543.83770629 0 -758.96366411 0 16800.24468881 0 2918.38124341 0 1105.37753886 0 2311
0.04750000 0.04749250 40683.78116097 0 879.26340765 0 16838.25130994 0 -152.84373673 0 -3001.13901324 0 2568
0.04850000 0.04851840 39899.15314149 0 1507.29206504 0 18175.18363882 0 -1214.52025203 0 1174.73413014 0 2493
0.04950000 0.04949480 38121.73945210 0 1248.36372015 0 21284.25706224 0 -661.03510109 0 1089.25987551 0 2644
0.05050000 0.05050630 36830.50294516 0 1148.11851077 0 20950.54574722 0 -1486.53122286 0 -621.13583810 0 2829
0.05150000 0.05149060 35305.84427087 0 503.12637794 0 18963.32672153 0 3673.72439239 0 339.59465210 0 2784
0.05250000 0.05249300 36094.86611939 0 -373.24698866 0 21583.47681936 0 2837.09540631 0 416.78653900 0 3055
0.05350000 0.05348950 35528.17201992 0 -38.37581262 0 19748.83350682 0 591.71036507 0 3190.28236852 0 3009
0.05450000 0.05448610 35289.80679490 0 39.59191465 0 18064.78868437 0 358.35190824 0 -262.24678426 0 3336
0.05550000 0.05550870 36217.01456650 0 -661.27456477 0 17208.32156021 0 2350.31407237 0 3360.65308925 0 3349
0.05650000 0.05647670 36014.78858527 0 88.29608148 0 15711.89323745 0 550.01182909 0 598.78992210 0 3324
0.05750000 0.05747970 35239.49745248 0 845.97026661 0 14677.14650029 0 1546.25434399 0 2770.25428215 0 3639
0.05850000 0.05849280 36020.06118011 0 506.88420022 0 14675.27912295 0 963.70730936 0 -687.48045958 0 3846
0.05950000 0.05951020 35952.39621301 0 811.16564838 0 14818.29825796 0 -651.13690273 0 -292.95525537 0 3787
0.06050000 0.06049470 33402.10799680 0 732.83136594 0 14882.11862466 0 -81.68490662 0 -2178.21877374 0 3930
0.06150000 0.06148310 33945.40495667 0 97.35406987 0 14926.71598934 0 -1199.53729503 0 -2470.29855867 0 4083
0.06250000 0.06249100 31362.60240562 0 -275.48209577 0 13679.30792700 0 1368.16146872 0 -1073.24436869 0 4303
0.06350000 0.06350600 32178.53645696 0 73.29499993 0 11812.80935398 0 2709.75125637 0 -1845.22145593 0 4470
0.06450000 0.06451750 32211.49017471 0 473.99089763 0 12078.41631899 0 753.22861876 0 -3851.13622416 0 4479
0.06550000 0.06550280 31267.58585279 0 1912.30424069 0 10639.56912571 0 -448.78569738 0 -2485.90763631 0 4636
0.06650000 0.06648880 31179.70927214 0 121.53880333 0 12248.23781110 0 -639.27685972 0 -2412.15721600 0 4653
0.06750000 0.06749660 30020.94671054 0 39.70428682 0 11396.71374460 0 1073.57939815 0 -1708.01315982 0 5220
0.06850000 0.06852730 29526.86063583 0 639.91616184 0 10961.71368580 0 434.38931656 0 -2878.30952263 0 5029
0.06950000 0.06949320 29150.85871637 0 -157.37706983 0 11169.11340071 0 301.50784358 0 233.83189191 0 5040
0.07050000 0.07048030 28713.01365328 0 -139.41729366 0 11685.82769494 0 1191.51855704 0 -1157.69705807 0 5475
0.07150000 0.07148790 28187.07231808 0 779.32247093 0 10677.97119145 0 475.83960119 0 1335.88879448 0 5509
0.07250000 0.07249820 28477.17487995 0 381.13940406 0 11392.75929847 0 -486.10138890 0 -282.44082250 0 5916
0.07350000 0.07351270 27536.23639264 0 380.56930474 0 10971.64373941 0 -527.33088363 0 3.08088701 0 5721
0.07450000 0.07449140 27984.73649113 0 347.94841954 0 11032.35547207 0 1620.86156096 0 742.32862739 0 6028
0.07550000 0.07549160 27372.89579835 0 -219.62993802 0 11975.16133673 0 20.30992547 0 1668.73232827 0 6183
0.07650000 0.07648840 27180.00670382 0 213.49285732 0 10791.88120912 0 1471.97666419 0 182.73385718 0 6330
0.07750000 0.07749960 26625.28578847 0 589.86495687 0 10407.19049275 0 271.48480981 0 148.86512454 0 6583
0.07850000 0.07848650 26019.92599351 0 528.32388899 0 9621.70567660 0 417.38080437 0 1322.80616854 0 6549
0.07950000 0.07947320 25406.87699774 0 810.51316477 0 10997.09499409 0 -146.40897411 0 1426.44561084 0 6828
0.08050000 0.08048110 23802.36048079 0 724.09423690 0 10261.88656664 0 177.98412799 0 1846.69338866 0 7147
0.08150000 0.08149960 22916.89408500 0 598.26705644 0 10812.69697416 0 943.47921896 0 2319.87582174 0 7386
0.08250000 0.08250610 23040.90990945 0 -31.04437934 0 9431.18924975 0 1707.44196204 0 2500.39628755 0 7227
0.08350000 0.08350160 22400.28963650 0 143.66832325 0 9826.50204781 0 1124.20509626 0 3552.24600422 0 7798
0.08450000 0.08449610 21532.06901967 0 527.17709961 0 7999.97633441 0 184.02454446 0 2734.12602293 0 7371
0.08550000 0.08548940 21745.71895638 0 677.38893275 0 9092.54586164 0 20.44119112 0 4282.74205002 0 8256
0.08650000 0.08650700 21065.00499352 0 86.47450981 0 8228.33461381 0 -227.14997641 0 1929.78069566 0 8037
0.08750000 0.08749060 20368.91262904 0 76.48964318 0 8433.16393873 0 320.57706159 0 3648.91024293 0 8155
0.08850000 0.08849210 20862.44947512 0 599.56543292 0 8226.11573014 0 18.36796289 0 1343.92950161 0 8718
0.08950000 0.08949900 19524.63838043 0 -104.77920156 0 7534.42817927 0 673.23237048 0 4066.15923244 0 8571
0.09050000 0.09049190 19889.32619013 0 27.48263168 0 7932.35530560 0 1250.24208206 0 1697.47895471 0 8932
0.09150000 0.09150830 20046.95480668 0 -8.66527894 0 6558.42693627 0 531.36222176 0 3450.97922959 0 9285
0.09250000 0.09250820 19408.97083115 0 108.33391909 0 6088.72661269 0 581.68254876 0 3053.51345531 0 9204
0.09350000 0.09350330 19909.75749514 0 275.93466016 0 6106.08223737 0 684.52011727 0 3083.55626132 0 9349
0.09450000 0.09448040 19338.77941236 0 87.64480617 0 5937.66677055 0 105.45134755 0 3191.32590291 0 9564
0.09550000 0.09549270 18575.68115513 0 416.08023098 0 6022.92902293 0 41.73192908 0 3830.37538198 0 10155
0.09650000 0.09649430 18147.61236164 0 410.58245240 0 5538.61921782 0 652.02885003 0 3746.56309318 0 9913
0.09750000 0.09749140 18141.57084672 0 293.16286379 0 5463.30898820 0 -25.85801339 0 2807.08555402 0 10476
0.09850000 0.09850240 17739.31579879 0 583.42580043 0 5922.35427638 0 -169.80062142 0 3385.28050098 0 10575
0.09950000 0.09950330 17008.18264777 0 151.04995602 0 5675.44305389 0 -377.89346286 0 2201.59394419 0 10882
0.10050000 0.10051200 16853.84940301 0 -115.94985280 0 5992.83129406 0 -68.40653560 0 1729.90541297 0 10875
0.10150000 0.10150300 16388.32321701 0 292.35110388 0 5474.45832937 0 13.31198382 0 739.18044889 0 11118
0.10250000 0.10250800 16336.69572588 0 238.38499725 0 5004.67012921 0 -143.48378243 0 265.27962475 0 11575
0.10350000 0.10349800 16231.90290345 0 213.18528929 0 5588.18160931 0 432.95253446 0 470.51757578 0 11364
0.10450000 0.10450100 15746.05525818 0 216.78713064 0 5536.89463992 0 44.02012539 0 -55.92212947 0 12093
0.10550000 0.10551000 15633.90277212 0 119.82850538 0 5168.30730696 0 51.08968646 0 544.22735317 0 12067
0.10650000 0.10649700 15565.24919349 0 184.99338376 0 4788.98804658 0 618.42484559 0 -236.16611358 0 12054
0.10750000 0.10749900 15202.64845258 0 82.44042553 0 4954.85509256 0 578.30259578 0 572.49615071 0 12807
0.10850000 0.10850100 15398.50338170 0 66.65658334 0 5029.64904726 0 -466.64990777 0 454.03192925 0 12736
0.10950000 0.10950300 15196.16755476 0 197.86181054 0 5280.20714784 0 -128.55794521 0 930.31530717 0 12933
0.11050000 0.11050200 14869.70605764 0 26.08934849 0 5072.95023238 0 472.89244037 0 300.19738408 0 13428
0.11150000 0.11150900 14870.36513199 0 147.07354075 0 5501.28265562 0 -576.32647117 0 259.45780129 0 13453
0.11250000 0.11250000 14481.51126261 0 319.50826267 0 5367.09511696 0 -251.93227061 0 338.90701785 0 13668
0.11350000 0.11349100 14394.07406487 0 124.37392151 0 5434.09002514 0 502.71445647 0 -99.97443966 0 13791
0.11450000 0.11448600 14201.40466179 0 104.91958439 0 5326.10069209 0 431.47071562 0 276.41468598 0 14205
0.11550000 0.11549300 14016.09492234 0 140.77938066 0 4896.20845955 0 -27.25448211 0 44.31989438 0 14776
0.11650000 0.11649800 14008.18603008 0 -106.83199848 0 4570.24126819 0 820.44651376 0 107.10540449 0 14553
0.11750000 0.11747300 14001.04605791 0 248.88954401 0 4180.53060215 0 46.33270746 0 -101.86982766 0 14568
0.11850000 0.11849100 13605.60144498 0 196.28442591 0 4095.26834978 0 -129.83874637 0 100.87528446 0 16015
0.11950000 0.11950300 13547.93243893 0 39.09925657 0 4564.93571964 0 221.03596331 0 -53.49508816 0 15270
0.12050000 0.12050700 13477.19179150 0 13.78992257 0 4305.29337753 0 -327.45779785 0 -78.99797032 0 15999
0.12150000 0.12150000 13211.91436366 0 244.55832704 0 4466.93136307 0 -63.92021646 0 -25.41236928 0 15670
0.12250000 0.12250700 13274.41658165 0 34.53560604 0 4223.18369749 0 27.41771285 0 -594.21594607 0 16887
0.12350000 0.12352200 13118.98487962 0 32.25443985 0 4168.19492714 0 588.37215346 0 260.64852895 0 16407
0.12450000 0.12449800 13191.81259584 0 -74.36951082 0 3768.70799151 0 720.45285109 0 451.09245763 0 16306
0.12550000 0.12549900 13334.17265649 0 9.98995249 0 3933.63036424 0 217.64832113 0 -400.32945236 0 17523
0.12650000 0.12650100 13086.36069906 0 458.29723878 0 3609.92599484 0 -586.32353067 0 621.46867065 0 17154
0.12750000 0.12750600 12811.63653880 0 -201.98981291 0 3740.24696395 0 341.14567374 0 471.72478030 0 18007
0.12850000 0.12850300 12586.34295515 0 193.14723198 0 3453.94506419 0 245.04494360 0 370.78864131 0 17496
0.12950000 0.12949900 12616.11114685 0 310.55254065 0 3451.57239651 0 -136.44486832 0 41.34845765 0 18405
0.13050000 0.13049000 12581.61958894 0 90.07107856 0 3957.25817986 0 135.71000041 0 630.94066759 0 18100
0.13150000 0.13148800 12409.16179942 0 -176.57261042 0 3478.30884617 0 544.32841124 0 802.58010646 0 19059
0.13250000 0.13249300 12309.31203465 0 -133.72948198 0 3350.74500479 0 -142.47430021 0 213.06995127 0 18957
0.13350000 0.13349100 12323.37228756 0 259.06455359 0 3113.42331417 0 37.05843283 0 561.23476690 0 19468
0.13450000 0.13450700 12278.00600280 0 231.06707499 0 3971.14267961 0 -426.73526638 0 627.17515610 0 19953
0.13550000 0.13551000 12048.53828157 0 342.89222078 0 3958.89488118 0 -232.55218921 0 227.43118147 0 19956
0.13650000 0.13649900 12135.75578787 0 149.89328053 0 4595.33003197 0 -50.62877379 0 50.77003540 0 19723
0.13750000 0.13749600 11611.35229283 0 65.32448422 0 4395.69640988 0 -52.96123794 0 457.40529149 0 20946
0.13850000 0.13851100 11587.18623316 0 99.28032452 0 4760.26338928 0 276.38502763 0 359.11972986 0 20955
0.13950000 0.13949800 11326.30263435 0 74.51011335 0 4206.45419344 0 184.79675991 0 625.43410135 0 20506
0.14050000 0.14048300 11198.22251805 0 212.81730611 0 4408.89986612 0 156.68284484 0 406.91470362 0 21447
0.14150000 0.14148400 10884.87660059 0 223.96884419 0 3847.51131520 0 100.73017826 0 427.95565240 0 21771
0.14250000 0.14249400 11010.27648118 0 -31.08809794 0 4034.49070968 0 470.52306806 0 1065.90228037 0 22470
0.14350000 0.14350900 10720.08604273 0 5.81954966 0 3367.30974024 0 618.41495947 0 857.49198479 0 22519
0.14450000 0.14449900 10806.60053638 0 209.58894022 0 3077.13028636 0 386.02973577 0 500.58894168 0 22218
0.14550000 0.14550500 10458.91684504 0 12.77417915 0 3112.50061007 0 -162.54640969 0 664.98735030 0 23559
0.14650000 0.14650700 10463.13492091 0 107.82028048 0 2982.41031699 0 64.85774973 0 894.36280112 0 23044
0.14750000 0.14750500 10392.02079802 0 116.51336137 0 3023.16308126 0 -429.82302974 0 393.09501285 0 23649
0.14850000 0.14849900 10004.67181508 0 157.99989510 0 3052.43696719 0 -32.49346415 0 522.17033143 0 23640
0.14950000 0.14949500 10269.16933827 0 174.75356520 0 3324.44793803 0 182.03523836 0 251.76200974 0 24457
0.15050000 0.15050000 9998.66325388 0 -105.79066100 0 3019.16469685 0 402.75594444 0 997.99784959 0 24591
0.15150000 0.15149900 9997.76251893 0 -122.38571387 0 2678.09371819 0 545.53671422 0 780.56262917 0 25020
0.15250000 0.15250500 10207.44702493 0 84.23299793 0 2592.86441954 0 148.66300840 0 808.53594171 0 25297
0.15350000 0.15350100 9956.29575743 0 192.85943618 0 2400.41470791 0 -148.30820671 0 1229.67896219 0 25452
0.15450000 0.15450400 9871.26418108 0 16.96007022 0 2424.33910699 0 249.54861836 0 1017.37024180 0 26061
0.15550000 0.15549900 9701.36579696 0 11.59729204 0 2298.67559666 0 291.22848056 0 1402.04887514 0 26128
0.15650000 0.15649500 9670.58702459 0 178.73986659 0 2186.74280206 0 60.47040160 0 1188.72847561 0 26331
0.15750000 0.15749700 9407.29780439 0 362.99728398 0 2345.06344667 0 -505.13545627 0 1257.07448621 0 27345
0.15850000 0.15849900 9165.99969849 0 51.67637248 0 2446.65975848 0 -188.65454180 0 638.70676040 0 26980
0.15950000 0.15949700 9122.59965222 0 58.78976199 0 2857.61458789 0 164.25890455 0 720.94715686 0 27777
0.16050000 0.16050000 8988.22537584 0 158.51177618 0 2509.64529766 0 -310.20762507 0 346.79174405 0 28224
0.16150000 0.16150500 8988.58786673 0 10.11587963 0 2646.46913373 0 136.93697717 0 611.92197862 0 28075
0.16250000 0.16249700 8853.35679368 0 29.00234730 0 2393.75805693 0 212.83597988 0 86.98507274 0 28590
0.16350000 0.16349900 8894.64780202 0 124.96928534 0 2762.97151053 0 106.26870960 0 324.48207714 0 29163
0.16450000 0.16449100 8701.94544522 0 147.21304482 0 2353.71928987 0 -160.41320569 0 518.96393469 0 28996
0.16550000 0.16550500 8605.61074368 0 10.63670215 0 2446.40711331 0 262.43242354 0 720.53194002 0 30777
0.16650000 0.16650700 8530.72891240 0 93.84460878 0 2677.20396782 0 28.10271080 0 501.63686990 0 29211
0.16750000 0.16749900 8477.16813649 0 87.84802076 0 2317.44823120 0 118.64876228 0 493.52256614 0 30922
0.16850000 0.16850800 8283.96048936 0 41.11866039 0 2541.33578956 0 -85.40406321 0 677.87115548 0 30867
0.16950000 0.16949900 8375.54985554 0 142.33040231 0 2521.10220686 0 -46.31150723 0 523.80154046 0 30852
0.17050000 0.17049200 8151.03617655 0 -22.63876471 0 2321.44661562 0 268.85070930 0 363.95513871 0 31257
0.17150000 0.17149500 8444.03866558 0 -36.02577316 0 2288.71258933 0 264.17787212 0 422.07890607 0 32608
0.17250000 0.17250900 8200.91712064 0 75.96381169 0 2170.41972720 0 -260.11577718 0 288.52627571 0 32361
0.17350000 0.17350400 8107.36151597 0 230.78586993 0 2427.68940163 0 59.71861745 0 720.64727803 0 32508
0.17450000 0.17449800 7995.02229218 0 -84.72917107 0 2202.04431166 0 172.99383667 0 337.61083829 0 32791
0.17550000 0.17549800 8081.73450813 0 125.39768367 0 2218.79578485 0 28.20442794 0 439.77944632 0 33633
0.17650000 0.17650100 7839.48074443 0 226.13390345 0 2002.47659701 0 53.94677379 0 568.36924679 0 33984
0.17750000 0.17750300 7730.89824446 0 22.00879947 0 2256.86831342 0 78.10865933 0 802.06932383 0 34069
0.17850000 0.17849800 7529.35330674 0 123.65553046 0 2226.59483138 0 -6.85003438 0 546.18700092 0 34536
0.17950000 0.17950400 7427.66911835 0 138.76481005 0 2078.13833295 0 35.88890538 0 652.08487135 0 35343
