### header ###
fiducial parameters:
Omega_m = 0.31
Omega_nu = 0
Omega_de = 0.69
Omega_k = 0
H_0 = 100
w_de = -1
zeff = 0
beta = 0
fgrowth = 0
b_1 = 2
gamma = 0.55
Lx = 3500 Ly = 3500 Lz = 3500
nx = 700 ny = 700 nz = 700
xoffset = -983.599254 yoffset = -42.9823471 zoffset = 800.977702
bins = 400 dk = 0.001
kx_ny = 0.628318531 ky_ny = 0.628318531 kz_ny = 0.628318531
############################
A(data) = 9.07304763 (not used)
A(ran) = 9.08311095 (used)
Ngal = 504830
weighted Ngal = 0
Nran = 25229228
weighted Nran = 0
SN(data) = 6693.10907
SN(ran) = 134.832524
SN(data+ran) = 6827.9416
############################
13 columns: k_central k_mean P_0(k) sigma^{lin}_{P_0(k)} P^img_1(k) sigma^{lin}_{P_1(k)} P_2(k) sigma^{lin}_{P_2(k)} P^img_3(k) sigma^{lin}_{P_3(k)} P_4(k) sigma^{lin}_{P_4(k)} N_modes
### header ###
0.00050000 0 0 0 0 0 0 0 0 0 0 0 0
0.00150000 0.00179520 14215.46491469 0 7533.80205863 0 1605.20854503 0 18377.08008286 0 -38204.67297509 0 3
0.00250000 0.00253879 28280.66087647 0 6993.71259395 0 14881.67924175 0 9218.37414056 0 38189.51426493 0 6
0.00350000 0.00331552 23688.23077167 0 6279.69340702 0 13863.73890064 0 -6878.63821159 0 6239.17131877 0 7
0.00450000 0.00420575 23250.71524575 0 -4284.55450450 0 7871.89621811 0 8036.64283769 0 4854.62086775 0 24
0.00550000 0.00557378 40634.02104718 0 -12937.95912348 0 12137.73301093 0 3959.61986297 0 -5451.96192473 0 45
0.00650000 0.00659388 54622.65453807 0 3538.60316507 0 5827.46953842 0 -2471.49587708 0 39377.71548105 0 40
0.00750000 0.00754703 65013.40112566 0 -11419.01242694 0 14551.48298996 0 -13984.12981613 0 -3951.74392443 0 57
0.00850000 0.00846663 74361.93146674 0 8093.18043276 0 28929.51957885 0 2809.16163823 0 18716.39352990 0 75
0.00950000 0.00948925 65433.89056408 0 973.56156943 0 41713.58484047 0 12328.64488240 0 26545.64763725 0 112
0.01050000 0.01054430 74052.16651995 0 6441.25450055 0 57970.42272368 0 27154.08311253 0 55317.31890811 0 105
0.01150000 0.01145670 65757.71576378 0 127.15521529 0 45235.89788441 0 20293.99784403 0 49012.17424642 0 144
0.01250000 0.01249090 69972.49626324 0 2949.54447582 0 65841.85758975 0 16224.21370264 0 47913.49729684 0 169
0.01350000 0.01339930 67992.85659263 0 852.72797566 0 70202.73290454 0 4890.85897270 0 68717.83838300 0 180
0.01450000 0.01448870 66451.06198511 0 7187.03008681 0 59397.97777636 0 14956.04479813 0 55733.30467177 0 267
0.01550000 0.01550050 56979.39458540 0 -270.75213881 0 62970.38047126 0 14921.66308595 0 61616.86143779 0 238
0.01650000 0.01653350 71096.76726694 0 -2169.04665563 0 52806.13577029 0 38092.41064331 0 55495.48867538 0 315
0.01750000 0.01747870 75736.87041675 0 -10519.90319201 0 39549.07481332 0 8395.80540738 0 44290.45572233 0 297
0.01850000 0.01844180 79933.52637145 0 2127.10755751 0 26637.80820121 0 9738.33986827 0 38246.52419662 0 388
0.01950000 0.01947590 68333.59803410 0 5850.49320255 0 37002.96073469 0 -2598.25784467 0 47121.39976799 0 399
0.02050000 0.02045430 74807.90511354 0 138.04312363 0 36176.59133940 0 11889.26197914 0 34598.54764236 0 462
0.02150000 0.02154770 81612.73798196 0 -8107.35053139 0 23513.13668472 0 4471.14943894 0 3892.20754104 0 571
0.02250000 0.02255340 77354.34872935 0 5255.66761270 0 16075.04320699 0 -7320.85513457 0 3206.79218111 0 510
0.02350000 0.02348930 70885.42409047 0 7392.25485635 0 19340.53694397 0 -6599.80582119 0 11263.36103346 0 555
0.02450000 0.02439640 70714.61398683 0 -799.53188756 0 24630.70709915 0 -548.62996986 0 41.10844474 0 592
0.02550000 0.02547300 69888.57412872 0 1606.54866288 0 23241.92758769 0 1621.86115706 0 -15313.59263565 0 837
0.02650000 0.02652900 65606.34835360 0 2618.51339651 0 26387.90917498 0 -1604.59340896 0 -12088.74181722 0 723
0.02750000 0.02749970 66151.62253654 0 2056.30100265 0 22212.01406246 0 -1966.75476697 0 -17824.00685339 0 826
0.02850000 0.02848090 64287.97995239 0 -234.22843498 0 29777.85811931 0 -2056.12524949 0 -8971.36405692 0 831
0.02950000 0.02946900 59634.69531548 0 -584.53853763 0 27031.16574535 0 221.20073190 0 -4506.77240782 0 996
0.03050000 0.03053250 61050.16733832 0 2053.29122977 0 29008.82819289 0 5809.30105537 0 -8732.55944901 0 1041
0.03150000 0.03150510 59628.65380056 0 2851.78177985 0 31246.05609053 0 -2321.84206024 0 -5049.11370988 0 1036
0.03250000 0.03246190 58479.66750856 0 4861.69493249 0 33577.86115810 0 3310.70623773 0 -554.70004467 0 1059
0.03350000 0.03345080 52916.75041619 0 593.79413849 0 34481.01271574 0 4361.97377205 0 9520.05444194 0 1302
0.03450000 0.03451200 52791.96567166 0 174.43501259 0 32581.78011643 0 6578.38590465 0 7573.21470505 0 1339
0.03550000 0.03553350 54091.98983666 0 166.13397109 0 29559.15527922 0 6462.72933994 0 8912.14622614 0 1365
0.03650000 0.03647120 50025.83060423 0 -210.16233491 0 25733.33849486 0 873.71619849 0 13919.43068363 0 1308
0.03750000 0.03744890 50995.10928881 0 2483.72170637 0 25249.02868975 0 2280.28742216 0 6854.72479708 0 1579
0.03850000 0.03847530 49807.01791841 0 1480.01737132 0 26369.67478450 0 -1348.36726893 0 11157.79929095 0 1662
0.03950000 0.03950240 47799.03805054 0 -199.75005856 0 24722.64797165 0 591.73453113 0 1094.56432561 0 1683
0.04050000 0.04050350 45762.49829396 0 1118.59197968 0 25989.38888173 0 1886.89692431 0 6444.74759463 0 1822
0.04150000 0.04152450 43345.56278888 0 2773.71442251 0 25144.89494168 0 -2658.06884238 0 -2295.69877749 0 1887
0.04250000 0.04250150 41864.95225064 0 2630.95891725 0 27774.05238902 0 -804.29479823 0 4877.28204099 0 1920
0.04350000 0.04349210 40973.77387712 0 -651.27860372 0 27015.67749801 0 5903.37293496 0 324.00754360 0 2005
0.04450000 0.04448520 41610.32985821 0 -404.05651783 0 26376.81475668 0 3766.59895357 0 5522.97718646 0 2151
0.04550000 0.04548030 41000.35654277 0 287.06752447 0 22589.22428490 0 1058.63049333 0 -426.91541337 0 2274
0.04650000 0.04648670 40592.38951710 0 1684.36337505 0 23240.49959325 0 -291.10545335 0 2189.45599149 0 2311
0.04750000 0.04749250 37678.40210272 0 1634.75704527 0 23616.28182126 0 1432.31137260 0 7047.11958584 0 2568
0.04850000 0.04851840 36996.80937404 0 -842.43982498 0 22724.11483620 0 4756.84718721 0 5140.77996807 0 2493
0.04950000 0.04949480 36125.18353972 0 1474.17357871 0 21101.25408303 0 2109.25762707 0 7904.88288957 0 2644
0.05050000 0.05050630 35639.33589444 0 774.77485788 0 20186.89826136 0 1062.81451702 0 8184.11072459 0 2829
0.05150000 0.05149060 36223.49546432 0 -884.90288721 0 19928.87065143 0 3922.05262474 0 8164.64606198 0 2784
0.05250000 0.05249300 34934.45587190 0 477.16543910 0 16211.69128990 0 381.53155330 0 6186.30257093 0 3055
0.05350000 0.05348950 34974.00033319 0 875.97023279 0 16104.04247860 0 -778.88528494 0 4118.48973621 0 3009
0.05450000 0.05448610 36114.85804149 0 186.83220121 0 18327.64950625 0 -1931.76890330 0 2663.16568406 0 3336
0.05550000 0.05550870 32306.17719036 0 -515.52576347 0 15165.08121435 0 3379.66738439 0 3157.77901825 0 3349
0.05650000 0.05647670 34516.60273090 0 -137.60483918 0 15254.71532661 0 797.85344487 0 310.75026295 0 3324
0.05750000 0.05747970 34668.95875261 0 692.73657756 0 13941.50967452 0 -423.38277483 0 -1378.72862755 0 3639
0.05850000 0.05849280 33193.95034638 0 1327.39771987 0 15676.41306801 0 1937.66761878 0 4579.67701604 0 3846
0.05950000 0.05951020 33520.08230632 0 -646.48383779 0 14920.34493724 0 -113.88585161 0 822.02609530 0 3787
0.06050000 0.06049470 32299.47660108 0 -291.90622869 0 12957.95104558 0 1475.44778913 0 171.31209861 0 3930
0.06150000 0.06148310 34241.65887919 0 38.29815169 0 13152.59767172 0 1018.36544407 0 79.91056861 0 4083
0.06250000 0.06249100 33204.82507324 0 371.05666488 0 12612.37639217 0 -808.99619530 0 1720.61246457 0 4303
0.06350000 0.06350600 33205.37430187 0 699.47012055 0 13722.25760579 0 -377.62763620 0 189.71345460 0 4470
0.06450000 0.06451750 32471.93439061 0 405.39443877 0 13662.28183950 0 629.99269897 0 -1200.43802998 0 4479
0.06550000 0.06550280 32011.90049091 0 488.97055926 0 12573.27131378 0 436.04688856 0 -917.17336454 0 4636
0.06650000 0.06648880 31421.58956038 0 -200.88256800 0 12345.01189554 0 2607.18830218 0 1301.34231371 0 4653
0.06750000 0.06749660 30911.13647253 0 250.56688824 0 11384.19133185 0 1821.37394886 0 1795.72497188 0 5220
0.06850000 0.06852730 30164.07569127 0 809.93757317 0 10110.66195592 0 -1203.98604692 0 1743.21871494 0 5029
0.06950000 0.06949320 29304.20334960 0 1515.98086195 0 12391.58648329 0 -397.97765537 0 1419.28366952 0 5040
0.07050000 0.07048030 27722.09536071 0 262.57082916 0 11648.26045671 0 637.46879907 0 2754.40354392 0 5475
0.07150000 0.07148790 28108.86216130 0 -354.26125341 0 10135.75071969 0 2856.87862153 0 3355.78692360 0 5509
0.07250000 0.07249820 28773.42880247 0 -806.97613240 0 8630.47981601 0 1776.30424756 0 1223.45070954 0 5916
0.07350000 0.07351270 28524.40854205 0 456.97469624 0 8130.47305668 0 358.83303251 0 1798.04271669 0 5721
0.07450000 0.07449140 27824.03219427 0 1166.52865442 0 7937.88054561 0 -1671.19287253 0 2670.98669973 0 6028
0.07550000 0.07549160 26792.14144598 0 551.93742467 0 9651.19925398 0 50.35602686 0 2787.11560106 0 6183
0.07650000 0.07648840 25621.84508316 0 544.89301827 0 10631.30872713 0 -704.02542280 0 1433.62952131 0 6330
0.07750000 0.07749960 25250.12714701 0 896.28619977 0 9699.70712650 0 -131.31287601 0 101.95363995 0 6583
0.07850000 0.07848650 24523.49767075 0 631.25153099 0 11657.48749768 0 -1063.15833414 0 1368.85349680 0 6549
0.07950000 0.07947320 23817.73888240 0 311.98163354 0 11243.80849426 0 605.61353858 0 529.25538074 0 6828
0.08050000 0.08048110 24312.70372292 0 -355.30368934 0 11412.97091202 0 886.01452595 0 199.44468744 0 7147
0.08150000 0.08149960 23815.32227643 0 49.30150789 0 10346.11626920 0 263.42323199 0 240.40176477 0 7386
0.08250000 0.08250610 24049.40351814 0 306.14772704 0 10730.91683129 0 123.04259131 0 869.72879864 0 7227
0.08350000 0.08350160 24224.71729654 0 -327.48635774 0 10151.78819566 0 635.20597712 0 -257.61019618 0 7798
0.08450000 0.08449610 23553.23037464 0 668.64411451 0 10121.86621995 0 82.83367322 0 -1766.40714766 0 7371
0.08550000 0.08548940 23585.41517231 0 710.29761374 0 9554.20547809 0 390.94533200 0 271.46613603 0 8256
0.08650000 0.08650700 22679.40762580 0 220.48343931 0 10677.04848736 0 92.60016655 0 128.35692753 0 8037
0.08750000 0.08749060 21634.99446476 0 359.46244852 0 9900.54905158 0 309.85611875 0 -853.40572379 0 8155
0.08850000 0.08849210 21316.66155135 0 813.28347398 0 9312.94032591 0 252.34199517 0 -214.53089943 0 8718
0.08950000 0.08949900 20553.01406550 0 300.50824748 0 9671.23511437 0 329.22741249 0 -257.93753644 0 8571
0.09050000 0.09049190 20094.18846878 0 -115.89163456 0 8353.25117320 0 1741.45019876 0 655.02653988 0 8932
0.09150000 0.09150830 19576.15602584 0 189.05547870 0 7309.03573447 0 878.33081743 0 448.06730634 0 9285
0.09250000 0.09250820 19468.39736882 0 608.57497935 0 6960.33047788 0 939.17985725 0 1634.21880122 0 9204
0.09350000 0.09350330 18784.82741708 0 329.93042514 0 7308.69521272 0 -269.46254999 0 1195.14346600 0 9349
0.09450000 0.09448040 18215.05763729 0 468.22839085 0 6887.38193137 0 -147.03948857 0 1088.29872541 0 9564
0.09550000 0.09549270 17937.91687106 0 247.43408814 0 6971.94117110 0 342.23644180 0 1659.82383990 0 10155
0.09650000 0.09649430 17609.69784233 0 -162.40031487 0 6450.87698613 0 58.62532294 0 960.64920436 0 9913
0.09750000 0.09749140 17766.11815589 0 66.19534114 0 7278.85012902 0 193.55695654 0 285.67687758 0 10476
0.09850000 0.09850240 17409.77862135 0 245.60515680 0 6361.92391736 0 -85.11604772 0 397.13404019 0 10575
0.09950000 0.09950330 17422.08134264 0 100.87945860 0 6633.03415324 0 591.73343267 0 2.77787758 0 10882
0.10050000 0.10051200 17366.82894256 0 -111.73836767 0 5345.53240098 0 1093.38458252 0 -267.26783239 0 10875
0.10150000 0.10150300 17408.79000982 0 215.12186943 0 5022.57498252 0 390.20607026 0 490.61824514 0 11118
0.10250000 0.10250800 16905.47689414 0 399.16069383 0 4704.72539031 0 275.74243014 0 1315.36961290 0 11575
0.10350000 0.10349800 16492.01758218 0 -137.75972166 0 4382.85544453 0 658.15714307 0 1113.63793744 0 11364
0.10450000 0.10450100 16317.14318668 0 399.18595835 0 4663.29158253 0 -453.56947874 0 655.27698814 0 12093
0.10550000 0.10551000 15736.71837148 0 503.31970642 0 4524.87498343 0 -185.91938323 0 807.57589007 0 12067
0.10650000 0.10649700 15681.46597140 0 92.42463308 0 4628.75608633 0 -605.16426957 0 123.45780816 0 12054
0.10750000 0.10749900 15199.68261798 0 115.31274759 0 5229.61220653 0 -792.39630921 0 -1046.83965312 0 12807
0.10850000 0.10850100 15155.30494475 0 143.46181328 0 5142.47159225 0 454.63058845 0 -579.93160789 0 12736
0.10950000 0.10950300 15415.96885211 0 -49.44112181 0 5194.80209602 0 93.63579206 0 -1417.39432303 0 12933
0.11050000 0.11050200 15165.41075153 0 333.31916578 0 5479.23661844 0 -463.02170345 0 -2039.19802315 0 13428
0.11150000 0.11150900 14843.89231207 0 218.73469536 0 5511.23467837 0 78.48455140 0 -1745.87698151 0 13453
0.11250000 0.11250000 14707.35407489 0 107.98274230 0 5856.76539349 0 -104.79007628 0 -1052.72518711 0 13668
0.11350000 0.11349100 14381.11226922 0 3.76377592 0 5827.40363098 0 -30.36630167 0 -1756.72973922 0 13791
0.11450000 0.11448600 14345.08287115 0 290.05093438 0 5854.60143269 0 484.71403738 0 -709.16290739 0 14205
0.11550000 0.11549300 14501.28349326 0 -227.13569647 0 5367.68828388 0 860.19748502 0 -942.11163967 0 14776
0.11650000 0.11649800 14436.03513213 0 36.60696689 0 4897.69137684 0 560.80197474 0 -742.62960468 0 14553
0.11750000 0.11747300 14654.51828077 0 198.44838671 0 4696.89339006 0 -96.23199578 0 -629.75213683 0 14568
0.11850000 0.11849100 14362.54834156 0 67.56918163 0 4768.68855645 0 -230.51125562 0 110.30158558 0 16015
0.11950000 0.11950300 14208.32494252 0 123.46110353 0 4755.25442418 0 232.64885344 0 -461.76616680 0 15270
0.12050000 0.12050700 13904.16212774 0 101.51096168 0 4878.10588393 0 161.46442929 0 -7.36839636 0 15999
0.12150000 0.12150000 13988.19410799 0 168.22543371 0 4800.59873980 0 311.65319482 0 -346.03380854 0 15670
0.12250000 0.12250700 13796.84285362 0 113.83861795 0 4639.66376691 0 103.77433286 0 -1.11096869 0 16887
0.12350000 0.12352200 13592.52980361 0 119.78786246 0 4836.88078303 0 190.66691550 0 -413.48457648 0 16407
0.12450000 0.12449800 13238.60687503 0 121.45092675 0 4389.18255834 0 -5.19594449 0 217.49014328 0 16306
0.12550000 0.12549900 13451.04850876 0 -46.44496979 0 4216.18652475 0 532.46177748 0 395.26007211 0 17523
0.12650000 0.12650100 13030.33937889 0 97.86661003 0 4038.64287812 0 257.46080599 0 29.45249508 0 17154
0.12750000 0.12750600 12962.34487461 0 380.25185059 0 3751.47319713 0 -36.23986248 0 374.90565912 0 18007
0.12850000 0.12850300 12887.10055243 0 171.28134180 0 4308.50087273 0 -82.53192702 0 323.90758399 0 17496
0.12950000 0.12949900 12282.18014038 0 163.75910650 0 4359.87571869 0 173.15750680 0 136.02415919 0 18405
0.13050000 0.13049000 12379.17391627 0 38.32012083 0 3976.62398133 0 156.07649644 0 573.25298776 0 18100
0.13150000 0.13148800 12245.82120513 0 -40.35050923 0 3970.07717607 0 172.81259122 0 -148.07093994 0 19059
0.13250000 0.13249300 12642.25442959 0 125.72722085 0 3693.71631449 0 -120.66552981 0 112.75224372 0 18957
0.13350000 0.13349100 12164.97475093 0 8.24732694 0 4243.69189450 0 -136.57888010 0 88.17656933 0 19468
0.13450000 0.13450700 12015.03533520 0 264.62714114 0 3878.91620821 0 178.25434848 0 129.54216291 0 19953
0.13550000 0.13551000 11931.44273786 0 138.89223109 0 3755.43862783 0 225.37706639 0 165.62977921 0 19956
0.13650000 0.13649900 11903.98130640 0 201.19013603 0 4115.21633358 0 363.77059789 0 448.86368785 0 19723
0.13750000 0.13749600 11798.19987244 0 15.90862693 0 3708.69927149 0 -34.40302225 0 653.52824418 0 20946
0.13850000 0.13851100 11313.67037588 0 71.71080487 0 3813.65686251 0 472.02356068 0 571.03630101 0 20955
0.13950000 0.13949800 11345.52563637 0 167.14455177 0 3735.89707321 0 -422.28431757 0 539.08217937 0 20506
0.14050000 0.14048300 11157.25006232 0 184.83410745 0 3713.22491540 0 -75.23586406 0 685.33517255 0 21447
0.14150000 0.14148400 11157.25006232 0 -16.03978273 0 3718.94787771 0 333.19504011 0 350.67369200 0 21771
0.14250000 0.14249400 11240.84265967 0 -148.15771806 0 3449.43040486 0 287.93860107 0 382.49380185 0 22470
0.14350000 0.14350900 11230.07777854 0 103.70315283 0 3334.67457510 0 -205.70040153 0 47.69457477 0 22519
0.14450000 0.14449900 10970.56725130 0 334.03975374 0 3642.66002113 0 -576.48025518 0 -215.57882765 0 22218
0.14550000 0.14550500 10780.83072910 0 366.13667482 0 3996.97839432 0 -342.35946901 0 -263.31009089 0 23559
0.14650000 0.14650700 10585.23942972 0 -48.02411194 0 4070.80570664 0 243.35991017 0 -262.18746757 0 23044
0.14750000 0.14750500 10550.96756327 0 -177.32065981 0 3644.79102822 0 612.65794498 0 -529.60469015 0 23649
0.14850000 0.14849900 10594.27973296 0 108.23560716 0 3924.32643127 0 25.38501770 0 -292.67734569 0 23640
0.14950000 0.14949500 10517.78316950 0 469.76623101 0 3425.05563830 0 -233.36944141 0 -118.66304222 0 24457
0.15050000 0.15050000 10068.60202750 0 77.97464754 0 3849.99382861 0 60.91450787 0 482.48307069 0 24591
0.15150000 0.15149900 9860.42240794 0 -21.37466009 0 3907.68480380 0 275.43925593 0 81.63723358 0 25020
0.15250000 0.15250500 9904.20691425 0 210.48967518 0 4033.88655819 0 384.70279940 0 435.48008462 0 25297
0.15350000 0.15350100 9513.02431548 0 181.41461001 0 3524.56488131 0 -130.06173319 0 493.71369770 0 25452
0.15450000 0.15450400 9506.51046394 0 114.87556160 0 4102.36438366 0 122.43843982 0 589.52553358 0 26061
0.15550000 0.15549900 9429.12415011 0 24.29908285 0 3729.54799025 0 19.21750973 0 359.31195988 0 26128
0.15650000 0.15649500 9393.33641264 0 31.05986759 0 3545.20489319 0 -2.18989537 0 119.54180803 0 26331
0.15750000 0.15749700 9351.21057679 0 3.40696405 0 3351.21734141 0 223.23507474 0 315.56370266 0 27345
0.15850000 0.15849900 9189.33093066 0 -62.81604723 0 3247.50100709 0 244.14970094 0 404.06091166 0 26980
0.15950000 0.15949700 9371.20249889 0 -21.87654522 0 2867.58857980 0 194.28743062 0 -453.62989389 0 27777
0.16050000 0.16050000 9282.63389016 0 237.81379947 0 2763.31203228 0 -30.29863671 0 -389.16033895 0 28224
0.16150000 0.16150500 9020.32229692 0 140.64756579 0 2801.72508260 0 -19.64788528 0 142.71376389 0 28075
0.16250000 0.16249700 8893.68115963 0 70.94792631 0 2672.55749361 0 339.58147061 0 -21.84897394 0 28590
0.16350000 0.16349900 8893.40654532 0 -23.72261248 0 2380.34589380 0 453.41679318 0 -40.22374726 0 29163
0.16450000 0.16449100 8943.97951748 0 85.28696766 0 2199.48490625 0 311.08639088 0 81.62262410 0 28996
0.16550000 0.16550500 8677.41689465 0 84.55319822 0 2089.60622672 0 -210.75769875 0 -16.38480815 0 30777
0.16650000 0.16650700 8552.72002670 0 144.94912441 0 1933.80104923 0 -60.38604008 0 338.63789582 0 29211
0.16750000 0.16749900 8315.27750579 0 118.82890927 0 2160.29195128 0 36.37156750 0 317.76171563 0 30922
0.16850000 0.16850800 8272.44865729 0 49.18232528 0 2298.98316469 0 151.05434985 0 346.69837518 0 30867
0.16950000 0.16949900 8205.01436621 0 102.87140099 0 2293.84238473 0 60.17030307 0 280.95351137 0 30852
0.17050000 0.17049200 8240.73619625 0 108.47847606 0 2252.57334554 0 -188.30523239 0 110.96285684 0 31257
0.17150000 0.17149500 7941.91188375 0 218.93571303 0 2547.64093422 0 -363.86616367 0 427.60634299 0 32608
0.17250000 0.17250900 7782.24013670 0 19.78266599 0 2593.56743218 0 4.01077502 0 201.46035651 0 32361
0.17350000 0.17350400 7903.14732711 0 -7.08127062 0 2588.33877563 0 510.94409825 0 390.85416005 0 32508
0.17450000 0.17449800 7951.08400185 0 15.47945968 0 2457.25987102 0 240.97845483 0 453.05869612 0 32791
0.17550000 0.17549800 7815.49043791 0 107.55192737 0 2501.05536190 0 -130.46376855 0 591.53241499 0 33633
0.17650000 0.17650100 7816.31428085 0 -0.09696511 0 2427.59054048 0 -49.97387358 0 378.82605307 0 33984
0.17750000 0.17750300 7731.07399762 0 104.12232412 0 2320.75458755 0 -37.96586837 0 499.97160870 0 34069
0.17850000 0.17849800 7745.52969514 0 84.09602031 0 2541.93994105 0 -7.59953374 0 236.88560309 0 34536
