### header ###
fiducial parameters:
Omega_m = 0.31
Omega_nu = 0
Omega_de = 0.69
Omega_k = 0
H_0 = 100
w_de = -1
zeff = 0
beta = 0
fgrowth = 0
b_1 = 2
gamma = 0.55
Lx = 3500 Ly = 3500 Lz = 3500
nx = 700 ny = 700 nz = 700
xoffset = -983.599254 yoffset = -42.9823471 zoffset = 800.977702
bins = 400 dk = 0.001
kx_ny = 0.628318531 ky_ny = 0.628318531 kz_ny = 0.628318531
############################
A(data) = 9.07726014 (not used)
A(ran) = 9.08820798 (used)
Ngal = 504642
weighted Ngal = 0
Nran = 25229228
weighted Nran = 0
SN(data) = 6681.44617
SN(ran) = 134.908186
SN(data+ran) = 6816.35435
############################
13 columns: k_central k_mean P_0(k) sigma^{lin}_{P_0(k)} P^img_1(k) sigma^{lin}_{P_1(k)} P_2(k) sigma^{lin}_{P_2(k)} P^img_3(k) sigma^{lin}_{P_3(k)} P_4(k) sigma^{lin}_{P_4(k)} N_modes
### header ###
0.00050000 0 0 0 0 0 0 0 0 0 0 0 0
0.00150000 0.00179520 63079.56712272 0 -30666.07065824 0 -25476.29949646 0 -2718.18740812 0 -69325.72462965 0 3
0.00250000 0.00253879 68304.59876249 0 -949.57126291 0 14175.48107050 0 -54067.38439408 0 30825.56665212 0 6
0.00350000 0.00331552 47259.14630816 0 14546.21039512 0 14035.53761581 0 -15131.02903935 0 43922.14300368 0 7
0.00450000 0.00420575 25035.92798167 0 9811.69484397 0 22536.16879934 0 12165.63382529 0 11733.94012284 0 24
0.00550000 0.00557378 27337.85501182 0 -3517.55672401 0 17461.40611248 0 25921.50422318 0 8300.31651793 0 45
0.00650000 0.00659388 32005.09005590 0 -6829.35043442 0 18046.00506526 0 30145.07238071 0 29043.31975080 0 40
0.00750000 0.00754703 40822.62615840 0 -11017.30660764 0 -7707.90753405 0 2919.91908357 0 8576.91904010 0 57
0.00850000 0.00846663 61361.47012527 0 -2118.29793030 0 -10291.39112860 0 6748.16345847 0 -9231.36888993 0 75
0.00950000 0.00948925 76774.47314278 0 -8453.14487625 0 -17110.11948133 0 -21549.42464435 0 -7392.80408498 0 112
0.01050000 0.01054430 68206.83606651 0 -13001.12041583 0 -15688.27640640 0 5212.36642758 0 11722.62601308 0 105
0.01150000 0.01145670 77076.65873449 0 852.13810411 0 -10845.43100046 0 -2684.83824576 0 3599.53458918 0 144
0.01250000 0.01249090 83672.78472387 0 -778.88418648 0 -21002.83231271 0 447.74545836 0 7516.76498656 0 169
0.01350000 0.01339930 95968.03650561 0 -5894.36558544 0 -1676.35562164 0 -6463.84976635 0 -16840.00884155 0 180
0.01450000 0.01448870 83978.48537880 0 2395.02128277 0 -4727.33164068 0 -5981.03386311 0 -6568.48880476 0 267
0.01550000 0.01550050 81365.36540743 0 3856.29897327 0 20142.08120523 0 -18042.27031058 0 24141.45423637 0 238
0.01650000 0.01653350 83729.57496411 0 706.73311994 0 11881.68262406 0 -12107.08605343 0 -19948.64288207 0 315
0.01750000 0.01747870 79441.96674844 0 3236.01114417 0 18571.50701755 0 10571.62954429 0 2059.72818930 0 297
0.01850000 0.01844180 90827.25653755 0 -3028.49059897 0 21817.00883243 0 1992.07420677 0 -20088.14695386 0 388
0.01950000 0.01947590 86316.77134420 0 6656.22258596 0 29715.79528423 0 -16286.82576636 0 -8241.09868714 0 399
0.02050000 0.02045430 84314.83299125 0 2047.82091262 0 32847.27723572 0 3352.90896558 0 -4891.12260244 0 462
0.02150000 0.02154770 77914.01270237 0 -1479.80866444 0 33536.55916520 0 10177.22846576 0 -1004.11955189 0 571
0.02250000 0.02255340 77602.05084106 0 5206.52263497 0 24736.15899593 0 1915.28105986 0 -9697.56513485 0 510
0.02350000 0.02348930 77081.93132933 0 3966.75983515 0 28652.37881263 0 7303.65329391 0 1876.78013296 0 555
0.02450000 0.02439640 73140.88637860 0 2856.10970145 0 25271.65690927 0 6519.45367275 0 20773.58428293 0 592
0.02550000 0.02547300 65748.59856853 0 -1199.03200469 0 17084.08604431 0 7219.51146793 0 6629.55204374 0 837
0.02650000 0.02652900 70552.04231263 0 -406.83451624 0 16382.83093072 0 4115.26027187 0 4855.81818616 0 723
0.02750000 0.02749970 64216.47038489 0 3460.16233227 0 10393.02039412 0 1312.67839262 0 7624.83121161 0 826
0.02850000 0.02848090 65532.09264295 0 1713.03310949 0 11937.37440705 0 -2460.20373647 0 11402.97495097 0 831
0.02950000 0.02946900 55699.14265104 0 1045.03928167 0 11101.11889643 0 1624.11299444 0 9154.13636011 0 996
0.03050000 0.03053250 62305.15475573 0 150.79401548 0 12745.50941186 0 6861.19471033 0 1770.41651665 0 1041
0.03150000 0.03150510 59212.44834546 0 634.84019085 0 4698.45319936 0 -1942.19326268 0 6532.81091301 0 1036
0.03250000 0.03246190 57427.12576381 0 2372.71161586 0 10099.57852218 0 1539.09240266 0 -6029.42090533 0 1059
0.03350000 0.03345080 54666.15344549 0 1215.00357322 0 11015.32938457 0 -5107.44179028 0 8103.40706984 0 1302
0.03450000 0.03451200 54089.02400207 0 2029.00433979 0 13014.30190292 0 -3438.41287856 0 -9684.28478660 0 1339
0.03550000 0.03553350 51401.09909141 0 2579.22158039 0 16475.76041476 0 -1052.29898569 0 -7392.28781007 0 1365
0.03650000 0.03647120 49820.19940550 0 2933.48503071 0 18093.34857309 0 -3858.49588779 0 -8071.95823854 0 1308
0.03750000 0.03744890 45880.14306630 0 154.76493847 0 17378.91197239 0 -1734.03561226 0 -10973.74179278 0 1579
0.03850000 0.03847530 44947.88239132 0 -795.77626220 0 18535.80715666 0 7244.19380252 0 -10062.90103433 0 1662
0.03950000 0.03950240 46741.00401950 0 -522.76679372 0 16313.29858628 0 826.53526234 0 -2867.51168779 0 1683
0.04050000 0.04050350 44236.63131668 0 42.79391755 0 8229.31224076 0 3901.59935059 0 -5404.43167917 0 1822
0.04150000 0.04152450 47101.84722880 0 -175.99592036 0 12084.12829674 0 4062.60023092 0 -6483.03981465 0 1887
0.04250000 0.04250150 44499.27244710 0 2500.08871951 0 9980.85726172 0 -4802.76270060 0 -4249.75537856 0 1920
0.04350000 0.04349210 43233.62999428 0 3047.58178611 0 14776.44703642 0 -4904.67756501 0 -4733.88943051 0 2005
0.04450000 0.04448520 41055.05971422 0 1002.82117541 0 14296.97044325 0 954.87571301 0 -122.39230462 0 2151
0.04550000 0.04548030 40038.43752182 0 -1369.43567914 0 17529.73015394 0 3344.24213782 0 -6212.05040906 0 2274
0.04650000 0.04648670 39589.38819469 0 1846.66043494 0 14706.14577190 0 -2131.25972595 0 -4492.09701885 0 2311
0.04750000 0.04749250 39381.23054428 0 1609.76714265 0 18103.45437986 0 -674.64828189 0 -1376.34497530 0 2568
0.04850000 0.04851840 37242.20472551 0 594.36423780 0 18006.24091252 0 1487.61869555 0 -1876.65930266 0 2493
0.04950000 0.04949480 37563.94285642 0 -826.67147104 0 18277.01062665 0 2521.08023772 0 -1023.70504480 0 2644
0.05050000 0.05050630 37806.48221902 0 -342.79885192 0 14210.63170276 0 2587.09751893 0 -1759.10240689 0 2829
0.05150000 0.05149060 38535.41845551 0 -231.79315524 0 16057.79742804 0 115.30945222 0 1045.48525532 0 2784
0.05250000 0.05249300 38993.69482361 0 971.19109866 0 14615.96243101 0 -779.29281258 0 -2025.93964404 0 3055
0.05350000 0.05348950 37384.45494044 0 410.70657807 0 15146.84682387 0 -746.39401770 0 -332.23498847 0 3009
0.05450000 0.05448610 35787.51777856 0 -257.50803965 0 13490.04374142 0 1874.01202067 0 564.13359560 0 3336
0.05550000 0.05550870 37655.99357465 0 -42.89585439 0 15263.28329323 0 2359.10173043 0 -2386.55217731 0 3349
0.05650000 0.05647670 36370.35919973 0 1251.49432334 0 13679.19808127 0 218.10967318 0 -2187.18218496 0 3324
0.05750000 0.05747970 36689.68072467 0 1864.96073286 0 14460.97011189 0 -1336.44900768 0 -739.00579418 0 3639
0.05850000 0.05849280 33837.64629965 0 296.56808129 0 13978.74737557 0 332.53486730 0 1592.90582374 0 3846
0.05950000 0.05951020 32459.96120650 0 552.18567601 0 14520.39664955 0 1009.06590492 0 -661.73371990 0 3787
0.06050000 0.06049470 31305.81216538 0 230.45084047 0 14528.41538754 0 739.39904188 0 1835.00580343 0 3930
0.06150000 0.06148310 31513.75012434 0 643.80030671 0 11853.67196398 0 3222.30239759 0 105.19584639 0 4083
0.06250000 0.06249100 32327.48726117 0 -133.79648787 0 13149.30229995 0 -1199.06495841 0 -902.58475369 0 4303
0.06350000 0.06350600 30932.11700616 0 1385.28641738 0 11947.80975100 0 -2218.93858429 0 -3531.89159122 0 4470
0.06450000 0.06451750 29487.75555744 0 25.60163347 0 12626.54649080 0 -297.08106083 0 -528.94451734 0 4479
0.06550000 0.06550280 29650.54692309 0 -516.34081876 0 13358.11902472 0 2874.30015364 0 -2279.15601119 0 4636
0.06650000 0.06648880 30620.70437348 0 42.06102687 0 11007.53033804 0 1018.71475348 0 -3189.73313989 0 4653
0.06750000 0.06749660 30219.76747426 0 439.33347268 0 12841.40473049 0 203.00588588 0 -2112.84958230 0 5220
0.06850000 0.06852730 29665.92532471 0 286.42382852 0 10316.31512378 0 252.74403052 0 1491.96858629 0 5029
0.06950000 0.06949320 30179.01470998 0 -609.14068484 0 10867.22439246 0 3610.48620804 0 900.96672615 0 5040
0.07050000 0.07048030 30005.23877175 0 132.60246483 0 10675.37883232 0 845.13653755 0 1682.35319827 0 5475
0.07150000 0.07148790 29949.10760585 0 996.60061196 0 10696.22755108 0 -1199.01003554 0 1236.02804514 0 5509
0.07250000 0.07249820 29035.74039572 0 1108.78275636 0 11404.29309968 0 -1901.06702294 0 1561.46797701 0 5916
0.07350000 0.07351270 27272.27711351 0 1255.40483118 0 13606.26051933 0 -973.58463703 0 3274.65487051 0 5721
0.07450000 0.07449140 26267.18872231 0 -146.58582573 0 12868.42677904 0 1370.31444495 0 1806.13834669 0 6028
0.07550000 0.07549160 26497.09582644 0 -287.92651804 0 13002.87794744 0 2683.88258794 0 2245.25762020 0 6183
0.07650000 0.07648840 26901.54778889 0 110.63881195 0 11197.89298087 0 1103.59803810 0 2308.89124916 0 6330
0.07750000 0.07749960 26896.60473123 0 73.13879931 0 10317.83099480 0 -65.66896042 0 1130.99356212 0 6583
0.07850000 0.07848650 26505.00471870 0 498.11960976 0 10297.23492121 0 -443.76464926 0 1144.94396930 0 6549
0.07950000 0.07947320 25751.90242252 0 368.06556577 0 9416.32712305 0 649.99450718 0 1498.69114471 0 6828
0.08050000 0.08048110 24657.50945624 0 567.06977185 0 10278.35244094 0 -290.02457141 0 489.86799884 0 7147
0.08150000 0.08149960 24315.01048316 0 520.51495634 0 9886.87325872 0 1184.36760029 0 1725.07220104 0 7386
0.08250000 0.08250610 24161.22646702 0 -580.42481520 0 9083.79115730 0 1870.45301915 0 941.67115831 0 7227
0.08350000 0.08350160 23667.90931239 0 519.45824046 0 8107.33954682 0 527.60659640 0 289.36110322 0 7798
0.08450000 0.08449610 23284.65757503 0 1168.49489291 0 8335.37927361 0 -901.11831325 0 2795.74947511 0 7371
0.08550000 0.08548940 22240.68379690 0 444.57970454 0 8035.46748842 0 -459.62966744 0 2544.42245445 0 8256
0.08650000 0.08650700 22067.78662447 0 -391.60660327 0 8799.34565030 0 1202.63494450 0 2366.93373068 0 8037
0.08750000 0.08749060 21812.61500340 0 295.28398476 0 7600.95075082 0 865.54038112 0 1119.92111296 0 8155
0.08850000 0.08849210 21547.22772984 0 528.39199334 0 8259.25618562 0 -431.65635490 0 818.50993361 0 8718
0.08950000 0.08949900 20829.49575737 0 989.41120920 0 8258.28954323 0 480.96610122 0 2514.15995699 0 8571
0.09050000 0.09049190 20219.41259620 0 63.44030049 0 8703.81282256 0 -204.28668704 0 1700.42282016 0 8932
0.09150000 0.09150830 19738.72770004 0 161.91699368 0 8036.54397653 0 383.42639207 0 1245.37591641 0 9285
0.09250000 0.09250820 19455.87495608 0 208.09833372 0 7337.88122207 0 1512.97108906 0 1536.97238015 0 9204
0.09350000 0.09350330 19316.15119284 0 -364.91628881 0 6603.82617475 0 803.69943440 0 1765.14392181 0 9349
0.09450000 0.09448040 19391.39551502 0 50.95929958 0 5457.67390247 0 1196.25290783 0 1798.93246707 0 9564
0.09550000 0.09549270 18766.59302660 0 519.68342420 0 5536.74085591 0 -258.27915665 0 1290.84106232 0 10155
0.09650000 0.09649430 18151.34711631 0 583.43458809 0 4531.37785040 0 -520.76760151 0 1375.27947176 0 9913
0.09750000 0.09749140 17819.28348718 0 378.26034758 0 5297.92526342 0 363.46083294 0 305.82148524 0 10476
0.09850000 0.09850240 17526.98401079 0 149.40886088 0 4962.74201567 0 -143.69798159 0 59.81297493 0 10575
0.09950000 0.09950330 17162.73558399 0 92.76087085 0 4952.86688492 0 -536.78530525 0 -819.46449297 0 10882
0.10050000 0.10051200 16712.14841671 0 48.36485338 0 4681.08659011 0 666.20004711 0 392.01742628 0 10875
0.10150000 0.10150300 16499.04770863 0 193.35154503 0 4549.27171914 0 273.23904605 0 173.60567736 0 11118
0.10250000 0.10250800 16667.22151485 0 502.25530134 0 5077.99215119 0 33.77075025 0 -438.52171276 0 11575
0.10350000 0.10349800 16546.28137073 0 258.43733449 0 4820.44786245 0 -121.27297667 0 -357.80817189 0 11364
0.10450000 0.10450100 15791.31169721 0 166.95781404 0 5310.87607449 0 -379.53675492 0 -1.91713745 0 12093
0.10550000 0.10551000 15593.04016212 0 -157.44517418 0 5459.38749579 0 31.28395287 0 1049.15410256 0 12067
0.10650000 0.10649700 15819.21251157 0 208.90020752 0 5448.35898492 0 635.09063911 0 -785.80776258 0 12054
0.10750000 0.10749900 15745.06664665 0 315.10784290 0 4910.67514163 0 -122.64824516 0 -229.10632879 0 12807
0.10850000 0.10850100 15159.03969943 0 126.48186099 0 5489.54014753 0 -131.57650575 0 256.19977706 0 12736
0.10950000 0.10950300 15244.17013694 0 40.87557180 0 5474.12879219 0 464.94180674 0 406.68292914 0 12933
0.11050000 0.11050200 14867.83868030 0 144.38012355 0 5452.68690652 0 49.29546637 0 242.86340749 0 13428
0.11150000 0.11150900 14797.86695296 0 227.43008301 0 5251.27378366 0 330.45768462 0 429.83291585 0 13453
0.11250000 0.11250000 14491.17768649 0 246.97163763 0 5081.70493673 0 144.19228736 0 732.19096535 0 13668
0.11350000 0.11349100 14240.61958590 0 200.95946000 0 5436.02330991 0 153.19963688 0 823.50571722 0 13791
0.11450000 0.11448600 13965.34619702 0 8.72102565 0 5389.28395358 0 266.80867726 0 809.36527694 0 14205
0.11550000 0.11549300 14140.11074679 0 219.00381738 0 5431.27797455 0 -72.36438694 0 952.05926860 0 14776
0.11650000 0.11649800 13895.37446967 0 69.76093340 0 5412.64813946 0 -76.53720638 0 1199.94372421 0 14553
0.11750000 0.11747300 13818.15292443 0 98.15407630 0 5403.59685165 0 58.53656759 0 1305.07706839 0 14568
0.11850000 0.11849100 13871.64779290 0 74.74485367 0 5729.35533612 0 497.02115250 0 950.64665257 0 16015
0.11950000 0.11950300 13635.25979095 0 105.88501848 0 5284.73279175 0 -575.57402795 0 443.55704083 0 15270
0.12050000 0.12050700 13601.20761594 0 164.98608326 0 5567.96999576 0 469.67176369 0 793.52442482 0 15999
0.12150000 0.12150000 13196.42611632 0 125.40207750 0 5561.48909793 0 -102.82900054 0 1112.79212535 0 15670
0.12250000 0.12250700 13326.92283859 0 188.30193702 0 4899.00952555 0 265.91013922 0 682.84387149 0 16887
0.12350000 0.12352200 13252.88681939 0 -21.84084535 0 5181.19221060 0 624.33893946 0 919.33073459 0 16407
0.12450000 0.12449800 13272.54920431 0 -170.76946072 0 4507.23375987 0 497.70219600 0 860.89280846 0 16306
0.12550000 0.12549900 13276.17411326 0 -238.91335519 0 3816.75451198 0 779.24887429 0 1136.77144730 0 17523
0.12650000 0.12650100 13149.63183713 0 222.20801721 0 3285.91405741 0 199.44139207 0 1372.69809720 0 17154
0.12750000 0.12750600 12987.60939155 0 151.95178943 0 3641.48467187 0 -486.47047054 0 991.87944266 0 18007
0.12850000 0.12850300 12600.95243669 0 563.08017509 0 3945.97702382 0 -351.43931671 0 610.16774238 0 17496
0.12950000 0.12949900 12503.29958644 0 237.34365977 0 4007.25995425 0 -90.82385132 0 703.07415881 0 18405
0.13050000 0.13049000 12184.41744440 0 -90.78990899 0 4114.57922837 0 95.68188839 0 674.16605915 0 18100
0.13150000 0.13148800 12426.29773264 0 42.05926934 0 4007.13912396 0 379.57739783 0 463.08541397 0 19059
0.13250000 0.13249300 12104.44975601 0 244.59787150 0 3968.85788851 0 -203.88684860 0 392.50294439 0 18957
0.13350000 0.13349100 11691.64951840 0 195.29251901 0 4371.88185652 0 -161.53143518 0 303.17420325 0 19468
0.13450000 0.13450700 11689.56244961 0 -2.36326488 0 4085.29435787 0 269.36918113 0 329.38559034 0 19953
0.13550000 0.13551000 11799.95740406 0 -93.52968108 0 3903.14817533 0 552.57452988 0 622.43750995 0 19956
0.13650000 0.13649900 11674.84312235 0 79.45339070 0 3613.22136662 0 254.92886201 0 517.99180002 0 19723
0.13750000 0.13749600 11453.39413911 0 133.75035266 0 3253.22396941 0 261.31089868 0 961.00400605 0 20946
0.13850000 0.13851100 11509.08592210 0 168.03649906 0 3156.69154556 0 239.65591229 0 329.32737210 0 20955
0.13950000 0.13949800 11169.55278361 0 242.64810986 0 3305.12607486 0 -208.21367174 0 427.52286024 0 20506
0.14050000 0.14048300 10946.66482137 0 247.06500650 0 3405.40423795 0 -341.11711386 0 262.83226198 0 21447
0.14150000 0.14148400 10583.81143529 0 10.16436553 0 3290.99991452 0 -136.47562512 0 935.41764114 0 21771
0.14250000 0.14249400 10581.99898081 0 27.15606034 0 3385.04982496 0 473.30326338 0 342.37594587 0 22470
0.14350000 0.14350900 10869.46524526 0 -33.50074946 0 3185.16355769 0 384.96642914 0 107.26566941 0 22519
0.14450000 0.14449900 10752.51250099 0 177.12513442 0 3090.57540320 0 195.45069685 0 518.88814114 0 22218
0.14550000 0.14550500 10634.13176228 0 192.06085776 0 3270.53565580 0 -239.67238915 0 815.53311444 0 23559
0.14650000 0.14650700 10137.93664964 0 81.13787491 0 3090.82804837 0 94.82695911 0 1562.84104858 0 23044
0.14750000 0.14750500 10291.21537544 0 -2.20135228 0 3395.66092207 0 203.79677510 0 921.90771532 0 23649
0.14850000 0.14849900 10116.24211879 0 117.83370699 0 3133.07471451 0 36.12243740 0 915.12803712 0 23640
0.14950000 0.14949500 10124.39267164 0 236.74390210 0 3462.95241370 0 -203.44087495 0 601.13622680 0 24457
0.15050000 0.15050000 9690.61190041 0 216.84864424 0 3634.82802088 0 -338.75213538 0 822.79391692 0 24591
0.15150000 0.15149900 9709.70308755 0 133.91731817 0 3476.37556140 0 214.45510588 0 589.28387299 0 25020
0.15250000 0.15250500 9562.82836757 0 -22.65436280 0 3416.99296202 0 102.86744654 0 488.88927342 0 25297
0.15350000 0.15350100 9511.36564502 0 -5.44810634 0 3138.29238649 0 62.41071650 0 234.46240638 0 25452
0.15450000 0.15450400 9386.69074623 0 57.70964897 0 2937.56030714 0 754.60278879 0 693.53186061 0 26061
0.15550000 0.15549900 9359.43802165 0 -53.20081146 0 2652.41178750 0 355.84413032 0 1159.46557425 0 26128
0.15650000 0.15649500 9198.76667850 0 145.29403999 0 2291.55759363 0 196.03178074 0 911.68876745 0 26331
0.15750000 0.15749700 9191.15436971 0 280.29883084 0 2321.44661562 0 72.99654909 0 1067.69386416 0 27345
0.15850000 0.15849900 9083.63737328 0 90.48684463 0 2202.65944773 0 -84.19345346 0 1036.00337227 0 26980
0.15950000 0.15949700 8605.86338885 0 -33.13089890 0 2482.74407941 0 -104.90903920 0 1393.29417079 0 27777
0.16050000 0.16050000 8767.44645152 0 72.75291128 0 2174.47303448 0 244.12773179 0 798.13464993 0 28224
0.16150000 0.16150500 8692.54265109 0 189.79913426 0 2203.47230610 0 -195.40236473 0 596.46338962 0 28075
0.16250000 0.16249700 8484.83536815 0 114.33402217 0 2033.59589113 0 225.89004593 0 649.17505807 0 28590
0.16350000 0.16349900 8653.89892475 0 -30.92849210 0 2290.52504381 0 121.93974023 0 692.91233072 0 29163
0.16450000 0.16449100 8296.86736214 0 -31.53330266 0 1921.02599132 0 91.18908836 0 524.10141929 0 28996
0.16550000 0.16550500 8481.32030493 0 175.42252567 0 2202.19809568 0 -247.88775099 0 622.35292874 0 30777
0.16650000 0.16650700 8083.57991633 0 143.21685732 0 2150.86718801 0 -520.44795045 0 381.56560547 0 29211
0.16750000 0.16749900 8056.78854380 0 250.50976846 0 2845.68534207 0 -40.89116989 0 628.39773903 0 30922
0.16850000 0.16850800 7874.18100921 0 -11.71098237 0 2437.49862495 0 192.65292622 0 551.24319968 0 30867
0.16950000 0.16949900 8150.09150331 0 -188.44034263 0 2563.01933583 0 489.85152198 0 405.69431760 0 30852
0.17050000 0.17049200 8174.24657841 0 -5.11147313 0 2341.08703140 0 69.53783673 0 573.62426631 0 31257
0.17150000 0.17149500 8373.71543192 0 -16.69830786 0 2137.79554664 0 293.60114824 0 632.75422052 0 32608
0.17250000 0.17250900 8333.44598884 0 -19.44093594 0 2049.36973736 0 -107.28654009 0 571.80851647 0 32361
0.17350000 0.17350400 8229.03762645 0 151.80349770 0 1934.22944756 0 -109.07625650 0 528.31510133 0 32508
0.17450000 0.17449800 8199.26943475 0 56.84076928 0 2162.47788123 0 -115.38085194 0 310.05493951 0 32791
0.17550000 0.17549800 8045.26572716 0 170.37840994 0 2246.45493861 0 137.74983554 0 621.73998959 0 33633
0.17650000 0.17650100 7919.04200363 0 30.05664657 0 1971.42321032 0 108.75836297 0 636.18250562 0 33984
0.17750000 0.17750300 7807.23003933 0 119.10132667 0 2031.47586862 0 -4.73097852 0 486.42103996 0 34069
0.17850000 0.17849800 7643.25233983 0 177.37448421 0 2140.93713439 0 -2.12062666 0 432.85147640 0 34536
