### header ###
fiducial parameters:
Omega_m = 0.31
Omega_nu = 0
Omega_de = 0.69
Omega_k = 0
H_0 = 100
w_de = -1
zeff = 0
beta = 0
fgrowth = 0
b_1 = 2
gamma = 0.55
Lx = 3500 Ly = 3500 Lz = 3500
nx = 700 ny = 700 nz = 700
xoffset = -983.599254 yoffset = -42.9823471 zoffset = 800.977702
bins = 400 dk = 0.001
kx_ny = 0.628318531 ky_ny = 0.628318531 kz_ny = 0.628318531
############################
A(data) = 9.05873233 (not used)
A(ran) = 9.07557118 (used)
Ngal = 504152
weighted Ngal = 0
Nran = 25229228
weighted Nran = 0
SN(data) = 6693.60062
SN(ran) = 134.720602
SN(data+ran) = 6828.32123
############################
13 columns: k_central k_mean P_0(k) sigma^{lin}_{P_0(k)} P^img_1(k) sigma^{lin}_{P_1(k)} P_2(k) sigma^{lin}_{P_2(k)} P^img_3(k) sigma^{lin}_{P_3(k)} P_4(k) sigma^{lin}_{P_4(k)} N_modes
### header ###
0.00050000 0 0 0 0 0 0 0 0 0 0 0 0
0.00150000 0.00179520 29412.95061816 0 -28058.66266461 0 -17598.16404112 0 -17097.37737713 0 -1304.29716374 0 3
0.00250000 0.00253879 30398.15693298 0 -11851.14551229 0 662.47737547 0 -3820.61009695 0 -8988.22537584 0 6
0.00350000 0.00331552 37327.55485447 0 -754.42374026 0 6213.28068119 0 -16404.58038443 0 23718.21865481 0 7
0.00450000 0.00420575 35606.82155960 0 2289.97581518 0 5225.07557806 0 -11001.26913167 0 12803.50795509 0 24
0.00550000 0.00557378 31536.59803531 0 3834.62641157 0 25653.92003510 0 777.73959402 0 -15944.32679327 0 45
0.00650000 0.00659388 37606.01376941 0 3742.32304817 0 5214.88189470 0 16268.70122160 0 34531.21221244 0 40
0.00750000 0.00754703 51695.48563659 0 -26442.28280926 0 -17763.48185847 0 39059.82195055 0 15077.31447943 0 57
0.00850000 0.00846663 66981.94637797 0 -26578.38166354 0 -29782.25194834 0 13893.28740088 0 12883.91502638 0 75
0.00950000 0.00948925 70813.91452297 0 8814.55928333 0 -11700.65686792 0 -18360.93276117 0 -6816.66325309 0 112
0.01050000 0.01054430 83536.13664095 0 9919.13494839 0 -27402.77383577 0 -28907.66027942 0 10183.86314760 0 105
0.01150000 0.01145670 68112.80812522 0 -5327.14422648 0 -12815.92052210 0 5326.77075102 0 -1528.37145982 0 144
0.01250000 0.01249090 70141.10945236 0 5597.56243429 0 11087.60787216 0 -12553.82862031 0 -13824.41413080 0 169
0.01350000 0.01339930 73066.85035940 0 8057.56844846 0 3712.22531929 0 -722.18072436 0 8487.49363472 0 180
0.01450000 0.01448870 61630.81184496 0 -8468.81986133 0 524.68250318 0 6326.07027246 0 174.89087235 0 267
0.01550000 0.01550050 63612.64843009 0 -5028.08923796 0 1359.00033519 0 -2023.33630034 0 -1598.07955742 0 238
0.01650000 0.01653350 81074.82346265 0 4403.78105530 0 -4482.80407045 0 -1987.23001026 0 -29383.62180937 0 315
0.01750000 0.01747870 71489.35589099 0 785.30137378 0 -240.05355382 0 -12691.24562331 0 5351.79360736 0 297
0.01850000 0.01844180 67821.60710608 0 -2120.50582939 0 -6658.35359304 0 665.12575592 0 -6138.60755679 0 388
0.01950000 0.01947590 68566.58081855 0 -928.98287852 0 3365.46433204 0 4456.77063343 0 -19049.88515347 0 399
0.02050000 0.02045430 75561.66648408 0 5291.34550444 0 669.36689939 0 -8050.51635286 0 -26617.04735903 0 462
0.02150000 0.02154770 68410.81957935 0 -1222.12157626 0 2977.53316676 0 -2631.27746985 0 -4006.28232729 0 571
0.02250000 0.02255340 65295.15541238 0 -1550.94475648 0 135.06740292 0 4892.37484371 0 -14261.27058236 0 510
0.02350000 0.02348930 68355.89671644 0 3742.14729500 0 8722.34379651 0 -13555.84133118 0 -16929.64295382 0 555
0.02450000 0.02439640 61021.16806670 0 7182.89988752 0 8861.85885286 0 -4262.67323592 0 -5075.44373035 0 592
0.02550000 0.02547300 58930.25467584 0 1388.24126740 0 19066.14232089 0 -3391.70647594 0 -17770.73167637 0 837
0.02650000 0.02652900 56336.57739793 0 1489.66182605 0 19625.58660246 0 -5217.30948524 0 -11321.90880532 0 723
0.02750000 0.02749970 58033.25447885 0 5.49423056 0 22352.39690005 0 1949.92640178 0 -12962.34487461 0 826
0.02850000 0.02848090 56056.03141421 0 -3077.63557670 0 21072.25481142 0 8784.07709441 0 -6894.25827380 0 831
0.02950000 0.02946900 63124.93340748 0 -1452.58889358 0 17997.89263735 0 6165.39892931 0 -10571.17917682 0 996
0.03050000 0.03053250 63512.57897387 0 3089.91632884 0 20958.23494803 0 -7948.99693306 0 -9362.72240885 0 1041
0.03150000 0.03150510 61166.05457905 0 1866.64137247 0 19540.67585640 0 1735.28785354 0 6819.90370200 0 1036
0.03250000 0.03246190 59002.09378052 0 -1579.48267604 0 29451.39662219 0 -1980.51843642 0 -9203.18247668 0 1059
0.03350000 0.03345080 55586.99016498 0 2577.88146253 0 30131.45151071 0 -3390.90460214 0 4672.43074692 0 1302
0.03450000 0.03451200 54082.54310424 0 3144.31193226 0 32435.57545537 0 3575.26966835 0 -927.89101201 0 1339
0.03550000 0.03553350 54977.23654099 0 1528.75591986 0 31607.99775709 0 368.28415876 0 -128.09549470 0 1365
0.03650000 0.03647120 55995.06703638 0 -42.11067714 0 35123.61021175 0 4982.58015375 0 -6062.71514482 0 1308
0.03750000 0.03744890 53464.66089654 0 2516.09324176 0 34088.42409168 0 901.44675197 0 2926.81739515 0 1579
0.03850000 0.03847530 49829.75598365 0 1232.78759623 0 29831.02345061 0 10.70698145 0 5641.78632350 0 1662
0.03950000 0.03950240 47961.60972474 0 -1665.76649367 0 29045.95604822 0 7537.02053840 0 3250.22518109 0 1683
0.04050000 0.04050350 47704.24118916 0 1427.55505267 0 27028.41960220 0 3894.94269961 0 1185.76264101 0 1822
0.04150000 0.04152450 46686.95992240 0 2936.60464932 0 25563.29731130 0 3555.32168454 0 6275.22268598 0 1887
0.04250000 0.04250150 44465.54980928 0 -663.30121841 0 20540.71134421 0 3053.54640902 0 8434.35027257 0 1920
0.04350000 0.04349210 43184.63880057 0 328.75397742 0 20404.17310702 0 2210.96378460 0 5070.44574983 0 2005
0.04450000 0.04448520 43386.64509034 0 1284.04161190 0 18224.94375261 0 734.43401507 0 6231.89953172 0 2151
0.04550000 0.04548030 41485.76480514 0 881.39990701 0 14830.38128780 0 -732.13384558 0 893.05344006 0 2274
0.04650000 0.04648670 40325.24471192 0 771.43335090 0 19011.32930371 0 864.53639119 0 -278.91477470 0 2311
0.04750000 0.04749250 37223.97033503 0 1281.07577730 0 15762.86165423 0 -536.94568001 0 2053.37910635 0 2568
0.04850000 0.04851840 39597.73646986 0 343.59523343 0 16532.44080928 0 2745.44013269 0 616.51243150 0 2493
0.04950000 0.04949480 37381.04972294 0 -404.32454140 0 14476.56820495 0 1605.28543704 0 4.65397666 0 2644
0.05050000 0.05050630 37614.36204457 0 585.72926530 0 13710.72380458 0 1817.11193470 0 3644.46149104 0 2829
0.05150000 0.05149060 37592.17320795 0 -549.57244619 0 12693.88192073 0 690.53526921 0 2117.68279424 0 2784
0.05250000 0.05249300 36573.02456386 0 749.43674431 0 13041.65348865 0 1889.80783604 0 3052.36007519 0 3055
0.05350000 0.05348950 38008.81804596 0 537.02476893 0 13027.15385284 0 824.85132736 0 2809.66692857 0 3009
0.05450000 0.05448610 37243.30318277 0 288.01109925 0 14453.93998543 0 -243.46426361 0 3080.11809010 0 3336
0.05550000 0.05550870 35461.82520153 0 963.39315059 0 13906.13935080 0 -2285.61493986 0 2669.32802927 0 3349
0.05650000 0.05647670 35422.93981459 0 899.75952162 0 16251.12590547 0 -1280.88903957 0 -181.93747566 0 3324
0.05750000 0.05747970 35261.90598055 0 407.28268680 0 15841.29150246 0 499.68381290 0 2094.96669814 0 3639
0.05850000 0.05849280 33546.55512624 0 191.91366448 0 16051.64606739 0 1856.49162740 0 -757.45548229 0 3846
0.05950000 0.05951020 32681.62988119 0 441.85223517 0 15589.74479035 0 -226.79517472 0 917.09647253 0 3787
0.06050000 0.06049470 32963.49401363 0 1274.24337315 0 16325.71115330 0 -384.10743557 0 -1898.24398778 0 3930
0.06150000 0.06148310 31858.33616622 0 329.35922736 0 15866.99540230 0 208.71456825 0 718.27570881 0 4083
0.06250000 0.06249100 31925.23221324 0 155.90403865 0 15543.82927696 0 1315.89687238 0 -1951.68393339 0 4303
0.06350000 0.06350600 31289.22546078 0 283.95449660 0 15906.21032641 0 43.17046870 0 -2845.16906716 0 4470
0.06450000 0.06451750 30993.63061261 0 513.93959119 0 14769.19721852 0 222.99341414 0 613.73663001 0 4479
0.06550000 0.06550280 30403.86891072 0 -499.34768498 0 14154.39069114 0 3309.87141021 0 -412.63217365 0 4636
0.06650000 0.06648880 31884.91883186 0 -1236.33561318 0 11543.90701719 0 3157.21880505 0 -730.18957623 0 4653
0.06750000 0.06749660 31818.57201347 0 154.55073930 0 9621.58484630 0 1450.60068595 0 -309.49033248 0 5220
0.06850000 0.06852730 31236.06012949 0 1619.99377972 0 10495.73713233 0 -1212.61992097 0 1651.18996585 0 5029
0.06950000 0.06949320 29459.52520590 0 645.76324983 0 8800.36721555 0 -1286.43624872 0 270.66645915 0 5040
0.07050000 0.07048030 29293.32862275 0 847.52568209 0 12745.07002896 0 343.97310273 0 345.57135804 0 5475
0.07150000 0.07148790 28573.39973577 0 407.11791821 0 10727.84115097 0 -352.38398995 0 -188.96320829 0 5509
0.07250000 0.07249820 27796.13137991 0 -215.99404450 0 10821.49561680 0 1242.83848014 0 -155.80957132 0 5916
0.07350000 0.07351270 27781.41205265 0 -283.82597710 0 9354.30822626 0 677.56248899 0 -119.09803130 0 5721
0.07450000 0.07449140 28231.77952849 0 196.12185424 0 10000.71736895 0 1641.30385053 0 -846.90725065 0 6028
0.07550000 0.07549160 27790.96863080 0 664.35024509 0 7867.28269763 0 94.24170108 0 -297.52264065 0 6183
0.07650000 0.07648840 26832.01544445 0 928.89719885 0 10111.84828976 0 -2340.38401875 0 -1075.86858308 0 6330
0.07750000 0.07749960 25471.46628452 0 767.09993702 0 10308.25244751 0 -571.86893161 0 -1396.91907974 0 6583
0.07850000 0.07848650 25636.67425615 0 421.66149231 0 11015.65892175 0 489.81856826 0 -2500.47317955 0 6549
0.07950000 0.07947320 24849.19024779 0 -296.40331271 0 9724.86179771 0 995.74271684 0 -3702.87744803 0 6828
0.08050000 0.08048110 24960.46396804 0 573.68687838 0 10428.47859441 0 977.51601556 0 -1329.01245204 0 7147
0.08150000 0.08149960 23888.14999265 0 197.69264812 0 8916.72679291 0 735.82685888 0 -903.85566874 0 7386
0.08250000 0.08250610 24432.32571833 0 -80.08698085 0 8852.92839535 0 567.68161255 0 -777.43312444 0 7227
0.08350000 0.08350160 23896.05888491 0 10.67238004 0 8366.48758316 0 -99.68246972 0 -1712.07745167 0 7798
0.08450000 0.08449610 23276.96837422 0 685.75148785 0 8112.83183311 0 -676.81443960 0 -2259.16408909 0 7371
0.08550000 0.08548940 23054.86031663 0 684.28724433 0 9540.16719433 0 -75.21400476 0 -1520.48453671 0 8256
0.08650000 0.08650700 22480.69670780 0 211.01473774 0 9606.44810529 0 -657.47500111 0 -2673.08475310 0 8037
0.08750000 0.08749060 21387.51204450 0 694.17775348 0 9538.33277071 0 286.99063246 0 -1285.87603552 0 8155
0.08850000 0.08849210 20954.50019335 0 218.48864093 0 9309.42526269 0 1076.20800637 0 -2596.03896101 0 8718
0.08950000 0.08949900 20870.46821310 0 485.24019841 0 9185.42042282 0 564.46642815 0 -2137.83948493 0 8571
0.09050000 0.09049190 20443.05849396 0 76.55807706 0 8387.51205508 0 373.33156986 0 -1752.12720330 0 8932
0.09150000 0.09150830 19332.95758889 0 304.60659151 0 7712.96043743 0 679.91099061 0 -65.84020990 0 9285
0.09250000 0.09250820 19927.66234844 0 -34.89348342 0 7238.58068594 0 1307.65844295 0 -502.99895690 0 9204
0.09350000 0.09350330 19018.13973871 0 -25.81088958 0 6542.59816718 0 502.54419560 0 -933.83805960 0 9349
0.09450000 0.09448040 19016.27236137 0 560.95136493 0 6095.53704769 0 249.06529717 0 -60.12845185 0 9564
0.09550000 0.09549270 18945.64155967 0 399.70333172 0 6124.39351987 0 -319.75541556 0 -593.36574016 0 10155
0.09650000 0.09649430 18302.82437221 0 174.71072536 0 6411.66206201 0 235.19397891 0 54.85102380 0 9913
0.09750000 0.09749140 17904.52377041 0 -139.24044204 0 6042.29482439 0 252.43756095 0 -750.46050647 0 10476
0.09850000 0.09850240 17708.11961266 0 372.45829634 0 5961.90972224 0 247.05951421 0 -1115.38448448 0 10575
0.09950000 0.09950330 17815.98811541 0 203.51996387 0 6022.84114635 0 113.25533714 0 655.95913010 0 10882
0.10050000 0.10051200 17438.11881861 0 281.13036299 0 5822.44958875 0 207.84019627 0 -802.36151346 0 10875
0.10150000 0.10150300 17281.14927642 0 275.78856534 0 6854.24147589 0 -429.38694220 0 206.65276397 0 11118
0.10250000 0.10250800 16732.25018453 0 561.74994335 0 6666.29543902 0 -96.10490428 0 -703.51024634 0 11575
0.10350000 0.10349800 16491.79789073 0 -23.40208266 0 6845.30003381 0 678.54780515 0 643.15441384 0 11364
0.10450000 0.10450100 16243.98593329 0 47.43676685 0 6838.28089193 0 254.45872230 0 397.55474932 0 12093
0.10550000 0.10551000 15879.84735222 0 294.10643858 0 6410.00339155 0 95.10256203 0 963.27451720 0 12067
0.10650000 0.10649700 15761.54350552 0 106.14172794 0 6280.85777171 0 480.18070428 0 278.67531102 0 12054
0.10750000 0.10749900 15471.22125219 0 292.45106349 0 5865.08071494 0 261.37460920 0 923.23794706 0 12807
0.10850000 0.10850100 15490.55409994 0 266.56481975 0 6140.67265643 0 179.19572635 0 644.05075496 0 12736
0.10950000 0.10950300 15050.29243088 0 44.82826040 0 6452.48073372 0 -567.67831717 0 642.22951283 0 12933
0.11050000 0.11050200 14787.98083763 0 133.27362221 0 6220.58542196 0 355.62334041 0 586.10164231 0 13428
0.11150000 0.11150900 14981.74869797 0 -139.69190797 0 5871.41881332 0 -41.90900039 0 -180.59735781 0 13453
0.11250000 0.11250000 14964.06353611 0 55.89049391 0 5931.91085452 0 193.92713664 0 93.55725236 0 13668
0.11350000 0.11349100 15008.88059224 0 -170.47946801 0 5671.07119401 0 660.03220961 0 -169.53809013 0 13791
0.11450000 0.11448600 15198.47431500 0 -28.80275761 0 5469.44936427 0 513.24536621 0 17.32201189 0 14205
0.11550000 0.11549300 15159.91846524 0 280.34935988 0 5027.95742309 0 -208.89910907 0 142.34907608 0 14776
0.11650000 0.11649800 14714.38420134 0 338.18423298 0 5654.85796488 0 -337.47792496 0 220.92941296 0 14553
0.11750000 0.11747300 14566.75154585 0 317.66175602 0 5625.32044920 0 129.67727315 0 -28.81187481 0 14568
0.11850000 0.11849100 14125.17172808 0 345.77237572 0 6009.12141520 0 -242.24607451 0 -97.14239716 0 16015
0.11950000 0.11950300 13844.51589862 0 68.57690632 0 5924.13377713 0 260.58591689 0 260.36073315 0 15270
0.12050000 0.12050700 13779.15769176 0 -158.94346988 0 5245.63869793 0 773.01073552 0 790.77388784 0 15999
0.12150000 0.12150000 13862.42075193 0 -136.20320772 0 4945.39737556 0 634.09653529 0 337.50648485 0 15670
0.12250000 0.12250700 13588.79504893 0 183.15456631 0 4610.23609696 0 8.47435609 0 515.71579658 0 16887
0.12350000 0.12352200 13482.79392352 0 276.42786747 0 4666.11461768 0 -75.59341190 0 -329.14942203 0 16407
0.12450000 0.12449800 13158.85887809 0 478.30893311 0 4757.25361639 0 -144.36913898 0 1266.13675859 0 16306
0.12550000 0.12549900 13003.64686752 0 -78.23673944 0 4327.17464611 0 771.62118709 0 609.16704781 0 17523
0.12650000 0.12650100 13162.48378705 0 -99.23023487 0 4425.84906161 0 789.61721235 0 609.17803239 0 17154
0.12750000 0.12750600 13051.75929543 0 17.24501003 0 3753.81291109 0 48.20283094 0 464.72431220 0 18007
0.12850000 0.12850300 12686.52225710 0 165.65174836 0 4019.51873726 0 -507.24778958 0 1388.08748339 0 17496
0.12950000 0.12949900 12385.65481409 0 408.21857238 0 4062.50136977 0 -108.39037979 0 829.17815050 0 18405
0.13050000 0.13049000 12419.37745192 0 39.39221512 0 4153.53052275 0 -18.52152721 0 829.98771350 0 18100
0.13150000 0.13148800 12344.35282119 0 138.30235954 0 4262.32172959 0 -145.87292697 0 301.97798329 0 19059
0.13250000 0.13249300 12060.07208278 0 143.73423068 0 4307.00697085 0 636.76029414 0 684.08293128 0 18957
0.13350000 0.13349100 12135.75578787 0 -79.62892417 0 3703.96492071 0 376.95428190 0 467.59897484 0 19468
0.13450000 0.13450700 12118.83954609 0 -62.05701326 0 3622.34954643 0 211.52332346 0 391.26388460 0 19953
0.13550000 0.13551000 12002.18338528 0 194.59499865 0 3364.33292107 0 220.55923286 0 846.35362819 0 19956
0.13650000 0.13649900 11814.34719414 0 83.34819060 0 3428.51577866 0 43.04766118 0 1087.50783619 0 19723
0.13750000 0.13749600 11883.44015567 0 -48.68219769 0 3431.06419950 0 142.89830471 0 1272.98014731 0 20946
0.13850000 0.13851100 11714.60727510 0 268.78150649 0 3335.69614035 0 119.88123132 0 464.48045469 0 20955
0.13950000 0.13949800 11442.40956653 0 326.78664047 0 3539.37208515 0 -438.13285889 0 1280.43867209 0 20506
0.14050000 0.14048300 11203.49511289 0 2.60050968 0 3656.09415340 0 140.37624685 0 924.64177544 0 21447
0.14150000 0.14148400 11093.31984990 0 118.47191066 0 3829.49661617 0 52.02403420 0 893.92122130 0 21771
0.14250000 0.14249400 11038.72652417 0 327.12057147 0 3990.76112624 0 -130.50770684 0 1044.44831167 0 22470
0.14350000 0.14350900 10880.44981784 0 -84.42830363 0 3853.35510782 0 284.34774430 0 1407.87069861 0 22519
0.14450000 0.14449900 10907.25217494 0 -59.93896798 0 3478.05620100 0 645.74567451 0 1109.35395414 0 22218
0.14550000 0.14550500 10945.70916355 0 2.51034831 0 3133.61295857 0 98.95649932 0 1087.05746871 0 23559
0.14650000 0.14650700 10575.37528354 0 225.89004593 0 3209.41749395 0 71.79461716 0 1525.55940924 0 23044
0.14750000 0.14750500 10742.64835481 0 206.64507477 0 3096.05670491 0 248.98401133 0 1386.75835010 0 23649
0.14850000 0.14849900 10233.62326139 0 69.60176694 0 2992.06575629 0 -55.49636744 0 1536.25838294 0 23640
0.14950000 0.14949500 10067.02024905 0 67.94891830 0 2816.56524015 0 202.07439412 0 1408.78241813 0 24457
0.15050000 0.15050000 10140.51802419 0 -34.83284858 0 2699.38181986 0 170.33447165 0 1347.06010480 0 24591
0.15150000 0.15149900 10116.04439648 0 86.48802083 0 2402.31503897 0 116.68252379 0 747.24751899 0 25020
0.15250000 0.15250500 9981.53830522 0 167.64325136 0 2386.74989962 0 -23.27916529 0 583.45326186 0 25297
0.15350000 0.15350100 9825.53540542 0 209.01554554 0 2679.73041951 0 -673.66406418 0 199.19314073 0 25452
0.15450000 0.15450400 9493.10928539 0 241.91324196 0 2703.45709628 0 -50.27770685 0 70.29247686 0 26061
0.15550000 0.15549900 9501.97383547 0 82.68922609 0 2861.00882082 0 -117.56128959 0 -356.61085348 0 26128
0.15650000 0.15649500 9284.56717494 0 -61.56578318 0 2669.61362816 0 141.43186427 0 -176.03766173 0 26331
0.15750000 0.15749700 9234.18094051 0 61.75274060 0 2825.16616049 0 227.51576268 0 -267.14041135 0 27345
0.15850000 0.15849900 9256.52356114 0 -20.67944650 0 2563.27198100 0 62.50595274 0 -210.74341880 0 26980
0.15950000 0.15949700 9201.49085250 0 35.97106999 0 2245.42238879 0 565.89881642 0 -133.81955547 0 27777
0.16050000 0.16050000 9257.91860185 0 86.67409949 0 2352.50000231 0 -66.63033021 0 -88.10319238 0 28224
0.16150000 0.16150500 9130.46460619 0 299.27248306 0 2074.31570169 0 11.76953014 0 40.82954644 0 28075
0.16250000 0.16249700 8900.67833236 0 23.75963049 0 2671.22836033 0 -229.13379022 0 266.49122311 0 28590
0.16350000 0.16349900 8941.92540241 0 10.89148931 0 2203.80184328 0 177.19214031 0 -14.27027793 0 29163
0.16450000 0.16449100 8761.73447378 0 67.84720116 0 2755.18344857 0 -67.53150454 0 -6.86652223 0 28996
0.16550000 0.16550500 8533.89246930 0 124.44641969 0 2314.69110349 0 -290.83523286 0 96.11039657 0 30777
0.16650000 0.16650700 8665.28992652 0 91.82762156 0 2511.07329210 0 328.98685035 0 -39.97242024 0 29211
0.16750000 0.16749900 8677.76840097 0 -2.20085798 0 2500.64893272 0 150.44909990 0 -351.49973186 0 30922
0.16850000 0.16850800 8459.71365066 0 157.50998316 0 2465.33353187 0 27.46329883 0 205.92009298 0 30867
0.16950000 0.16949900 8269.41691526 0 -9.46316534 0 2216.69773149 0 247.44287580 0 177.80507946 0 30852
0.17050000 0.17049200 8290.91372380 0 105.43618884 0 2269.26989586 0 -189.61019961 0 -63.81608271 0 31257
0.17150000 0.17149500 8168.62247725 0 276.35207392 0 2244.15916294 0 133.65808226 0 222.32115830 0 32608
0.17250000 0.17250900 8101.13326331 0 -38.18907488 0 2498.81450909 0 -146.34306667 0 111.66806640 0 32361
0.17350000 0.17350400 8001.44826714 0 23.57267307 0 2403.20478935 0 -149.90865893 0 60.02783317 0 32508
0.17450000 0.17449800 8047.74824057 0 72.78388777 0 2280.59499019 0 89.31555966 0 -436.29953373 0 32791
0.17550000 0.17549800 7798.17875152 0 95.07499075 0 2370.47076305 0 -45.54104931 0 200.05652814 0 33633
0.17650000 0.17650100 7848.51006309 0 128.09769161 0 2335.04551648 0 447.32474923 0 20.09990045 0 33984
0.17750000 0.17750300 7739.71885624 0 -16.00001858 0 2281.61655544 0 70.33861207 0 349.62136995 0 34069
0.17850000 0.17849800 7616.70262790 0 216.36861842 0 2020.85378693 0 189.59372275 0 37.90490399 0 34536
