### header ###
fiducial parameters:
Omega_m = 0.31
Omega_nu = 0
Omega_de = 0.69
Omega_k = 0
H_0 = 100
w_de = -1
zeff = 0
beta = 0
fgrowth = 0
b_1 = 2
gamma = 0.55
Lx = 3500 Ly = 3500 Lz = 3500
nx = 700 ny = 700 nz = 700
xoffset = -983.599254 yoffset = -42.9823471 zoffset = 800.977702
bins = 400 dk = 0.001
kx_ny = 0.628318531 ky_ny = 0.628318531 kz_ny = 0.628318531
############################
A(data) = 9.06295017 (not used)
A(ran) = 9.05774117 (used)
Ngal = 503305
weighted Ngal = 0
Nran = 25229228
weighted Nran = 0
SN(data) = 6743.94472
SN(ran) = 134.455927
SN(data+ran) = 6878.40065
############################
13 columns: k_central k_mean P_0(k) sigma^{lin}_{P_0(k)} P^img_1(k) sigma^{lin}_{P_1(k)} P_2(k) sigma^{lin}_{P_2(k)} P^img_3(k) sigma^{lin}_{P_3(k)} P_4(k) sigma^{lin}_{P_4(k)} N_modes
### header ###
0.00050000 0 0 0 0 0 0 0 0 0 0 0 0
0.00150000 0.00179520 10596.75126179 0 -14430.65269156 0 -29757.97604294 0 42893.65747289 0 36557.42647079 0 3
0.00250000 0.00253879 17439.10743014 0 -18718.15106151 0 -18485.60765997 0 -18944.87263959 0 -48925.50596875 0 6
0.00350000 0.00331552 42566.20736424 0 -35379.55075289 0 -73358.71045289 0 22542.86938861 0 36578.84638732 0 7
0.00450000 0.00420575 50351.85271844 0 -15715.73783785 0 -44790.14392906 0 -15092.58303531 0 -13998.40976049 0 24
0.00550000 0.00557378 58919.92917762 0 1910.53572450 0 -42543.13976182 0 -37433.55597988 0 11796.66203228 0 45
0.00650000 0.00659388 36307.30775311 0 -4935.20369221 0 880.80124781 0 -5007.87762441 0 -27148.70067197 0 40
0.00750000 0.00754703 76300.04945299 0 -4179.43214489 0 -35790.26392171 0 4108.51574431 0 -359.69202609 0 57
0.00850000 0.00846663 67670.45938736 0 -12856.67328638 0 -38044.07852395 0 -9674.12405696 0 -27073.12681261 0 75
0.00950000 0.00948925 76524.90365373 0 3486.50333732 0 -22424.78523336 0 -38990.39945183 0 -17742.06194193 0 112
0.01050000 0.01054430 66390.31729874 0 12660.48882008 0 -11436.03851444 0 -17899.58071275 0 -19883.94374957 0 105
0.01150000 0.01145670 69124.59710568 0 6542.02696941 0 19602.73869149 0 -23553.77960327 0 -7047.97638250 0 144
0.01250000 0.01249090 54638.91170549 0 -3086.24748160 0 12901.38049679 0 6392.57087487 0 -3208.17623725 0 169
0.01350000 0.01339930 68688.50957420 0 -2976.12714147 0 21566.34088613 0 7201.02443228 0 -17871.24051549 0 180
0.01450000 0.01448870 65877.11806773 0 -4143.71031486 0 10647.24734194 0 12373.24224708 0 -8505.77196349 0 267
0.01550000 0.01550050 71093.80143234 0 1798.93246707 0 7759.91948522 0 11826.64991543 0 15991.12107247 0 238
0.01650000 0.01653350 69533.66258861 0 2923.77466855 0 8955.16181237 0 -6698.61205155 0 13041.54364293 0 315
0.01750000 0.01747870 67098.05331015 0 2640.63632569 0 15783.62249641 0 -3238.86713304 0 2754.95277255 0 297
0.01850000 0.01844180 70727.90531966 0 -4206.87160720 0 13751.80610604 0 11807.20722196 0 3138.32534021 0 388
0.01950000 0.01947590 72630.76282792 0 -5571.30930582 0 5254.01992681 0 13609.00666248 0 16381.51278201 0 399
0.02050000 0.02045430 80082.03779275 0 580.20841912 0 3617.92276368 0 -7590.25177713 0 7323.53537028 0 462
0.02150000 0.02154770 79282.80029173 0 2705.41235020 0 8801.28991965 0 399.33315162 0 9762.81349598 0 571
0.02250000 0.02255340 76898.15943005 0 -2379.68681945 0 15015.91071870 0 -8900.53553292 0 -1482.11542468 0 510
0.02350000 0.02348930 69600.99801854 0 7349.20631640 0 21260.20084829 0 -6966.31706993 0 3220.10548308 0 555
0.02450000 0.02439640 67012.48348974 0 7540.25000274 0 24362.02445381 0 -3236.69218767 0 -553.80699892 0 592
0.02550000 0.02547300 61558.97274028 0 1670.66561304 0 29720.73834189 0 4061.34798965 0 12773.52007194 0 837
0.02650000 0.02652900 62173.44973048 0 -473.40981374 0 24122.12138863 0 13979.29660419 0 9489.75899076 0 723
0.02750000 0.02749970 62831.86501101 0 -243.72020415 0 22294.72789400 0 3085.11607062 0 11003.24635473 0 826
0.02850000 0.02848090 58410.79423847 0 1006.10775953 0 16150.83675780 0 5031.60430118 0 12478.25476095 0 831
0.02950000 0.02946900 54240.72094941 0 2074.16191767 0 21857.87144244 0 -3661.83908486 0 11451.08737887 0 996
0.03050000 0.03053250 52902.58031756 0 3954.34726813 0 20704.38147567 0 -1315.36961290 0 9549.52605017 0 1041
0.03150000 0.03150510 50280.89237957 0 1054.52995238 0 22799.24931266 0 239.10338829 0 2824.11164152 0 1036
0.03250000 0.03246190 50622.51258685 0 1484.88353697 0 22582.85323281 0 -1491.12277420 0 1586.62264822 0 1059
0.03350000 0.03345080 47768.61078449 0 345.35606041 0 26672.08006766 0 1205.18336533 0 -1852.22961324 0 1302
0.03450000 0.03451200 50799.47405113 0 416.61298275 0 25009.67485320 0 -773.71374817 0 -7599.43487981 0 1339
0.03550000 0.03553350 47934.47783047 0 -1123.74374422 0 21016.34333698 0 1506.60003697 0 -3412.32451868 0 1365
0.03650000 0.03647120 47216.85570373 0 -1083.90929021 0 24793.27877335 0 -2428.12878453 0 -7219.66525195 0 1308
0.03750000 0.03744890 46803.28654604 0 4332.76579356 0 22538.36571385 0 -2333.96902837 0 -7493.00535606 0 1579
0.03850000 0.03847530 44382.06705766 0 923.39502645 0 22656.23017765 0 2602.87136516 0 -5433.89230283 0 1662
0.03950000 0.03950240 47338.67461365 0 -1572.39762673 0 23590.46807569 0 6778.14035704 0 -3356.80848885 0 1683
0.04050000 0.04050350 46981.67600476 0 -350.54846787 0 18953.22091475 0 4251.78752449 0 -2089.51835014 0 1822
0.04150000 0.04152450 47840.34004344 0 999.34675510 0 22005.83363511 0 689.15670535 0 -1491.84775599 0 1887
0.04250000 0.04250150 46763.08301039 0 234.82489727 0 15914.88813875 0 1187.11374344 0 956.79691475 0 1920
0.04350000 0.04349210 45929.35395147 0 -308.22051589 0 19019.23819597 0 2591.28264108 0 1910.37095591 0 2005
0.04450000 0.04448520 45832.68971275 0 -30.80337782 0 16540.89893016 0 -3842.27167408 0 401.49930934 0 2151
0.04550000 0.04548030 42369.69336076 0 2595.02838033 0 14198.65851864 0 1366.49181369 0 -1763.63903537 0 2274
0.04650000 0.04648670 41608.35263514 0 1551.31823195 0 18526.14073279 0 -348.47458057 0 -92.88554575 0 2311
0.04750000 0.04749250 39690.44626244 0 1673.92803110 0 17885.74015130 0 -543.03113322 0 -2487.10495472 0 2568
0.04850000 0.04851840 36365.30629634 0 1622.08084851 0 16263.09908958 0 4489.88911976 0 323.77357221 0 2493
0.04950000 0.04949480 38229.82764630 0 -1014.00237184 0 15283.49490678 0 2673.91958061 0 -2902.72822748 0 2644
0.05050000 0.05050630 37196.17936640 0 714.16967558 0 15063.03453507 0 -881.79205625 0 -1987.07622625 0 2829
0.05150000 0.05149060 34267.25293331 0 1627.29852049 0 14224.69195566 0 287.45418142 0 1729.67473695 0 2784
0.05250000 0.05249300 34808.02344149 0 -496.46972696 0 14000.93621218 0 204.22737035 0 -226.98520782 0 3055
0.05350000 0.05348950 34564.05608445 0 29.78840331 0 14701.75194287 0 1711.96760595 0 -1978.47530592 0 3009
0.05450000 0.05448610 34511.76951897 0 815.92965751 0 12786.15233041 0 -1920.92713016 0 -4060.61202328 0 3336
0.05550000 0.05550870 35322.87035837 0 618.00633337 0 15905.66109778 0 -1676.31168335 0 -4295.31938563 0 3349
0.05650000 0.05647670 32521.14527578 0 495.46793394 0 14470.85622721 0 757.11605900 0 -3113.51119075 0 3324
0.05750000 0.05747970 34097.32159547 0 -683.95770715 0 14530.83199350 0 3235.03351721 0 -6289.39278461 0 3639
0.05850000 0.05849280 33584.56174738 0 -255.70437283 0 14188.00348324 0 3.31425425 0 -1600.74880856 0 3846
0.05950000 0.05951020 33155.39449662 0 1491.71594112 0 11896.07241414 0 174.22191188 0 -5739.06569828 0 3787
0.06050000 0.06049470 32380.76243819 0 251.51375840 0 11296.64428838 0 389.47010390 0 -1163.22229807 0 3930
0.06150000 0.06148310 31766.17560226 0 -428.91680250 0 10665.61354730 0 3566.93237776 0 -3860.26440397 0 4083
0.06250000 0.06249100 31798.03086275 0 1237.91739163 0 11636.94634695 0 -1853.08640990 0 -3999.81241404 0 4303
0.06350000 0.06350600 29800.92572173 0 1007.33913011 0 11262.37242193 0 -1166.82523788 0 -1203.33795714 0 4470
0.06450000 0.06451750 29286.95757065 0 -589.37284802 0 10859.51322250 0 2229.92315688 0 -3866.99794696 0 4479
0.06550000 0.06550280 29765.77508947 0 -588.95213889 0 8711.76565311 0 3171.31201167 0 -1181.36881198 0 4636
0.06650000 0.06648880 30497.34762339 0 573.04098551 0 8045.10095858 0 1387.02197985 0 -283.28333921 0 4653
0.06750000 0.06749660 29720.62849616 0 830.28978925 0 8803.91523249 0 -929.73971557 0 -220.26045249 0 5220
0.06850000 0.06852730 28916.99716611 0 673.98810907 0 7355.06109359 0 -150.98185167 0 1061.15584656 0 5029
0.06950000 0.06949320 27841.16812750 0 -411.92366871 0 9709.01105948 0 1344.32494622 0 2917.30475530 0 5040
0.07050000 0.07048030 28781.99676909 0 -295.85518253 0 7906.44269888 0 715.37797856 0 254.33239972 0 5475
0.07150000 0.07148790 29365.16772743 0 207.99947257 0 6654.06960974 0 2277.22272641 0 1764.77044635 0 5509
0.07250000 0.07249820 28092.05576525 0 683.12507655 0 7877.17979752 0 -1916.19277938 0 406.27649995 0 5916
0.07350000 0.07351270 27431.55341594 0 1055.29447863 0 8879.04970895 0 -1696.39148203 0 1791.02357482 0 5721
0.07450000 0.07449140 26656.15243742 0 512.98393338 0 8937.91603341 0 91.91571783 0 1186.53156109 0 6028
0.07550000 0.07549160 25855.04755906 0 -224.37747029 0 9494.75697128 0 1232.84251909 0 1554.29505111 0 6183
0.07650000 0.07648840 26467.76701765 0 99.19409563 0 9823.74492009 0 763.52555710 0 755.96048196 0 6330
0.07750000 0.07749960 26065.73166117 0 717.62212674 0 9513.65043612 0 -1025.38568441 0 474.18971839 0 6583
0.07850000 0.07848650 24869.51170706 0 1180.80859878 0 10551.70352963 0 -213.81140992 0 3324.63467576 0 6549
0.07950000 0.07947320 24642.79012899 0 244.45836743 0 11480.85557057 0 183.86966198 0 1472.09749449 0 6828
0.08050000 0.08048110 23820.37517982 0 116.82971706 0 10934.71360640 0 1338.44819989 0 2548.54166917 0 7147
0.08150000 0.08149960 23572.23368521 0 -191.55337050 0 10096.54678015 0 909.39189332 0 2999.37049705 0 7386
0.08250000 0.08250610 23467.11132560 0 128.48984086 0 9725.03755088 0 1502.32703823 0 4633.32566853 0 7227
0.08350000 0.08350160 23494.46291133 0 413.26708194 0 8612.47610155 0 599.89716701 0 3446.58540056 0 7798
0.08450000 0.08449610 23315.63406971 0 -55.21801837 0 8685.80910810 0 531.14582568 0 3404.75614817 0 7371
0.08550000 0.08548940 22600.20885748 0 559.32345127 0 8179.72788013 0 -201.99091137 0 3258.66133284 0 8256
0.08650000 0.08650700 21992.32261083 0 744.50796659 0 8725.75999858 0 -1202.33836104 0 3383.29229334 0 8037
0.08750000 0.08749060 21534.70531709 0 275.64466744 0 8834.30954483 0 514.91282432 0 2094.02202490 0 8155
0.08850000 0.08849210 20939.23163746 0 467.94938271 0 9299.16567190 0 -594.94532169 0 1020.59201693 0 8718
0.08950000 0.08949900 21027.76729247 0 189.40039428 0 9730.25522285 0 422.45018462 0 1436.81504736 0 8571
0.09050000 0.09049190 20431.63453848 0 99.05151587 0 8663.77405550 0 731.12216644 0 952.98746498 0 8932
0.09150000 0.09150830 20096.60507474 0 223.70960828 0 8641.47537316 0 733.89137719 0 1700.06032927 0 9285
0.09250000 0.09250820 19559.78901269 0 320.42217911 0 8042.69533718 0 345.05618158 0 2503.43901415 0 9204
0.09350000 0.09350330 19571.21296818 0 261.01541368 0 8240.54945852 0 1366.77741258 0 2207.65742825 0 9349
0.09450000 0.09448040 18753.30169377 0 188.18879592 0 7305.83922385 0 -175.64331558 0 1744.93230826 0 9564
0.09550000 0.09549270 18505.48973634 0 592.71215809 0 7372.09816566 0 -353.98114681 0 1391.31694773 0 10155
0.09650000 0.09649430 17777.76180282 0 319.14137795 0 7971.44939942 0 43.87688656 0 1838.36708264 0 9913
0.09750000 0.09749140 17673.73790048 0 -2.41961574 0 7400.19670233 0 363.31693504 0 1919.18058312 0 10476
0.09850000 0.09850240 17513.69267797 0 -212.65253752 0 6952.45453934 0 1146.04242656 0 979.15161841 0 10575
0.09950000 0.09950330 17857.94918267 0 83.55063628 0 6470.49543276 0 326.75698212 0 337.00448988 0 10882
0.10050000 0.10051200 17189.86747827 0 799.29242388 0 6543.79548559 0 -543.52104515 0 710.06254389 0 10875
0.10150000 0.10150300 16748.94673485 0 407.64627615 0 6543.31216440 0 -640.02930294 0 889.59110279 0 11118
0.10250000 0.10250800 16299.23833337 0 105.75133623 0 6811.17096680 0 589.75730806 0 40.45925650 0 11575
0.10350000 0.10349800 15979.14788835 0 74.69399510 0 6978.15843918 0 528.45899923 0 558.92800666 0 11364
0.10450000 0.10450100 15853.04499512 0 81.68721338 0 5929.49424855 0 302.88970282 0 483.97587410 0 12093
0.10550000 0.10551000 15765.71764310 0 99.01856216 0 5878.73453866 0 589.33550048 0 1018.31491504 0 12067
0.10650000 0.10649700 15677.07214237 0 140.89142330 0 5312.91920499 0 -267.65888318 0 -18.55261355 0 12054
0.10750000 0.10749900 15785.38002802 0 36.71351725 0 5909.39248073 0 374.42123946 0 188.64136031 0 12807
0.10850000 0.10850100 15459.90714243 0 28.79627671 0 5031.96679208 0 351.69855262 0 759.32285963 0 12736
0.10950000 0.10950300 15344.45928460 0 44.62559503 0 5372.44460381 0 304.47587510 0 491.83204042 0 12933
0.11050000 0.11050200 15317.43723605 0 128.88418701 0 4644.98030004 0 -5.35385871 0 713.81157851 0 13428
0.11150000 0.11150900 15453.86562751 0 132.69253833 0 4925.08690086 0 760.02587227 0 1027.59138658 0 13453
0.11250000 0.11250000 14981.52900652 0 308.33914927 0 5309.87647839 0 -987.94257185 0 606.61862698 0 13668
0.11350000 0.11349100 14531.16153068 0 385.44535651 0 5436.35284709 0 -53.21146650 0 991.29835877 0 13791
0.11450000 0.11448600 14270.93700623 0 69.95217480 0 5714.60305515 0 811.39852132 0 1355.12278107 0 14205
0.11550000 0.11549300 14370.67692527 0 -15.26031746 0 5590.05997122 0 -141.73943230 0 924.76699956 0 14776
0.11650000 0.11649800 14512.15822012 0 277.07925262 0 5547.17619986 0 69.86363915 0 504.72023942 0 14553
0.11750000 0.11747300 14120.11882469 0 -4.83448615 0 5392.15092702 0 -346.58962792 0 847.07641307 0 14568
0.11850000 0.11849100 13928.43803314 0 52.59226614 0 5567.50864371 0 410.16174327 0 1217.67282436 0 16015
0.11950000 0.11950300 13767.29435337 0 154.45956735 0 5455.88341714 0 589.64965925 0 1196.60441415 0 15270
0.12050000 0.12050700 13866.15550661 0 184.90331026 0 5074.14755079 0 144.38341892 0 1250.57161924 0 15999
0.12150000 0.12150000 13234.76227463 0 333.47844208 0 5564.97120744 0 -22.55561149 0 1320.86189919 0 15670
0.12250000 0.12250700 13294.62819520 0 197.93650563 0 5336.77769664 0 -168.98776305 0 1298.37647911 0 16887
0.12350000 0.12352200 12927.85331671 0 151.10487889 0 5332.16417615 0 220.89536078 0 1561.24828556 0 16407
0.12450000 0.12449800 13186.64984673 0 -216.74099543 0 5501.68908480 0 104.39792704 0 836.38183320 0 16306
0.12550000 0.12549900 12951.25045631 0 -11.00698111 0 5149.15021238 0 -4.64399169 0 850.93309650 0 17523
0.12650000 0.12650100 12973.65898437 0 5.64732255 0 4890.05709890 0 178.93649044 0 149.41984545 0 17154
0.12750000 0.12750600 12914.12260098 0 27.19241927 0 4416.22657603 0 69.87660094 0 -61.08004538 0 18007
0.12850000 0.12850300 13201.58886544 0 318.43287302 0 4475.12585421 0 49.40377426 0 -495.71508682 0 17496
0.12950000 0.12949900 12907.42201171 0 66.45139152 0 4919.79233688 0 -239.55924805 0 -414.21065673 0 18405
0.13050000 0.13049000 12529.33302346 0 277.32420859 0 4701.86940144 0 -79.97592682 0 -702.59962528 0 18100
0.13150000 0.13148800 12328.64488240 0 16.22948630 0 4685.24974312 0 29.89121891 0 -644.17158526 0 19059
0.13250000 0.13249300 12008.22490020 0 129.37849278 0 4815.16428304 0 120.62159152 0 -720.16615375 0 18957
0.13350000 0.13349100 12012.94826641 0 387.26879556 0 4842.13140873 0 87.74575439 0 -969.85647310 0 19468
0.13450000 0.13450700 11861.91039342 0 48.48183908 0 5011.01921217 0 -11.56587616 0 -187.82191120 0 19953
0.13550000 0.13551000 11754.70096502 0 -105.22572443 0 4457.39675407 0 320.98349077 0 -623.00101852 0 19956
0.13650000 0.13649900 11483.27217654 0 28.92457652 0 3981.99543732 0 382.08407730 0 -387.92457454 0 19723
0.13750000 0.13749600 11928.80644044 0 -40.26274249 0 4035.81984297 0 801.41793868 0 151.87929125 0 20946
0.13850000 0.13851100 11739.98163776 0 71.00713315 0 3336.33324556 0 479.85775784 0 136.24385064 0 20955
0.13950000 0.13949800 11570.81922001 0 189.02801727 0 3252.43308018 0 162.01036254 0 934.27963942 0 20506
0.14050000 0.14048300 11403.52417960 0 34.12302550 0 3770.36666197 0 -265.57181438 0 125.89528481 0 21447
0.14150000 0.14148400 10972.91794983 0 407.67044221 0 3380.37039704 0 54.60650722 0 868.45898205 0 21771
0.14250000 0.14249400 11044.65819336 0 33.93683699 0 3308.56424607 0 185.01205753 0 1130.91667011 0 22470
0.14350000 0.14350900 10833.67750779 0 -52.45803467 0 3275.19311457 0 412.93424939 0 628.14619232 0 22519
0.14450000 0.14449900 10735.17884546 0 307.43731586 0 3654.64418982 0 -329.82387478 0 365.37434549 0 22218
0.14550000 0.14550500 10524.91215710 0 109.37811256 0 3407.34850730 0 -179.86029299 0 440.23750300 0 23559
0.14650000 0.14650700 10488.97063562 0 85.63451954 0 3584.00240355 0 186.42906739 0 141.58345137 0 23044
0.14750000 0.14750500 10324.31189262 0 34.80088347 0 3206.66036624 0 -180.49300437 0 130.95368049 0 23649
0.14850000 0.14849900 10263.84182056 0 110.16098305 0 3098.61611033 0 389.22624639 0 332.97315174 0 23640
0.14950000 0.14949500 10064.35099791 0 178.21809939 0 3149.91406428 0 132.68704604 0 -332.60187319 0 24457
0.15050000 0.15050000 9939.26966993 0 235.71904148 0 3245.27113886 0 -13.64997912 0 532.66169670 0 24591
0.15150000 0.15149900 9676.58460122 0 -110.61574435 0 2821.34352923 0 33.56193353 0 -42.64529629 0 25020
0.15250000 0.15250500 9733.89111638 0 130.56372816 0 3119.78338169 0 175.50930379 0 -5.39550122 0 25297
0.15350000 0.15350100 9464.76908813 0 231.64925734 0 2959.24385341 0 -468.49421751 0 -197.10167811 0 25452
0.15450000 0.15450400 9365.76513546 0 54.25653873 0 3071.20960174 0 241.20913086 0 -3.88864854 0 26061
0.15550000 0.15549900 9413.17455072 0 47.53925291 0 2941.19620066 0 144.09342621 0 -392.79074019 0 26128
0.15650000 0.15649500 9159.27714007 0 159.05221715 0 3063.32267862 0 6.14828497 0 -279.83747880 0 26331
0.15750000 0.15749700 9174.00745191 0 62.88942417 0 3103.49326055 0 36.65925346 0 -153.03816366 0 27345
0.15850000 0.15849900 9068.16011051 0 -40.41257206 0 2762.48818934 0 200.41462520 0 -142.92576614 0 26980
0.15950000 0.15949700 8973.87952405 0 79.59586061 0 2956.76134001 0 51.26620854 0 -134.80157626 0 27777
0.16050000 0.16050000 8814.63617533 0 225.00468938 0 2836.39239366 0 -122.16931779 0 -173.65291102 0 28224
0.16150000 0.16150500 8681.23952591 0 104.65672357 0 2910.25265970 0 322.76738536 0 22.11227414 0 28075
0.16250000 0.16249700 8790.41519279 0 49.02612465 0 2746.04428418 0 0.73532377 0 194.99593555 0 28590
0.16350000 0.16349900 8676.04382308 0 -25.39545304 0 2637.89018255 0 216.70914017 0 -206.34299903 0 29163
0.16450000 0.16449100 8811.68132531 0 -105.69169000 0 2378.85199193 0 372.49454543 0 364.65375753 0 28996
0.16550000 0.16550500 8621.56034307 0 76.49249916 0 2126.72309747 0 -45.61014227 0 197.10607194 0 30777
0.16650000 0.16650700 8751.73851273 0 32.85716335 0 2266.20520011 0 406.85319001 0 538.30996392 0 29211
0.16750000 0.16749900 8624.35042451 0 59.95928944 0 2006.60679630 0 151.15540792 0 190.07374858 0 30922
0.16850000 0.16850800 8573.29413115 0 163.30324674 0 2324.81887941 0 -531.42153846 0 262.42034051 0 30867
0.16950000 0.16949900 8387.73174653 0 222.84731933 0 2462.53246586 0 -203.14209458 0 553.19955206 0 30852
0.17050000 0.17049200 8226.34640617 0 9.69569776 0 2633.06795518 0 14.75832249 0 408.20978473 0 31257
0.17150000 0.17149500 8342.70598352 0 -6.86382002 0 2676.32520201 0 10.17593229 0 20.90408101 0 32608
0.17250000 0.17250900 8265.25376225 0 114.88764463 0 2713.27730417 0 115.47422080 0 55.44869440 0 32361
0.17350000 0.17350400 8182.78159131 0 4.68484331 0 2485.22659281 0 -47.46488735 0 378.70632123 0 32508
0.17450000 0.17449800 8084.74428102 0 165.42876153 0 2875.21187317 0 96.08568128 0 -62.23705041 0 32791
0.17550000 0.17549800 7929.51030130 0 155.54704004 0 2637.32996935 0 -96.45805829 0 251.72246527 0 33633
0.17650000 0.17650100 7858.14353324 0 94.05880795 0 2633.79293697 0 253.93365973 0 174.41963419 0 33984
0.17750000 0.17750300 7762.30313747 0 76.43054618 0 2392.42892364 0 178.12473052 0 467.23209012 0 34069
0.17850000 0.17849800 7631.58672375 0 -66.24927539 0 2489.33482296 0 233.26508797 0 350.76706087 0 34536
