### header ###
fiducial parameters:
Omega_m = 0.31
Omega_nu = 0
Omega_de = 0.69
Omega_k = 0
H_0 = 100
w_de = -1
zeff = 0
beta = 0
fgrowth = 0
b_1 = 2
gamma = 0.55
Lx = 3500 Ly = 3500 Lz = 3500
nx = 700 ny = 700 nz = 700
xoffset = -983.599254 yoffset = -42.9823471 zoffset = 800.977702
bins = 400 dk = 0.001
kx_ny = 0.628318531 ky_ny = 0.628318531 kz_ny = 0.628318531
############################
A(data) = 9.07059422 (not used)
A(ran) = 9.05277877 (used)
Ngal = 503028
weighted Ngal = 0
Nran = 25229228
weighted Nran = 0
SN(data) = 6743.37435
SN(ran) = 134.382264
SN(data+ran) = 6877.75661
############################
13 columns: k_central k_mean P_0(k) sigma^{lin}_{P_0(k)} P^img_1(k) sigma^{lin}_{P_1(k)} P_2(k) sigma^{lin}_{P_2(k)} P^img_3(k) sigma^{lin}_{P_3(k)} P_4(k) sigma^{lin}_{P_4(k)} N_modes
### header ###
0.00050000 0 0 0 0 0 0 0 0 0 0 0 0
0.00150000 0.00179520 26271.03332272 0 -18974.97036846 0 -1021.15113168 0 -34638.86102373 0 -17298.72459255 0 3
0.00250000 0.00253879 44480.92821089 0 -13233.99335455 0 1541.95937611 0 -45560.16246701 0 -2820.69543945 0 6
0.00350000 0.00331552 46388.83862254 0 501.66872516 0 -19846.15681989 0 6131.14903200 0 18013.93011332 0 7
0.00450000 0.00420575 40706.18968904 0 10953.62904038 0 4278.32625184 0 -20942.52700923 0 7485.46993927 0 24
0.00550000 0.00557378 34239.35211895 0 -3195.89548511 0 7562.01044102 0 -926.60581701 0 -14925.83722353 0 45
0.00650000 0.00659388 58109.04802966 0 -15264.49159621 0 -9856.24827036 0 9475.14950922 0 -15795.04645189 0 40
0.00750000 0.00754703 66299.03550058 0 -8785.50508885 0 -10027.06935857 0 -15783.84218786 0 -7481.08709481 0 57
0.00850000 0.00846663 91055.62580151 0 -5386.20827325 0 946.27259576 0 -33559.73661334 0 -27267.66359302 0 75
0.00950000 0.00948925 75070.10686106 0 -1143.95535777 0 11438.89450331 0 -25774.53064204 0 -18653.56177473 0 112
0.01050000 0.01054430 76915.73474618 0 1540.92682628 0 20290.59262653 0 4014.31204985 0 -8778.10148693 0 105
0.01150000 0.01145670 92586.65552790 0 -3381.11734797 0 22903.93228936 0 14301.25442655 0 -18575.90084658 0 144
0.01250000 0.01249090 98449.34160601 0 -983.69373918 0 30639.15845541 0 17436.80066990 0 -6655.06920584 0 169
0.01350000 0.01339930 101724.83130405 0 1741.94450452 0 32286.18526826 0 -5918.77330571 0 -3791.02864299 0 180
0.01450000 0.01448870 87862.30070639 0 8017.32097452 0 29009.26757580 0 1863.69750701 0 18262.29129939 0 267
0.01550000 0.01550050 86494.61157429 0 222.46395775 0 42474.92556609 0 15243.07167968 0 16112.39075377 0 238
0.01650000 0.01653350 74308.87598117 0 8304.23801034 0 31592.28981830 0 7967.45101500 0 14869.81590336 0 315
0.01750000 0.01747870 75155.78652720 0 6038.81271488 0 41370.86617594 0 1176.09621714 0 32604.18864449 0 297
0.01850000 0.01844180 70377.60730004 0 -3734.78763137 0 24269.97373557 0 11387.70639508 0 14640.56787359 0 388
0.01950000 0.01947590 65362.49084230 0 1048.36650871 0 28091.83607380 0 -315.91740590 0 13538.81524368 0 399
0.02050000 0.02045430 66961.73476442 0 6624.72981637 0 16122.60640627 0 7119.17838198 0 14286.20556212 0 462
0.02150000 0.02154770 65548.89903900 0 -3824.99294141 0 16530.46358621 0 4843.96583235 0 16961.49821430 0 571
0.02250000 0.02255340 62479.15038542 0 -457.16912318 0 18721.77597046 0 6580.73660318 0 3259.82569753 0 510
0.02350000 0.02348930 64973.52712719 0 2382.26819401 0 16885.26528059 0 -6990.45017590 0 4213.26462845 0 555
0.02450000 0.02439640 65635.01808804 0 2929.20104740 0 16441.37870258 0 -1611.45876683 0 3646.93301987 0 592
0.02550000 0.02547300 62089.41775024 0 1032.97382715 0 21930.58931293 0 2592.89737325 0 -2236.86540675 0 837
0.02650000 0.02652900 61480.87242923 0 -2622.97313298 0 18953.44060620 0 2898.56507447 0 7336.78276481 0 723
0.02750000 0.02749970 62408.29989227 0 -58.99824918 0 17708.77868701 0 4052.52737786 0 -555.66119477 0 826
0.02850000 0.02848090 62807.80879706 0 2298.45590521 0 14884.64507635 0 -361.63849235 0 6775.15255330 0 831
0.02950000 0.02946900 64982.20493953 0 18.30194561 0 18618.96037110 0 473.66136045 0 -4888.39842844 0 996
0.03050000 0.03053250 62453.66617703 0 -7.21602936 0 20132.30493563 0 -3285.74928882 0 4962.30263277 0 1041
0.03150000 0.03150510 59039.88071020 0 2800.11035043 0 26582.22626395 0 -4396.47631453 0 -130.22430487 0 1036
0.03250000 0.03246190 56659.52383183 0 2914.40482814 0 24242.95168702 0 -4041.42197498 0 -4994.43250757 0 1059
0.03350000 0.03345080 58414.08961024 0 -63.98810112 0 29000.15038055 0 3545.46852293 0 -5975.69536083 0 1302
0.03450000 0.03451200 57974.04763264 0 1464.28746338 0 28553.73735085 0 1887.66584439 0 -8407.76760692 0 1339
0.03550000 0.03553350 55066.54111608 0 1804.35884593 0 29246.53434355 0 -1068.52869168 0 -1188.93718249 0 1365
0.03650000 0.03647120 55176.82622480 0 1665.28317248 0 32918.45726604 0 -1289.23731473 0 -6428.30368947 0 1308
0.03750000 0.03744890 47985.88563015 0 3118.24554153 0 29616.93413100 0 4179.32229917 0 -4264.87015043 0 1579
0.03850000 0.03847530 49348.52185886 0 -1111.51791493 0 29876.38973537 0 5981.75884490 0 1042.25359406 0 1662
0.03950000 0.03950240 48447.01798711 0 1400.29134352 0 22046.47655366 0 7746.55126039 0 2457.69925392 0 1683
0.04050000 0.04050350 47622.95535206 0 111.76582910 0 17065.96149955 0 4026.62575572 0 2753.15130264 0 1822
0.04150000 0.04152450 45334.20980901 0 992.54291085 0 18245.04552043 0 -664.64353318 0 3594.65743895 0 1887
0.04250000 0.04250150 42790.07295345 0 1995.53434713 0 16647.77882138 0 1071.30119780 0 7693.89121943 0 1920
0.04350000 0.04349210 42500.73931165 0 737.41742499 0 15605.34288341 0 1544.50779694 0 4770.33624234 0 2005
0.04450000 0.04448520 40488.25576902 0 2103.41383446 0 18527.23919005 0 165.12448887 0 4094.02709307 0 2151
0.04550000 0.04548030 38585.06872358 0 -357.73127988 0 14559.28203649 0 -207.33051210 0 -442.53767250 0 2274
0.04650000 0.04648670 39082.77970724 0 249.48600630 0 16006.49947408 0 4164.77872507 0 4076.39685408 0 2311
0.04750000 0.04749250 40605.57100419 0 -1614.71020031 0 12830.85954082 0 3183.53784095 0 5801.33724025 0 2568
0.04850000 0.04851840 37885.68098733 0 1340.39246924 0 11159.22728539 0 1230.07440680 0 6882.40591999 0 2493
0.04950000 0.04949480 38651.74507915 0 1256.63510331 0 12120.48723198 0 -1353.51903347 0 7990.62846314 0 2644
0.05050000 0.05050630 38699.96735278 0 150.87200595 0 12909.28938905 0 1560.50133462 0 5616.65362144 0 2829
0.05150000 0.05149060 38345.49519558 0 390.05448316 0 12418.27899466 0 -610.67193426 0 2312.40631239 0 2784
0.05250000 0.05249300 35193.69178482 0 1221.44053276 0 12688.82901734 0 -1465.44084350 0 5484.10278410 0 3055
0.05350000 0.05348950 35012.22664577 0 1410.15548970 0 14775.45842489 0 -845.48145313 0 2917.71118448 0 3009
0.05450000 0.05448610 32930.21075871 0 912.84873831 0 15925.65301988 0 -342.04860561 0 2547.55305764 0 3336
0.05550000 0.05550870 32807.95246588 0 958.86201440 0 15852.93514939 0 987.64488993 0 421.67796917 0 3349
0.05650000 0.05647670 32837.50096612 0 -563.91719952 0 16245.30408200 0 359.95345892 0 2013.96645993 0 3324
0.05750000 0.05747970 31913.03933767 0 358.57379660 0 15369.94349299 0 182.07697974 0 1242.71764985 0 3639
0.05850000 0.05849280 32630.55161869 0 -141.11111475 0 15859.19635577 0 662.52241221 0 286.21622009 0 3846
0.05950000 0.05951020 33504.70390471 0 490.19424064 0 15158.05108790 0 137.49609192 0 -3469.08180520 0 3787
0.06050000 0.06049470 33005.89446379 0 221.16338435 0 15834.48106746 0 -203.53314536 0 -522.38123522 0 3930
0.06150000 0.06148310 32086.59558446 0 -414.29523794 0 15149.70281274 0 -1424.96269354 0 -2628.44345013 0 4083
0.06250000 0.06249100 32691.18645934 0 -21.54184529 0 14578.17550133 0 3818.55598188 0 -837.48029046 0 4303
0.06350000 0.06350600 33165.93968630 0 -119.38802401 0 14208.43478824 0 439.19506706 0 -3475.77140991 0 4470
0.06450000 0.06451750 33057.74164637 0 -6.88725012 0 11201.84742700 0 3850.32336579 0 1565.82885233 0 4479
0.06550000 0.06550280 33193.51096348 0 502.60021692 0 11505.24132170 0 -373.85333706 0 -812.28387787 0 4636
0.06650000 0.06648880 30498.77561783 0 492.85799949 0 12276.68785409 0 -1552.29585891 0 1287.26009166 0 4653
0.06750000 0.06749660 30798.32491212 0 1316.13853298 0 11043.88927328 0 1085.58114215 0 -1732.56367954 0 5220
0.06850000 0.06852730 30320.49600483 0 430.83031504 0 12557.78306644 0 -798.82557955 0 218.71602158 0 5029
0.06950000 0.06949320 28947.97366079 0 326.21434423 0 11729.76598526 0 675.98949820 0 -2222.57447782 0 5040
0.07050000 0.07048030 29299.91936630 0 267.23268176 0 11178.34044168 0 642.10758407 0 -1570.69501798 0 5475
0.07150000 0.07148790 27810.74086144 0 73.75261723 0 10906.64802345 0 1236.91779552 0 -490.92471472 0 5509
0.07250000 0.07249820 28232.65829429 0 702.23603592 0 11399.67957919 0 -678.09524076 0 -2915.83282257 0 5916
0.07350000 0.07351270 27137.05702503 0 815.36285357 0 11641.34017598 0 -861.03560790 0 -1054.63101045 0 5721
0.07450000 0.07449140 25550.44536138 0 720.31334702 0 11861.03162761 0 165.51773657 0 -696.34500965 0 6028
0.07550000 0.07549160 25488.82190920 0 -106.14974668 0 11670.55913905 0 1171.31792807 0 -1597.79395854 0 6183
0.07650000 0.07648840 26090.66664093 0 114.61412877 0 11252.92568951 0 1599.30982955 0 -686.35563934 0 6330
0.07750000 0.07749960 25895.80032334 0 178.23897008 0 9842.84709181 0 1479.79767987 0 194.30939976 0 6583
0.07850000 0.07848650 25739.59970123 0 -452.16345345 0 9990.18316384 0 727.27097529 0 2639.81248275 0 6549
0.07950000 0.07947320 24968.48270602 0 -189.04229721 0 8285.03697747 0 232.35117153 0 587.82182637 0 6828
0.08050000 0.08048110 25589.33074832 0 1055.27580486 0 9312.90737220 0 761.81086532 0 2036.15529654 0 7147
0.08150000 0.08149960 24479.11999752 0 505.84396120 0 8993.41009410 0 -841.15243307 0 1709.93546002 0 7386
0.08250000 0.08250610 24240.31538960 0 263.65830184 0 9810.99183133 0 658.38452372 0 872.23657657 0 7227
0.08350000 0.08350160 23156.02823010 0 160.55270976 0 9218.01164967 0 295.18292669 0 2066.65945460 0 7798
0.08450000 0.08449610 23336.17522043 0 733.15321391 0 9460.91350316 0 -446.56791218 0 -242.67117747 0 7371
0.08550000 0.08548940 21877.20429018 0 702.18770381 0 9186.23328119 0 -396.27504662 0 2039.54952947 0 8256
0.08650000 0.08650700 21805.03564832 0 118.95083803 0 9184.86020962 0 1596.04741150 0 223.56241500 0 8037
0.08750000 0.08749060 21476.59692814 0 -195.52319503 0 7670.19749637 0 910.09929980 0 1395.57896189 0 8155
0.08850000 0.08849210 21403.87905765 0 258.17150784 0 8113.57878405 0 392.12507509 0 -1133.13555377 0 8718
0.08950000 0.08949900 20585.63824607 0 918.86059489 0 7185.05286375 0 -836.98049241 0 1176.25000116 0 8571
0.09050000 0.09049190 20170.20171104 0 272.53603340 0 8182.62780729 0 -34.98630305 0 198.74057634 0 8932
0.09150000 0.09150830 19400.84224744 0 -237.92254674 0 7042.25342019 0 1221.31970246 0 879.95323880 0 9285
0.09250000 0.09250820 19592.96242189 0 420.36970657 0 7920.07455345 0 149.16500337 0 -208.21477019 0 9204
0.09350000 0.09350330 19493.55204003 0 596.52050940 0 6742.63821846 0 -239.43731930 0 -392.05257692 0 9349
0.09450000 0.09448040 18752.64261942 0 511.48014539 0 8355.07461225 0 -356.00999736 0 1246.48535824 0 9564
0.09550000 0.09549270 18760.22197450 0 -278.33478927 0 8340.69580674 0 -126.27095719 0 281.19517197 0 10155
0.09650000 0.09649430 18754.07061385 0 125.29662561 0 8002.87626157 0 635.23014318 0 -506.07024340 0 9913
0.09750000 0.09749140 18497.25130690 0 169.20415913 0 7737.01665139 0 -40.02163113 0 157.57149676 0 10476
0.09850000 0.09850240 18231.97387906 0 502.76278859 0 7324.41413609 0 445.62214048 0 560.56910180 0 10575
0.09950000 0.09950330 17709.32791564 0 130.46047318 0 7808.58114175 0 278.95431916 0 725.99896179 0 10882
0.10050000 0.10051200 17075.18854052 0 320.12120182 0 7888.49390728 0 910.77265409 0 624.88597118 0 10875
0.10150000 0.10150300 16870.76564478 0 234.84576796 0 6867.42296298 0 617.53070138 0 1596.42088696 0 11118
0.10250000 0.10250800 16770.80603429 0 169.58532380 0 6419.58193884 0 870.79540064 0 1940.47966936 0 11575
0.10350000 0.10349800 16168.52191966 0 -34.48562624 0 5785.09105740 0 797.30970853 0 2528.01150302 0 11364
0.10450000 0.10450100 16558.58409202 0 145.54668516 0 5023.72836264 0 911.62505693 0 2358.88203898 0 12093
0.10550000 0.10551000 16247.28130506 0 72.08856433 0 5452.67592194 0 -274.97900234 0 2752.08579910 0 12067
0.10650000 0.10649700 15837.55674778 0 59.22002770 0 4880.76415050 0 -372.91525456 0 2096.98785950 0 12054
0.10750000 0.10749900 15576.12392034 0 190.34836289 0 5163.47409502 0 45.98416697 0 1801.62368736 0 12807
0.10850000 0.10850100 15835.24998754 0 337.25823351 0 5286.61115366 0 215.76117156 0 1755.55438995 0 12736
0.10950000 0.10950300 15581.50636091 0 -8.68371105 0 5161.44194909 0 64.35806153 0 2151.44937035 0 12933
0.11050000 0.11050200 15434.31308832 0 165.90109815 0 5719.12869905 0 -27.51953984 0 2265.23855772 0 13428
0.11150000 0.11150900 15130.80934790 0 334.46815207 0 5433.51882736 0 -224.82783777 0 974.32499722 0 13453
0.11250000 0.11250000 15078.74247386 0 142.61929657 0 5952.48495897 0 43.87194351 0 2319.98566747 0 13668
0.11350000 0.11349100 14525.66924439 0 -52.37916543 0 5516.24364347 0 248.34470921 0 938.88547070 0 13791
0.11450000 0.11448600 14546.32024084 0 170.75298386 0 5839.02530877 0 249.48380938 0 1271.53018373 0 14205
0.11550000 0.11549300 14690.98706174 0 185.56348307 0 4792.92052356 0 227.86287517 0 684.35425022 0 14776
0.11650000 0.11649800 14210.96123994 0 -161.42268791 0 4743.64373096 0 944.14708097 0 1364.63542093 0 14553
0.11750000 0.11747300 14303.23164962 0 63.36955984 0 4185.84713528 0 233.97139598 0 451.15287277 0 14568
0.11850000 0.11849100 14284.77756768 0 375.18906109 0 3282.84936166 0 13.34713445 0 749.09402564 0 16015
0.11950000 0.11950300 13854.62170540 0 117.59753868 0 3785.73407901 0 67.09607609 0 857.86436180 0 15270
0.12050000 0.12050700 13365.25899690 0 275.67652270 0 3659.70807778 0 -459.42535439 0 -552.81728893 0 15999
0.12150000 0.12150000 12838.65858735 0 330.36211884 0 4051.82436522 0 167.26757898 0 1015.26999152 0 15670
0.12250000 0.12250700 13009.35884526 0 192.79133183 0 4205.46558191 0 -73.89464775 0 215.47667113 0 16887
0.12350000 0.12352200 13014.63144010 0 -151.84963291 0 3923.01926713 0 689.94979149 0 630.52435228 0 16407
0.12450000 0.12449800 13150.07122003 0 -88.94395157 0 4068.19137836 0 265.65529714 0 368.07545188 0 16306
0.12550000 0.12549900 12986.73062574 0 -38.73764444 0 3321.54801086 0 -96.81110245 0 1006.40983527 0 17523
0.12650000 0.12650100 13276.06426754 0 -33.35081004 0 3799.90417764 0 91.36418245 0 390.35546045 0 17154
0.12750000 0.12750600 13130.29898938 0 340.73704764 0 4164.94349366 0 -886.22103592 0 47.13491079 0 18007
0.12850000 0.12850300 12483.08797289 0 433.12609071 0 4780.69469428 0 -498.77758566 0 12.18057284 0 17496
0.12950000 0.12949900 12580.41128596 0 170.10599254 0 4698.69485996 0 -240.39627249 0 -522.95243300 0 18405
0.13050000 0.13049000 12288.55119247 0 -1.76146409 0 5236.27984209 0 125.22193051 0 -76.59256862 0 18100
0.13150000 0.13148800 12512.52662741 0 130.08370234 0 4644.06858051 0 690.19804283 0 -557.07930309 0 19059
0.13250000 0.13249300 12495.28084846 0 -285.58570563 0 4232.09218585 0 658.01104825 0 -87.27748206 0 18957
0.13350000 0.13349100 12320.40645296 0 -8.49276623 0 3948.36067607 0 391.95042039 0 -493.65547946 0 19468
0.13450000 0.13450700 12567.88887322 0 106.10284255 0 3692.65081095 0 -35.99512620 0 409.04790761 0 19953
0.13550000 0.13551000 12192.65587384 0 119.35067647 0 3558.03487397 0 24.49779377 0 -131.03167095 0 19956
0.13650000 0.13649900 12094.12425778 0 163.46581841 0 3492.96226600 0 -10.94692845 0 -180.64239456 0 19723
0.13750000 0.13749600 11713.06943494 0 112.19422743 0 3926.33660805 0 -67.13803715 0 145.36653817 0 20946
0.13850000 0.13851100 11514.24867122 0 422.92252124 0 3793.34638781 0 -169.14264552 0 51.41548888 0 20955
0.13950000 0.13949800 11344.42717911 0 351.60738067 0 4261.12441118 0 -264.84134031 0 -241.29261361 0 20506
0.14050000 0.14048300 11075.85437949 0 51.10187933 0 4229.13733583 0 -123.77745922 0 -619.88030145 0 21447
0.14150000 0.14148400 10896.70698527 0 62.30592368 0 4195.93097291 0 252.14866669 0 -367.86235118 0 21771
0.14250000 0.14249400 10770.57113831 0 -25.54978629 0 3749.95732611 0 449.83252715 0 -470.25614295 0 22470
0.14350000 0.14350900 10892.04952649 0 87.38183550 0 3706.64515642 0 252.83300556 0 -15.93037639 0 22519
0.14450000 0.14449900 10564.91797045 0 -4.22828054 0 3292.49381639 0 -135.13880264 0 -726.25270542 0 22218
0.14550000 0.14550500 10476.79972920 0 214.93403324 0 3448.83723794 0 235.88161315 0 -459.51213251 0 23559
0.14650000 0.14650700 10296.97129147 0 289.67965583 0 3384.62142663 0 -262.48405103 0 -840.97338454 0 23044
0.14750000 0.14750500 10042.26102245 0 144.01982957 0 3274.89653111 0 149.84165304 0 -247.50329095 0 23649
0.14850000 0.14849900 9984.69087755 0 -18.73133255 0 3290.18705614 0 541.99858339 0 -659.82789656 0 23640
0.14950000 0.14949500 9921.21103261 0 -79.15592848 0 2847.02545992 0 249.09495551 0 -576.33416037 0 24457
0.15050000 0.15050000 9889.03721952 0 100.50719143 0 2435.08201898 0 271.35409339 0 -298.35087742 0 24591
0.15150000 0.15149900 9706.34180834 0 110.83104197 0 2779.50329227 0 -246.30487408 0 -203.22667578 0 25020
0.15250000 0.15250500 9564.46506888 0 92.15375352 0 2623.41251588 0 -24.32961996 0 -211.24980760 0 25297
0.15350000 0.15350100 9643.87254407 0 123.14474784 0 2567.63285632 0 269.31206135 0 -633.25292011 0 25452
0.15450000 0.15450400 9711.76818720 0 12.53702222 0 2423.75692465 0 73.24655797 0 -358.41452030 0 26061
0.15550000 0.15549900 9671.78434300 0 -66.07220408 0 2773.24208589 0 5.70432150 0 -392.16461956 0 26128
0.15650000 0.15649500 9342.88427077 0 296.27699012 0 2643.87677460 0 -174.33944681 0 -417.29622316 0 26331
0.15750000 0.15749700 9433.97933119 0 105.45552169 0 2914.30596698 0 -175.53786368 0 149.12765582 0 27345
0.15850000 0.15849900 9077.40912063 0 47.06175354 0 2801.05502367 0 402.69333237 0 -38.10833827 0 26980
0.15950000 0.15949700 9103.12400504 0 43.63335859 0 2502.92273924 0 431.50366934 0 219.51569847 0 27777
0.16050000 0.16050000 9093.99582522 0 -145.38411349 0 2318.40388902 0 560.28789674 0 311.00949887 0 28224
0.16150000 0.16150500 9118.85391297 0 115.22816638 0 2191.57601399 0 114.88434926 0 394.23850686 0 28075
0.16250000 0.16249700 9057.03273849 0 116.22666403 0 1853.86631455 0 -151.33555491 0 417.65981252 0 28590
0.16350000 0.16349900 8905.16003798 0 107.89003251 0 1914.16063345 0 -139.39312760 0 515.88935283 0 29163
0.16450000 0.16449100 8764.74424667 0 113.30037389 0 1926.06791013 0 153.57201389 0 401.46745407 0 28996
0.16550000 0.16550500 8648.70322192 0 -6.07438076 0 1796.90032115 0 121.08184511 0 183.40171919 0 30777
0.16650000 0.16650700 8528.32329100 0 193.34495429 0 1706.56319624 0 8.17465301 0 309.26514874 0 29211
0.16750000 0.16749900 8464.65670832 0 149.11557279 0 2043.19640757 0 -321.64586050 0 -54.33507843 0 30922
0.16850000 0.16850800 8162.92148408 0 130.53297136 0 1840.91550348 0 267.54354516 0 480.19278731 0 30867
0.16950000 0.16949900 8377.65889348 0 -65.50561982 0 1844.49647414 0 187.66593027 0 450.32134063 0 30852
0.17050000 0.17049200 8308.20344104 0 -66.99359002 0 1606.37290972 0 138.89662492 0 -95.40024395 0 31257
0.17150000 0.17149500 8211.78086293 0 258.91406494 0 1913.15005277 0 -192.97916802 0 406.68183068 0 32608
0.17250000 0.17250900 7936.71618092 0 168.64943821 0 1797.92188640 0 41.60472773 0 481.99865104 0 32361
0.17350000 0.17350400 7992.67159365 0 35.88528047 0 2046.40390276 0 70.81325545 0 593.88311352 0 32508
0.17450000 0.17449800 7933.88216119 0 40.86074263 0 1876.42862664 0 -77.02722816 0 288.92721261 0 32791
0.17550000 0.17549800 7692.13368782 0 71.47287903 0 1997.16006388 0 -24.15639326 0 566.60073060 0 33633
0.17650000 0.17650100 7523.67428271 0 78.26387134 0 1939.42515039 0 43.86667091 0 278.03381198 0 33984
0.17750000 0.17750300 7609.95810034 0 155.74146697 0 2016.19632816 0 86.24493224 0 596.95769539 0 34069
0.17850000 0.17849800 7509.61402981 0 26.98459116 0 1958.62618326 0 -49.78417001 0 238.15212431 0 34536
