### header ###
fiducial parameters:
Omega_m = 0.31
Omega_nu = 0
Omega_de = 0.69
Omega_k = 0
H_0 = 100
w_de = -1
zeff = 0
beta = 0
fgrowth = 0
b_1 = 2
gamma = 0.55
Lx = 3500 Ly = 3500 Lz = 3500
nx = 700 ny = 700 nz = 700
xoffset = -983.599254 yoffset = -42.9823471 zoffset = 800.977702
bins = 400 dk = 0.001
kx_ny = 0.628318531 ky_ny = 0.628318531 kz_ny = 0.628318531
############################
A(data) = 9.08931541 (not used)
A(ran) = 9.07720608 (used)
Ngal = 504005
weighted Ngal = 0
Nran = 25229228
weighted Nran = 0
SN(data) = 6749.44329
SN(ran) = 134.744871
SN(data+ran) = 6884.18816
############################
13 columns: k_central k_mean P_0(k) sigma^{lin}_{P_0(k)} P^img_1(k) sigma^{lin}_{P_1(k)} P_2(k) sigma^{lin}_{P_2(k)} P^img_3(k) sigma^{lin}_{P_3(k)} P_4(k) sigma^{lin}_{P_4(k)} N_modes
### header ###
0.00050000 0 0 0 0 0 0 0 0 0 0 0 0
0.00150000 0.00179520 32221.04675285 0 -10070.40349741 0 47514.97700358 0 -99007.02835597 0 -41418.20968376 0 3
0.00250000 0.00253879 46572.94005901 0 -18083.35261204 0 -420.56523196 0 -44401.83928831 0 -10887.09548426 0 6
0.00350000 0.00331552 37413.67390351 0 -20889.14198649 0 -43509.89199470 0 61662.55725973 0 3089.59777624 0 7
0.00450000 0.00420575 48509.73989655 0 -22111.50522334 0 -19350.86244220 0 1249.65989972 0 -46071.27462922 0 24
0.00550000 0.00557378 87801.00679139 0 -15923.23641392 0 -16074.27428691 0 -14492.60568092 0 -34238.03397024 0 45
0.00650000 0.00659388 93424.66857013 0 -8796.51163058 0 3619.70226444 0 -47790.14054675 0 -1733.34358419 0 40
0.00750000 0.00754703 84211.90754616 0 29098.68199661 0 -15167.49782032 0 -40199.25166441 0 31900.40707920 0 57
0.00850000 0.00846663 81835.61495964 0 9185.79389829 0 36858.07422234 0 27853.03146588 0 26588.92685322 0 75
0.00950000 0.00948925 78346.14578772 0 -11680.44525437 0 42338.38732890 0 47008.80789904 0 -10022.85128270 0 112
0.01050000 0.01054430 104028.07648290 0 -5574.96716849 0 26205.01604150 0 -10259.55783726 0 -7382.79713936 0 105
0.01150000 0.01145670 99592.83561173 0 2963.37405270 0 27687.27426563 0 -43356.21782429 0 -27899.38636218 0 144
0.01250000 0.01249090 83771.97541428 0 17477.77312563 0 53302.74829669 0 -19592.96242189 0 11429.88715379 0 169
0.01350000 0.01339930 68935.33292011 0 4476.90535497 0 60194.90851713 0 4006.90844793 0 14217.00275486 0 180
0.01450000 0.01448870 84319.99574036 0 -300.58843486 0 74358.41640352 0 14671.65421400 0 -41040.88961559 0 267
0.01550000 0.01550050 89536.89879642 0 6964.79021435 0 75172.59292324 0 14237.76359703 0 -6598.76228679 0 238
0.01650000 0.01653350 82521.60151734 0 -7726.04306338 0 57971.08179804 0 11741.84901510 0 1866.58644960 0 315
0.01750000 0.01747870 77843.38190067 0 -3552.33388080 0 59207.72497925 0 9265.15743519 0 -4335.19338410 0 297
0.01850000 0.01844180 88753.14954274 0 13703.36414095 0 58330.49701290 0 -2797.94638963 0 -16196.53257974 0 388
0.01950000 0.01947590 76041.80215161 0 3452.15457886 0 65130.38682366 0 4383.77814863 0 15970.57992174 0 399
0.02050000 0.02045430 76369.91133461 0 -3065.19005596 0 54683.61891589 0 11542.47902275 0 -11447.57231565 0 462
0.02150000 0.02154770 75331.42984277 0 2159.61090778 0 49263.06188418 0 20049.37141265 0 1556.49196563 0 571
0.02250000 0.02255340 74724.97159056 0 -2454.70046561 0 31807.58744089 0 9332.67960284 0 -4450.45450419 0 510
0.02350000 0.02348930 73149.01496231 0 1250.62654210 0 33076.74495694 0 6658.90282167 0 7322.82137306 0 555
0.02450000 0.02439640 70175.38131881 0 5918.07029307 0 32083.84944131 0 1139.48463673 0 10189.87170880 0 592
0.02550000 0.02547300 67462.30173695 0 -930.12637253 0 24317.53693485 0 2444.35299824 0 7676.04128899 0 837
0.02650000 0.02652900 67806.00901302 0 3374.04328323 0 22427.31168505 0 3798.33338376 0 554.55834368 0 723
0.02750000 0.02749970 65609.97326256 0 352.45868505 0 28302.63002164 0 -6213.20378919 0 -3247.83054427 0 826
0.02850000 0.02848090 60577.28148869 0 3934.26746945 0 27624.66220192 0 418.86372167 0 4284.47761249 0 831
0.02950000 0.02946900 59811.10755114 0 2034.17807348 0 34231.99245532 0 -2653.03790814 0 -2071.34986709 0 996
0.03050000 0.03053250 55034.57600987 0 3763.76493384 0 29532.90215075 0 3891.53748211 0 -4734.20798312 0 1041
0.03150000 0.03150510 55044.13258801 0 -1133.06964634 0 35683.71356767 0 7543.42454421 0 5269.14568325 0 1036
0.03250000 0.03246190 55204.06796480 0 -1324.80536075 0 24647.62334092 0 5723.48957436 0 6842.10352318 0 1059
0.03350000 0.03345080 55193.19323794 0 1364.37179118 0 26431.29823668 0 3467.96137880 0 4063.32521271 0 1302
0.03450000 0.03451200 51782.92283434 0 2631.23353156 0 23785.00485611 0 808.76442082 0 5090.28388791 0 1339
0.03550000 0.03553350 48976.69407698 0 2235.99762551 0 27850.83455137 0 -2164.60888831 0 5515.50767711 0 1365
0.03650000 0.03647120 49750.44736961 0 1747.11823821 0 27661.68021152 0 141.40989513 0 -1099.06140963 0 1308
0.03750000 0.03744890 45827.74665509 0 -234.78425435 0 27875.00061105 0 858.90020699 0 -805.45916293 0 1579
0.03850000 0.03847530 46162.77611882 0 1268.22382738 0 26084.73497174 0 495.91280913 0 -48.10979161 0 1662
0.03950000 0.03950240 48047.61892805 0 -937.74197670 0 26199.52375521 0 609.59654460 0 -5266.03704921 0 1683
0.04050000 0.04050350 45873.66216848 0 1427.25846921 0 24046.87706645 0 1926.70501534 0 -4926.70163303 0 1822
0.04150000 0.04152450 44880.32726995 0 2019.28299306 0 26382.41688869 0 -1020.43054372 0 -3344.40690641 0 1887
0.04250000 0.04250150 42762.94105917 0 751.31510622 0 22755.97009669 0 2173.82494470 0 102.89842304 0 1920
0.04350000 0.04349210 41630.43162603 0 -1275.55053729 0 27163.31015350 0 3622.22871613 0 -2686.39805507 0 2005
0.04450000 0.04448520 42026.75500477 0 1586.50181792 0 20546.31347623 0 4651.40627500 0 331.68246447 0 2151
0.04550000 0.04548030 41950.52207105 0 689.35223074 0 16900.86337365 0 2576.77202070 0 1155.34635953 0 2274
0.04650000 0.04648670 40709.15552364 0 474.86746652 0 19561.10716140 0 239.32747357 0 -886.36603228 0 2311
0.04750000 0.04749250 39075.96927224 0 694.70391451 0 17423.06995417 0 1985.81300040 0 264.86001408 0 2568
0.04850000 0.04851840 38087.79712282 0 -438.53928808 0 14553.89959592 0 742.56150033 0 1279.51596799 0 2493
0.04950000 0.04949480 36885.53565380 0 115.21498489 0 12501.43220910 0 1149.85407324 0 1509.59882528 0 2644
0.05050000 0.05050630 38474.12454051 0 1642.95153642 0 14092.65739323 0 2441.84851569 0 1499.18545047 0 2829
0.05150000 0.05149060 36094.09719931 0 -190.36593821 0 11109.02778869 0 2805.24014582 0 3973.27368669 0 2784
0.05250000 0.05249300 36318.73170860 0 107.47239906 0 11319.49219935 0 452.60393481 0 990.10653265 0 3055
0.05350000 0.05348950 35680.96742453 0 1041.00464816 0 9851.38210471 0 -382.17195388 0 5033.93303057 0 3009
0.05450000 0.05448610 36257.10825642 0 -282.73411059 0 9899.37370231 0 -6.90981243 0 1099.75343770 0 3336
0.05550000 0.05550870 34860.41985270 0 -183.84659438 0 11586.19762162 0 843.78104129 0 1137.67218225 0 3349
0.05650000 0.05647670 34032.62246297 0 1204.88678187 0 11381.44518871 0 -849.39965017 0 1071.76584522 0 3324
0.05750000 0.05747970 34564.71515881 0 20.13801691 0 10884.01980393 0 1011.34410528 0 2379.50008172 0 3639
0.05850000 0.05849280 34060.52327733 0 -142.20627664 0 10904.00074146 0 1738.80291676 0 -2120.40696824 0 3846
0.05950000 0.05951020 33236.90002518 0 1601.58363608 0 10018.10594735 0 -656.74562549 0 2054.79611621 0 3787
0.06050000 0.06049470 32291.56770883 0 375.38348802 0 9841.49598938 0 42.76744473 0 2133.62140905 0 3930
0.06150000 0.06148310 31933.58048840 0 -189.54648909 0 9326.78088737 0 2713.99130139 0 522.04620576 0 4083
0.06250000 0.06249100 30855.00530664 0 1340.00800920 0 8113.93029037 0 164.22814775 0 1246.32058965 0 4303
0.06350000 0.06350600 29540.15196865 0 1326.96932154 0 10756.76353058 0 -1759.44292864 0 2381.62010422 0 4470
0.06450000 0.06451750 28120.72549969 0 565.49787952 0 10919.91738713 0 -1287.30402995 0 1196.28586154 0 4479
0.06550000 0.06550280 28286.26300849 0 228.66474897 0 11959.89278084 0 963.21410206 0 317.64308225 0 4636
0.06650000 0.06648880 27246.46336794 0 -268.79908181 0 10685.07820991 0 349.71254190 0 511.17038044 0 4653
0.06750000 0.06749660 28030.98154170 0 423.55413416 0 11061.46458941 0 1388.19732911 0 -569.47759016 0 5220
0.06850000 0.06852730 28021.53480928 0 6.26147000 0 9911.87414591 0 -496.44665936 0 -1185.23538153 0 5029
0.06950000 0.06949320 28257.04404542 0 -406.71368594 0 10186.58732160 0 279.90228777 0 -1036.22855600 0 5040
0.07050000 0.07048030 26946.91407365 0 473.50208415 0 10563.96231263 0 -865.08342290 0 -1621.35586672 0 5475
0.07150000 0.07148790 27070.27082374 0 764.29557564 0 10667.11843374 0 -566.53592163 0 -1985.36263292 0 5509
0.07250000 0.07249820 27051.92658753 0 259.57643467 0 9761.27565582 0 714.10706351 0 -2340.65863307 0 5916
0.07350000 0.07351270 26951.63743986 0 -231.64266660 0 10256.52609522 0 798.72891531 0 -3170.52112244 0 5721
0.07450000 0.07449140 26544.54917999 0 160.94485900 0 9449.20394879 0 -39.82775342 0 -3746.07977199 0 6028
0.07550000 0.07549160 25717.74040180 0 291.03405363 0 9740.63564394 0 -183.57527544 0 -1725.64339881 0 6183
0.07650000 0.07648840 25615.36418534 0 234.28885013 0 9233.79648047 0 538.08258327 0 -2386.17870185 0 6330
0.07750000 0.07749960 27198.46078576 0 -784.65328400 0 9388.30547840 0 1234.00688379 0 -4876.34835232 0 6583
0.07850000 0.07848650 26184.47489078 0 918.31905546 0 8993.94833815 0 -876.72267601 0 -3765.34671230 0 6549
0.07950000 0.07947320 25349.42768314 0 1201.80011698 0 9804.37911863 0 -2019.87615998 0 -1807.06105078 0 6828
0.08050000 0.08048110 24130.24997234 0 104.36266656 0 10096.82139446 0 720.79007747 0 -2319.68908401 0 7147
0.08150000 0.08149960 24101.58023790 0 326.38680202 0 10190.68456717 0 1577.00016264 0 -3953.02911942 0 7386
0.08250000 0.08250610 23251.59401156 0 549.04298979 0 9813.39745272 0 653.28878050 0 -376.00301792 0 7227
0.08350000 0.08350160 23004.55097420 0 423.69034286 0 10375.23637111 0 385.17513602 0 -1172.44933904 0 7798
0.08450000 0.08449610 22072.72968213 0 537.15658380 0 9053.21010723 0 361.95155267 0 -867.49453658 0 7371
0.08550000 0.08548940 21793.72153856 0 597.72112318 0 9386.73468452 0 -1.83898222 0 -273.14128335 0 8256
0.08650000 0.08650700 20755.02035527 0 400.24706806 0 9097.88436392 0 1292.14822646 0 586.53223755 0 8037
0.08750000 0.08749060 20588.05485203 0 -248.87746098 0 8629.42529704 0 1213.48770221 0 -233.96590370 0 8155
0.08850000 0.08849210 20248.08233064 0 377.23878233 0 8135.07559259 0 249.77490056 0 752.95949673 0 8718
0.08950000 0.08949900 20050.90925281 0 635.94743577 0 7881.16719737 0 224.61254014 0 1404.91584858 0 8571
0.09050000 0.09049190 19455.65526462 0 -35.41448169 0 7624.89711905 0 -219.43660954 0 70.28489751 0 8932
0.09150000 0.09150830 19247.38776848 0 362.61062703 0 7653.46799233 0 -502.42446376 0 -802.97445261 0 9285
0.09250000 0.09250820 18501.86482739 0 164.24352615 0 8538.84651153 0 544.50306594 0 887.17559528 0 9204
0.09350000 0.09350330 18629.94494368 0 40.12829133 0 7840.55723254 0 799.82627411 0 738.70042307 0 9349
0.09450000 0.09448040 18856.88621321 0 190.91187146 0 7654.67629532 0 476.34928536 0 -70.35937291 0 9564
0.09550000 0.09549270 18111.91250075 0 166.79414390 0 7414.71830728 0 303.24120914 0 -127.78792667 0 10155
0.09650000 0.09649430 18521.74690376 0 192.14763588 0 7167.80708479 0 -641.62975516 0 953.51472447 0 9913
0.09750000 0.09749140 17739.09610734 0 192.01911638 0 7204.71524867 0 1135.85972777 0 809.39713220 0 10476
0.09850000 0.09850240 18042.05061913 0 -14.86245624 0 6638.53742411 0 856.52863777 0 1379.42065562 0 10575
0.09950000 0.09950330 17715.91865919 0 8.62248305 0 6218.50933774 0 955.77864488 0 757.59498636 0 10882
0.10050000 0.10051200 17481.50788030 0 219.31468079 0 5377.23387745 0 445.59687596 0 2005.87082993 0 10875
0.10150000 0.10150300 17115.17238472 0 216.65531577 0 5000.57288364 0 -277.94703385 0 857.71167624 0 11118
0.10250000 0.10250800 16850.44418551 0 525.22514106 0 5661.83316846 0 -632.89482305 0 1867.94853660 0 11575
0.10350000 0.10349800 15954.43260005 0 342.33200758 0 5161.49687196 0 963.03065969 0 1472.48195453 0 11364
0.10450000 0.10450100 16205.10054635 0 -185.00656524 0 5466.65928284 0 116.98569799 0 1810.89466662 0 12093
0.10550000 0.10551000 16203.45286047 0 70.02280561 0 4864.92439683 0 612.29106026 0 1761.91445747 0 12067
0.10650000 0.10649700 16150.39737490 0 193.30870520 0 5142.61439169 0 197.97824701 0 1903.14310715 0 12054
0.10750000 0.10749900 15622.91819954 0 100.19391142 0 4860.28890720 0 -562.61333076 0 2048.95232360 0 12807
0.10850000 0.10850100 15796.14490915 0 352.47845728 0 5833.00576300 0 -533.96446701 0 978.02240435 0 12736
0.10950000 0.10950300 14822.14285836 0 366.56836853 0 5830.80884848 0 -272.08237055 0 2238.63392293 0 12933
0.11050000 0.11050200 15022.39161652 0 117.24383545 0 5896.00228675 0 728.78684631 0 1722.32605789 0 13428
0.11150000 0.11150900 15131.35857653 0 92.52810776 0 5751.97257107 0 461.36632836 0 1008.12452705 0 13453
0.11250000 0.11250000 14418.34997027 0 240.20953475 0 5491.59426260 0 60.97162764 0 1561.53388445 0 13668
0.11350000 0.11349100 14406.92601479 0 12.07435203 0 4828.24690898 0 692.45317558 0 1928.56140811 0 13791
0.11450000 0.11448600 14381.99103503 0 -94.08451185 0 4850.34786902 0 539.87636397 0 2012.26385118 0 14205
0.11550000 0.11549300 14141.97812412 0 392.96978873 0 4613.42162301 0 -470.73397186 0 563.46243822 0 14776
0.11650000 0.11649800 13907.56734524 0 339.37605910 0 4918.82569449 0 -163.82721085 0 1389.12003321 0 14553
0.11750000 0.11747300 13479.38870602 0 -102.23330717 0 4665.11502158 0 -98.09036577 0 1489.72773348 0 14568
0.11850000 0.11849100 13671.50888047 0 4.51947057 0 4606.67709545 0 668.01469850 0 769.14636289 0 16015
0.11950000 0.11950300 13927.01003871 0 15.64961071 0 4429.38609398 0 -63.55421050 0 756.13074284 0 15270
0.12050000 0.12050700 14022.79551162 0 116.51445983 0 4276.74447339 0 228.14188331 0 191.90158145 0 15999
0.12150000 0.12150000 13528.16020828 0 6.14204573 0 4596.68113440 0 -458.59162533 0 910.12566277 0 15670
0.12250000 0.12250700 13432.59442682 0 150.56883174 0 4449.86133727 0 64.13869961 0 807.97463005 0 16887
0.12350000 0.12352200 13331.64620480 0 163.57127031 0 4367.32325890 0 468.14271119 0 1323.63001148 0 16407
0.12450000 0.12449800 13459.72632110 0 122.72733408 0 4258.34531432 0 456.42436916 0 775.48226435 0 16306
0.12550000 0.12549900 13135.79127567 0 115.44236554 0 4158.78114844 0 263.12335316 0 1220.83638126 0 17523
0.12650000 0.12650100 12998.26442696 0 63.67515065 0 4135.28514769 0 16.53277035 0 941.75244415 0 17154
0.12750000 0.12750600 12781.09942702 0 380.55063097 0 4188.25275668 0 -335.42490834 0 1243.39869335 0 18007
0.12850000 0.12850300 12386.64342563 0 96.20750019 0 3975.61340065 0 133.84262307 0 677.01545728 0 17496
0.12950000 0.12949900 12317.11108119 0 47.19356841 0 4392.68663699 0 285.81638165 0 1025.58011134 0 18405
0.13050000 0.13049000 12201.00414900 0 -7.31900973 0 3999.06546311 0 99.85437828 0 853.70450416 0 18100
0.13150000 0.13148800 11990.21020117 0 264.78422053 0 3788.32643814 0 -158.13390688 0 397.59209687 0 19059
0.13250000 0.13249300 11861.03162761 0 293.60334515 0 4314.27875790 0 -156.14899462 0 299.50535600 0 18957
0.13350000 0.13349100 11684.39970050 0 3.78742570 0 4040.57616289 0 390.37852805 0 853.11682953 0 19468
0.13450000 0.13450700 11957.69586632 0 -323.38691525 0 3420.63984012 0 703.31581941 0 924.47590839 0 19953
0.13550000 0.13551000 11869.05036559 0 59.88602234 0 3363.47612441 0 219.25536410 0 306.64422972 0 19956
0.13650000 0.13649900 11775.90119010 0 332.32616042 0 3310.33276226 0 -412.66402891 0 845.09040234 0 19723
0.13750000 0.13749600 11409.56569452 0 162.54531123 0 3475.01347440 0 -66.43128975 0 569.88401935 0 20946
0.13850000 0.13851100 11549.50914920 0 -153.86749889 0 3357.02818030 0 498.83580389 0 595.65272817 0 20955
0.13950000 0.13949800 11407.91800863 0 138.82632365 0 3249.90662849 0 121.35975479 0 210.17991023 0 20506
0.14050000 0.14048300 11284.45141281 0 289.24027293 0 3302.67651517 0 -166.07794977 0 607.08986514 0 21447
0.14150000 0.14148400 10906.96657606 0 190.71085379 0 3401.88917472 0 -283.18228115 0 217.41544819 0 21771
0.14250000 0.14249400 10788.06956244 0 142.46331564 0 3325.60131815 0 140.55419692 0 -19.65227911 0 22470
0.14350000 0.14350900 10709.15639301 0 75.02968363 0 3337.01428906 0 111.03425657 0 -309.78252211 0 22519
0.14450000 0.14449900 10513.86167709 0 80.69003389 0 3113.52217532 0 -33.60883765 0 99.68499618 0 22218
0.14550000 0.14550500 10284.61364731 0 107.11858598 0 2900.43245181 0 102.19892546 0 -73.89003423 0 23559
0.14650000 0.14650700 10220.04632968 0 72.47236529 0 2657.67339777 0 274.22326375 0 0.92167814 0 23044
0.14750000 0.14750500 10337.33959571 0 -50.76113789 0 2627.19120885 0 600.80009888 0 -602.90584144 0 23649
0.14850000 0.14849900 10076.75258036 0 175.92122526 0 2368.31778683 0 -114.79866959 0 197.91783186 0 23640
0.14950000 0.14949500 10005.78125691 0 150.80390160 0 2207.70136654 0 -21.10784483 0 9.91066584 0 24457
0.15050000 0.15050000 9859.00539808 0 -102.04283468 0 2288.50388245 0 375.89646756 0 114.81514645 0 24591
0.15150000 0.15149900 10003.94683329 0 53.09393157 0 2091.39671205 0 105.59766206 0 -198.09688039 0 25020
0.15250000 0.15250500 9855.94070233 0 79.70405865 0 1930.04432540 0 -132.98362950 0 79.46250790 0 25297
0.15350000 0.15350100 9717.27145806 0 237.13385443 0 2405.93994792 0 -400.40085208 0 155.24825966 0 25452
0.15450000 0.15450400 9295.79340811 0 245.07679886 0 2396.58109208 0 -105.31140410 0 -156.46205493 0 26061
0.15550000 0.15549900 9287.54399411 0 191.22822715 0 3168.76359083 0 -248.55121917 0 104.21184838 0 26128
0.15650000 0.15649500 9152.24701362 0 180.63031153 0 2965.23044547 0 -109.53749871 0 -590.95352802 0 26331
0.15750000 0.15749700 9054.83582397 0 83.85600739 0 3326.42516109 0 136.62062148 0 -24.15694248 0 27345
0.15850000 0.15849900 8881.29056176 0 -139.01855367 0 2871.18053503 0 221.61485029 0 54.61749179 0 26980
0.15950000 0.15949700 9005.38327821 0 47.82100720 0 3059.93943027 0 251.37974661 0 25.61635280 0 27777
0.16050000 0.16050000 8853.34580911 0 172.30730088 0 2748.43892101 0 -126.97616675 0 41.27727762 0 28224
0.16150000 0.16150500 8994.81611939 0 -14.54928608 0 2878.54019866 0 192.48486226 0 209.03531777 0 28075
0.16250000 0.16249700 8918.67106225 0 23.73458567 0 2720.14266204 0 170.55965539 0 -27.35180542 0 28590
0.16350000 0.16349900 8714.17127451 0 174.13952759 0 2593.99583051 0 -98.83522964 0 70.07102788 0 29163
0.16450000 0.16449100 8442.18227282 0 53.08887867 0 2633.05697061 0 -99.01164188 0 253.66783308 0 28996
0.16550000 0.16550500 8462.29502522 0 110.58498755 0 2826.44037091 0 267.01738414 0 17.27071393 0 30777
0.16650000 0.16650700 8395.50882392 0 131.64570856 0 2627.37794659 0 103.90362128 0 -6.68258556 0 29211
0.16750000 0.16749900 8231.41029413 0 80.89061218 0 2391.69295728 0 -5.87357179 0 73.55610322 0 30922
0.16850000 0.16850800 8131.03326988 0 161.04481862 0 2676.35815573 0 81.61361675 0 -124.64633891 0 30867
0.16950000 0.16949900 7970.88918622 0 21.50570605 0 2339.70297525 0 -17.16921648 0 106.25618719 0 30852
0.17050000 0.17049200 7975.45876841 0 -111.86688717 0 2332.14558932 0 559.19712868 0 284.02369941 0 31257
0.17150000 0.17149500 8052.87803596 0 -22.90074676 0 1964.30520729 0 145.20396650 0 286.73359346 0 32608
0.17250000 0.17250900 7921.51353246 0 190.30222769 0 2123.64741715 0 -112.64349645 0 131.74017588 0 32361
0.17350000 0.17350400 7976.20571935 0 100.21851687 0 1917.53289723 0 -269.97552953 0 -115.58846036 0 32508
0.17450000 0.17449800 7738.22495437 0 50.25222265 0 2046.76639365 0 215.35144700 0 476.79086518 0 32791
0.17550000 0.17549800 7754.16356919 0 -31.09886282 0 2053.01661545 0 253.77438343 0 341.70259157 0 33633
0.17650000 0.17650100 7903.97117005 0 24.23504279 0 1896.85993164 0 87.84406632 0 142.33918997 0 33984
0.17750000 0.17750300 7656.10428975 0 116.80884637 0 1817.96873136 0 297.87963926 0 564.69930109 0 34069
0.17850000 0.17849800 7663.13441620 0 59.22958428 0 1780.20377082 0 -148.81679242 0 635.22245398 0 34536
