### header ###
fiducial parameters:
Omega_m = 0.31
Omega_nu = 0
Omega_de = 0.69
Omega_k = 0
H_0 = 100
w_de = -1
zeff = 0
beta = 0
fgrowth = 0
b_1 = 2
gamma = 0.55
Lx = 3500 Ly = 3500 Lz = 3500
nx = 700 ny = 700 nz = 700
xoffset = -983.599254 yoffset = -42.9823471 zoffset = 800.977702
bins = 400 dk = 0.001
kx_ny = 0.628318531 ky_ny = 0.628318531 kz_ny = 0.628318531
############################
A(data) = 9.04530111 (not used)
A(ran) = 9.02862074 (used)
Ngal = 501376
weighted Ngal = 0
Nran = 25229228
weighted Nran = 0
SN(data) = 6751.25643
SN(ran) = 134.023655
SN(data+ran) = 6885.28009
############################
13 columns: k_central k_mean P_0(k) sigma^{lin}_{P_0(k)} P^img_1(k) sigma^{lin}_{P_1(k)} P_2(k) sigma^{lin}_{P_2(k)} P^img_3(k) sigma^{lin}_{P_3(k)} P_4(k) sigma^{lin}_{P_4(k)} N_modes
### header ###
0.00050000 0 0 0 0 0 0 0 0 0 0 0 0
0.00150000 0.00179520 12022.72453601 0 -174.43501259 0 20765.67539067 0 -13654.81233014 0 96810.33353115 0 3
0.00250000 0.00253879 36193.72727262 0 -22343.60924198 0 -18913.78629919 0 -2162.45591208 0 -15371.04195025 0 6
0.00350000 0.00331552 26857.71934429 0 1155.17060637 0 13989.95163960 0 -25983.23752109 0 -21852.15946470 0 7
0.00450000 0.00420575 39404.62768388 0 2555.78050250 0 -2888.53615971 0 -2291.40380961 0 13237.83795495 0 24
0.00550000 0.00557378 38650.42693044 0 -3513.92083048 0 -9697.57611942 0 13604.06360482 0 24611.26440568 0 45
0.00650000 0.00659388 50744.77087968 0 -9639.25902359 0 -14543.02486907 0 -897.49340430 0 -21839.74689768 0 40
0.00750000 0.00754703 55001.73213785 0 -4571.68024720 0 -11480.74572484 0 -15887.86609020 0 -25281.76271604 0 57
0.00850000 0.00846663 49269.10339910 0 10477.12926638 0 7004.03809218 0 -12487.92118483 0 9495.51490679 0 75
0.00950000 0.00948925 43912.25688836 0 2288.18532985 0 10780.53414564 0 -5525.63545303 0 3527.80533022 0 112
0.01050000 0.01054430 54079.02804102 0 -10456.71993052 0 22889.98188218 0 17813.13212654 0 -25007.80747586 0 105
0.01150000 0.01145670 68389.39966281 0 -1263.15993942 0 9780.03730579 0 -15894.12729657 0 -23812.57613329 0 144
0.01250000 0.01249090 61891.69544377 0 2852.56168450 0 6577.26547825 0 -10472.93315965 0 -6006.48511778 0 169
0.01350000 0.01339930 74049.96960543 0 -16610.65096606 0 16112.50059949 0 14238.86205429 0 7909.68314779 0 180
0.01450000 0.01448870 81548.58807809 0 110.85410958 0 20542.35903010 0 4715.73193203 0 -36200.20817045 0 267
0.01550000 0.01550050 84512.77498916 0 11177.46167587 0 26013.66478714 0 -32928.89261000 0 -4340.57582466 0 238
0.01650000 0.01653350 70192.62709777 0 784.10735074 0 33926.62133756 0 -4495.10679174 0 -5329.67067818 0 315
0.01750000 0.01747870 70400.78474818 0 4205.44361277 0 56568.02234222 0 -81.50497932 0 -11444.05725242 0 297
0.01850000 0.01844180 76682.09288737 0 3210.58185865 0 46667.73692039 0 13377.78140964 0 -2031.72851379 0 388
0.01950000 0.01947590 72684.25769639 0 -5054.13365955 0 37973.00833935 0 21001.07478109 0 975.33118407 0 399
0.02050000 0.02045430 77910.16810197 0 647.80198650 0 46303.92787649 0 3432.75582368 0 6425.18407086 0 462
0.02150000 0.02154770 70070.69834211 0 5934.55813651 0 38563.42911560 0 -12119.16908327 0 10088.50607302 0 571
0.02250000 0.02255340 72086.03787361 0 -893.51369366 0 53529.14033760 0 10751.61176604 0 4985.17251288 0 510
0.02350000 0.02348930 71452.66741857 0 2034.88108612 0 42126.16538663 0 8837.69279318 0 637.48417747 0 555
0.02450000 0.02439640 75182.36919284 0 509.18436972 0 40021.52128004 0 4356.66822349 0 12604.57734564 0 592
0.02550000 0.02547300 72647.45937825 0 -782.60466122 0 39425.38852605 0 7944.04289083 0 -1094.45887371 0 837
0.02650000 0.02652900 67903.55201754 0 3952.61170566 0 41117.67177794 0 -2142.95829575 0 8161.19690619 0 723
0.02750000 0.02749970 62758.15852899 0 1714.98836341 0 33848.85056368 0 6452.25005770 0 5758.57429919 0 826
0.02850000 0.02848090 63023.32611110 0 2563.73333305 0 37399.17426770 0 1674.10378426 0 11274.45545176 0 831
0.02950000 0.02946900 62117.75794750 0 2610.71434998 0 39737.24054164 0 6448.27364243 0 8239.65970814 0 996
0.03050000 0.03053250 59679.84190879 0 1148.40410966 0 38136.01939646 0 4623.06607774 0 3421.88109682 0 1041
0.03150000 0.03150510 57051.56322725 0 517.08227741 0 35054.07786731 0 -4636.95057748 0 7220.20349601 0 1036
0.03250000 0.03246190 52057.64699460 0 2442.02426885 0 36582.69098773 0 2071.53660483 0 2819.16858386 0 1059
0.03350000 0.03345080 55625.65586047 0 -150.15031953 0 35870.34145583 0 4442.32592048 0 6145.38503807 0 1302
0.03450000 0.03451200 52799.21548957 0 986.63980154 0 30081.36185973 0 5723.83009611 0 1371.61062451 0 1339
0.03550000 0.03553350 52493.84437180 0 2416.69384448 0 31286.03993473 0 1098.76482617 0 6140.94727075 0 1365
0.03650000 0.03647120 49661.80186888 0 1461.89282656 0 26735.57089718 0 1784.36692383 0 807.83512598 0 1308
0.03750000 0.03744890 49644.11670703 0 2663.53915952 0 30840.39582511 0 1438.71537841 0 3587.08906845 0 1579
0.03850000 0.03847530 45141.43056021 0 278.83568578 0 24599.40106729 0 1948.92680567 0 936.74457751 0 1662
0.03950000 0.03950240 44631.85623816 0 -962.05193428 0 27363.11952876 0 3186.06429265 0 2875.66224064 0 1683
0.04050000 0.04050350 43782.85862335 0 1934.53701559 0 23432.40007625 0 693.61644182 0 408.06368991 0 1822
0.04150000 0.04152450 42804.02336062 0 1695.10628704 0 22555.39180135 0 2700.62307656 0 1585.41434524 0 1887
0.04250000 0.04250150 41167.98112036 0 -924.72415973 0 23074.96208445 0 1296.60796293 0 2610.76927284 0 1920
0.04350000 0.04349210 42892.11963273 0 -384.90271862 0 18282.72260439 0 3595.98657224 0 -2604.63988134 0 2005
0.04450000 0.04448520 41455.22769336 0 418.96368128 0 18673.66354256 0 -1169.15396727 0 -594.04348828 0 2151
0.04550000 0.04548030 39693.30225131 0 2757.08377963 0 17479.75034869 0 -3095.92489004 0 -6887.22814735 0 2274
0.04650000 0.04648670 37889.85512491 0 2136.11490703 0 21551.51171314 0 -1667.50205614 0 -1517.16719579 0 2311
0.04750000 0.04749250 36253.26365601 0 -1178.55676140 0 18380.48530036 0 5349.99213745 0 -7035.33313946 0 2568
0.04850000 0.04851840 37673.56889078 0 -972.57405635 0 18184.85006269 0 4582.59891235 0 -621.24019154 0 2493
0.04950000 0.04949480 37961.47453814 0 -23.52115542 0 11742.61793518 0 1218.40879072 0 -4789.55924435 0 2644
0.05050000 0.05050630 37844.59868587 0 1040.79813820 0 13936.45677113 0 2595.52268610 0 -73.00028385 0 2829
0.05150000 0.05149060 36130.23644310 0 1372.53332861 0 12209.68196134 0 -1631.32985863 0 -372.11667614 0 2784
0.05250000 0.05249300 34310.09276637 0 336.07519504 0 13755.10147781 0 233.33758614 0 3300.01824860 0 3055
0.05350000 0.05348950 35906.48069962 0 253.50086757 0 14885.08445925 0 2788.15913546 0 1977.79426242 0 3009
0.05450000 0.05448610 34433.11997928 0 369.12338011 0 13701.71645506 0 1779.53371190 0 3678.67843463 0 3336
0.05550000 0.05550870 34729.59359326 0 498.37994413 0 12626.43664508 0 -465.10877224 0 3464.12776297 0 3349
0.05650000 0.05647670 32777.85473700 0 -479.60730959 0 13097.89450027 0 -563.94356250 0 2878.56216780 0 3324
0.05750000 0.05747970 33511.73403116 0 860.15134981 0 13797.17239080 0 1848.79144202 0 3196.66440519 0 3639
0.05850000 0.05849280 32431.07178061 0 649.60675177 0 13336.80895391 0 -42.80654981 0 3398.35214235 0 3846
0.05950000 0.05951020 31999.59776961 0 541.87006389 0 12592.82385298 0 124.86822728 0 1783.25748200 0 3787
0.06050000 0.06049470 31921.71715001 0 401.04674494 0 13419.85232263 0 271.51556661 0 972.94423645 0 3930
0.06150000 0.06148310 30930.13978309 0 356.82834802 0 10801.74535530 0 1142.35161017 0 2324.28063535 0 4083
0.06250000 0.06249100 30918.38629043 0 -194.80919782 0 11587.29607888 0 2149.77971532 0 1772.59146202 0 4303
0.06350000 0.06350600 30600.82229711 0 -146.29912838 0 8511.84643213 0 421.82406398 0 663.95370202 0 4470
0.06450000 0.06451750 29942.51686231 0 325.84526260 0 8298.87753892 0 2338.63747171 0 1614.83103061 0 4479
0.06550000 0.06550280 29736.33643495 0 212.73821718 0 6934.30802543 0 -213.65213362 0 3347.83409305 0 4636
0.06650000 0.06648880 29483.03219123 0 653.55350870 0 7723.06624421 0 779.36750768 0 323.02881819 0 4653
0.06750000 0.06749660 28414.78250769 0 1039.51623858 0 7771.70593160 0 260.51122180 0 1547.61643099 0 5220
0.06850000 0.06852730 27786.79449322 0 123.88071420 0 7284.91361308 0 -1279.10953881 0 1669.09481916 0 5029
0.06950000 0.06949320 28197.72735349 0 -174.50201848 0 7655.76376800 0 862.46140542 0 478.87683551 0 5040
0.07050000 0.07048030 27491.63902796 0 -272.28338823 0 7510.25113502 0 -773.41277088 0 1228.39376720 0 5475
0.07150000 0.07148790 26996.56434172 0 819.32828427 0 7247.74181947 0 1626.50763126 0 160.40881186 0 5509
0.07250000 0.07249820 27765.59426814 0 310.91832691 0 7726.86690632 0 -830.76102741 0 725.75949811 0 5916
0.07350000 0.07351270 26818.50442017 0 434.27947083 0 7644.49359653 0 675.41939888 0 -654.57287704 0 5721
0.07450000 0.07449140 26378.13290539 0 182.46143978 0 7930.68565057 0 -111.53185770 0 -258.28904276 0 6028
0.07550000 0.07549160 25968.62803955 0 299.56467269 0 7593.39336489 0 226.76771328 0 998.33507597 0 6183
0.07650000 0.07648840 25574.72126679 0 22.21047622 0 7548.52138589 0 448.05742022 0 1256.27261241 0 6330
0.07750000 0.07749960 25113.25937264 0 700.90470573 0 6886.48119641 0 244.49791189 0 316.00198711 0 6583
0.07850000 0.07848650 24738.02637327 0 811.00087980 0 8125.68378303 0 -686.22711984 0 -234.50414775 0 6549
0.07950000 0.07947320 23553.12052892 0 625.94158860 0 8004.69970062 0 -1050.97754161 0 -6.36281367 0 6828
0.08050000 0.08048110 22683.25222620 0 518.97272235 0 9770.10725218 0 -24.10344762 0 365.29745348 0 7147
0.08150000 0.08149960 22550.00936079 0 -83.41937063 0 8541.35099408 0 515.33243500 0 -765.91030781 0 7386
0.08250000 0.08250610 22817.37385742 0 -362.60293782 0 8966.61872157 0 1832.56722832 0 527.15952429 0 7227
0.08350000 0.08350160 23229.84455785 0 119.79555166 0 7301.11585764 0 792.49736728 0 -808.67215041 0 7798
0.08450000 0.08449610 22609.98512708 0 756.98204721 0 8347.97857836 0 -555.54585676 0 699.77549167 0 7371
0.08550000 0.08548940 21547.88680419 0 497.80545098 0 6602.54097976 0 -92.88543590 0 348.70415814 0 8256
0.08650000 0.08650700 20891.22905528 0 94.59177941 0 7717.27737446 0 1387.08788728 0 1385.17657165 0 8037
0.08750000 0.08749060 20893.64566125 0 288.52078342 0 6750.85467875 0 249.72656844 0 837.31771879 0 8155
0.08850000 0.08849210 20428.00962952 0 320.90110648 0 6592.62191072 0 863.62357320 0 1164.05712559 0 8718
0.08950000 0.08949900 19826.05505207 0 391.93723890 0 6777.26159124 0 -1111.96828241 0 972.51144429 0 8571
0.09050000 0.09049190 19110.95937702 0 514.26034071 0 5815.32060114 0 509.17777898 0 953.13136288 0 8932
0.09150000 0.09150830 19148.41676952 0 153.13043407 0 7280.40993833 0 419.40855647 0 1287.27107624 0 9285
0.09250000 0.09250820 18945.53171395 0 -55.74769446 0 6939.32797510 0 297.24802634 0 1359.68137869 0 9204
0.09350000 0.09350330 18809.87224257 0 248.44027499 0 6255.40651704 0 405.34940202 0 1377.06995709 0 9349
0.09450000 0.09448040 18499.11868424 0 116.95384273 0 6458.99458527 0 225.96913486 0 2300.32328255 0 9564
0.09550000 0.09549270 18324.79351737 0 445.44199349 0 6740.95757886 0 159.05770944 0 635.16094037 0 10155
0.09650000 0.09649430 18223.07637527 0 269.42520245 0 6383.14611159 0 -309.88138326 0 1781.15942864 0 9913
0.09750000 0.09749140 17327.72386417 0 273.94755098 0 7289.56008729 0 -302.30642201 0 1249.17657852 0 10476
0.09850000 0.09850240 17184.15550053 0 221.19523961 0 7082.42400212 0 2.18904956 0 1426.13804281 0 10575
0.09950000 0.09950330 17014.44385415 0 110.99251519 0 6987.69304818 0 573.42874092 0 532.89786501 0 10882
0.10050000 0.10051200 16685.78544251 0 389.89191149 0 6392.85647375 0 -436.79713487 0 494.22777570 0 10875
0.10150000 0.10150300 16384.36877088 0 311.90254462 0 6655.84911050 0 509.72700761 0 -53.80364481 0 11118
0.10250000 0.10250800 16063.72909723 0 179.83832384 0 6635.73635810 0 403.03934641 0 -157.37487292 0 11575
0.10350000 0.10349800 15536.03023042 0 176.56821659 0 5949.35435578 0 371.32688537 0 -205.89922229 0 11364
0.10450000 0.10450100 15511.75432502 0 213.64773979 0 5698.51065631 0 69.81882209 0 163.21756707 0 12093
0.10550000 0.10551000 15036.56171515 0 -3.22191794 0 5030.93424226 0 600.98134433 0 317.25422838 0 12067
0.10650000 0.10649700 14832.35851086 0 -24.71067479 0 4807.22243706 0 1184.19184713 0 324.69078402 0 12054
0.10750000 0.10749900 14690.65752456 0 235.69597388 0 4281.01747213 0 431.79146514 0 1170.23045538 0 12807
0.10850000 0.10850100 14884.64507635 0 10.46842948 0 4009.99511283 0 -134.31935352 0 643.96507529 0 12736
0.10950000 0.10950300 14719.32725900 0 6.76531038 0 3720.91411620 0 407.65835918 0 614.77796749 0 12933
0.11050000 0.11050200 14852.57012441 0 -89.06027819 0 3703.95393614 0 -55.80437486 0 1184.01609397 0 13428
0.11150000 0.11150900 14415.16444422 0 155.55363078 0 3335.01509685 0 -263.24967574 0 443.98653762 0 13453
0.11250000 0.11250000 14942.86331103 0 -23.53060216 0 3763.99560987 0 505.76157691 0 723.91079454 0 13668
0.11350000 0.11349100 14602.23171528 0 104.83873794 0 3612.37555453 0 53.76717603 0 307.56583536 0 13791
0.11450000 0.11448600 14426.14901680 0 261.51631019 0 3676.78908814 0 -477.07207024 0 35.07736516 0 14205
0.11550000 0.11549300 14165.15557227 0 365.79725153 0 4087.43634953 0 -274.30564804 0 243.64111523 0 14776
0.11650000 0.11649800 13900.86675596 0 249.40252354 0 4496.19426442 0 -586.32902296 0 -840.37582379 0 14553
0.11750000 0.11747300 13484.77114658 0 337.91071712 0 4736.78935767 0 -317.92538576 0 -821.28903048 0 14568
0.11850000 0.11849100 13512.34242376 0 78.47060100 0 4910.83991022 0 32.95404728 0 -1189.34361167 0 16015
0.11950000 0.11950300 13106.35262116 0 -53.92875909 0 4478.10267338 0 396.20584381 0 -1049.25516063 0 15270
0.12050000 0.12050700 13362.95223666 0 -35.24147468 0 4372.59585374 0 297.64566786 0 -1325.68412655 0 15999
0.12150000 0.12150000 13194.22920181 0 147.80731020 0 4382.16341646 0 77.18914076 0 -729.36024100 0 15670
0.12250000 0.12250700 13117.99626809 0 18.11762448 0 3654.06200747 0 484.87660906 0 -826.19254368 0 16887
0.12350000 0.12352200 13033.41505922 0 -46.10675480 0 3751.87962631 0 208.27518534 0 -846.40196031 0 16407
0.12450000 0.12449800 13095.14835712 0 464.24099101 0 3582.20093365 0 -117.29546294 0 -348.67230288 0 16306
0.12550000 0.12549900 12544.60157935 0 11.08321404 0 3746.79376921 0 375.91843671 0 -276.33669551 0 17523
0.12650000 0.12650100 12672.02262129 0 5.88725857 0 3434.66713931 0 583.26432721 0 385.09714556 0 17154
0.12750000 0.12750600 12846.23794243 0 -122.06276744 0 3004.75293762 0 275.31622872 0 -232.87403718 0 18007
0.12850000 0.12850300 12733.20669057 0 -114.76901124 0 2544.01602527 0 422.83134929 0 311.11824614 0 17496
0.12950000 0.12949900 12709.91939669 0 160.19571115 0 2709.91602496 0 232.31711935 0 595.59011610 0 18405
0.13050000 0.13049000 12468.25879991 0 318.87225592 0 2720.04380088 0 -484.02530468 0 689.50162093 0 18100
0.13150000 0.13148800 12077.75724464 0 216.48395643 0 3002.86359113 0 -60.62759083 0 382.78269611 0 19059
0.13250000 0.13249300 12213.08717884 0 75.70578408 0 3485.03140459 0 -384.08986025 0 103.07637311 0 18957
0.13350000 0.13349100 11953.74142020 0 148.62016857 0 3181.40683387 0 -325.80461968 0 -210.67421599 0 19468
0.13450000 0.13450700 11597.51173138 0 122.59332229 0 3518.06201434 0 -5.61196321 0 -169.37771538 0 19953
0.13550000 0.13551000 11766.23476623 0 30.21537365 0 3765.47852717 0 161.57207810 0 -999.86632539 0 19956
0.13650000 0.13649900 11678.24833986 0 194.23250776 0 3415.82859733 0 83.45111605 0 -157.98781207 0 19723
0.13750000 0.13749600 11451.19722460 0 49.34039328 0 3444.28962489 0 112.13600920 0 -424.33403882 0 20946
0.13850000 0.13851100 11228.43009265 0 1.00999300 0 3132.73419276 0 553.15671222 0 -191.24470401 0 20955
0.13950000 0.13949800 11266.21702233 0 324.84127266 0 3108.20564219 0 16.71588317 0 -480.55967203 0 20506
0.14050000 0.14048300 11158.01898240 0 49.23735798 0 2554.93469041 0 374.96607426 0 143.37723208 0 21447
0.14150000 0.14148400 10990.83378771 0 -4.46579995 0 2934.03425934 0 205.36866744 0 -183.40830993 0 21771
0.14250000 0.14249400 10662.26325266 0 121.44653292 0 2503.84544334 0 23.07979530 0 237.32608445 0 22470
0.14350000 0.14350900 10740.15485684 0 148.69596212 0 2668.43827890 0 -244.56821315 0 -150.07123061 0 22519
0.14450000 0.14449900 10452.52382379 0 16.33691542 0 2460.81887254 0 -91.83893567 0 215.41625598 0 22218
0.14550000 0.14550500 10517.54150890 0 288.60975846 0 2999.77692624 0 -167.75419555 0 -848.63073009 0 23559
0.14650000 0.14650700 10301.98025657 0 230.99787218 0 2990.06656408 0 -285.57032723 0 95.43264844 0 23044
0.14750000 0.14750500 10130.23646426 0 6.34725951 0 3572.79813952 0 -38.43194378 0 -450.74424667 0 23649
0.14850000 0.14849900 9974.12371873 0 66.93800809 0 3509.49404773 0 -258.09571429 0 -827.08998326 0 23640
0.14950000 0.14949500 10084.83722578 0 110.37847758 0 3261.13286167 0 226.44696376 0 -649.37717421 0 24457
0.15050000 0.15050000 9883.38016464 0 -15.39070434 0 3473.28889650 0 377.16408724 0 -50.27408194 0 24591
0.15150000 0.15149900 10010.80120658 0 -2.50399923 0 2980.49900136 0 323.03211356 0 -332.93800111 0 25020
0.15250000 0.15250500 9785.06824003 0 114.53174448 0 3105.20685387 0 195.38039559 0 -165.17941173 0 25297
0.15350000 0.15350100 9648.70575601 0 178.04344468 0 2669.67953560 0 -156.75094919 0 -67.09311025 0 25452
0.15450000 0.15450400 9378.08982589 0 208.94194890 0 2800.37398017 0 50.82539764 0 100.88791672 0 26061
0.15550000 0.15549900 9279.66805557 0 198.92841253 0 2970.27236429 0 -112.84121876 0 -321.28776343 0 26128
0.15650000 0.15649500 9132.05736922 0 40.47529397 0 2981.87207293 0 -111.26603105 0 -115.89822531 0 26331
0.15750000 0.15749700 8993.57486268 0 13.74829104 0 2900.50934382 0 499.74642496 0 -235.68498931 0 27345
0.15850000 0.15849900 9083.08814465 0 -104.93628094 0 2588.03120760 0 337.44826661 0 80.67212903 0 26980
0.15950000 0.15949700 9105.83719447 0 36.54270714 0 2437.24597978 0 -24.78460096 0 -800.93351903 0 27777
0.16050000 0.16050000 9041.32479970 0 310.22629884 0 2397.87727164 0 -109.57902039 0 -271.82752847 0 28224
0.16150000 0.16150500 8820.04058504 0 104.44087672 0 2426.03073117 0 -280.84805947 0 -636.45052919 0 28075
0.16250000 0.16249700 8695.46454740 0 -60.25235783 0 2354.54313281 0 308.30399864 0 -175.27423394 0 28590
0.16350000 0.16349900 8719.96014426 0 -40.71124259 0 2228.20956355 0 458.17970385 0 -671.95596315 0 29163
0.16450000 0.16449100 8572.34945791 0 16.30813584 0 1870.78255633 0 160.82293025 0 -355.49372245 0 28996
0.16550000 0.16550500 8646.78092172 0 128.80509809 0 1835.07171087 0 42.71164311 0 -598.10668168 0 30777
0.16650000 0.16650700 8328.68966891 0 241.58700015 0 1767.49462035 0 -264.97205672 0 -112.85440024 0 29211
0.16750000 0.16749900 8260.72811835 0 190.35605209 0 2079.97275657 0 21.12618906 0 -279.68149787 0 30922
0.16850000 0.16850800 8046.34221528 0 -22.28154641 0 1918.06015672 0 95.31610212 0 -114.14618598 0 30867
0.16950000 0.16949900 8083.49203975 0 65.06371047 0 2019.44776164 0 271.92858654 0 -130.70982297 0 30852
0.17050000 0.17049200 8021.78071099 0 -4.48472637 0 1869.69508364 0 -125.67339645 0 47.10371461 0 31257
0.17150000 0.17149500 8031.17252054 0 36.72362305 0 2041.95515086 0 -163.89092137 0 92.51866102 0 32608
0.17250000 0.17250900 7974.27243457 0 166.97209398 0 1989.08640303 0 65.14236001 0 -88.95922012 0 32361
0.17350000 0.17350400 8039.10338195 0 62.92358619 0 2262.56930659 0 88.26642313 0 134.06011761 0 32508
0.17450000 0.17449800 8000.56950133 0 -46.46265495 0 2103.74337163 0 114.16705667 0 -129.53227679 0 32791
0.17550000 0.17549800 8043.76084072 0 -37.99717440 0 2140.11329145 0 44.88373249 0 74.65928385 0 33633
0.17650000 0.17650100 7852.17891033 0 116.80664946 0 2140.32199833 0 -225.34521113 0 -138.71757639 0 33984
0.17750000 0.17750300 7784.61280438 0 244.98343000 0 2264.66735995 0 -419.88089309 0 -274.31663262 0 34069
0.17850000 0.17849800 7577.98200955 0 137.15227479 0 2396.30647777 0 149.94600648 0 -51.06365302 0 34536
