### header ###
fiducial parameters:
Omega_m = 0.31
Omega_nu = 0
Omega_de = 0.69
Omega_k = 0
H_0 = 100
w_de = -1
zeff = 0
beta = 0
fgrowth = 0
b_1 = 2
gamma = 0.55
Lx = 3500 Ly = 3500 Lz = 3500
nx = 700 ny = 700 nz = 700
xoffset = -983.599254 yoffset = -42.9823471 zoffset = 800.977702
bins = 400 dk = 0.001
kx_ny = 0.628318531 ky_ny = 0.628318531 kz_ny = 0.628318531
############################
A(data) = 9.04813212 (not used)
A(ran) = 9.03454485 (used)
Ngal = 502188
weighted Ngal = 0
Nran = 25229228
weighted Nran = 0
SN(data) = 6753.55995
SN(ran) = 134.111594
SN(data+ran) = 6887.67155
############################
13 columns: k_central k_mean P_0(k) sigma^{lin}_{P_0(k)} P^img_1(k) sigma^{lin}_{P_1(k)} P_2(k) sigma^{lin}_{P_2(k)} P^img_3(k) sigma^{lin}_{P_3(k)} P_4(k) sigma^{lin}_{P_4(k)} N_modes
### header ###
0.00050000 0 0 0 0 0 0 0 0 0 0 0 0
0.00150000 0.00179520 5689.79989026 0 -1923.90394933 0 -9552.44794648 0 13071.09214317 0 6077.31364178 0 3
0.00250000 0.00253879 23198.97790889 0 -14426.69824543 0 -113.32344149 0 -8882.67461790 0 24021.39285806 0 6
0.00350000 0.00331552 38360.54406002 0 -19817.70677690 0 -20364.84833718 0 -13194.88827616 0 -69398.88188304 0 7
0.00450000 0.00420575 56039.66440106 0 -14868.05837175 0 -26905.39238929 0 -7235.06562271 0 -1071.84273723 0 24
0.00550000 0.00557378 63608.80382969 0 1203.27204971 0 -11572.02752299 0 -18394.43570754 0 -23238.74206164 0 45
0.00650000 0.00659388 61356.63691333 0 -63.57200551 0 -11749.53821591 0 -28128.74423767 0 23075.73100453 0 40
0.00750000 0.00754703 73672.64953726 0 -488.66189277 0 2381.45533564 0 -5043.77520760 0 -23243.57527357 0 57
0.00850000 0.00846663 60952.51448807 0 2277.92573906 0 26305.30518917 0 -16303.74200813 0 8435.87712816 0 75
0.00950000 0.00948925 66025.29995186 0 3544.72157200 0 18020.85039405 0 4041.13637610 0 -7908.65059797 0 112
0.01050000 0.01054430 73771.40084477 0 -10271.89351227 0 22193.55998052 0 22005.06471503 0 15363.90197807 0 105
0.01150000 0.01145670 71345.23829873 0 -7715.27818225 0 7392.25485635 0 17819.83271581 0 -2431.51203289 0 144
0.01250000 0.01249090 76861.58080335 0 6733.43314664 0 11221.29012047 0 -2420.03315454 0 8486.58191519 0 169
0.01350000 0.01339930 72296.28259282 0 7792.64252694 0 21543.16343798 0 -1909.89861929 0 21364.99367071 0 180
0.01450000 0.01448870 64804.36470944 0 6870.80621134 0 34994.10210101 0 -12995.29859236 0 19402.16039615 0 267
0.01550000 0.01550050 57343.97254937 0 3779.65961037 0 39386.50313912 0 -1461.96971857 0 24098.39471185 0 238
0.01650000 0.01653350 53991.26130609 0 484.75577876 0 42395.94648923 0 11502.05579565 0 12818.88635670 0 315
0.01750000 0.01747870 60630.88620289 0 -6513.67578758 0 30520.08568863 0 12830.20046646 0 15132.56687951 0 297
0.01850000 0.01844180 72847.92782786 0 -3518.12792178 0 29702.94333431 0 13063.51278809 0 6720.70202702 0 388
0.01950000 0.01947590 69245.86678698 0 4626.81181699 0 25153.24321684 0 -6901.84861345 0 17358.15113022 0 399
0.02050000 0.02045430 74426.96013642 0 -3496.34551435 0 36779.42468266 0 5818.49514262 0 22629.09828337 0 462
0.02150000 0.02154770 70614.76422207 0 -6529.17501949 0 23073.86362719 0 7652.96270199 0 13720.17053700 0 571
0.02250000 0.02255340 79634.08692288 0 5490.67155850 0 25893.60340882 0 11348.38162524 0 14604.42862980 0 510
0.02350000 0.02348930 75745.87776627 0 3099.54979900 0 26921.42986526 0 -2932.74906435 0 17402.63864917 0 555
0.02450000 0.02439640 75337.80089487 0 3777.78124846 0 21950.14185212 0 -8345.73772555 0 18477.91845916 0 592
0.02550000 0.02547300 66750.61127940 0 1155.59900470 0 30930.46932027 0 4671.68379598 0 12255.70732046 0 837
0.02650000 0.02652900 68035.47673424 0 1306.24143308 0 34638.75117801 0 4920.50633409 0 8966.60773700 0 723
0.02750000 0.02749970 60876.17170863 0 3313.39745801 0 29161.73344322 0 4132.44014339 0 18129.81735406 0 826
0.02850000 0.02848090 66230.49176768 0 1262.63267994 0 29859.58333932 0 4756.05629798 0 11019.39367643 0 831
0.02950000 0.02946900 63249.82799773 0 -1475.94209489 0 33161.54585727 0 -233.79454436 0 12876.00613412 0 996
0.03050000 0.03053250 59443.23421539 0 4820.15127899 0 30160.45078232 0 2125.61365564 0 20421.30904025 0 1041
0.03150000 0.03150510 57594.09126705 0 895.39205557 0 29158.65776290 0 -2091.23194346 0 18276.79093519 0 1036
0.03250000 0.03246190 56402.81437060 0 1912.34817898 0 38006.40144000 0 5389.56955246 0 6630.22210266 0 1059
0.03350000 0.03345080 53757.50960156 0 2484.07321269 0 34204.53102387 0 3514.23938309 0 20832.57143769 0 1302
0.03450000 0.03451200 53023.84999885 0 322.46970344 0 34828.34490076 0 4586.68517335 0 19123.92117267 0 1339
0.03550000 0.03553350 51875.74247265 0 364.63508375 0 26424.15826450 0 3821.86233823 0 21061.48993029 0 1365
0.03650000 0.03647120 50971.16292058 0 2055.21352997 0 33105.96392001 0 2860.20694702 0 7866.90922216 0 1308
0.03750000 0.03744890 47891.08876877 0 2535.19541348 0 30780.85944171 0 -2800.04444299 0 17145.37995932 0 1579
0.03850000 0.03847530 44729.83862558 0 756.25377005 0 30302.92068870 0 3030.65455977 0 13580.55661949 0 1662
0.03950000 0.03950240 45480.19477862 0 -1590.46724863 0 28659.40893908 0 3213.14126406 0 13198.29349366 0 1683
0.04050000 0.04050350 48148.78684153 0 182.56799013 0 24677.50137834 0 4290.39829711 0 4135.91126833 0 1822
0.04150000 0.04152450 45048.50107617 0 1636.42670031 0 20572.67645042 0 2348.56752533 0 4855.29092668 0 1887
0.04250000 0.04250150 44020.89431118 0 577.74128412 0 22754.98148516 0 -153.24247671 0 6519.29988874 0 1920
0.04350000 0.04349210 44598.90252041 0 -116.46283234 0 21695.29976823 0 1234.44626669 0 2220.11393356 0 2005
0.04450000 0.04448520 40653.35389492 0 1727.47782243 0 19056.69558847 0 1415.86746744 0 1459.92658807 0 2151
0.04550000 0.04548030 41328.46572577 0 2600.30097517 0 20602.77417929 0 -1923.66228874 0 -259.07004587 0 2274
0.04650000 0.04648670 38631.20392842 0 674.11003783 0 19406.11484228 0 3677.94246827 0 1515.37671046 0 2311
0.04750000 0.04749250 38213.46063315 0 -516.38146168 0 20804.34108616 0 1963.28364204 0 -228.08696045 0 2568
0.04850000 0.04851840 36299.50870658 0 547.54359563 0 16695.89124929 0 1969.19334208 0 6139.88176720 0 2493
0.04950000 0.04949480 36091.02151899 0 623.67986511 0 17636.06081652 0 2489.87306701 0 2983.97012629 0 2644
0.05050000 0.05050630 35735.34105880 0 503.16592240 0 14906.28468433 0 1712.57175744 0 4592.67176540 0 2829
0.05150000 0.05149060 34998.60577577 0 257.84636449 0 15797.68274931 0 1661.16395776 0 3650.48103681 0 2784
0.05250000 0.05249300 35145.35966546 0 464.76934895 0 14378.14643462 0 -274.24523289 0 4567.76973936 0 3055
0.05350000 0.05348950 34927.64543690 0 729.28554591 0 14076.72976299 0 -471.06241058 0 4859.37718768 0 3009
0.05450000 0.05448610 34416.20373751 0 -522.79974744 0 13110.96614164 0 204.09775239 0 -496.10174378 0 3336
0.05550000 0.05550870 34416.97265759 0 891.13992752 0 15420.14298969 0 -1772.42669344 0 616.79912884 0 3349
0.05650000 0.05647670 32891.43521749 0 822.41494917 0 14394.29375632 0 -250.91839456 0 -2997.79970317 0 3324
0.05750000 0.05747970 33102.22916533 0 484.73380961 0 17696.91534862 0 -1054.74525000 0 -3193.55577115 0 3639
0.05850000 0.05849280 32424.48103706 0 380.46495130 0 15106.42359677 0 1703.41062391 0 -3638.20028467 0 3846
0.05950000 0.05951020 31296.36543296 0 -776.12705876 0 14726.57707690 0 1825.59202473 0 -2075.89748014 0 3787
0.06050000 0.06049470 32262.89797439 0 -268.06641082 0 9905.86558471 0 2686.76054596 0 -1857.52417722 0 3930
0.06150000 0.06148310 32291.01848020 0 554.28592628 0 12994.20013510 0 3549.79644453 0 2082.90563745 0 4083
0.06250000 0.06249100 31597.56241314 0 580.07660425 0 8145.14844565 0 755.88358995 0 1950.06920122 0 4303
0.06350000 0.06350600 31936.43647727 0 672.57219767 0 10604.92378379 0 927.72514496 0 1383.97925324 0 4470
0.06450000 0.06451750 31050.09131568 0 73.91881381 0 9620.20079016 0 -1969.20432666 0 2718.87943619 0 4479
0.06550000 0.06550280 29480.83527671 0 619.22122710 0 10754.80827666 0 -520.95763461 0 2841.39037419 0 4636
0.06650000 0.06648880 28968.51481152 0 305.08551887 0 11191.96131168 0 -1269.30031549 0 1822.79095872 0 4653
0.06750000 0.06749660 28618.76602053 0 1003.77243940 0 11582.46286695 0 1162.46436257 0 -1014.11441448 0 5220
0.06850000 0.06852730 29677.67881737 0 -193.00662946 0 11598.72003437 0 489.02767904 0 -576.99213627 0 5029
0.06950000 0.06949320 29411.52262372 0 -155.74146697 0 10934.91132870 0 -567.39381674 0 -2840.22600950 0 5040
0.07050000 0.07048030 27546.56189086 0 283.56454427 0 9846.54889277 0 -59.73157925 0 -1253.96585217 0 5475
0.07150000 0.07148790 27663.21805168 0 630.72536996 0 11033.67362078 0 820.56185177 0 -2000.48838937 0 5509
0.07250000 0.07249820 27131.34504729 0 813.20218814 0 10134.02614180 0 670.18854542 0 -3028.01826235 0 5916
0.07350000 0.07351270 25997.07808254 0 427.35919011 0 10165.57383425 0 594.91676180 0 -1744.13043447 0 5721
0.07450000 0.07449140 26256.53368691 0 -322.76738536 0 8201.44438013 0 954.23641088 0 -945.77499463 0 6028
0.07550000 0.07549160 25671.38550550 0 280.32299690 0 8905.07216140 0 1439.96761969 0 -574.67219454 0 6183
0.07650000 0.07648840 25176.42066499 0 189.07085710 0 6938.91056134 0 1486.76189888 0 1743.35052981 0 6330
0.07750000 0.07749960 25552.09304727 0 -352.77504074 0 6309.28584555 0 1853.87729913 0 1347.90591688 0 6583
0.07850000 0.07848650 25047.24209143 0 1036.47680734 0 6796.38573210 0 -1157.77395007 0 1500.63541406 0 6549
0.07950000 0.07947320 24312.04464856 0 933.68317713 0 7797.90413721 0 -605.92110662 0 3399.57142991 0 6828
0.08050000 0.08048110 23544.99194521 0 -441.52379645 0 7757.42598724 0 750.60660129 0 2961.62750566 0 7147
0.08150000 0.08149960 24067.74775435 0 -106.46104946 0 7282.21140823 0 619.85503694 0 940.49361213 0 7386
0.08250000 0.08250610 24007.44245088 0 769.00905573 0 8529.80620830 0 -959.32116953 0 931.42255209 0 7227
0.08350000 0.08350160 22803.75298742 0 364.95912864 0 7347.92112141 0 -1085.63057273 0 1291.56604411 0 7798
0.08450000 0.08449610 23202.60281785 0 -16.70764474 0 8805.24436578 0 740.99180491 0 337.55811234 0 7371
0.08550000 0.08548940 22293.51959101 0 417.87181477 0 8229.49897850 0 -399.67916566 0 740.91271598 0 8256
0.08650000 0.08650700 22284.29255005 0 528.03499473 0 8092.97172589 0 1807.41255711 0 -157.11344009 0 8037
0.08750000 0.08749060 21611.81701662 0 66.65372735 0 7338.39749698 0 209.50545747 0 280.15932677 0 8155
0.08850000 0.08849210 21667.06941670 0 72.20686817 0 7167.22490245 0 666.34174810 0 198.70213034 0 8718
0.08950000 0.08949900 20697.79073212 0 514.21091014 0 7730.85430617 0 -486.29691429 0 340.22187119 0 8571
0.09050000 0.09049190 20119.34313999 0 532.89786501 0 7105.24994394 0 -1059.37414889 0 36.98209005 0 8932
0.09150000 0.09150830 19694.02048964 0 21.79734645 0 6741.82536009 0 1053.53475011 0 -347.55736876 0 9285
0.09250000 0.09250820 19825.94520634 0 183.13479408 0 6615.76640515 0 841.74559999 0 -266.02877260 0 9204
0.09350000 0.09350330 19311.86720953 0 119.48249134 0 5407.38652919 0 1398.47888905 0 854.62391289 0 9349
0.09450000 0.09448040 19798.37392916 0 -166.73153184 0 6360.60576865 0 582.92160855 0 1031.74465348 0 9564
0.09550000 0.09549270 19037.80212363 0 450.30706069 0 4393.42260335 0 -173.78582435 0 1177.29353555 0 10155
0.09650000 0.09649430 18847.65917225 0 647.98872423 0 6030.83791519 0 289.92680871 0 2033.23340023 0 9913
0.09750000 0.09749140 18276.35155229 0 90.69170691 0 5492.38515182 0 -508.64832258 0 1310.53640096 0 10476
0.09850000 0.09850240 18002.50615784 0 484.68547749 0 6680.01517017 0 -871.63242507 0 253.67771919 0 10575
0.09950000 0.09950330 17283.12649949 0 553.72900845 0 6209.79857168 0 -729.74579950 0 -159.30156695 0 10882
0.10050000 0.10051200 16766.96143389 0 281.91466147 0 7751.91173181 0 -53.44752496 0 784.79388653 0 10875
0.10150000 0.10150300 16604.38975968 0 56.56274975 0 7079.91951957 0 821.86572054 0 596.27665189 0 11118
0.10250000 0.10250800 16741.69691695 0 -263.85602415 0 6719.47175489 0 661.09881161 0 -153.20293225 0 11575
0.10350000 0.10349800 16387.33460548 0 478.12219538 0 6339.68015789 0 319.86855665 0 610.98169920 0 11364
0.10450000 0.10450100 16203.56270619 0 359.71729061 0 7074.24049555 0 -137.77729697 0 1921.39946678 0 12093
0.10550000 0.10551000 15923.45610537 0 354.87089718 0 7169.75135414 0 191.86423391 0 1007.81146674 0 12067
0.10650000 0.10649700 15866.55601940 0 234.59092588 0 7279.81677141 0 16.77992323 0 1352.29974592 0 12054
0.10750000 0.10749900 15098.29501306 0 -50.68479511 0 7657.93871337 0 264.61505811 0 2390.11117883 0 12807
0.10850000 0.10850100 15265.69989920 0 -209.53950965 0 7204.56146465 0 565.51435638 0 1598.23334144 0 12736
0.10950000 0.10950300 15378.51145961 0 316.03823620 0 6500.87876052 0 599.91364387 0 1909.39332895 0 12933
0.11050000 0.11050200 15374.44716775 0 195.11786431 0 6582.21952048 0 -137.10174576 0 2490.60903338 0 13428
0.11150000 0.11150900 14917.59879409 0 -46.96761575 0 6202.81238352 0 559.35201116 0 2337.01175497 0 13453
0.11250000 0.11250000 15322.92952234 0 -271.23875538 0 6223.70504057 0 234.91606922 0 2100.84344447 0 13668
0.11350000 0.11349100 14819.72625239 0 346.81920548 0 5662.17369021 0 -170.70684866 0 1198.25210004 0 13791
0.11450000 0.11448600 14934.07565297 0 197.88927197 0 5773.84285508 0 129.70363613 0 1314.98515286 0 14205
0.11550000 0.11549300 14456.13689995 0 134.51487892 0 5185.95951510 0 692.57620280 0 1031.27121840 0 14776
0.11650000 0.11649800 14648.36692012 0 -18.61687330 0 5284.68885346 0 307.70314252 0 878.67792993 0 14553
0.11750000 0.11747300 14021.91674581 0 148.29502522 0 4488.63687849 0 -57.07419145 0 504.46539734 0 14568
0.11850000 0.11849100 14253.25184437 0 98.38299479 0 4200.91796886 0 388.64516250 0 198.82076372 0 16015
0.11950000 0.11950300 14259.29335929 0 143.64525565 0 3933.10310476 0 489.59667989 0 502.48048508 0 15270
0.12050000 0.12050700 13940.74075443 0 -97.81432347 0 3283.29972914 0 162.47171459 0 462.58341900 0 15999
0.12150000 0.12150000 13773.55555975 0 132.26413999 0 3144.69639230 0 698.47052444 0 613.48837867 0 15670
0.12250000 0.12250700 13700.61799781 0 113.82323955 0 3152.66020743 0 -141.32531392 0 301.30353053 0 16887
0.12350000 0.12352200 13545.40598723 0 495.03404332 0 3325.46950328 0 -501.69289122 0 758.22440237 0 16407
0.12450000 0.12449800 12916.42936122 0 39.09453320 0 3606.01548700 0 -416.07803407 0 576.48245210 0 16306
0.12550000 0.12549900 12856.67328638 0 -35.96458909 0 3791.52294876 0 268.12462905 0 515.79818087 0 17523
0.12650000 0.12650100 12777.25482662 0 398.90804866 0 3634.42159170 0 287.31687427 0 -178.53115971 0 17154
0.12750000 0.12750600 13034.18397930 0 142.64016726 0 3933.00424360 0 -140.44874503 0 377.84403228 0 18007
0.12850000 0.12850300 12364.12505183 0 -88.42361237 0 4138.58051946 0 22.21146483 0 166.13616801 0 17496
0.12950000 0.12949900 12475.94800071 0 327.12935913 0 3764.84142196 0 -96.37633307 0 113.14219605 0 18405
0.13050000 0.13049000 12021.62607875 0 117.16364807 0 3792.86306661 0 100.45589348 0 219.35752062 0 18100
0.13150000 0.13148800 12216.60224207 0 15.16639936 0 3762.87518346 0 580.90484102 0 130.90315145 0 19059
0.13250000 0.13249300 11963.18815262 0 -104.74679707 0 3398.58281838 0 324.38760981 0 405.19451955 0 18957
0.13350000 0.13349100 11910.79174140 0 89.75900685 0 2872.33391515 0 474.69830410 0 1045.50063372 0 19468
0.13450000 0.13450700 11862.89900495 0 128.34045067 0 3238.36184271 0 263.92303004 0 1021.66411122 0 19953
0.13550000 0.13551000 12188.70142771 0 -14.93176889 0 2525.38619017 0 -85.40955549 0 918.76502911 0 19956
0.13650000 0.13649900 12091.04857746 0 45.73997992 0 2887.18505728 0 -181.72327650 0 855.01825904 0 19723
0.13750000 0.13749600 11419.67150129 0 247.18254143 0 3029.00687388 0 -230.57606460 0 1416.01026689 0 20946
0.13850000 0.13851100 11537.75565654 0 134.21939391 0 3525.26789396 0 -259.29632807 0 588.65335852 0 20955
0.13950000 0.13949800 11186.35917966 0 233.60890509 0 3680.35907423 0 -48.80906950 0 897.29238662 0 20506
0.14050000 0.14048300 11273.46684023 0 68.94049567 0 3745.09116046 0 338.04692582 0 762.61054220 0 21447
0.14150000 0.14148400 11146.70487264 0 72.82617837 0 3703.66833725 0 179.89434516 0 1103.19160892 0 21771
0.14250000 0.14249400 11101.44843361 0 225.39793708 0 3622.49234588 0 45.35475096 0 983.63991477 0 22470
0.14350000 0.14350900 10687.04444840 0 75.52959153 0 3660.35616756 0 -2.63849433 0 1924.54105454 0 22519
0.14450000 0.14449900 10881.40547566 0 -42.28071832 0 3378.56892713 0 161.98729494 0 1033.75922409 0 22218
0.14550000 0.14550500 10724.28214946 0 278.74012000 0 3771.99237871 0 116.89562450 0 880.16304414 0 23559
0.14650000 0.14650700 10290.27070219 0 422.66328533 0 3977.28305568 0 -591.63017769 0 1410.92440978 0 23044
0.14750000 0.14750500 10173.94407856 0 14.75096283 0 3913.18807467 0 59.80967956 0 1081.73544329 0 23649
0.14850000 0.14849900 9930.38315071 0 -45.87882492 0 3640.97938153 0 453.68371830 0 907.84965933 0 23640
0.14950000 0.14949500 10060.48442837 0 -101.06498803 0 3657.48919412 0 426.46614436 0 971.92267120 0 24457
0.15050000 0.15050000 10126.51269415 0 25.10919508 0 2943.73363693 0 392.88740443 0 933.51291625 0 24591
0.15150000 0.15149900 10074.85224930 0 106.64262445 0 2844.86149912 0 151.06533442 0 827.62603040 0 25020
0.15250000 0.15250500 9848.59202327 0 107.23886705 0 2809.87563545 0 -117.60742480 0 829.51977071 0 25297
0.15350000 0.15350100 9619.44285465 0 200.02796825 0 2583.37374883 0 -75.85868933 0 504.89489413 0 25452
0.15450000 0.15450400 9490.41806511 0 206.72855752 0 2805.76740531 0 14.66385517 0 375.29121761 0 26061
0.15550000 0.15549900 9446.95211141 0 71.18837860 0 2784.43536535 0 -143.64525565 0 36.70022591 0 26128
0.15650000 0.15649500 9070.19225644 0 11.62365501 0 2489.91700530 0 199.88736572 0 230.66394118 0 26331
0.15750000 0.15749700 9171.73364538 0 16.81639201 0 2608.67121948 0 79.15164450 0 -219.73648837 0 27345
0.15850000 0.15849900 9083.38472811 0 206.25072862 0 2218.57609340 0 17.26917609 0 -108.17046865 0 26980
0.15950000 0.15949700 9038.02942792 0 13.46027555 0 2393.60427291 0 248.56000683 0 -445.67816180 0 27777
0.16050000 0.16050000 8885.67340622 0 41.68963847 0 2053.91735040 0 50.87559714 0 21.33588455 0 28224
0.16150000 0.16150500 8821.29282632 0 73.37925160 0 2171.33144673 0 -37.94148262 0 -133.93928731 0 28075
0.16250000 0.16249700 8570.21845083 0 115.11722220 0 2027.97178997 0 49.35994581 0 172.13264618 0 28590
0.16350000 0.16349900 8675.37376415 0 129.45538479 0 2119.50623329 0 505.21124982 0 322.66413038 0 29163
0.16450000 0.16449100 8540.87865746 0 28.80056070 0 1958.34058437 0 -77.58722167 0 672.23497129 0 28996
0.16550000 0.16550500 8577.10577784 0 19.85834970 0 1822.01105407 0 344.06427468 0 683.77975707 0 30777
0.16650000 0.16650700 8608.09325709 0 -37.79472873 0 1921.81688054 0 188.29864165 0 952.50304533 0 29211
0.16750000 0.16749900 8548.49096626 0 27.65212363 0 1632.02188670 0 -188.81381810 0 654.44765291 0 30922
0.16850000 0.16850800 8491.93140204 0 126.11497626 0 2035.45228390 0 -328.63424557 0 499.37514641 0 30867
0.16950000 0.16949900 8374.12186110 0 97.19226712 0 2061.85919638 0 -214.92085175 0 336.55961469 0 30852
0.17050000 0.17049200 8468.10586411 0 97.00201432 0 2341.09801597 0 -152.82066912 0 -54.98382728 0 31257
0.17150000 0.17149500 8296.62570154 0 -30.81095717 0 2308.47383540 0 -161.75881583 0 -58.44792209 0 32608
0.17250000 0.17250900 8315.61802754 0 4.93246853 0 2273.91637006 0 369.38920677 0 -114.25273633 0 32361
0.17350000 0.17350400 8150.69565480 0 134.49181131 0 2426.88752783 0 -76.52182797 0 126.56973757 0 32508
0.17450000 0.17449800 8128.32008045 0 280.56465750 0 2453.28345574 0 20.05025018 0 -113.14439296 0 32791
0.17550000 0.17549800 7863.41612808 0 184.08495960 0 2524.39757864 0 4.77233543 0 265.83105030 0 33633
0.17650000 0.17650100 7795.30079350 0 0.68200575 0 2469.13419398 0 51.06442194 0 156.78939520 0 33984
0.17750000 0.17750300 7652.69907225 0 85.92033812 0 2539.32561277 0 151.97156166 0 326.73940680 0 34069
0.17850000 0.17849800 7411.30210520 0 137.43787368 0 2551.57341120 0 3.28439819 0 489.91303559 0 34536
