### header ###
fiducial parameters:
Omega_m = 0.31
Omega_nu = 0
Omega_de = 0.69
Omega_k = 0
H_0 = 100
w_de = -1
zeff = 0
beta = 0
fgrowth = 0
b_1 = 2
gamma = 0.55
Lx = 3500 Ly = 3500 Lz = 3500
nx = 700 ny = 700 nz = 700
xoffset = -983.599254 yoffset = -42.9823471 zoffset = 800.977702
bins = 400 dk = 0.001
kx_ny = 0.628318531 ky_ny = 0.628318531 kz_ny = 0.628318531
############################
A(data) = 9.11828078 (not used)
A(ran) = 9.12581065 (used)
Ngal = 507106
weighted Ngal = 0
Nran = 25229228
weighted Nran = 0
SN(data) = 6703.22561
SN(ran) = 135.466372
SN(data+ran) = 6838.69198
############################
13 columns: k_central k_mean P_0(k) sigma^{lin}_{P_0(k)} P^img_1(k) sigma^{lin}_{P_1(k)} P_2(k) sigma^{lin}_{P_2(k)} P^img_3(k) sigma^{lin}_{P_3(k)} P_4(k) sigma^{lin}_{P_4(k)} N_modes
### header ###
0.00050000 0 0 0 0 0 0 0 0 0 0 0 0
0.00150000 0.00179520 58083.01459264 0 11912.00004439 0 55762.52363483 0 -13264.75015778 0 -133554.82727300 0 3
0.00250000 0.00253879 48731.29872552 0 40524.06547564 0 25708.84289800 0 5854.81013957 0 44016.50048215 0 6
0.00350000 0.00331552 59087.00452658 0 -597.27075571 0 41365.70342682 0 45096.17412117 0 67104.09482507 0 7
0.00450000 0.00420575 33331.69688655 0 -33725.16427642 0 39042.79586305 0 26021.13429649 0 -13545.62567868 0 24
0.00550000 0.00557378 67796.34258915 0 -377.49472287 0 28362.27625075 0 20170.09186531 0 4474.84025532 0 45
0.00650000 0.00659388 66888.90704820 0 16822.10398825 0 37446.84731270 0 -22991.69902428 0 34130.82454185 0 40
0.00750000 0.00754703 60964.81720936 0 -4261.87136212 0 52052.15470831 0 39191.41713007 0 46723.42870337 0 57
0.00850000 0.00846663 74697.40031338 0 14569.60753472 0 46783.40446967 0 27739.78052257 0 6662.02244029 0 75
0.00950000 0.00948925 69481.70556030 0 -9477.66497634 0 27338.29439472 0 28630.29982174 0 22479.15886764 0 112
0.01050000 0.01054430 68011.42052029 0 -4261.56379409 0 31676.32179855 0 24742.96943093 0 31089.30623980 0 105
0.01150000 0.01145670 79182.40129834 0 -3220.12745222 0 6372.40319961 0 4571.29578716 0 36422.75561094 0 144
0.01250000 0.01249090 75267.60947607 0 2519.71815072 0 11705.70977131 0 -12756.71367589 0 34211.56115032 0 169
0.01350000 0.01339930 60994.91493823 0 7051.05206283 0 6044.94210638 0 -5182.31263700 0 -4253.28142636 0 180
0.01450000 0.01448870 67345.86526759 0 5664.45848131 0 23050.02710469 0 6421.70196135 0 8617.34226720 0 267
0.01550000 0.01550050 66822.77992126 0 3306.08173267 0 19088.11146605 0 18207.03889930 0 33559.07753899 0 238
0.01650000 0.01653350 78949.08897671 0 -16602.30269089 0 20155.81192096 0 12.14838805 0 6187.04952187 0 315
0.01750000 0.01747870 80441.34316189 0 -2506.32795674 0 7255.81548032 0 10875.38592988 0 2182.28306559 0 297
0.01850000 0.01844180 72947.66774689 0 4394.12561600 0 16934.36632003 0 -14211.07108566 0 9628.21952814 0 388
0.01950000 0.01947590 78562.65171330 0 7909.92480839 0 33111.56605202 0 -20044.53820071 0 6875.30988610 0 399
0.02050000 0.02045430 83429.03705829 0 3318.77989857 0 38021.88968734 0 4716.43494468 0 -4640.68533216 0 462
0.02150000 0.02154770 74519.56008328 0 -2250.14575500 0 34882.93822649 0 3096.49608782 0 -7246.96191482 0 571
0.02250000 0.02255340 75885.38183805 0 -2947.38051503 0 41546.39964579 0 1251.01100214 0 -13721.37883998 0 510
0.02350000 0.02348930 70454.27961665 0 6941.23929073 0 37342.82341036 0 11021.48074522 0 -3221.43461636 0 555
0.02450000 0.02439640 70688.25101264 0 917.31836090 0 30353.99895120 0 28.16235703 0 1112.17698929 0 592
0.02550000 0.02547300 73696.81559694 0 -318.55370332 0 30116.18295482 0 2562.30533861 0 -17078.81344947 0 837
0.02650000 0.02652900 65983.33888460 0 4356.59133149 0 23347.59917592 0 941.42290697 0 -13443.35930795 0 723
0.02750000 0.02749970 62732.45462915 0 2205.02113083 0 23282.46066051 0 1810.86171290 0 -4516.43883169 0 826
0.02850000 0.02848090 60187.54885350 0 -184.59024994 0 23312.77808084 0 3093.84880583 0 1410.93539436 0 831
0.02950000 0.02946900 60601.00816546 0 1258.27180462 0 18192.75895495 0 8066.55382883 0 -10035.02218912 0 996
0.03050000 0.03053250 59920.62373978 0 2327.04874764 0 20001.14913901 0 -1976.71777430 0 -10735.90382725 0 1041
0.03150000 0.03150510 54421.85655128 0 1027.30029541 0 13636.90747683 0 2405.88502506 0 1935.07525965 0 1036
0.03250000 0.03246190 56420.38968673 0 -176.36280508 0 18449.02903327 0 97.06209993 0 -995.71855078 0 1059
0.03350000 0.03345080 55511.19661417 0 1120.78889419 0 18621.48682280 0 -125.66790416 0 -2717.71507150 0 1302
0.03450000 0.03451200 56880.31374071 0 553.60598124 0 18691.01916724 0 -427.01866836 0 -10599.35460549 0 1339
0.03550000 0.03553350 50066.91290568 0 1992.62343540 0 20691.30983430 0 -4873.17381084 0 -6382.43211437 0 1365
0.03650000 0.03647120 49976.61971906 0 4185.95698101 0 24986.93678796 0 -5006.57046027 0 -7504.34143497 0 1308
0.03750000 0.03744890 47650.85616642 0 931.74330161 0 23870.79436797 0 3977.70046944 0 -7512.70069470 0 1579
0.03850000 0.03847530 44962.38202713 0 1007.04254666 0 23699.98426433 0 -1343.19353525 0 -11932.65104084 0 1662
0.03950000 0.03950240 43080.17551532 0 3612.33161624 0 24578.42053366 0 3801.15641891 0 -792.53581329 0 1683
0.04050000 0.04050350 42980.65528773 0 -855.45983886 0 22646.45390805 0 6332.41935541 0 41.87901250 0 1822
0.04150000 0.04152450 42527.10228585 0 -1423.01842420 0 19493.77173148 0 6430.86309488 0 -3910.77146870 0 1887
0.04250000 0.04250150 43545.59185559 0 670.08529044 0 16873.62163365 0 -361.63739389 0 2533.91021849 0 1920
0.04350000 0.04349210 40967.62251647 0 -584.98670819 0 16754.65871260 0 -1364.54754434 0 1808.21443091 0 2005
0.04450000 0.04448520 40081.05766343 0 2896.59883598 0 18540.64036860 0 -130.85921316 0 3405.63491397 0 2151
0.04550000 0.04548030 39881.35813391 0 866.20714468 0 20577.07027945 0 -1045.83017090 0 2531.74625769 0 2274
0.04650000 0.04648670 39751.19094882 0 162.04880855 0 21332.47933587 0 2958.83742423 0 2763.27907856 0 2311
0.04750000 0.04749250 40719.81055904 0 -1265.51063795 0 21010.08213061 0 -558.04265011 0 -2458.50112772 0 2568
0.04850000 0.04851840 38649.98754754 0 1892.97139294 0 20084.85158208 0 -1170.72476115 0 -2166.36641992 0 2493
0.04950000 0.04949480 37694.54942441 0 1737.27606117 0 24392.01233695 0 -544.97650102 0 1167.28658993 0 2644
0.05050000 0.05050630 37095.45083583 0 26.10780257 0 20225.23441967 0 1058.43496793 0 -2072.34946320 0 2829
0.05150000 0.05149060 36609.49334483 0 -742.75043498 0 21008.21475327 0 4404.09960790 0 -1713.02212492 0 2784
0.05250000 0.05249300 36949.46586622 0 1120.47034159 0 18287.55581632 0 2121.79102438 0 -4184.73769345 0 3055
0.05350000 0.05348950 35976.12288979 0 -130.92731751 0 16761.02976469 0 -317.68152825 0 1253.82305272 0 3009
0.05450000 0.05448610 36174.39442488 0 381.42280603 0 17659.23826467 0 1743.33954524 0 -2096.95490578 0 3336
0.05550000 0.05550870 35100.32291788 0 791.00126850 0 13776.08201144 0 -167.52461798 0 -4084.87694411 0 3349
0.05650000 0.05647670 33738.56545497 0 1502.79937485 0 17377.04459506 0 -1363.89945456 0 -2217.76323503 0 3324
0.05750000 0.05747970 31708.06721331 0 871.59837290 0 15594.68784801 0 -153.02717909 0 -1709.94644459 0 3639
0.05850000 0.05849280 31681.48454766 0 -266.55603209 0 17406.04386667 0 2938.04362833 0 -1728.32363452 0 3846
0.05950000 0.05951020 31864.70721832 0 -90.93666288 0 14395.83159648 0 2734.40063725 0 -3074.19740548 0 3787
0.06050000 0.06049470 32418.32967641 0 202.59835823 0 13371.84974045 0 133.02646933 0 570.72104378 0 3930
0.06150000 0.06148310 30633.77601485 0 1265.06027048 0 14478.87496519 0 -1050.19544004 0 18.04380815 0 4083
0.06250000 0.06249100 30164.18553700 0 -35.39251255 0 15064.79206668 0 -237.89178994 0 -148.93981963 0 4303
0.06350000 0.06350600 29819.81918657 0 81.30451088 0 13094.48928277 0 3372.47248935 0 -556.96176816 0 4470
0.06450000 0.06451750 30759.87890808 0 -628.58008294 0 13355.81226448 0 284.43232551 0 506.01202516 0 4479
0.06550000 0.06550280 30454.72748177 0 698.64517915 0 11084.42234611 0 1440.68161691 0 573.24969239 0 4636
0.06650000 0.06648880 30185.93499071 0 151.95069097 0 12002.73261391 0 896.83103457 0 1597.40949850 0 4653
0.06750000 0.06749660 29988.98160433 0 -75.96128523 0 10463.31067407 0 1708.95783306 0 1249.65989972 0 5220
0.06850000 0.06852730 30971.33193027 0 -169.24919588 0 9858.18155513 0 352.39826990 0 1577.08803922 0 5029
0.06950000 0.06949320 29608.25631866 0 185.02633747 0 9923.44090084 0 -79.55950168 0 571.46689626 0 5040
0.07050000 0.07048030 28567.90744948 0 961.76194156 0 9651.63863689 0 -1122.16196576 0 440.20125391 0 5475
0.07150000 0.07148790 28673.35934626 0 965.64498797 0 10928.44141545 0 -1769.83433431 0 163.06048768 0 5509
0.07250000 0.07249820 27622.46528740 0 471.23596683 0 11638.15464993 0 912.82017842 0 176.80658181 0 5916
0.07350000 0.07351270 27545.35358788 0 -769.10791689 0 10894.37825588 0 1399.68719203 0 -2153.94286833 0 5721
0.07450000 0.07449140 27530.85395207 0 733.02469441 0 10343.15043460 0 450.57728117 0 -287.07301676 0 6028
0.07550000 0.07549160 26726.23401049 0 883.27936738 0 10627.55200330 0 -313.77211887 0 -787.92668663 0 6183
0.07650000 0.07648840 26064.08397529 0 -315.66585918 0 10083.92550625 0 184.80554757 0 285.70214210 0 6330
0.07750000 0.07749960 26229.62148409 0 344.09503148 0 10264.70960180 0 2487.85190566 0 99.07941669 0 6583
0.07850000 0.07848650 25550.55520711 0 769.00576036 0 9260.81852902 0 -596.55566003 0 -486.37600321 0 6549
0.07950000 0.07947320 24949.80893263 0 539.95215752 0 9086.52631587 0 -422.48643371 0 151.28722279 0 6828
0.08050000 0.08048110 24033.58573362 0 65.13851541 0 9409.59358006 0 1108.14565115 0 -182.68442660 0 7147
0.08150000 0.08149960 23824.00008877 0 161.12061217 0 8068.08068442 0 923.86626461 0 -655.16933933 0 7386
0.08250000 0.08250610 23374.07199584 0 323.44623194 0 8184.30844690 0 -441.32607414 0 601.88867002 0 7227
0.08350000 0.08350160 22863.72875371 0 194.48515292 0 7102.24017106 0 362.91160431 0 -983.45207858 0 7798
0.08450000 0.08449610 22716.75517257 0 -34.57932464 0 6873.53038534 0 -43.83195966 0 -2340.51583362 0 7371
0.08550000 0.08548940 22980.05537735 0 723.80534265 0 6863.91888433 0 53.40248822 0 -1784.93812161 0 8256
0.08650000 0.08650700 21999.35273729 0 118.11271514 0 6362.64889915 0 -735.66099183 0 -4023.13266163 0 8037
0.08750000 0.08749060 21616.54038283 0 657.58594530 0 7223.46591406 0 -130.94269591 0 -3074.03263689 0 8155
0.08850000 0.08849210 20328.37955621 0 425.34791487 0 7205.05577042 0 252.37714580 0 -3656.42369058 0 8718
0.08950000 0.08949900 20093.52939442 0 681.80802629 0 7158.36035237 0 -27.83688414 0 -3076.20758226 0 8571
0.09050000 0.09049190 19605.81437181 0 35.63999497 0 7652.57824195 0 708.26327090 0 -2446.49498989 0 8932
0.09150000 0.09150830 19395.89918978 0 -54.89869685 0 6526.68152151 0 1387.40643989 0 -825.00840675 0 9285
0.09250000 0.09250820 19439.72763438 0 -276.58604531 0 5630.47221374 0 1163.42002038 0 -581.79349294 0 9204
0.09350000 0.09350330 19874.05763425 0 160.09025926 0 5100.42264840 0 1214.73994348 0 -859.05728638 0 9349
0.09450000 0.09448040 19738.06862569 0 478.45722484 0 4997.51917246 0 -655.04191829 0 71.21957479 0 9564
0.09550000 0.09549270 18882.37042160 0 576.87240443 0 5740.90012191 0 -559.79029560 0 789.73584574 0 10155
0.09650000 0.09649430 18175.95255890 0 318.65915521 0 6325.98239588 0 -287.31248044 0 1093.88218365 0 9913
0.09750000 0.09749140 17711.63467588 0 -22.41259236 0 5757.87128654 0 520.83460740 0 223.36579116 0 10476
0.09850000 0.09850240 17455.36459756 0 377.90554589 0 5410.49516323 0 683.39090320 0 -34.10852586 0 10575
0.09950000 0.09950330 17342.66288288 0 152.31537878 0 5078.20085807 0 -221.89275997 0 -217.42423585 0 10882
0.10050000 0.10051200 16870.21641615 0 370.56785140 0 5670.42310422 0 412.76508697 0 226.98850319 0 10875
0.10150000 0.10150300 16433.35996459 0 232.65324727 0 4951.36199848 0 -416.61957349 0 -1101.96133679 0 11118
0.10250000 0.10250800 15893.90760512 0 470.92949725 0 4968.20134824 0 26.48446357 0 -794.58223916 0 11575
0.10350000 0.10349800 15912.25184133 0 337.14179704 0 5238.52069490 0 -80.21725788 0 -678.73893672 0 11364
0.10450000 0.10450100 15442.66136348 0 -91.65395547 0 5255.76647385 0 -35.92658247 0 -1376.67451247 0 12093
0.10550000 0.10551000 15227.47358661 0 264.39536666 0 5224.61422601 0 31.98905258 0 -1564.34593503 0 12067
0.10650000 0.10649700 15275.25647734 0 71.33590141 0 5205.05070224 0 -18.69958713 0 -1279.08756966 0 12054
0.10750000 0.10749900 14742.72439860 0 157.65607797 0 5771.76677086 0 -24.31896493 0 -898.69731346 0 12807
0.10850000 0.10850100 15183.86483346 0 249.12131849 0 5572.01231847 0 78.94601330 0 -1152.76498498 0 12736
0.10950000 0.10950300 15204.95521282 0 -269.94477273 0 5670.01667504 0 346.07115609 0 -1225.81239264 0 12933
0.11050000 0.11050200 15351.15987388 0 135.63200995 0 5656.37383589 0 90.94621946 0 -794.73712163 0 13428
0.11150000 0.11150900 14537.20304560 0 215.41625598 0 5729.70684244 0 -137.98380694 0 79.67253293 0 13453
0.11250000 0.11250000 15077.97355378 0 -115.15347128 0 5552.67947072 0 618.81919174 0 63.35736696 0 13668
0.11350000 0.11349100 14909.58005611 0 450.93318132 0 5788.03492285 0 404.40912261 0 -954.94271890 0 13791
0.11450000 0.11448600 14460.31103753 0 11.39605467 0 5545.23193051 0 -72.67568973 0 747.46611199 0 14205
0.11550000 0.11549300 14331.24230970 0 -6.43458686 0 4882.92811129 0 806.40823000 0 692.74975904 0 14776
0.11650000 0.11649800 14225.57072147 0 -112.67754862 0 4997.32145016 0 227.45534753 0 432.26929405 0 14553
0.11750000 0.11747300 14403.52079729 0 235.43454105 0 4703.84662450 0 -315.63510238 0 82.85520299 0 14568
0.11850000 0.11849100 14131.65262590 0 331.99662324 0 5072.12638944 0 -685.79432768 0 -551.56504766 0 16015
0.11950000 0.11950300 13755.87039789 0 234.59422125 0 4744.54446591 0 -177.91272827 0 -598.24289038 0 15270
0.12050000 0.12050700 13761.69222136 0 -82.84322980 0 5505.30300918 0 148.04347851 0 -857.93466306 0 15999
0.12150000 0.12150000 13370.53159174 0 193.84475234 0 5654.01215279 0 -129.28073008 0 -1682.35319827 0 15670
0.12250000 0.12250700 13283.53377689 0 344.77168115 0 5115.91089574 0 71.86689565 0 -1439.89072768 0 16887
0.12350000 0.12352200 12852.16961162 0 99.94906530 0 5153.50010312 0 170.48276338 0 -1052.33413632 0 16407
0.12450000 0.12449800 13082.07671575 0 4.27377864 0 5021.17994180 0 654.40151770 0 -1154.14904112 0 16306
0.12550000 0.12549900 13058.02050180 0 -122.83937672 0 4116.90795776 0 1358.19846139 0 -261.61956517 0 17523
0.12650000 0.12650100 13235.97057762 0 -295.42239037 0 3584.48572474 0 627.05322735 0 -296.62739799 0 17154
0.12750000 0.12750600 13046.15716341 0 128.19545431 0 2629.19040106 0 475.08605951 0 237.09101460 0 18007
0.12850000 0.12850300 13034.95289938 0 225.45395840 0 2841.15969816 0 169.22722673 0 750.53739848 0 17496
0.12950000 0.12949900 12628.85325104 0 -48.76710843 0 2490.42229564 0 134.84880992 0 1520.79210474 0 18405
0.13050000 0.13049000 12813.28422469 0 247.07159724 0 2727.94170857 0 350.01022382 0 782.07190945 0 18100
0.13150000 0.13148800 12551.85139725 0 343.00755880 0 2969.61328993 0 -903.64915878 0 471.61493458 0 19059
0.13250000 0.13249300 12155.41817279 0 114.34390829 0 3435.23833708 0 -311.20831963 0 1068.13105015 0 18957
0.13350000 0.13349100 12045.68229270 0 -33.49679501 0 3501.37644859 0 299.88432376 0 850.22459157 0 19468
0.13450000 0.13450700 12050.51550464 0 91.30343776 0 3535.23090129 0 14.50282133 0 597.37510915 0 19953
0.13550000 0.13551000 11958.35494068 0 368.27866648 0 3582.20093365 0 -449.21519417 0 31.83241257 0 19956
0.13650000 0.13649900 11530.06645573 0 288.27143362 0 3806.30818345 0 -127.20464586 0 531.69725123 0 19723
0.13750000 0.13749600 11438.23542895 0 146.78794186 0 3999.83438319 0 67.35553169 0 683.22503616 0 20946
0.13850000 0.13851100 11334.98044669 0 -155.59427370 0 3770.39961568 0 611.96152308 0 -136.97762009 0 20955
0.13950000 0.13949800 11316.19682757 0 119.79115783 0 3442.90556874 0 287.63982070 0 129.38398506 0 20506
0.14050000 0.14048300 11109.35732587 0 214.14314402 0 3334.81737454 0 -195.34854033 0 73.73723882 0 21447
0.14150000 0.14148400 10883.23989928 0 3.27495145 0 3239.86672915 0 -4.44266644 0 531.33256342 0 21771
0.14250000 0.14249400 10804.65626703 0 103.42579237 0 3119.84928913 0 24.73813622 0 -277.90858785 0 22470
0.14350000 0.14350900 10799.97683911 0 83.23889411 0 3360.16976806 0 112.82803727 0 -113.34541064 0 22519
0.14450000 0.14449900 10664.69084320 0 188.33708765 0 3158.69073777 0 -271.39034248 0 41.60637541 0 22218
0.14550000 0.14550500 10451.17272137 0 69.00508496 0 3507.15433377 0 -122.65813127 0 -290.38047156 0 23559
0.14650000 0.14650700 10369.76605397 0 89.18715001 0 3419.61827487 0 335.48752041 0 -273.75312404 0 23044
0.14750000 0.14750500 10584.87693883 0 11.15856821 0 3552.76227913 0 364.53732106 0 43.05765714 0 23649
0.14850000 0.14849900 10400.25922745 0 70.46372635 0 3325.49147242 0 -36.51513587 0 171.77345066 0 23640
0.14950000 0.14949500 10280.46147888 0 145.21165570 0 2938.09855119 0 226.42499462 0 220.19234814 0 24457
0.15050000 0.15050000 10152.65597690 0 -55.04138644 0 3038.04717711 0 168.73731479 0 678.20508649 0 24591
0.15150000 0.15149900 10107.20181555 0 124.16411617 0 2988.63856964 0 424.96784866 0 364.62739455 0 25020
0.15250000 0.15250500 9949.84781333 0 97.72435982 0 2694.18611703 0 54.67900540 0 1055.67344639 0 25297
0.15350000 0.15350100 9845.92277213 0 78.98160331 0 2846.42130843 0 144.56576283 0 545.78716248 0 25452
0.15450000 0.15450400 9669.13706101 0 198.84822515 0 2776.08709019 0 -268.69143300 0 589.52992741 0 26061
0.15550000 0.15549900 9710.93335968 0 129.57182126 0 2782.83161776 0 280.34386759 0 743.74124342 0 26128
0.15650000 0.15649500 9546.76892245 0 45.04410725 0 2686.05753332 0 -190.93054524 0 314.80796407 0 26331
0.15750000 0.15749700 9274.61515218 0 312.18484813 0 2942.44844194 0 -469.74975415 0 200.75624541 0 27345
0.15850000 0.15849900 8859.99147552 0 146.45291240 0 3443.57562767 0 -241.96486945 0 273.57407551 0 26980
0.15950000 0.15949700 8705.25180157 0 64.70374602 0 3198.10338420 0 180.94227339 0 -88.11868063 0 27777
0.16050000 0.16050000 8922.13120262 0 49.89994740 0 3037.71763993 0 173.89347316 0 -518.99469149 0 28224
0.16150000 0.16150500 8801.02628991 0 -74.29338773 0 2867.73137924 0 233.01354125 0 -345.09792296 0 28075
0.16250000 0.16249700 8939.39895071 0 20.14680457 0 2366.53828607 0 399.97135529 0 22.33031791 0 28590
0.16350000 0.16349900 8858.29985135 0 -163.38453257 0 2309.61623095 0 216.31808939 0 -250.56908515 0 29163
0.16450000 0.16449100 8964.12522359 0 123.03270520 0 2019.97502113 0 250.63718950 0 -16.21938049 0 28996
0.16550000 0.16550500 8919.76951951 0 106.47467033 0 1860.68773413 0 95.93552217 0 166.41847152 0 30777
0.16650000 0.16650700 8821.56744063 0 10.69230606 0 1933.50446577 0 -17.19184470 0 -194.09739751 0 29211
0.16750000 0.16749900 8560.10165948 0 353.76255381 0 2332.26641962 0 -252.95383586 0 64.54699617 0 30922
0.16850000 0.16850800 8301.68958950 0 84.66699839 0 2508.37108724 0 -196.19105705 0 260.08392192 0 30867
0.16950000 0.16949900 8390.64265827 0 -2.47135308 0 2374.17256401 0 -51.10143995 0 -112.64569336 0 30852
0.17050000 0.17049200 8375.84643900 0 -21.00272247 0 2591.26067194 0 163.57127031 0 -414.72034089 0 31257
0.17150000 0.17149500 8246.66786544 0 132.63871392 0 2381.49927393 0 -74.88238052 0 208.71566670 0 32608
0.17250000 0.17250900 8220.68935129 0 75.55265913 0 2540.35816260 0 295.56518982 0 2.12254896 0 32361
0.17350000 0.17350400 8171.50043527 0 109.31692849 0 2651.75271314 0 -30.82490758 0 7.39302378 0 32508
0.17450000 0.17449800 7844.22607978 0 162.88253761 0 2195.17895380 0 31.78386076 0 120.53261648 0 32791
0.17550000 0.17549800 7798.10185951 0 81.40512956 0 2276.05836172 0 262.90146479 0 696.22198244 0 33633
0.17650000 0.17650100 7658.71861803 0 35.45710184 0 2261.19623501 0 256.31072124 0 422.76654031 0 33984
0.17750000 0.17750300 7579.69560288 0 198.44728825 0 2123.60347886 0 117.21527556 0 507.05885493 0 34069
0.17850000 0.17849800 7511.34959228 0 -38.88945123 0 1947.65259525 0 160.52744525 0 778.69964566 0 34536
