### header ###
fiducial parameters:
Omega_m = 0.31
Omega_nu = 0
Omega_de = 0.69
Omega_k = 0
H_0 = 100
w_de = -1
zeff = 0
beta = 0
fgrowth = 0
b_1 = 2
gamma = 0.55
Lx = 3500 Ly = 3500 Lz = 3500
nx = 700 ny = 700 nz = 700
xoffset = -983.599254 yoffset = -42.9823471 zoffset = 800.977702
bins = 400 dk = 0.001
kx_ny = 0.628318531 ky_ny = 0.628318531 kz_ny = 0.628318531
############################
A(data) = 9.11312475 (not used)
A(ran) = 9.12157914 (used)
Ngal = 507053
weighted Ngal = 0
Nran = 25229228
weighted Nran = 0
SN(data) = 6699.78199
SN(ran) = 135.403558
SN(data+ran) = 6835.18554
############################
13 columns: k_central k_mean P_0(k) sigma^{lin}_{P_0(k)} P^img_1(k) sigma^{lin}_{P_1(k)} P_2(k) sigma^{lin}_{P_2(k)} P^img_3(k) sigma^{lin}_{P_3(k)} P_4(k) sigma^{lin}_{P_4(k)} N_modes
### header ###
0.00050000 0 0 0 0 0 0 0 0 0 0 0 0
0.00150000 0.00179520 47412.38109567 0 -13929.09710750 0 -24364.44105977 0 56371.17880157 0 -97277.83694021 0 3
0.00250000 0.00253879 52178.36744727 0 6966.39396194 0 5636.27206807 0 14686.26369553 0 54735.68578993 0 6
0.00350000 0.00331552 50246.29097594 0 7192.59926511 0 30063.89638933 0 -60116.58851463 0 39253.58981088 0 7
0.00450000 0.00420575 36781.40190572 0 236.62636718 0 -6249.77143131 0 22663.15045838 0 18445.95335295 0 24
0.00550000 0.00557378 57715.14125689 0 -20589.70253792 0 -2605.85916890 0 -9360.16300344 0 -35351.97947571 0 45
0.00650000 0.00659388 71021.63279048 0 8242.20812898 0 24051.38074121 0 -43167.72255879 0 -18585.78696191 0 40
0.00750000 0.00754703 69298.81242682 0 17103.96812068 0 9549.03174441 0 -13931.51371347 0 8892.98913156 0 57
0.00850000 0.00846663 60231.92652673 0 -2353.54353671 0 43051.17624370 0 -1643.54470334 0 8417.11547819 0 75
0.00950000 0.00948925 63442.60724653 0 -1898.77124727 0 37039.20982421 0 23047.83019017 0 -30678.92260816 0 112
0.01050000 0.01054430 71997.94160151 0 1258.81004868 0 27019.08271551 0 18832.93984499 0 4810.78143858 0 105
0.01150000 0.01145670 70082.67152623 0 -1804.17210820 0 32857.93227112 0 9562.89427500 0 -776.35334096 0 144
0.01250000 0.01249090 74802.30298153 0 1628.68257664 0 29552.78422712 0 -733.70793483 0 10846.39764284 0 169
0.01350000 0.01339930 77867.10857745 0 -4973.02357561 0 29552.89407285 0 8806.26593103 0 1612.49131665 0 180
0.01450000 0.01448870 69960.74277057 0 -406.21828172 0 15453.86562751 0 -4285.00487197 0 4781.03521603 0 267
0.01550000 0.01550050 81586.26516204 0 2651.60991370 0 10897.00356872 0 15238.45815919 0 -7490.11641348 0 238
0.01650000 0.01653350 78704.79208250 0 2160.85216448 0 30413.20579742 0 -7464.06100731 0 -3374.48266613 0 315
0.01750000 0.01747870 77951.57994060 0 4786.47257946 0 21931.13854155 0 -15538.44683639 0 -7994.04466522 0 297
0.01850000 0.01844180 70586.75356199 0 -786.41850482 0 35146.01873981 0 -10119.16401509 0 -17530.05969111 0 388
0.01950000 0.01947590 74595.46347982 0 -26.84332955 0 34578.44587454 0 -5798.95358800 0 -21489.55872379 0 399
0.02050000 0.02045430 75295.18075325 0 862.98097571 0 35925.70370164 0 7707.65488888 0 -39322.57292669 0 462
0.02150000 0.02154770 78009.13910093 0 -274.86695970 0 41760.92834830 0 -5037.50301666 0 -31897.11170743 0 571
0.02250000 0.02255340 71834.82069868 0 1754.69759329 0 33713.30093803 0 -3242.65681059 0 -35043.20314045 0 510
0.02350000 0.02348930 73406.93272652 0 3016.85793660 0 41579.68290071 0 641.36612542 0 -32878.58326757 0 555
0.02450000 0.02439640 71761.22406238 0 5396.94020067 0 37132.90822833 0 -2102.89755954 0 -36214.04873190 0 592
0.02550000 0.02547300 68047.55976408 0 616.05876865 0 41217.63138843 0 3099.12140066 0 -30665.19189243 0 837
0.02650000 0.02652900 61673.87136948 0 -379.76084020 0 36479.98523409 0 10729.43391400 0 -9453.68565440 0 723
0.02750000 0.02749970 64524.69749152 0 1763.35343648 0 35600.45050750 0 13244.31885278 0 -12065.01514044 0 826
0.02850000 0.02848090 60731.06550483 0 -113.29598006 0 22858.01677597 0 4461.07658588 0 3231.04611737 0 831
0.02950000 0.02946900 65221.99815898 0 -348.92604650 0 23547.95777980 0 7415.52018108 0 -12003.61137971 0 996
0.03050000 0.03053250 58860.94202285 0 4498.57791667 0 20751.28560059 0 -4531.69640301 0 1280.71328640 0 1041
0.03150000 0.03150510 57502.04054882 0 2864.67766806 0 23335.95552898 0 -4962.99466084 0 8181.41950431 0 1036
0.03250000 0.03246190 55004.03889809 0 -2377.63270438 0 25245.18408935 0 5091.75582064 0 -1699.34633205 0 1059
0.03350000 0.03345080 58642.78841139 0 1273.77103653 0 25371.39682831 0 2469.18911684 0 -8828.55362879 0 1302
0.03450000 0.03451200 54014.98798287 0 1764.60567776 0 24672.66816641 0 -3768.03793258 0 -3583.04674574 0 1339
0.03550000 0.03553350 53404.02605589 0 2807.15146145 0 31098.42343504 0 -4596.91181042 0 -4584.46628969 0 1365
0.03650000 0.03647120 50994.01083155 0 3250.97213203 0 28840.21500377 0 -3237.28535459 0 -12089.40089157 0 1308
0.03750000 0.03744890 49018.54529852 0 1010.66635715 0 35800.69926566 0 -999.88939299 0 -10048.93964258 0 1579
0.03850000 0.03847530 45466.46406289 0 -761.95476322 0 31192.12183916 0 6010.41759476 0 -9534.57604689 0 1662
0.03950000 0.03950240 48507.54298203 0 485.96078637 0 30400.46369322 0 6463.00395426 0 -11508.97607638 0 1683
0.04050000 0.04050350 47324.39466930 0 1207.81966275 0 28391.71490527 0 1654.44139934 0 -5975.50862310 0 1822
0.04150000 0.04152450 45975.70884776 0 -847.47625151 0 20907.26653125 0 1947.44388837 0 -4552.53413719 0 1887
0.04250000 0.04250150 47039.56470226 0 -1831.07332645 0 20081.88574749 0 7987.84936628 0 -502.10700961 0 1920
0.04350000 0.04349210 46132.01931559 0 516.69671891 0 16824.08121131 0 4162.95528602 0 -8033.98457112 0 2005
0.04450000 0.04448520 45683.51921710 0 2833.89889569 0 14495.35182407 0 -2792.38819590 0 -4085.89850936 0 2151
0.04550000 0.04548030 42332.89504261 0 2459.32497066 0 17465.47040434 0 -3825.20164829 0 -2284.79109692 0 2274
0.04650000 0.04648670 41794.21160322 0 53.78178551 0 17367.15847973 0 3394.29883507 0 -2159.92946039 0 2311
0.04750000 0.04749250 40716.07580436 0 340.57557443 0 16620.53708138 0 4444.91827961 0 -2488.32424228 0 2568
0.04850000 0.04851840 41702.49042217 0 -64.57467730 0 15781.97481052 0 -1473.72321123 0 -2045.07476948 0 2493
0.04950000 0.04949480 38496.53306858 0 72.95678494 0 14307.40578720 0 3282.57474735 0 2363.19897601 0 2644
0.05050000 0.05050630 39943.97019762 0 901.51925015 0 15008.99043797 0 234.62387959 0 -160.87126237 0 2829
0.05150000 0.05149060 38032.98410564 0 41.47038640 0 14108.14564057 0 373.80280803 0 4359.57913523 0 2784
0.05250000 0.05249300 37621.17247957 0 1074.33184137 0 15896.65374827 0 1591.98311964 0 2403.68811054 0 3055
0.05350000 0.05348950 37065.13341550 0 864.42654546 0 15684.87118890 0 -786.28888686 0 4977.68103438 0 3009
0.05450000 0.05448610 37447.06700415 0 824.49213184 0 15682.01520003 0 350.22222607 0 447.18963899 0 3336
0.05550000 0.05550870 36951.22339783 0 794.08353956 0 17600.80033854 0 -224.77181645 0 2630.82710238 0 3349
0.05650000 0.05647670 35596.16652420 0 -751.26677410 0 17526.54462789 0 -356.13741840 0 3362.19092942 0 3324
0.05750000 0.05747970 34871.95365391 0 558.50510061 0 16972.70247834 0 1252.42801201 0 213.91466491 0 3639
0.05850000 0.05849280 34793.19426850 0 871.27652492 0 15589.41525317 0 -1216.62928996 0 410.27598283 0 3846
0.05950000 0.05951020 34341.17910678 0 620.90516207 0 17409.88846707 0 1779.08334442 0 702.68200957 0 3787
0.06050000 0.06049470 33501.62822439 0 -86.89379094 0 15060.83762055 0 2069.77907321 0 3961.36641001 0 3930
0.06150000 0.06148310 33333.45441817 0 -373.71932528 0 14223.15411550 0 2218.43329396 0 -1163.92531072 0 4083
0.06250000 0.06249100 33427.26266801 0 1762.37580952 0 14875.85741828 0 -662.73990675 0 2340.83438623 0 4303
0.06350000 0.06350600 30601.04198856 0 906.60730417 0 13707.86781571 0 220.34723061 0 2421.79068615 0 4470
0.06450000 0.06451750 31310.53553159 0 24.02985098 0 13625.59336708 0 2790.29014254 0 3489.55704850 0 4479
0.06550000 0.06550280 30846.43734002 0 96.26670703 0 13717.97362248 0 711.45648615 0 3523.89482239 0 4636
0.06650000 0.06648880 31040.86427471 0 -391.23642317 0 11358.26774056 0 1646.43364593 0 4546.59148343 0 4653
0.06750000 0.06749660 30039.62048393 0 871.43799814 0 11766.12492051 0 244.39905073 0 4815.49382022 0 5220
0.06850000 0.06852730 29553.77283865 0 497.71647595 0 11158.67805676 0 -220.50870383 0 3967.39694036 0 5029
0.06950000 0.06949320 30406.61505387 0 50.72521834 0 12803.83749227 0 796.81210739 0 4551.07318904 0 5040
0.07050000 0.07048030 28879.21023643 0 1.52003417 0 10832.16163678 0 -138.36387315 0 2810.99606186 0 5475
0.07150000 0.07148790 28360.18918196 0 -41.43578500 0 11047.51418223 0 1376.69648162 0 3811.14139539 0 5509
0.07250000 0.07249820 28882.39576248 0 528.91046516 0 11522.04771775 0 60.91659494 0 973.16832173 0 5916
0.07350000 0.07351270 28292.41436914 0 1121.59076799 0 10681.80480728 0 376.32376744 0 3491.05095037 0 5721
0.07450000 0.07449140 27487.02550747 0 240.37869717 0 10999.07221715 0 -172.33366386 0 2104.74296774 0 6028
0.07550000 0.07549160 26731.94598823 0 267.08548849 0 11201.07850692 0 178.78819871 0 1452.32526384 0 6183
0.07650000 0.07648840 26246.20818868 0 348.82169306 0 10257.80030564 0 -66.68294631 0 682.42645773 0 6330
0.07750000 0.07749960 25601.41377816 0 523.75540525 0 9999.23445165 0 864.61438165 0 -89.25843988 0 6583
0.07850000 0.07848650 24487.90765559 0 311.40604194 0 9983.06516081 0 525.99406114 0 1087.80441964 0 6549
0.07950000 0.07947320 24519.21368745 0 411.99506844 0 8957.36971146 0 -247.71419474 0 -730.23241606 0 6828
0.08050000 0.08048110 24237.23970928 0 44.56210420 0 8729.57164526 0 1299.24426035 0 50.61196740 0 7147
0.08150000 0.08149960 24291.50349783 0 -20.80258355 0 8112.34851192 0 123.76317927 0 -1039.38332525 0 7386
0.08250000 0.08250610 23937.36087781 0 101.47317475 0 7452.29653008 0 -0.80105435 0 440.39128702 0 7227
0.08350000 0.08350160 24052.36935274 0 -420.34773743 0 6728.85257987 0 1763.54017422 0 -174.35372675 0 7798
0.08450000 0.08449610 23417.68074899 0 923.62240710 0 7586.02271668 0 -1397.74292269 0 -2019.66745310 0 7371
0.08550000 0.08548940 23230.94301511 0 1544.50779694 0 7649.79914509 0 -825.76744072 0 -7.80820767 0 8256
0.08650000 0.08650700 22328.01114892 0 -369.55946764 0 8931.94042593 0 1515.48655619 0 59.78551350 0 8037
0.08750000 0.08749060 22808.36650790 0 -389.24162479 0 8227.30206398 0 548.53220717 0 -324.07015567 0 8155
0.08850000 0.08849210 22211.46483383 0 207.76110735 0 7842.49051731 0 573.76816421 0 -321.02962598 0 8718
0.08950000 0.08949900 21644.77073436 0 280.91616382 0 6986.38588404 0 -251.63568715 0 683.02292002 0 8571
0.09050000 0.09049190 21307.76404756 0 615.73911759 0 8017.04636020 0 29.93680488 0 1085.80303052 0 8932
0.09150000 0.09150830 20665.38624301 0 609.54821248 0 7736.88483652 0 761.75594246 0 -93.12105498 0 9285
0.09250000 0.09250820 20721.73710035 0 37.56372316 0 7196.15826663 0 30.40815289 0 951.79014657 0 9204
0.09350000 0.09350330 20057.17045918 0 614.04639496 0 7445.83760140 0 374.97266501 0 749.68938948 0 9349
0.09450000 0.09448040 19441.48516599 0 -23.51357607 0 7218.76451700 0 -37.82954982 0 760.20272389 0 9564
0.09550000 0.09549270 19259.47079832 0 145.55547282 0 6669.33816563 0 1147.79995817 0 1097.23247829 0 10155
0.09650000 0.09649430 18918.61951112 0 178.42241244 0 6334.03408758 0 518.44216749 0 2141.12387213 0 9913
0.09750000 0.09749140 18862.92772813 0 469.34662034 0 6504.43776203 0 487.06034209 0 1584.79920917 0 10476
0.09850000 0.09850240 18273.71525487 0 369.40458517 0 6444.38510373 0 -63.64703014 0 2163.83996823 0 10575
0.09950000 0.09950330 17777.76180282 0 328.83526325 0 7680.22641114 0 -1243.36573963 0 1777.31482823 0 10882
0.10050000 0.10051200 17189.31824964 0 672.11853482 0 7568.72201487 0 -507.75857220 0 704.83169043 0 10875
0.10150000 0.10150300 16931.18079398 0 -126.06554569 0 8404.17565169 0 5.50074441 0 1704.39923544 0 11118
0.10250000 0.10250800 17131.64924359 0 -224.09077295 0 7792.87320296 0 955.92473969 0 343.23603791 0 11575
0.10350000 0.10349800 17226.88548787 0 369.56056610 0 7260.54983110 0 -258.36593477 0 -415.37611988 0 11364
0.10450000 0.10450100 16786.07459018 0 550.39409222 0 7481.69124631 0 -370.44043036 0 -259.28863887 0 12093
0.10550000 0.10551000 16285.83715483 0 304.11448266 0 7897.96260885 0 723.65265709 0 1098.83073360 0 12067
0.10650000 0.10649700 15855.57144681 0 -196.41733924 0 7065.72745180 0 517.76332091 0 268.45636314 0 12054
0.10750000 0.10749900 15565.79842212 0 306.62335904 0 7156.27328358 0 679.36395890 0 827.64140880 0 12807
0.10850000 0.10850100 15422.99897856 0 -2.36446220 0 6147.47210686 0 751.57104676 0 1172.97659853 0 12736
0.10950000 0.10950300 15368.07611565 0 148.63005468 0 5489.66097782 0 627.34651544 0 1682.13350682 0 12933
0.11050000 0.11050200 15000.20277990 0 96.59053223 0 5477.19348794 0 736.58479439 0 2424.42698357 0 13428
0.11150000 0.11150900 14783.36731715 0 175.45108556 0 5018.21410721 0 574.47007840 0 2252.15593178 0 13453
0.11250000 0.11250000 14958.90078700 0 128.30200466 0 5227.62399890 0 -100.82299790 0 2676.99526094 0 13668
0.11350000 0.11349100 14622.22363738 0 249.04662339 0 4731.36297882 0 -729.55027411 0 1745.08609228 0 13791
0.11450000 0.11448600 14248.74816962 0 70.27171602 0 5470.25123807 0 -3.84734655 0 1696.57821976 0 14205
0.11550000 0.11549300 14149.44763348 0 335.37767468 0 5498.63537362 0 118.82781081 0 1340.27163894 0 14776
0.11650000 0.11649800 14120.00897896 0 118.83330310 0 6051.91730997 0 -264.55464296 0 1155.57703556 0 14553
0.11750000 0.11747300 13865.27674080 0 284.13134822 0 5760.68333712 0 -114.80526033 0 1102.31284311 0 14568
0.11850000 0.11849100 13610.76419409 0 -94.24763275 0 5377.15698545 0 721.74353837 0 1001.92044046 0 16015
0.11950000 0.11950300 13855.50047120 0 -496.27639848 0 4915.44244613 0 659.44233806 0 1456.70810830 0 15270
0.12050000 0.12050700 13879.99606806 0 153.94878473 0 4611.46636909 0 347.25089918 0 266.16168593 0 15999
0.12150000 0.12150000 13850.55741354 0 367.79754220 0 4212.27601691 0 117.67113532 0 1507.92917025 0 15670
0.12250000 0.12250700 13807.16835185 0 -16.78179061 0 4507.75003478 0 -200.35640697 0 635.26968764 0 16887
0.12350000 0.12352200 13346.58522351 0 308.89606710 0 4351.05510691 0 -243.10506808 0 292.44996503 0 16407
0.12450000 0.12449800 13217.40664995 0 221.82245871 0 4416.14968402 0 17.58739916 0 339.03773427 0 16306
0.12550000 0.12549900 13196.64580777 0 -142.49077707 0 4784.57224840 0 32.29596154 0 374.92323443 0 17523
0.12650000 0.12650100 13177.09326858 0 117.05490080 0 4492.64624748 0 449.08118239 0 287.62663921 0 17154
0.12750000 0.12750600 13026.71446994 0 127.69236089 0 4532.59713796 0 -199.01738757 0 552.13954080 0 18007
0.12850000 0.12850300 13086.80008196 0 48.62474837 0 4255.31357229 0 557.25835162 0 677.70199306 0 17496
0.12950000 0.12949900 13087.56900204 0 -52.22955556 0 4469.20516959 0 95.09630083 0 707.39329275 0 18405
0.13050000 0.13049000 12945.64832429 0 245.47334193 0 4406.16470755 0 -155.32515167 0 1368.68872821 0 18100
0.13150000 0.13148800 12440.57767700 0 185.07357114 0 4548.46984534 0 -197.71351881 0 539.20960042 0 19059
0.13250000 0.13249300 12243.18490771 0 381.72598023 0 5146.39308466 0 -244.22659294 0 1267.79542905 0 18957
0.13350000 0.13349100 12132.24072464 0 336.58817458 0 5111.63789701 0 231.16813306 0 1143.53794401 0 19468
0.13450000 0.13450700 11688.02460945 0 -32.13404894 0 5068.88594052 0 561.42589846 0 1791.66068003 0 19953
0.13550000 0.13551000 12036.34540601 0 -143.48707780 0 4297.35153156 0 935.13753454 0 1628.85832980 0 19956
0.13650000 0.13649900 11841.47908841 0 -55.12311166 0 4167.98622026 0 582.09007640 0 2018.77770272 0 19723
0.13750000 0.13749600 11680.88463727 0 120.30303891 0 3372.51642764 0 -31.67060982 0 2350.84133185 0 20946
0.13850000 0.13851100 11671.65759631 0 211.07185752 0 3486.78893621 0 360.60594253 0 2599.29039450 0 20955
0.13950000 0.13949800 11635.84788969 0 144.08463855 0 3836.47181976 0 -304.03429528 0 1837.76293115 0 20506
0.14050000 0.14048300 11310.70454128 0 233.13547001 0 3782.58150668 0 -510.58160735 0 1592.42250254 0 21447
0.14150000 0.14148400 10828.61361983 0 299.75470580 0 3618.03260941 0 14.54115749 0 1411.41871555 0 21771
0.14250000 0.14249400 11025.10565417 0 -139.63368974 0 3879.00408479 0 321.19109919 0 1534.08343757 0 22470
0.14350000 0.14350900 10983.78169212 0 -53.10227985 0 3581.65170502 0 367.93265244 0 964.72887461 0 22519
0.14450000 0.14449900 11017.08691618 0 -3.11236880 0 3272.78749318 0 267.18434964 0 1235.31404793 0 22218
0.14550000 0.14550500 10640.63462925 0 133.06161996 0 3104.20725777 0 -78.51344083 0 1349.10323530 0 23559
0.14650000 0.14650700 10643.53455641 0 218.05145494 0 3158.55892290 0 -60.82311622 0 736.90334699 0 23044
0.14750000 0.14750500 10521.40807845 0 272.46133831 0 3509.59290888 0 50.37492032 0 704.76688145 0 23649
0.14850000 0.14849900 10464.90343709 0 7.44157559 0 3199.77303923 0 -138.11012952 0 999.50603141 0 23640
0.14950000 0.14949500 10265.78608991 0 84.16752987 0 3420.78263956 0 158.24265415 0 715.57460241 0 24457
0.15050000 0.15050000 10080.34453559 0 83.09378790 0 3271.43639075 0 -148.37850797 0 522.29994938 0 24591
0.15150000 0.15149900 9868.28736191 0 132.15758964 0 3047.91132329 0 79.75645506 0 88.14086947 0 25020
0.15250000 0.15250500 9784.99134803 0 199.79289840 0 3231.94685232 0 -135.95935021 0 349.19077470 0 25297
0.15350000 0.15350100 9740.95419655 0 168.16282165 0 3274.07268817 0 -14.86278578 0 -95.86862612 0 25452
0.15450000 0.15450400 9308.31582086 0 170.89358639 0 3307.43283510 0 53.56385159 0 113.16306673 0 26061
0.15550000 0.15549900 9315.29102445 0 34.81186804 0 3035.83927802 0 16.79508194 0 24.60939703 0 26128
0.15650000 0.15649500 9154.87232647 0 -6.78864161 0 2815.63155149 0 352.16210159 0 36.01017506 0 26331
0.15750000 0.15749700 9134.18837630 0 157.36938063 0 3070.68234225 0 272.67883284 0 -57.63934771 0 27345
0.15850000 0.15849900 9039.76499039 0 76.09331980 0 2799.59407552 0 102.62699425 0 458.39719839 0 26980
0.15950000 0.15949700 8941.43109664 0 96.09249171 0 2925.55416931 0 26.70580271 0 288.06931749 0 27777
0.16050000 0.16050000 8808.01247807 0 84.92974936 0 2910.85681119 0 -65.79923745 0 363.61681387 0 28224
0.16150000 0.16150500 8716.18145129 0 40.26021604 0 2896.71966628 0 12.09412426 0 396.77484467 0 28075
0.16250000 0.16249700 8617.45211293 0 134.40942702 0 3084.53388828 0 -91.59321078 0 838.25580128 0 28590
0.16350000 0.16349900 8523.96241569 0 106.61823870 0 2985.73864248 0 259.75438475 0 361.00028869 0 29163
0.16450000 0.16449100 8590.25431122 0 -1.14949158 0 2859.55885724 0 128.93691296 0 783.43729182 0 28996
0.16550000 0.16550500 8601.00820777 0 -11.79600296 0 2617.39297011 0 322.26429193 0 632.11162302 0 30777
0.16650000 0.16650700 8465.12904494 0 23.16888018 0 2847.62961141 0 -10.97081990 0 1054.55741381 0 29211
0.16750000 0.16749900 8370.61778245 0 180.90822121 0 2496.58464086 0 -282.30021997 0 258.61748148 0 30922
0.16850000 0.16850800 8251.64387682 0 78.89603349 0 2620.39175842 0 170.60798750 0 487.97755390 0 30867
0.16950000 0.16949900 8363.11531938 0 0.94430526 0 2595.78631584 0 394.81739383 0 576.89217666 0 30852
0.17050000 0.17049200 8333.45697341 0 -123.80931448 0 2186.53409518 0 186.69379559 0 401.42461424 0 31257
0.17150000 0.17149500 8331.45778120 0 -24.46967327 0 2186.85264778 0 306.13015173 0 543.02014864 0 32608
0.17250000 0.17250900 8206.15676176 0 201.62842047 0 2037.53935269 0 -184.00477222 0 592.31781193 0 32361
0.17350000 0.17350400 8180.91421397 0 174.84363869 0 2081.59847331 0 -249.63429803 0 465.49762611 0 32508
0.17450000 0.17449800 7973.44859163 0 67.58939324 0 2368.98784576 0 117.49428370 0 597.63654198 0 32791
0.17550000 0.17549800 7841.94128868 0 81.39480406 0 2379.87355718 0 25.03131446 0 990.96113240 0 33633
0.17650000 0.17650100 7907.94758533 0 -3.95900473 0 2073.08542956 0 138.75821930 0 545.29615208 0 33984
0.17750000 0.17750300 7900.19247708 0 84.15885206 0 2359.81572765 0 146.29583301 0 447.08089172 0 34069
0.17850000 0.17849800 7735.37995007 0 200.79469142 0 2088.93616779 0 -268.52556595 0 448.93838294 0 34536
