### header ###
fiducial parameters:
Omega_m = 0.31
Omega_nu = 0
Omega_de = 0.69
Omega_k = 0
H_0 = 100
w_de = -1
zeff = 0
beta = 0
fgrowth = 0
b_1 = 2
gamma = 0.55
Lx = 3500 Ly = 3500 Lz = 3500
nx = 700 ny = 700 nz = 700
xoffset = -983.599254 yoffset = -42.9823471 zoffset = 800.977702
bins = 400 dk = 0.001
kx_ny = 0.628318531 ky_ny = 0.628318531 kz_ny = 0.628318531
############################
A(data) = 9.07932691 (not used)
A(ran) = 9.07578275 (used)
Ngal = 504286
weighted Ngal = 0
Nran = 25229228
weighted Nran = 0
SN(data) = 6748.93059
SN(ran) = 134.723742
SN(data+ran) = 6883.65434
############################
13 columns: k_central k_mean P_0(k) sigma^{lin}_{P_0(k)} P^img_1(k) sigma^{lin}_{P_1(k)} P_2(k) sigma^{lin}_{P_2(k)} P^img_3(k) sigma^{lin}_{P_3(k)} P_4(k) sigma^{lin}_{P_4(k)} N_modes
### header ###
0.00050000 0 0 0 0 0 0 0 0 0 0 0 0
0.00150000 0.00179520 14488.21185189 0 1269.72871382 0 9553.86495634 0 118.87065065 0 -27940.79820081 0 3
0.00250000 0.00253879 24804.26334593 0 838.08004812 0 -2707.37858870 0 -922.58875882 0 23574.43059972 0 6
0.00350000 0.00331552 20708.77530470 0 -2634.72662564 0 -9828.97357664 0 11337.50689838 0 33485.15136552 0 7
0.00450000 0.00420575 38278.26961138 0 -12341.05744941 0 -5432.49726211 0 -14170.86755001 0 -13556.28071409 0 24
0.00550000 0.00557378 43224.62264476 0 2538.52373898 0 1616.83022282 0 -18990.45861580 0 -16518.81993928 0 45
0.00650000 0.00659388 44787.83716881 0 3095.05710881 0 6859.26142556 0 -15016.02056442 0 19238.16072751 0 40
0.00750000 0.00754703 49601.93594831 0 3919.91063309 0 12410.91933103 0 1327.01325983 0 -10871.50837576 0 57
0.00850000 0.00846663 42941.00098071 0 -2624.15946682 0 35488.62755863 0 -6422.50383515 0 -5785.81603919 0 75
0.00950000 0.00948925 46708.92906757 0 -858.29935087 0 10441.20971403 0 9465.54899279 0 4379.74681049 0 112
0.01050000 0.01054430 54105.94024384 0 -5020.29019142 0 18492.30824924 0 13494.98679908 0 13592.85934078 0 105
0.01150000 0.01145670 57462.93547043 0 -10189.26755731 0 -1341.44698821 0 15489.56548840 0 -5093.43646024 0 144
0.01250000 0.01249090 62186.41152613 0 2282.09987664 0 6384.72789004 0 5681.06715505 0 14700.32394843 0 169
0.01350000 0.01339930 66891.98272853 0 3672.85661116 0 6851.58320932 0 4423.28965620 0 12916.75889840 0 180
0.01450000 0.01448870 74881.94113274 0 -10528.30639003 0 -4380.63656087 0 -571.18898657 0 -622.90655120 0 267
0.01550000 0.01550050 71988.49486909 0 -2985.02464526 0 2997.96447176 0 6776.08624197 0 9491.29683092 0 238
0.01650000 0.01653350 71373.13911308 0 6590.44696535 0 7655.52210741 0 -18823.16357539 0 12446.17980902 0 315
0.01750000 0.01747870 67955.94842875 0 7310.95803467 0 5803.62203134 0 -11813.13889115 0 -10835.38011654 0 297
0.01850000 0.01844180 75017.38091267 0 -1733.55229107 0 26222.92089481 0 -145.13366523 0 -20461.73226735 0 388
0.01950000 0.01947590 66911.53526772 0 2957.29958407 0 34063.15957475 0 -10668.66725848 0 -5377.59636835 0 399
0.02050000 0.02045430 63486.32584541 0 7430.14064718 0 24244.37968146 0 -8273.04182421 0 -2941.77838301 0 462
0.02150000 0.02154770 60477.87110683 0 -1694.06275264 0 35630.87777355 0 15105.98421386 0 -1078.70809509 0 571
0.02250000 0.02255340 66191.16699784 0 -5915.35710364 0 30343.45376153 0 20258.84721177 0 -2356.43247929 0 510
0.02350000 0.02348930 66225.98809292 0 2936.61563390 0 17931.10643606 0 14772.60243602 0 13563.64037772 0 555
0.02450000 0.02439640 64983.85262542 0 814.97949198 0 17852.67658783 0 -11872.78512027 0 11218.32428587 0 592
0.02550000 0.02547300 60735.78887104 0 5456.39969205 0 19550.67181745 0 -1016.57495874 0 14119.24005888 0 837
0.02650000 0.02652900 57375.93765558 0 3628.86339797 0 29154.37377959 0 -3867.21763842 0 11614.09843598 0 723
0.02750000 0.02749970 52189.46186557 0 -1426.14902738 0 24286.12105727 0 1285.67831321 0 3533.81389143 0 826
0.02850000 0.02848090 56706.42795675 0 -1123.12860815 0 28580.86924512 0 5537.25713082 0 -3172.66311410 0 831
0.02950000 0.02946900 54501.16516532 0 -798.24559411 0 20440.75173372 0 2864.74357550 0 6405.40085564 0 996
0.03050000 0.03053250 57824.87713698 0 15.91686536 0 19716.75855488 0 7195.65297629 0 4386.46936891 0 1041
0.03150000 0.03150510 59619.97598822 0 -883.89120807 0 19409.30036833 0 4092.12676202 0 6711.95830724 0 1036
0.03250000 0.03246190 62589.87487704 0 -595.69776492 0 20602.11510494 0 988.39953007 0 6497.48452759 0 1059
0.03350000 0.03345080 56483.55097907 0 2273.03760426 0 18270.09034592 0 -571.85794704 0 15621.49020511 0 1302
0.03450000 0.03451200 57854.86502013 0 458.27307272 0 24232.18680589 0 -1644.76399089 0 13189.61568132 0 1339
0.03550000 0.03553350 55953.10596912 0 -1023.67648492 0 16550.45550831 0 4703.27542673 0 13120.96210269 0 1365
0.03650000 0.03647120 55875.55488670 0 1282.07537340 0 23686.80277723 0 3971.35138649 0 6473.57111308 0 1308
0.03750000 0.03744890 55517.67751200 0 3781.74667916 0 22971.59725646 0 -1846.62748122 0 11128.90986506 0 1579
0.03850000 0.03847530 51640.67261941 0 4426.56305883 0 25849.00604414 0 -3735.46867487 0 12812.62515033 0 1662
0.03950000 0.03950240 46952.89642460 0 865.33826498 0 28864.71060062 0 -1601.57265151 0 8061.09449625 0 1683
0.04050000 0.04050350 47636.90575924 0 748.02742364 0 30633.11694050 0 4920.33058093 0 8523.52303278 0 1822
0.04150000 0.04152450 44614.93999638 0 -222.56831119 0 24367.40689437 0 3691.98075202 0 6447.96607439 0 1887
0.04250000 0.04250150 45982.95866566 0 -79.93803005 0 25805.39729099 0 3919.71291078 0 11888.93244197 0 1920
0.04350000 0.04349210 44173.03064144 0 1629.48445043 0 22214.65035988 0 -1970.99481199 0 1493.86891734 0 2005
0.04450000 0.04448520 42627.06189634 0 2619.53496176 0 25828.46489342 0 908.90198138 0 10511.02765736 0 2151
0.04550000 0.04548030 40283.28364466 0 286.79510707 0 23228.85594631 0 218.20523896 0 3192.09482299 0 2274
0.04650000 0.04648670 38669.75977818 0 581.75175157 0 22220.36233762 0 4100.21140744 0 6980.39929198 0 2311
0.04750000 0.04749250 38443.91696591 0 356.16817521 0 21444.96135910 0 2860.04217843 0 2459.88518387 0 2568
0.04850000 0.04851840 37851.51896660 0 1342.95187465 0 22205.64301036 0 64.23492447 0 4853.69816366 0 2493
0.04950000 0.04949480 35604.07541646 0 1319.41193561 0 18337.86515875 0 774.63645227 0 430.39203060 0 2644
0.05050000 0.05050630 35334.62385104 0 -469.18734404 0 17575.97520450 0 2124.35042980 0 5259.92962686 0 2829
0.05150000 0.05149060 34992.89379803 0 9.54234214 0 15964.97778972 0 653.53703184 0 2171.22160100 0 2784
0.05250000 0.05249300 36071.68867124 0 1006.16487931 0 15702.33665930 0 1162.49731628 0 -729.99405084 0 3055
0.05350000 0.05348950 35006.84420521 0 -765.25123345 0 14177.89767647 0 -638.50574272 0 874.30607004 0 3009
0.05450000 0.05448610 34198.05012604 0 -31.14774417 0 13176.10465705 0 1363.39416422 0 -1046.40136867 0 3336
0.05550000 0.05550870 33844.23704320 0 1152.21575635 0 14955.49556950 0 1865.48799234 0 523.53351688 0 3349
0.05650000 0.05647670 34251.32530306 0 1019.93294258 0 14222.71473260 0 226.65347373 0 477.92666998 0 3324
0.05750000 0.05747970 32584.52625957 0 839.75190007 0 15642.58058446 0 -813.37244902 0 2817.50991340 0 3639
0.05850000 0.05849280 31221.78018513 0 45.13472997 0 14989.76743595 0 -316.02505471 0 2451.78955387 0 3846
0.05950000 0.05951020 31595.36549862 0 -174.40425579 0 16426.76922104 0 2907.51750113 0 2920.08385216 0 3787
0.06050000 0.06049470 32036.17639631 0 53.78694826 0 14886.73214514 0 -115.06669316 0 3794.30204562 0 3930
0.06150000 0.06148310 32842.33417805 0 -651.92339813 0 14316.96236535 0 2562.03072430 0 2208.92065410 0 4083
0.06250000 0.06249100 33072.13143646 0 91.29607810 0 12908.30077751 0 1414.93377878 0 4038.95044615 0 4303
0.06350000 0.06350600 33301.15977478 0 414.79393753 0 13935.90754250 0 -67.45032855 0 3686.19188227 0 4470
0.06450000 0.06451750 31124.78640924 0 633.72635519 0 12192.32633666 0 -545.75530722 0 4184.75966260 0 4479
0.06550000 0.06550280 31379.84818457 0 682.20237245 0 13704.13306103 0 974.55018096 0 2647.02934693 0 4636
0.06650000 0.06648880 30222.18408023 0 454.28347596 0 13106.24277543 0 1410.04564398 0 4362.08361778 0 4653
0.06750000 0.06749660 30109.04298264 0 817.09292375 0 13419.30309400 0 228.08586199 0 3431.13010694 0 5220
0.06850000 0.06852730 29520.37973801 0 259.90487339 0 11719.00110413 0 313.40523415 0 2696.72355329 0 5029
0.06950000 0.06949320 28378.09403527 0 -229.06458741 0 11025.76472852 0 1423.75439056 0 4524.29280109 0 5040
0.07050000 0.07048030 28415.22189060 0 -108.95817235 0 10592.90666138 0 1454.40134806 0 2288.95424993 0 5475
0.07150000 0.07148790 28383.47647584 0 402.63181877 0 9129.27827235 0 -307.70204406 0 830.61383414 0 5509
0.07250000 0.07249820 28865.58936643 0 964.42240504 0 11283.68249273 0 -993.16903148 0 1495.11017405 0 5916
0.07350000 0.07351270 27201.20692891 0 -104.26072973 0 8868.01021351 0 454.55589336 0 1726.75284064 0 5721
0.07450000 0.07449140 27251.73596278 0 -584.14419147 0 9722.98343580 0 1484.75172210 0 576.18916401 0 6028
0.07550000 0.07549160 28062.61711073 0 228.36596859 0 7617.63631657 0 2102.69983724 0 1007.70491638 0 6183
0.07650000 0.07648840 27364.54752319 0 325.91117003 0 8901.80974334 0 -25.25155514 0 3175.49713382 0 6330
0.07750000 0.07749960 25926.22758939 0 1032.14119655 0 8159.87875748 0 -1516.80470489 0 2396.87767554 0 6583
0.07850000 0.07848650 25875.91824697 0 1355.69397884 0 10324.61946066 0 -197.53447027 0 1585.05185434 0 6549
0.07950000 0.07947320 24734.07192714 0 -168.55497089 0 8571.10820121 0 474.80046063 0 3622.08591669 0 6828
0.08050000 0.08048110 24991.44046272 0 -389.59752494 0 9747.58887839 0 2255.31948868 0 3291.03286823 0 7147
0.08150000 0.08149960 24282.05676541 0 287.18286248 0 8605.70960484 0 -0.76982082 0 3001.11704409 0 7386
0.08250000 0.08250610 24289.30658332 0 880.84079227 0 9339.75366759 0 -144.15603827 0 3168.80752912 0 7227
0.08350000 0.08350160 23995.90864967 0 235.81900109 0 8782.55023882 0 -239.71303207 0 2902.04718398 0 7798
0.08450000 0.08449610 23501.38319206 0 -284.43781779 0 8439.02970049 0 1223.60449355 0 2103.08429728 0 7371
0.08550000 0.08548940 23394.83283802 0 354.45018805 0 8567.35147738 0 189.01922961 0 2772.07772120 0 8256
0.08650000 0.08650700 22580.98585547 0 613.90359551 0 9064.29354096 0 -1023.21623132 0 1283.75601301 0 8037
0.08750000 0.08749060 21732.31777783 0 932.70774708 0 8276.33719599 0 44.44665634 0 1817.07898098 0 8155
0.08850000 0.08849210 20804.78046906 0 395.89717732 0 9207.27972225 0 -275.39861302 0 1316.90745306 0 8718
0.08950000 0.08949900 21007.99506182 0 132.25095851 0 8893.36260702 0 1403.65262273 0 844.89817232 0 8571
0.09050000 0.09049190 20895.40319286 0 275.96871233 0 7906.93700465 0 796.35295226 0 1066.19556846 0 8932
0.09150000 0.09150830 20263.13119508 0 17.68340432 0 7662.55223386 0 380.28919814 0 2430.51243678 0 9285
0.09250000 0.09250820 19532.10788979 0 -65.02515462 0 6622.26927211 0 835.28557286 0 1493.39658072 0 9204
0.09350000 0.09350330 20052.99632160 0 398.95638078 0 6879.04464078 0 -197.84203831 0 1507.52274106 0 9349
0.09450000 0.09448040 19331.74928591 0 430.05480422 0 6816.52045364 0 -271.73306115 0 1500.33883060 0 9564
0.09550000 0.09549270 18791.63785208 0 400.50191014 0 7155.27368748 0 -461.81999121 0 956.28393521 0 10155
0.09650000 0.09649430 17996.02526001 0 233.59682206 0 7415.37738163 0 131.03386787 0 532.63643218 0 9913
0.09750000 0.09749140 18207.69797366 0 376.20074022 0 7023.28306334 0 154.17946075 0 -1037.52693248 0 10476
0.09850000 0.09850240 17668.46530564 0 528.75338578 0 8033.40238878 0 -330.26215923 0 -218.03827345 0 10575
0.09950000 0.09950330 17182.83735182 0 519.05620510 0 7429.09711279 0 250.73824757 0 262.30170713 0 10882
0.10050000 0.10051200 16721.59514913 0 5.45153353 0 7669.36266886 0 636.27807140 0 -82.94571586 0 10875
0.10150000 0.10150300 16476.63918056 0 -9.73832888 0 7463.08338035 0 -155.23288126 0 -655.52084565 0 11118
0.10250000 0.10250800 16094.59574618 0 256.80942084 0 7176.14437538 0 407.10583518 0 -549.39229920 0 11575
0.10350000 0.10349800 15939.71327279 0 289.83673522 0 7027.80870724 0 246.50149793 0 -120.84677525 0 11364
0.10450000 0.10450100 15756.49060213 0 61.39903736 0 7008.78342753 0 -12.15420987 0 66.47588712 0 12093
0.10550000 0.10551000 15377.63269380 0 348.73161957 0 6585.39406196 0 347.33108656 0 -24.89543530 0 12067
0.10650000 0.10649700 15309.85788097 0 143.98028511 0 6469.10039204 0 547.06137290 0 -507.81569198 0 12054
0.10750000 0.10749900 15356.43246872 0 -24.27524633 0 6369.96462449 0 288.44828524 0 212.27576668 0 12807
0.10850000 0.10850100 15067.97759273 0 133.29778827 0 5978.05704394 0 312.68244927 0 -686.98835072 0 12736
0.10950000 0.10950300 14885.52384216 0 77.16827007 0 5486.16788374 0 589.21027635 0 990.48879578 0 12933
0.11050000 0.11050200 14653.41982351 0 -85.02850067 0 5184.10312233 0 475.18711758 0 1225.13134914 0 13428
0.11150000 0.11150900 14821.37393828 0 92.10981523 0 4888.78288848 0 542.78617725 0 -97.77247224 0 13453
0.11250000 0.11250000 14349.25700873 0 518.51576413 0 5083.98972782 0 -449.42499951 0 32.68020189 0 13668
0.11350000 0.11349100 14023.78412315 0 354.91373702 0 5280.88819134 0 -478.14636144 0 564.18851847 0 13791
0.11450000 0.11448600 13503.99414860 0 81.65228244 0 4932.60034851 0 623.13942414 0 823.19595228 0 14205
0.11550000 0.11549300 13832.87225169 0 -189.49376314 0 4944.76027035 0 663.26716623 0 91.59760461 0 14776
0.11650000 0.11649800 13608.01805095 0 289.29299887 0 4472.81909397 0 -2.84950797 0 454.97111020 0 14553
0.11750000 0.11747300 13332.63481633 0 166.68539664 0 5047.98229890 0 -186.08305336 0 506.29103330 0 14568
0.11850000 0.11849100 13245.19761858 0 88.94812571 0 4595.56070799 0 31.50023910 0 747.06956892 0 16015
0.11950000 0.11950300 12982.00725953 0 -25.21728327 0 4878.02899192 0 291.40862755 0 870.75256081 0 15270
0.12050000 0.12050700 13162.59363277 0 -108.22967550 0 4258.66386692 0 367.94034164 0 1215.02554237 0 15999
0.12150000 0.12150000 13475.43425989 0 -199.73577862 0 4053.58189683 0 1292.11527274 0 1292.38988706 0 15670
0.12250000 0.12250700 13361.85377940 0 309.90445087 0 3936.68407542 0 -146.65063470 0 1628.48485433 0 16887
0.12350000 0.12352200 13315.82842028 0 188.05148876 0 3685.75249937 0 -337.55262005 0 1478.85300663 0 16407
0.12450000 0.12449800 13175.77511987 0 166.19218933 0 4549.71110204 0 -590.55588649 0 755.53537900 0 16306
0.12550000 0.12549900 12726.72579274 0 270.59835480 0 4734.22995226 0 -518.90681491 0 590.53831117 0 17523
0.12650000 0.12650100 12417.83961176 0 105.31228286 0 4994.44349214 0 -77.60677421 0 447.12812538 0 17154
0.12750000 0.12750600 12516.92045644 0 -101.76349700 0 4570.13142247 0 225.21779009 0 -263.01790126 0 18007
0.12850000 0.12850300 12563.27535273 0 36.51711309 0 4275.32746353 0 630.65836407 0 -61.15869492 0 17496
0.12950000 0.12949900 12360.93952579 0 171.08911178 0 3732.08542652 0 426.36838166 0 308.04036890 0 18405
0.13050000 0.13049000 12509.12140991 0 -96.36974232 0 3626.50171487 0 188.30083856 0 434.59033424 0 18100
0.13150000 0.13148800 12346.43988998 0 63.12141834 0 3397.11088565 0 230.94734315 0 -762.32494332 0 19059
0.13250000 0.13249300 12108.51404787 0 205.30495692 0 3253.90501291 0 15.67685245 0 74.67158657 0 18957
0.13350000 0.13349100 11989.55112681 0 132.84632234 0 3070.42969708 0 -59.80034267 0 315.26931611 0 19468
0.13450000 0.13450700 12088.30243432 0 -50.30286152 0 3323.10782017 0 311.40164811 0 -103.39701279 0 19953
0.13550000 0.13551000 11890.36043640 0 184.13768555 0 3014.05687059 0 -260.84954663 0 -189.88371547 0 19956
0.13650000 0.13649900 11533.25198178 0 219.39816354 0 3141.78548057 0 219.96716440 0 233.28705711 0 19723
0.13750000 0.13749600 11534.02090186 0 -17.20436711 0 3080.08513638 0 605.51577589 0 791.03422221 0 20946
0.13850000 0.13851100 11816.76380011 0 -75.02880487 0 3015.46289589 0 3.02776562 0 151.29710891 0 20955
0.13950000 0.13949800 11503.92317299 0 213.15123711 0 3047.99919987 0 -184.77918459 0 219.32676382 0 20506
0.14050000 0.14048300 11084.97157474 0 279.72214078 0 3381.53476173 0 -687.03448593 0 -104.24205596 0 21447
0.14150000 0.14148400 11115.17914934 0 282.89118997 0 3512.22920630 0 -240.87300294 0 261.98425298 0 21771
0.14250000 0.14249400 10813.15832621 0 -44.71709652 0 3790.85288983 0 293.92958696 0 -192.27725384 0 22470
0.14350000 0.14350900 10790.40927640 0 -93.48629202 0 3465.91824830 0 240.58081330 0 33.52249891 0 22519
0.14450000 0.14449900 10715.28578451 0 188.53590841 0 2841.12674445 0 734.98873599 0 457.94243709 0 22218
0.14550000 0.14550500 10711.34232295 0 25.88426652 0 3167.34658097 0 328.40027418 0 381.73696480 0 23559
0.14650000 0.14650700 10557.53633767 0 275.71387025 0 2904.68348140 0 -62.70400459 0 895.80397704 0 23044
0.14750000 0.14750500 10507.24896439 0 237.12946060 0 2982.21259468 0 -182.52954413 0 663.47587311 0 23649
0.14850000 0.14849900 10143.71453481 0 -97.78993771 0 3092.92610173 0 213.64664134 0 959.25636055 0 23640
0.14950000 0.14949500 10171.09907426 0 -58.82919661 0 2799.13272347 0 554.87360092 0 1043.43333716 0 24457
0.15050000 0.15050000 10162.16861675 0 51.86904188 0 2775.60376900 0 -288.25056294 0 629.02276121 0 24591
0.15150000 0.15149900 10076.89537980 0 350.04317754 0 2882.34086077 0 -159.07528475 0 752.69147316 0 25020
0.15250000 0.15250500 9718.33696160 0 81.19499469 0 3116.87246996 0 -208.33779741 0 775.97766858 0 25297
0.15350000 0.15350100 9609.84233822 0 135.54742874 0 2913.67984635 0 81.77267336 0 633.57806346 0 25452
0.15450000 0.15450400 9619.58565410 0 153.27103660 0 3022.05363943 0 128.34704141 0 366.78476461 0 26061
0.15550000 0.15549900 9372.39981730 0 41.85253968 0 2882.76925910 0 4.12145557 0 736.44419186 0 26128
0.15650000 0.15649500 9462.53921990 0 -48.89200302 0 2769.85883754 0 517.57109089 0 281.53789063 0 26331
0.15750000 0.15749700 9307.28327104 0 50.24156761 0 2375.71040418 0 -129.48174776 0 292.10065563 0 27345
0.15850000 0.15849900 9084.49416994 0 200.18724455 0 2568.59949870 0 -255.62748083 0 98.09366115 0 26980
0.15950000 0.15949700 9011.01836394 0 155.42840665 0 2558.98799769 0 48.31135852 0 70.03324095 0 27777
0.16050000 0.16050000 8995.63996233 0 104.90354692 0 2726.75537473 0 158.05042413 0 165.45073068 0 28224
0.16150000 0.16150500 8931.57793504 0 27.84951640 0 2509.41462164 0 -83.44760099 0 -170.91226016 0 28075
0.16250000 0.16249700 8721.56389185 0 -36.77744746 0 2541.11609811 0 193.13844433 0 174.63603027 0 28590
0.16350000 0.16349900 8739.18314627 0 116.48260457 0 2500.83567045 0 -26.55498452 0 -306.00053377 0 29163
0.16450000 0.16449100 8619.24259826 0 230.29376108 0 2760.67573486 0 -115.66754928 0 289.21830378 0 28996
0.16550000 0.16550500 8531.73949307 0 65.09512635 0 2675.91877282 0 -82.71218385 0 -163.04950311 0 30777
0.16650000 0.16650700 8466.64491596 0 27.74648111 0 2763.36695514 0 -52.30293250 0 -67.65321361 0 29211
0.16750000 0.16749900 8372.94651184 0 121.55308327 0 2527.60507383 0 224.17535415 0 -414.82249742 0 30922
0.16850000 0.16850800 8224.76462772 0 119.99656934 0 2855.25290479 0 -89.19418013 0 -45.97845499 0 30867
0.16950000 0.16949900 8089.86309184 0 122.97229005 0 2767.89259905 0 -87.67303652 0 -113.03894106 0 30852
0.17050000 0.17049200 8038.16969328 0 45.55873447 0 2578.29887629 0 348.78434552 0 -310.64810643 0 31257
0.17150000 0.17149500 7785.83209194 0 62.90150720 0 2510.86458522 0 320.64077211 0 -87.30900779 0 32608
0.17250000 0.17250900 7865.90962606 0 41.72336111 0 2300.19146768 0 -75.92141124 0 -29.73842350 0 32361
0.17350000 0.17350400 7847.19191438 0 59.50342967 0 2343.88809741 0 309.25636108 0 18.59765030 0 32508
0.17450000 0.17449800 7784.98627985 0 24.06719853 0 2300.71872716 0 -17.90364500 0 -134.52366657 0 32791
0.17550000 0.17549800 7668.89033224 0 96.19365963 0 2031.83835952 0 -115.62910328 0 317.06309682 0 33633
0.17650000 0.17650100 7766.05986129 0 4.89387973 0 2181.98648213 0 26.29080555 0 -53.63810730 0 33984
0.17750000 0.17750300 7804.85737165 0 -2.92995898 0 2194.58578688 0 103.59495479 0 -228.10233885 0 34069
0.17850000 0.17849800 7645.46023892 0 11.12890987 0 2047.95272749 0 220.36919976 0 229.04920901 0 34536
