### header ###
fiducial parameters:
Omega_m = 0.31
Omega_nu = 0
Omega_de = 0.69
Omega_k = 0
H_0 = 100
w_de = -1
zeff = 0
beta = 0
fgrowth = 0
b_1 = 2
gamma = 0.55
Lx = 3500 Ly = 3500 Lz = 3500
nx = 700 ny = 700 nz = 700
xoffset = -983.599254 yoffset = -42.9823471 zoffset = 800.977702
bins = 400 dk = 0.001
kx_ny = 0.628318531 ky_ny = 0.628318531 kz_ny = 0.628318531
############################
A(data) = 9.00052956 (not used)
A(ran) = 8.9831898 (used)
Ngal = 499361
weighted Ngal = 0
Nran = 25229228
weighted Nran = 0
SN(data) = 6786.06305
SN(ran) = 133.349264
SN(data+ran) = 6919.41232
############################
13 columns: k_central k_mean P_0(k) sigma^{lin}_{P_0(k)} P^img_1(k) sigma^{lin}_{P_1(k)} P_2(k) sigma^{lin}_{P_2(k)} P^img_3(k) sigma^{lin}_{P_3(k)} P_4(k) sigma^{lin}_{P_4(k)} N_modes
### header ###
0.00050000 0 0 0 0 0 0 0 0 0 0 0 0
0.00150000 0.00179520 110207.11825136 0 -16951.06287035 0 14895.73949466 0 18453.97209093 0 -129267.54859451 0 3
0.00250000 0.00253879 141225.35430656 0 1694.31539781 0 29562.01126809 0 -52886.65268731 0 111985.52055228 0 6
0.00350000 0.00331552 99247.59049550 0 29483.14203695 0 29335.83891864 0 29600.67696357 0 58311.49370233 0 7
0.00450000 0.00420575 84236.62283447 0 19684.35406577 0 45806.21689283 0 964.53884151 0 -1000.09260758 0 24
0.00550000 0.00557378 78257.39044126 0 6409.82763839 0 57454.14781236 0 29346.27426259 0 -14596.51973754 0 45
0.00650000 0.00659388 61249.20779349 0 12601.94104822 0 39740.09653051 0 39716.47969946 0 58951.56474665 0 40
0.00750000 0.00754703 83600.06685338 0 -9890.01484648 0 45780.29330154 0 -3428.73547011 0 -6721.78949970 0 57
0.00850000 0.00846663 82905.84186624 0 6525.53912596 0 31461.13402168 0 11338.60535564 0 -12461.88774781 0 75
0.00950000 0.00948925 77016.24358530 0 1681.38655588 0 52455.39836777 0 6383.14611159 0 27350.48727029 0 112
0.01050000 0.01054430 68882.49712599 0 -7374.77840137 0 40033.82400133 0 1403.11437868 0 -4839.83563306 0 105
0.01150000 0.01145670 75515.42143351 0 4325.80157454 0 23508.96254714 0 23201.17482341 0 -2065.79167337 0 144
0.01250000 0.01249090 78480.04772749 0 -599.73789071 0 27711.87970821 0 11276.54252056 0 10196.56131350 0 169
0.01350000 0.01339930 90733.44828770 0 409.48179823 0 34370.39806985 0 16573.96249363 0 8398.92502599 0 180
0.01450000 0.01448870 78211.91431078 0 -1491.99055543 0 14914.52311377 0 13943.15736040 0 7489.84179916 0 267
0.01550000 0.01550050 89656.74048328 0 -3897.49112045 0 15171.01288354 0 8585.70669817 0 27418.92115747 0 238
0.01650000 0.01653350 78678.42910831 0 1835.17057202 0 17282.46742513 0 -4360.40297817 0 13083.83424736 0 315
0.01750000 0.01747870 80606.00190488 0 2641.51509150 0 3788.45825301 0 -2282.66008984 0 11563.56940211 0 297
0.01850000 0.01844180 79962.74533452 0 -2422.75732854 0 3192.77586649 0 963.31735704 0 -11498.65057815 0 388
0.01950000 0.01947590 82053.98826255 0 5645.10366442 0 11878.05771511 0 -14460.09134608 0 -1684.11072988 0 399
0.02050000 0.02045430 73075.96755464 0 5902.71386060 0 21616.86992000 0 -5544.97928534 0 -3331.69775593 0 462
0.02150000 0.02154770 69008.05079060 0 -2251.25519683 0 27265.90606141 0 -3668.74838102 0 -1259.97441337 0 571
0.02250000 0.02255340 73758.98827775 0 8568.55978037 0 29072.53871386 0 -3416.32290310 0 -29792.13806367 0 510
0.02350000 0.02348930 67305.22234904 0 284.84754235 0 29831.79237069 0 -613.59383056 0 -5550.37271048 0 555
0.02450000 0.02439640 64496.68683144 0 178.85300768 0 37254.28775535 0 9498.89815514 0 -10446.22966370 0 592
0.02550000 0.02547300 62862.51196851 0 3170.60899902 0 27248.55043673 0 14322.67434309 0 5784.04752300 0 837
0.02650000 0.02652900 63148.22070135 0 851.57898937 0 34685.10607430 0 2055.82866603 0 17495.12875031 0 723
0.02750000 0.02749970 61185.71696397 0 90.79617020 0 27141.34100834 0 -1970.34672221 0 8933.42334323 0 826
0.02850000 0.02848090 58533.82145138 0 1805.03988943 0 26234.67438747 0 6131.85204465 0 5228.25011953 0 831
0.02950000 0.02946900 56006.27130041 0 3760.17297861 0 27204.61214641 0 1853.87729913 0 16208.61560958 0 996
0.03050000 0.03053250 56825.94010643 0 336.09496727 0 22169.39392084 0 3604.92801432 0 10371.18306383 0 1041
0.03150000 0.03150510 54985.03558753 0 -1551.66973827 0 23807.96261280 0 -213.49725115 0 438.49754670 0 1036
0.03250000 0.03246190 54298.82933837 0 2249.34388120 0 23357.81482842 0 784.70491149 0 -2574.32246102 0 1059
0.03350000 0.03345080 48537.86040236 0 2201.37425274 0 23532.35968674 0 -2876.25540756 0 9748.58847449 0 1302
0.03450000 0.03451200 49662.35109751 0 -140.29715792 0 21189.13066369 0 4202.31300958 0 307.77783761 0 1339
0.03550000 0.03553350 49706.72877074 0 566.76440074 0 21054.89918674 0 5926.55038310 0 -589.65185617 0 1365
0.03650000 0.03647120 50654.47769306 0 1989.64661623 0 18929.82377515 0 -705.32819311 0 24.47670339 0 1308
0.03750000 0.03744890 45877.39692316 0 -439.86292908 0 15788.34586262 0 6482.54550888 0 10210.25907551 0 1579
0.03850000 0.03847530 49001.07982811 0 -1203.27204971 0 14317.51159397 0 5413.31819838 0 4835.62854176 0 1662
0.03950000 0.03950240 46826.57383991 0 2079.91783370 0 14010.93217323 0 -5301.76986382 0 2066.51665516 0 1683
0.04050000 0.04050350 43563.27701745 0 5420.21650997 0 20997.01048924 0 -5764.54990667 0 4074.70522990 0 1822
0.04150000 0.04152450 40777.47956509 0 269.42959628 0 21203.84999094 0 -411.73253715 0 2421.26342667 0 1887
0.04250000 0.04250150 39583.78606268 0 -1548.16565961 0 21484.61566612 0 2175.14309341 0 3063.56433922 0 1920
0.04350000 0.04349210 40370.06176805 0 993.27777875 0 21709.25017541 0 -427.26142741 0 -6525.13269678 0 2005
0.04450000 0.04448520 39268.63867532 0 2305.15649449 0 20878.92633399 0 160.94705592 0 -952.34706440 0 2151
0.04550000 0.04548030 39533.36687453 0 -34.17069854 0 20457.55812977 0 1436.54043304 0 -4281.90722251 0 2274
0.04650000 0.04648670 38623.51472762 0 -682.71974582 0 20763.69816761 0 1014.42967172 0 -5549.29622237 0 2311
0.04750000 0.04749250 39516.67032420 0 66.01134954 0 18636.53568723 0 817.47628533 0 -7504.40734240 0 2568
0.04850000 0.04851840 38958.54419135 0 -377.05204460 0 15907.41862940 0 2138.97089590 0 -5078.64024098 0 2493
0.04950000 0.04949480 39211.29920644 0 -1073.85620938 0 14069.80948227 0 3960.65241279 0 -5220.06661296 0 2644
0.05050000 0.05050630 39172.63351096 0 665.33885662 0 10945.42356466 0 2161.25859367 0 366.51234721 0 2829
0.05150000 0.05149060 39388.91974508 0 277.19239372 0 10676.96061078 0 1609.98683410 0 -2860.90995967 0 2784
0.05250000 0.05249300 38567.05402455 0 534.30718567 0 11491.51060597 0 191.92135368 0 -1537.33487105 0 3055
0.05350000 0.05348950 38101.30814710 0 1325.83791057 0 11115.83822369 0 -1577.48348383 0 -1810.07082367 0 3009
0.05450000 0.05448610 35665.47917719 0 677.99198578 0 13305.17338488 0 -929.70346648 0 1841.36587096 0 3336
0.05550000 0.05550870 35442.16281661 0 403.68523928 0 12884.46425501 0 1500.69033692 0 960.68325653 0 3349
0.05650000 0.05647670 34966.20128666 0 -263.82856272 0 12220.66653392 0 451.74933507 0 -2578.21099971 0 3324
0.05750000 0.05747970 35884.62140018 0 1065.98576313 0 12979.81034502 0 1307.75730410 0 2095.72463365 0 3639
0.05850000 0.05849280 34650.61451640 0 280.79862890 0 11647.38169090 0 2699.17311298 0 4898.02091402 0 3846
0.05950000 0.05951020 33522.38906657 0 -616.25978633 0 12261.96852683 0 1491.12277420 0 5455.11449706 0 3787
0.06050000 0.06049470 34010.43362635 0 734.54276234 0 10504.01950005 0 524.05967791 0 4021.02362370 0 3930
0.06150000 0.06148310 32413.38661875 0 1633.59268058 0 10470.38473881 0 -57.22039611 0 4894.69258853 0 4083
0.06250000 0.06249100 32072.64517728 0 920.16556211 0 12168.16027698 0 -1140.50620198 0 3934.70685235 0 4303
0.06350000 0.06350600 31034.27353117 0 309.76934062 0 13520.14147029 0 -1532.50165911 0 2436.33426025 0 4470
0.06450000 0.06451750 30147.59883240 0 112.94447374 0 13982.59197597 0 1007.71150713 0 3741.04883775 0 4479
0.06550000 0.06550280 30869.94432535 0 -596.98186145 0 12397.07876958 0 578.51459803 0 1328.63897658 0 4636
0.06650000 0.06648880 31043.61041786 0 -341.75312061 0 11834.77849914 0 -71.86546766 0 -1865.42208491 0 4653
0.06750000 0.06749660 31242.76071876 0 1230.65658915 0 13008.80961663 0 -11.19855206 0 232.54340155 0 5220
0.06850000 0.06852730 30082.35047127 0 470.05402682 0 13141.50325342 0 301.89559900 0 3098.35248058 0 5029
0.06950000 0.06949320 29916.92280819 0 -122.29344346 0 13297.04480117 0 1410.05662855 0 836.58175242 0 5040
0.07050000 0.07048030 29248.95094952 0 575.06983606 0 13055.49405010 0 1324.23416297 0 1981.33129479 0 5475
0.07150000 0.07148790 28870.42257837 0 270.16556264 0 11676.82034542 0 1778.03981002 0 3109.51280633 0 5509
0.07250000 0.07249820 29037.38808160 0 562.68802585 0 12837.23059291 0 -351.02080449 0 4871.67990897 0 5916
0.07350000 0.07351270 28069.31770001 0 493.31715463 0 11457.45843097 0 81.36602448 0 4103.18822661 0 5721
0.07450000 0.07449140 27232.29326931 0 95.83160811 0 11010.71586409 0 -25.24474471 0 2298.13735261 0 6028
0.07550000 0.07549160 26402.07927361 0 499.77498485 0 11867.84206261 0 691.64690796 0 3776.49605347 0 6183
0.07650000 0.07648840 26009.27095810 0 107.72746084 0 12186.94389610 0 431.62999193 0 3398.89038641 0 6330
0.07750000 0.07749960 26161.07775118 0 342.60991727 0 10627.65086446 0 231.98977909 0 1934.63587674 0 6583
0.07850000 0.07848650 25880.86130463 0 426.28929274 0 10224.68181931 0 1044.85913468 0 774.87481749 0 6549
0.07950000 0.07947320 24962.22149965 0 401.25435337 0 10674.10462190 0 -1205.95228542 0 362.42938158 0 6828
0.08050000 0.08048110 24600.49952455 0 503.96999312 0 9570.57249124 0 1218.00236154 0 -259.58082850 0 7147
0.08150000 0.08149960 24956.28983046 0 359.77770576 0 9819.03253845 0 215.03728822 0 -988.91800190 0 7386
0.08250000 0.08250610 24102.12946653 0 -67.01281303 0 9317.34513952 0 -263.46497336 0 -1142.74705478 0 7227
0.08350000 0.08350160 22765.85621201 0 565.55829467 0 8828.39984478 0 220.56911898 0 -1144.55950926 0 7798
0.08450000 0.08449610 21913.56322542 0 654.34879176 0 8353.77843268 0 578.54974866 0 -465.10767378 0 7371
0.08550000 0.08548940 22213.00267399 0 259.87741196 0 8684.00763820 0 683.51173350 0 -1166.24305553 0 8256
0.08650000 0.08650700 21568.31810919 0 203.11243623 0 8138.66754782 0 1268.47647255 0 163.39112332 0 8037
0.08750000 0.08749060 21187.59282352 0 236.07933546 0 7673.25120755 0 467.66598074 0 644.21222818 0 8155
0.08850000 0.08849210 20811.81059552 0 223.22518863 0 6883.01007148 0 1662.56998305 0 1856.95297945 0 8718
0.08950000 0.08949900 21354.55832676 0 147.62716321 0 7419.27690490 0 -549.69876877 0 673.83981734 0 8571
0.09050000 0.09049190 20346.50410097 0 383.10344563 0 6736.15732064 0 -176.72419752 0 2136.54330536 0 8932
0.09150000 0.09150830 19724.33790996 0 496.58176960 0 7514.33739602 0 -135.75613562 0 1453.92901144 0 9285
0.09250000 0.09250820 19594.39041633 0 125.98975214 0 7370.09897345 0 -268.31246524 0 2257.78003294 0 9204
0.09350000 0.09350330 18951.57322887 0 393.54757724 0 7860.57112378 0 853.90442338 0 1791.03455939 0 9349
0.09450000 0.09448040 18786.69479442 0 194.35992880 0 7331.44426254 0 251.96412587 0 2067.62609699 0 9564
0.09550000 0.09549270 18803.72088192 0 20.00411497 0 7429.93194030 0 513.10036985 0 1815.36538766 0 10155
0.09650000 0.09649430 18747.26017885 0 103.52377476 0 6677.22508874 0 628.86238645 0 1258.89792526 0 9913
0.09750000 0.09749140 18025.13437736 0 339.09046021 0 6979.97089365 0 -130.98443729 0 1955.95693212 0 10476
0.09850000 0.09850240 17924.40584678 0 216.00502907 0 6524.93497447 0 -596.94231699 0 667.81917311 0 10575
0.09950000 0.09950330 17486.01155506 0 408.46352835 0 6968.85450620 0 510.72330834 0 1171.49368123 0 10882
0.10050000 0.10051200 17032.45855318 0 248.62261889 0 7131.10762780 0 27.65190394 0 748.67002114 0 10875
0.10150000 0.10150300 17226.55595069 0 -56.12116993 0 6625.81728906 0 672.78200300 0 1608.08650305 0 11118
0.10250000 0.10250800 16855.82662607 0 256.60400933 0 6197.74849556 0 318.83271146 0 778.87100500 0 11575
0.10350000 0.10349800 16998.18668673 0 266.65818861 0 6481.56788192 0 -491.61015205 0 890.79061811 0 11364
0.10450000 0.10450100 16297.26111031 0 449.65677399 0 7341.27545500 0 -559.65188999 0 889.66799479 0 12093
0.10550000 0.10551000 15736.05929713 0 -20.03421270 0 7174.06829117 0 809.69371566 0 1881.52546831 0 12067
0.10650000 0.10649700 16046.15378110 0 -10.89114879 0 6604.22161936 0 692.20602270 0 916.00240910 0 12054
0.10750000 0.10749900 15614.24038720 0 245.94567855 0 6363.46175753 0 432.57576363 0 1137.05704619 0 12807
0.10850000 0.10850100 15633.57323495 0 124.99894369 0 6225.56143334 0 35.49488876 0 1580.35045728 0 12736
0.10950000 0.10950300 15452.10809590 0 93.37798414 0 5760.47463025 0 550.43143976 0 2040.58207929 0 12933
0.11050000 0.11050200 15233.07571863 0 144.15713673 0 5499.56906229 0 353.91084554 0 1091.41065482 0 13428
0.11150000 0.11150900 14902.11054675 0 144.24611177 0 5248.68142454 0 285.19904867 0 2364.51712471 0 13453
0.11250000 0.11250000 14639.24972488 0 235.40378425 0 5044.26951337 0 292.55871230 0 884.00325071 0 13668
0.11350000 0.11349100 14460.86026616 0 420.56523196 0 5377.56341463 0 -450.01926488 0 908.70206216 0 13791
0.11450000 0.11448600 13876.48100483 0 120.51723808 0 4864.89144312 0 -253.69749142 0 228.36157477 0 14205
0.11550000 0.11549300 13835.06916620 0 43.72178440 0 5254.56915544 0 208.48499068 0 760.51907958 0 14776
0.11650000 0.11649800 13894.82524104 0 -151.02359305 0 4346.81506189 0 246.79917984 0 14.51666189 0 14553
0.11750000 0.11747300 14050.14709734 0 -483.36403341 0 4263.02474224 0 1196.47259928 0 616.10380540 0 14568
0.11850000 0.11849100 14381.55165212 0 132.69693215 0 3418.12437300 0 301.07724834 0 135.31894963 0 16015
0.11950000 0.11950300 14468.43962124 0 111.69772475 0 3731.53619789 0 -374.50582067 0 155.37897608 0 15270
0.12050000 0.12050700 14557.52450488 0 172.12825235 0 3613.64976495 0 -613.68500252 0 -243.57301088 0 15999
0.12150000 0.12150000 14072.88516259 0 65.70619812 0 4141.78801466 0 48.00741539 0 -437.42435396 0 15670
0.12250000 0.12250700 14007.19741855 0 50.22618921 0 4367.77362637 0 -199.88516881 0 -801.95618273 0 16887
0.12350000 0.12352200 14120.99759049 0 332.95118260 0 4083.14138165 0 110.51468628 0 -1296.80568524 0 16407
0.12450000 0.12449800 13697.10293458 0 109.04659816 0 4402.80342834 0 -115.25343090 0 -869.48164576 0 16306
0.12550000 0.12549900 13501.46769691 0 214.49794571 0 4291.82629155 0 286.92472503 0 -864.83736847 0 17523
0.12650000 0.12650100 13189.39598987 0 119.71316736 0 4293.10050197 0 323.36384765 0 -348.04618224 0 17154
0.12750000 0.12750600 13198.29349366 0 -81.27342453 0 3775.17790476 0 597.30151251 0 -201.23736969 0 18007
0.12850000 0.12850300 12871.72215082 0 358.47273853 0 3781.19745053 0 172.41604815 0 -182.20330232 0 17496
0.12950000 0.12949900 12716.29044879 0 412.07964965 0 3933.35574993 0 -503.76348315 0 -166.35256409 0 18405
0.13050000 0.13049000 12245.71135941 0 292.32144553 0 4228.00592485 0 -36.14385731 0 381.09436731 0 18100
0.13150000 0.13148800 12332.92886570 0 -273.32802108 0 4032.44757918 0 361.72087665 0 464.51340841 0 19059
0.13250000 0.13249300 11847.85014051 0 40.30712017 0 3763.58918068 0 439.13794729 0 384.71707935 0 18957
0.13350000 0.13349100 12204.62905795 0 305.90277107 0 3832.04503701 0 178.97054261 0 537.62782196 0 19468
0.13450000 0.13450700 11791.38943744 0 94.66515635 0 3877.34541434 0 -491.78810212 0 564.89482648 0 19953
0.13550000 0.13551000 11608.93568687 0 159.35099752 0 3956.68698209 0 311.37528513 0 250.20659426 0 19956
0.13650000 0.13649900 11527.32031259 0 61.83457567 0 3785.25075781 0 278.65114496 0 408.24823073 0 19723
0.13750000 0.13749600 11620.24979663 0 -52.50131388 0 3235.34108525 0 173.74078760 0 183.20619380 0 20946
0.13850000 0.13851100 11652.32474856 0 141.25830802 0 3347.88901591 0 203.34640763 0 -302.09441976 0 20955
0.13950000 0.13949800 11323.99587411 0 129.52129222 0 2825.11123762 0 -186.96950836 0 21.95607352 0 20506
0.14050000 0.14048300 11147.36394700 0 232.32700547 0 3250.78539430 0 -240.89497208 0 -318.58775549 0 21447
0.14150000 0.14148400 10912.08538688 0 266.79988960 0 3322.27299265 0 -125.95679842 0 -181.48381282 0 21771
0.14250000 0.14249400 10638.51460674 0 32.96986507 0 3506.41836741 0 328.67928232 0 -196.80070082 0 22470
0.14350000 0.14350900 10679.99235281 0 -53.91788436 0 3531.69386892 0 -408.56019259 0 -347.84077073 0 22519
0.14450000 0.14449900 10560.88663231 0 206.67473312 0 3583.95846526 0 367.87992649 0 -387.83559950 0 22218
0.14550000 0.14550500 10558.44805720 0 65.77188586 0 3588.96743036 0 85.70152543 0 65.43015581 0 23559
0.14650000 0.14650700 10704.88339428 0 101.49997710 0 3657.45624040 0 284.80689943 0 -205.93217601 0 23044
0.14750000 0.14750500 10260.31577276 0 76.03114712 0 3712.09350442 0 -114.73715598 0 752.47068325 0 23649
0.14850000 0.14849900 10317.14995130 0 7.09939517 0 3234.90170234 0 581.66277653 0 955.61277783 0 23640
0.14950000 0.14949500 10290.27070219 0 -164.61700162 0 3197.08181895 0 698.30026357 0 1291.32438352 0 24457
0.15050000 0.15050000 10280.01111140 0 36.75229279 0 2676.78655406 0 317.89902279 0 1423.68848312 0 24591
0.15150000 0.15149900 10347.29161846 0 367.68659802 0 2770.81449535 0 -92.32654085 0 1198.25210004 0 25020
0.15250000 0.15250500 9980.53870912 0 243.52028493 0 3000.82046063 0 -453.00377325 0 1421.03021656 0 25297
0.15350000 0.15350100 9807.46578353 0 14.15559899 0 3256.24472687 0 -144.93704138 0 1082.52303715 0 25452
0.15450000 0.15450400 9680.29738675 0 86.29798773 0 3241.34964645 0 -35.35999821 0 936.66878396 0 26061
0.15550000 0.15549900 9426.67459042 0 26.24609834 0 2731.55563295 0 423.49701439 0 1005.84303133 0 26128
0.15650000 0.15649500 9593.50827879 0 -4.48360594 0 2725.61297918 0 292.38186068 0 636.68999287 0 26331
0.15750000 0.15749700 9563.55334936 0 103.69315686 0 2520.55297823 0 194.38299640 0 905.54619446 0 27345
0.15850000 0.15849900 9038.66653313 0 148.05665999 0 2331.33273095 0 134.12712350 0 856.77688911 0 26980
0.15950000 0.15949700 9226.06334137 0 34.35776581 0 2233.76775728 0 90.49398461 0 1048.90585122 0 27777
0.16050000 0.16050000 9192.32971897 0 159.36857284 0 2003.94852973 0 -46.13575407 0 317.87265982 0 28224
0.16150000 0.16150500 9019.58633056 0 263.76485219 0 2253.03469759 0 -322.12918169 0 482.82359244 0 28075
0.16250000 0.16249700 8737.86499756 0 9.20481918 0 2447.49458599 0 -98.64486700 0 637.81591156 0 28590
0.16350000 0.16349900 8543.00966454 0 202.67854561 0 2564.44733027 0 4.80158735 0 424.59876702 0 29163
0.16450000 0.16449100 8440.67738638 0 -55.04292429 0 2301.35583237 0 420.86291388 0 867.72521261 0 28996
0.16550000 0.16550500 8557.50930035 0 -36.48679567 0 2382.64166947 0 472.86058511 0 843.82497958 0 30777
0.16650000 0.16650700 8500.04900118 0 79.72031582 0 2196.15658076 0 -143.92426379 0 849.22499546 0 29211
0.16750000 0.16749900 8514.50469869 0 250.39552891 0 2206.80063159 0 78.16490034 0 1230.38197484 0 30922
0.16850000 0.16850800 8316.10134873 0 -152.85911513 0 2209.68957418 0 -100.84266028 0 1352.24482305 0 30867
0.16950000 0.16949900 8278.54509507 0 21.75362785 0 2266.57867558 0 213.75758552 0 641.72422249 0 30852
0.17050000 0.17049200 8349.80201741 0 309.31677623 0 2451.72364644 0 -540.12022148 0 456.65614364 0 31257
0.17150000 0.17149500 8067.26782604 0 260.97696767 0 2618.62324224 0 -374.90895449 0 673.65857190 0 32608
0.17250000 0.17250900 7852.71715439 0 -65.00439378 0 2715.18861980 0 210.45013071 0 324.51942469 0 32361
0.17350000 0.17350400 8088.22639053 0 -158.17894363 0 2314.60322691 0 414.94332772 0 -3.39301364 0 32508
0.17450000 0.17449800 8104.91195628 0 37.96422068 0 2137.21336429 0 207.61501253 0 -124.25748504 0 32791
0.17550000 0.17549800 7953.84112957 0 157.27491331 0 2037.15489265 0 -28.64567822 0 266.90643995 0 33633
0.17650000 0.17650100 7875.33438933 0 -14.19305639 0 1809.34584188 0 63.78840159 0 233.49905936 0 33984
0.17750000 0.17750300 7836.40506410 0 30.01743165 0 1765.82496531 0 204.00767890 0 -34.99025750 0 34069
0.17850000 0.17849800 7768.46548269 0 136.49429890 0 1698.53347368 0 3.93258683 0 106.69853592 0 34536
