### header ###
fiducial parameters:
Omega_m = 0.31
Omega_nu = 0
Omega_de = 0.69
Omega_k = 0
H_0 = 100
w_de = -1
zeff = 0
beta = 0
fgrowth = 0
b_1 = 2
gamma = 0.55
Lx = 3500 Ly = 3500 Lz = 3500
nx = 700 ny = 700 nz = 700
xoffset = -983.599254 yoffset = -42.9823471 zoffset = 800.977702
bins = 400 dk = 0.001
kx_ny = 0.628318531 ky_ny = 0.628318531 kz_ny = 0.628318531
############################
A(data) = 9.10909255 (not used)
A(ran) = 9.10624957 (used)
Ngal = 505358
weighted Ngal = 0
Nran = 25229228
weighted Nran = 0
SN(data) = 6760.67639
SN(ran) = 135.176001
SN(data+ran) = 6895.85239
############################
13 columns: k_central k_mean P_0(k) sigma^{lin}_{P_0(k)} P^img_1(k) sigma^{lin}_{P_1(k)} P_2(k) sigma^{lin}_{P_2(k)} P^img_3(k) sigma^{lin}_{P_3(k)} P_4(k) sigma^{lin}_{P_4(k)} N_modes
### header ###
0.00050000 0 0 0 0 0 0 0 0 0 0 0 0
0.00150000 0.00179520 88294.98302037 0 -73694.39899097 0 -61115.08616227 0 21128.16628586 0 53466.74796533 0 3
0.00250000 0.00253879 82297.84577386 0 -10570.94850079 0 -8453.94675005 0 -27723.96273805 0 52403.11180228 0 6
0.00350000 0.00331552 88218.53039520 0 23119.44960340 0 -1218.51863645 0 -73091.67549344 0 35245.97835030 0 7
0.00450000 0.00420575 56927.21786563 0 23452.50184407 0 27628.06741942 0 -35838.81573252 0 15230.76895839 0 24
0.00550000 0.00557378 45265.99561328 0 1756.29035631 0 28556.26380254 0 41359.33237473 0 -18955.63752072 0 45
0.00650000 0.00659388 52767.90945771 0 -5345.65323128 0 21476.37723669 0 18860.29143071 0 15351.26971960 0 40
0.00750000 0.00754703 50722.36235161 0 -6249.35401755 0 8744.04931193 0 -1855.89846048 0 7158.27247579 0 57
0.00850000 0.00846663 55189.89786617 0 -2400.19501646 0 -6577.38630855 0 12606.33487725 0 -4179.50903690 0 75
0.00950000 0.00948925 57291.46629243 0 -1753.51125945 0 -4290.22254395 0 -1984.91226545 0 -8342.29955434 0 112
0.01050000 0.01054430 57631.87819673 0 1683.18802578 0 -12419.70698910 0 -1277.19822318 0 -1723.31466942 0 105
0.01150000 0.01145670 57108.02393032 0 -4999.85888642 0 -5534.09357392 0 -2945.98547431 0 -9440.35038329 0 144
0.01250000 0.01249090 58511.52276904 0 -4139.04187151 0 -16147.10200312 0 -2472.17692058 0 966.22497340 0 169
0.01350000 0.01339930 68736.62200211 0 -258.06385903 0 -11062.56304667 0 1472.75656884 0 -19521.67254584 0 180
0.01450000 0.01448870 70307.63557269 0 -2631.77177562 0 -14942.75346530 0 -19426.32645583 0 -18744.40418998 0 267
0.01550000 0.01550050 73657.38098137 0 5111.81365017 0 -2593.95189222 0 -6669.63474909 0 -18253.94302422 0 238
0.01650000 0.01653350 72196.21313660 0 1815.40932595 0 11333.88198943 0 -14656.49550383 0 -12791.75446243 0 315
0.01750000 0.01747870 60457.65949328 0 1731.10273138 0 18837.00413684 0 -7859.96697229 0 -1751.68782040 0 297
0.01850000 0.01844180 64059.94022560 0 4458.09976671 0 20664.72716865 0 7334.84948004 0 -2195.57439841 0 388
0.01950000 0.01947590 65752.22347748 0 1763.22162161 0 35155.46547223 0 14453.50060253 0 6204.75665287 0 399
0.02050000 0.02045430 60826.19190338 0 1275.83613618 0 29638.57373898 0 5247.70379758 0 25697.74847970 0 462
0.02150000 0.02154770 63417.01319242 0 -2573.98193927 0 28814.40125820 0 6302.15685795 0 21646.96764888 0 571
0.02250000 0.02255340 64532.27684660 0 1576.71456375 0 40505.72123943 0 1228.50361292 0 25795.73086712 0 510
0.02350000 0.02348930 64543.59095636 0 -536.78640370 0 22744.76583266 0 4598.73524947 0 30966.82825552 0 555
0.02450000 0.02439640 63413.05874629 0 -2406.55508398 0 31379.29895595 0 9301.19781782 0 20885.18754036 0 592
0.02550000 0.02547300 67812.48991084 0 2120.74748999 0 24698.81144915 0 5161.36505709 0 14872.23250933 0 837
0.02650000 0.02652900 64751.52891532 0 4201.23652147 0 31491.12190482 0 -7751.95567010 0 14986.47206418 0 723
0.02750000 0.02749970 61711.54845344 0 767.24493338 0 30654.09747413 0 -7594.37099185 0 11855.09995841 0 826
0.02850000 0.02848090 57331.77967380 0 2632.85924830 0 34003.95272853 0 6316.64550918 0 1011.59455353 0 831
0.02950000 0.02946900 56865.37472200 0 1791.25425084 0 29368.46309921 0 1976.61891315 0 1624.38760876 0 996
0.03050000 0.03053250 58931.02359592 0 -440.49234508 0 30983.19526866 0 6042.09710209 0 3259.66092894 0 1041
0.03150000 0.03150510 54705.25852388 0 -50.61416431 0 25904.03875278 0 -4190.39474833 0 -2348.96296994 0 1036
0.03250000 0.03246190 51751.94633966 0 4905.85291427 0 23270.59732212 0 6363.38486552 0 2905.35354033 0 1059
0.03350000 0.03345080 52460.01188825 0 -1968.34753000 0 25791.88626672 0 5375.19074695 0 6102.66603530 0 1302
0.03450000 0.03451200 52903.01970046 0 -2457.44660875 0 13704.02321531 0 10858.79922529 0 3063.39957063 0 1339
0.03550000 0.03553350 57330.02214219 0 116.70888676 0 19283.19747510 0 -2846.80576847 0 1903.69233578 0 1365
0.03650000 0.03647120 50135.23694714 0 6121.21897839 0 17266.86933207 0 -9853.44720435 0 -1235.30306335 0 1308
0.03750000 0.03744890 47645.91310875 0 3956.90667354 0 25330.53421830 0 -4100.27731487 0 8276.47999543 0 1579
0.03850000 0.03847530 47102.83584033 0 -2703.23740483 0 25988.51011593 0 7306.31156047 0 4091.98396257 0 1662
0.03950000 0.03950240 49786.14723050 0 -2266.55670643 0 19828.14212086 0 6286.89928663 0 -3281.92665756 0 1683
0.04050000 0.04050350 49431.23569040 0 2100.73359875 0 23631.00114852 0 2078.85233016 0 7499.92563679 0 1822
0.04150000 0.04152450 47972.37460587 0 1449.98554988 0 23941.31532394 0 -1945.23598928 0 9248.87829862 0 1887
0.04250000 0.04250150 45781.28191307 0 263.71432316 0 22656.66956055 0 485.97726323 0 10618.83025267 0 1920
0.04350000 0.04349210 47463.01997527 0 2104.19373911 0 24927.29055884 0 3388.27928930 0 5962.62371946 0 2005
0.04450000 0.04448520 44177.86385337 0 -86.12025734 0 22365.35869570 0 1465.00146060 0 12183.31898715 0 2151
0.04550000 0.04548030 44065.60152159 0 33.91904198 0 23124.17296961 0 2508.05253464 0 5455.90538628 0 2274
0.04650000 0.04648670 45474.81233805 0 1414.99968621 0 20194.58746217 0 1004.61166074 0 10028.89279762 0 2311
0.04750000 0.04749250 41914.82221016 0 1494.26436196 0 23132.96062768 0 -1972.60954416 0 5049.08075616 0 2568
0.04850000 0.04851840 38997.97880691 0 1623.71754983 0 23645.61063005 0 -3429.84491194 0 2735.32334134 0 2493
0.04950000 0.04949480 37419.49572697 0 2638.56024147 0 23386.48456286 0 332.57990405 0 1237.64277731 0 2644
0.05050000 0.05050630 36763.60689814 0 86.00579809 0 23679.00373070 0 1860.40213524 0 2341.60330631 0 2829
0.05150000 0.05149060 35128.00404078 0 -860.94882978 0 23477.32697810 0 5126.37919341 0 -413.26268811 0 2784
0.05250000 0.05249300 36463.83791240 0 1626.22203238 0 19406.00499656 0 2208.59111692 0 1223.45070954 0 3055
0.05350000 0.05348950 34941.37615262 0 -531.04806299 0 16888.45080664 0 2749.08701079 0 3269.19553794 0 3009
0.05450000 0.05448610 36152.20558827 0 -1000.54517197 0 14207.11663953 0 2731.52267923 0 -1966.21652292 0 3336
0.05550000 0.05550870 35018.04846924 0 966.46443708 0 14082.99096936 0 575.37520718 0 1733.31063047 0 3349
0.05650000 0.05647670 34253.08283468 0 -175.07541317 0 11914.19695890 0 556.45867474 0 1791.50689601 0 3324
0.05750000 0.05747970 33620.04191681 0 -90.03043564 0 12888.41870114 0 15.78922463 0 -307.27803956 0 3639
0.05850000 0.05849280 34286.58578105 0 20.24423773 0 8456.97849209 0 2421.84560902 0 -2039.25294601 0 3846
0.05950000 0.05951020 34917.21009294 0 229.51715180 0 11159.44697684 0 -240.86091991 0 -4336.31381050 0 3787
0.06050000 0.06049470 33625.53420310 0 1668.25999165 0 9080.14427920 0 -4418.89582717 0 -4121.10406449 0 3930
0.06150000 0.06148310 32649.55492925 0 1124.52364887 0 12799.55350896 0 335.17555855 0 -3131.17438346 0 4083
0.06250000 0.06249100 30663.32451509 0 -353.51320401 0 11433.84159992 0 229.16564548 0 -3962.31108325 0 4303
0.06350000 0.06350600 30333.34795475 0 1041.17490904 0 12960.25780582 0 706.81660269 0 -5262.13752595 0 4470
0.06450000 0.06451750 29736.66597213 0 1051.58169310 0 10898.02513397 0 881.77777631 0 -1065.35195329 0 4479
0.06550000 0.06550280 29459.74489736 0 -336.11254259 0 11716.03526953 0 2165.72931471 0 -2907.44060912 0 4636
0.06650000 0.06648880 29166.56665516 0 -294.20200436 0 9805.55446790 0 1031.46344842 0 -13.59011320 0 4653
0.06750000 0.06749660 29777.52858213 0 -173.66499405 0 9385.43850495 0 1606.50472459 0 -639.94032790 0 5220
0.06850000 0.06852730 29427.99948260 0 -88.10231362 0 8322.02203335 0 -652.33861497 0 -1093.98434018 0 5029
0.06950000 0.06949320 29553.99253010 0 619.79462179 0 10313.64587265 0 -1663.36087228 0 -2337.74772133 0 5040
0.07050000 0.07048030 28298.45588406 0 1246.07892905 0 10800.22948428 0 -1878.03237423 0 -2347.22740747 0 5475
0.07150000 0.07148790 28023.73172380 0 472.65846897 0 10990.61409626 0 -460.98296678 0 -3644.36262988 0 5509
0.07250000 0.07249820 27918.16998129 0 -212.54379025 0 11549.94853210 0 1582.00912774 0 -4740.34835919 0 5916
0.07350000 0.07351270 27611.81025200 0 339.07727873 0 11742.17855228 0 549.25279513 0 -5137.59444202 0 5721
0.07450000 0.07449140 26492.92168886 0 774.24100765 0 10721.89849721 0 -247.41102054 0 -1742.55964059 0 6028
0.07550000 0.07549160 26386.04179764 0 127.31668850 0 10742.80213883 0 1404.00412906 0 -3122.82610830 0 6183
0.07650000 0.07648840 26188.64902836 0 87.80320371 0 9972.36618712 0 513.13442202 0 -2548.31099315 0 6330
0.07750000 0.07749960 25534.95711404 0 265.70472771 0 8877.19331619 0 1428.10428130 0 -1801.93125539 0 6583
0.07850000 0.07848650 25364.14701040 0 470.36159485 0 9393.64398067 0 727.27097529 0 -825.34014084 0 6549
0.07950000 0.07947320 24557.54984575 0 414.47428647 0 7643.74664560 0 109.60483414 0 -1387.39545531 0 6828
0.08050000 0.08048110 24417.82608252 0 411.00975228 0 8633.39072774 0 0.91250382 0 134.24685535 0 7147
0.08150000 0.08149960 23619.68703876 0 166.82599916 0 8623.32885926 0 212.86783514 0 278.38861367 0 7386
0.08250000 0.08250610 23202.82250930 0 237.08552231 0 7663.98022829 0 902.79346057 0 -386.98319667 0 7227
0.08350000 0.08350160 23742.05517732 0 -111.86908408 0 8038.75187562 0 414.74670387 0 381.31845259 0 7798
0.08450000 0.08449610 23597.27851069 0 -86.35818318 0 6694.67957457 0 1119.84422095 0 59.55956084 0 7371
0.08550000 0.08548940 23688.78000030 0 -11.52556278 0 6667.22912769 0 596.90277253 0 752.36962519 0 8256
0.08650000 0.08650700 22805.07113613 0 544.51844434 0 6647.16031358 0 -224.63121392 0 944.96103780 0 8037
0.08750000 0.08749060 22027.14370592 0 771.75080505 0 6823.02332061 0 -108.45716599 0 1854.28372831 0 8155
0.08850000 0.08849210 21693.76192807 0 148.01052479 0 6728.46811983 0 576.71422658 0 1086.55876911 0 8718
0.08950000 0.08949900 21423.87097975 0 476.56458298 0 7007.59709370 0 289.33034642 0 649.56720731 0 8571
0.09050000 0.09049190 20635.50820559 0 546.47369826 0 6576.07914441 0 415.83966884 0 1833.70962387 0 8932
0.09150000 0.09150830 20039.48529732 0 9.22869964 0 6203.04305955 0 -29.06056553 0 1994.46884359 0 9285
0.09250000 0.09250820 20129.88832967 0 480.05218478 0 7807.79025253 0 410.90979267 0 1163.12343692 0 9204
0.09350000 0.09350330 19323.51085647 0 709.71433294 0 6810.48992330 0 -870.40764523 0 1821.36296429 0 9349
0.09450000 0.09448040 19134.68605380 0 114.04402945 0 7487.33731661 0 -481.14185438 0 1689.36135558 0 9564
0.09550000 0.09549270 18656.74730078 0 228.33521179 0 7885.29739666 0 357.07330399 0 30.80755195 0 10155
0.09650000 0.09649430 18190.56204043 0 36.54776005 0 7657.23570073 0 261.71732787 0 1543.79379973 0 9913
0.09750000 0.09749140 18213.51979713 0 271.62321542 0 7725.92223308 0 298.03452173 0 487.54476174 0 10476
0.09850000 0.09850240 18051.71704300 0 445.44748578 0 7523.86102045 0 -177.72708899 0 465.09559075 0 10575
0.09950000 0.09950330 17400.88111756 0 304.73071718 0 7572.92910617 0 111.88446248 0 -97.19105882 0 10882
0.10050000 0.10051200 17520.28342152 0 79.92045473 0 7236.12014168 0 835.63268535 0 716.79828380 0 10875
0.10150000 0.10150300 17169.98540190 0 -131.10526759 0 6488.72982324 0 722.00716811 0 602.87398618 0 11118
0.10250000 0.10250800 17003.01989866 0 -41.11371733 0 5999.35613017 0 847.05005009 0 547.08553896 0 11575
0.10350000 0.10349800 16461.59031613 0 349.37531552 0 5075.68539095 0 -49.58930369 0 565.73514629 0 11364
0.10450000 0.10450100 16653.16126195 0 258.82618836 0 5462.25446923 0 260.95829390 0 950.48188398 0 12093
0.10550000 0.10551000 16052.30514175 0 34.98168953 0 5007.39430321 0 -28.93545125 0 851.08028977 0 12067
0.10650000 0.10649700 16285.72730910 0 85.94241711 0 4881.90654604 0 472.42889141 0 -252.72975058 0 12054
0.10750000 0.10749900 15818.11405431 0 408.62829694 0 5318.45542957 0 -49.50296495 0 394.42634305 0 12807
0.10850000 0.10850100 15597.65368260 0 287.58599629 0 5119.97518760 0 -44.82815055 0 607.58417091 0 12736
0.10950000 0.10950300 15597.54383688 0 -33.37794194 0 5539.25632303 0 113.30476772 0 871.48193643 0 12933
0.11050000 0.11050200 15127.40413040 0 88.19150835 0 5432.28855523 0 -335.19423232 0 493.64229798 0 13428
0.11150000 0.11150900 14956.15464385 0 381.56890084 0 5884.88589930 0 -727.98167714 0 -1.35731970 0 13453
0.11250000 0.11250000 14803.46908497 0 348.27685826 0 6584.54824987 0 169.15033472 0 710.11307292 0 13668
0.11350000 0.11349100 14646.71923424 0 53.98434103 0 6317.08489209 0 379.06222138 0 -187.48029099 0 13791
0.11450000 0.11448600 15266.79835645 0 -183.72796100 0 6149.75689796 0 620.65910765 0 134.71479814 0 14205
0.11550000 0.11549300 14716.14173295 0 -72.72676799 0 5536.94956279 0 264.58100594 0 108.60051467 0 14776
0.11650000 0.11649800 14602.56125246 0 139.35358314 0 5617.53238724 0 -530.59769551 0 -421.14521740 0 14553
0.11750000 0.11747300 14126.16033961 0 582.08128874 0 5858.63277083 0 -420.81348330 0 4.74073282 0 14568
0.11850000 0.11849100 14122.09604775 0 159.40701884 0 5703.81620487 0 445.58589139 0 -838.29534575 0 16015
0.11950000 0.11950300 13814.41816975 0 -109.27233112 0 5503.27086325 0 531.37869862 0 -705.96969214 0 15270
0.12050000 0.12050700 13957.87668766 0 -64.28435504 0 4861.79379365 0 683.59082242 0 -1275.68235216 0 15999
0.12150000 0.12150000 13623.83583546 0 180.77750480 0 4478.84962432 0 -274.68900963 0 -581.61005058 0 15670
0.12250000 0.12250700 13436.10949005 0 384.01077133 0 4325.07659275 0 -3.62281090 0 -1157.93871866 0 16887
0.12350000 0.12352200 13136.34050430 0 4.47233577 0 4307.63309149 0 67.07421679 0 -564.28518270 0 16407
0.12450000 0.12449800 13057.36142744 0 -37.34117572 0 4108.99906550 0 532.61116767 0 -1312.01931826 0 16306
0.12550000 0.12549900 12909.17954332 0 -30.20460876 0 3906.17991736 0 303.08522821 0 -1190.45305350 0 17523
0.12650000 0.12650100 13139.63587608 0 423.37947946 0 3634.08106995 0 -278.55557918 0 -1576.56077974 0 17154
0.12750000 0.12750600 12503.73896934 0 311.32255919 0 3713.20294625 0 -275.80833757 0 -1335.68008760 0 18007
0.12850000 0.12850300 12492.75439676 0 -219.20483506 0 3952.44693707 0 554.08381015 0 -800.74678129 0 17496
0.12950000 0.12949900 12369.06810950 0 128.78312894 0 3719.20052288 0 425.35780098 0 -1231.50240124 0 18405
0.13050000 0.13049000 12235.82524408 0 354.65010728 0 3433.22816030 0 -283.44261552 0 -701.85706817 0 18100
0.13150000 0.13148800 12220.22715102 0 -223.43499396 0 3674.10885244 0 325.42894729 0 -609.01655917 0 19059
0.13250000 0.13249300 12112.35864827 0 -25.86372537 0 3367.88093801 0 343.00975571 0 -799.92403680 0 18957
0.13350000 0.13349100 12133.66871908 0 164.77847484 0 3182.06590823 0 -229.17663005 0 -698.77699402 0 19468
0.13450000 0.13450700 11899.36778592 0 286.31727816 0 3719.62892121 0 -255.15184883 0 -486.21782537 0 19953
0.13550000 0.13551000 11935.17749253 0 -3.10500913 0 3629.26982716 0 14.01477677 0 -542.40720949 0 19956
0.13650000 0.13649900 11958.02540350 0 -102.64863386 0 3597.64524270 0 735.16778452 0 -635.09613139 0 19723
0.13750000 0.13749600 12038.54232052 0 -52.06896110 0 3377.58031560 0 165.54739492 0 86.66234600 0 20946
0.13850000 0.13851100 11915.84464479 0 207.66114774 0 3171.54268769 0 60.59320912 0 -331.01460245 0 20955
0.13950000 0.13949800 11642.65832469 0 289.07001205 0 3252.97132424 0 -143.77707052 0 30.77701484 0 20506
0.14050000 0.14048300 11159.66666829 0 180.53035192 0 3322.11920864 0 230.53981551 0 366.50136263 0 21447
0.14150000 0.14148400 11112.43300619 0 192.55845889 0 3494.90653534 0 203.56829599 0 453.76829951 0 21771
0.14250000 0.14249400 10813.18029536 0 246.17964995 0 3066.92561843 0 -70.65903205 0 367.38122690 0 22470
0.14350000 0.14350900 10715.95584344 0 81.92634753 0 3148.65083843 0 58.47241769 0 178.80357711 0 22519
0.14450000 0.14449900 10417.82355901 0 91.41701824 0 3063.64123123 0 170.82877741 0 138.93397247 0 22218
0.14550000 0.14550500 10377.71888451 0 160.61642028 0 3111.94039687 0 120.88631971 0 269.83492700 0 23559
0.14650000 0.14650700 10136.93705353 0 -50.83001116 0 2717.84688637 0 -14.61837904 0 576.94380415 0 23044
0.14750000 0.14750500 10356.39782913 0 23.64681893 0 2958.36508761 0 -71.95674945 0 -941.70301357 0 23649
0.14850000 0.14849900 10161.12508236 0 255.92955657 0 2986.51854713 0 -355.95507450 0 -435.68000384 0 23640
0.14950000 0.14949500 10020.21498528 0 211.01144237 0 3271.27162216 0 -161.97740883 0 -663.52969752 0 24457
0.15050000 0.15050000 9929.62521520 0 -118.33240659 0 3178.41903013 0 236.48686310 0 -285.36491572 0 24591
0.15150000 0.15149900 10123.28322981 0 -70.08772443 0 2966.65843991 0 770.08115002 0 -328.09270615 0 25020
0.15250000 0.15250500 9994.24745570 0 -45.50996297 0 2640.40564967 0 -0.47444895 0 -387.65874788 0 25297
0.15350000 0.15350100 9958.96500857 0 249.19711204 0 2702.36962360 0 -182.80855227 0 -3.99457277 0 25452
0.15450000 0.15450400 9640.40141914 0 283.79522030 0 2672.04121870 0 148.78054333 0 158.09985471 0 26061
0.15550000 0.15549900 9474.84194119 0 134.02716389 0 3144.19110197 0 -91.17052443 0 397.23070443 0 26128
0.15650000 0.15649500 9342.46685701 0 70.73383699 0 2837.76546524 0 248.57868060 0 191.76976658 0 26331
0.15750000 0.15749700 9336.99653987 0 103.68491844 0 2823.07909170 0 54.44239770 0 49.10400527 0 27345
0.15850000 0.15849900 9069.61007409 0 -45.28543831 0 2752.38238256 0 79.12923597 0 288.73388413 0 26980
0.15950000 0.15949700 9098.71919143 0 196.87319900 0 2695.53721945 0 -16.29484450 0 467.73408509 0 27777
0.16050000 0.16050000 8870.70143379 0 56.93600552 0 2753.53576268 0 -90.99532050 0 -262.61586590 0 28224
0.16150000 0.16150500 8754.78123934 0 161.07887079 0 2863.11785875 0 -136.81285150 0 -97.74105637 0 28075
0.16250000 0.16249700 8656.29356157 0 10.41028814 0 2772.18756693 0 -102.71585944 0 -371.96069521 0 28590
0.16350000 0.16349900 8743.12660783 0 44.62120120 0 2808.52453303 0 263.76155682 0 -369.83957424 0 29163
0.16450000 0.16449100 8707.36083950 0 57.82641498 0 2432.55556728 0 41.08372945 0 -472.37067317 0 28996
0.16550000 0.16550500 8699.44096267 0 44.63449254 0 2625.89502929 0 26.04639881 0 -483.66830607 0 30777
0.16650000 0.16650700 8467.10626801 0 157.81535428 0 2633.33158493 0 -226.33272421 0 -436.68728914 0 29211
0.16750000 0.16749900 8448.24575688 0 47.73763429 0 2740.29935272 0 23.60562679 0 -692.58608891 0 30922
0.16850000 0.16850800 8404.81275690 0 16.30011710 0 2774.28562029 0 29.09648508 0 -312.35291209 0 30867
0.16950000 0.16949900 8485.41755050 0 -19.53814940 0 2479.70135280 0 459.53739703 0 -542.85428160 0 30852
0.17050000 0.17049200 8455.61640509 0 55.95464381 0 2390.93502177 0 163.25271770 0 -118.92337659 0 31257
0.17150000 0.17149500 8407.69071491 0 142.62039502 0 2422.44976051 0 197.96506552 0 103.66305914 0 32608
0.17250000 0.17250900 8115.75372942 0 106.51904801 0 2432.55556728 0 89.49416881 0 240.84444305 0 32361
0.17350000 0.17350400 7993.98974235 0 181.62221843 0 2470.24363581 0 -11.42329641 0 51.26379193 0 32508
0.17450000 0.17449800 7871.96212555 0 176.62204099 0 2380.82921500 0 -33.50777959 0 437.42874779 0 32791
0.17550000 0.17549800 7647.98669062 0 44.67063178 0 2368.24089482 0 -144.45921247 0 392.21624705 0 33633
0.17650000 0.17650100 7477.03378753 0 67.66837232 0 2293.79844644 0 238.95399811 0 175.47525162 0 33984
0.17750000 0.17750300 7442.87176680 0 85.00817921 0 2159.11660202 0 224.76852107 0 424.57240404 0 34069
0.17850000 0.17849800 7508.01028221 0 -55.54129434 0 1902.34123335 0 302.46459986 0 182.52734721 0 34536
