### header ###
fiducial parameters:
Omega_m = 0.31
Omega_nu = 0
Omega_de = 0.69
Omega_k = 0
H_0 = 100
w_de = -1
zeff = 0
beta = 0
fgrowth = 0
b_1 = 2
gamma = 0.55
Lx = 3500 Ly = 3500 Lz = 3500
nx = 700 ny = 700 nz = 700
xoffset = -983.599254 yoffset = -42.9823471 zoffset = 800.977702
bins = 400 dk = 0.001
kx_ny = 0.628318531 ky_ny = 0.628318531 kz_ny = 0.628318531
############################
A(data) = 9.11623056 (not used)
A(ran) = 9.1155781 (used)
Ngal = 506110
weighted Ngal = 0
Nran = 25229228
weighted Nran = 0
SN(data) = 6740.52552
SN(ran) = 135.314477
SN(data+ran) = 6875.84
############################
13 columns: k_central k_mean P_0(k) sigma^{lin}_{P_0(k)} P^img_1(k) sigma^{lin}_{P_1(k)} P_2(k) sigma^{lin}_{P_2(k)} P^img_3(k) sigma^{lin}_{P_3(k)} P_4(k) sigma^{lin}_{P_4(k)} N_modes
### header ###
0.00050000 0 0 0 0 0 0 0 0 0 0 0 0
0.00150000 0.00179520 49081.81643659 0 -58676.29135776 0 -20020.92136966 0 -64342.24374094 0 25851.97187874 0 3
0.00250000 0.00253879 80463.86153568 0 -42576.42301674 0 -27644.21474111 0 -75400.85234149 0 -12584.69526927 0 6
0.00350000 0.00331552 91188.86866692 0 1883.42579937 0 255.65494226 0 -104003.58088604 0 -21595.23031202 0 7
0.00450000 0.00420575 86333.35804879 0 28346.89784914 0 3559.55074498 0 -48987.45895811 0 49821.07817131 0 24
0.00550000 0.00557378 67518.87228574 0 4967.21273671 0 27541.83852465 0 23081.11344510 0 1796.93327486 0 45
0.00650000 0.00659388 72679.75402163 0 -15979.25773408 0 11581.80379259 0 39953.52677576 0 19225.74816050 0 40
0.00750000 0.00754703 95749.88289415 0 -11296.64428838 0 883.15524171 0 160.33191985 0 -41115.03548052 0 57
0.00850000 0.00846663 82902.98587737 0 -8064.35691431 0 -12105.10883037 0 4790.81148563 0 14607.28461867 0 75
0.00950000 0.00948925 94330.34657946 0 4673.55117332 0 -234.28006247 0 -19918.87469038 0 -4335.83048931 0 112
0.01050000 0.01054430 100026.28684579 0 7308.90391960 0 4588.37679753 0 -7072.65871709 0 -19213.77497638 0 105
0.01150000 0.01145670 90395.45298937 0 1591.99410421 0 18288.32473640 0 -27718.69014321 0 -32499.28597634 0 144
0.01250000 0.01249090 79107.48651333 0 7492.45612744 0 12982.77617962 0 -786.40642179 0 -17933.30335058 0 169
0.01350000 0.01339930 80398.61317454 0 7120.49653069 0 33195.92756945 0 310.50311007 0 2557.20849694 0 180
0.01450000 0.01448870 59709.17071758 0 7002.63206689 0 35019.25677223 0 9213.63978978 0 -20101.65797813 0 267
0.01550000 0.01550050 69378.78011522 0 -77.10928292 0 36940.23882525 0 16710.94011372 0 10709.49691476 0 238
0.01650000 0.01653350 66654.49626932 0 -3724.35228742 0 30794.59015744 0 10331.10035848 0 2040.34041869 0 315
0.01750000 0.01747870 67671.44799890 0 2200.61631723 0 19579.45139762 0 1703.34471647 0 15606.77087785 0 297
0.01850000 0.01844180 69567.82460934 0 -2651.33529939 0 12522.74227991 0 2051.41286786 0 6769.52845214 0 388
0.01950000 0.01947590 68468.70827685 0 -417.32148768 0 14435.59574922 0 6172.90139238 0 14115.39545848 0 399
0.02050000 0.02045430 67841.04979955 0 1168.24224774 0 16288.69314370 0 7595.18385022 0 3069.74865358 0 462
0.02150000 0.02154770 72926.35767609 0 1593.01566946 0 20347.71240395 0 -1959.64774851 0 11361.67295806 0 571
0.02250000 0.02255340 70217.67192325 0 -3538.21870503 0 16748.28766050 0 1663.75631689 0 14700.54363989 0 510
0.02350000 0.02348930 70669.79693070 0 -1256.10784382 0 9634.46974994 0 2229.93414145 0 1180.81958335 0 555
0.02450000 0.02439640 71290.31543582 0 2068.47190907 0 24649.38087253 0 -12650.38301330 0 247.71309628 0 592
0.02550000 0.02547300 70265.89419688 0 4378.76918353 0 20544.33625316 0 -3359.68644687 0 -4903.84273749 0 837
0.02650000 0.02652900 66078.46528315 0 1163.60675811 0 29777.19904496 0 -1692.84346508 0 -7814.50182638 0 723
0.02750000 0.02749970 64183.40682142 0 2208.88770038 0 29724.14355939 0 4188.56032471 0 -11192.94992321 0 826
0.02850000 0.02848090 67740.21142326 0 -843.91834845 0 29071.11071943 0 -3966.35340596 0 -11695.71381026 0 831
0.02950000 0.02946900 62835.16038278 0 661.98306970 0 31846.36298210 0 2652.35686464 0 -6679.61972556 0 996
0.03050000 0.03053250 61144.74450824 0 4031.32715278 0 26242.14389683 0 -1676.05903818 0 -5458.19017738 0 1041
0.03150000 0.03150510 61386.95433366 0 2234.53667736 0 28952.69702700 0 3340.16686139 0 -9079.94655689 0 1036
0.03250000 0.03246190 60320.35233601 0 -2034.21102719 0 27607.74596014 0 5163.04569669 0 -14280.38373865 0 1059
0.03350000 0.03345080 56335.14940350 0 3789.49080283 0 27945.63141274 0 1149.12909145 0 -5433.63965766 0 1302
0.03450000 0.03451200 53763.00188785 0 2924.69737265 0 28412.36590172 0 -4928.95347041 0 -8017.33195909 0 1339
0.03550000 0.03553350 48664.95190712 0 2757.34740937 0 26126.14681037 0 5193.39607073 0 -2482.70014112 0 1365
0.03650000 0.03647120 47424.24443406 0 -1607.31758297 0 22818.69200613 0 6736.65162640 0 -4101.29888012 0 1308
0.03750000 0.03744890 47988.85146474 0 156.89045326 0 23319.03928721 0 5821.59279209 0 -3475.87027106 0 1579
0.03850000 0.03847530 48179.32395330 0 1647.35635002 0 19715.44040617 0 -1687.01065704 0 -2121.90087011 0 1662
0.03950000 0.03950240 44723.68726494 0 -2.61595399 0 17654.73458991 0 2261.56971048 0 -116.30465449 0 1683
0.04050000 0.04050350 44929.53815511 0 -1202.49214505 0 13752.68487184 0 5477.72074743 0 2388.72712268 0 1822
0.04150000 0.04152450 47730.38447190 0 368.50934250 0 13577.70063062 0 1754.78546987 0 -2129.46924062 0 1887
0.04250000 0.04250150 45917.60045881 0 1531.83160019 0 15639.94428704 0 -1132.13595767 0 290.22888446 0 1920
0.04350000 0.04349210 43100.05759169 0 3667.37530944 0 12322.60336748 0 -2957.44238351 0 -1584.43671828 0 2005
0.04450000 0.04448520 43022.94589217 0 -849.01189476 0 18464.62712633 0 1532.61150484 0 520.03163515 0 2151
0.04550000 0.04548030 40055.35376359 0 515.41152392 0 15914.66844730 0 -202.33692541 0 -1834.46755937 0 2274
0.04650000 0.04648670 39786.56127253 0 77.48165993 0 14021.58720863 0 2200.11102689 0 53.63217563 0 2311
0.04750000 0.04749250 39357.72355895 0 667.16559104 0 14030.70440388 0 2434.12636116 0 1475.75535716 0 2568
0.04850000 0.04851840 38686.67601996 0 1397.21566320 0 11266.21702233 0 3935.65152560 0 1347.74114830 0 2493
0.04950000 0.04949480 38792.23776247 0 130.02768102 0 12971.02268695 0 65.53165326 0 4264.71636642 0 2644
0.05050000 0.05050630 37214.85313978 0 152.66468819 0 9994.50010087 0 57.14108749 0 4069.71823395 0 2829
0.05150000 0.05149060 36909.26233057 0 362.28108985 0 12375.65885304 0 732.18327615 0 4851.16072739 0 2784
0.05250000 0.05249300 35501.58935427 0 986.30477208 0 9671.86123501 0 445.37059377 0 2879.83637822 0 3055
0.05350000 0.05348950 35679.97881299 0 1038.08165340 0 12882.92641485 0 -218.09429477 0 3477.14448148 0 3009
0.05450000 0.05448610 34510.89075316 0 439.78493861 0 9833.05983764 0 -523.62139347 0 -363.19500629 0 3336
0.05550000 0.05550870 33776.57207610 0 154.50350564 0 11676.38096252 0 1296.71780865 0 1682.69372002 0 3349
0.05650000 0.05647670 33755.04231384 0 21.54030745 0 9331.60311473 0 1442.59293254 0 2230.04398717 0 3324
0.05750000 0.05747970 33384.97206357 0 258.59111851 0 8992.64117402 0 806.35989788 0 -710.83695626 0 3639
0.05850000 0.05849280 33479.32954205 0 -190.49775308 0 8450.73925486 0 71.68839635 0 972.03361538 0 3846
0.05950000 0.05951020 32921.09356346 0 645.01629889 0 8169.22662874 0 -686.48086347 0 -2548.11327084 0 3787
0.06050000 0.06049470 31563.51023813 0 938.08689228 0 8994.50855135 0 -2751.20703330 0 -4101.54054072 0 3930
0.06150000 0.06148310 30788.87817970 0 1284.44804108 0 10280.59329375 0 -1079.81863538 0 -2290.86556556 0 4083
0.06250000 0.06249100 29885.28723916 0 440.64942447 0 10569.23490747 0 1114.84624043 0 -2015.69103782 0 4303
0.06350000 0.06350600 30533.04748428 0 -718.05052507 0 10694.61281891 0 1952.21119287 0 -2732.68704392 0 4470
0.06450000 0.06451750 30267.98974789 0 -973.16612481 0 8302.70017018 0 2785.23723915 0 -1321.44408154 0 4479
0.06550000 0.06550280 31232.76475771 0 1051.34772170 0 8440.46867950 0 477.77508288 0 -2657.36582973 0 4636
0.06650000 0.06648880 30907.29187213 0 854.78209073 0 9443.97529224 0 -2985.10153727 0 238.37840650 0 4653
0.06750000 0.06749660 29163.16143766 0 127.15301837 0 10718.54820257 0 54.09473598 0 1061.11630210 0 5220
0.06850000 0.06852730 28667.20798561 0 708.99264652 0 10904.58292381 0 -264.96217061 0 724.23483943 0 5029
0.06950000 0.06949320 28177.40589421 0 667.20293859 0 12468.58833708 0 -258.98985849 0 834.11901125 0 5040
0.07050000 0.07048030 28193.00398728 0 833.36217420 0 11815.11611422 0 1372.28068344 0 2068.30714049 0 5475
0.07150000 0.07148790 26903.85454913 0 -626.70391794 0 11568.51245977 0 1346.48890702 0 3242.16250482 0 5509
0.07250000 0.07249820 27901.03404806 0 112.52046924 0 11456.57966516 0 753.43842410 0 994.40479590 0 5916
0.07350000 0.07351270 26345.50872482 0 366.51454412 0 11271.48961717 0 439.65202528 0 3000.61175376 0 5721
0.07450000 0.07449140 26609.90738685 0 992.87794031 0 11228.53993837 0 -211.07075907 0 3889.40647503 0 6028
0.07550000 0.07549160 26328.92202022 0 600.59358891 0 11150.76916450 0 -601.93919906 0 700.32142492 0 6183
0.07650000 0.07648840 25898.43662076 0 108.82306211 0 11603.11386340 0 1796.12041649 0 2030.04787419 0 6330
0.07750000 0.07749960 25446.75099621 0 -680.10322063 0 9605.77804636 0 184.89562106 0 725.71006753 0 6583
0.07850000 0.07848650 25253.86190169 0 452.27439764 0 9549.78967991 0 968.88543688 0 959.83414907 0 6549
0.07950000 0.07947320 25378.09741758 0 982.25695708 0 9839.72747320 0 -1126.87434740 0 -634.84238777 0 6828
0.08050000 0.08048110 24266.56851807 0 -359.67774615 0 8610.91629224 0 477.32142004 0 -799.48465390 0 7147
0.08150000 0.08149960 23559.38173529 0 728.21674699 0 9072.40015553 0 344.08294845 0 -716.53685097 0 7386
0.08250000 0.08250610 23343.64472979 0 900.55150931 0 8934.96118339 0 -217.87680024 0 -1344.27002336 0 7227
0.08350000 0.08350160 22404.35392836 0 253.72495286 0 9326.70399536 0 1654.70502908 0 1728.74104828 0 7798
0.08450000 0.08449610 22732.46311136 0 -423.76723487 0 7512.41509582 0 1662.73475164 0 -515.26542910 0 7371
0.08550000 0.08548940 22364.58977561 0 -28.25243052 0 7393.11165301 0 845.63413869 0 868.03168218 0 8256
0.08650000 0.08650700 22090.96407261 0 345.76688343 0 6720.03196809 0 -773.33807579 0 1280.75722469 0 8037
0.08750000 0.08749060 21359.06200152 0 843.94031760 0 6825.94521692 0 -608.61781919 0 675.01736353 0 8155
0.08850000 0.08849210 20448.66062598 0 550.41056908 0 7701.97586485 0 133.72069432 0 1444.74590876 0 8718
0.08950000 0.08949900 20612.98983179 0 -14.25138447 0 7063.04721609 0 159.51466765 0 -611.30684255 0 8571
0.09050000 0.09049190 20045.63665797 0 108.85107277 0 7564.59181558 0 -141.35826763 0 -768.45872865 0 8932
0.09150000 0.09150830 19497.61633188 0 504.90038642 0 7744.67289848 0 -790.10712429 0 -1402.44431975 0 9285
0.09250000 0.09250820 18946.08094257 0 658.73932542 0 7732.24934689 0 -460.20635750 0 -1659.18673469 0 9204
0.09350000 0.09350330 18566.01473126 0 50.68896925 0 7868.71069206 0 388.50016614 0 -1709.40820054 0 9349
0.09450000 0.09448040 18326.66089471 0 114.21978262 0 7183.17450184 0 1262.07246673 0 -1695.66650024 0 9564
0.09550000 0.09549270 18526.79980715 0 229.12060873 0 6599.06985482 0 872.08608792 0 -1620.68580780 0 10155
0.09650000 0.09649430 18061.60315833 0 -53.86790456 0 5755.56452630 0 1282.61361746 0 -188.06357179 0 9913
0.09750000 0.09749140 18310.84311020 0 -319.09414429 0 5373.77373709 0 997.89020078 0 -827.33384077 0 10476
0.09850000 0.09850240 17942.31070009 0 335.01957762 0 4561.80511645 0 -181.81994074 0 470.75923638 0 10575
0.09950000 0.09950330 17485.24263498 0 792.24362366 0 5080.00232798 0 -1101.65376876 0 131.53256746 0 10882
0.10050000 0.10051200 16669.85781227 0 94.26509822 0 5822.52648076 0 -332.88417671 0 204.56569518 0 10875
0.10150000 0.10150300 16368.22144919 0 376.50061905 0 5796.24039857 0 1320.91682205 0 46.83920610 0 11118
0.10250000 0.10250800 16266.72399853 0 286.44579766 0 5792.85715021 0 -386.43946033 0 493.42590190 0 11575
0.10350000 0.10349800 15981.01526569 0 228.49558655 0 5488.61744343 0 923.65865619 0 574.19546409 0 11364
0.10450000 0.10450100 16183.46093837 0 -25.80243146 0 5589.75240319 0 141.18580985 0 122.65373744 0 12093
0.10550000 0.10551000 15649.50086519 0 22.63030659 0 4712.32671453 0 -397.72501020 0 780.37369452 0 12067
0.10650000 0.10649700 15592.60077922 0 200.63980894 0 5103.49832873 0 120.18330707 0 -33.37069212 0 12054
0.10750000 0.10749900 15176.50516984 0 131.92032287 0 4869.06558070 0 194.20394787 0 674.71199241 0 12807
0.10850000 0.10850100 15165.08121435 0 283.59310416 0 5322.00344652 0 640.68398346 0 -65.82175582 0 12736
0.10950000 0.10950300 15106.97282540 0 203.09595937 0 4983.42596584 0 -249.43328035 0 666.19345637 0 12933
0.11050000 0.11050200 14884.09584772 0 -299.81292404 0 4643.48639817 0 227.92658569 0 740.54692972 0 13428
0.11150000 0.11150900 14579.60349577 0 162.46402539 0 4724.88208099 0 82.24830535 0 31.06744694 0 13453
0.11250000 0.11250000 14933.85596151 0 329.52948824 0 4862.50779087 0 -199.81816291 0 371.22363039 0 13668
0.11350000 0.11349100 14656.82504101 0 32.71996604 0 5010.15143093 0 -172.77304676 0 18.72869625 0 13791
0.11450000 0.11448600 14871.46358925 0 5.35634122 0 5292.12540909 0 340.24603725 0 274.53742253 0 14205
0.11550000 0.11549300 14798.41618159 0 -13.93107433 0 5261.63223561 0 6.66471366 0 -195.08930442 0 14776
0.11650000 0.11649800 14598.27726915 0 279.62877192 0 5398.51099454 0 -598.54496613 0 -267.67316312 0 14553
0.11750000 0.11747300 14372.98368551 0 13.01298375 0 5239.45438357 0 -42.14022564 0 -177.67985533 0 14568
0.11850000 0.11849100 14414.17583269 0 -20.99799910 0 5213.14633223 0 757.75096729 0 -600.41454038 0 16015
0.11950000 0.11950300 14216.34368050 0 171.26706186 0 5637.33757161 0 168.97677848 0 293.14199311 0 15270
0.12050000 0.12050700 14062.33997291 0 376.22380783 0 4620.88014779 0 -125.63714736 0 -297.75990742 0 15999
0.12150000 0.12150000 13704.68228966 0 97.09285674 0 5056.79192611 0 368.71914784 0 -5.73005835 0 15670
0.12250000 0.12250700 13771.13895378 0 -32.55750421 0 4488.75770879 0 294.26241951 0 -966.77530049 0 16887
0.12350000 0.12352200 13601.09777022 0 64.99582581 0 4092.15971574 0 437.74730040 0 -506.03289585 0 16407
0.12450000 0.12449800 13189.50583560 0 256.59412321 0 4017.80514393 0 3.65610514 0 -244.84612284 0 16306
0.12550000 0.12549900 13183.35447495 0 126.32258469 0 3404.55842586 0 -52.85293005 0 -453.01805320 0 17523
0.12650000 0.12650100 13046.26700914 0 87.67611220 0 3719.51907549 0 235.40707962 0 -1244.70585748 0 17154
0.12750000 0.12750600 12856.45359493 0 153.52038640 0 3543.90871363 0 -41.07043812 0 -1255.47073861 0 18007
0.12850000 0.12850300 12412.67686264 0 226.40961622 0 3365.05790286 0 53.87899897 0 -984.99980486 0 17496
0.12950000 0.12949900 12270.75618489 0 135.79897545 0 3572.13906516 0 123.26338122 0 -549.84266667 0 18405
0.13050000 0.13049000 12109.39281367 0 161.43037711 0 3765.57738832 0 -36.06158286 0 -627.35969692 0 18100
0.13150000 0.13148800 12054.90933367 0 117.06588537 0 3792.41269914 0 11.23282392 0 -759.05922989 0 19059
0.13250000 0.13249300 11705.70977131 0 85.92132673 0 3752.97808357 0 13.09613697 0 -65.36227115 0 18957
0.13350000 0.13349100 12037.44386326 0 -68.98970655 0 3440.60979307 0 276.89361334 0 -537.80027975 0 19468
0.13450000 0.13450700 11864.32699938 0 14.04575327 0 3630.06071638 0 324.94782302 0 -698.13769189 0 19953
0.13550000 0.13551000 11959.78293511 0 121.37073937 0 3132.80010020 0 90.37161647 0 196.98963547 0 19956
0.13650000 0.13649900 11868.94051987 0 -113.45525636 0 3066.21162121 0 624.14561099 0 -99.95258036 0 19723
0.13750000 0.13749600 11854.11134688 0 165.19479014 0 3040.10129219 0 -0.89079501 0 217.31109475 0 20946
0.13850000 0.13851100 11877.17894930 0 295.46632866 0 2953.59778311 0 -12.49637931 0 114.62840872 0 20955
0.13950000 0.13949800 11445.92462976 0 -14.07046856 0 3033.74122466 0 11.68352093 0 746.25890746 0 20506
0.14050000 0.14048300 11350.79823121 0 111.16497298 0 3308.38849291 0 -315.55711192 0 -193.10329369 0 21447
0.14150000 0.14148400 11133.41353982 0 293.65936648 0 3618.02162483 0 -304.28254662 0 74.72980480 0 21771
0.14250000 0.14249400 11142.86027224 0 -82.06376453 0 3085.90695985 0 476.66673951 0 158.89623622 0 22470
0.14350000 0.14350900 11124.29634458 0 -30.92904133 0 3099.74752130 0 437.43204316 0 138.91310178 0 22519
0.14450000 0.14449900 10969.43584033 0 206.67033929 0 3112.57750208 0 -204.91720150 0 198.28032275 0 22218
0.14550000 0.14550500 10879.09871542 0 167.74211252 0 3124.74840850 0 46.87128105 0 266.69992999 0 23559
0.14650000 0.14650700 10682.00252959 0 299.33948896 0 3390.26749693 0 -314.18843417 0 -2.62874003 0 23044
0.14750000 0.14750500 10172.29639267 0 171.91844701 0 3229.73895323 0 -151.32786571 0 272.85458601 0 23649
0.14850000 0.14849900 10383.84827601 0 -39.83324571 0 3575.43443694 0 294.27010871 0 -70.49854744 0 23640
0.14950000 0.14949500 10169.89077128 0 100.89044317 0 3305.07115199 0 207.72705517 0 -130.76145047 0 24457
0.15050000 0.15050000 10090.21966634 0 152.29450810 0 3059.88450740 0 251.98060273 0 135.40682621 0 24591
0.15150000 0.15149900 9888.79555892 0 -5.62211295 0 2962.66005549 0 252.52214216 0 242.70413118 0 25020
0.15250000 0.15250500 9869.78126378 0 163.27248993 0 2957.43139894 0 182.10553963 0 537.13131928 0 25297
0.15350000 0.15350100 9782.67360321 0 152.49442732 0 2830.71336964 0 -118.88712751 0 742.32313510 0 25452
0.15450000 0.15450400 9537.45400490 0 115.44566092 0 2957.46435266 0 5.47800635 0 354.91813085 0 26061
0.15550000 0.15549900 9231.97304142 0 214.25848203 0 3175.07972006 0 31.73629756 0 714.39266240 0 26128
0.15650000 0.15649500 9194.72435579 0 7.26368043 0 2950.70884052 0 304.98665772 0 1047.40865398 0 26331
0.15750000 0.15749700 9143.28360240 0 29.66526625 0 2900.28965237 0 37.95828901 0 798.28074475 0 27345
0.15850000 0.15849900 8955.26067352 0 123.22383676 0 2943.88742095 0 -154.64960046 0 620.67668297 0 26980
0.15950000 0.15949700 9068.17109508 0 148.49714136 0 2645.73316737 0 100.83563015 0 348.38999936 0 27777
0.16050000 0.16050000 9001.60458524 0 -32.00080607 0 2896.46702111 0 42.94956895 0 270.65657303 0 28224
0.16150000 0.16150500 8885.27796160 0 4.54622899 0 2671.70069695 0 40.56284102 0 -83.63302057 0 28075
0.16250000 0.16249700 8921.32932882 0 -13.18060833 0 2426.25042262 0 29.84695108 0 36.71197941 0 28590
0.16350000 0.16349900 8819.04098894 0 -7.47868147 0 2174.22038932 0 345.36265116 0 -346.05467923 0 29163
0.16450000 0.16449100 8886.58512574 0 123.47208810 0 2132.07258432 0 -159.96393667 0 -626.71160714 0 28996
0.16550000 0.16550500 8855.49878534 0 157.77800673 0 2139.24551022 0 188.73472918 0 -178.59596869 0 30777
0.16650000 0.16650700 8579.00610889 0 2.16347748 0 2055.23549911 0 135.96484250 0 13.38085709 0 29211
0.16750000 0.16749900 8568.94424041 0 88.08671552 0 1790.03496328 0 -104.02313343 0 -163.25711153 0 30922
0.16850000 0.16850800 8325.44922000 0 130.98114192 0 2069.87793437 0 181.39813315 0 -144.68659313 0 30867
0.16950000 0.16949900 8261.89248304 0 129.72780219 0 1972.98301963 0 -21.61049887 0 -219.74966986 0 30852
0.17050000 0.17049200 8197.36910370 0 116.50457371 0 2090.02364048 0 94.19281973 0 26.13669200 0 31257
0.17150000 0.17149500 8027.64647274 0 120.37443863 0 2076.71033851 0 -310.14281609 0 -27.34005193 0 32608
0.17250000 0.17250900 7807.99895941 0 148.88599522 0 2274.46559869 0 91.35693263 0 46.90851875 0 32361
0.17350000 0.17350400 7792.03837545 0 -35.01486294 0 2300.80660374 0 -85.81960959 0 -53.36953450 0 32508
0.17450000 0.17449800 7795.38867008 0 194.48295601 0 2358.20099548 0 -15.32710366 0 -255.26608839 0 32791
0.17550000 0.17549800 7684.37857958 0 34.38215156 0 2397.88825622 0 -108.69586076 0 -15.29733547 0 33633
0.17650000 0.17650100 7506.04404372 0 14.32377280 0 2741.15614938 0 146.22553175 0 81.48806308 0 33984
0.17750000 0.17750300 7638.63881935 0 7.60690439 0 2277.78293961 0 293.44736422 0 -29.59101054 0 34069
0.17850000 0.17849800 7702.89856895 0 -65.66269921 0 2210.13994166 0 1.52162693 0 3.59608543 0 34536
