### header ###
fiducial parameters:
Omega_m = 0.31
Omega_nu = 0
Omega_de = 0.69
Omega_k = 0
H_0 = 100
w_de = -1
zeff = 0
beta = 0
fgrowth = 0
b_1 = 2
gamma = 0.55
Lx = 3500 Ly = 3500 Lz = 3500
nx = 700 ny = 700 nz = 700
xoffset = -983.599254 yoffset = -42.9823471 zoffset = 800.977702
bins = 400 dk = 0.001
kx_ny = 0.628318531 ky_ny = 0.628318531 kz_ny = 0.628318531
############################
A(data) = 9.00292158 (not used)
A(ran) = 8.99800006 (used)
Ngal = 499855
weighted Ngal = 0
Nran = 25229228
weighted Nran = 0
SN(data) = 6749.76203
SN(ran) = 133.569112
SN(data+ran) = 6883.33114
############################
13 columns: k_central k_mean P_0(k) sigma^{lin}_{P_0(k)} P^img_1(k) sigma^{lin}_{P_1(k)} P_2(k) sigma^{lin}_{P_2(k)} P^img_3(k) sigma^{lin}_{P_3(k)} P_4(k) sigma^{lin}_{P_4(k)} N_modes
### header ###
0.00050000 0 0 0 0 0 0 0 0 0 0 0 0
0.00150000 0.00179520 17361.33665626 0 -15508.89833615 0 -12520.10598249 0 11838.40340809 0 -65440.81084480 0 3
0.00250000 0.00253879 48270.71559718 0 -47327.03096672 0 -46063.14604551 0 8296.17533407 0 3729.78965085 0 6
0.00350000 0.00331552 45911.88848106 0 -20333.32261387 0 -22524.30546095 0 -49726.61084711 0 5929.82378573 0 7
0.00450000 0.00420575 69135.14229536 0 1535.86293832 0 -24778.55944609 0 -48590.25681357 0 -621.05894609 0 24
0.00550000 0.00557378 76151.53803169 0 7366.27634219 0 13724.23482886 0 -23851.02213732 0 -13740.38215055 0 45
0.00650000 0.00659388 66895.27810030 0 1163.20032893 0 -3818.31432128 0 22676.66148265 0 32139.21168712 0 40
0.00750000 0.00754703 54048.49092924 0 -5792.39579817 0 16541.11862162 0 21065.66406787 0 5052.55188110 0 57
0.00850000 0.00846663 62428.95088873 0 -5233.53369895 0 8499.19220452 0 15715.84768358 0 18352.91402318 0 75
0.00950000 0.00948925 71408.39959107 0 7350.33772738 0 6646.70994611 0 -10660.78033536 0 -12765.83087113 0 112
0.01050000 0.01054430 58201.20859362 0 5319.68570170 0 11397.70235613 0 -11083.43373458 0 26426.90440765 0 105
0.01150000 0.01145670 71725.85373867 0 1337.55844951 0 9972.16846481 0 18255.92024729 0 9167.92199870 0 144
0.01250000 0.01249090 75509.92914722 0 -14742.39486142 0 7252.72881542 0 8277.30383837 0 -4135.66960773 0 169
0.01350000 0.01339930 75785.09269038 0 -6259.50376262 0 4461.38415391 0 -13880.10591379 0 -32393.39469666 0 180
0.01450000 0.01448870 75646.35753868 0 8265.83594460 0 3635.33331122 0 -13816.28554709 0 -4509.06818349 0 267
0.01550000 0.01550050 71987.39641183 0 524.49466699 0 6761.83925133 0 -12002.84245963 0 -9723.04934324 0 238
0.01650000 0.01653350 69181.60703738 0 5111.74774274 0 17986.13914469 0 3884.61720138 0 -15316.88800742 0 315
0.01750000 0.01747870 71200.46163211 0 858.74861989 0 19580.76954632 0 -3235.85736016 0 -18890.49900531 0 297
0.01850000 0.01844180 77031.62198691 0 -1025.19345439 0 29998.97756537 0 -17.31706883 0 -39414.95318210 0 388
0.01950000 0.01947590 68838.77852712 0 3371.59372354 0 28479.92102310 0 -10526.92233389 0 -14022.90535734 0 399
0.02050000 0.02045430 58788.11430664 0 5600.34153115 0 39906.95218802 0 -7195.62002257 0 1864.75202598 0 462
0.02150000 0.02154770 65962.90757960 0 -2056.32297180 0 33043.79123920 0 18619.39975401 0 -11717.35341824 0 571
0.02250000 0.02255340 73657.93021000 0 -3653.36997940 0 34353.15229089 0 10964.14127634 0 -12685.75333702 0 510
0.02350000 0.02348930 71872.27809118 0 167.55976861 0 28574.71788448 0 5251.09803050 0 12596.99799056 0 555
0.02450000 0.02439640 70586.53387053 0 1178.76546828 0 25409.62314089 0 5660.39418946 0 17485.79186361 0 592
0.02550000 0.02547300 71037.01119210 0 304.20016232 0 29608.14647293 0 314.41471637 0 10680.59650430 0 837
0.02650000 0.02652900 72725.01046067 0 1875.76955228 0 24799.53997972 0 1975.43257931 0 5010.15143093 0 723
0.02750000 0.02749970 66823.87837852 0 3914.19865535 0 36697.80930838 0 -1075.97403497 0 17457.67135780 0 826
0.02850000 0.02848090 63951.19295705 0 826.84283037 0 25443.45562444 0 5434.56236176 0 15834.92045036 0 831
0.02950000 0.02946900 61304.67988502 0 1562.80809487 0 26557.95035854 0 8383.72237754 0 11420.33057565 0 996
0.03050000 0.03053250 59942.26334776 0 4215.68123441 0 26537.40920782 0 9083.11011379 0 15138.49854870 0 1041
0.03150000 0.03150510 57688.33889980 0 -114.05171865 0 23742.49456022 0 -5352.83714175 0 21888.40855421 0 1036
0.03250000 0.03246190 53410.50695372 0 1339.44779600 0 26564.10171919 0 1374.34578309 0 12927.96316243 0 1059
0.03350000 0.03345080 49633.57151735 0 2305.49701624 0 24437.04908454 0 170.98585680 0 14928.58336667 0 1302
0.03450000 0.03451200 49383.67249112 0 974.12397954 0 21074.23203448 0 4080.81265226 0 11865.31561092 0 1339
0.03550000 0.03553350 50890.97554073 0 -1655.71560976 0 19849.78172884 0 8352.81179030 0 10013.39356571 0 1365
0.03650000 0.03647120 50210.37142359 0 306.25976968 0 18702.66281417 0 610.14137940 0 9124.62081358 0 1308
0.03750000 0.03744890 48486.45260268 0 3451.59436565 0 14530.06307342 0 -4886.13560649 0 3846.41285795 0 1579
0.03850000 0.03847530 47831.66223110 0 1062.88481829 0 21263.27652861 0 268.83533090 0 4251.83146278 0 1662
0.03950000 0.03950240 45730.64303347 0 342.58245584 0 20565.09709534 0 -66.35813250 0 3180.46216063 0 1683
0.04050000 0.04050350 44964.24940447 0 431.96062756 0 22162.03425721 0 416.53609074 0 2687.59537348 0 1822
0.04150000 0.04152450 45180.86517577 0 -2109.43338023 0 15289.86595887 0 5366.40308889 0 2594.08370709 0 1887
0.04250000 0.04250150 44317.47777088 0 -364.32861418 0 15874.35506593 0 5074.26838109 0 -136.96773397 0 1920
0.04350000 0.04349210 44988.63515560 0 2426.05270032 0 10953.18965748 0 -175.60047574 0 4376.27568555 0 2005
0.04450000 0.04448520 42965.16704039 0 2413.18976582 0 14564.66447705 0 -3220.54486598 0 -515.91901117 0 2151
0.04550000 0.04548030 40434.54120910 0 2589.76677007 0 16745.32182590 0 -3917.86750259 0 -480.18949194 0 2274
0.04650000 0.04648670 37812.08435103 0 905.89111004 0 18030.95620082 0 792.26998663 0 -4904.16129009 0 2311
0.04750000 0.04749250 36411.55134691 0 415.03010584 0 17755.46312048 0 47.64843956 0 -4047.57333563 0 2568
0.04850000 0.04851840 34083.26134257 0 1760.82698479 0 19722.03114972 0 -150.39088167 0 -3304.48896965 0 2493
0.04950000 0.04949480 34983.33721988 0 -607.07558520 0 17112.20655012 0 1973.13680364 0 -2271.21416521 0 2644
0.05050000 0.05050630 36614.65609394 0 -1353.22245001 0 15453.20655316 0 6236.06268473 0 -5802.94098784 0 2829
0.05150000 0.05149060 37317.77858487 0 -1783.52111174 0 9233.58777359 0 2792.44311877 0 597.14003930 0 2784
0.05250000 0.05249300 36813.47685766 0 1104.68551079 0 11196.68467789 0 -933.24708960 0 -2718.20937726 0 3055
0.05350000 0.05348950 35926.36277599 0 2570.13733886 0 11065.08949836 0 -3577.37870628 0 -2322.31439686 0 3009
0.05450000 0.05448610 34714.10534592 0 939.26773383 0 13659.97507926 0 335.20411844 0 -4754.92488700 0 3336
0.05550000 0.05550870 32974.58843193 0 -311.27312861 0 12882.04764904 0 1045.42813554 0 -812.67492866 0 3349
0.05650000 0.05647670 32948.55499492 0 -185.90620174 0 11424.39486750 0 729.76886710 0 -4576.42558256 0 3324
0.05750000 0.05747970 33400.68000236 0 230.77818073 0 10831.72225387 0 1247.41904691 0 -3426.34083329 0 3639
0.05850000 0.05849280 32775.32828531 0 787.02595168 0 10091.12040129 0 2032.22281956 0 -2818.09209574 0 3846
0.05950000 0.05951020 32989.74714210 0 -812.78367593 0 8926.73373853 0 -175.81467491 0 1288.02901174 0 3787
0.06050000 0.06049470 33451.75826487 0 -997.93523753 0 7538.66822429 0 3492.39106822 0 -1052.36599158 0 3930
0.06150000 0.06148310 33365.52937010 0 889.43292494 0 9625.70406102 0 -2469.84819120 0 -346.37433029 0 4083
0.06250000 0.06249100 32246.53096124 0 953.15443049 0 8611.42158258 0 -33.36904443 0 316.92359275 0 4303
0.06350000 0.06350600 32614.95352562 0 492.59876358 0 12473.09201184 0 -731.44181750 0 462.38020441 0 4470
0.06450000 0.06451750 31131.59684424 0 970.02343860 0 11330.69646338 0 -417.65981252 0 2351.41252963 0 4479
0.06550000 0.06550280 31407.74899893 0 -457.62388448 0 12308.65296030 0 1270.45369561 0 2485.22659281 0 4636
0.06650000 0.06648880 31847.46143936 0 70.79150599 0 12395.65077514 0 1605.31839076 0 1038.00256448 0 4653
0.06750000 0.06749660 31741.24062250 0 173.10807622 0 12182.76975852 0 12.59578969 0 2323.39088497 0 5220
0.06850000 0.06852730 31328.22069344 0 23.79785681 0 11659.35487502 0 -230.40031144 0 1761.44212085 0 5029
0.06950000 0.06949320 29733.26075463 0 1206.61135977 0 12152.67202964 0 -45.94198621 0 2178.18582002 0 5040
0.07050000 0.07048030 28847.68451312 0 472.71449029 0 11167.24602337 0 612.11640555 0 2112.60792171 0 5475
0.07150000 0.07148790 28777.82263151 0 239.65261692 0 10369.04107218 0 1490.21105468 0 2230.51632379 0 5509
0.07250000 0.07249820 28597.78548690 0 316.36667492 0 9861.45495776 0 2118.42974517 0 2912.13102161 0 5916
0.07350000 0.07351270 28397.53672874 0 470.91082348 0 8866.85683339 0 2469.62849975 0 2842.66458461 0 5721
0.07450000 0.07449140 27101.90639277 0 263.74727688 0 7540.92006166 0 -866.29172588 0 3651.83213924 0 6028
0.07550000 0.07549160 26861.78363614 0 534.38847151 0 7189.90804483 0 96.72926739 0 3032.00566219 0 6183
0.07650000 0.07648840 25963.02590754 0 -113.04223643 0 8672.03445408 0 -330.19185797 0 4297.95568305 0 6330
0.07750000 0.07749960 25265.61539435 0 958.03926991 0 7351.18353947 0 304.94052252 0 1507.55569478 0 6583
0.07850000 0.07848650 24964.96764280 0 755.34973973 0 9130.29983760 0 -836.55538945 0 3215.26128657 0 6549
0.07950000 0.07947320 23793.24328554 0 832.66575230 0 9084.65893853 0 -1107.94792884 0 1439.06688474 0 6828
0.08050000 0.08048110 23187.77364486 0 490.62373743 0 9545.36289716 0 1050.39755618 0 2855.97788658 0 7147
0.08150000 0.08149960 23150.09656091 0 -98.33894665 0 8811.12111211 0 1060.65714697 0 2144.37530561 0 7386
0.08250000 0.08250610 22692.69895862 0 -328.28164079 0 9247.64802649 0 1449.16170694 0 1537.13714874 0 7227
0.08350000 0.08350160 23161.85005357 0 427.18563386 0 7597.06221213 0 111.26822796 0 2059.95886532 0 7798
0.08450000 0.08449610 22195.09782068 0 241.27613675 0 8193.10708954 0 -197.18735778 0 2295.92945352 0 7371
0.08550000 0.08548940 21634.99446476 0 695.94736812 0 7813.84275202 0 -122.72953099 0 1471.52629671 0 8256
0.08650000 0.08650700 21744.07127049 0 -52.34258681 0 7647.77798374 0 679.57486269 0 1946.98253633 0 8037
0.08750000 0.08749060 21219.77762119 0 114.28898542 0 6014.48188662 0 1195.57186433 0 608.34759870 0 8155
0.08850000 0.08849210 20763.03909325 0 279.71115621 0 6703.29147947 0 -102.68092850 0 1767.28591347 0 8718
0.08950000 0.08949900 19961.93421490 0 817.55757117 0 6857.43798651 0 -274.65385899 0 1567.83902911 0 8571
0.09050000 0.09049190 19637.77947802 0 496.18083270 0 6612.56989453 0 93.52407895 0 1307.48268978 0 8932
0.09150000 0.09150830 19527.71406076 0 10.05293803 0 7242.48020920 0 659.48188252 0 986.53325119 0 9285
0.09250000 0.09250820 18933.33883838 0 177.93359896 0 6142.03474343 0 -353.91963320 0 619.74738812 0 9204
0.09350000 0.09350330 18505.70942779 0 176.77582501 0 6606.70413277 0 1034.70829116 0 1288.14984204 0 9349
0.09450000 0.09448040 18423.21528770 0 272.89413047 0 6169.19959142 0 173.12345463 0 1573.54002228 0 9564
0.09550000 0.09549270 18364.22813294 0 168.65712741 0 6020.12795692 0 -152.06712744 0 1132.81700117 0 10155
0.09650000 0.09649430 17898.92163840 0 125.48775717 0 6202.41693891 0 349.40497387 0 1360.85672796 0 9913
0.09750000 0.09749140 17790.06452411 0 134.91911119 0 6004.68364787 0 -48.16449478 0 981.90874613 0 10476
0.09850000 0.09850240 17646.38631475 0 -179.17046183 0 5477.51204055 0 548.53879791 0 931.45440735 0 10575
0.09950000 0.09950330 17746.12623379 0 106.78289744 0 5139.35197363 0 439.17859020 0 468.69962902 0 10882
0.10050000 0.10051200 17600.69049281 0 365.28097662 0 5077.61867573 0 -277.95582151 0 2088.48580032 0 10875
0.10150000 0.10150300 17176.02691682 0 121.57724933 0 5686.07612015 0 217.44400808 0 485.65321834 0 11118
0.10250000 0.10250800 16977.86522745 0 519.26710889 0 5211.08123259 0 -516.58797164 0 332.07131833 0 11575
0.10350000 0.10349800 16353.39227620 0 311.53785681 0 5712.38417148 0 659.69498323 0 532.05644675 0 11364
0.10450000 0.10450100 16091.52006586 0 132.51898208 0 5971.16971693 0 -914.43930442 0 352.87939418 0 12093
0.10550000 0.10551000 15782.08465624 0 391.61648938 0 5952.80351157 0 -26.61671782 0 167.62238068 0 12067
0.10650000 0.10649700 15493.73962598 0 47.51662469 0 5899.97870203 0 325.28285248 0 94.41404902 0 12054
0.10750000 0.10749900 15380.15914549 0 56.52628097 0 5785.45354830 0 478.96910592 0 -102.12104484 0 12807
0.10850000 0.10850100 15531.19701849 0 171.69765710 0 5484.24558354 0 -33.36036662 0 352.91234789 0 12736
0.10950000 0.10950300 15164.64183145 0 -126.82457965 0 5228.96411675 0 593.89739347 0 122.91187490 0 12933
0.11050000 0.11050200 15037.98970958 0 101.86686183 0 5172.22879937 0 352.55315237 0 70.52809594 0 13428
0.11150000 0.11150900 15152.88833879 0 420.88488303 0 5150.80888284 0 79.68494549 0 457.77437313 0 13453
0.11250000 0.11250000 14821.70347546 0 26.54509841 0 4722.07003041 0 544.10212904 0 1311.38221305 0 13668
0.11350000 0.11349100 14774.57965908 0 -114.25383479 0 4520.97546017 0 395.79172542 0 828.09177628 0 13791
0.11450000 0.11448600 14615.74273956 0 362.94675495 0 5244.11184234 0 110.96615222 0 1216.65125911 0 14205
0.11550000 0.11549300 14290.05016252 0 372.99983577 0 4748.14740572 0 -255.23313467 0 1566.71860270 0 14776
0.11650000 0.11649800 14118.36129307 0 -61.69034823 0 5141.64774930 0 51.29520781 0 1825.96550020 0 14553
0.11750000 0.11747300 14078.37744888 0 -191.10739686 0 4510.13368703 0 501.87084130 0 1239.34538606 0 14568
0.11850000 0.11849100 14032.24224404 0 255.88561828 0 5190.30940584 0 -191.02171719 0 1308.24062529 0 16015
0.11950000 0.11950300 14068.60117928 0 310.88427474 0 4693.78475602 0 -148.12586280 0 752.67939013 0 15270
0.12050000 0.12050700 13689.30388805 0 134.26003683 0 5234.40148018 0 -72.00035821 0 503.41856757 0 15999
0.12150000 0.12150000 13503.44491997 0 36.30401238 0 4773.76342898 0 -11.73394012 0 891.02129414 0 15670
0.12250000 0.12250700 13346.25568633 0 89.96870234 0 4779.53032959 0 130.18036658 0 -122.09901653 0 16887
0.12350000 0.12352200 13303.19616181 0 230.50356642 0 4951.57070535 0 -106.12744799 0 10.33747141 0 16407
0.12450000 0.12449800 12991.45399195 0 406.40941328 0 4849.38122663 0 -471.56879937 0 -431.89581858 0 16306
0.12550000 0.12549900 12708.38155653 0 99.36215959 0 5243.57359828 0 38.93218122 0 144.19009045 0 17523
0.12650000 0.12650100 12729.80147307 0 -55.71507028 0 4623.87893611 0 974.51832570 0 -597.91994395 0 17154
0.12750000 0.12750600 12717.16921460 0 -84.49223384 0 4244.18620026 0 553.76855292 0 -288.35162100 0 18007
0.12850000 0.12850300 12886.22178663 0 -284.88049607 0 3840.20657444 0 618.95210507 0 61.15408139 0 17496
0.12950000 0.12949900 12896.32759340 0 157.14199998 0 3510.80121187 0 -86.21516405 0 324.53919692 0 18405
0.13050000 0.13049000 12688.82901734 0 156.84651497 0 3484.03180849 0 103.67964584 0 763.14329397 0 18100
0.13150000 0.13148800 12598.31613927 0 130.86250853 0 3663.56366276 0 -108.65027478 0 500.66143986 0 19059
0.13250000 0.13249300 12267.57065884 0 174.41853573 0 3567.56948297 0 483.25528614 0 168.16282165 0 18957
0.13350000 0.13349100 12148.93727497 0 272.29656972 0 3665.62876240 0 -58.35949628 0 955.16241035 0 19468
0.13450000 0.13450700 12057.32593964 0 168.62637061 0 3801.56284810 0 -526.69267996 0 622.52868190 0 19953
0.13550000 0.13551000 11642.98786187 0 87.30098905 0 3991.96942922 0 243.28301816 0 555.73588986 0 19956
0.13650000 0.13649900 11848.61906059 0 35.36263451 0 4209.48593548 0 -45.00093788 0 672.69522488 0 19723
0.13750000 0.13749600 11534.35043904 0 -75.52948169 0 3591.40600547 0 202.53904154 0 775.64044220 0 20946
0.13850000 0.13851100 11862.67931350 0 62.59196195 0 4019.60661384 0 497.44955083 0 803.66538223 0 20955
0.13950000 0.13949800 11614.75751033 0 231.70857403 0 3774.56276869 0 -377.45957224 0 27.13606841 0 20506
0.14050000 0.14048300 11662.43055534 0 184.39911838 0 4004.17328936 0 40.22484572 0 492.71849542 0 21447
0.14150000 0.14148400 11308.17808959 0 59.81572107 0 3989.45396210 0 -34.20529994 0 445.26074804 0 21771
0.14250000 0.14249400 11097.49398748 0 45.11506759 0 3614.38573131 0 294.06469720 0 1175.37123535 0 22470
0.14350000 0.14350900 11254.13399249 0 -219.02139270 0 3610.13470172 0 633.66374313 0 835.96222253 0 22519
0.14450000 0.14449900 11044.32865619 0 294.28329020 0 3333.18067323 0 289.01399073 0 707.17140439 0 22218
0.14550000 0.14550500 10719.29515350 0 548.63216678 0 3302.25910141 0 -428.72127711 0 681.62128856 0 23559
0.14650000 0.14650700 10521.18838700 0 145.99046189 0 3456.57037703 0 -104.65211005 0 976.32748480 0 23044
0.14750000 0.14750500 10459.74068798 0 -198.19464309 0 3571.94134286 0 170.37401611 0 422.05254309 0 23649
0.14850000 0.14849900 10208.61138962 0 68.22199478 0 3246.88587103 0 146.09481533 0 320.50236649 0 23640
0.14950000 0.14949500 10169.13283577 0 162.43436705 0 3102.62547932 0 -352.08191421 0 21.73868883 0 24457
0.15050000 0.15050000 10038.49331406 0 257.01153697 0 3416.41077968 0 -266.27812240 0 -219.45857869 0 24591
0.15150000 0.15149900 9872.41756120 0 157.40343280 0 3507.25319492 0 220.06382864 0 -378.26034758 0 25020
0.15250000 0.15250500 9938.00644408 0 -155.35041619 0 3381.83134519 0 233.31671546 0 -492.11873776 0 25297
0.15350000 0.15350100 9743.95298486 0 79.79830628 0 3034.42226816 0 134.33583038 0 -617.80202032 0 25452
0.15450000 0.15450400 9585.54446367 0 130.46596546 0 2901.23432561 0 -58.23185555 0 -481.20886027 0 26061
0.15550000 0.15549900 9517.45109823 0 125.08242644 0 2921.43495459 0 303.86952669 0 -226.25802912 0 26128
0.15650000 0.15649500 9588.81786629 0 -132.01149483 0 2540.11650200 0 279.42885270 0 -655.52853485 0 26331
0.15750000 0.15749700 9510.77247810 0 53.09206419 0 2297.93963030 0 307.63174280 0 -195.12225813 0 27345
0.15850000 0.15849900 9488.63856435 0 131.41283562 0 2314.24073601 0 -67.01006688 0 -792.39081693 0 26980
0.15950000 0.15949700 9314.67588838 0 105.59271900 0 2241.85240270 0 100.52410768 0 23.84673815 0 27777
0.16050000 0.16050000 9067.66580475 0 159.54103063 0 2185.28185391 0 106.52552890 0 -22.00583364 0 28224
0.16150000 0.16150500 9033.02046282 0 156.98382213 0 2026.96120929 0 88.28289999 0 -130.26934161 0 28075
0.16250000 0.16249700 8761.29509088 0 164.65434917 0 2258.96636678 0 105.76352911 0 265.36420596 0 28590
0.16350000 0.16349900 8672.57269814 0 139.89402411 0 2272.49936020 0 99.19376609 0 306.82327826 0 29163
0.16450000 0.16449100 8350.95539753 0 -30.97803252 0 2112.84958230 0 166.36464712 0 720.26721182 0 28996
0.16550000 0.16550500 8604.68803959 0 0.21633896 0 2099.53628034 0 108.77374138 0 285.60328094 0 30777
0.16650000 0.16650700 8448.44347919 0 98.35388567 0 2061.77131980 0 -251.32811912 0 485.35773334 0 29211
0.16750000 0.16749900 8411.84288335 0 185.32621631 0 2290.75571983 0 -259.42814294 0 -301.19807864 0 30922
0.16850000 0.16850800 8338.42200022 0 109.59483818 0 2438.02588443 0 -126.43462733 0 7.51652333 0 30867
0.16950000 0.16949900 8218.16289959 0 -56.93556614 0 2391.14372865 0 66.45677396 0 -138.55280780 0 30852
0.17050000 0.17049200 8221.26054906 0 -9.04340088 0 2402.47980756 0 372.65052636 0 -310.88317628 0 31257
0.17150000 0.17149500 8231.30044840 0 161.75112663 0 2227.22095202 0 -18.40113630 0 47.08229469 0 32608
0.17250000 0.17250900 8226.21459130 0 -6.90594586 0 2022.16095107 0 155.38336991 0 -236.33088217 0 32361
0.17350000 0.17350400 8117.79685992 0 -47.04527668 0 2023.35826948 0 167.16322554 0 99.11280979 0 32508
0.17450000 0.17449800 8063.59897880 0 134.35560261 0 1934.31732414 0 -39.15945202 0 -274.52094567 0 32791
0.17550000 0.17549800 7978.78709390 0 127.73849609 0 1888.05030443 0 9.95731732 0 213.56096167 0 33633
0.17650000 0.17650100 7814.77644069 0 88.18612591 0 1642.29246206 0 62.27758348 0 -281.60489652 0 33984
0.17750000 0.17750300 7821.72967513 0 58.75922488 0 2073.17330614 0 -169.31730023 0 -144.64375329 0 34069
0.17850000 0.17849800 7557.73744229 0 225.57698562 0 2099.03099000 0 -215.96328769 0 -258.61967840 0 34536
