### header ###
fiducial parameters:
Omega_m = 0.31
Omega_nu = 0
Omega_de = 0.69
Omega_k = 0
H_0 = 100
w_de = -1
zeff = 0
beta = 0
fgrowth = 0
b_1 = 2
gamma = 0.55
Lx = 3500 Ly = 3500 Lz = 3500
nx = 700 ny = 700 nz = 700
xoffset = -983.599254 yoffset = -42.9823471 zoffset = 800.977702
bins = 400 dk = 0.001
kx_ny = 0.628318531 ky_ny = 0.628318531 kz_ny = 0.628318531
############################
A(data) = 9.03115336 (not used)
A(ran) = 9.03039028 (used)
Ngal = 501769
weighted Ngal = 0
Nran = 25229228
weighted Nran = 0
SN(data) = 6728.11531
SN(ran) = 134.049922
SN(data+ran) = 6862.16523
############################
13 columns: k_central k_mean P_0(k) sigma^{lin}_{P_0(k)} P^img_1(k) sigma^{lin}_{P_1(k)} P_2(k) sigma^{lin}_{P_2(k)} P^img_3(k) sigma^{lin}_{P_3(k)} P_4(k) sigma^{lin}_{P_4(k)} N_modes
### header ###
0.00050000 0 0 0 0 0 0 0 0 0 0 0 0
0.00150000 0.00179520 14062.33997291 0 -4927.19593880 0 -5191.55066254 0 -12039.86046923 0 -10666.47034396 0 3
0.00250000 0.00253879 46268.11816988 0 -34740.90770301 0 -31942.03860929 0 -25149.72815361 0 -26497.20567217 0 6
0.00350000 0.00331552 38085.71005403 0 -12645.98918427 0 -27525.91089441 0 9446.53469765 0 27965.29379766 0 7
0.00450000 0.00420575 63101.20673070 0 -5874.87895368 0 -13140.62448761 0 -38458.41660172 0 -12604.02811701 0 24
0.00550000 0.00557378 46833.60396636 0 15016.45994733 0 6020.85293871 0 -26509.94777636 0 3154.90106023 0 45
0.00650000 0.00659388 42829.61741474 0 16380.41432475 0 30813.04423938 0 -14769.41690997 0 -7925.13844141 0 40
0.00750000 0.00754703 27983.52818815 0 -5933.34983353 0 20444.37664267 0 25177.73881370 0 5118.70097718 0 57
0.00850000 0.00846663 40470.02137854 0 -9806.30141883 0 13931.84325064 0 31376.00358417 0 -2967.38342170 0 75
0.00950000 0.00948925 49519.33196250 0 -10113.96831226 0 9770.15119047 0 -7106.69990752 0 -2067.79086557 0 112
0.01050000 0.01054430 64943.64908977 0 -3416.58653284 0 -11859.93317035 0 2060.40923280 0 6687.57255611 0 105
0.01150000 0.01145670 60897.92116234 0 -1273.47445307 0 -8790.40420822 0 5228.79934816 0 5801.29330196 0 144
0.01250000 0.01249090 70077.06939421 0 -1933.61431149 0 -5874.92289197 0 -845.20793727 0 16141.28017965 0 169
0.01350000 0.01339930 72113.60915079 0 -3288.28672509 0 -3509.38420201 0 9895.59500935 0 -2465.19073242 0 180
0.01450000 0.01448870 78050.99032246 0 -944.02625067 0 1905.37297539 0 -25219.91957241 0 -4723.83854660 0 267
0.01550000 0.01550050 53343.61090670 0 12109.61250512 0 17294.66030070 0 -3628.91832084 0 7704.02997993 0 238
0.01650000 0.01653350 70974.61881983 0 1207.31437242 0 25130.72484305 0 -4099.65119424 0 1772.54752373 0 315
0.01750000 0.01747870 62367.21759082 0 -10624.60813785 0 10862.32527309 0 15773.40684391 0 430.43377197 0 297
0.01850000 0.01844180 79337.39361746 0 -2037.67116756 0 12898.52450792 0 8292.79208571 0 -9708.76939888 0 388
0.01950000 0.01947590 78568.80307394 0 1811.91623187 0 10902.70456189 0 519.65156893 0 3904.52124690 0 399
0.02050000 0.02045430 78417.76520095 0 4034.98501545 0 15987.05678061 0 -13098.00434599 0 2742.14476092 0 462
0.02150000 0.02154770 70702.42111127 0 3173.15741986 0 25812.42741745 0 -8250.94086418 0 -4665.11502158 0 571
0.02250000 0.02255340 69296.06628368 0 3560.11095819 0 34492.10713405 0 -5399.90603526 0 -8839.31850992 0 510
0.02350000 0.02348930 66195.56082687 0 4174.37924151 0 39925.29642423 0 4084.38263835 0 -3693.71631449 0 555
0.02450000 0.02439640 64515.69014200 0 -2866.20452365 0 37535.05343053 0 9136.89058115 0 -595.73291555 0 592
0.02550000 0.02547300 69637.02741660 0 -2925.00494068 0 30708.80064558 0 4509.56248925 0 -8795.88550994 0 837
0.02650000 0.02652900 70339.71052463 0 5178.57788232 0 27327.30982214 0 6728.31433581 0 -1619.97181058 0 723
0.02750000 0.02749970 68922.37112446 0 -1789.27702777 0 29615.17659938 0 2025.33549255 0 8746.71856306 0 826
0.02850000 0.02848090 66174.25075606 0 870.97554763 0 26190.18686852 0 3474.49719949 0 -3940.82525928 0 831
0.02950000 0.02946900 65442.34868497 0 6003.06891570 0 30425.17898153 0 -7454.32867601 0 140.92437702 0 996
0.03050000 0.03053250 59816.05060880 0 1527.45974030 0 31162.35364746 0 471.78190008 0 4959.23793702 0 1041
0.03150000 0.03150510 58460.55435226 0 898.43917600 0 36658.26484709 0 4540.93442855 0 -1180.69875305 0 1036
0.03250000 0.03246190 58455.17191170 0 714.24986296 0 32549.92485594 0 2960.40821811 0 -1356.67160580 0 1059
0.03350000 0.03345080 55183.41696835 0 841.29193715 0 34061.29219741 0 3502.02453838 0 1848.38501284 0 1302
0.03450000 0.03451200 54222.81609611 0 449.75673360 0 28993.23009983 0 1815.03585048 0 4515.36234358 0 1339
0.03550000 0.03553350 54816.53224413 0 -277.02323130 0 25000.77734941 0 9480.82853325 0 6529.87803213 0 1365
0.03650000 0.03647120 54624.74160686 0 841.12716856 0 22443.67869820 0 6508.44713103 0 8257.67440717 0 1308
0.03750000 0.03744890 52373.78299349 0 1837.65308542 0 15053.14841975 0 2600.11423744 0 5787.67243196 0 1579
0.03850000 0.03847530 52690.68791246 0 1103.31243922 0 17630.89806741 0 -257.84526603 0 10672.51185888 0 1662
0.03950000 0.03950240 46674.43750966 0 2088.18921686 0 13867.91303822 0 2548.95908293 0 9616.59785035 0 1683
0.04050000 0.04050350 44767.18617236 0 2247.21287412 0 15620.17205640 0 334.32535263 0 9305.54770857 0 1822
0.04150000 0.04152450 43042.38858564 0 -627.73207393 0 11874.87218906 0 3111.13852307 0 5962.57978117 0 1887
0.04250000 0.04250150 42831.70448353 0 1473.70124209 0 14196.79114131 0 348.38231016 0 3749.62778893 0 1920
0.04350000 0.04349210 40288.00701087 0 2390.55056173 0 10540.76289534 0 -3361.15837959 0 3631.34591138 0 2005
0.04450000 0.04448520 38546.95225672 0 732.52379790 0 16997.74730382 0 -2272.78495909 0 -1444.82280077 0 2151
0.04550000 0.04548030 37462.88478867 0 845.23210333 0 15314.36155573 0 -51.72360614 0 -4604.57904208 0 2274
0.04650000 0.04648670 37921.49069394 0 97.30387038 0 18188.58481737 0 84.67007407 0 -778.81058985 0 2311
0.04750000 0.04749250 38639.88174076 0 -1047.11756280 0 13866.26535233 0 1169.32972043 0 -6529.91098585 0 2568
0.04850000 0.04851840 38224.44520574 0 -468.20971708 0 14538.74088576 0 -515.26103527 0 -3813.52504764 0 2493
0.04950000 0.04949480 38198.19207727 0 1023.64023583 0 13921.07836951 0 3279.92746535 0 -1841.48670125 0 2644
0.05050000 0.05050630 38718.09189754 0 -88.73436592 0 15021.95223362 0 582.94247923 0 401.25764874 0 2829
0.05150000 0.05149060 38097.46354670 0 839.74860470 0 11998.88801350 0 2234.95409112 0 -4656.00881091 0 2784
0.05250000 0.05249300 36880.81228759 0 1328.22156282 0 15259.65838428 0 -751.48646555 0 -1765.49542814 0 3055
0.05350000 0.05348950 36392.10865344 0 512.53686127 0 13453.68480618 0 -1441.30773754 0 3056.89670366 0 3009
0.05450000 0.05448610 34110.17354539 0 -323.73842157 0 12537.68129862 0 1785.36651994 0 -1357.19886529 0 3336
0.05550000 0.05550870 35652.18784436 0 318.62290612 0 10938.29457706 0 3991.35429316 0 -412.98148305 0 3349
0.05650000 0.05647670 34909.63073786 0 363.89692047 0 10611.95391024 0 -148.85523842 0 -501.70607271 0 3324
0.05750000 0.05747970 34933.57710609 0 -219.11036774 0 7881.21113566 0 1164.35370905 0 444.47974493 0 3639
0.05850000 0.05849280 34217.60266524 0 403.36998205 0 10258.32756513 0 799.87131086 0 2286.62552054 0 3846
0.05950000 0.05951020 34133.68053072 0 -227.12800726 0 7710.22527886 0 445.55074076 0 2703.75367974 0 3787
0.06050000 0.06049470 33957.92736942 0 174.29550852 0 9642.21387361 0 -119.06178221 0 -1993.34841719 0 3930
0.06150000 0.06148310 33358.82878083 0 1794.40682317 0 11072.66885345 0 -2518.68560089 0 -518.49599190 0 4083
0.06250000 0.06249100 31673.35596395 0 2077.52319688 0 12765.50133396 0 -2154.53603525 0 45.41011321 0 4303
0.06350000 0.06350600 31172.02007134 0 -713.21291931 0 15258.77961847 0 -803.14581194 0 1521.30837965 0 4470
0.06450000 0.06451750 31122.47964899 0 -464.97366200 0 12992.88198639 0 2169.62883798 0 -2902.18998343 0 4479
0.06550000 0.06550280 31810.99265839 0 10.66796425 0 14310.04208462 0 2218.62003169 0 -1556.95331768 0 4636
0.06650000 0.06648880 30985.83156608 0 440.63404607 0 12165.19444239 0 -1735.73822101 0 -1402.69696492 0 4653
0.06750000 0.06749660 31121.38119174 0 894.45726844 0 13279.24979359 0 176.58139807 0 977.64453506 0 5220
0.06850000 0.06852730 30051.81335949 0 -289.27981739 0 11773.81412131 0 2564.19468510 0 -1026.03816802 0 5029
0.06950000 0.06949320 30826.33557220 0 -382.57838306 0 11330.47677193 0 2017.08607854 0 -1680.87028097 0 5040
0.07050000 0.07048030 30648.16580493 0 257.08403515 0 9840.60623900 0 638.81880304 0 -1630.69275342 0 5475
0.07150000 0.07148790 30080.15355675 0 1108.69487978 0 9254.01907859 0 -1318.32446292 0 170.38609914 0 5509
0.07250000 0.07249820 28555.38503673 0 750.73182541 0 9668.00565003 0 -560.16157416 0 -1043.21694108 0 5916
0.07350000 0.07351270 28394.24135697 0 231.57126687 0 10470.07717078 0 -955.70834361 0 -2614.30630521 0 5721
0.07450000 0.07449140 26749.85084154 0 949.72285001 0 11594.21635961 0 193.36143115 0 -3021.38358051 0 6028
0.07550000 0.07549160 26372.97015627 0 880.70348511 0 11263.25118773 0 -235.22034189 0 -2643.44837627 0 6183
0.07650000 0.07648840 26385.05318611 0 -280.74260758 0 10479.41405747 0 2248.38822338 0 -968.79975721 0 6330
0.07750000 0.07749960 25732.13019188 0 -106.32506046 0 9458.70560407 0 2265.31544973 0 -1182.89566757 0 6583
0.07850000 0.07848650 26138.22984021 0 -267.96205738 0 7833.14264605 0 1013.27079931 0 -1635.52596535 0 6549
0.07950000 0.07947320 25113.47906410 0 1162.93669919 0 8195.09529717 0 -440.18258014 0 -1151.67751229 0 6828
0.08050000 0.08048110 24441.55275930 0 602.13362599 0 8001.61303573 0 229.71597256 0 1796.92229029 0 7147
0.08150000 0.08149960 23899.90348531 0 -366.58045156 0 8237.46279362 0 935.30120467 0 -350.65501823 0 7386
0.08250000 0.08250610 24382.34591308 0 -227.19830853 0 6972.19381627 0 860.54240060 0 -1046.71882282 0 7227
0.08350000 0.08350160 23807.96261280 0 385.72216774 0 7434.00721673 0 -1641.95194031 0 -1176.48067718 0 7798
0.08450000 0.08449610 23285.09695793 0 791.29785196 0 7031.91693739 0 -735.14471692 0 -703.96061382 0 7371
0.08550000 0.08548940 23333.97830592 0 396.92753023 0 7894.35966904 0 328.25857319 0 -1638.16226277 0 8256
0.08650000 0.08650700 22564.50899660 0 434.62328795 0 8513.58199460 0 -258.60210308 0 -2533.04243726 0 8037
0.08750000 0.08749060 22046.69624511 0 572.75648508 0 8616.37562481 0 438.69966284 0 -582.35260769 0 8155
0.08850000 0.08849210 21401.90183459 0 436.62467708 0 9224.63534693 0 47.46862211 0 -774.56944637 0 8718
0.08950000 0.08949900 20177.01214604 0 522.52952695 0 8132.99950837 0 562.13110802 0 -509.07122862 0 8571
0.09050000 0.09049190 20073.20793515 0 -200.83753125 0 8124.73910979 0 1564.66448763 0 1792.60535327 0 8932
0.09150000 0.09150830 20066.72703732 0 -84.14270474 0 6946.07250267 0 1605.05476101 0 915.61794906 0 9285
0.09250000 0.09250820 20023.99704998 0 522.19669440 0 6850.61656694 0 146.74400357 0 1596.79436243 0 9204
0.09350000 0.09350330 19463.12477398 0 856.44515502 0 6290.40336529 0 -569.88511781 0 731.35613784 0 9349
0.09450000 0.09448040 18318.09292810 0 196.42502844 0 6896.55404947 0 -305.16350934 0 1953.35358842 0 9564
0.09550000 0.09549270 18195.28540664 0 41.10306230 0 6720.47135099 0 403.93019525 0 1077.87546449 0 10155
0.09650000 0.09649430 18179.57746785 0 -178.85630306 0 5626.90222766 0 834.98789094 0 1642.19360091 0 9913
0.09750000 0.09749140 18243.17814309 0 218.40845355 0 6420.40578179 0 124.88909796 0 -1036.59104690 0 10476
0.09850000 0.09850240 17938.79563687 0 567.00386442 0 5549.07653092 0 -493.20071816 0 410.52093880 0 10575
0.09950000 0.09950330 17187.78040948 0 165.70447430 0 6164.81674696 0 -58.76186118 0 959.49143041 0 10882
0.10050000 0.10051200 17083.20727850 0 -312.56930817 0 5990.91997843 0 760.04893988 0 306.21363448 0 10875
0.10150000 0.10150300 17549.17284741 0 225.12332277 0 5125.75307278 0 948.70348168 0 -399.60996285 0 11118
0.10250000 0.10250800 17593.66036636 0 305.63145213 0 5438.09939413 0 -390.82120633 0 115.88284690 0 11575
0.10350000 0.10349800 16507.72552097 0 312.13651601 0 5179.96193847 0 -138.49129419 0 514.15379036 0 11364
0.10450000 0.10450100 16728.51542985 0 119.74392417 0 5440.46107723 0 66.15151269 0 -159.26861323 0 12093
0.10550000 0.10551000 16388.54290846 0 229.98289768 0 5566.19049500 0 -87.33053755 0 -471.50508885 0 12067
0.10650000 0.10649700 15894.34698803 0 342.85377478 0 5894.65118433 0 368.89050717 0 906.54249519 0 12054
0.10750000 0.10749900 15770.66070076 0 45.73745347 0 5018.13721520 0 105.05908847 0 -80.20023179 0 12807
0.10850000 0.10850100 15538.88621929 0 378.08459442 0 5426.96103753 0 39.16615261 0 70.14012084 0 12736
0.10950000 0.10950300 14824.12008143 0 324.44582805 0 5586.67672286 0 67.70539033 0 458.52571789 0 12933
0.11050000 0.11050200 14736.57303795 0 75.03297901 0 5059.39526981 0 450.30815914 0 500.14077112 0 13428
0.11150000 0.11150900 14827.74499038 0 11.48272295 0 5624.48562169 0 194.99593555 0 -22.67281688 0 13453
0.11250000 0.11250000 14390.88853882 0 71.66950288 0 4465.76699837 0 282.65282475 0 465.69864379 0 13668
0.11350000 0.11349100 14331.68169260 0 -90.82473009 0 4425.00324952 0 721.10643316 0 292.40163291 0 13791
0.11450000 0.11448600 14680.33202634 0 -91.77994852 0 3805.35252564 0 674.33082774 0 192.94072202 0 14205
0.11550000 0.11549300 14328.27647510 0 573.92304669 0 4216.61492308 0 -506.06145574 0 734.10447790 0 14776
0.11650000 0.11649800 13839.68268669 0 266.36490052 0 4059.63439632 0 -446.99411360 0 374.18726807 0 14553
0.11750000 0.11747300 13721.37883998 0 -52.56096011 0 4437.89913773 0 515.95965409 0 856.62310510 0 14568
0.11850000 0.11849100 13808.48650055 0 -72.87703695 0 4035.73196639 0 333.31587041 0 282.30571226 0 16015
0.11950000 0.11950300 13860.22383741 0 94.54081099 0 3966.26552938 0 -273.40271618 0 629.46543949 0 15270
0.12050000 0.12050700 13736.64739587 0 164.52033738 0 4240.12190841 0 -195.77144637 0 74.50264384 0 15999
0.12150000 0.12150000 13583.96183699 0 85.85882451 0 4282.80795746 0 232.80044055 0 522.75031686 0 15670
0.12250000 0.12250700 13536.06910054 0 83.06160311 0 4489.97699634 0 -102.66214488 0 101.54721077 0 16887
0.12350000 0.12352200 13255.08373391 0 187.74392073 0 4308.42398072 0 253.79195875 0 732.80170759 0 16407
0.12450000 0.12449800 13405.90191545 0 86.78328614 0 4696.12446998 0 -57.24807723 0 303.13356033 0 16306
0.12550000 0.12549900 13084.38347599 0 240.33805425 0 4324.04404293 0 -389.51294373 0 85.76106182 0 17523
0.12650000 0.12650100 13128.65130350 0 71.73969430 0 4914.81632550 0 153.53356788 0 -236.22982411 0 17154
0.12750000 0.12750600 13003.09763889 0 -160.05181325 0 4435.43859348 0 -226.88744512 0 -197.68386046 0 18007
0.12850000 0.12850300 12647.30733298 0 259.06235667 0 4722.69615105 0 337.66795807 0 -224.49390676 0 17496
0.12950000 0.12949900 12737.05129097 0 25.61097036 0 4165.94308976 0 -17.14889502 0 -3.14120330 0 18405
0.13050000 0.13049000 12733.42638202 0 4.09055597 0 3864.95481646 0 1039.85785878 0 128.75566751 0 18100
0.13150000 0.13148800 12732.76730766 0 228.81633607 0 3713.03817766 0 459.70106716 0 100.48599121 0 19059
0.13250000 0.13249300 12618.30806137 0 127.93951377 0 3817.63327778 0 15.14234315 0 557.41543101 0 18957
0.13350000 0.13349100 12299.09638215 0 28.31965611 0 3299.83151087 0 254.65205078 0 951.84177406 0 19468
0.13450000 0.13450700 12134.54748488 0 56.82901579 0 3662.97049584 0 -237.91485754 0 556.05334401 0 19953
0.13550000 0.13551000 12027.77743939 0 319.18531624 0 3376.72351894 0 -128.23170340 0 637.44792838 0 19956
0.13650000 0.13649900 11713.61866357 0 180.18653480 0 4181.40936796 0 -231.08904414 0 96.42169935 0 19723
0.13750000 0.13749600 11471.95806678 0 84.33196892 0 3649.59128643 0 306.37400924 0 1066.07803354 0 20946
0.13850000 0.13851100 11577.30011783 0 77.97541646 0 3928.92896718 0 140.57396915 0 530.99533704 0 20955
0.13950000 0.13949800 11354.42314016 0 74.35841640 0 3472.01468608 0 291.46355042 0 555.58649968 0 20506
0.14050000 0.14048300 11354.53298588 0 187.60002283 0 3862.60411793 0 -114.21099496 0 666.71632203 0 21447
0.14150000 0.14148400 11008.29925812 0 147.98526027 0 3833.57189260 0 60.54707391 0 1047.40645706 0 21771
0.14250000 0.14249400 11192.73023176 0 -26.14306305 0 3684.59911925 0 348.01981927 0 706.32669075 0 22470
0.14350000 0.14350900 10996.76545691 0 -41.14172799 0 3475.93617850 0 -141.85147494 0 638.37063248 0 22519
0.14450000 0.14449900 11066.29780135 0 204.74254680 0 3167.73104101 0 75.49202429 0 286.88078674 0 22218
0.14550000 0.14550500 10759.22407484 0 77.90247890 0 3245.29310800 0 -72.92745613 0 607.25243681 0 23559
0.14650000 0.14650700 10710.25485027 0 162.56618192 0 3261.36353769 0 493.41931115 0 487.89516960 0 23044
0.14750000 0.14750500 10686.03386773 0 41.12711851 0 3102.17511184 0 38.82760809 0 337.01437600 0 23649
0.14850000 0.14849900 10480.57842217 0 107.15186923 0 2987.44125123 0 29.97008814 0 65.29460618 0 23640
0.14950000 0.14949500 10430.43384833 0 146.04977858 0 3038.77215890 0 -290.72319022 0 -85.11209327 0 24457
0.15050000 0.15050000 10004.88052196 0 152.80968455 0 3233.27598560 0 -299.08574533 0 21.14112808 0 24591
0.15150000 0.15149900 10092.40559629 0 87.45444353 0 3214.02002987 0 511.70313221 0 84.43862912 0 25020
0.15250000 0.15250500 9639.24803902 0 120.04380300 0 3127.32978305 0 266.03316643 0 368.04469508 0 25297
0.15350000 0.15350100 9759.69387737 0 117.33500740 0 3017.98934758 0 238.82987244 0 399.43091432 0 25452
0.15450000 0.15450400 9510.60770952 0 105.64160035 0 2727.12885020 0 358.68803616 0 864.89119288 0 26061
0.15550000 0.15549900 9495.81149025 0 158.52166229 0 2856.05477858 0 -83.25416266 0 748.97758917 0 26128
0.15650000 0.15649500 9142.22908343 0 151.00821465 0 2771.95689090 0 -11.09452815 0 877.21258794 0 26331
0.15750000 0.15749700 9104.21147772 0 52.40871393 0 2913.30637088 0 -71.34007555 0 705.17440909 0 27345
0.15850000 0.15849900 8905.59942088 0 102.25253017 0 2584.31842207 0 89.81447895 0 519.90201719 0 26980
0.15950000 0.15949700 9036.84309408 0 61.72077549 0 2777.11964002 0 213.79383461 0 203.28269710 0 27777
0.16050000 0.16050000 8995.69488519 0 -85.81104162 0 2215.46745936 0 85.64374658 0 131.21181794 0 28224
0.16150000 0.16150500 8764.94196898 0 150.03717843 0 2428.12878453 0 162.81992554 0 240.18646715 0 28075
0.16250000 0.16249700 8861.48537739 0 -1.07065421 0 2242.77510680 0 96.23979483 0 458.74211397 0 28590
0.16350000 0.16349900 8685.79812353 0 138.15296936 0 2132.52295180 0 -8.79793963 0 -41.39898668 0 29163
0.16450000 0.16449100 8524.89610436 0 171.67019567 0 2324.70903368 0 -557.47035387 0 -139.59853911 0 28996
0.16550000 0.16550500 8264.86930221 0 218.41724121 0 2748.86731934 0 -335.11734031 0 -27.15891632 0 30777
0.16650000 0.16650700 8168.82019956 0 73.78985493 0 2786.99477077 0 18.68893210 0 35.21873661 0 29211
0.16750000 0.16749900 8297.38363705 0 -84.99521742 0 3025.01947403 0 232.27537798 0 -248.21728816 0 30922
0.16850000 0.16850800 8530.83875812 0 -28.03372768 0 2725.65691747 0 277.08694182 0 -331.11126669 0 30867
0.16950000 0.16949900 8458.63716255 0 -61.65387945 0 2696.72355329 0 86.09817835 0 -181.33881646 0 30852
0.17050000 0.17049200 8415.83028320 0 86.93432401 0 2383.78406502 0 90.25232401 0 66.73666087 0 31257
0.17150000 0.17149500 8389.42337071 0 73.37947130 0 2786.59932615 0 30.11310727 0 437.21454863 0 32608
0.17250000 0.17250900 8191.90977113 0 192.74080280 0 2453.09671801 0 -42.47931940 0 75.70435608 0 32361
0.17350000 0.17350400 8099.49656200 0 78.09569753 0 2476.06545928 0 380.52207108 0 948.14546539 0 32508
0.17450000 0.17449800 8042.95896692 0 -112.20081817 0 2325.37909261 0 352.15880621 0 333.10386816 0 32791
0.17550000 0.17549800 8023.13181341 0 173.67488017 0 2234.28403219 0 197.34004334 0 755.86162081 0 33633
0.17650000 0.17650100 7792.36791262 0 183.49838343 0 1884.26062689 0 79.47535985 0 944.01197073 0 33984
0.17750000 0.17750300 7791.68686912 0 -46.72298932 0 1892.58693290 0 140.77388837 0 1036.25711589 0 34069
0.17850000 0.17849800 7622.81005026 0 110.73108236 0 2002.50955072 0 -3.15869074 0 693.52087604 0 34536
