### header ###
fiducial parameters:
Omega_m = 0.31
Omega_nu = 0
Omega_de = 0.69
Omega_k = 0
H_0 = 100
w_de = -1
zeff = 0
beta = 0
fgrowth = 0
b_1 = 2
gamma = 0.55
Lx = 3500 Ly = 3500 Lz = 3500
nx = 700 ny = 700 nz = 700
xoffset = -983.599254 yoffset = -42.9823471 zoffset = 800.977702
bins = 400 dk = 0.001
kx_ny = 0.628318531 ky_ny = 0.628318531 kz_ny = 0.628318531
############################
A(data) = 9.05097101 (not used)
A(ran) = 9.05164396 (used)
Ngal = 503125
weighted Ngal = 0
Nran = 25229228
weighted Nran = 0
SN(data) = 6744.80499
SN(ran) = 134.365419
SN(data+ran) = 6879.17041
############################
13 columns: k_central k_mean P_0(k) sigma^{lin}_{P_0(k)} P^img_1(k) sigma^{lin}_{P_1(k)} P_2(k) sigma^{lin}_{P_2(k)} P^img_3(k) sigma^{lin}_{P_3(k)} P_4(k) sigma^{lin}_{P_4(k)} N_modes
### header ###
0.00050000 0 0 0 0 0 0 0 0 0 0 0 0
0.00150000 0.00179520 7488.78728019 0 -13216.52788415 0 -37875.68502628 0 44737.19828921 0 20617.16396937 0 3
0.00250000 0.00253879 29924.39231755 0 -12679.49213064 0 7858.83556131 0 -49804.27177526 0 -45874.76062574 0 6
0.00350000 0.00331552 59332.94910667 0 -24955.19137320 0 -24519.21368745 0 -23959.87925160 0 71834.82069868 0 7
0.00450000 0.00420575 44952.93529471 0 -59.63908914 0 -12460.13021620 0 -27966.28240920 0 -23052.22401921 0 24
0.00550000 0.00557378 56573.40478279 0 -14439.55019535 0 -10072.65533479 0 -4993.93820180 0 95.45582589 0 45
0.00650000 0.00659388 90612.28845213 0 -21011.61997077 0 -19626.02598536 0 -11619.92025945 0 -58454.51283734 0 40
0.00750000 0.00754703 79490.84809642 0 6276.98021759 0 18003.49476937 0 -36160.66370915 0 -10889.40224450 0 57
0.00850000 0.00846663 97202.48277231 0 26578.82104645 0 24974.63406667 0 -43765.06361577 0 -28354.14766704 0 75
0.00950000 0.00948925 63526.85891823 0 5025.52983255 0 44701.71811978 0 1152.63317011 0 14343.10564809 0 112
0.01050000 0.01054430 69517.51526692 0 -17378.36274377 0 59913.81330478 0 25979.61261213 0 -15556.90091833 0 105
0.01150000 0.01145670 69877.15017323 0 6319.51248263 0 35118.99669126 0 8625.05343715 0 -21564.25381734 0 144
0.01250000 0.01249090 80682.23483860 0 499.64756381 0 36583.89929071 0 17853.11597073 0 4975.08867525 0 169
0.01350000 0.01339930 84797.49511047 0 -7689.11293036 0 27328.07874222 0 10564.59941784 0 -2826.92369210 0 180
0.01450000 0.01448870 87809.79444945 0 6627.64072811 0 21754.06723154 0 4764.16291254 0 5270.92518401 0 267
0.01550000 0.01550050 80023.59986662 0 4090.78664416 0 29952.95220626 0 3261.71504401 0 36323.01569191 0 238
0.01650000 0.01653350 87536.38843790 0 -4276.79939626 0 28108.09324122 0 -62.33063896 0 3973.84488446 0 315
0.01750000 0.01747870 79338.05269182 0 2627.16923971 0 29566.51494285 0 206.66484700 0 4042.16892592 0 297
0.01850000 0.01844180 81573.52305785 0 2248.95942116 0 35610.66616000 0 4794.33753343 0 30686.17242606 0 388
0.01950000 0.01947590 77991.23424762 0 -5228.33799611 0 27811.50978153 0 5222.85669440 0 9501.24885368 0 399
0.02050000 0.02045430 74827.23796129 0 7463.42390210 0 40924.12360905 0 5259.25956793 0 7590.03208568 0 462
0.02150000 0.02154770 72921.08508125 0 10849.90172150 0 40853.16327018 0 -821.87011437 0 18103.01499696 0 571
0.02250000 0.02255340 77842.06375196 0 206.82192639 0 60018.71597293 0 1700.57660418 0 17923.96646388 0 510
0.02350000 0.02348930 65061.51355357 0 -2964.12100364 0 42752.83525239 0 15967.50424142 0 17383.52549288 0 555
0.02450000 0.02439640 70558.30351900 0 -1817.92479307 0 40975.86094591 0 11547.42208041 0 29597.38159180 0 592
0.02550000 0.02547300 70527.87625295 0 -2579.97951590 0 30388.16097193 0 12560.08982669 0 25686.21467849 0 837
0.02650000 0.02652900 68930.06032527 0 3250.40093425 0 35689.64523686 0 2593.86401564 0 19892.62156191 0 723
0.02750000 0.02749970 66254.21844445 0 9664.11711134 0 35567.16725258 0 -7208.37311134 0 28325.91731551 0 826
0.02850000 0.02848090 60234.12344125 0 3202.57410524 0 38928.77599965 0 -1608.11945676 0 23018.39153566 0 831
0.02950000 0.02946900 56588.78318440 0 -2413.18976582 0 32573.32199554 0 7009.21182586 0 15597.76352833 0 996
0.03050000 0.03053250 55850.94944411 0 1756.09263401 0 36001.38740672 0 8411.59023818 0 10041.16256519 0 1041
0.03150000 0.03150510 56375.24309342 0 2123.24098797 0 28675.88579795 0 -383.71199095 0 11808.52537067 0 1036
0.03250000 0.03246190 55825.90461863 0 -2266.73245960 0 27133.87149898 0 2766.55248119 0 4513.56087367 0 1059
0.03350000 0.03345080 55458.03128288 0 569.04589646 0 23153.83131558 0 7620.99759578 0 7595.62323312 0 1302
0.03450000 0.03451200 55091.58594157 0 -2.38754079 0 17613.76213418 0 -2329.81685993 0 1931.28558211 0 1339
0.03550000 0.03553350 51107.81100349 0 3464.06185553 0 19962.70313498 0 -1507.91818568 0 952.81940102 0 1365
0.03650000 0.03647120 50596.03976693 0 3410.28138818 0 22353.38551158 0 -1763.93561883 0 2451.64675443 0 1308
0.03750000 0.03744890 45887.39288421 0 -326.77785281 0 24482.19567785 0 4411.26154922 0 1932.84539141 0 1579
0.03850000 0.03847530 46098.95575212 0 1551.63678455 0 22763.87898895 0 3110.02908124 0 -2337.91248992 0 1662
0.03950000 0.03950240 45967.47041832 0 -97.98370557 0 19565.39114471 0 665.51900361 0 1441.59333643 0 1683
0.04050000 0.04050350 46215.83160439 0 326.86463093 0 18308.31665850 0 2357.08056908 0 1032.31585125 0 1822
0.04150000 0.04152450 44653.82538332 0 234.61399348 0 18821.40604378 0 292.19182758 0 975.98366768 0 1887
0.04250000 0.04250150 46335.01421690 0 1149.18401431 0 18901.26388644 0 215.98635530 0 477.90360238 0 1920
0.04350000 0.04349210 43370.71746009 0 729.21634310 0 18247.02274350 0 -3402.42741878 0 -7147.54054838 0 2005
0.04450000 0.04448520 41732.58815104 0 1189.70610257 0 18668.06141054 0 -1605.71383537 0 -2140.12427602 0 2151
0.04550000 0.04548030 41032.87087761 0 -268.44208320 0 19519.80516850 0 3786.01967789 0 -6418.50545073 0 2274
0.04650000 0.04648670 42155.93357832 0 385.56508835 0 18388.39419262 0 1951.05781275 0 -7438.30218461 0 2311
0.04750000 0.04749250 41124.37236721 0 1165.92450293 0 16738.62123663 0 561.23806227 0 -4072.07991706 0 2568
0.04850000 0.04851840 40792.63827525 0 -775.99524389 0 15639.94428704 0 3913.18807467 0 -3643.42894122 0 2493
0.04950000 0.04949480 40598.43103202 0 -844.51810611 0 12516.92045644 0 656.63468131 0 -1919.12566026 0 2644
0.05050000 0.05050630 39893.00178084 0 2106.36868448 0 15672.78815906 0 1108.31041974 0 -2453.06376429 0 2829
0.05150000 0.05149060 38089.33496299 0 1215.59674014 0 12833.49583823 0 -1209.93968526 0 3722.79247812 0 2784
0.05250000 0.05249300 37083.25796026 0 1385.31937110 0 18473.52463013 0 739.64509631 0 -530.13854038 0 3055
0.05350000 0.05348950 36121.22909359 0 1166.81425331 0 15521.31090316 0 -7.49286256 0 2806.70109398 0 3009
0.05450000 0.05448610 34969.82619561 0 544.47999834 0 17970.21151445 0 378.41193468 0 1210.59875962 0 3336
0.05550000 0.05550870 34366.77316089 0 -70.35355109 0 17366.27971393 0 1707.23325516 0 4542.30750012 0 3349
0.05650000 0.05647670 33418.69470140 0 177.20312488 0 17843.22985541 0 1196.60441415 0 5323.07993463 0 3324
0.05750000 0.05747970 33893.55777409 0 -127.33975611 0 15774.83483834 0 2986.54051628 0 5522.18629724 0 3639
0.05850000 0.05849280 34013.61915240 0 68.45761386 0 13645.36559772 0 4027.40566037 0 6979.38871131 0 3846
0.05950000 0.05951020 33848.52102651 0 356.26154407 0 13529.36851126 0 392.35575112 0 7488.35888186 0 3787
0.06050000 0.06049470 33470.21234680 0 181.87596206 0 9946.12404322 0 1540.33365936 0 8153.70542769 0 3930
0.06150000 0.06148310 32146.46150503 0 -31.16444072 0 11495.57489783 0 705.82469579 0 6112.91464152 0 4083
0.06250000 0.06249100 32389.22055907 0 720.31115011 0 10920.59843063 0 -513.36290113 0 6087.78193945 0 4303
0.06350000 0.06350600 31539.12448700 0 923.04461858 0 9993.07210643 0 -1841.13519493 0 3135.77691937 0 4470
0.06450000 0.06451750 30229.54374386 0 449.19102811 0 11086.39956917 0 -519.77898998 0 1966.05175433 0 4479
0.06550000 0.06550280 29781.92241117 0 739.39354960 0 11257.97859289 0 511.31537680 0 1298.11284937 0 4636
0.06650000 0.06648880 29433.16223171 0 -513.84951770 0 10586.67840873 0 660.61658887 0 1391.08627170 0 4653
0.06750000 0.06749660 29324.96419178 0 730.18847777 0 10517.51953976 0 1784.72941473 0 558.46116232 0 5220
0.06850000 0.06852730 28645.89791480 0 819.67979059 0 10246.92557879 0 -1214.68502062 0 1685.52773974 0 5029
0.06950000 0.06949320 27516.46416199 0 501.51713806 0 9623.26548591 0 808.69521801 0 941.79308706 0 5040
0.07050000 0.07048030 27077.85017882 0 895.76003875 0 13160.28687253 0 -1125.02893921 0 -59.45883231 0 5475
0.07150000 0.07148790 25659.41232139 0 935.51979766 0 10689.58188467 0 83.40069686 0 3540.40463497 0 5509
0.07250000 0.07249820 25987.41165867 0 -464.63423870 0 11557.96727009 0 2205.13097656 0 2966.04330384 0 5916
0.07350000 0.07351270 25841.09715188 0 -505.71324479 0 9494.54826440 0 2536.07417929 0 3318.18673165 0 5721
0.07450000 0.07449140 26290.69570764 0 171.07812721 0 9183.17957001 0 1588.88547017 0 3096.54002611 0 6028
0.07550000 0.07549160 26369.78463022 0 212.93264412 0 7837.31678363 0 11.73295151 0 4621.78088275 0 6183
0.07650000 0.07648840 25138.52388958 0 42.23194682 0 7931.01518775 0 -176.70881912 0 3419.72812060 0 6330
0.07750000 0.07749960 24633.34339657 0 660.69567779 0 8925.82201900 0 -41.93360583 0 4025.58222132 0 6583
0.07850000 0.07848650 24788.66525287 0 911.20984008 0 8561.52965392 0 -1221.29773331 0 2434.46688291 0 6549
0.07950000 0.07947320 23092.31770913 0 668.21571618 0 8630.58966173 0 -264.91383849 0 2071.93204944 0 6828
0.08050000 0.08048110 23547.40855117 0 109.32033371 0 10063.30746352 0 308.54236387 0 528.01522250 0 7147
0.08150000 0.08149960 22643.92745636 0 -68.16399623 0 8945.61621879 0 365.03602065 0 1434.71699399 0 7386
0.08250000 0.08250610 22751.35657620 0 97.37362241 0 9051.03516186 0 1506.98449701 0 813.25820946 0 7227
0.08350000 0.08350160 22843.84667734 0 523.47749556 0 7971.03198566 0 66.18743224 0 1824.14206115 0 7798
0.08450000 0.08449610 22231.01737303 0 134.86418832 0 8241.25247116 0 677.38453892 0 1826.73442028 0 7371
0.08550000 0.08548940 21946.40709744 0 131.39745722 0 8159.15377569 0 326.49225392 0 2446.56089732 0 8256
0.08650000 0.08650700 21440.23799289 0 424.60206239 0 7935.87036883 0 -705.26338413 0 1379.62936250 0 8037
0.08750000 0.08749060 21032.38081295 0 228.63838599 0 7775.06721081 0 604.04384316 0 3129.68048159 0 8155
0.08850000 0.08849210 20486.44755566 0 231.87334262 0 8186.01105565 0 145.86853314 0 1192.25452341 0 8718
0.08950000 0.08949900 20369.02247476 0 326.23851029 0 7978.23786527 0 128.55025600 0 1579.50464519 0 8571
0.09050000 0.09049190 20542.13933864 0 545.08414983 0 8335.41222733 0 -24.07631572 0 262.50272481 0 8932
0.09150000 0.09150830 19048.23746758 0 296.25611943 0 7217.55621402 0 -105.68520910 0 2044.21797282 0 9285
0.09250000 0.09250820 19488.16959946 0 134.86308987 0 8351.80120962 0 1435.16736147 0 1082.15944780 0 9204
0.09350000 0.09350330 18923.23303161 0 7.86884251 0 7826.39811848 0 -90.12545220 0 726.30213599 0 9349
0.09450000 0.09448040 18733.30977167 0 723.91738529 0 7508.10914336 0 -600.40355581 0 1040.65533875 0 9564
0.09550000 0.09549270 17980.31732122 0 249.77270364 0 7845.34650618 0 -408.84249611 0 1336.55885341 0 10155
0.09650000 0.09649430 17936.37903090 0 37.31206661 0 8071.26621046 0 1276.15468878 0 1549.27510145 0 9913
0.09750000 0.09749140 18277.88939245 0 98.67265797 0 8444.26934161 0 505.12117632 0 876.70290378 0 10476
0.09850000 0.09850240 17579.27057628 0 -255.85925531 0 6952.12500216 0 135.29478357 0 1792.55043040 0 10575
0.09950000 0.09950330 17552.02883628 0 387.08425474 0 7081.92969635 0 822.19196234 0 924.28587528 0 10882
0.10050000 0.10051200 17166.58018440 0 438.78314559 0 7274.93962118 0 -585.45465098 0 2248.02573249 0 10875
0.10150000 0.10150300 17082.43835842 0 240.67418217 0 7282.50799169 0 699.14497720 0 1682.94636519 0 11118
0.10250000 0.10250800 16587.80305509 0 106.98094928 0 6960.72592249 0 158.85119947 0 916.53516087 0 11575
0.10350000 0.10349800 15696.84437301 0 571.33617984 0 6936.12047991 0 -189.53660298 0 1763.94660340 0 11364
0.10450000 0.10450100 15851.06777206 0 223.97873031 0 6740.32047365 0 144.49546156 0 1346.04952412 0 12093
0.10550000 0.10551000 15582.93435535 0 -156.83992423 0 6383.46466420 0 680.41847786 0 25.13533836 0 12067
0.10650000 0.10649700 15657.19006600 0 112.81265887 0 5956.52728168 0 639.23072451 0 354.06133419 0 12054
0.10750000 0.10749900 15601.16874583 0 -133.87557679 0 5479.37941789 0 205.62131261 0 1780.25869369 0 12807
0.10850000 0.10850100 15161.23661395 0 134.10185899 0 5252.66882438 0 -14.73833057 0 821.99643695 0 12736
0.10950000 0.10950300 15403.44643937 0 264.26794562 0 5079.84854396 0 581.25305197 0 1043.82988023 0 12933
0.11050000 0.11050200 15069.18589572 0 177.42281633 0 5524.08662829 0 -276.62998360 0 1154.70925432 0 13428
0.11150000 0.11150900 14829.83205917 0 287.60686698 0 5574.59369302 0 168.37921773 0 1391.75633063 0 13453
0.11250000 0.11250000 14930.01136111 0 204.34929910 0 5720.33700203 0 -418.00912192 0 452.74343888 0 13668
0.11350000 0.11349100 14490.29892068 0 -131.86320310 0 5342.92905728 0 260.75947314 0 830.51607144 0 13791
0.11450000 0.11448600 14284.33818478 0 230.39921298 0 6195.28795130 0 428.17534385 0 1418.82231747 0 14205
0.11550000 0.11549300 14185.91641445 0 -40.74408646 0 5200.72278065 0 195.62425310 0 1191.41969589 0 14776
0.11650000 0.11649800 14404.07002592 0 5.77551251 0 5183.11451080 0 427.34051633 0 653.88084896 0 14553
0.11750000 0.11747300 14227.65779026 0 260.28164423 0 4682.13012451 0 350.64732903 0 1011.53633530 0 14568
0.11850000 0.11849100 14004.89065831 0 -130.41433797 0 4514.76917666 0 664.27774691 0 1736.85864742 0 16015
0.11950000 0.11950300 14339.37089341 0 78.87109851 0 4274.26195999 0 -446.11644625 0 1159.85003429 0 15270
0.12050000 0.12050700 13851.65587080 0 267.46665315 0 4306.62251081 0 -180.31066047 0 -37.45201006 0 15999
0.12150000 0.12150000 13683.92144748 0 300.05568309 0 4443.52323890 0 -26.12669604 0 1386.19813690 0 15670
0.12250000 0.12250700 13467.52536763 0 216.09729948 0 4405.75827836 0 -158.36897673 0 -142.83020036 0 16887
0.12350000 0.12352200 13069.22476583 0 -50.30264183 0 4913.10273218 0 -246.77281687 0 450.11592912 0 16407
0.12450000 0.12449800 13068.56569148 0 155.70082405 0 4594.06680612 0 494.04103796 0 -550.43912897 0 16306
0.12550000 0.12549900 13282.76485681 0 85.02256900 0 4495.78783524 0 127.91424925 0 -271.74404572 0 17523
0.12650000 0.12650100 13142.49186495 0 2.35942028 0 4342.91553862 0 20.40889647 0 -271.08497136 0 17154
0.12750000 0.12750600 12899.07373655 0 142.00635742 0 4297.23070126 0 -3.91415472 0 -73.45614361 0 18007
0.12850000 0.12850300 12827.89370622 0 29.84662154 0 3869.18387691 0 263.32656775 0 179.80866550 0 17496
0.12950000 0.12949900 12958.39042848 0 42.35947771 0 4084.67922181 0 625.50550107 0 -124.73970778 0 18405
0.13050000 0.13049000 12805.48517815 0 153.31167952 0 3693.05724014 0 116.74184048 0 179.17705258 0 18100
0.13150000 0.13148800 12241.53722183 0 205.98050813 0 4118.53367450 0 140.80574363 0 411.09103811 0 19059
0.13250000 0.13249300 12238.57138723 0 128.68207088 0 3445.01460668 0 -41.42249367 0 1303.19870648 0 18957
0.13350000 0.13349100 12165.41413384 0 -100.05737319 0 3988.81685689 0 586.97491583 0 1022.91854941 0 19468
0.13450000 0.13450700 12254.71870892 0 100.31781740 0 3195.14853417 0 292.98051989 0 857.93466306 0 19953
0.13550000 0.13551000 12108.84358504 0 143.95502059 0 3510.10918380 0 -87.57944796 0 1032.01157859 0 19956
0.13650000 0.13649900 11917.27263923 0 257.35425564 0 3477.34220379 0 -68.63204887 0 748.85895579 0 19723
0.13750000 0.13749600 11939.79101302 0 137.62351296 0 3885.81451980 0 -318.93267107 0 1215.37704869 0 20946
0.13850000 0.13851100 11560.93310469 0 -94.03178590 0 3626.78731375 0 -24.48252522 0 433.85766325 0 20955
0.13950000 0.13949800 11478.32911887 0 230.99457681 0 3899.45735894 0 -157.26722410 0 381.19762229 0 20506
0.14050000 0.14048300 11366.28647854 0 246.29498796 0 3692.59588809 0 138.96472927 0 604.88196605 0 21447
0.14150000 0.14148400 11330.69646338 0 -58.57281668 0 4005.72211409 0 151.90894960 0 666.38019410 0 21771
0.14250000 0.14249400 11288.62555039 0 88.58058191 0 3789.58966398 0 441.94230867 0 166.71944881 0 22470
0.14350000 0.14350900 11148.24271281 0 238.13125362 0 3807.70322417 0 -194.42034395 0 210.74781263 0 22519
0.14450000 0.14449900 10816.69535858 0 160.04961634 0 3875.98332734 0 -483.35304884 0 812.41898812 0 22218
0.14550000 0.14550500 10577.49530605 0 244.94168862 0 4125.35509408 0 -24.12519707 0 234.53710147 0 23559
0.14650000 0.14650700 10449.19549830 0 117.59204640 0 4005.04107059 0 181.62880918 0 -9.94794748 0 23044
0.14750000 0.14750500 10281.98833447 0 141.89101940 0 3973.30664041 0 138.02005603 0 99.29372570 0 23649
0.14850000 0.14849900 10125.91952723 0 -58.69419621 0 3791.32522645 0 279.58373517 0 142.95212912 0 23640
0.14950000 0.14949500 10066.54791243 0 76.58839448 0 3635.91549357 0 419.78752423 0 175.68066312 0 24457
0.15050000 0.15050000 9912.48928198 0 212.00225082 0 3161.39294263 0 41.59923544 0 -132.57610186 0 24591
0.15150000 0.15149900 9796.98650128 0 65.56965988 0 3062.44391282 0 -65.16949190 0 -139.20638987 0 25020
0.15250000 0.15250500 9666.88522363 0 21.09488303 0 3360.87278071 0 28.45300882 0 -44.76004620 0 25297
0.15350000 0.15350100 9480.92739440 0 177.72159671 0 2711.95915546 0 111.96025604 0 -340.91280081 0 25452
0.15450000 0.15450400 9436.41790630 0 44.17599648 0 2952.77394016 0 203.94506683 0 -100.52311906 0 26061
0.15550000 0.15549900 9300.34102116 0 124.42664746 0 2629.88242913 0 494.75393672 0 -27.00634061 0 26128
0.15650000 0.15649500 9319.65189976 0 142.69289320 0 2780.45895008 0 -159.57068897 0 384.23705352 0 26331
0.15750000 0.15749700 9075.71749645 0 -25.37216575 0 2689.22109022 0 78.98995159 0 540.91989837 0 27345
0.15850000 0.15849900 9016.38981994 0 155.70082405 0 2577.60684822 0 110.83214043 0 -245.10975258 0 26980
0.15950000 0.15949700 8841.98776106 0 125.49434791 0 2748.81239647 0 -156.47963025 0 312.78570425 0 27777
0.16050000 0.16050000 8720.64118776 0 223.94577659 0 2687.43060489 0 11.10408473 0 493.31056388 0 28224
0.16150000 0.16150500 8454.90240787 0 31.61480819 0 2980.92739969 0 349.51481959 0 787.03254242 0 28075
0.16250000 0.16249700 8516.87736637 0 -131.01409563 0 2429.85336243 0 489.02877749 0 720.52534927 0 28590
0.16350000 0.16349900 8488.50421539 0 172.11726778 0 2689.12222907 0 128.28003552 0 733.40256371 0 29163
0.16450000 0.16449100 8430.37385729 0 178.02806628 0 2232.71323831 0 -105.04063438 0 1196.18700039 0 28996
0.16550000 0.16550500 8318.55090842 0 -25.81253726 0 2391.13274408 0 56.50782688 0 1224.74688910 0 30777
0.16650000 0.16650700 8301.28316032 0 -147.43383473 0 1979.45293288 0 328.17289353 0 857.16025070 0 29211
0.16750000 0.16749900 8328.53588489 0 -18.83788290 0 2018.90951759 0 229.60392992 0 864.76926412 0 30922
0.16850000 0.16850800 8389.87373819 0 115.46872852 0 1718.42653463 0 -205.64547867 0 899.02025989 0 30867
0.16950000 0.16949900 8302.51343245 0 200.93199857 0 2175.56050717 0 -287.83205072 0 373.43702176 0 30852
0.17050000 0.17049200 8173.76325722 0 222.22998635 0 2092.57206132 0 -182.76241707 0 289.02717222 0 31257
0.17150000 0.17149500 8046.61682959 0 -6.64663305 0 2365.29702937 0 -60.51203313 0 121.39820080 0 32608
0.17250000 0.17250900 7962.24432759 0 -18.11586695 0 2184.13945836 0 196.11746041 0 210.12279045 0 32361
0.17350000 0.17350400 7961.15685491 0 16.33394958 0 2090.46302338 0 198.08150199 0 19.40435731 0 32508
0.17450000 0.17449800 7896.30393839 0 97.41371610 0 2003.92656059 0 -112.93898145 0 30.84940317 0 32791
0.17550000 0.17549800 7847.25782181 0 126.76196759 0 1999.03842579 0 161.59185033 0 176.68245614 0 33633
0.17650000 0.17650100 7656.64253381 0 119.57366329 0 2124.52618296 0 -215.38110535 0 206.24743324 0 33984
0.17750000 0.17750300 7518.99485479 0 86.34511154 0 2171.73787591 0 163.45263692 0 254.55538654 0 34069
0.17850000 0.17849800 7582.22205457 0 -70.11617447 0 1908.27290255 0 332.62384234 0 68.48738205 0 34536
