### header ###
fiducial parameters:
Omega_m = 0.31
Omega_nu = 0
Omega_de = 0.69
Omega_k = 0
H_0 = 100
w_de = -1
zeff = 0
beta = 0
fgrowth = 0
b_1 = 2
gamma = 0.55
Lx = 3500 Ly = 3500 Lz = 3500
nx = 700 ny = 700 nz = 700
xoffset = -983.599254 yoffset = -42.9823471 zoffset = 800.977702
bins = 400 dk = 0.001
kx_ny = 0.628318531 ky_ny = 0.628318531 kz_ny = 0.628318531
############################
A(data) = 9.10011608 (not used)
A(ran) = 9.09880597 (used)
Ngal = 505577
weighted Ngal = 0
Nran = 25229228
weighted Nran = 0
SN(data) = 6727.05333
SN(ran) = 135.065506
SN(data+ran) = 6862.11884
############################
13 columns: k_central k_mean P_0(k) sigma^{lin}_{P_0(k)} P^img_1(k) sigma^{lin}_{P_1(k)} P_2(k) sigma^{lin}_{P_2(k)} P^img_3(k) sigma^{lin}_{P_3(k)} P_4(k) sigma^{lin}_{P_4(k)} N_modes
### header ###
0.00050000 0 0 0 0 0 0 0 0 0 0 0 0
0.00150000 0.00179520 16756.96547284 0 -33340.92392752 0 -52303.04234607 0 25054.49190933 0 -9180.92773263 0 3
0.00250000 0.00253879 28124.24056292 0 -12880.29011743 0 -17801.26878815 0 12576.12730265 0 16148.96938046 0 6
0.00350000 0.00331552 59302.19230345 0 -875.51327457 0 1359.00033519 0 -57301.90163638 0 62283.29545630 0 7
0.00450000 0.00420575 65801.65405410 0 14412.96752971 0 4193.59125895 0 -59524.73974394 0 10837.19257102 0 24
0.00550000 0.00557378 44252.44910120 0 -1189.29967338 0 -3936.83785944 0 23824.10993450 0 25715.98287018 0 45
0.00650000 0.00659388 56325.59282535 0 -21553.37909048 0 6996.42578338 0 32505.43733699 0 -8693.19074088 0 40
0.00750000 0.00754703 74257.13864432 0 -16427.97752403 0 -35502.02873718 0 12497.58760870 0 -7880.01381725 0 57
0.00850000 0.00846663 85501.16683003 0 7408.68777693 0 -5744.08564795 0 -19816.71816537 0 -1984.85734259 0 75
0.00950000 0.00948925 86596.54840784 0 -5336.15157600 0 -11381.00580580 0 -18168.15351236 0 -3409.39163780 0 112
0.01050000 0.01054430 81932.38904408 0 277.10671405 0 5565.66323551 0 -866.94420950 0 16967.42988350 0 105
0.01150000 0.01145670 79997.45658387 0 1556.67870337 0 1592.69711686 0 -9238.10243292 0 -10086.23226650 0 144
0.01250000 0.01249090 82099.13485586 0 7165.87380002 0 20131.31632410 0 4008.29250408 0 11647.05215372 0 169
0.01350000 0.01339930 74648.07958249 0 625.21221298 0 23150.31625236 0 721.07567636 0 10612.38230857 0 180
0.01450000 0.01448870 82633.75400340 0 -3848.00562097 0 30924.31795963 0 3221.44560093 0 12038.43247480 0 267
0.01550000 0.01550050 81184.33965129 0 4878.19376051 0 6139.96964379 0 9593.24464905 0 17196.45822182 0 238
0.01650000 0.01653350 82039.59847247 0 -1001.31189514 0 27116.62572003 0 -9105.74931789 0 17891.89151194 0 315
0.01750000 0.01747870 74299.31940303 0 -3766.25843182 0 19348.11629905 0 13572.53788151 0 21354.11894386 0 297
0.01850000 0.01844180 86286.01454097 0 8046.99030506 0 29054.41416910 0 -11475.80266718 0 -21518.88753258 0 388
0.01950000 0.01947590 77818.55676664 0 5274.90159929 0 33713.63047521 0 -12461.99759353 0 -1071.39676358 0 399
0.02050000 0.02045430 71638.30669520 0 3341.77060899 0 41547.93748595 0 5592.05916343 0 -1650.59679894 0 462
0.02150000 0.02154770 62202.99823073 0 2147.07751047 0 41842.76341403 0 -7162.06215333 0 -15448.37334122 0 571
0.02250000 0.02255340 68527.80527734 0 5513.37667003 0 47377.45015487 0 14733.38751190 0 -12100.05592698 0 510
0.02350000 0.02348930 62787.04795488 0 -1604.94491529 0 33040.60571315 0 2793.23400799 0 -9505.06050036 0 555
0.02450000 0.02439640 66624.83792335 0 -3885.88042723 0 35142.94305949 0 10372.66598113 0 -3299.34818968 0 592
0.02550000 0.02547300 63003.99326336 0 -259.66431125 0 23160.09252196 0 10280.99972294 0 -2855.75819513 0 837
0.02650000 0.02652900 67301.92697726 0 1347.71917915 0 23083.53005106 0 -1320.74106889 0 4221.43715045 0 723
0.02750000 0.02749970 68058.76402812 0 55.09026779 0 21552.50032468 0 -469.25325147 0 -1302.03434178 0 826
0.02850000 0.02848090 64644.86871556 0 2170.91403297 0 21229.88342796 0 4187.42891373 0 1052.48132960 0 831
0.02950000 0.02946900 65571.96664143 0 -666.54386424 0 22073.71829366 0 -1260.08425910 0 -1822.81292787 0 996
0.03050000 0.03053250 65166.85560463 0 1919.09270654 0 24870.06093569 0 5670.15947448 0 -1709.72675314 0 1041
0.03150000 0.03150510 59871.30300889 0 2328.25705062 0 24423.53806026 0 -9874.39478426 0 910.39258788 0 1036
0.03250000 0.03246190 54945.71081769 0 5866.86021570 0 26345.61857055 0 -21.09960640 0 -5807.43367803 0 1059
0.03350000 0.03345080 54805.21813437 0 2198.81484733 0 30301.60253999 0 836.44774064 0 -1798.66883733 0 1302
0.03450000 0.03451200 48051.57337418 0 2465.36648558 0 32199.40714487 0 -2550.55184595 0 -10159.96071766 0 1339
0.03550000 0.03553350 45587.84358991 0 1824.91098123 0 30105.63776514 0 6257.85607673 0 -1296.21251832 0 1365
0.03650000 0.03647120 46025.02957865 0 -1458.41071705 0 27920.91612444 0 5656.69238850 0 -4987.96259432 0 1308
0.03750000 0.03744890 47138.53570122 0 -1464.68290800 0 21523.61089879 0 7161.01861894 0 -6330.67280837 0 1579
0.03850000 0.03847530 48489.74797445 0 433.43365874 0 22250.35022077 0 166.81611305 0 -3066.62903497 0 1662
0.03950000 0.03950240 46811.41512975 0 1721.00790918 0 13697.87185466 0 -728.57813943 0 -417.65212332 0 1683
0.04050000 0.04050350 45020.81995326 0 768.80913651 0 20019.60322095 0 -1511.25749574 0 811.35568149 0 1822
0.04150000 0.04152450 42536.32932682 0 775.05606294 0 17120.44497956 0 3262.52790238 0 -5601.68164901 0 1887
0.04250000 0.04250150 43357.20643582 0 852.31385727 0 19073.17244734 0 803.49292444 0 -4699.17818115 0 1920
0.04350000 0.04349210 42560.16584932 0 861.50025532 0 17243.91157537 0 621.10617975 0 -3904.88373780 0 2005
0.04450000 0.04448520 41093.06633535 0 -493.42919727 0 16660.52092557 0 1346.33512300 0 3806.36310631 0 2151
0.04550000 0.04548030 42277.97217970 0 -488.75086781 0 15161.23661395 0 3641.88011648 0 -5099.23631457 0 2274
0.04650000 0.04648670 41934.59444081 0 502.89350500 0 11960.00262657 0 -870.95687386 0 -1715.43873088 0 2311
0.04750000 0.04749250 39526.11705662 0 1002.42902617 0 12564.04427281 0 3017.98934758 0 11.81511611 0 2568
0.04850000 0.04851840 42275.00634511 0 -502.18719699 0 10924.46500018 0 508.92403535 0 1180.99533651 0 2493
0.04950000 0.04949480 39873.88862455 0 -530.25717376 0 9410.77991390 0 5460.35413818 0 1837.67505457 0 2644
0.05050000 0.05050630 41399.09652747 0 368.68180029 0 9659.81115889 0 -639.69976576 0 453.16085264 0 2829
0.05150000 0.05149060 39167.03137894 0 2377.21529062 0 9260.89542102 0 -3259.86963582 0 1703.82803766 0 2784
0.05250000 0.05249300 37368.08792729 0 2186.23751172 0 13103.71632374 0 -2610.32988994 0 36.04192048 0 3055
0.05350000 0.05348950 35319.24544942 0 308.27873412 0 16209.93375829 0 200.41682212 0 659.71695238 0 3009
0.05450000 0.05448610 34715.42349463 0 301.41337626 0 15950.80769109 0 -95.25162268 0 -283.61177793 0 3336
0.05550000 0.05550870 35053.41879295 0 1106.65174928 0 16289.79160095 0 565.72855554 0 232.14576002 0 3349
0.05650000 0.05647670 34177.28928387 0 -202.39404518 0 15317.76677323 0 -573.58472185 0 -2217.70831217 0 3324
0.05750000 0.05747970 34519.89810268 0 -72.12481341 0 17185.47364924 0 1620.98239126 0 1448.62346288 0 3639
0.05850000 0.05849280 34265.27571024 0 118.86845373 0 13364.70976827 0 2300.48805114 0 -70.92233225 0 3846
0.05950000 0.05951020 33370.80196494 0 262.50931555 0 15102.90853354 0 255.57914871 0 -192.63095707 0 3787
0.06050000 0.06049470 34034.70953176 0 1083.84557969 0 15025.57714257 0 -554.48364859 0 213.44452520 0 3930
0.06150000 0.06148310 31905.45998259 0 1151.77637344 0 15393.88986122 0 -709.58471498 0 1598.42007917 0 4083
0.06250000 0.06249100 31204.97378908 0 657.94953465 0 15409.92733719 0 130.95697586 0 972.80363392 0 4303
0.06350000 0.06350600 29750.50653358 0 498.33380893 0 15126.08598169 0 1087.66601403 0 -1533.92965355 0 4470
0.06450000 0.06451750 30222.84315458 0 827.19982898 0 16641.07823211 0 1428.71941736 0 1389.03215663 0 4479
0.06550000 0.06550280 28836.37040336 0 -77.14926676 0 14031.91270686 0 1.57255141 0 2890.29369132 0 4636
0.06650000 0.06648880 28563.29392899 0 -190.69108155 0 14879.15279006 0 3257.62878301 0 3458.41578523 0 4653
0.06750000 0.06749660 29069.57287927 0 -581.51228788 0 11086.83895208 0 2183.61219887 0 2915.04193335 0 5220
0.06850000 0.06852730 29815.42535754 0 203.17724521 0 10994.67838812 0 1928.61633097 0 1919.12566026 0 5029
0.06950000 0.06949320 29062.32306136 0 730.70035885 0 10671.19371017 0 -1140.20961852 0 3457.92147946 0 5040
0.07050000 0.07048030 28262.31664026 0 1053.65997423 0 10833.71046151 0 -1548.07778303 0 1962.43782995 0 5475
0.07150000 0.07148790 27241.84984746 0 114.15387518 0 11919.90893664 0 185.99957061 0 1928.25384007 0 5509
0.07250000 0.07249820 27683.86904813 0 -510.58380427 0 10743.49416690 0 971.35476880 0 -921.35299441 0 5916
0.07350000 0.07351270 27665.85434910 0 600.07841246 0 11170.32170369 0 -265.08190245 0 -315.08916912 0 5721
0.07450000 0.07449140 26323.42973393 0 -103.17270782 0 9626.49495025 0 185.77218995 0 1507.85227824 0 6028
0.07550000 0.07549160 27804.36980935 0 739.93399057 0 11314.87867886 0 98.64530638 0 -1690.45981283 0 6183
0.07650000 0.07648840 26688.88646371 0 757.11715746 0 10290.21577933 0 262.72681009 0 -32.78543409 0 6330
0.07750000 0.07749960 25622.61400324 0 -549.01223299 0 10488.08088524 0 1037.54340934 0 1592.14788823 0 6583
0.07850000 0.07848650 25632.93950147 0 481.27806308 0 10486.24646162 0 1154.55547031 0 1887.10563118 0 6549
0.07950000 0.07947320 25332.40159564 0 844.76855437 0 10239.12653226 0 377.51010127 0 1153.30322903 0 6828
0.08050000 0.08048110 25094.14621635 0 202.87736638 0 9304.97651079 0 620.38449333 0 2047.64515946 0 7147
0.08150000 0.08149960 23986.46191725 0 -27.95046462 0 9465.59293108 0 575.94530650 0 2796.90285523 0 7386
0.08250000 0.08250610 23140.43013704 0 540.39922963 0 9343.64220628 0 32.73292784 0 2615.98694482 0 7227
0.08350000 0.08350160 23013.55832372 0 261.61956517 0 8976.30711459 0 874.27091941 0 3123.85865812 0 7798
0.08450000 0.08449610 23027.06934800 0 216.26865881 0 8214.36223748 0 844.12815379 0 1597.33260649 0 7371
0.08550000 0.08548940 22943.03736775 0 274.48909041 0 8101.97907540 0 821.35823328 0 2916.70060381 0 8256
0.08650000 0.08650700 22340.53356166 0 285.44180773 0 7418.20041679 0 -44.47796238 0 1995.40253226 0 8037
0.08750000 0.08749060 21740.22667009 0 476.69969323 0 7625.30354823 0 102.77517613 0 3378.84354145 0 8155
0.08850000 0.08849210 21132.23057771 0 448.33203454 0 7974.94249350 0 -662.54328290 0 2010.38548926 0 8718
0.08950000 0.08949900 20309.37624565 0 576.28253288 0 8226.47822104 0 452.46003691 0 2731.73138611 0 8571
0.09050000 0.09049190 20732.50198148 0 174.18017051 0 8491.88746375 0 155.61404593 0 1970.25884563 0 8932
0.09150000 0.09150830 19827.70273795 0 -196.25586602 0 8285.57522153 0 431.18182136 0 1774.81034569 0 9285
0.09250000 0.09250820 20048.49264684 0 81.15391239 0 7476.25388288 0 1511.55407920 0 3243.65640669 0 9204
0.09350000 0.09350330 19971.49079304 0 202.28749483 0 6821.48548045 0 -171.19016985 0 1557.32679315 0 9349
0.09450000 0.09448040 19482.67731317 0 556.65639705 0 6683.20069622 0 -192.27176155 0 1469.04378331 0 9564
0.09550000 0.09549270 18859.74220209 0 691.48653320 0 7203.03460906 0 -615.19538125 0 1792.10006293 0 10155
0.09650000 0.09649430 18411.35194932 0 220.03636721 0 7366.70474052 0 -456.80663228 0 1109.90318276 0 9913
0.09750000 0.09749140 17872.22912702 0 59.21486495 0 7676.96399308 0 657.69798794 0 -788.29357136 0 10476
0.09850000 0.09850240 17615.62951152 0 483.92534507 0 7087.63068952 0 288.86789592 0 463.20514581 0 10575
0.09950000 0.09950330 17387.80947619 0 -60.69075212 0 7408.12756373 0 -151.23449684 0 182.66904820 0 10882
0.10050000 0.10051200 16881.86006309 0 394.63175456 0 7138.25858455 0 497.70988520 0 814.03042491 0 10875
0.10150000 0.10150300 17249.18417021 0 104.93968616 0 7064.04681219 0 437.05966615 0 1041.21774887 0 11118
0.10250000 0.10250800 16762.01837623 0 -394.61088387 0 6461.24642264 0 1273.23279248 0 1928.61633097 0 11575
0.10350000 0.10349800 17570.04353531 0 -21.97551621 0 6632.59477034 0 658.87663257 0 990.64587516 0 11364
0.10450000 0.10450100 17131.97878077 0 334.85700594 0 6137.52008410 0 -1266.13675859 0 1161.67347334 0 12093
0.10550000 0.10551000 16557.15609758 0 599.59069744 0 7332.02644489 0 -805.27462211 0 585.68093318 0 12067
0.10650000 0.10649700 15885.88886714 0 381.44587363 0 7426.80133712 0 -178.80687248 0 650.00329484 0 12054
0.10750000 0.10749900 15814.37929963 0 135.85829214 0 7961.57426867 0 453.42228547 0 617.60869184 0 12807
0.10850000 0.10850100 15875.23383173 0 141.73394002 0 6967.55832664 0 1119.11923916 0 519.99538606 0 12736
0.10950000 0.10950300 15507.79987889 0 -157.70550855 0 6415.81423045 0 819.26237683 0 831.60574104 0 12933
0.11050000 0.11050200 15710.24555156 0 -150.84344606 0 5387.07605449 0 1477.93030253 0 1532.83119629 0 13428
0.11150000 0.11150900 15680.80689704 0 83.10455278 0 4723.49802485 0 1077.21419322 0 2174.71469508 0 13453
0.11250000 0.11250000 15226.70466653 0 142.60831199 0 3643.53878694 0 128.88858084 0 2502.42843347 0 13668
0.11350000 0.11349100 14872.67189224 0 352.25107662 0 4014.70749446 0 39.05773488 0 2087.36537391 0 13791
0.11450000 0.11448600 14462.39810632 0 509.71162921 0 4242.98888185 0 -568.44833571 0 2592.93032697 0 14205
0.11550000 0.11549300 13804.64190015 0 306.60688218 0 4639.99330409 0 -279.03340808 0 1765.98973390 0 14776
0.11650000 0.11649800 13668.87258305 0 201.93159468 0 4597.10953273 0 -34.57965418 0 1878.88917089 0 14553
0.11750000 0.11747300 13235.86073189 0 163.87444451 0 4656.50311667 0 42.53599979 0 1627.38639707 0 14568
0.11850000 0.11849100 13417.54556238 0 41.51410500 0 4609.59899175 0 182.95245017 0 1489.28835058 0 16015
0.11950000 0.11950300 13466.97613900 0 -200.23777359 0 4003.98655163 0 1126.20428847 0 2299.58731619 0 15270
0.12050000 0.12050700 13524.20576215 0 29.50598995 0 4212.50669294 0 176.43750017 0 2194.61874060 0 15999
0.12150000 0.12150000 13342.19139448 0 297.70388610 0 4032.79908551 0 -354.50401246 0 2502.09889630 0 15670
0.12250000 0.12250700 13414.57972779 0 144.59981500 0 4282.23675968 0 10.98000300 0 1998.85168805 0 16887
0.12350000 0.12352200 13184.01354931 0 -25.97708616 0 4368.63042304 0 164.12928660 0 2131.87486201 0 16407
0.12450000 0.12449800 13156.00288922 0 47.15061873 0 4383.33876572 0 -236.91965526 0 1942.58870729 0 16306
0.12550000 0.12549900 12796.69752009 0 234.08453708 0 4230.31268509 0 -13.86000415 0 1919.71882718 0 17523
0.12650000 0.12650100 12724.85841541 0 194.96627720 0 4669.10242143 0 193.00223563 0 1864.42248880 0 17154
0.12750000 0.12750600 12464.63389095 0 82.36726827 0 4350.14338738 0 423.22130161 0 1664.01994663 0 18007
0.12850000 0.12850300 12391.47663756 0 119.73953034 0 4412.18425332 0 -93.67962050 0 1851.75727662 0 17496
0.12950000 0.12949900 12224.84067150 0 239.24728619 0 4263.17852625 0 -77.01986849 0 1309.81141917 0 18405
0.13050000 0.13049000 11908.92436406 0 140.25651500 0 4098.01449292 0 57.38296778 0 1341.15040475 0 18100
0.13150000 0.13148800 11871.57681729 0 -17.78281471 0 4404.18748448 0 47.62581134 0 682.45831299 0 19059
0.13250000 0.13249300 11862.78915922 0 87.44895124 0 4068.52091554 0 382.29388263 0 1644.78596004 0 18957
0.13350000 0.13349100 11784.35931099 0 88.73403639 0 3986.60895780 0 -21.20121369 0 1308.17471786 0 19468
0.13450000 0.13450700 11584.44009001 0 -27.17824917 0 3920.20721655 0 -59.58746165 0 691.09438396 0 19953
0.13550000 0.13551000 11568.29276832 0 331.34523809 0 4224.52381534 0 -308.66758799 0 481.13196826 0 19956
0.13650000 0.13649900 11423.73579315 0 88.41998746 0 3853.66267585 0 399.69015023 0 1008.86378879 0 19723
0.13750000 0.13749600 11285.65971580 0 -103.29562518 0 3781.53797228 0 440.08371898 0 924.81203631 0 20946
0.13850000 0.13851100 11338.60535564 0 65.08535008 0 3626.44679200 0 395.42264378 0 367.55698006 0 20955
0.13950000 0.13949800 11361.45326661 0 205.63669101 0 3227.79468388 0 -140.11481402 0 572.51921831 0 20506
0.14050000 0.14048300 10931.92352496 0 4.90812672 0 3330.07203919 0 -302.24930223 0 721.89951930 0 21447
0.14150000 0.14148400 10952.73929000 0 157.17275678 0 3330.73111354 0 162.86606075 0 441.04596754 0 21771
0.14250000 0.14249400 10688.01109079 0 62.13511357 0 3475.36498072 0 -327.90926378 0 3.92984069 0 22470
0.14350000 0.14350900 10661.52728630 0 121.80243307 0 3526.54210438 0 75.75719188 0 -148.66740223 0 22519
0.14450000 0.14449900 10758.67484621 0 95.53875941 0 3460.03051740 0 -38.17501463 0 -189.02362344 0 22218
0.14550000 0.14550500 10706.36631158 0 106.74346283 0 3512.00951485 0 317.70898968 0 103.10778899 0 23559
0.14650000 0.14650700 10571.09130024 0 8.86409971 0 3743.74005803 0 -138.10134186 0 -129.73329447 0 23044
0.14750000 0.14750500 10416.71411718 0 171.08691487 0 3507.37402522 0 -75.12887432 0 -158.20860197 0 23649
0.14850000 0.14849900 10388.91216397 0 68.08282024 0 3765.33572772 0 76.74195881 0 248.12721467 0 23640
0.14950000 0.14949500 10157.63198827 0 42.36804567 0 3657.81873130 0 443.01879678 0 599.95538525 0 24457
0.15050000 0.15050000 10319.02831321 0 -20.48644756 0 3277.30215251 0 414.43693892 0 646.56182825 0 24591
0.15150000 0.15149900 10182.50106060 0 156.18084988 0 3141.84040343 0 168.31221183 0 773.80162475 0 25020
0.15250000 0.15250500 9836.06961053 0 288.28022128 0 3388.00467498 0 -122.20666534 0 734.56473149 0 25297
0.15350000 0.15350100 9616.55391206 0 327.12166993 0 3360.90573442 0 -241.74627646 0 919.73057304 0 25452
0.15450000 0.15450400 9307.22834817 0 59.94797533 0 3366.62869674 0 164.70707511 0 682.47698677 0 26061
0.15550000 0.15549900 9438.28528364 0 -57.77248073 0 3236.97778656 0 534.33574556 0 1105.49836916 0 26128
0.15650000 0.15649500 9230.55603155 0 -118.85197687 0 2971.79921987 0 513.74516426 0 928.44353601 0 26331
0.15750000 0.15749700 9424.40078390 0 2.86208531 0 2362.29824105 0 400.11525319 0 1505.77619402 0 27345
0.15850000 0.15849900 9499.95267411 0 30.91322354 0 2320.05157491 0 -98.22514648 0 800.67318465 0 26980
0.15950000 0.15949700 9159.21123264 0 264.19654590 0 2296.03929924 0 -138.67913038 0 1200.24030767 0 27777
0.16050000 0.16050000 8962.77412117 0 132.04005471 0 2475.61509180 0 -337.88325569 0 1105.99267493 0 28224
0.16150000 0.16150500 8797.86273300 0 237.69406763 0 2695.28457428 0 -3.09838543 0 1031.34151966 0 28075
0.16250000 0.16249700 8803.26714271 0 42.45295642 0 2768.93613344 0 231.01325059 0 821.07812668 0 28590
0.16350000 0.16349900 8640.22313189 0 -105.59107132 0 2438.13573015 0 209.93165889 0 926.93645265 0 29163
0.16450000 0.16449100 8724.61760303 0 92.19615397 0 2296.13816040 0 215.07463577 0 660.76597906 0 28996
0.16550000 0.16550500 8619.36342856 0 108.41970860 0 2211.42513665 0 -133.37797565 0 908.45381082 0 30777
0.16650000 0.16650700 8514.17516152 0 8.32940367 0 2066.82422319 0 56.58109398 0 738.36429514 0 29211
0.16750000 0.16749900 8468.77592304 0 28.93182634 0 2356.11392669 0 44.04956405 0 155.87438030 0 30922
0.16850000 0.16850800 8354.10796986 0 154.83963356 0 1913.00725333 0 124.89898408 0 621.01830317 0 30867
0.16950000 0.16949900 8243.91073773 0 73.88234503 0 2156.56818118 0 -93.43730083 0 464.32776913 0 30852
0.17050000 0.17049200 8259.95919827 0 -24.12332969 0 1979.29914886 0 100.37043350 0 478.46271713 0 31257
0.17150000 0.17149500 8313.13551413 0 29.07989838 0 2033.59589113 0 32.96327432 0 193.67339301 0 32608
0.17250000 0.17250900 8235.07914137 0 149.70654280 0 1808.36821492 0 134.19412940 0 332.87429059 0 32361
0.17350000 0.17350400 8187.74661812 0 -0.48210850 0 1917.93932642 0 -24.71353078 0 422.19863791 0 32508
0.17450000 0.17449800 8056.30522261 0 159.95734593 0 2090.40810052 0 -56.41489740 0 303.41366693 0 32791
0.17550000 0.17549800 7942.21945178 0 167.59162387 0 2041.82333599 0 105.23846654 0 748.35915774 0 33633
0.17650000 0.17650100 7833.84565869 0 36.21756380 0 2074.85394574 0 -21.61027918 0 463.12056460 0 33984
0.17750000 0.17750300 7828.29844954 0 70.45537807 0 2000.59823509 0 -52.47077677 0 301.32769659 0 34069
0.17850000 0.17849800 7749.41823383 0 64.92629347 0 2180.26190424 0 19.92535559 0 512.54455047 0 34536
