### header ###
fiducial parameters:
Omega_m = 0.31
Omega_nu = 0
Omega_de = 0.69
Omega_k = 0
H_0 = 100
w_de = -1
zeff = 0
beta = 0
fgrowth = 0
b_1 = 2
gamma = 0.55
Lx = 3500 Ly = 3500 Lz = 3500
nx = 700 ny = 700 nz = 700
xoffset = -983.599254 yoffset = -42.9823471 zoffset = 800.977702
bins = 400 dk = 0.001
kx_ny = 0.628318531 ky_ny = 0.628318531 kz_ny = 0.628318531
############################
A(data) = 9.06542747 (not used)
A(ran) = 9.05812585 (used)
Ngal = 503453
weighted Ngal = 0
Nran = 25229228
weighted Nran = 0
SN(data) = 6744.24507
SN(ran) = 134.461638
SN(data+ran) = 6878.70671
############################
13 columns: k_central k_mean P_0(k) sigma^{lin}_{P_0(k)} P^img_1(k) sigma^{lin}_{P_1(k)} P_2(k) sigma^{lin}_{P_2(k)} P^img_3(k) sigma^{lin}_{P_3(k)} P_4(k) sigma^{lin}_{P_4(k)} N_modes
### header ###
0.00050000 0 0 0 0 0 0 0 0 0 0 0 0
0.00150000 0.00179520 37652.47851143 0 -34409.94253114 0 11474.81405565 0 -82744.25880356 0 -43696.84942003 0 3
0.00250000 0.00253879 47405.02143204 0 -16903.71936253 0 -27765.26473096 0 2177.59265310 0 54732.28057243 0 6
0.00350000 0.00331552 50033.73949649 0 -4738.84347274 0 -4665.81803422 0 -15554.70400381 0 -8046.48501472 0 7
0.00450000 0.00420575 48436.91218034 0 -5366.91936380 0 -14677.80557464 0 -16370.30851798 0 1409.36460048 0 24
0.00550000 0.00557378 49755.06089010 0 10509.95116925 0 4650.27486402 0 -10789.22294256 0 -12051.72380762 0 45
0.00650000 0.00659388 32958.77064742 0 7252.78373828 0 -5432.47529297 0 -9374.03651861 0 21288.21150837 0 40
0.00750000 0.00754703 48653.85748882 0 -3873.85232025 0 14538.19165713 0 9863.03673622 0 16474.44226605 0 57
0.00850000 0.00846663 33070.81328775 0 2.98577160 0 8424.09068178 0 -3193.66561687 0 -16902.07167664 0 75
0.00950000 0.00948925 51641.77107667 0 -7591.74567900 0 1914.62198550 0 6886.09673637 0 -5798.58011253 0 112
0.01050000 0.01054430 55337.64036739 0 -4802.86156175 0 8240.93391856 0 -840.21544903 0 11553.79313251 0 105
0.01150000 0.01145670 66582.65716463 0 -9230.84163044 0 -14194.70407251 0 19762.45437682 0 1713.34067752 0 144
0.01250000 0.01249090 82298.28515676 0 -10767.11099795 0 4656.90954586 0 -8148.23511054 0 -6961.29712026 0 169
0.01350000 0.01339930 87466.08717338 0 -492.69103399 0 -2452.63536596 0 -10549.60547627 0 -27274.25433657 0 180
0.01450000 0.01448870 88496.76961869 0 8914.12344920 0 22662.93076692 0 -26652.63737419 0 -5137.63838031 0 267
0.01550000 0.01550050 81746.96945890 0 2114.46431447 0 25209.26453701 0 -972.43125691 0 21313.25633385 0 238
0.01650000 0.01653350 86649.05466478 0 -4349.31954444 0 36443.84599030 0 24596.54507842 0 -4495.68897408 0 315
0.01750000 0.01747870 91558.16999711 0 -3514.87648830 0 35010.57895989 0 -13946.67242363 0 -2634.63874906 0 297
0.01850000 0.01844180 83667.29243758 0 13087.56900204 0 43365.88424816 0 -3328.57813732 0 -11184.16226515 0 388
0.01950000 0.01947590 77444.86160742 0 6617.63378249 0 51025.64640058 0 -4230.22480851 0 17668.24561419 0 399
0.02050000 0.02045430 77252.08235862 0 -3202.49721323 0 53128.09359265 0 4255.19274199 0 6310.61497884 0 462
0.02150000 0.02154770 80454.74434044 0 -159.22247802 0 53789.47470777 0 12411.90794256 0 -4010.86289406 0 571
0.02250000 0.02255340 85479.30753059 0 -2484.76524076 0 43711.78843875 0 13799.47915104 0 3994.67163408 0 510
0.02350000 0.02348930 74940.26921315 0 2093.03341337 0 42594.98694440 0 867.63733603 0 11432.08406831 0 555
0.02450000 0.02439640 77862.60490269 0 7368.02288923 0 37704.76507691 0 4136.35065123 0 7370.32964948 0 592
0.02550000 0.02547300 67755.15044197 0 4650.57144748 0 47699.95720585 0 221.79719419 0 15604.57396333 0 837
0.02650000 0.02652900 65442.45853069 0 4907.65438417 0 48154.71851072 0 1336.72362200 0 10278.94560786 0 723
0.02750000 0.02749970 59454.65817088 0 -987.36478333 0 41329.67402876 0 7347.16318590 0 11239.52451096 0 826
0.02850000 0.02848090 65192.12012156 0 -347.71334969 0 43058.75559878 0 8975.93363912 0 10888.27083352 0 831
0.02950000 0.02946900 57757.65155278 0 2805.05340809 0 38615.71568108 0 2467.26681664 0 8662.22523077 0 996
0.03050000 0.03053250 56690.39048078 0 4828.78515304 0 38450.72740091 0 -381.73366943 0 12433.10816764 0 1041
0.03150000 0.03150510 52124.54304162 0 181.76721479 0 40744.08646444 0 7389.23409889 0 13605.93098215 0 1036
0.03250000 0.03246190 54160.64341530 0 -1333.53809595 0 37119.94643268 0 4979.01016766 0 12117.08201448 0 1059
0.03350000 0.03345080 51031.24853260 0 1314.05146419 0 35313.97285458 0 7065.50776034 0 11631.56390638 0 1302
0.03450000 0.03451200 55355.54522070 0 1318.48923151 0 31915.56578937 0 2046.81033194 0 11160.43558837 0 1339
0.03550000 0.03553350 49658.28680566 0 -374.73759516 0 30440.11800024 0 -2783.19410865 0 11253.25522668 0 1365
0.03650000 0.03647120 49506.48001258 0 1117.59238357 0 28459.05033520 0 6026.35620958 0 2647.07328522 0 1308
0.03750000 0.03744890 49843.59654510 0 -83.31369905 0 30724.39873865 0 -1014.07487002 0 7785.17301758 0 1579
0.03850000 0.03847530 50627.45564451 0 404.89683763 0 24391.02372542 0 4179.12457686 0 -1212.32333751 0 1662
0.03950000 0.03950240 50719.06697984 0 190.02431800 0 24567.76549825 0 1776.74363046 0 -1946.79579859 0 1683
0.04050000 0.04050350 49436.50828524 0 789.67433213 0 22806.93851347 0 736.85721179 0 135.10584892 0 1822
0.04150000 0.04152450 48202.94078435 0 -171.12316396 0 23361.87912027 0 2616.04186768 0 -269.19452642 0 1887
0.04250000 0.04250150 47464.99719834 0 -0.43371377 0 18087.08736671 0 2138.90498847 0 2512.44636367 0 1920
0.04350000 0.04349210 48049.70599684 0 889.09350165 0 17919.24309767 0 2638.64811805 0 332.52607964 0 2005
0.04450000 0.04448520 45276.87034014 0 2492.77299417 0 18016.56641074 0 -2281.69344745 0 -1416.24094291 0 2151
0.04550000 0.04548030 43790.65766988 0 3236.96680199 0 19169.50714888 0 -161.86756310 0 -1927.72658059 0 2274
0.04650000 0.04648670 40241.76196030 0 408.99628012 0 21916.96844293 0 -1424.41346491 0 4278.37019013 0 2311
0.04750000 0.04749250 39904.86511923 0 -1248.55045789 0 17626.50423838 0 5249.67003607 0 -1839.83901537 0 2568
0.04850000 0.04851840 39855.21485116 0 560.15608187 0 17332.77676755 0 2866.79769057 0 -2510.76572406 0 2493
0.04950000 0.04949480 40426.85200829 0 770.67212002 0 13780.80537765 0 1733.93675111 0 2251.54079572 0 2644
0.05050000 0.05050630 38146.23504896 0 777.41115530 0 15320.84245355 0 -217.68347176 0 1567.47653821 0 2829
0.05150000 0.05149060 37411.36714326 0 374.68816458 0 12608.75148322 0 -140.06428498 0 1272.52977983 0 2784
0.05250000 0.05249300 36842.69582073 0 1132.39958741 0 16211.03221555 0 198.92731408 0 1455.22519100 0 3055
0.05350000 0.05348950 35199.40376256 0 1692.56885077 0 14076.18053436 0 -60.78917389 0 203.39913357 0 3009
0.05450000 0.05448610 35067.91842876 0 479.98737580 0 17267.08902352 0 2008.13365189 0 1292.34594877 0 3336
0.05550000 0.05550870 34158.39581903 0 -132.48383145 0 14726.57707690 0 -120.33050034 0 99.65303107 0 3349
0.05650000 0.05647670 34691.80666358 0 -84.82946022 0 16855.49708889 0 -1235.22617134 0 2434.71952808 0 3324
0.05750000 0.05747970 32500.38443360 0 762.45346282 0 14141.64858695 0 1415.60383770 0 58.20483350 0 3639
0.05850000 0.05849280 33080.15017444 0 602.02268181 0 16566.71267573 0 205.06549323 0 1031.85669612 0 3846
0.05950000 0.05951020 31613.27035193 0 1115.60417593 0 15632.91416059 0 43.70102356 0 1263.13797027 0 3787
0.06050000 0.06049470 31172.89883714 0 481.19458033 0 16796.40008841 0 2392.87929112 0 1294.02658837 0 3930
0.06150000 0.06148310 30309.84096943 0 -128.24927872 0 13761.58237563 0 1794.82423693 0 1261.13877806 0 4083
0.06250000 0.06249100 30026.10945965 0 107.51523889 0 12847.11670824 0 1344.09427020 0 1601.80332753 0 4303
0.06350000 0.06350600 30603.23890307 0 489.24297666 0 12066.33328915 0 2018.73376443 0 2887.69034762 0 4470
0.06450000 0.06451750 29987.00438126 0 -580.35231702 0 10450.37084757 0 1243.03620245 0 2023.20448547 0 4479
0.06550000 0.06550280 29407.67802332 0 -2.85250676 0 9531.51135114 0 73.88761762 0 2926.05945965 0 4636
0.06650000 0.06648880 29047.60373410 0 351.19216383 0 8815.70167887 0 862.13186825 0 2295.99536095 0 4653
0.06750000 0.06749660 29886.16600496 0 54.56048186 0 8370.47498301 0 947.95433383 0 2192.08130433 0 5220
0.06850000 0.06852730 28607.23221932 0 1178.17230136 0 9516.25377982 0 -1747.27202222 0 -61.42979417 0 5029
0.06950000 0.06949320 28478.38318294 0 1546.24335941 0 12003.61137971 0 -2602.51985883 0 1314.88629170 0 5040
0.07050000 0.07048030 26822.89824920 0 -13.68238361 0 11304.55318064 0 16.36393747 0 1806.22622327 0 5475
0.07150000 0.07148790 27289.96227536 0 -863.81250785 0 12206.16689811 0 1109.25509298 0 678.50386686 0 5509
0.07250000 0.07249820 27892.90546435 0 -60.41372120 0 11876.41002922 0 1825.71285503 0 -88.30486914 0 5916
0.07350000 0.07351270 27606.42781143 0 839.04559205 0 11135.72030006 0 203.79238127 0 2872.97102036 0 5721
0.07450000 0.07449140 27998.35736113 0 393.72003503 0 12054.90933367 0 -5.55565629 0 2366.09890317 0 6028
0.07550000 0.07549160 26239.06821651 0 307.63284126 0 11789.96144301 0 242.86670286 0 1837.77391572 0 6183
0.07650000 0.07648840 26340.45582143 0 469.39275555 0 12491.65593950 0 716.99820302 0 3314.92431360 0 6330
0.07750000 0.07749960 25419.72894766 0 669.83923601 0 10957.90203912 0 265.91233613 0 3168.66472968 0 6583
0.07850000 0.07848650 24805.03226601 0 -265.35981213 0 11954.73003173 0 1364.34982204 0 4635.72030535 0 6549
0.07950000 0.07947320 24856.33021997 0 140.30704404 0 10197.03365012 0 1671.87391603 0 2709.11415116 0 6828
0.08050000 0.08048110 24990.45185118 0 281.51921686 0 9703.92520237 0 -52.73726250 0 2578.15607685 0 7147
0.08150000 0.08149960 24081.80800726 0 644.22321275 0 9443.51394019 0 -761.97124008 0 2038.74765567 0 7386
0.08250000 0.08250610 23543.12456787 0 394.06714753 0 9731.37564926 0 -354.15030922 0 1701.04894080 0 7227
0.08350000 0.08350160 23453.38060988 0 -508.30121009 0 8829.00399627 0 604.04604008 0 706.34865990 0 7798
0.08450000 0.08449610 23275.65022551 0 212.26807748 0 7778.16486028 0 1558.30442011 0 -1638.17324735 0 7371
0.08550000 0.08548940 23362.86773181 0 798.75308137 0 8021.13262120 0 -335.69073500 0 -55.02095514 0 8256
0.08650000 0.08650700 22157.42073673 0 731.03648678 0 7514.30444230 0 -532.95278787 0 -1548.29747449 0 8037
0.08750000 0.08749060 21536.90223161 0 210.86205219 0 8019.38607416 0 122.45162131 0 -957.37799864 0 8155
0.08850000 0.08849210 20843.66585600 0 508.96138290 0 8057.67829418 0 590.68989828 0 -2678.80771541 0 8718
0.08950000 0.08949900 20269.39240145 0 289.64120982 0 7224.43255645 0 -99.85371921 0 -941.77990558 0 8571
0.09050000 0.09049190 19871.86071973 0 -16.25595912 0 7069.03380814 0 1217.88153124 0 -1666.04110798 0 8932
0.09150000 0.09150830 20235.12053500 0 82.81961297 0 6735.56415372 0 362.52824273 0 -739.33203599 0 9285
0.09250000 0.09250820 19398.53548720 0 269.58228183 0 5893.04743673 0 739.95156588 0 -231.30653867 0 9204
0.09350000 0.09350330 19770.69280626 0 -33.28468292 0 6557.70195448 0 472.70570264 0 -52.35609783 0 9349
0.09450000 0.09448040 18689.92070998 0 535.31117561 0 5652.48529720 0 -235.11818536 0 331.61436012 0 9564
0.09550000 0.09549270 18806.57687079 0 473.29447573 0 7055.08340096 0 -164.26659375 0 510.67058239 0 10155
0.09650000 0.09649430 18190.45219470 0 222.36729351 0 6842.86145869 0 -486.01570923 0 497.31773596 0 9913
0.09750000 0.09749140 18063.58038139 0 435.12198755 0 7398.86756904 0 703.94743233 0 71.23209720 0 10476
0.09850000 0.09850240 17865.30884630 0 97.88374596 0 7053.16110076 0 144.88541389 0 1811.75146328 0 10575
0.09950000 0.09950330 17328.05340134 0 121.27737050 0 7499.93662136 0 -243.42362069 0 733.48384955 0 10882
0.10050000 0.10051200 17033.99639334 0 420.25656548 0 7510.58067220 0 563.05930440 0 1931.27459753 0 10875
0.10150000 0.10150300 16615.48417799 0 31.64204993 0 7116.76177601 0 751.60839431 0 1938.49146172 0 11118
0.10250000 0.10250800 16501.24462315 0 32.62824486 0 6932.40769438 0 984.15948505 0 2246.33410831 0 11575
0.10350000 0.10349800 16604.82914259 0 334.25175599 0 5882.40338590 0 877.97931111 0 2302.02589130 0 11364
0.10450000 0.10450100 16266.94368999 0 51.76875274 0 5165.50624095 0 638.67380668 0 3410.91849339 0 12093
0.10550000 0.10551000 15998.15119892 0 19.10865262 0 5481.43353296 0 244.25075900 0 3545.49049208 0 12067
0.10650000 0.10649700 15803.72426423 0 143.74082143 0 4409.98733880 0 466.39616415 0 2132.58885923 0 12054
0.10750000 0.10749900 15572.05962849 0 230.29815491 0 4864.14449218 0 -446.30318398 0 2705.01690559 0 12807
0.10850000 0.10850100 15224.72744347 0 428.31155255 0 4748.38906632 0 -364.80204926 0 1529.97520742 0 12736
0.10950000 0.10950300 15018.43717039 0 250.06269636 0 5018.04933862 0 -347.58153482 0 1123.89752823 0 12933
0.11050000 0.11050200 14751.95143957 0 -2.61667897 0 5056.80291068 0 209.56038034 0 1869.05797843 0 13428
0.11150000 0.11150900 15036.23217797 0 -271.86377756 0 4604.21655119 0 703.46081577 0 998.99195341 0 13453
0.11250000 0.11250000 14906.50437579 0 34.44355532 0 4061.87524913 0 475.73744467 0 491.27841796 0 13668
0.11350000 0.11349100 14988.33944152 0 249.31464696 0 4190.66936265 0 -216.05885347 0 741.11373366 0 13791
0.11450000 0.11448600 14413.62660406 0 165.35626335 0 4555.60981752 0 -317.63978688 0 1293.89477350 0 14205
0.11550000 0.11549300 14401.76326567 0 231.48119338 0 4692.14805470 0 124.93303625 0 364.23744222 0 14776
0.11650000 0.11649800 14202.17358187 0 78.96281969 0 4596.96673328 0 -131.93240590 0 765.91689855 0 14553
0.11750000 0.11747300 14311.25038760 0 91.95119800 0 4964.82908446 0 -104.66089771 0 -320.80883607 0 14568
0.11850000 0.11849100 13962.05082524 0 373.67428853 0 4412.76643567 0 -352.78602531 0 -174.09558930 0 16015
0.11950000 0.11950300 13521.02023610 0 -0.99759801 0 4477.81707449 0 206.53303213 0 -68.21419573 0 15270
0.12050000 0.12050700 13797.17239080 0 -24.94036220 0 4545.54794903 0 831.20150877 0 135.93628261 0 15999
0.12150000 0.12150000 13619.44200643 0 -153.96855696 0 4045.73891201 0 744.26630599 0 -68.35787394 0 15670
0.12250000 0.12250700 13620.65030941 0 300.45222616 0 3576.26926445 0 29.22137967 0 230.09164495 0 16887
0.12350000 0.12352200 13204.88423721 0 293.57478527 0 3895.61275854 0 -575.32577661 0 894.82085779 0 16407
0.12450000 0.12449800 13042.20271728 0 231.11211174 0 3698.65937215 0 496.24344476 0 972.07425830 0 16306
0.12550000 0.12549900 13051.31991252 0 -232.10401864 0 3904.49927776 0 456.77258011 0 865.52500272 0 17523
0.12650000 0.12650100 12906.10386300 0 253.57995650 0 4167.16237732 0 223.20651485 0 1091.38648876 0 17154
0.12750000 0.12750600 12860.07850388 0 301.89010671 0 3885.41907518 0 -241.30689355 0 1497.05444339 0 18007
0.12850000 0.12850300 12471.44432595 0 -67.74504464 0 3435.85347315 0 39.64848520 0 1647.25748887 0 17496
0.12950000 0.12949900 12509.67063854 0 119.51544506 0 4055.98751823 0 526.14784516 0 1279.83452060 0 18405
0.13050000 0.13049000 12440.46783127 0 162.17952496 0 3648.73448977 0 -50.80683371 0 1318.97255270 0 18100
0.13150000 0.13148800 12164.53536803 0 79.00994351 0 3576.01661928 0 -196.83035917 0 857.29645940 0 19059
0.13250000 0.13249300 11825.11207527 0 283.64583011 0 3976.77776534 0 166.03291302 0 1455.13731442 0 18957
0.13350000 0.13349100 11655.29058316 0 251.45554016 0 3240.33906577 0 204.77000823 0 1202.19556159 0 19468
0.13450000 0.13450700 11735.25827155 0 -265.79809658 0 3179.31976508 0 497.46273232 0 1306.55998569 0 19953
0.13550000 0.13551000 11633.98051235 0 136.38774854 0 2826.23166403 0 120.18330707 0 226.59745241 0 19956
0.13650000 0.13649900 11568.51245977 0 115.05461013 0 2479.93202883 0 -238.45420005 0 1045.99054566 0 19723
0.13750000 0.13749600 11238.31620797 0 65.67412317 0 3134.74436955 0 86.39179597 0 751.78304901 0 20946
0.13850000 0.13851100 11355.30190596 0 46.28712148 0 2601.79487704 0 -147.10100218 0 614.43524882 0 20955
0.13950000 0.13949800 11267.09578814 0 -0.52151236 0 2778.09726697 0 393.19607092 0 437.76267880 0 20506
0.14050000 0.14048300 11251.16815789 0 252.96482043 0 2684.19015598 0 -175.15230518 0 19.66480153 0 21447
0.14150000 0.14148400 11295.54583112 0 200.40364063 0 2594.64392029 0 -136.49649581 0 215.75897464 0 21771
0.14250000 0.14249400 10880.49375613 0 -11.00950756 0 3094.47492646 0 -76.21239256 0 -60.04991216 0 22470
0.14350000 0.14350900 10656.68308979 0 361.51656360 0 3484.80072857 0 -328.51451373 0 -398.65979732 0 22519
0.14450000 0.14449900 10236.33645082 0 290.61114758 0 3126.54987840 0 38.65251400 0 208.34768352 0 22218
0.14550000 0.14550500 10210.80830414 0 -12.84371149 0 3543.32653128 0 102.25999968 0 54.92593859 0 23559
0.14650000 0.14650700 10232.28314354 0 -45.81764085 0 3007.43317333 0 288.73388413 0 -308.98284523 0 23044
0.14750000 0.14750500 10189.58610991 0 -85.01960317 0 3021.47145709 0 388.40789573 0 61.58863109 0 23649
0.14850000 0.14849900 10126.95207705 0 87.98510823 0 2839.97336433 0 -284.02919169 0 -58.57545298 0 23640
0.14950000 0.14949500 10042.76631279 0 202.55551840 0 3122.12309565 0 -379.49721045 0 -283.33496671 0 24457
0.15050000 0.15050000 9677.48533617 0 243.40165154 0 3313.04595169 0 -133.48232909 0 -223.85240772 0 24591
0.15150000 0.15149900 9917.87172254 0 80.62467568 0 3409.94086643 0 67.72900716 0 -84.99367958 0 25020
0.15250000 0.15250500 9879.15110419 0 -60.60957613 0 3341.05661177 0 451.67573843 0 -686.20624916 0 25297
0.15350000 0.15350100 9907.72197748 0 63.20006788 0 3367.01315678 0 105.89589320 0 -192.50133912 0 25452
0.15450000 0.15450400 9780.00435207 0 67.70571987 0 3206.03424560 0 -181.72217804 0 -29.42909794 0 26061
0.15550000 0.15549900 9594.29916801 0 133.45816303 0 3338.04683888 0 89.70056893 0 -206.99328572 0 26128
0.15650000 0.15649500 9488.86924038 0 20.59816066 0 3254.98150102 0 136.89853117 0 265.35761522 0 26331
0.15750000 0.15749700 9633.65689157 0 -29.90747608 0 3054.27139082 0 268.25754238 0 121.26638593 0 27345
0.15850000 0.15849900 9429.31088784 0 86.16024118 0 3106.61287917 0 -211.85615600 0 -470.34401953 0 26980
0.15950000 0.15949700 9220.19757961 0 344.52782364 0 3275.86317350 0 -344.19828646 0 -419.86771161 0 27777
0.16050000 0.16050000 8988.74165075 0 108.12927650 0 3280.99296889 0 -156.65867878 0 -487.83365600 0 28224
0.16150000 0.16150500 9123.74204777 0 -75.82518638 0 3076.19659769 0 457.30093805 0 -602.50929837 0 28075
0.16250000 0.16249700 8786.65846897 0 49.22099097 0 3046.35151398 0 395.22821685 0 -389.21745873 0 28590
0.16350000 0.16349900 9042.42325695 0 254.03801317 0 2766.42066632 0 43.22681956 0 -558.41832249 0 29163
0.16450000 0.16449100 8617.40817464 0 133.21760089 0 2790.22423510 0 117.73814121 0 -272.35808333 0 28996
0.16550000 0.16550500 8441.16070757 0 209.92067432 0 2957.18973834 0 -299.02423172 0 -149.52200198 0 30777
0.16650000 0.16650700 8118.91728632 0 88.59321417 0 2892.58946699 0 0.03674603 0 -97.74149575 0 29211
0.16750000 0.16749900 8166.17291757 0 52.59149722 0 2990.29724010 0 249.02245733 0 -417.37091826 0 30922
0.16850000 0.16850800 8055.92076257 0 -26.28838895 0 2735.26841848 0 386.67892401 0 315.63070855 0 30867
0.16950000 0.16949900 8187.51594209 0 -6.89545559 0 2433.80780856 0 384.61382436 0 -47.51607546 0 30852
0.17050000 0.17049200 8166.88691479 0 -4.26711100 0 2502.86781638 0 -409.99477777 0 48.63946770 0 31257
0.17150000 0.17149500 8029.78846440 0 189.07964476 0 2394.07660953 0 71.27603549 0 -8.21697657 0 32608
0.17250000 0.17250900 8034.32509287 0 -58.80799638 0 2343.24000762 0 97.54805743 0 53.82923886 0 32361
0.17350000 0.17350400 7951.38058531 0 40.81900125 0 2219.97113412 0 206.19800267 0 55.36158674 0 32508
0.17450000 0.17449800 8030.78806050 0 123.54129091 0 2290.30535236 0 -28.00637610 0 -322.76738536 0 32791
0.17550000 0.17549800 7833.26347634 0 22.44763314 0 1921.09189875 0 305.91705102 0 215.64473509 0 33633
0.17650000 0.17650100 7888.55981472 0 11.96560476 0 2131.62221685 0 44.11195642 0 -181.36627789 0 33984
0.17750000 0.17750300 7705.76554239 0 159.07638321 0 2070.40519385 0 -187.07935409 0 280.93373914 0 34069
0.17850000 0.17849800 7652.51233452 0 88.37154549 0 2043.69071333 0 -3.88746221 0 -271.56499718 0 34536
