### header ###
fiducial parameters:
Omega_m = 0.31
Omega_nu = 0
Omega_de = 0.69
Omega_k = 0
H_0 = 100
w_de = -1
zeff = 0
beta = 0
fgrowth = 0
b_1 = 2
gamma = 0.55
Lx = 3500 Ly = 3500 Lz = 3500
nx = 700 ny = 700 nz = 700
xoffset = -983.599254 yoffset = -42.9823471 zoffset = 800.977702
bins = 400 dk = 0.001
kx_ny = 0.628318531 ky_ny = 0.628318531 kz_ny = 0.628318531
############################
A(data) = 9.03864393 (not used)
A(ran) = 9.03125581 (used)
Ngal = 501746
weighted Ngal = 0
Nran = 25229228
weighted Nran = 0
SN(data) = 6754.0218
SN(ran) = 134.062771
SN(data+ran) = 6888.08457
############################
13 columns: k_central k_mean P_0(k) sigma^{lin}_{P_0(k)} P^img_1(k) sigma^{lin}_{P_1(k)} P_2(k) sigma^{lin}_{P_2(k)} P^img_3(k) sigma^{lin}_{P_3(k)} P_4(k) sigma^{lin}_{P_4(k)} N_modes
### header ###
0.00050000 0 0 0 0 0 0 0 0 0 0 0 0
0.00150000 0.00179520 7191.16028610 0 6195.05727528 0 13354.71380722 0 11358.92681492 0 -45024.88424512 0 3
0.00250000 0.00253879 23540.92765335 0 -3517.06241824 0 -9049.95867374 0 15731.44577664 0 -17649.46199507 0 6
0.00350000 0.00331552 42229.20067744 0 -15338.19807823 0 -12233.51848384 0 29690.86030447 0 40366.43685910 0 7
0.00450000 0.00420575 48747.99527584 0 -3671.97784535 0 1366.34901425 0 -36345.42421997 0 -10773.52598834 0 24
0.00550000 0.00557378 58238.99552330 0 -19571.65235108 0 -44963.48048439 0 31511.00398120 0 4815.23019048 0 45
0.00650000 0.00659388 71883.81189239 0 -25202.89348491 0 -21018.75994295 0 7026.49055854 0 -18711.56031796 0 40
0.00750000 0.00754703 83665.86444314 0 8050.43946085 0 -33697.92253642 0 -79753.15968967 0 -30872.25108559 0 57
0.00850000 0.00846663 86008.87377474 0 17451.73968861 0 -16501.13477742 0 -24715.06861657 0 -2653.96061223 0 75
0.00950000 0.00948925 69040.23558826 0 -2832.93225330 0 17678.24157524 0 -11368.81293024 0 -24361.91460808 0 112
0.01050000 0.01054430 74993.43454444 0 -2463.12563278 0 6432.37896590 0 5039.32645571 0 -30733.51593389 0 105
0.01150000 0.01145670 88822.35235000 0 -1597.35457563 0 15837.99613068 0 64.05532671 0 -42577.41162827 0 144
0.01250000 0.01249090 77902.25920971 0 4216.58196936 0 16357.78610523 0 -8508.21053861 0 -13266.61753512 0 169
0.01350000 0.01339930 79031.58311680 0 -1288.74300896 0 15983.21218021 0 -20535.43874937 0 -29233.90208508 0 180
0.01450000 0.01448870 70236.12600519 0 -64.76646793 0 19070.64599565 0 12559.87013523 0 -14324.43187470 0 267
0.01550000 0.01550050 85991.84768724 0 -412.19828303 0 3952.07346161 0 -3008.50966144 0 -35850.78891663 0 238
0.01650000 0.01653350 76533.36177462 0 7438.01658572 0 22360.30579231 0 -13601.64699885 0 -7242.20559489 0 315
0.01750000 0.01747870 71243.19161945 0 5492.06659922 0 22950.39703138 0 6111.02529503 0 -30620.92406493 0 297
0.01850000 0.01844180 63099.44919909 0 931.62686514 0 25724.44099107 0 -2423.62510977 0 -8117.61012219 0 388
0.01950000 0.01947590 63516.86295718 0 -356.62183805 0 14296.53106034 0 18325.89197463 0 -8159.94466491 0 399
0.02050000 0.02045430 63186.11747676 0 -712.88557904 0 13514.75902973 0 10834.99565650 0 -4253.47914867 0 462
0.02150000 0.02154770 68446.84897741 0 1454.50020921 0 7134.07346240 0 1491.68298740 0 9688.56876991 0 571
0.02250000 0.02255340 63106.36947982 0 -5976.55215749 0 -118.19290252 0 14425.59978817 0 16913.16609495 0 510
0.02350000 0.02348930 71973.55585038 0 -2018.51407298 0 8045.69412550 0 -5920.99218938 0 2696.04250979 0 555
0.02450000 0.02439640 67213.17163080 0 1831.22711046 0 3010.95922113 0 -11584.65978146 0 3715.32296876 0 592
0.02550000 0.02547300 67905.74893206 0 4068.30122409 0 16731.37141872 0 -7791.60997712 0 1360.02190044 0 837
0.02650000 0.02652900 66029.03470653 0 1557.23891657 0 15528.01149244 0 -11379.24827419 0 -7874.08214806 0 723
0.02750000 0.02749970 70107.27696881 0 1787.68426475 0 35124.81851473 0 5891.54255029 0 -14685.82431263 0 826
0.02850000 0.02848090 68029.43521932 0 -1781.19238236 0 27901.36358524 0 1026.07990940 0 -3086.20354331 0 831
0.02950000 0.02946900 64984.62154550 0 1014.86795616 0 26797.30419509 0 3087.63153774 0 -7572.99501360 0 996
0.03050000 0.03053250 62461.79476074 0 4941.99215806 0 32814.65305515 0 -6551.22105666 0 -6853.71421640 0 1041
0.03150000 0.03150510 56305.71074898 0 7458.92022734 0 40657.96741541 0 -6057.65125686 0 -592.83188993 0 1036
0.03250000 0.03246190 51030.25992107 0 1824.35076803 0 36309.39482190 0 7417.18983611 0 600.12125229 0 1059
0.03350000 0.03345080 50963.80325695 0 -271.04872227 0 41002.77314873 0 11518.97203743 0 4376.20977812 0 1302
0.03450000 0.03451200 50252.99156521 0 458.47738577 0 33414.63040954 0 2132.74264325 0 3302.09433282 0 1339
0.03550000 0.03553350 49054.68454231 0 1295.72919712 0 31674.67411266 0 1708.73814161 0 3924.21658554 0 1365
0.03650000 0.03647120 47697.10121698 0 -403.81925106 0 27539.53176441 0 2489.82912872 0 6527.19779642 0 1308
0.03750000 0.03744890 49493.40837121 0 -78.23014870 0 27352.35464763 0 2888.49222142 0 2750.62485095 0 1579
0.03850000 0.03847530 50248.59773618 0 -392.00973708 0 28566.91883794 0 3413.92826627 0 6339.27372870 0 1662
0.03950000 0.03950240 47729.17616892 0 1122.74414811 0 22591.53104515 0 -626.26563349 0 1594.83910851 0 1683
0.04050000 0.04050350 46755.94303821 0 1883.40383022 0 26791.26268017 0 684.88480507 0 1554.21815911 0 1822
0.04150000 0.04152450 45358.26602296 0 2509.67825138 0 25931.61002995 0 -170.20375523 0 -1825.29544127 0 1887
0.04250000 0.04250150 44400.52113960 0 492.66137565 0 28401.38132914 0 73.68714917 0 1802.86494406 0 1920
0.04350000 0.04349210 39739.65714761 0 540.20809806 0 23388.57163165 0 5749.62187253 0 4259.80626247 0 2005
0.04450000 0.04448520 40718.16287315 0 103.10174748 0 23528.95446924 0 4538.34206942 0 4618.58437212 0 2151
0.04550000 0.04548030 40461.67310338 0 -78.23047824 0 18100.26885381 0 4178.47648708 0 756.94579812 0 2274
0.04650000 0.04648670 42160.21756163 0 574.52500126 0 16629.65427662 0 5058.54945772 0 4948.96736165 0 2311
0.04750000 0.04749250 38898.23888788 0 13.45467342 0 13532.66388304 0 -1505.94096261 0 8180.36498534 0 2568
0.04850000 0.04851840 38275.63331396 0 1185.41113469 0 14970.98381684 0 1265.53260710 0 4958.38114036 0 2493
0.04950000 0.04949480 37090.61762389 0 1335.73501046 0 14280.38373865 0 278.54239769 0 4004.45888825 0 2644
0.05050000 0.05050630 35941.96086906 0 205.41919647 0 14122.42558493 0 -1008.90992399 0 4309.89591344 0 2829
0.05150000 0.05149060 35758.29881550 0 827.86549408 0 15478.25137864 0 2473.18750126 0 4126.64028907 0 2784
0.05250000 0.05249300 33897.07283732 0 568.92067233 0 13013.75267429 0 -256.24920763 0 3657.47820955 0 3055
0.05350000 0.05348950 35515.64960718 0 328.90776143 0 15266.02943637 0 1359.90107014 0 6272.98183317 0 3009
0.05450000 0.05448610 34213.75806484 0 262.49833098 0 13754.44240345 0 1069.86661262 0 2881.51701783 0 3336
0.05550000 0.05550870 34276.91935718 0 -437.72093742 0 14648.58661158 0 -908.17699959 0 2562.44813806 0 3349
0.05650000 0.05647670 32893.08290338 0 1166.77031502 0 14151.42485654 0 -1156.41186307 0 1138.50700977 0 3324
0.05750000 0.05747970 32762.80587257 0 270.92130123 0 14539.83934302 0 445.17177300 0 2311.58246945 0 3639
0.05850000 0.05849280 33626.41296891 0 -81.57055722 0 14879.92171014 0 1852.46028926 0 -787.05670848 0 3846
0.05950000 0.05951020 34104.68125910 0 182.92498874 0 13877.03023346 0 1710.84717954 0 -255.73732655 0 3787
0.06050000 0.06049470 33742.41005537 0 -578.25536211 0 11834.99819059 0 577.84783447 0 503.30103265 0 3930
0.06150000 0.06148310 33458.23916269 0 -399.23978276 0 10688.08798280 0 1182.03887091 0 336.79358609 0 4083
0.06250000 0.06249100 33431.43680559 0 717.66167120 0 10881.03200019 0 -252.78027961 0 -433.00855578 0 4303
0.06350000 0.06350600 32722.82202837 0 1736.19957306 0 12032.50080560 0 -1199.48237216 0 -1558.96349446 0 4470
0.06450000 0.06451750 30617.73853888 0 728.94392570 0 13285.29130851 0 68.23759287 0 2536.37076275 0 4479
0.06550000 0.06550280 29677.34928019 0 -140.58275681 0 11791.05990027 0 2501.05536190 0 2270.48918342 0 4636
0.06650000 0.06648880 30910.14786100 0 -1188.64059903 0 11130.33785950 0 3845.63295329 0 3646.71332842 0 4653
0.06750000 0.06749660 30864.89142196 0 -3.99252964 0 8733.46018396 0 2384.92646057 0 3546.31433502 0 5220
0.06850000 0.06852730 31660.61385975 0 1030.15738274 0 7058.81815564 0 41.86725901 0 5587.06118290 0 5029
0.06950000 0.06949320 29627.14978350 0 601.48333929 0 8621.69215794 0 -1988.96557273 0 4939.83918184 0 5040
0.07050000 0.07048030 29359.34590396 0 1197.01084333 0 10031.69386363 0 -1623.86034927 0 2768.39788939 0 5475
0.07150000 0.07148790 27971.44515831 0 628.41641281 0 11231.06639007 0 -136.39983157 0 2770.26526672 0 5509
0.07250000 0.07249820 27441.10999408 0 -322.64875197 0 9641.74153699 0 -160.13090218 0 1356.19926918 0 5916
0.07350000 0.07351270 27774.27208047 0 -95.59137551 0 10367.38240172 0 1039.34597770 0 -381.06580742 0 5721
0.07450000 0.07449140 27644.76396974 0 816.99845643 0 9473.30410103 0 -290.95935853 0 -214.72532636 0 6028
0.07550000 0.07549160 26665.70901557 0 737.79529428 0 9899.98883838 0 -818.85155382 0 -1008.91871165 0 6183
0.07650000 0.07648840 26051.34187109 0 561.25344067 0 10950.99274296 0 -22.84659282 0 -2046.00845815 0 6330
0.07750000 0.07749960 24897.52236715 0 600.12784304 0 10733.15768410 0 1107.95891342 0 -770.25910009 0 6583
0.07850000 0.07848650 24499.33161107 0 13.21092575 0 11143.73903805 0 221.05463708 0 -553.21712737 0 6549
0.07950000 0.07947320 24531.07702583 0 610.60273145 0 10398.45775755 0 373.11407533 0 -881.73933031 0 6828
0.08050000 0.08048110 23702.62056175 0 153.73897939 0 9790.79120235 0 1164.05712559 0 658.86564800 0 7147
0.08150000 0.08149960 23562.23772416 0 -17.44350126 0 9869.51763404 0 1407.96955976 0 2246.42198489 0 7386
0.08250000 0.08250610 23207.32618406 0 661.41406884 0 9528.13908736 0 -689.94979149 0 -466.93880203 0 7227
0.08350000 0.08350160 22789.69273451 0 718.98970603 0 9745.39196387 0 -378.73707803 0 2508.92031587 0 7798
0.08450000 0.08449610 22496.51449232 0 55.05434824 0 9344.48801837 0 928.30732731 0 1375.35636376 0 7371
0.08550000 0.08548940 21692.99300799 0 -346.00085483 0 9050.51888695 0 812.69030706 0 1592.47742541 0 8256
0.08650000 0.08650700 21636.53230492 0 214.06185818 0 8951.37213483 0 600.96486747 0 938.72619440 0 8037
0.08750000 0.08749060 21407.28427515 0 940.33213891 0 8140.76560119 0 -836.20058775 0 704.26488648 0 8155
0.08850000 0.08849210 20672.19667801 0 534.28741344 0 9781.06985561 0 -66.94932220 0 52.52591932 0 8718
0.08950000 0.08949900 19805.07451844 0 377.52108585 0 8842.58092798 0 -762.98182076 0 569.24911105 0 8571
0.09050000 0.09049190 19632.72657463 0 -94.69426547 0 8769.96191865 0 1478.97383692 0 -1311.50304335 0 8932
0.09150000 0.09150830 19751.14026706 0 26.10736319 0 8209.83659358 0 896.07309907 0 -210.65554222 0 9285
0.09250000 0.09250820 19350.53290502 0 471.50289194 0 7728.43770020 0 933.58870980 0 462.99314356 0 9204
0.09350000 0.09350330 19166.21177711 0 -133.00230327 0 6866.28056744 0 629.32813233 0 1248.20993614 0 9349
0.09450000 0.09448040 18494.39531803 0 330.08530761 0 6628.18995674 0 1047.57232411 0 1208.68744399 0 9564
0.09550000 0.09549270 18358.51615520 0 402.57799436 0 6419.86753773 0 -361.86587300 0 1972.70840531 0 10155
0.09650000 0.09649430 17440.75511603 0 208.04231240 0 6427.10637106 0 -55.14694819 0 1444.10880355 0 9913
0.09750000 0.09749140 17822.68870468 0 338.91470705 0 6650.66439224 0 177.29649375 0 148.61028245 0 10476
0.09850000 0.09850240 17336.40167650 0 222.13991286 0 6663.54929588 0 -305.91924793 0 1694.85364187 0 10575
0.09950000 0.09950330 17380.77934973 0 38.12184930 0 6729.16014790 0 -255.04420002 0 -736.49911472 0 10882
0.10050000 0.10051200 16913.27594067 0 299.74481969 0 6406.99361867 0 -127.43971572 0 -946.15945467 0 10875
0.10150000 0.10150300 16801.89237470 0 244.39245999 0 6575.06856373 0 -73.68055843 0 -1129.71935170 0 11118
0.10250000 0.10250800 16232.56197781 0 167.28405584 0 6806.74418405 0 -406.51376672 0 -1842.67303509 0 11575
0.10350000 0.10349800 15705.74187680 0 409.57736401 0 6662.98908267 0 15.73166547 0 -1101.48900017 0 11364
0.10450000 0.10450100 15928.50900875 0 215.13724783 0 7634.13514459 0 317.16415488 0 -1643.85227137 0 12093
0.10550000 0.10551000 15633.68308067 0 -16.38118324 0 6894.93931730 0 142.04370496 0 -2109.90571685 0 12067
0.10650000 0.10649700 15555.69261534 0 -62.24276238 0 6313.10847681 0 393.47617752 0 -1746.05273467 0 12054
0.10750000 0.10749900 15553.93508373 0 -198.78231772 0 6612.66875568 0 382.35979007 0 -1483.40061967 0 12807
0.10850000 0.10850100 15528.56072107 0 177.63921241 0 5876.52663957 0 849.86100222 0 -794.69098643 0 12736
0.10950000 0.10950300 15799.65997238 0 167.03800142 0 5460.37610732 0 303.33897183 0 -817.66412152 0 12933
0.11050000 0.11050200 15265.69989920 0 488.89915954 0 5632.81192770 0 -209.29894751 0 -359.94906509 0 13428
0.11150000 0.11150900 14730.75121448 0 179.93828345 0 5853.29426856 0 427.59316150 0 -356.96895055 0 13453
0.11250000 0.11250000 14763.48524078 0 163.31862514 0 5923.29894962 0 509.49413467 0 836.68061358 0 13668
0.11350000 0.11349100 14343.43518527 0 75.89603687 0 5466.43959139 0 241.49472974 0 -67.68561810 0 13791
0.11450000 0.11448600 14276.42929252 0 125.40756979 0 5207.29155505 0 262.66200111 0 947.40620365 0 14205
0.11550000 0.11549300 13841.76975548 0 -126.95639452 0 5098.65413222 0 -39.98571157 0 176.58908727 0 14776
0.11650000 0.11649800 13934.04016516 0 295.60034045 0 4703.24247301 0 84.29725768 0 546.64615605 0 14553
0.11750000 0.11747300 13765.75651321 0 138.63519209 0 4967.35553615 0 -132.23558011 0 -325.68159246 0 14568
0.11850000 0.11849100 13854.62170540 0 98.29907265 0 4777.75082883 0 450.59815186 0 -161.10962759 0 16015
0.11950000 0.11950300 13691.50080256 0 113.92869144 0 4851.74290974 0 433.32051765 0 430.14377926 0 15270
0.12050000 0.12050700 13735.21940144 0 -138.01126837 0 4415.08418048 0 19.43434519 0 178.15329041 0 15999
0.12150000 0.12150000 13913.71870588 0 118.76300183 0 4665.16994444 0 -144.95571516 0 -120.41068772 0 15670
0.12250000 0.12250700 13570.89019562 0 129.39936347 0 4848.74412142 0 -142.88182785 0 259.53908712 0 16887
0.12350000 0.12352200 13478.72963166 0 78.61394967 0 4801.11501471 0 -89.62477538 0 494.72757375 0 16407
0.12450000 0.12449800 13185.66123519 0 72.36933000 0 4999.18882750 0 151.86061748 0 -13.33197574 0 16306
0.12550000 0.12549900 13205.98269447 0 264.40305586 0 5275.54968907 0 303.85524675 0 485.35993025 0 17523
0.12650000 0.12650100 13099.32249470 0 179.77681024 0 4864.50698308 0 145.74440747 0 176.83074787 0 17154
0.12750000 0.12750600 12941.80372389 0 148.67838680 0 4917.77117552 0 329.72501363 0 658.56906454 0 18007
0.12850000 0.12850300 12658.62144274 0 98.29248191 0 4416.11673030 0 207.85777158 0 1027.43430720 0 17496
0.12950000 0.12949900 12538.34037297 0 -50.30879319 0 4478.61894829 0 357.10955308 0 838.80832529 0 18405
0.13050000 0.13049000 12532.07916660 0 127.65391488 0 4163.47156093 0 256.04159921 0 880.26190529 0 18100
0.13150000 0.13148800 12349.51557030 0 52.73781173 0 3847.00602487 0 22.90052707 0 752.32019461 0 19059
0.13250000 0.13249300 12400.26429563 0 -99.72498002 0 3608.97033703 0 387.72795069 0 493.35779755 0 18957
0.13350000 0.13349100 12509.34110136 0 102.01921785 0 3647.87769311 0 80.46913413 0 168.65053667 0 19468
0.13450000 0.13450700 12302.39175393 0 77.85623385 0 3300.57846181 0 -87.46905301 0 626.91482173 0 19953
0.13550000 0.13551000 12428.82418434 0 -22.36382086 0 3296.47023166 0 123.33258403 0 24.72165936 0 19956
0.13650000 0.13649900 12277.12723699 0 61.17132717 0 3276.98359990 0 -6.91991824 0 -485.58511399 0 19723
0.13750000 0.13749600 12280.53245449 0 295.87934859 0 3662.72883524 0 -417.76196904 0 -167.54439021 0 20946
0.13850000 0.13851100 11699.11902776 0 182.10553963 0 3343.84669320 0 -166.18779550 0 -115.49289458 0 20955
0.13950000 0.13949800 11618.82180219 0 177.80178409 0 4105.87944689 0 65.59250779 0 -551.28164568 0 20506
0.14050000 0.14048300 11266.10717660 0 271.90002665 0 3978.40348208 0 -175.96076972 0 -462.80091354 0 21447
0.14150000 0.14148400 11318.28389636 0 204.26032406 0 4014.34500357 0 169.24260513 0 -8.85198372 0 21771
0.14250000 0.14249400 11056.30184030 0 -117.69200601 0 3915.09939030 0 429.54072622 0 -5.34152303 0 22470
0.14350000 0.14350900 11007.42049231 0 107.19306138 0 3801.31020293 0 151.69255352 0 98.80809775 0 22519
0.14450000 0.14449900 10826.18602929 0 212.12308112 0 3793.12669635 0 13.64196038 0 -105.73266246 0 22218
0.14550000 0.14550500 10706.35532700 0 273.71028421 0 3675.80047661 0 -82.05343903 0 -71.19859425 0 23559
0.14650000 0.14650700 10453.79803421 0 -10.28413033 0 3694.95757119 0 194.80370553 0 98.17307961 0 23044
0.14750000 0.14750500 10221.74893843 0 -45.48283108 0 3508.49445163 0 464.18057586 0 -14.87563773 0 23649
0.14850000 0.14849900 10470.65935313 0 73.96088472 0 2964.37364881 0 272.80076160 0 -238.78154032 0 23640
0.14950000 0.14949500 10083.60695365 0 155.89415253 0 2876.49706816 0 341.36646365 0 53.73938506 0 24457
0.15050000 0.15050000 10179.94165519 0 119.31003355 0 2698.48108491 0 15.33940638 0 40.79703210 0 24591
0.15150000 0.15149900 9928.99909457 0 52.48725363 0 2450.97669550 0 7.28533103 0 -11.89387550 0 25020
0.15250000 0.15250500 9814.88037002 0 61.35389077 0 2482.09598963 0 136.20979847 0 -43.17068839 0 25297
0.15350000 0.15350100 9648.36523426 0 63.67251435 0 2101.66728742 0 -127.21563044 0 369.24860424 0 25452
0.15450000 0.15450400 9595.97980762 0 116.00148029 0 2469.33191629 0 285.99872556 0 119.65494913 0 26061
0.15550000 0.15549900 9511.29973759 0 120.94234104 0 2511.18313782 0 -98.31851535 0 142.56327525 0 26128
0.15650000 0.15649500 9296.60626649 0 339.24973652 0 2793.12416227 0 -189.56955669 0 338.65437268 0 26331
0.15750000 0.15749700 9145.54642435 0 94.67196679 0 3037.25628789 0 -188.69298780 0 593.28335586 0 27345
0.15850000 0.15849900 8926.11860246 0 148.65531920 0 3258.13407335 0 -60.09450952 0 332.56891947 0 26980
0.15950000 0.15949700 8733.07572392 0 157.19582438 0 3362.52046659 0 -155.34272699 0 625.70212492 0 27777
0.16050000 0.16050000 8555.41124699 0 221.55223822 0 3863.40599173 0 133.16926878 0 780.48134334 0 28224
0.16150000 0.16150500 8543.71267719 0 -51.53895548 0 3237.27437002 0 290.87038350 0 1005.28501504 0 28075
0.16250000 0.16249700 8645.07831297 0 -178.01598325 0 3135.23867531 0 529.27185760 0 668.02897845 0 28590
0.16350000 0.16349900 8879.50007643 0 77.62962212 0 3050.20709896 0 151.36081943 0 694.99280876 0 29163
0.16450000 0.16449100 8457.91218076 0 233.95711604 0 3006.13699376 0 -308.64232348 0 740.72048596 0 28996
0.16550000 0.16550500 8283.09270812 0 111.52966079 0 2962.25362630 0 -120.08554437 0 790.87604437 0 30777
0.16650000 0.16650700 8351.62545646 0 24.02347993 0 2984.48640121 0 218.85552565 0 742.47691912 0 29211
0.16750000 0.16749900 8194.55705312 0 9.94435553 0 2860.29482360 0 382.45974968 0 760.44218758 0 30922
0.16850000 0.16850800 8349.35164993 0 -123.75768699 0 2522.45330929 0 178.78490333 0 845.66709241 0 30867
0.16950000 0.16949900 8458.57125511 0 -37.20826240 0 2388.28773978 0 312.50669611 0 804.31896429 0 30852
0.17050000 0.17049200 8502.50954544 0 44.18818935 0 2290.79965812 0 39.99977183 0 871.42152128 0 31257
0.17150000 0.17149500 8410.84328724 0 102.87722281 0 2280.14462272 0 -308.88178716 0 599.83455495 0 32608
0.17250000 0.17250900 8371.84805458 0 110.22798894 0 2522.83776933 0 -187.23753194 0 385.53652846 0 32361
0.17350000 0.17350400 8284.60857914 0 -17.19656807 0 2385.25599775 0 27.03599896 0 348.77885323 0 32508
0.17450000 0.17449800 8271.98730524 0 88.54598050 0 2522.96958420 0 17.48018973 0 52.36202950 0 32791
0.17550000 0.17549800 8196.10587785 0 155.22519206 0 2529.25275972 0 -172.32817157 0 -104.66979521 0 33633
0.17650000 0.17650100 8037.77424866 0 118.34558808 0 2494.51954121 0 69.82826883 0 -213.82898524 0 33984
0.17750000 0.17750300 7847.11502237 0 13.18983537 0 2526.47366285 0 -222.22669098 0 -125.52400626 0 34069
0.17850000 0.17849800 7751.71400950 0 198.82735447 0 2732.43439875 0 34.26835139 0 -431.73324691 0 34536
