### header ###
fiducial parameters:
Omega_m = 0.31
Omega_nu = 0
Omega_de = 0.69
Omega_k = 0
H_0 = 100
w_de = -1
zeff = 0
beta = 0
fgrowth = 0
b_1 = 2
gamma = 0.55
Lx = 3500 Ly = 3500 Lz = 3500
nx = 700 ny = 700 nz = 700
xoffset = -983.599254 yoffset = -42.9823471 zoffset = 800.977702
bins = 400 dk = 0.001
kx_ny = 0.628318531 ky_ny = 0.628318531 kz_ny = 0.628318531
############################
A(data) = 9.14037994 (not used)
A(ran) = 9.1548926 (used)
Ngal = 508110
weighted Ngal = 0
Nran = 25229228
weighted Nran = 0
SN(data) = 6656.9194
SN(ran) = 135.898074
SN(data+ran) = 6792.81747
############################
13 columns: k_central k_mean P_0(k) sigma^{lin}_{P_0(k)} P^img_1(k) sigma^{lin}_{P_1(k)} P_2(k) sigma^{lin}_{P_2(k)} P^img_3(k) sigma^{lin}_{P_3(k)} P_4(k) sigma^{lin}_{P_4(k)} N_modes
### header ###
0.00050000 0 0 0 0 0 0 0 0 0 0 0 0
0.00150000 0.00179520 50073.39380350 0 -52501.86310979 0 -54210.29368336 0 40955.42964091 0 -20690.65075994 0 3
0.00250000 0.00253879 45751.62356710 0 -44966.55616471 0 1862.35738916 0 -9183.41024604 0 -7645.61402294 0 6
0.00350000 0.00331552 48642.10399616 0 -3161.93118668 0 -10053.70694708 0 -43983.76645586 0 -7908.24416878 0 7
0.00450000 0.00420575 57126.91739516 0 637.25899373 0 -19444.78053777 0 -10328.35421533 0 21938.16866801 0 24
0.00550000 0.00557378 54077.70989231 0 8393.30092483 0 -706.07953787 0 -19308.24230058 0 -10459.97136400 0 45
0.00650000 0.00659388 59824.17919251 0 12410.37010240 0 2767.05777153 0 -37382.91710028 0 -6127.16163216 0 40
0.00750000 0.00754703 33387.93789817 0 -798.60918347 0 9448.41305956 0 4031.59078252 0 12331.94025417 0 57
0.00850000 0.00846663 49870.50874793 0 -11133.96276845 0 26078.69345682 0 5090.28388791 0 -19005.61732597 0 75
0.00950000 0.00948925 65316.02610028 0 -5266.11394122 0 17828.29083670 0 2963.19829954 0 -8498.44525358 0 112
0.01050000 0.01054430 70112.32987220 0 -9361.77773561 0 19796.06716892 0 -2057.28961419 0 -12783.07665009 0 105
0.01150000 0.01145670 75832.87558111 0 6940.73400039 0 30475.92770686 0 -1997.97292225 0 354.97305371 0 144
0.01250000 0.01249090 79187.34435600 0 4886.76172713 0 45240.07202199 0 -9437.90082360 0 7939.90170696 0 169
0.01350000 0.01339930 82488.86749105 0 -3742.93818423 0 43836.35349182 0 22910.41318718 0 6379.01591230 0 180
0.01450000 0.01448870 77751.77056534 0 -1356.81440525 0 43640.60840842 0 14104.74042307 0 20442.72895678 0 267
0.01550000 0.01550050 77287.23299088 0 3774.24421609 0 26636.38020677 0 9834.23518691 0 21288.76073700 0 238
0.01650000 0.01653350 76151.86756887 0 3679.18372497 0 42467.01667383 0 7700.53688584 0 27145.51514592 0 315
0.01750000 0.01747870 76118.91385113 0 -3681.44654692 0 19893.39048199 0 10898.11301056 0 19938.42722957 0 297
0.01850000 0.01844180 72853.85949705 0 386.43836187 0 19812.87356497 0 18005.36214671 0 20752.38405785 0 388
0.01950000 0.01947590 71081.93809395 0 4406.71393618 0 12521.97335983 0 -15562.06366744 0 11956.48756334 0 399
0.02050000 0.02045430 68428.17520403 0 5755.47664972 0 18913.56660773 0 2017.98681349 0 9078.89203792 0 462
0.02150000 0.02154770 61129.69564380 0 -3248.43469576 0 13316.59734036 0 12835.47306130 0 8682.95311923 0 571
0.02250000 0.02255340 70832.03906773 0 -3704.96451682 0 10755.03895268 0 9049.43141426 0 4823.96292568 0 510
0.02350000 0.02348930 67256.12130960 0 -785.72757520 0 9920.65081940 0 -7462.67695117 0 -1733.33259962 0 555
0.02450000 0.02439640 68725.74727525 0 8021.47314295 0 11696.81226752 0 -8058.28244567 0 6606.53936418 0 592
0.02550000 0.02547300 62986.30810150 0 1066.84365825 0 20139.00552491 0 -4855.32388040 0 4197.90819598 0 837
0.02650000 0.02652900 62361.83515025 0 2663.83574298 0 33573.79686625 0 -3520.39074373 0 2641.24047718 0 723
0.02750000 0.02749970 60940.10192105 0 540.45525095 0 29875.18143238 0 2970.34925629 0 1431.26783820 0 826
0.02850000 0.02848090 65019.99186921 0 -1481.97262524 0 33768.66318384 0 7346.95447902 0 3555.62925257 0 831
0.02950000 0.02946900 64264.03358416 0 1319.11535215 0 30222.73330886 0 -2574.47624503 0 11387.70639508 0 996
0.03050000 0.03053250 61809.86037804 0 2026.77447156 0 34970.15573279 0 3226.80607235 0 6288.95340171 0 1041
0.03150000 0.03150510 62955.55129827 0 817.15553581 0 35441.72343370 0 2406.33539253 0 7613.95648476 0 1036
0.03250000 0.03246190 59004.83992367 0 1063.78555324 0 35298.15507007 0 -1231.49141667 0 1933.83400295 0 1059
0.03350000 0.03345080 54887.71227446 0 3251.25773092 0 31251.76806828 0 1202.11866958 0 5351.45308561 0 1302
0.03450000 0.03451200 56830.44378119 0 446.64370573 0 33773.27670432 0 3188.08545400 0 -307.27254728 0 1339
0.03550000 0.03553350 54912.20787131 0 -918.46185490 0 25408.63452936 0 12482.53874426 0 5657.13177140 0 1365
0.03650000 0.03647120 55582.81602740 0 -743.54461957 0 25121.93718498 0 -2152.65767334 0 -824.95677926 0 1308
0.03750000 0.03744890 52948.49583095 0 3567.96492758 0 18216.59547745 0 4019.44184525 0 1401.11518647 0 1579
0.03850000 0.03847530 53088.32943991 0 412.35096859 0 22644.58653071 0 -2148.94488781 0 -1833.12744152 0 1662
0.03950000 0.03950240 48553.45849542 0 1816.92519696 0 21344.67221144 0 3521.88464560 0 -1244.95850265 0 1683
0.04050000 0.04050350 48000.16557450 0 1223.71433928 0 19990.38425788 0 841.04148889 0 4782.57305619 0 1822
0.04150000 0.04152450 45307.40745191 0 -67.98637569 0 18195.72478954 0 1809.30190359 0 1304.67063920 0 1887
0.04250000 0.04250150 46090.60747696 0 483.56724800 0 18092.90919018 0 5047.43307027 0 6854.83464281 0 1920
0.04350000 0.04349210 44324.83743451 0 337.28349802 0 16329.44590797 0 2611.79083809 0 8328.83246835 0 2005
0.04450000 0.04448520 43658.51326173 0 786.56240272 0 15428.93064775 0 -737.56242135 0 4950.72489327 0 2151
0.04550000 0.04548030 41625.04918547 0 2644.30517293 0 17487.32970377 0 -1607.31758297 0 4471.75359043 0 2274
0.04650000 0.04648670 42061.35640840 0 675.72916383 0 20748.10007454 0 908.22313480 0 8098.13447500 0 2311
0.04750000 0.04749250 41835.95297903 0 -646.50361002 0 19712.91395448 0 1906.44946350 0 6386.38656050 0 2568
0.04850000 0.04851840 40558.44718782 0 -359.20540953 0 20230.61686024 0 350.49793884 0 5590.93873702 0 2493
0.04950000 0.04949480 41299.79599133 0 1526.30636018 0 18430.68479706 0 717.62102828 0 2592.79851210 0 2644
0.05050000 0.05050630 40643.90716250 0 791.91408648 0 19144.46232339 0 -636.51533817 0 7138.77485946 0 2829
0.05150000 0.05149060 40203.20611054 0 74.17200821 0 19097.11881557 0 155.71730091 0 4882.88417300 0 2784
0.05250000 0.05249300 39951.54955270 0 691.06582407 0 20088.36664531 0 -470.70541197 0 -3654.47942123 0 3055
0.05350000 0.05348950 37509.34953069 0 2004.15723661 0 21082.69015537 0 -1896.05805784 0 1013.91010143 0 3009
0.05450000 0.05448610 36716.70277322 0 725.56946500 0 20849.59752520 0 -1029.50050530 0 -3456.94385250 0 3336
0.05550000 0.05550870 34894.47202770 0 445.34532925 0 21571.39378952 0 1042.50953461 0 -3208.12131439 0 3349
0.05650000 0.05647670 34564.05608445 0 1676.31168335 0 20928.24706488 0 3266.17478048 0 -6646.90766841 0 3324
0.05750000 0.05747970 32745.23055644 0 1205.16139619 0 19450.05313261 0 111.08588406 0 -116.57926881 0 3639
0.05850000 0.05849280 31625.46322749 0 -177.53046515 0 18925.86932903 0 3711.52230665 0 -382.33562401 0 3846
0.05950000 0.05951020 32263.44720302 0 -809.69151874 0 16106.34923885 0 4884.04853770 0 3267.28422231 0 3787
0.06050000 0.06049470 32375.70953480 0 -1419.89880558 0 12834.48444977 0 2994.21873251 0 3165.11671273 0 3930
0.06150000 0.06148310 32716.67066772 0 351.74139246 0 10848.34191219 0 2409.21335055 0 5685.70264468 0 4083
0.06250000 0.06249100 32951.85036669 0 1466.15484072 0 11118.91390401 0 -598.38349291 0 5800.32665957 0 4303
0.06350000 0.06350600 30851.70993486 0 921.64628249 0 10909.63582719 0 -2233.43822010 0 3689.98155982 0 4470
0.06450000 0.06451750 30772.51116655 0 636.98108405 0 13346.58522351 0 618.00523491 0 7191.44588499 0 4479
0.06550000 0.06550280 29589.91208244 0 82.36111691 0 14148.34917622 0 1433.97004306 0 4224.67759936 0 4636
0.06650000 0.06648880 29345.61518824 0 -383.85588886 0 11326.85186298 0 1919.37830543 0 6243.33447178 0 4653
0.06750000 0.06749660 29598.48004906 0 643.28403179 0 12492.64455104 0 412.77826846 0 4027.84504327 0 5220
0.06850000 0.06852730 29188.86533750 0 951.19588119 0 12028.76605093 0 -580.90374256 0 4563.74938580 0 5029
0.06950000 0.06949320 28547.25645302 0 -111.26273568 0 12888.52854687 0 -274.16614397 0 4672.26597833 0 5040
0.07050000 0.07048030 26969.65213889 0 492.51637929 0 13310.11644254 0 -82.52017352 0 4558.07036177 0 5475
0.07150000 0.07148790 27027.87037357 0 71.77297756 0 11474.26482702 0 1719.95339021 0 5066.76591802 0 5509
0.07250000 0.07249820 27682.22136224 0 151.64422140 0 11579.27734090 0 2070.38322470 0 3629.46754946 0 5916
0.07350000 0.07351270 27137.16687076 0 339.21568434 0 10211.74199281 0 1050.75675170 0 4335.62178243 0 5721
0.07450000 0.07449140 26382.63658014 0 956.01041936 0 10626.27779288 0 -95.59961394 0 5814.16722102 0 6028
0.07550000 0.07549160 26011.13833544 0 321.70078336 0 11383.53225750 0 -166.72494110 0 4358.17310994 0 6183
0.07650000 0.07648840 25248.80899830 0 211.57714786 0 11074.09684788 0 -231.79095833 0 3693.38677732 0 6330
0.07750000 0.07749960 24948.38093820 0 -310.82825342 0 10548.18846640 0 644.44400266 0 3552.97098601 0 6583
0.07850000 0.07848650 24856.00068279 0 -223.00989100 0 9266.90398223 0 1588.86350103 0 3590.62610082 0 6549
0.07950000 0.07947320 25274.62274386 0 103.66426744 0 8725.32061568 0 847.32246749 0 2315.83349903 0 6828
0.08050000 0.08048110 24688.92533383 0 1045.14912740 0 8036.21443936 0 -107.78040648 0 3004.39044672 0 7147
0.08150000 0.08149960 24078.95201839 0 483.04108698 0 8730.47238022 0 -718.82054361 0 1736.97947772 0 7386
0.08250000 0.08250610 23377.03783044 0 498.33380893 0 9642.94983998 0 278.34028155 0 2079.23679020 0 7227
0.08350000 0.08350160 22619.76139668 0 448.06071559 0 9356.64794022 0 -1011.83401722 0 256.92146348 0 7798
0.08450000 0.08449610 21755.49522598 0 611.74512700 0 9776.73094944 0 -322.85526194 0 1253.88896016 0 7371
0.08550000 0.08548940 21588.31003129 0 254.64875541 0 9601.51603220 0 265.80688424 0 29.95899372 0 8256
0.08650000 0.08650700 20904.52038810 0 -291.26802502 0 9365.40264456 0 1731.14666967 0 1966.97445842 0 8037
0.08750000 0.08749060 21251.96241885 0 239.44940233 0 8858.10212904 0 643.89697094 0 -121.75849478 0 8155
0.08850000 0.08849210 20893.42596980 0 529.84415383 0 8538.44008235 0 151.49373276 0 1279.06560052 0 8718
0.08950000 0.08949900 20448.44093453 0 447.62682498 0 8396.47546631 0 909.36443189 0 2351.93978911 0 8571
0.09050000 0.09049190 20216.44676161 0 -247.72188394 0 8185.02244412 0 204.29327778 0 1856.20602851 0 8932
0.09150000 0.09150830 20285.21018597 0 109.82210898 0 8085.18366393 0 -3.85194908 0 2005.25569387 0 9285
0.09250000 0.09250820 19498.71478914 0 501.78955546 0 7925.29222543 0 -291.45586122 0 1168.43997005 0 9204
0.09350000 0.09350330 19531.33896971 0 309.83305114 0 8422.88237879 0 -56.15950609 0 1783.29043572 0 9349
0.09450000 0.09448040 19286.49284687 0 34.37072761 0 8530.64103582 0 -388.29585309 0 1020.72163489 0 9564
0.09550000 0.09549270 19055.81682266 0 242.73488799 0 8223.75404704 0 1180.43512331 0 862.81840403 0 10155
0.09650000 0.09649430 18854.14007007 0 187.92187081 0 7595.16188107 0 1036.52733638 0 1084.21685824 0 9913
0.09750000 0.09749140 18327.97904342 0 15.95014862 0 6812.03874803 0 165.67152059 0 1280.63639440 0 10476
0.09850000 0.09850240 18077.09140566 0 763.35309931 0 6731.44493900 0 1079.77469709 0 2342.22942695 0 10575
0.09950000 0.09950330 17166.25064722 0 44.18687120 0 5990.49158010 0 556.04126098 0 3108.63404052 0 10882
0.10050000 0.10051200 17221.39320158 0 -0.67330487 0 5186.39889800 0 1284.25031878 0 2722.14185425 0 10875
0.10150000 0.10150300 17485.13278926 0 218.86321485 0 4964.15902553 0 186.15774845 0 1657.38526479 0 11118
0.10250000 0.10250800 16165.88562224 0 468.65788764 0 4546.86609774 0 -730.65202674 0 2163.12597101 0 11575
0.10350000 0.10349800 16006.60931981 0 239.30001214 0 5762.58366818 0 -608.25313138 0 2233.41625096 0 11364
0.10450000 0.10450100 16084.38009368 0 51.32618431 0 4721.33406405 0 220.64491253 0 857.36895758 0 12093
0.10550000 0.10551000 15591.17278478 0 168.61209067 0 5753.11496662 0 369.29144407 0 1218.38682158 0 12067
0.10650000 0.10649700 15944.87602190 0 -169.77425845 0 4397.17932717 0 247.48461717 0 487.63044140 0 12054
0.10750000 0.10749900 16086.57700820 0 253.50745832 0 5403.43208306 0 91.84706426 0 363.10932662 0 12807
0.10850000 0.10850100 15611.71393551 0 219.78482049 0 5091.49219090 0 -408.33171348 0 1364.80018951 0 12736
0.10950000 0.10950300 15406.74181114 0 13.93030541 0 5489.02387261 0 -71.55174826 0 1343.62193358 0 12933
0.11050000 0.11050200 15067.42836410 0 280.52071921 0 5443.00949807 0 254.17861570 0 576.01560776 0 13428
0.11150000 0.11150900 15064.79206668 0 150.20194702 0 5540.45364144 0 93.31701976 0 1041.65383640 0 13453
0.11250000 0.11250000 15085.55290886 0 105.38038721 0 5785.44256372 0 425.41931459 0 1172.29555503 0 13668
0.11350000 0.11349100 15005.36552902 0 11.03565084 0 5566.94843051 0 -44.66854471 0 2035.94658966 0 13791
0.11450000 0.11448600 14455.80736277 0 164.13368042 0 5520.12119759 0 185.31193636 0 1299.83742727 0 14205
0.11550000 0.11549300 14475.79928487 0 377.50570745 0 5350.08001403 0 160.39343346 0 1060.85047544 0 14776
0.11650000 0.11649800 14607.72400157 0 -22.90261414 0 5435.25438983 0 444.15570004 0 868.95438628 0 14553
0.11750000 0.11747300 14221.28673816 0 162.25312160 0 5259.75387370 0 -286.11186665 0 575.39168404 0 14568
0.11850000 0.11849100 13859.78445451 0 147.05926080 0 4955.10773773 0 -198.70103188 0 921.05750940 0 16015
0.11950000 0.11950300 13901.19629314 0 2.54779472 0 4532.73993740 0 504.61368907 0 984.23747552 0 15270
0.12050000 0.12050700 13945.90350355 0 -22.89898923 0 4573.31694852 0 682.24960611 0 72.75192266 0 15999
0.12150000 0.12150000 13889.11326330 0 -66.79290188 0 3825.08081799 0 409.97171017 0 288.67896127 0 15670
0.12250000 0.12250700 13610.76419409 0 311.34233142 0 4114.97467299 0 -535.13432399 0 -735.54565382 0 16887
0.12350000 0.12352200 13247.06499592 0 544.18780871 0 4505.09176821 0 -388.66273782 0 177.03396246 0 16407
0.12450000 0.12449800 13034.95289938 0 -97.92329043 0 4472.16001961 0 64.35136094 0 -143.21356194 0 16306
0.12550000 0.12549900 12976.40512752 0 -17.44756555 0 4510.37534763 0 390.29065147 0 36.49646209 0 17523
0.12650000 0.12650100 12946.52709010 0 167.68609120 0 4623.50546064 0 338.08647028 0 68.92478773 0 17154
0.12750000 0.12750600 12993.65090647 0 -107.07003417 0 4622.47291082 0 -110.09946944 0 318.45154679 0 18007
0.12850000 0.12850300 13136.23065858 0 165.10142127 0 4493.94242704 0 205.79047503 0 63.19589375 0 17496
0.12950000 0.12949900 13263.43200907 0 106.38229008 0 4731.49479369 0 -418.01351575 0 755.69465531 0 18405
0.13050000 0.13049000 12738.03990250 0 -21.36960719 0 4820.59066190 0 -124.80231984 0 679.33210364 0 18100
0.13150000 0.13148800 12767.69824847 0 214.23431597 0 4845.88813255 0 342.74063368 0 354.84014038 0 19059
0.13250000 0.13249300 12622.04281604 0 159.54322754 0 4993.60866462 0 107.66781461 0 646.61345574 0 18957
0.13350000 0.13349100 12535.26469265 0 98.28863731 0 5016.47854474 0 166.94902638 0 1205.35911850 0 19468
0.13450000 0.13450700 12497.25807152 0 7.29735913 0 4642.42089463 0 538.52306463 0 362.37885254 0 19953
0.13550000 0.13551000 12429.37341297 0 189.87163244 0 4589.51919307 0 -24.17869194 0 443.31098641 0 19956
0.13650000 0.13649900 12133.88841053 0 204.32183767 0 4314.81700196 0 -328.48705230 0 516.12991497 0 19723
0.13750000 0.13749600 11855.42949559 0 152.76354935 0 4352.10962587 0 339.01356821 0 860.59402809 0 20946
0.13850000 0.13851100 11709.88390889 0 -43.76012056 0 4015.87185916 0 275.14157402 0 391.28365683 0 20955
0.13950000 0.13949800 11519.52126605 0 155.81066978 0 4294.16600551 0 89.67145981 0 346.35455806 0 20506
0.14050000 0.14048300 11619.15133937 0 309.63093501 0 4105.53892514 0 33.26425161 0 331.39027483 0 21447
0.14150000 0.14148400 11256.88013563 0 29.09648508 0 4139.31648583 0 -34.34645170 0 509.24258796 0 21771
0.14250000 0.14249400 11019.50352215 0 114.58337197 0 4238.52914538 0 -91.58035883 0 213.48846349 0 22470
0.14350000 0.14350900 10846.04613652 0 200.67935340 0 3928.95093632 0 1.25730516 0 -248.02176277 0 22519
0.14450000 0.14449900 10913.87587221 0 130.56812199 0 4496.13934156 0 85.61606546 0 115.55550664 0 22218
0.14550000 0.14550500 10600.12352557 0 91.48819827 0 3896.79909238 0 130.68455846 0 -113.07958398 0 23559
0.14650000 0.14650700 10611.59141934 0 -54.63506711 0 3932.10350865 0 319.57856394 0 156.42580584 0 23044
0.14750000 0.14750500 10434.26746416 0 182.53503641 0 3861.97799729 0 104.46438371 0 -497.62640245 0 23649
0.14850000 0.14849900 10344.01821583 0 145.78614884 0 3708.54548748 0 -46.22000574 0 33.73120579 0 23640
0.14950000 0.14949500 10155.21538231 0 81.06285028 0 3681.92986811 0 107.95802702 0 79.88717148 0 24457
0.15050000 0.15050000 10224.84658790 0 -57.98646020 0 3469.07082063 0 492.47024408 0 -4.04265225 0 24591
0.15150000 0.15149900 10030.39768406 0 30.76383335 0 3043.05614221 0 568.39890514 0 664.06904003 0 25020
0.15250000 0.15250500 10199.73585498 0 149.07492987 0 2986.19999453 0 76.97230529 0 348.89858507 0 25297
0.15350000 0.15350100 9836.36619399 0 189.49815697 0 2929.05824796 0 -99.24056037 0 577.56443250 0 25452
0.15450000 0.15450400 9759.01283387 0 95.73164850 0 3040.30999906 0 162.31463521 0 887.81050357 0 26061
0.15550000 0.15549900 9698.11436348 0 -43.04546427 0 2746.43972880 0 -26.57508629 0 527.31001294 0 26128
0.15650000 0.15649500 9534.01583369 0 214.18378693 0 2912.39465135 0 -258.40218386 0 149.30560590 0 26331
0.15750000 0.15749700 9142.84421949 0 329.56573733 0 3001.86399503 0 -256.11519585 0 550.91585942 0 27345
0.15850000 0.15849900 9024.62824937 0 -1.32011495 0 3061.60908530 0 281.68728082 0 213.06775436 0 26980
0.15950000 0.15949700 8985.56710927 0 41.21620339 0 2842.06043312 0 452.99278868 0 -39.39177573 0 27777
0.16050000 0.16050000 8902.67752457 0 114.71408838 0 2596.01699187 0 20.11450993 0 275.52823097 0 28224
0.16150000 0.16150500 8909.02660753 0 57.77237088 0 2574.92661251 0 76.71845182 0 190.27806163 0 28075
0.16250000 0.16249700 8786.69142269 0 -64.70781032 0 2600.32294432 0 116.88024609 0 539.50179005 0 28590
0.16350000 0.16349900 8878.02814370 0 13.31802533 0 2299.42254760 0 165.65284681 0 -255.65274534 0 29163
0.16450000 0.16449100 8773.04858354 0 229.94335322 0 2287.92170011 0 -362.28548368 0 -50.16621344 0 28996
0.16550000 0.16550500 8498.00587068 0 218.04156883 0 2633.48536894 0 -250.36587056 0 -240.47645987 0 30777
0.16650000 0.16650700 8464.76655405 0 -7.84247953 0 2681.48795112 0 475.96262841 0 251.13369218 0 29211
0.16750000 0.16749900 8568.82341011 0 -166.45142524 0 2496.39790313 0 354.02947892 0 -187.12219392 0 30922
0.16850000 0.16850800 8461.62496629 0 49.63093522 0 2246.16933972 0 -89.42694322 0 28.13401683 0 30867
0.16950000 0.16949900 8393.92704547 0 174.17467822 0 2153.23985569 0 -39.65529563 0 -20.24500665 0 30852
0.17050000 0.17049200 8292.59436341 0 90.50332149 0 2289.29477168 0 -50.56264667 0 343.74462362 0 31257
0.17150000 0.17149500 8152.88158474 0 104.99065458 0 2264.30486906 0 210.83898458 0 -58.23075709 0 32608
0.17250000 0.17250900 8097.13487889 0 124.40797368 0 2287.22967203 0 -171.66250647 0 141.61750355 0 32361
0.17350000 0.17350400 8030.62329191 0 61.25909391 0 2213.97355749 0 289.15898709 0 39.78820896 0 32508
0.17450000 0.17449800 7880.48615387 0 101.42297525 0 2467.03614062 0 7.04686694 0 250.31863690 0 32791
0.17550000 0.17549800 7868.01866399 0 13.80486159 0 2283.86839282 0 -50.01594449 0 310.84253336 0 33633
0.17650000 0.17650100 7695.61579733 0 -44.51530992 0 2190.46657216 0 47.28737666 0 149.76366257 0 33984
0.17750000 0.17750300 7929.45537844 0 102.48924771 0 2008.15562103 0 397.92822479 0 375.42193403 0 34069
0.17850000 0.17849800 7812.85414049 0 -33.84950964 0 1831.87520025 0 89.84479637 0 542.63019632 0 34536
