### header ###
fiducial parameters:
Omega_m = 0.31
Omega_nu = 0
Omega_de = 0.69
Omega_k = 0
H_0 = 100
w_de = -1
zeff = 0
beta = 0
fgrowth = 0
b_1 = 2
gamma = 0.55
Lx = 3500 Ly = 3500 Lz = 3500
nx = 700 ny = 700 nz = 700
xoffset = -983.599254 yoffset = -42.9823471 zoffset = 800.977702
bins = 400 dk = 0.001
kx_ny = 0.628318531 ky_ny = 0.628318531 kz_ny = 0.628318531
############################
A(data) = 8.99074689 (not used)
A(ran) = 8.97853515 (used)
Ngal = 498442
weighted Ngal = 0
Nran = 25229228
weighted Nran = 0
SN(data) = 6801.33791
SN(ran) = 133.280169
SN(data+ran) = 6934.61808
############################
13 columns: k_central k_mean P_0(k) sigma^{lin}_{P_0(k)} P^img_1(k) sigma^{lin}_{P_1(k)} P_2(k) sigma^{lin}_{P_2(k)} P^img_3(k) sigma^{lin}_{P_3(k)} P_4(k) sigma^{lin}_{P_4(k)} N_modes
### header ###
0.00050000 0 0 0 0 0 0 0 0 0 0 0 0
0.00150000 0.00179520 70071.90664510 0 7930.14740651 0 32402.73158335 0 17974.38565203 0 134094.16978675 0 3
0.00250000 0.00253879 72321.98649266 0 30647.39688485 0 40041.29351069 0 6782.89667697 0 -23928.35352829 0 6
0.00350000 0.00331552 81700.39487116 0 3468.27993141 0 51664.06975901 0 -65176.52202850 0 -63601.44416606 0 7
0.00450000 0.00420575 69040.89466261 0 -798.68278010 0 5473.63448643 0 46944.76784089 0 12595.78968757 0 24
0.00550000 0.00557378 73811.82407187 0 -4814.31847095 0 6020.46847867 0 5752.46687683 0 5157.59734869 0 45
0.00650000 0.00659388 55216.04114891 0 1851.73530747 0 4918.59501847 0 2067.60412784 0 25821.98399559 0 40
0.00750000 0.00754703 90894.15258457 0 8318.58386213 0 -4911.01566338 0 4211.19952880 0 -12592.16477862 0 57
0.00850000 0.00846663 69572.21843837 0 -1566.82844843 0 22702.58507394 0 -24234.49356614 0 -2087.16765161 0 75
0.00950000 0.00948925 61870.27552724 0 13135.79127567 0 24666.40696004 0 -20488.31493300 0 -8199.75275595 0 112
0.01050000 0.01054430 51887.71565677 0 -1007.44677893 0 18719.13967304 0 25106.11940047 0 -8019.03456784 0 105
0.01150000 0.01145670 65363.25976238 0 -15794.16768608 0 12743.42234307 0 20671.86714083 0 -24860.72404900 0 144
0.01250000 0.01249090 76961.21087667 0 -7599.91820100 0 -1431.43260679 0 4587.23440198 0 -25293.62605443 0 169
0.01350000 0.01339930 89139.25726897 0 4078.49490744 0 8029.48089637 0 -5121.07364486 0 -14480.30295963 0 180
0.01450000 0.01448870 76726.47056060 0 3368.25441348 0 -7364.91425519 0 -13837.26608072 0 -10945.58833325 0 267
0.01550000 0.01550050 78796.07388065 0 2717.74802521 0 16555.72810315 0 -3195.42314849 0 -3299.90840288 0 238
0.01650000 0.01653350 71549.88088592 0 47.70105566 0 15455.95269630 0 -3900.05052586 0 -18894.89283435 0 315
0.01750000 0.01747870 74564.92636804 0 -3187.03093503 0 19207.73346146 0 15931.25515190 0 1977.62949383 0 297
0.01850000 0.01844180 76660.56312511 0 2314.69110349 0 12205.06844086 0 -11246.22510023 0 -18371.91733375 0 388
0.01950000 0.01947590 77773.95940196 0 5683.25308500 0 24459.12807543 0 -7106.11772518 0 8163.41578985 0 399
0.02050000 0.02045430 71380.16923954 0 1774.48080851 0 30922.56042801 0 -131.02398175 0 4749.50949272 0 462
0.02150000 0.02154770 72412.27967928 0 -3645.20844197 0 27249.31935681 0 8635.41188910 0 2842.82935320 0 571
0.02250000 0.02255340 77515.05302622 0 715.56251938 0 24029.30175032 0 15918.95243061 0 1644.72005260 0 510
0.02350000 0.02348930 73045.43044287 0 2243.11562855 0 25958.74192423 0 3347.51554045 0 4737.51433946 0 555
0.02450000 0.02439640 71104.34662202 0 1198.84526696 0 28435.10396697 0 -302.16032720 0 11548.85007485 0 592
0.02550000 0.02547300 67730.76469084 0 7335.42067781 0 29502.25519325 0 -6659.57288060 0 1219.59512456 0 837
0.02650000 0.02652900 65589.32226610 0 2417.53965656 0 31413.02159377 0 -5031.94482293 0 7854.94702262 0 723
0.02750000 0.02749970 59706.09503726 0 -3944.32933794 0 27210.76350705 0 8534.79320425 0 -5817.59440767 0 826
0.02850000 0.02848090 63254.66120966 0 553.78942360 0 25851.42265011 0 6792.13470251 0 -588.43256861 0 831
0.02950000 0.02946900 58342.36035129 0 3684.88471814 0 21943.66095430 0 -2233.75677271 0 -5706.74908575 0 996
0.03050000 0.03053250 56330.42603729 0 5729.57502757 0 26282.67696965 0 -1639.06299773 0 -2807.34918376 0 1041
0.03150000 0.03150510 52352.03353978 0 2274.77316673 0 30415.62240338 0 2099.19575859 0 1399.57734631 0 1036
0.03250000 0.03246190 55473.08014732 0 -4465.47041491 0 28070.30631154 0 7848.75172368 0 583.50488935 0 1059
0.03350000 0.03345080 57108.35346750 0 -4633.50142169 0 18497.14146118 0 8207.28817274 0 1842.25562133 0 1302
0.03450000 0.03451200 57391.20621147 0 597.88589177 0 17069.14702560 0 3418.28914159 0 5489.44128637 0 1339
0.03550000 0.03553350 58239.65459765 0 4197.07336846 0 15455.18377622 0 -3110.16089611 0 11282.14465257 0 1365
0.03650000 0.03647120 51415.59872722 0 2190.07112755 0 20625.40239881 0 -2135.37894067 0 7401.28417501 0 1308
0.03750000 0.03744890 51386.48960988 0 3835.68093053 0 23546.52978537 0 2341.11998512 0 4915.20078554 0 1579
0.03850000 0.03847530 49547.78200549 0 1212.63090554 0 24948.16124675 0 2536.93097595 0 10851.42857708 0 1662
0.03950000 0.03950240 46372.58145512 0 -1613.42500532 0 24980.89527304 0 1874.07792810 0 8299.54759785 0 1683
0.04050000 0.04050350 46432.00799279 0 881.45592833 0 19671.83165302 0 1697.33615527 0 4438.45935094 0 1822
0.04150000 0.04152450 46524.38824820 0 -141.22755122 0 15833.60230165 0 2263.75564043 0 8376.06613045 0 1887
0.04250000 0.04250150 43871.28443263 0 -506.55466305 0 15235.27263315 0 -52.79174598 0 1642.74282954 0 1920
0.04350000 0.04349210 46953.44565323 0 1346.25823100 0 15408.93872566 0 1832.80888891 0 876.29537613 0 2005
0.04450000 0.04448520 43459.58265228 0 1590.92860067 0 16241.67917305 0 -2128.51358280 0 -467.95267808 0 2151
0.04550000 0.04548030 43104.12188355 0 2127.42611012 0 17561.80510587 0 -1671.05007308 0 -4400.28796122 0 2274
0.04650000 0.04648670 40393.01952474 0 567.84088885 0 18359.28507528 0 -1316.39117815 0 -2446.13249899 0 2311
0.04750000 0.04749250 40740.79109267 0 -657.98578374 0 16810.68003276 0 3417.25659177 0 -1795.59315701 0 2568
0.04850000 0.04851840 40260.98496232 0 763.05431894 0 17985.80960751 0 1288.52331751 0 -3027.10654282 0 2493
0.04950000 0.04949480 41127.00866463 0 648.55223280 0 17549.50238458 0 -360.20610409 0 -2697.37164307 0 2644
0.05050000 0.05050630 37910.28642991 0 2022.32571966 0 17106.16503520 0 1148.29426394 0 474.51596020 0 2829
0.05150000 0.05149060 36283.58107634 0 10.44337367 0 17822.35916750 0 593.78535083 0 1025.09349478 0 2784
0.05250000 0.05249300 36613.99701958 0 -173.68147091 0 16635.80563727 0 4084.04211660 0 2167.95918294 0 3055
0.05350000 0.05348950 36849.06687283 0 569.71046310 0 14770.62521295 0 340.30974777 0 -114.91620452 0 3009
0.05450000 0.05448610 35010.35926843 0 1686.05499923 0 15146.62713241 0 -2176.06579751 0 -1466.00105671 0 3336
0.05550000 0.05550870 33521.18076358 0 352.83984971 0 17463.60302700 0 -1819.16604977 0 746.15784939 0 3349
0.05650000 0.05647670 33673.42693956 0 -182.98869926 0 15764.94872302 0 3058.21485237 0 -2236.68965359 0 3324
0.05750000 0.05747970 34602.83162567 0 49.44101196 0 13584.07168272 0 1811.67457127 0 -2439.03646511 0 3639
0.05850000 0.05849280 33546.22558907 0 197.16978246 0 13743.56767660 0 1264.14855095 0 -2168.37659670 0 3846
0.05950000 0.05951020 32844.86062975 0 392.53809502 0 14838.50987151 0 -1782.35674705 0 -1354.72733646 0 3787
0.06050000 0.06049470 32674.59975474 0 1149.08515316 0 14503.80994495 0 271.04652536 0 -1906.99869213 0 3930
0.06150000 0.06148310 31363.59101715 0 584.29028629 0 14206.01818227 0 -139.59634219 0 -1454.19264118 0 4083
0.06250000 0.06249100 31225.95432271 0 324.14704767 0 15772.63792382 0 228.67573354 0 -1565.68605288 0 4303
0.06350000 0.06350600 30766.14011446 0 639.94032790 0 13913.71870588 0 2413.36551898 0 -13.97567170 0 4470
0.06450000 0.06451750 30188.79097958 0 -86.06203911 0 14827.08591602 0 1297.29999100 0 2155.35987819 0 4479
0.06550000 0.06550280 30753.06847308 0 -186.96840991 0 12142.23668569 0 2781.62331477 0 1411.56151499 0 4636
0.06650000 0.06648880 30573.58055710 0 66.14206596 0 11842.24800849 0 487.62055529 0 2222.92598414 0 4653
0.06750000 0.06749660 28776.61432852 0 590.17362336 0 9768.93190291 0 658.65035038 0 2834.87652265 0 5220
0.06850000 0.06852730 29096.48508209 0 1103.09274776 0 13328.46067875 0 -580.86969039 0 4908.54413455 0 5029
0.06950000 0.06949320 27528.10780893 0 369.89010328 0 11918.59078793 0 -405.14838435 0 3604.13712509 0 5040
0.07050000 0.07048030 27956.17660242 0 -235.99036042 0 10918.61022299 0 3789.68852514 0 2906.24329071 0 5475
0.07150000 0.07148790 28808.68928046 0 -1120.43738787 0 8340.37725413 0 1564.55464191 0 5363.20657827 0 5509
0.07250000 0.07249820 28478.16349149 0 237.98625726 0 7733.54552645 0 1579.88910523 0 4242.72525211 0 5916
0.07350000 0.07351270 28717.95671094 0 704.08254258 0 8699.02354892 0 -1002.26425758 0 3207.29747145 0 5721
0.07450000 0.07449140 27289.52289246 0 1036.09234730 0 7758.62330565 0 -1953.59524902 0 4577.88653071 0 6028
0.07550000 0.07549160 26165.47158021 0 330.04027086 0 8704.28515918 0 1363.76763969 0 4022.78115531 0 6183
0.07650000 0.07648840 26134.16554835 0 -486.23430223 0 8001.00888423 0 1655.57281031 0 4017.37674560 0 6330
0.07750000 0.07749960 26713.05252339 0 -37.18892955 0 7575.27980470 0 790.70138967 0 2695.80084920 0 6583
0.07850000 0.07848650 26123.07113005 0 842.13994615 0 6047.12803633 0 -85.76622457 0 2475.53819979 0 6549
0.07950000 0.07947320 25505.62830525 0 543.39911640 0 6929.38693692 0 -1303.76990425 0 1496.18666216 0 6828
0.08050000 0.08048110 24687.05795649 0 970.94394578 0 8645.11126669 0 -1206.38068375 0 460.59630982 0 7147
0.08150000 0.08149960 23307.61533172 0 549.54498476 0 8503.56406440 0 -75.97073197 0 -290.43429597 0 7386
0.08250000 0.08250610 22514.74888280 0 204.14169068 0 7574.36808517 0 814.01504651 0 458.06656276 0 7227
0.08350000 0.08350160 22849.66850081 0 -858.87384402 0 7030.74158812 0 1229.77782334 0 -811.72036930 0 7798
0.08450000 0.08449610 22479.26871336 0 624.97274930 0 5852.20679587 0 1719.54696103 0 -1094.53796264 0 7371
0.08550000 0.08548940 21541.84528927 0 1010.98051593 0 5550.41664877 0 -102.35600484 0 2371.42642087 0 8256
0.08650000 0.08650700 21993.75060527 0 176.88896611 0 4958.78756954 0 1166.25404011 0 1518.66109766 0 8037
0.08750000 0.08749060 21313.69571676 0 101.37596128 0 5973.60829204 0 437.89229675 0 1314.73250769 0 8155
0.08850000 0.08849210 20854.76027431 0 201.27581569 0 4414.79858160 0 -124.85284887 0 1610.10766440 0 8718
0.08950000 0.08949900 20493.25799066 0 330.89596907 0 5377.75015237 0 -344.40040260 0 3391.92616739 0 8571
0.09050000 0.09049190 19663.04399496 0 257.86284135 0 5531.24856962 0 -813.33619993 0 1758.22364109 0 8932
0.09150000 0.09150830 19159.84072501 0 960.88207730 0 6656.29947797 0 -402.19243587 0 1477.43599676 0 9285
0.09250000 0.09250820 18446.06319867 0 609.17913084 0 7308.09106123 0 -342.78896580 0 2115.82640147 0 9204
0.09350000 0.09350330 18374.99301407 0 -30.71055818 0 7761.66603226 0 722.03792492 0 1666.23883029 0 9349
0.09450000 0.09448040 18395.31447335 0 -78.50783870 0 7051.07403197 0 663.94601282 0 2023.12759346 0 9564
0.09550000 0.09549270 18360.71306972 0 196.43052073 0 6917.51261396 0 -206.53852442 0 1762.71633127 0 10155
0.09650000 0.09649430 17710.53621863 0 244.86919044 0 6886.16264381 0 464.60787573 0 2274.74021301 0 9913
0.09750000 0.09749140 17983.17331009 0 -164.02273624 0 7151.53893280 0 145.09961306 0 1914.19358717 0 10476
0.09850000 0.09850240 17705.48331524 0 259.85873819 0 6201.20863593 0 494.89014542 0 1883.29398450 0 10575
0.09950000 0.09950330 17703.17655500 0 322.24232279 0 6473.97754227 0 565.26171121 0 1697.90735304 0 10882
0.10050000 0.10051200 17221.94243021 0 244.94059016 0 6681.58596405 0 -408.27349525 0 1924.13462536 0 10875
0.10150000 0.10150300 16744.44306010 0 262.77514221 0 6276.48591183 0 -357.81695955 0 1819.38574122 0 11118
0.10250000 0.10250800 16608.23436009 0 226.76661483 0 6966.33903908 0 -0.07129800 0 1052.29898569 0 11575
0.10350000 0.10349800 16195.54396821 0 125.77335606 0 6498.78070715 0 381.75673703 0 1668.56755968 0 11364
0.10450000 0.10450100 16328.56714217 0 -123.31720563 0 5807.14807914 0 982.91603144 0 1223.98895359 0 12093
0.10550000 0.10551000 16553.75088008 0 -237.22063255 0 5340.29275986 0 1000.17169651 0 993.65784496 0 12067
0.10650000 0.10649700 16365.47530604 0 444.06233117 0 4827.04959057 0 672.41292137 0 585.36897132 0 12054
0.10750000 0.10749900 15734.74114842 0 359.23396941 0 4609.25847000 0 -611.09923413 0 1673.31289503 0 12807
0.10850000 0.10850100 15289.53642170 0 408.30864588 0 4845.89911712 0 350.17609086 0 1825.97648477 0 12736
0.10950000 0.10950300 14839.27879159 0 147.29982294 0 4742.00702965 0 -154.35850928 0 1932.50486966 0 12933
0.11050000 0.11050200 14635.62481593 0 11.54116087 0 4787.93352761 0 156.17425913 0 1224.26356791 0 13428
0.11150000 0.11150900 14646.60938851 0 273.68941352 0 4502.20282562 0 19.20246087 0 795.48077720 0 13453
0.11250000 0.11250000 14261.81981099 0 122.62957138 0 4431.96746854 0 395.59839694 0 2057.70702795 0 13668
0.11350000 0.11349100 14022.90535734 0 68.36182839 0 4596.85688756 0 41.71852790 0 1023.61167594 0 13791
0.11450000 0.11448600 14362.98772446 0 169.56115774 0 4553.90720877 0 -57.44711769 0 1657.62692539 0 14205
0.11550000 0.11549300 13833.20178886 0 78.02583565 0 4469.33698446 0 162.55629580 0 997.77486277 0 14776
0.11650000 0.11649800 13957.32745903 0 -57.32826461 0 4712.06308479 0 -58.12376736 0 1853.24019392 0 14553
0.11750000 0.11747300 13776.52139434 0 27.10388362 0 4058.96433740 0 729.04718068 0 1509.65374814 0 14568
0.11850000 0.11849100 14026.96964920 0 176.56711813 0 4267.73712388 0 237.35684125 0 1150.73283905 0 16015
0.11950000 0.11950300 13743.01844797 0 236.92844292 0 4118.45678250 0 -117.28777374 0 1583.01970842 0 15270
0.12050000 0.12050700 13816.17570136 0 316.31944125 0 4686.23835465 0 -363.64097993 0 1297.59657446 0 15999
0.12150000 0.12150000 13280.67778802 0 -133.64709768 0 4443.72096120 0 -79.76183750 0 1624.80502251 0 15670
0.12250000 0.12250700 12937.51974058 0 -53.41248418 0 4747.19174791 0 320.98898306 0 767.76010983 0 16887
0.12350000 0.12352200 13261.23509455 0 341.87504936 0 4194.00867271 0 87.08426343 0 1051.32135873 0 16407
0.12450000 0.12449800 12915.77028687 0 256.99835548 0 4951.12033788 0 -44.24530913 0 1250.31897407 0 16306
0.12550000 0.12549900 12814.93191057 0 8.93588389 0 4137.26237075 0 362.97201946 0 1904.87866962 0 17523
0.12650000 0.12650100 12772.42161468 0 -27.07499419 0 4365.51080442 0 450.60034877 0 504.74660240 0 17154
0.12750000 0.12750600 12939.60680937 0 -42.70922650 0 3650.81057399 0 417.56314828 0 1168.22027860 0 18007
0.12850000 0.12850300 12862.27541840 0 7.41407022 0 3789.93018573 0 25.82407106 0 1002.42573080 0 17496
0.12950000 0.12949900 12603.47888838 0 151.95398635 0 3417.91566612 0 -427.90841874 0 1251.49432334 0 18405
0.13050000 0.13049000 12520.87490257 0 169.21624216 0 3603.15949813 0 -186.00835826 0 460.67210337 0 18100
0.13150000 0.13148800 12480.01229257 0 82.62079221 0 3557.52958363 0 33.30225823 0 -111.37697523 0 19059
0.13250000 0.13249300 12525.81796023 0 39.64442090 0 3627.90774016 0 130.79001035 0 -196.58210783 0 18957
0.13350000 0.13349100 12294.59270739 0 73.30576481 0 3153.37420464 0 332.42172620 0 304.32538645 0 19468
0.13450000 0.13450700 12251.53318288 0 -70.74866616 0 3278.44454806 0 290.75394703 0 -34.86821890 0 19953
0.13550000 0.13551000 11959.12386076 0 202.08098486 0 2713.14548930 0 310.03956111 0 -369.95820763 0 19956
0.13650000 0.13649900 11818.74102317 0 346.84337154 0 3106.14054254 0 -283.60738411 0 485.35773334 0 19723
0.13750000 0.13749600 11572.57675162 0 265.50700541 0 2982.72886959 0 -54.70152377 0 486.93621642 0 20946
0.13850000 0.13851100 11460.31441984 0 267.04814094 0 3295.50358927 0 -143.08394399 0 -122.69657728 0 20955
0.13950000 0.13949800 11163.95065160 0 -120.95222715 0 3235.83539101 0 156.98492059 0 326.26707018 0 20506
0.14050000 0.14048300 10825.86747669 0 38.47544269 0 3338.16766918 0 274.76260626 0 175.59498346 0 21447
0.14150000 0.14148400 10863.81917496 0 61.77745589 0 3066.27752865 0 77.35314043 0 247.69991479 0 21771
0.14250000 0.14249400 10853.76829104 0 299.56796807 0 3014.96859012 0 27.39761109 0 298.00706030 0 22470
0.14350000 0.14350900 10774.44869243 0 -22.80935512 0 2846.48721587 0 -26.20973941 0 423.50580204 0 22519
0.14450000 0.14449900 10777.90883280 0 21.61148748 0 3210.09853745 0 218.42493041 0 -36.36223062 0 22218
0.14550000 0.14550500 10610.70166896 0 69.90911528 0 2994.87780687 0 -566.59304140 0 -314.05332393 0 23559
0.14650000 0.14650700 10473.07595909 0 312.22658951 0 3175.73879442 0 21.24921628 0 -5.29501435 0 23044
0.14750000 0.14750500 10337.94374720 0 58.31544815 0 3210.87844211 0 60.36835492 0 -376.05794078 0 23649
0.14850000 0.14849900 10391.49353853 0 -49.67926734 0 2993.76836504 0 437.80881400 0 -250.83930564 0 23640
0.14950000 0.14949500 10374.70911163 0 43.74276493 0 3191.12818061 0 -70.54885679 0 -625.93609632 0 24457
0.15050000 0.15050000 9966.24778019 0 169.14044861 0 2840.59948496 0 -90.73850119 0 -36.05125737 0 24591
0.15150000 0.15149900 9919.49743928 0 161.85438161 0 3054.06268394 0 279.61668889 0 -254.87064378 0 25020
0.15250000 0.15250500 9847.81211862 0 114.38125583 0 2754.11794503 0 6.32170940 0 -119.80653623 0 25297
0.15350000 0.15350100 9596.33131394 0 216.71573091 0 3100.56037967 0 125.75578074 0 -164.33799347 0 25452
0.15450000 0.15450400 9404.70544526 0 205.11162844 0 2726.03039294 0 -98.24403994 0 -124.69027720 0 26061
0.15550000 0.15549900 8928.01893352 0 103.64152937 0 3115.91681214 0 141.52193777 0 -48.83686047 0 26128
0.15650000 0.15649500 9031.07619348 0 70.35893353 0 2740.85956592 0 115.08866231 0 80.59611579 0 26331
0.15750000 0.15749700 9038.84228629 0 -13.94623304 0 2576.26673037 0 405.20001184 0 21.86479172 0 27345
0.15850000 0.15849900 8902.60063257 0 8.06661974 0 2369.86661156 0 157.57918597 0 328.03888174 0 26980
0.15950000 0.15949700 8929.54578911 0 65.69510370 0 2234.60258480 0 123.77636076 0 -25.25122560 0 27777
0.16050000 0.16050000 8637.00465212 0 142.30513779 0 2440.64021270 0 -503.25929127 0 71.20891975 0 28224
0.16150000 0.16150500 8634.41229299 0 219.22350883 0 2732.45636790 0 86.00217319 0 -3.34191341 0 28075
0.16250000 0.16249700 8625.08639087 0 68.83163855 0 2723.46000296 0 -359.43388863 0 -175.56862048 0 28590
0.16350000 0.16349900 8442.66559401 0 51.11758727 0 3019.04386655 0 161.11072605 0 -311.34013450 0 29163
0.16450000 0.16449100 8469.45696654 0 57.49555965 0 2749.35064053 0 91.80751979 0 152.80199535 0 28996
0.16550000 0.16550500 8523.53401736 0 -125.99853979 0 2605.07926425 0 219.48823703 0 -100.44424983 0 30777
0.16650000 0.16650700 8524.17112257 0 -77.44222531 0 2473.78066818 0 296.71417611 0 37.86854505 0 29211
0.16750000 0.16749900 8594.88980084 0 165.31452198 0 2357.79456629 0 100.82266836 0 -149.60548473 0 30922
0.16850000 0.16850800 8496.43507680 0 63.45425089 0 2317.84367582 0 -152.09788425 0 81.41051200 0 30867
0.16950000 0.16949900 8420.31198881 0 47.40194575 0 2297.97258402 0 30.35103312 0 -315.83612006 0 30852
0.17050000 0.17049200 8409.19560136 0 50.42127522 0 2491.65256777 0 129.91453992 0 -120.09103666 0 31257
0.17150000 0.17149500 8315.16766006 0 86.04666070 0 2194.67366346 0 -194.13254814 0 -82.02202316 0 32608
0.17250000 0.17250900 8134.49341024 0 44.89801243 0 2415.80409410 0 180.04043998 0 -372.58352047 0 32361
0.17350000 0.17350400 8237.26507131 0 60.76599645 0 2139.14664906 0 108.70475826 0 -100.87012171 0 32508
0.17450000 0.17449800 8214.98835812 0 40.26450003 0 1979.52982488 0 296.17373514 0 -15.08247723 0 32791
0.17550000 0.17549800 7957.05960934 0 132.99022024 0 2137.72963920 0 127.54626607 0 480.21255954 0 33633
0.17650000 0.17650100 7929.12584126 0 92.84874743 0 1922.46497032 0 122.23412677 0 416.29333169 0 33984
0.17750000 0.17750300 7667.46233780 0 139.75671695 0 2106.68723709 0 11.79578327 0 439.55536104 0 34069
0.17850000 0.17849800 7700.08651837 0 137.69161731 0 2173.13291663 0 -20.76347848 0 313.52606445 0 34536
