### header ###
fiducial parameters:
Omega_m = 0.31
Omega_nu = 0
Omega_de = 0.69
Omega_k = 0
H_0 = 100
w_de = -1
zeff = 0
beta = 0
fgrowth = 0
b_1 = 2
gamma = 0.55
Lx = 3500 Ly = 3500 Lz = 3500
nx = 700 ny = 700 nz = 700
xoffset = -983.599254 yoffset = -42.9823471 zoffset = 800.977702
bins = 400 dk = 0.001
kx_ny = 0.628318531 ky_ny = 0.628318531 kz_ny = 0.628318531
############################
A(data) = 9.17882999 (not used)
A(ran) = 9.18007004 (used)
Ngal = 510053
weighted Ngal = 0
Nran = 25229228
weighted Nran = 0
SN(data) = 6696.80006
SN(ran) = 136.271815
SN(data+ran) = 6833.07188
############################
13 columns: k_central k_mean P_0(k) sigma^{lin}_{P_0(k)} P^img_1(k) sigma^{lin}_{P_1(k)} P_2(k) sigma^{lin}_{P_2(k)} P^img_3(k) sigma^{lin}_{P_3(k)} P_4(k) sigma^{lin}_{P_4(k)} N_modes
### header ###
0.00050000 0 0 0 0 0 0 0 0 0 0 0 0
0.00150000 0.00179520 33871.36893748 0 -18087.41690389 0 -36636.73508483 0 49988.59290318 0 -34911.93749811 0 3
0.00250000 0.00253879 90029.11749379 0 -54823.89190776 0 -49862.27031849 0 -40139.82512674 0 49017.33699553 0 6
0.00350000 0.00331552 88058.37532697 0 -15337.97838678 0 -35192.26379038 0 -62473.76794486 0 -89504.71399875 0 7
0.00450000 0.00420575 111439.58729499 0 5182.88383477 0 -29699.20857963 0 -63186.77655111 0 13221.91032471 0 24
0.00550000 0.00557378 84772.34043926 0 11167.90509773 0 11108.47856006 0 -20908.36498851 0 7031.18097103 0 45
0.00650000 0.00659388 73865.97801469 0 12290.08903264 0 41305.06858617 0 -24993.74722296 0 9032.02086672 0 40
0.00750000 0.00754703 61390.90877979 0 4918.02382069 0 32600.23419836 0 6087.78193945 0 -30281.50077217 0 57
0.00850000 0.00846663 57836.85032109 0 3548.18171236 0 51865.74651160 0 14447.01970471 0 -2210.51341712 0 75
0.00950000 0.00948925 55441.55442401 0 656.34139322 0 36052.57551495 0 14289.83047107 0 10633.24201190 0 112
0.01050000 0.01054430 54163.71909562 0 5016.14900756 0 39372.99211484 0 31126.54394085 0 18671.68631949 0 105
0.01150000 0.01145670 53718.07498599 0 -2948.07254310 0 19537.71002181 0 24587.42788318 0 35410.85678475 0 144
0.01250000 0.01249090 62593.49978599 0 -6306.72644014 0 13474.55549408 0 19667.43782399 0 13427.32183198 0 169
0.01350000 0.01339930 66551.79051568 0 2415.29880376 0 17783.25408911 0 12475.94800071 0 32431.29147206 0 180
0.01450000 0.01448870 67207.13011588 0 -260.30690875 0 3608.59686156 0 -7160.77695834 0 35495.32814790 0 267
0.01550000 0.01550050 72516.85281025 0 -5564.87234629 0 6316.26104914 0 -1558.18358981 0 18698.26898514 0 238
0.01650000 0.01653350 68139.17109941 0 -4346.96884591 0 -6656.02486366 0 9289.26857200 0 9127.41089502 0 315
0.01750000 0.01747870 77955.09500382 0 -2427.43675646 0 3629.61034891 0 1376.64155876 0 8864.31939712 0 297
0.01850000 0.01844180 76742.50803657 0 -992.45283735 0 -5950.05736843 0 -2375.21609841 0 10389.21973201 0 388
0.01950000 0.01947590 76105.95205548 0 3468.71931431 0 2478.49304982 0 -5825.65708394 0 12037.11432609 0 399
0.02050000 0.02045430 76092.99025984 0 1895.15732289 0 803.80598476 0 937.03347177 0 10825.24135605 0 462
0.02150000 0.02154770 73922.32887204 0 3521.74184616 0 13184.67262366 0 -8732.39468042 0 -6577.72683030 0 571
0.02250000 0.02255340 67099.81084176 0 6600.19028123 0 15488.13749397 0 -11205.03295305 0 6171.86884256 0 510
0.02350000 0.02348930 70186.14619994 0 -557.94269050 0 26607.49078088 0 13750.26826587 0 5420.11764881 0 555
0.02450000 0.02439640 65512.97948666 0 -4060.90860674 0 16473.01427161 0 2659.25517622 0 10380.94834885 0 592
0.02550000 0.02547300 68807.91187816 0 124.20146372 0 11310.04546693 0 13391.51212537 0 6518.83853669 0 837
0.02650000 0.02652900 65607.11727369 0 1983.98956135 0 14655.17735512 0 -3330.90686670 0 25780.79184841 0 723
0.02750000 0.02749970 62959.83528158 0 5344.99415693 0 8932.11617909 0 1135.20065342 0 9635.79888323 0 826
0.02850000 0.02848090 58925.86084681 0 2433.03888848 0 19024.62063653 0 -7014.87986532 0 12565.58211298 0 831
0.02950000 0.02946900 54404.83046378 0 4210.71620761 0 19990.16456643 0 -878.47251842 0 4310.56597237 0 996
0.03050000 0.03053250 52501.75326406 0 -9.01194107 0 23008.94480324 0 -627.19932216 0 5379.22208509 0 1041
0.03150000 0.03150510 51289.27614253 0 1358.83556660 0 22565.05822522 0 1615.72078099 0 4365.22520554 0 1036
0.03250000 0.03246190 51945.82404572 0 -2753.33804038 0 16119.20118877 0 4274.08620683 0 -4660.84202284 0 1059
0.03350000 0.03345080 53264.96136701 0 -1834.95088057 0 15626.10372559 0 3056.43535161 0 -148.85413996 0 1302
0.03450000 0.03451200 56696.76153288 0 -355.83094883 0 8492.97493643 0 3565.62521362 0 1883.48072223 0 1339
0.03550000 0.03553350 52365.87410123 0 2426.05270032 0 10050.69717420 0 -468.68425061 0 4661.86358809 0 1365
0.03650000 0.03647120 56163.35068833 0 157.95266143 0 10935.43858819 0 720.06399722 0 -2268.21537689 0 1308
0.03750000 0.03744890 52691.45683254 0 1430.76254787 0 11655.18073743 0 18.25460210 0 -232.31272552 0 1579
0.03850000 0.03847530 51037.83927615 0 777.79891071 0 12689.92747460 0 -2552.25445470 0 -2069.53741262 0 1662
0.03950000 0.03950240 48688.67858390 0 1465.96810299 0 13766.85497047 0 -1835.45617091 0 -492.52736386 0 1683
0.04050000 0.04050350 48207.00507621 0 1238.36775910 0 12887.64978106 0 483.35524575 0 -3328.89668992 0 1822
0.04150000 0.04152450 45266.76453336 0 1226.04306867 0 14364.41571890 0 -35.82827054 0 -3293.17485989 0 1887
0.04250000 0.04250150 44360.09791250 0 2463.44418538 0 16335.70711434 0 2259.28491939 0 -4750.54204254 0 1920
0.04350000 0.04349210 42258.63933196 0 1016.16962801 0 14205.57879937 0 -409.60043161 0 -974.34257254 0 2005
0.04450000 0.04448520 42303.12685091 0 44.12096377 0 14654.29858932 0 1191.14508158 0 -3075.43866218 0 2151
0.04550000 0.04548030 39757.01277228 0 356.57680131 0 13679.96700135 0 637.53250959 0 -751.45461029 0 2274
0.04650000 0.04648670 39728.12334640 0 -57.39329328 0 11831.59297309 0 3136.65568518 0 -2457.18297901 0 2311
0.04750000 0.04749250 40014.93053649 0 959.97255469 0 11772.05658970 0 -2689.50668911 0 -5773.65611734 0 2568
0.04850000 0.04851840 37908.96828120 0 2178.59224920 0 12617.86867846 0 29.97788719 0 -1518.05694617 0 2493
0.04950000 0.04949480 37632.37674360 0 286.93131577 0 14159.55344025 0 1389.25184808 0 -877.19391417 0 2644
0.05050000 0.05050630 35583.31457428 0 -381.33932328 0 13905.37043072 0 1221.45151733 0 -1397.88572213 0 2829
0.05150000 0.05149060 37317.44904769 0 515.60375394 0 11915.73479906 0 2776.04315190 0 -1582.21783462 0 2784
0.05250000 0.05249300 34630.95213147 0 1194.52832993 0 12118.83954609 0 1617.66505034 0 2814.80770854 0 3055
0.05350000 0.05348950 34003.40349990 0 214.77585540 0 11358.15789483 0 -1242.78355728 0 2544.22473215 0 3009
0.05450000 0.05448610 33510.08634527 0 930.65253355 0 13535.08048901 0 1384.94589563 0 3385.52216158 0 3336
0.05550000 0.05550870 33563.58121375 0 43.27592060 0 10810.86255054 0 582.64589577 0 3531.01282542 0 3349
0.05650000 0.05647670 33611.03456730 0 -1235.64358510 0 9741.96477722 0 1288.02901174 0 1738.20974984 0 3324
0.05750000 0.05747970 32980.52010113 0 659.57964522 0 10619.30258930 0 -310.28012325 0 1653.23309636 0 3639
0.05850000 0.05849280 33772.50778424 0 785.66276622 0 11080.24820853 0 601.83704253 0 3690.02549811 0 3846
0.05950000 0.05951020 32684.70556151 0 -42.45811917 0 11153.84484482 0 -974.97638238 0 965.17484826 0 3787
0.06050000 0.06049470 32769.83599902 0 594.25878591 0 12976.07559034 0 -1795.37346556 0 780.15180616 0 3930
0.06150000 0.06148310 31739.92247379 0 639.54378483 0 12683.44657677 0 1151.53471285 0 475.50457173 0 4083
0.06250000 0.06249100 32803.77832829 0 62.55230764 0 14616.62150536 0 -75.08779202 0 2546.55346153 0 4303
0.06350000 0.06350600 31944.78475243 0 2.61228514 0 13476.75240860 0 464.01251190 0 -922.69091535 0 4470
0.06450000 0.06451750 32930.75998733 0 643.34115157 0 14679.56310626 0 81.90558669 0 954.83836546 0 4479
0.06550000 0.06550280 31132.03622714 0 -282.31230300 0 12848.21516549 0 83.36895145 0 776.80700381 0 4636
0.06650000 0.06648880 31750.90704637 0 231.02093979 0 13950.84656121 0 1466.08893329 0 677.32192685 0 4653
0.06750000 0.06749660 30403.64921927 0 1055.07149181 0 13250.79975060 0 795.00404675 0 2022.67722598 0 5220
0.06850000 0.06852730 29107.57950040 0 1248.72621105 0 14484.25740576 0 504.29184109 0 2419.91232424 0 5029
0.06950000 0.06949320 29656.91797519 0 62.55889838 0 12750.67216097 0 1167.26462078 0 2335.77049827 0 5040
0.07050000 0.07048030 28650.51143529 0 -89.83578902 0 12066.88251778 0 2043.65775961 0 2491.04841628 0 5475
0.07150000 0.07148790 28014.28499138 0 93.94226163 0 12058.86377980 0 205.26321554 0 3918.41673122 0 5509
0.07250000 0.07249820 27183.41192132 0 503.75579395 0 10616.74318388 0 387.46871478 0 3087.10427826 0 5916
0.07350000 0.07351270 27094.87626632 0 368.63786200 0 10990.28455909 0 218.89836549 0 1697.31418612 0 5721
0.07450000 0.07449140 26877.27188348 0 919.85799408 0 10307.96684862 0 447.97723284 0 3257.67272130 0 6028
0.07550000 0.07549160 25816.82124648 0 547.31951035 0 10974.30200598 0 -822.61157301 0 1860.46804267 0 6183
0.07650000 0.07648840 25107.87693208 0 -382.51686946 0 10331.73746369 0 647.52297835 0 2265.75483264 0 6330
0.07750000 0.07749960 25382.49124661 0 787.54991579 0 10312.02015591 0 967.66505087 0 787.67733683 0 6583
0.07850000 0.07848650 24873.13661602 0 615.63146878 0 9526.61223177 0 523.90150007 0 1592.63120942 0 6549
0.07950000 0.07947320 24325.44582711 0 -267.25355245 0 10126.68844731 0 -514.84691689 0 810.60213981 0 6828
0.08050000 0.08048110 23586.51362956 0 483.58482332 0 9882.24875366 0 298.92427211 0 1799.44874199 0 7147
0.08150000 0.08149960 23808.29214998 0 372.22212803 0 9741.38259488 0 -101.64958698 0 279.06855872 0 7386
0.08250000 0.08250610 23082.76113098 0 -121.78156238 0 9056.01117324 0 1225.18627201 0 1164.93589140 0 7227
0.08350000 0.08350160 23168.55064284 0 634.35577120 0 10293.13767564 0 395.86532206 0 1240.94913366 0 7798
0.08450000 0.08449610 22439.94394352 0 428.73116322 0 8779.26585162 0 48.42263224 0 1667.52402528 0 7371
0.08550000 0.08548940 22173.89759560 0 -45.63430833 0 8764.43667864 0 2262.50339915 0 2883.62605576 0 8256
0.08650000 0.08650700 21920.37366043 0 245.62712595 0 9062.71176251 0 1.96801799 0 2066.87914605 0 8037
0.08750000 0.08749060 21563.48489726 0 474.22596748 0 7493.34587781 0 143.71665537 0 2448.02184548 0 8155
0.08850000 0.08849210 20835.75696374 0 -19.26935691 0 7494.07085961 0 731.46708202 0 1797.19690461 0 8718
0.08950000 0.08949900 20438.33512775 0 354.61275973 0 7815.09499330 0 -583.11383857 0 2026.34607323 0 8571
0.09050000 0.09049190 20205.13265185 0 859.82400955 0 7651.84227559 0 -407.67813141 0 239.09460063 0 8932
0.09150000 0.09150830 19292.31467034 0 406.02824861 0 7896.87513616 0 -538.64609184 0 225.55281956 0 9285
0.09250000 0.09250820 18400.25753101 0 505.80551520 0 8505.69507148 0 -623.86989821 0 -1458.42170162 0 9204
0.09350000 0.09350330 18173.09657003 0 358.95056744 0 8359.92979333 0 208.35756964 0 -1640.23834699 0 9349
0.09450000 0.09448040 17818.84410428 0 49.92905652 0 7727.81157956 0 737.08129707 0 -1531.01874182 0 9564
0.09550000 0.09549270 17847.73353017 0 98.06927539 0 7285.33102684 0 932.37601299 0 -1426.14902738 0 10155
0.09650000 0.09649430 17414.17245038 0 -86.41914756 0 6546.48670588 0 878.26381154 0 -1017.60201628 0 9913
0.09750000 0.09749140 17619.36426620 0 41.20532867 0 6025.74107351 0 208.65195618 0 -750.23092890 0 10476
0.09850000 0.09850240 17323.11034368 0 173.64632028 0 5681.22093907 0 256.85665450 0 -2047.73303604 0 10575
0.09950000 0.09950330 17143.07319907 0 369.41666820 0 5922.56298326 0 -122.61748835 0 -400.63262656 0 10882
0.10050000 0.10051200 16835.61501252 0 -0.52248449 0 5456.55347606 0 236.65932089 0 -10.59726754 0 10875
0.10150000 0.10150300 16339.66156047 0 -93.09227540 0 6157.84154338 0 301.03550696 0 -677.18132432 0 11118
0.10250000 0.10250800 16715.22409703 0 652.04312997 0 6180.81028464 0 -71.16816699 0 -711.13134280 0 11575
0.10350000 0.10349800 15954.21290859 0 503.14065789 0 6290.20564298 0 -438.87980983 0 599.22820654 0 11364
0.10450000 0.10450100 15653.56515704 0 81.47070746 0 6354.68508403 0 1002.60038550 0 452.08436453 0 12093
0.10550000 0.10551000 15489.78517986 0 -262.80150518 0 6068.32826141 0 314.86508384 0 1220.82539669 0 12067
0.10650000 0.10649700 15669.16325011 0 312.20462036 0 5588.79674537 0 474.06339581 0 -346.31611206 0 12054
0.10750000 0.10749900 15510.65586776 0 190.22423722 0 5623.40913358 0 279.51013853 0 2077.70993462 0 12807
0.10850000 0.10850100 15313.04340702 0 -78.44533648 0 5312.08437747 0 129.10168155 0 893.20612562 0 12736
0.10950000 0.10950300 15508.78849042 0 -204.54811987 0 5026.96881155 0 435.71954830 0 938.11105834 0 12933
0.11050000 0.11050200 15213.96256234 0 134.93888342 0 4328.08636564 0 448.50009850 0 110.59597212 0 13428
0.11150000 0.11150900 15317.21754460 0 391.73292585 0 4796.18294162 0 -603.79778874 0 590.30104441 0 13453
0.11250000 0.11250000 14751.18251949 0 297.17003587 0 4987.88570231 0 -565.53193169 0 -155.64370428 0 13668
0.11350000 0.11349100 13995.22423444 0 244.55613012 0 4925.21871573 0 29.00355560 0 -353.97565452 0 13791
0.11450000 0.11448600 14302.13319236 0 147.85344540 0 5431.10222139 0 575.66959373 0 384.14698003 0 14205
0.11550000 0.11549300 14365.18463898 0 7.78165795 0 5012.35933002 0 179.91960968 0 -734.15171156 0 14776
0.11650000 0.11649800 13940.85060016 0 313.22618561 0 4845.98699370 0 252.13548520 0 467.57261187 0 14553
0.11750000 0.11747300 13682.93283595 0 -127.08161865 0 4448.18069767 0 146.57374270 0 715.47024897 0 14568
0.11850000 0.11849100 13659.86523353 0 -138.90211721 0 4390.35790760 0 854.79746913 0 511.31208143 0 16015
0.11950000 0.11950300 14075.96084291 0 175.40824572 0 4450.12496702 0 392.55457188 0 1050.01309614 0 15270
0.12050000 0.12050700 13792.00964168 0 289.45447209 0 4005.03008602 0 -137.84430287 0 1203.28303428 0 15999
0.12150000 0.12150000 13388.54629077 0 -72.35922419 0 3837.76799932 0 180.51387506 0 1868.06936690 0 15670
0.12250000 0.12250700 13687.32666498 0 2.78452324 0 4147.26931638 0 -80.04359179 0 944.59415307 0 16887
0.12350000 0.12352200 13629.10843030 0 158.32613690 0 4406.21963041 0 79.53698330 0 1494.90146717 0 16407
0.12450000 0.12449800 13354.05473286 0 -26.57706351 0 4170.22707307 0 175.13363141 0 541.40981030 0 16306
0.12550000 0.12549900 13435.34056997 0 81.13084478 0 4200.89599972 0 35.52608495 0 1934.54800016 0 17523
0.12650000 0.12650100 13277.60210770 0 203.43318575 0 4067.37851999 0 -28.72399823 0 832.55041429 0 17154
0.12750000 0.12750600 13264.53046633 0 128.09769161 0 4194.66774706 0 -323.02003053 0 1150.20557957 0 18007
0.12850000 0.12850300 12943.12187260 0 291.57339614 0 4509.30984408 0 165.97799016 0 1066.76237241 0 17496
0.12950000 0.12949900 12798.34520597 0 123.93234169 0 4859.51998712 0 -183.48520194 0 1088.94242136 0 18405
0.13050000 0.13049000 12314.36493804 0 3.62640285 0 4226.18248580 0 415.16301917 0 1148.01964962 0 18100
0.13150000 0.13148800 12561.07843822 0 151.81667919 0 4646.62798592 0 118.77728178 0 628.25493959 0 19059
0.13250000 0.13249300 12228.24588900 0 275.15695242 0 4012.65337939 0 -193.96118881 0 737.71840228 0 18957
0.13350000 0.13349100 12128.39612424 0 339.55730455 0 4667.44375097 0 609.36037629 0 973.13317110 0 19468
0.13450000 0.13450700 11855.09995841 0 -121.67611048 0 4024.35194919 0 -51.05684259 0 1225.70254692 0 19953
0.13550000 0.13551000 11603.66309203 0 16.72500037 0 3943.76912473 0 135.59026857 0 602.58619038 0 19956
0.13650000 0.13649900 11523.69540364 0 83.09181068 0 3481.97769341 0 142.89061551 0 325.71125081 0 19723
0.13750000 0.13749600 11475.36328428 0 248.87855943 0 3723.78108965 0 80.38828768 0 486.39907082 0 20946
0.13850000 0.13851100 11207.88894192 0 197.83654602 0 3698.87906361 0 -145.34676594 0 716.98721844 0 20955
0.13950000 0.13949800 11248.42201475 0 53.67073148 0 3852.97064778 0 340.88973320 0 489.72849477 0 20506
0.14050000 0.14048300 11089.58509522 0 -86.59501057 0 3498.98181177 0 154.44199204 0 -113.15098370 0 21447
0.14150000 0.14148400 11167.13617765 0 58.16430043 0 3163.10653595 0 323.59781905 0 -53.76563819 0 21771
0.14250000 0.14249400 10988.30733602 0 130.08370234 0 3208.85728075 0 -172.72910847 0 864.83407310 0 22470
0.14350000 0.14350900 10774.60247645 0 18.50570943 0 3349.17421091 0 -143.57605284 0 371.12916306 0 22519
0.14450000 0.14449900 10637.70174837 0 221.96745507 0 3456.75711477 0 -55.66344279 0 95.59522011 0 22218
0.14550000 0.14550500 10562.95173195 0 389.43824864 0 3260.40787988 0 -15.89841128 0 -360.36538039 0 23559
0.14650000 0.14650700 10356.03533824 0 -5.64871759 0 3480.76939043 0 -119.91967733 0 116.80115717 0 23044
0.14750000 0.14750500 10353.50888655 0 -31.81505695 0 3736.38039440 0 201.12642551 0 -354.00201749 0 23649
0.14850000 0.14849900 10137.42037472 0 74.84964649 0 3113.89565079 0 175.00511191 0 481.78555033 0 23640
0.14950000 0.14949500 10179.68901002 0 0.12853378 0 3172.54228380 0 478.37593900 0 -448.95156443 0 24457
0.15050000 0.15050000 9992.65469268 0 197.49053198 0 2979.59826641 0 -158.25254026 0 -226.88085438 0 24591
0.15150000 0.15149900 9833.89466516 0 270.33692197 0 3147.55238118 0 -32.79740728 0 75.58517347 0 25020
0.15250000 0.15250500 9498.21711164 0 14.68461601 0 3065.10217938 0 210.24581766 0 373.65451630 0 25297
0.15350000 0.15350100 9449.75317742 0 74.81998814 0 2707.27972754 0 400.54694689 0 172.89717243 0 25452
0.15450000 0.15450400 9408.42921536 0 -11.30246611 0 2572.61985227 0 252.97250963 0 250.95354519 0 26061
0.15550000 0.15549900 9424.33487646 0 141.99097902 0 2333.50767632 0 292.75643461 0 646.33225069 0 26128
0.15650000 0.15649500 9120.86408976 0 101.12639179 0 2521.55257434 0 -136.89194042 0 662.09181697 0 26331
0.15750000 0.15749700 8987.86288494 0 209.31322745 0 2568.20405409 0 -409.29506050 0 357.83563332 0 27345
0.15850000 0.15849900 8923.92168795 0 234.51293541 0 2636.89058644 0 -26.28190805 0 113.71668919 0 26980
0.15950000 0.15949700 8840.17530659 0 -229.84668898 0 2704.59949183 0 252.39252420 0 194.29841519 0 27777
0.16050000 0.16050000 9172.45862717 0 -97.33418780 0 2570.21423087 0 12.93279637 0 -182.56249784 0 28224
0.16150000 0.16150500 9080.48480095 0 -31.61250143 0 2675.33659048 0 -156.96075453 0 -17.26533149 0 28075
0.16250000 0.16249700 9028.17626632 0 163.63388237 0 2729.01819668 0 -97.20764552 0 41.63570422 0 28590
0.16350000 0.16349900 8932.55556200 0 160.53403599 0 2673.90859604 0 -7.80684558 0 -300.85535997 0 29163
0.16450000 0.16449100 8952.09711662 0 117.35258272 0 3004.18173984 0 -15.34511836 0 -27.45692778 0 28996
0.16550000 0.16550500 8813.08735060 0 39.73954730 0 2566.95181282 0 231.08355185 0 -196.02628846 0 30777
0.16650000 0.16650700 8722.24493535 0 102.16322560 0 2945.13966222 0 53.27155211 0 -77.37532926 0 29211
0.16750000 0.16749900 8498.85168277 0 240.61047165 0 2886.98733497 0 -137.95854242 0 151.05764522 0 30922
0.16850000 0.16850800 8405.58167698 0 0.55808219 0 2818.32277177 0 -161.92468288 0 -216.28513567 0 30867
0.16950000 0.16949900 8394.61907354 0 75.53189829 0 2821.28860636 0 252.51225604 0 -236.57583814 0 30852
0.17050000 0.17049200 8246.68983459 0 57.00696586 0 2508.07450378 0 275.44255131 0 248.39963207 0 31257
0.17150000 0.17149500 8441.03987727 0 -83.38169355 0 2655.72912842 0 249.04772185 0 136.79198081 0 32608
0.17250000 0.17250900 8277.52352982 0 43.34710063 0 2269.64337133 0 113.20920194 0 220.35821518 0 32361
0.17350000 0.17350400 8272.52554930 0 107.16219473 0 2553.01239021 0 31.83362088 0 618.95100661 0 32508
0.17450000 0.17449800 8231.28946383 0 101.96012085 0 2436.36721397 0 -238.33446821 0 264.21961350 0 32791
0.17550000 0.17549800 8043.17865837 0 179.80756704 0 2662.77023944 0 -270.52146279 0 251.76420665 0 33633
0.17650000 0.17650100 7881.02439793 0 208.03352475 0 3163.40311941 0 -260.26626583 0 18.20066785 0 33984
0.17750000 0.17750300 7648.01964433 0 35.66427087 0 3061.24659440 0 75.01968767 0 269.26372923 0 34069
0.17850000 0.17849800 7886.43979221 0 -7.66516656 0 2870.54342982 0 401.19064285 0 11.55829681 0 34536
