### header ###
fiducial parameters:
Omega_m = 0.31
Omega_nu = 0
Omega_de = 0.69
Omega_k = 0
H_0 = 100
w_de = -1
zeff = 0
beta = 0
fgrowth = 0
b_1 = 2
gamma = 0.55
Lx = 3500 Ly = 3500 Lz = 3500
nx = 700 ny = 700 nz = 700
xoffset = -983.599254 yoffset = -42.9823471 zoffset = 800.977702
bins = 400 dk = 0.001
kx_ny = 0.628318531 ky_ny = 0.628318531 kz_ny = 0.628318531
############################
A(data) = 9.06882752 (not used)
A(ran) = 9.06849303 (used)
Ngal = 504391
weighted Ngal = 0
Nran = 25229228
weighted Nran = 0
SN(data) = 6726.20143
SN(ran) = 134.615531
SN(data+ran) = 6860.81696
############################
13 columns: k_central k_mean P_0(k) sigma^{lin}_{P_0(k)} P^img_1(k) sigma^{lin}_{P_1(k)} P_2(k) sigma^{lin}_{P_2(k)} P^img_3(k) sigma^{lin}_{P_3(k)} P_4(k) sigma^{lin}_{P_4(k)} N_modes
### header ###
0.00050000 0 0 0 0 0 0 0 0 0 0 0 0
0.00150000 0.00179520 -4852.61069097 0 -3109.39197603 0 -5921.64027916 0 2935.63800694 0 -934.38399286 0 3
0.00250000 0.00253879 3376.33905890 0 -8884.42116494 0 -8808.28709238 0 -4002.41575775 0 -503.19228538 0 6
0.00350000 0.00331552 4653.65811238 0 -3985.80708400 0 -13445.66606819 0 8318.50697013 0 15202.75829830 0 7
0.00450000 0.00420575 11107.81948571 0 -2765.98128342 0 -4390.74236764 0 -11945.61283648 0 675.55231221 0 24
0.00550000 0.00557378 18226.37174705 0 -5755.63043374 0 -20016.74723208 0 4938.60890971 0 2269.80813992 0 45
0.00650000 0.00659388 29016.51739370 0 -10495.94583921 0 -6476.89943857 0 -13690.07280813 0 -11505.79055033 0 40
0.00750000 0.00754703 34371.93591001 0 -5352.21102111 0 -26917.14588195 0 -6230.54842929 0 1271.53018373 0 57
0.00850000 0.00846663 43505.49816567 0 -8233.16782574 0 -17804.12477702 0 2893.88564655 0 -2141.98066879 0 75
0.00950000 0.00948925 50288.58158037 0 -1487.25620465 0 -27838.64167580 0 1732.50875667 0 6587.06371699 0 112
0.01050000 0.01054430 75390.85638044 0 -10317.96280967 0 -6743.15449337 0 -360.21928557 0 -9445.07374950 0 105
0.01150000 0.01145670 63434.80820000 0 -4736.38292849 0 -12775.49729501 0 -22616.35617918 0 -960.12304333 0 144
0.01250000 0.01249090 74650.60603418 0 2316.37174309 0 -17384.95348731 0 -7303.68624763 0 -5811.20138643 0 169
0.01350000 0.01339930 67595.87413954 0 2208.98656154 0 7154.27409137 0 -15943.11849029 0 185.07686651 0 180
0.01450000 0.01448870 70330.26379221 0 -3570.40350269 0 1847.60510818 0 -1943.72011827 0 -3720.81525505 0 267
0.01550000 0.01550050 73007.75335891 0 4179.72872835 0 21319.07815732 0 10989.51563900 0 8717.75224517 0 238
0.01650000 0.01653350 72432.38144710 0 2203.52722896 0 15085.66275459 0 -774.88690052 0 14733.16782045 0 315
0.01750000 0.01747870 80180.78910026 0 -5138.35237753 0 11672.42651639 0 12689.15855452 0 -9252.63502244 0 297
0.01850000 0.01844180 76483.60166083 0 -789.55020646 0 14773.48120183 0 -8915.07910702 0 -8564.26481249 0 388
0.01950000 0.01947590 77273.39242943 0 5816.64973443 0 21807.45225429 0 -3471.72908720 0 24658.27837633 0 399
0.02050000 0.02045430 71067.43845815 0 2332.71678709 0 29441.62035260 0 -3776.74869864 0 10142.04487978 0 462
0.02150000 0.02154770 73487.99887217 0 511.89096841 0 33084.43415775 0 716.02277297 0 1860.21539751 0 571
0.02250000 0.02255340 69597.81249249 0 1483.99378659 0 25575.81972404 0 15959.26581198 0 2484.51259559 0 510
0.02350000 0.02348930 77304.69846128 0 -2927.92683698 0 34819.11785979 0 626.30627641 0 20129.66863821 0 555
0.02450000 0.02439640 74845.69204322 0 -2086.34380866 0 27803.71073499 0 9938.14924353 0 12793.18245686 0 592
0.02550000 0.02547300 72836.17433519 0 3518.57828926 0 26671.20130186 0 -3942.18734628 0 10628.16713937 0 837
0.02650000 0.02652900 69575.62365587 0 5161.31013422 0 34096.66252112 0 -147.95560193 0 5092.75541674 0 723
0.02750000 0.02749970 65808.02510620 0 3540.14100523 0 39619.92530647 0 -4902.56852707 0 6420.35085892 0 826
0.02850000 0.02848090 64656.29267104 0 3628.96225913 0 40302.83618385 0 4038.30235637 0 17816.42749831 0 831
0.02950000 0.02946900 63064.62810401 0 -3374.40577413 0 34782.97861600 0 11565.54662517 0 6014.20727230 0 996
0.03050000 0.03053250 62647.54388309 0 -1128.82960132 0 29377.69014017 0 7399.18612165 0 6999.35866426 0 1041
0.03150000 0.03150510 64993.18951211 0 496.81024871 0 26294.32061659 0 1844.12299867 0 11657.15796050 0 1036
0.03250000 0.03246190 61721.10503158 0 3312.59558421 0 25237.05550564 0 6216.11470092 0 8719.44386934 0 1059
0.03350000 0.03345080 62211.01696871 0 898.21948455 0 22294.83773972 0 -1286.43624872 0 13026.49477849 0 1302
0.03450000 0.03451200 54339.14271974 0 1381.62855471 0 25319.87918290 0 -3819.10521051 0 2381.04890645 0 1339
0.03550000 0.03553350 53603.50589397 0 5485.00351905 0 27211.31273568 0 -1008.60125750 0 7656.65351838 0 1365
0.03650000 0.03647120 50896.35798130 0 2508.53585583 0 25093.26745055 0 3587.41860562 0 8739.33693029 0 1308
0.03750000 0.03744890 50698.96521201 0 -864.25079230 0 25804.84806237 0 5498.04220670 0 2673.06278395 0 1579
0.03850000 0.03847530 49401.13796153 0 612.34378621 0 20466.56547928 0 727.67960139 0 2967.68000516 0 1662
0.03950000 0.03950240 47325.49312656 0 991.63119132 0 21196.27063586 0 4233.56411858 0 3498.00418481 0 1683
0.04050000 0.04050350 45804.01997831 0 -233.71106161 0 17787.31838097 0 769.68790232 0 3064.39916674 0 1822
0.04150000 0.04152450 45139.67302859 0 2048.05158865 0 19711.48596004 0 -778.86441425 0 493.07329712 0 1887
0.04250000 0.04250150 42416.92702286 0 3049.60294747 0 18833.70876507 0 -1008.36069536 0 704.17810836 0 1920
0.04350000 0.04349210 41108.44473697 0 413.92286092 0 17413.73306748 0 2960.26541866 0 -1278.19781928 0 2005
0.04450000 0.04448520 39387.38190492 0 -299.78436415 0 17383.41564715 0 3610.99149838 0 -938.05284010 0 2151
0.04550000 0.04548030 39393.20372839 0 25.42126679 0 14262.80842252 0 2444.50678225 0 2463.00480248 0 2274
0.04650000 0.04648670 40023.38865738 0 -101.82105616 0 12335.67500885 0 -456.32550800 0 -3594.48168579 0 2311
0.04750000 0.04749250 38217.41507928 0 1330.04500187 0 12692.23423484 0 -761.35390710 0 -2391.63803442 0 2568
0.04850000 0.04851840 37159.38104825 0 614.38581825 0 12672.35215847 0 -911.05276070 0 -696.85469382 0 2493
0.04950000 0.04949480 37055.57683735 0 255.98338098 0 13107.23138696 0 1476.37049322 0 -2425.26181109 0 2644
0.05050000 0.05050630 37495.28927779 0 -166.24930910 0 12536.25330418 0 3143.90550308 0 -1828.10749185 0 2829
0.05150000 0.05149060 38509.05548132 0 -679.82970477 0 11932.87073229 0 298.14546592 0 778.75237161 0 2784
0.05250000 0.05249300 37598.87379723 0 572.15672742 0 11202.06711845 0 -71.90665980 0 915.32136560 0 3055
0.05350000 0.05348950 36289.07336263 0 398.09079646 0 12481.11074983 0 -382.24664897 0 3607.88286434 0 3009
0.05450000 0.05448610 36438.35370401 0 766.63968343 0 13688.42512224 0 955.00423251 0 2624.15946682 0 3336
0.05550000 0.05550870 36394.63510514 0 897.49779813 0 13637.67639692 0 1218.63946675 0 2085.26732055 0 3349
0.05650000 0.05647670 34812.74680770 0 509.17558206 0 14507.65454536 0 -1914.55607807 0 7.84941080 0 3324
0.05750000 0.05747970 33847.64226070 0 1909.43726724 0 14758.54218312 0 65.29054189 0 2047.52432916 0 3639
0.05850000 0.05849280 32135.47693245 0 174.71841456 0 16215.75558176 0 -214.88130729 0 2069.91088808 0 3846
0.05950000 0.05951020 32305.07873310 0 200.11364792 0 14740.19794690 0 2517.87274252 0 914.08120736 0 3787
0.06050000 0.06049470 31576.25234233 0 -675.39193745 0 12236.59416416 0 1854.34963575 0 1046.25088003 0 3930
0.06150000 0.06148310 32295.96153786 0 -12.69783637 0 11493.59767476 0 -15.40256767 0 -1323.12472114 0 4083
0.06250000 0.06249100 31804.51176057 0 1165.57299661 0 11725.59184768 0 -478.11121080 0 -1309.29514426 0 4303
0.06350000 0.06350600 29989.42098723 0 629.84440724 0 11981.97177173 0 -729.39649009 0 -1326.55190779 0 4470
0.06450000 0.06451750 30079.71417385 0 148.60479017 0 12489.67871644 0 805.50969196 0 750.95481224 0 4479
0.06550000 0.06550280 30708.69079985 0 -236.66481318 0 10829.82192282 0 2030.92663999 0 -3600.20464811 0 4636
0.06650000 0.06648880 30322.69291935 0 -154.07071348 0 10003.96880243 0 1498.20782351 0 -287.81557386 0 4653
0.06750000 0.06749660 30349.93465935 0 555.63593025 0 9834.71850810 0 440.86142672 0 -944.52714718 0 5220
0.06850000 0.06852730 29359.56559541 0 614.09033325 0 9419.02932791 0 138.17384004 0 1575.79185966 0 5029
0.06950000 0.06949320 28542.64293254 0 976.43513361 0 10312.49249253 0 -238.72991282 0 307.30989482 0 5040
0.07050000 0.07048030 27659.59314273 0 202.28310100 0 10278.86871585 0 -103.67041880 0 1390.08667560 0 5475
0.07150000 0.07148790 27164.29876503 0 511.92721750 0 10945.99476244 0 1147.22876040 0 1782.88400653 0 5509
0.07250000 0.07249820 26950.31929115 0 108.14970781 0 9310.69947311 0 118.19509943 0 200.58927991 0 5916
0.07350000 0.07351270 26811.69398517 0 71.14466000 0 10052.66341269 0 244.17496545 0 -33.22437761 0 5721
0.07450000 0.07449140 26632.97498927 0 594.28185351 0 8720.25672772 0 239.88548986 0 -878.90421212 0 6028
0.07550000 0.07549160 25476.84872509 0 225.81864621 0 8319.90201084 0 244.38586925 0 175.20393267 0 6183
0.07650000 0.07648840 26130.65048513 0 -108.74935562 0 8863.89099879 0 1585.31548408 0 -163.70088827 0 6330
0.07750000 0.07749960 25219.26049805 0 10.43930938 0 6510.50124610 0 678.38413502 0 -993.87424104 0 6583
0.07850000 0.07848650 24880.93566255 0 730.65532211 0 7055.24816955 0 118.67512525 0 -981.40125888 0 6549
0.07950000 0.07947320 24155.84402645 0 410.51984034 0 6448.61416418 0 -221.65769012 0 -900.48999570 0 6828
0.08050000 0.08048110 24040.83555153 0 283.62605788 0 6491.38808981 0 250.81184421 0 -239.50102982 0 7147
0.08150000 0.08149960 23240.17005607 0 358.17285970 0 6778.83238512 0 -784.20401498 0 -1750.87496203 0 7386
0.08250000 0.08250610 22521.33962635 0 794.38561531 0 7983.42258353 0 -1461.20079849 0 -2175.00029397 0 7227
0.08350000 0.08350160 22192.68121472 0 841.99165442 0 8402.08858290 0 -782.89135856 0 -2890.91981196 0 7798
0.08450000 0.08449610 21332.58918160 0 281.17210436 0 9817.62651316 0 -148.92334277 0 -2138.92695761 0 7371
0.08550000 0.08548940 21503.83866814 0 -462.97996207 0 8628.76622269 0 1524.05452280 0 -1381.40886326 0 8256
0.08650000 0.08650700 21498.67591903 0 -298.18720729 0 8329.55745014 0 1800.26160036 0 -2952.52129499 0 8037
0.08750000 0.08749060 21877.86336454 0 939.03376243 0 7728.44868477 0 -709.09040922 0 -2426.11860775 0 8155
0.08850000 0.08849210 21091.58765916 0 403.88406004 0 9021.09121700 0 -801.79141414 0 -1238.09314479 0 8718
0.08950000 0.08949900 20658.46596228 0 -291.07799192 0 7762.00655401 0 705.07335102 0 -124.47058575 0 8571
0.09050000 0.09049190 20404.61248993 0 25.02087912 0 8385.02954168 0 957.53068420 0 -1778.24851690 0 8932
0.09150000 0.09150830 19626.35552254 0 799.58021968 0 6384.01389283 0 692.16428132 0 168.52421409 0 9285
0.09250000 0.09250820 19800.90038086 0 364.04631066 0 7026.20495965 0 990.22736295 0 217.90096630 0 9204
0.09350000 0.09350330 18851.94315555 0 262.75646843 0 6786.89506139 0 447.40383815 0 1247.28723204 0 9349
0.09450000 0.09448040 18380.37545464 0 298.88802302 0 6495.51828910 0 595.05846279 0 927.49227202 0 9564
0.09550000 0.09549270 18073.24680526 0 146.03879401 0 6136.46556513 0 -478.88782009 0 1201.06415062 0 10155
0.09650000 0.09649430 17341.89396280 0 466.71471675 0 6010.68122450 0 214.56934543 0 847.36091350 0 9913
0.09750000 0.09749140 17761.17509823 0 25.81253726 0 6306.27607267 0 -66.76324354 0 643.76735299 0 10476
0.09850000 0.09850240 17481.39803458 0 192.27505692 0 6332.62806229 0 -258.56695245 0 -261.29991411 0 10575
0.09950000 0.09950330 17211.72677771 0 233.77037830 0 6744.74725640 0 -193.05935540 0 -699.75681789 0 10882
0.10050000 0.10051200 16914.59408938 0 90.08953264 0 6624.29043347 0 -157.61543506 0 72.62076687 0 10875
0.10150000 0.10150300 17040.80682834 0 98.07432830 0 6823.58353381 0 745.34828639 0 -436.33029053 0 11118
0.10250000 0.10250800 16557.81517194 0 -146.67040694 0 5835.66402956 0 538.55601835 0 -226.89293741 0 11575
0.10350000 0.10349800 17112.64593302 0 304.93722714 0 5872.36348656 0 224.53454968 0 -411.54360250 0 11364
0.10450000 0.10450100 16378.98633032 0 253.73923280 0 5920.81643621 0 52.84985437 0 -406.85428847 0 12093
0.10550000 0.10551000 15727.16179334 0 307.87450185 0 5807.93896837 0 -21.29139703 0 241.53537266 0 12067
0.10650000 0.10649700 15566.23780502 0 396.94290863 0 5941.74204698 0 234.05487873 0 421.06173465 0 12054
0.10750000 0.10749900 15529.32964115 0 -55.07269248 0 5259.38039823 0 1019.75499250 0 -458.92445788 0 12807
0.10850000 0.10850100 15536.57945905 0 277.23083972 0 5650.98041075 0 -170.24879198 0 -1122.86497841 0 12736
0.10950000 0.10950300 14629.36360956 0 307.30110716 0 4674.38600084 0 -556.99252497 0 232.08534487 0 12933
0.11050000 0.11050200 14900.57270659 0 -210.60171782 0 5307.11935067 0 627.60135752 0 516.15517948 0 13428
0.11150000 0.11150900 14599.81510931 0 -67.18483143 0 4673.47428131 0 305.40407148 0 -458.46640120 0 13453
0.11250000 0.11250000 14888.59952248 0 212.17031478 0 4542.16470068 0 376.12055284 0 -426.84730902 0 13668
0.11350000 0.11349100 14401.43372850 0 321.53271940 0 4821.64518086 0 -284.30600292 0 -112.61713348 0 13791
0.11450000 0.11448600 14352.77207196 0 206.51106299 0 5080.17808114 0 -324.48866788 0 -14.01686384 0 14205
0.11550000 0.11549300 13931.18417629 0 257.44652605 0 5096.72084744 0 344.75959812 0 170.19826295 0 14776
0.11650000 0.11649800 14249.40724397 0 -15.52405705 0 5308.88786685 0 45.69483333 0 195.28812518 0 14553
0.11750000 0.11747300 13825.07320515 0 -273.32692263 0 4554.50037568 0 632.75751589 0 1316.07262554 0 14568
0.11850000 0.11849100 14216.45352623 0 -100.59506801 0 4248.76676703 0 1357.91286251 0 875.96144513 0 16015
0.11950000 0.11950300 14323.00388027 0 96.15092964 0 4029.02039254 0 168.29683343 0 1361.14232684 0 15270
0.12050000 0.12050700 13935.35831387 0 486.82746915 0 3696.82494853 0 -473.23735595 0 1028.38337427 0 15999
0.12150000 0.12150000 13626.25244143 0 216.88379488 0 4497.44650570 0 -704.04519503 0 853.34750555 0 15670
0.12250000 0.12250700 12950.59138195 0 324.81381123 0 5102.00442686 0 -156.83223503 0 1212.93847358 0 16887
0.12350000 0.12352200 13334.72188512 0 -52.31666322 0 4329.12990003 0 288.99971079 0 198.14301559 0 16407
0.12450000 0.12449800 12898.85404509 0 -126.59060826 0 3848.79651020 0 409.75751100 0 86.48670268 0 16306
0.12550000 0.12549900 13083.83424736 0 295.46303329 0 4011.21440038 0 218.83795034 0 90.83165037 0 17523
0.12650000 0.12650100 12813.50391614 0 91.07825402 0 4171.64408293 0 -159.29937003 0 280.29992930 0 17154
0.12750000 0.12750600 12492.75439676 0 175.70482918 0 4054.58149294 0 -161.86207082 0 -118.05779228 0 18007
0.12850000 0.12850300 12360.93952579 0 211.61888924 0 4240.45144558 0 -245.01308834 0 -253.67552228 0 17496
0.12950000 0.12949900 12392.24555764 0 134.76093334 0 4373.14508237 0 -142.80932967 0 -39.89992206 0 18405
0.13050000 0.13049000 12139.49054255 0 -101.26468756 0 4321.29789978 0 617.10889379 0 -172.34354997 0 18100
0.13150000 0.13148800 12498.02699160 0 -27.22800929 0 3890.86742318 0 522.33839539 0 150.12725193 0 19059
0.13250000 0.13249300 12338.09161482 0 150.11297198 0 3866.09721201 0 -62.53627016 0 -32.23807284 0 18957
0.13350000 0.13349100 12175.08055771 0 231.28127416 0 4221.84357963 0 -94.92669902 0 331.63962463 0 19468
0.13450000 0.13450700 11851.14551229 0 205.28298777 0 3916.07701726 0 62.41972385 0 253.95343197 0 19953
0.13550000 0.13551000 11461.52272283 0 -9.93248120 0 3941.74796338 0 224.21489862 0 1045.17109654 0 19956
0.13650000 0.13649900 11569.39122557 0 188.28546016 0 3920.35001599 0 696.17804415 0 581.71220710 0 19723
0.13750000 0.13749600 11499.19980678 0 -56.49947861 0 3154.31887789 0 185.23724127 0 1245.32099355 0 20946
0.13850000 0.13851100 11402.53556806 0 121.80353153 0 3206.57248966 0 580.99491452 0 875.26282631 0 20955
0.13950000 0.13949800 11152.63654184 0 174.97984739 0 2747.15372601 0 -124.41346597 0 962.17935532 0 20506
0.14050000 0.14048300 11073.98700216 0 85.02685299 0 3132.67926990 0 79.22743805 0 921.92529064 0 21447
0.14150000 0.14148400 10775.60207256 0 -8.70312079 0 2679.76337323 0 80.68245453 0 1297.48672874 0 21771
0.14250000 0.14249400 10661.77993147 0 141.78886288 0 2725.67888662 0 195.52978578 0 923.42578325 0 22470
0.14350000 0.14350900 10664.81167350 0 67.16275244 0 2396.69093781 0 268.21470255 0 1217.29934889 0 22519
0.14450000 0.14449900 10597.92661105 0 14.96340446 0 2439.69553946 0 206.84828936 0 815.35955820 0 22218
0.14550000 0.14550500 10714.95624733 0 118.88493059 0 2411.88260169 0 76.36090399 0 936.03387566 0 23559
0.14650000 0.14650700 10369.21682534 0 233.72753847 0 2401.32642743 0 -134.83892381 0 1719.74468334 0 23044
0.14750000 0.14750500 10261.11764656 0 143.55847752 0 2755.44707831 0 -549.13086637 0 882.17981167 0 23649
0.14850000 0.14849900 9990.66648504 0 196.42612690 0 2929.36581599 0 -41.49400323 0 1161.12424471 0 23640
0.14950000 0.14949500 9991.19374452 0 49.68893376 0 3217.23850963 0 -61.41276808 0 634.93575663 0 24457
0.15050000 0.15050000 9898.56084394 0 36.35970416 0 3493.53346377 0 -79.88629271 0 885.87721880 0 24591
0.15150000 0.15149900 9972.57489400 0 161.74453589 0 3462.53499995 0 -68.20650653 0 674.94266843 0 25020
0.15250000 0.15250500 9721.90694769 0 110.75195305 0 3502.55179786 0 -190.48237468 0 790.92108112 0 25297
0.15350000 0.15350100 9620.07995986 0 106.68513474 0 3690.04746725 0 186.54550386 0 854.33172326 0 25452
0.15450000 0.15450400 9423.19248091 0 103.42403484 0 3754.03260254 0 17.44481941 0 560.13630964 0 26061
0.15550000 0.15549900 9457.09087190 0 24.47055203 0 3645.38419513 0 288.59657697 0 837.21116843 0 26128
0.15650000 0.15649500 9457.01397989 0 13.61373003 0 3407.59016789 0 475.97031761 0 918.08398561 0 26331
0.15750000 0.15749700 9201.37002221 0 185.28886876 0 3230.58476532 0 -258.45381135 0 839.76618001 0 27345
0.15850000 0.15849900 9076.58527768 0 135.06410755 0 3111.07261563 0 -102.58920732 0 452.18102877 0 26980
0.15950000 0.15949700 9132.11229208 0 52.37718821 0 3083.28164700 0 181.74963947 0 266.34402984 0 27777
0.16050000 0.16050000 8862.04559060 0 -7.87661958 0 3099.49487613 0 -144.08354009 0 217.33855618 0 28224
0.16150000 0.16150500 8795.55597276 0 154.19044532 0 2771.30880112 0 91.93988389 0 -165.89780278 0 28075
0.16250000 0.16249700 8686.56704361 0 81.25145539 0 2846.42130843 0 81.63668435 0 -497.85268465 0 28590
0.16350000 0.16349900 8691.23548696 0 183.78508077 0 2634.78154851 0 -190.16492053 0 -991.30934335 0 29163
0.16450000 0.16449100 8348.40697669 0 167.12697645 0 2733.03855025 0 -98.69968002 0 -602.98493037 0 28996
0.16550000 0.16550500 8266.08858977 0 -35.12119361 0 2986.99088375 0 169.97198075 0 -508.89327855 0 30777
0.16650000 0.16650700 8152.70583158 0 -62.03647211 0 2472.55039605 0 376.98943253 0 -514.35151266 0 29211
0.16750000 0.16749900 8405.96613702 0 97.11702280 0 2201.27539158 0 147.21524174 0 -898.75663015 0 30922
0.16850000 0.16850800 8234.80452706 0 64.96440993 0 2155.10723302 0 353.38029069 0 -361.80875323 0 30867
0.16950000 0.16949900 8371.62836313 0 117.78207950 0 2254.97896693 0 -225.29687902 0 -396.20913918 0 30852
0.17050000 0.17049200 7986.56417129 0 65.18596876 0 2199.97921202 0 -283.13834286 0 -227.00937388 0 31257
0.17150000 0.17149500 7838.53607118 0 -1.88664428 0 2375.45775901 0 150.71492656 0 -600.33984529 0 32608
0.17250000 0.17250900 7888.03255524 0 54.34144948 0 2443.00189581 0 -123.24800282 0 -674.24514807 0 32361
0.17350000 0.17350400 7880.57403045 0 152.86460741 0 2362.40808678 0 247.18034451 0 -316.32603200 0 32508
0.17450000 0.17449800 7925.64373175 0 68.19244628 0 2550.29920078 0 -149.63843845 0 -554.02009963 0 32791
0.17550000 0.17549800 7662.13482010 0 61.76493348 0 2404.51195348 0 181.53763722 0 -227.14448412 0 33633
0.17650000 0.17650100 7870.60003855 0 -22.62426507 0 2479.18507789 0 213.01283150 0 -172.93671689 0 33984
0.17750000 0.17750300 7765.62047839 0 12.63862952 0 2274.30083010 0 -0.87856589 0 -127.13324614 0 34069
0.17850000 0.17849800 7709.29159019 0 -28.61580019 0 2264.92000512 0 94.34913020 0 -328.00153419 0 34536
