### header ###
fiducial parameters:
Omega_m = 0.31
Omega_nu = 0
Omega_de = 0.69
Omega_k = 0
H_0 = 100
w_de = -1
zeff = 0
beta = 0
fgrowth = 0
b_1 = 2
gamma = 0.55
Lx = 3500 Ly = 3500 Lz = 3500
nx = 700 ny = 700 nz = 700
xoffset = -983.599254 yoffset = -42.9823471 zoffset = 800.977702
bins = 400 dk = 0.001
kx_ny = 0.628318531 ky_ny = 0.628318531 kz_ny = 0.628318531
############################
A(data) = 9.08780922 (not used)
A(ran) = 9.08128371 (used)
Ngal = 503860
weighted Ngal = 0
Nran = 25229228
weighted Nran = 0
SN(data) = 6734.37403
SN(ran) = 134.8054
SN(data+ran) = 6869.17943
############################
13 columns: k_central k_mean P_0(k) sigma^{lin}_{P_0(k)} P^img_1(k) sigma^{lin}_{P_1(k)} P_2(k) sigma^{lin}_{P_2(k)} P^img_3(k) sigma^{lin}_{P_3(k)} P_4(k) sigma^{lin}_{P_4(k)} N_modes
### header ###
0.00050000 0 0 0 0 0 0 0 0 0 0 0 0
0.00150000 0.00179520 62035.37365314 0 -58253.49515911 0 -2873.83880159 0 -109970.94994086 0 -7504.03386694 0 3
0.00250000 0.00253879 87196.96514514 0 -27461.54129908 0 -46615.45035490 0 7401.52583561 0 3179.82505542 0 6
0.00350000 0.00331552 111149.59457884 0 -14686.92276988 0 -1851.31789371 0 -97132.40119924 0 41101.19491906 0 7
0.00450000 0.00420575 98397.82396061 0 10897.70658137 0 -11931.22304640 0 -56432.91209947 0 19673.47933891 0 24
0.00550000 0.00557378 82555.87338379 0 22847.14204911 0 33778.00007053 0 -7372.37277998 0 -875.47922239 0 45
0.00650000 0.00659388 64254.36716029 0 18918.72935685 0 44875.49405801 0 -24438.25738752 0 15663.78080954 0 40
0.00750000 0.00754703 47686.33633585 0 339.45514802 0 58700.01803454 0 48660.55807809 0 -17310.80762239 0 57
0.00850000 0.00846663 53954.90237085 0 -327.54237906 0 51831.69433660 0 30787.88956817 0 5403.20140704 0 75
0.00950000 0.00948925 61375.85991535 0 -8513.72479404 0 29013.77125055 0 27160.56401036 0 6937.97687267 0 112
0.01050000 0.01054430 68356.88532797 0 1043.44322328 0 28487.17084100 0 -7067.84747430 0 7116.13565537 0 105
0.01150000 0.01145670 60428.77006739 0 -227.03134303 0 27104.43284446 0 -1810.19165397 0 18401.13629681 0 144
0.01250000 0.01249090 68633.03748267 0 -856.68681562 0 19359.10087163 0 7411.37899721 0 -651.99369939 0 169
0.01350000 0.01339930 70501.73297021 0 -2068.27418677 0 25183.23109999 0 12003.94091689 0 -5802.79818840 0 180
0.01450000 0.01448870 74008.99714970 0 669.72829183 0 23793.68266845 0 6223.12285823 0 6023.47825156 0 267
0.01550000 0.01550050 78103.82611658 0 1853.58071567 0 30165.94306861 0 -1346.28020014 0 5927.71474780 0 238
0.01650000 0.01653350 71222.21108582 0 4883.04894159 0 31700.59770395 0 -3870.77663993 0 6204.89945231 0 315
0.01750000 0.01747870 75019.68767291 0 -1478.40263915 0 31241.55241578 0 2567.58891803 0 3657.31344096 0 297
0.01850000 0.01844180 71769.24280037 0 -6231.89953172 0 25715.32379583 0 13178.08188011 0 5102.00442686 0 388
0.01950000 0.01947590 76948.02938957 0 -3138.07269504 0 23060.90183155 0 11201.84742700 0 22818.36246895 0 399
0.02050000 0.02045430 76588.17479180 0 2638.42842660 0 19965.22958667 0 -12864.69202437 0 -2342.41616468 0 462
0.02150000 0.02154770 73365.08150498 0 10479.75457922 0 26410.75708595 0 -5520.99996340 0 4000.69117985 0 571
0.02250000 0.02255340 75275.18883115 0 4244.87822833 0 36092.99874205 0 7022.58005070 0 6380.88328964 0 510
0.02350000 0.02348930 69079.56035810 0 -5305.42772649 0 36040.60233084 0 6706.13648377 0 5986.85568657 0 555
0.02450000 0.02439640 63367.69246153 0 -2319.75499145 0 28521.88209036 0 7686.58647867 0 6902.67245640 0 592
0.02550000 0.02547300 68876.89499397 0 2523.12336822 0 24668.93341173 0 4743.52290066 0 4959.71027364 0 837
0.02650000 0.02652900 69496.86427046 0 1043.46738933 0 26018.49799907 0 1855.75566104 0 10152.48022373 0 723
0.02750000 0.02749970 66011.56923613 0 -2589.98646152 0 23098.35922405 0 9553.45852716 0 6639.28437504 0 826
0.02850000 0.02848090 66539.81733157 0 3247.68774483 0 20259.50628613 0 -4156.83687909 0 6076.47881427 0 831
0.02950000 0.02946900 64065.54235762 0 5758.73906778 0 22421.70955304 0 -450.06649855 0 13749.93872870 0 996
0.03050000 0.03053250 58670.13999712 0 1213.54262507 0 26007.84296367 0 -290.08498656 0 10933.03296679 0 1041
0.03150000 0.03150510 56623.82397094 0 1843.58475462 0 27329.06735375 0 6227.64850213 0 11854.22119261 0 1036
0.03250000 0.03246190 53120.18470039 0 269.38565798 0 28351.62121535 0 -987.52405964 0 14069.15040791 0 1059
0.03350000 0.03345080 53972.69737843 0 121.72334415 0 25951.60195205 0 3187.38244136 0 9242.39740080 0 1302
0.03450000 0.03451200 54733.04949251 0 1327.00227526 0 28757.94055513 0 2374.60096234 0 7542.11738008 0 1339
0.03550000 0.03553350 53863.95010987 0 2011.61576139 0 27492.95717667 0 -1225.23021030 0 10844.20072833 0 1365
0.03650000 0.03647120 52379.71466268 0 1170.30734739 0 32550.14454739 0 -2717.06698171 0 12637.97044629 0 1308
0.03750000 0.03744890 50331.75095062 0 -269.31645518 0 25194.98459265 0 2806.86586257 0 902.71986394 0 1579
0.03850000 0.03847530 52386.52509768 0 192.61997250 0 28563.51362044 0 5464.34153802 0 2476.86733308 0 1662
0.03950000 0.03950240 50817.15921299 0 159.79147888 0 25050.31777175 0 1361.28512629 0 3798.72882837 0 1683
0.04050000 0.04050350 50222.89383634 0 1413.70350665 0 26551.24976927 0 -2730.78671287 0 3543.41440786 0 1822
0.04150000 0.04152450 48021.58549104 0 2271.59862525 0 25165.98532103 0 2838.33666301 0 -3494.30238385 0 1887
0.04250000 0.04250150 47300.99752970 0 27.21768379 0 24696.17515173 0 2052.99464631 0 4697.70624843 0 1920
0.04350000 0.04349210 45263.24947013 0 -461.72442543 0 19190.81721969 0 5338.97461115 0 162.04111935 0 2005
0.04450000 0.04448520 46078.08506422 0 140.06758036 0 18688.60256127 0 1454.75285438 0 1639.82093323 0 2151
0.04550000 0.04548030 43471.66568212 0 2115.81541690 0 16828.36519462 0 1028.43280484 0 -2764.09193693 0 2274
0.04650000 0.04648670 42629.47850231 0 1280.73525555 0 16775.19986332 0 -2327.61994541 0 -370.81390583 0 2311
0.04750000 0.04749250 39555.11632824 0 1973.21369565 0 18625.88065183 0 -1292.11527274 0 -2892.54552870 0 2568
0.04850000 0.04851840 39522.05276477 0 -253.86665384 0 19006.93547468 0 3217.34835536 0 -2326.37868871 0 2493
0.04950000 0.04949480 40802.30469913 0 -1304.29716374 0 16149.07922619 0 3713.06014681 0 -3917.31827396 0 2644
0.05050000 0.05050630 38051.43818758 0 936.73908522 0 15017.22886741 0 2434.82937381 0 3170.97148992 0 2829
0.05150000 0.05149060 41205.65820431 0 -11.57301613 0 13765.86635894 0 2325.07152458 0 765.95204918 0 2784
0.05250000 0.05249300 38988.53207449 0 288.01000080 0 13241.57270963 0 -565.95373928 0 2594.28142940 0 3055
0.05350000 0.05348950 36844.56319807 0 1708.91389477 0 12176.61839787 0 122.16602242 0 4897.40577796 0 3009
0.05450000 0.05448610 38406.13003623 0 961.39725375 0 15735.18053132 0 -1600.25450280 0 1768.15369470 0 3336
0.05550000 0.05550870 35300.57167603 0 1467.53889687 0 16141.93925401 0 -372.05735945 0 3451.61633480 0 3349
0.05650000 0.05647670 35229.39164571 0 -239.55485423 0 15642.91012164 0 3342.35279133 0 3979.02960272 0 3324
0.05750000 0.05747970 35048.14619811 0 -1177.62307273 0 13407.76929279 0 674.76911218 0 3982.67648082 0 3639
0.05850000 0.05849280 34865.91213899 0 941.88316056 0 13015.62005163 0 2871.54302592 0 2684.88218405 0 3846
0.05950000 0.05951020 35089.33834529 0 1563.50012294 0 13215.97865552 0 -3007.72975679 0 1035.01476073 0 3787
0.06050000 0.06049470 34158.72535620 0 -454.08026137 0 14586.30408504 0 -655.99318227 0 985.43479393 0 3930
0.06150000 0.06148310 32670.97484579 0 -201.43289508 0 13845.94389306 0 1025.63393575 0 1383.26525602 0 4083
0.06250000 0.06249100 33874.99384643 0 -257.06645983 0 12482.31905281 0 2367.99923422 0 391.53080972 0 4303
0.06350000 0.06350600 33503.71529318 0 419.66339856 0 10604.81393806 0 556.88048233 0 -1670.55576732 0 4470
0.06450000 0.06451750 32892.97305765 0 1855.59089245 0 11667.15392155 0 434.65843859 0 -1475.60157314 0 4479
0.06550000 0.06550280 31981.80276203 0 384.75772226 0 10737.52954399 0 -1028.74696362 0 -664.29751914 0 4636
0.06650000 0.06648880 30845.66841994 0 -521.51784782 0 9832.17008726 0 2864.28222345 0 300.71365899 0 4653
0.06750000 0.06749660 30760.42813671 0 -54.24698216 0 8343.36505788 0 2149.59297759 0 650.21969092 0 5220
0.06850000 0.06852730 30062.35854917 0 820.69366664 0 7538.52542484 0 -271.20909703 0 -773.59731170 0 5029
0.06950000 0.06949320 28867.45674377 0 1804.77625969 0 8021.51708124 0 -570.18499664 0 1087.59022048 0 5040
0.07050000 0.07048030 27971.11562113 0 547.79953617 0 9833.88368058 0 -1268.81699430 0 2165.74029928 0 5475
0.07150000 0.07148790 27058.95671398 0 318.29336895 0 9727.71778659 0 397.01760372 0 1090.67468846 0 5509
0.07250000 0.07249820 26565.31002217 0 566.08555415 0 10358.93526540 0 632.76520509 0 -77.90127060 0 5916
0.07350000 0.07351270 26429.65055079 0 111.18694213 0 9832.33485585 0 -768.77508434 0 949.57126291 0 5721
0.07450000 0.07449140 26493.47091749 0 -62.22639537 0 11283.79233846 0 851.79099162 0 659.43794423 0 6028
0.07550000 0.07549160 25597.45933203 0 676.38713973 0 10470.40670796 0 -408.40640857 0 423.00270862 0 6183
0.07650000 0.07648840 25754.64856567 0 31.99146919 0 10416.88987034 0 159.08626932 0 668.16079332 0 6330
0.07750000 0.07749960 25546.93029816 0 -382.17415079 0 11100.24013062 0 -454.16264566 0 -682.99545859 0 6583
0.07850000 0.07848650 25110.29353805 0 1300.85899252 0 10864.54415675 0 705.04149576 0 -1217.58494778 0 6549
0.07950000 0.07947320 24972.87653505 0 -502.13666795 0 9921.72730752 0 632.71797143 0 -300.61479783 0 6828
0.08050000 0.08048110 24675.08477237 0 153.80378837 0 10654.11269981 0 1319.68654992 0 -1697.19335583 0 7147
0.08150000 0.08149960 24389.92526816 0 804.33873653 0 8859.46421604 0 82.79039401 0 -1528.88773473 0 7386
0.08250000 0.08250610 24316.43847759 0 -545.43126233 0 8050.34059970 0 684.16751249 0 -1220.60570524 0 7227
0.08350000 0.08350160 23622.76271908 0 358.64299941 0 7869.39173556 0 115.77739501 0 -1557.35974687 0 7798
0.08450000 0.08449610 23323.10357906 0 887.64793190 0 6842.81752040 0 1188.75044475 0 -1353.84857065 0 7371
0.08550000 0.08548940 22152.36783334 0 -87.71093330 0 7093.81500389 0 69.07747329 0 345.98437797 0 8256
0.08650000 0.08650700 22030.54892342 0 604.96764572 0 5861.19217624 0 1624.71714593 0 -807.43309062 0 8037
0.08750000 0.08749060 21833.81522848 0 492.06711027 0 6804.67908440 0 -232.23253814 0 -241.15860182 0 8155
0.08850000 0.08849210 20987.89329400 0 454.26040836 0 6127.40329275 0 -1368.33722189 0 -1632.06582499 0 8718
0.08950000 0.08949900 20209.19694370 0 466.87289460 0 6739.61746100 0 -17.32761402 0 -331.79780248 0 8571
0.09050000 0.09049190 19746.30705513 0 99.63150131 0 7194.11513613 0 -346.63796003 0 -490.77202916 0 8932
0.09150000 0.09150830 19580.98923778 0 79.06574514 0 7572.30298553 0 846.32067447 0 -681.40269557 0 9285
0.09250000 0.09250820 19750.37134698 0 475.60233443 0 7173.15657164 0 550.13156093 0 -1897.93641975 0 9204
0.09350000 0.09350330 18942.01665072 0 284.39827333 0 7191.65459187 0 -399.71980858 0 67.56039397 0 9349
0.09450000 0.09448040 18666.85310756 0 364.59773621 0 7730.32704668 0 -60.70689945 0 270.13480583 0 9564
0.09550000 0.09549270 18284.04075310 0 324.81820506 0 7504.42931155 0 750.69557632 0 230.05649431 0 10155
0.09650000 0.09649430 18152.22588212 0 79.03520803 0 7832.29683396 0 18.17683132 0 753.73061373 0 9913
0.09750000 0.09749140 17645.83708612 0 29.48171404 0 7148.39734504 0 1227.80060028 0 1686.39552098 0 10476
0.09850000 0.09850240 17548.29408160 0 577.00531775 0 7264.32852407 0 -330.94649810 0 864.17499875 0 10575
0.09950000 0.09950330 16932.16940551 0 806.01498230 0 7107.11732128 0 -150.09429821 0 962.76922687 0 10882
0.10050000 0.10051200 16452.36327516 0 10.96707416 0 7474.33158268 0 632.69380537 0 1994.19422928 0 10875
0.10150000 0.10150300 15948.72062230 0 -449.84461018 0 6550.56198230 0 955.94451192 0 1662.06469271 0 11118
0.10250000 0.10250800 16903.27997962 0 -71.44508806 0 5665.10657109 0 1084.41128517 0 1031.35579961 0 11575
0.10350000 0.10349800 16306.92753418 0 138.98230459 0 4727.72708529 0 -69.07571576 0 737.15049987 0 11364
0.10450000 0.10450100 16209.05499248 0 370.93803150 0 5189.45260918 0 -721.27010329 0 410.21776459 0 12093
0.10550000 0.10551000 15821.73896326 0 401.54324763 0 5295.37684258 0 -52.71485397 0 937.39925803 0 12067
0.10650000 0.10649700 15516.69738268 0 -305.71603334 0 4966.16920232 0 474.70269793 0 -5.19558200 0 12054
0.10750000 0.10749900 15580.18821220 0 28.45674357 0 4593.31985519 0 462.11547621 0 -919.51747233 0 12807
0.10850000 0.10850100 15771.64931229 0 611.26839655 0 4782.79274764 0 127.10688317 0 -683.93244263 0 12736
0.10950000 0.10950300 14795.67003844 0 261.78543222 0 4860.86010498 0 -877.25542778 0 130.77023812 0 12933
0.11050000 0.11050200 14874.64911530 0 -194.61696780 0 4951.75744309 0 575.41365319 0 -0.29820039 0 13428
0.11150000 0.11150900 14879.70201869 0 -137.55870398 0 4162.38408825 0 1111.71563724 0 -480.37293430 0 13453
0.11250000 0.11250000 15036.23217797 0 -91.26268499 0 3270.70042439 0 656.18651075 0 759.09438052 0 13668
0.11350000 0.11349100 15132.34718806 0 210.68629902 0 3226.94887179 0 290.53645249 0 -230.78477148 0 13791
0.11450000 0.11448600 14774.14027618 0 312.80218111 0 3844.89698693 0 -651.95195802 0 276.13018555 0 14205
0.11550000 0.11549300 14291.91753986 0 391.20676483 0 4065.12668261 0 -911.70414585 0 -11.15494330 0 14776
0.11650000 0.11649800 14026.09088339 0 94.63352078 0 4060.45823927 0 132.21251250 0 138.29137497 0 14553
0.11750000 0.11747300 14032.24224404 0 -93.99377928 0 4315.52001460 0 301.58803096 0 -506.13065854 0 14568
0.11850000 0.11849100 14352.55238051 0 66.42008549 0 4137.37221648 0 268.08837996 0 -1016.90779129 0 16015
0.11950000 0.11950300 14084.41896380 0 297.47211162 0 4343.15719922 0 -747.28047271 0 -859.72514839 0 15270
0.12050000 0.12050700 13871.86748435 0 -31.62139894 0 4488.19749558 0 179.85809608 0 20.56432818 0 15999
0.12150000 0.12150000 14200.41605026 0 -226.43707765 0 4106.31882979 0 897.08807357 0 -360.77510495 0 15670
0.12250000 0.12250700 13906.46888798 0 -81.57198522 0 3568.23954190 0 234.10650623 0 -696.85579227 0 16887
0.12350000 0.12352200 13954.47147016 0 479.11190537 0 4042.32270993 0 -111.93499152 0 -152.71082340 0 16407
0.12450000 0.12449800 13237.17888060 0 444.96745995 0 4157.45201516 0 -456.62318992 0 436.35225968 0 16306
0.12550000 0.12549900 13439.73439900 0 -60.82443437 0 4099.44248736 0 815.31342299 0 503.53610250 0 17523
0.12650000 0.12650100 13338.12710262 0 48.72053384 0 4010.26972714 0 318.73275185 0 89.38223601 0 17154
0.12750000 0.12750600 13020.45326357 0 254.25770463 0 3862.83479396 0 -48.57696548 0 1008.51447938 0 18007
0.12850000 0.12850300 12806.14425251 0 70.50766464 0 4019.31003038 0 -97.59254494 0 971.22405238 0 17496
0.12950000 0.12949900 12380.49206498 0 212.02421997 0 3675.63570802 0 -12.67817398 0 798.52570072 0 18405
0.13050000 0.13049000 12546.13941951 0 56.03285397 0 4209.15639830 0 505.71434324 0 829.74495445 0 18100
0.13150000 0.13148800 12480.45167547 0 118.12809354 0 3656.90701177 0 -177.22729094 0 128.43821336 0 19059
0.13250000 0.13249300 12488.58025918 0 -42.55862801 0 3395.69387579 0 195.33096501 0 959.04985059 0 18957
0.13350000 0.13349100 12405.64673619 0 -148.61797165 0 3339.82633964 0 231.27138804 0 174.42512648 0 19468
0.13450000 0.13450700 12361.81829159 0 173.60897273 0 3220.12745222 0 -17.10034321 0 -108.55833391 0 19953
0.13550000 0.13551000 12318.75876707 0 219.21252426 0 3068.86988778 0 22.97939630 0 -86.96859588 0 19956
0.13650000 0.13649900 12134.54748488 0 18.64576273 0 3264.27444943 0 181.70679964 0 123.39849146 0 19723
0.13750000 0.13749600 11917.71202213 0 -58.55612013 0 2642.40484188 0 485.78723012 0 110.68055333 0 20946
0.13850000 0.13851100 12030.41373681 0 184.22885751 0 2688.47413928 0 -136.81175304 0 -431.25541800 0 20955
0.13950000 0.13949800 11668.69176171 0 346.08214066 0 2453.53610091 0 -139.69959718 0 91.39263249 0 20506
0.14050000 0.14048300 11515.01759130 0 -6.88472366 0 2795.55175281 0 295.29167396 0 -148.56854108 0 21447
0.14150000 0.14148400 11449.32984726 0 64.23832968 0 2207.41576766 0 31.96708343 0 103.11602742 0 21771
0.14250000 0.14249400 11375.40367379 0 68.63787069 0 2411.57503365 0 369.48916638 0 70.74427233 0 22470
0.14350000 0.14350900 10961.53793264 0 132.06422077 0 2038.33024191 0 -45.69417425 0 24.39563725 0 22519
0.14450000 0.14449900 10839.56523870 0 339.72536851 0 2659.21123793 0 -355.13123155 0 -310.53276842 0 22218
0.14550000 0.14550500 10487.65248691 0 525.67550854 0 2988.70447708 0 -558.07340691 0 197.63223297 0 23559
0.14650000 0.14650700 10214.13662963 0 83.82129615 0 3262.90137785 0 94.69042087 0 18.51515616 0 23044
0.14750000 0.14750500 10179.59014886 0 -275.24702591 0 2846.46524672 0 584.66156484 0 -136.16366326 0 23649
0.14850000 0.14849900 10388.98905598 0 96.39423792 0 2866.63292198 0 150.43591842 0 17.40033189 0 23640
0.14950000 0.14949500 10121.03139243 0 153.42262370 0 2720.27447691 0 -125.60419364 0 -205.08746238 0 24457
0.15050000 0.15050000 9840.50737785 0 348.94142491 0 3137.84201901 0 -494.76711821 0 20.18063705 0 24591
0.15150000 0.15149900 9703.33203546 0 243.41483303 0 3305.30182802 0 -156.24565885 0 -115.62470945 0 25020
0.15250000 0.15250500 9577.50375654 0 19.98126706 0 3533.57223083 0 186.09403793 0 197.67617126 0 25297
0.15350000 0.15350100 9550.55859999 0 -116.20579334 0 2968.69058583 0 234.41407426 0 -259.09201502 0 25452
0.15450000 0.15450400 9436.83532006 0 21.55799261 0 3122.72724714 0 345.45931540 0 177.78860260 0 26061
0.15550000 0.15549900 9425.31250342 0 220.64381407 0 3180.15459260 0 -101.55094552 0 567.30923554 0 26128
0.15650000 0.15649500 9457.28859421 0 63.25301352 0 3183.93328557 0 -52.78581431 0 -19.95556316 0 26331
0.15750000 0.15749700 9110.64843726 0 16.21147160 0 3081.72183770 0 146.92744593 0 58.21021594 0 27345
0.15850000 0.15849900 9375.37663647 0 109.49213242 0 3020.61466043 0 -49.62269679 0 -10.65202563 0 26980
0.15950000 0.15949700 9067.24839099 0 -21.41574240 0 2940.00986682 0 287.42342462 0 201.51418092 0 27777
0.16050000 0.16050000 9014.61031918 0 96.40917694 0 2922.23682839 0 176.29030690 0 -15.42244975 0 28224
0.16150000 0.16150500 9007.18474811 0 143.28276475 0 2629.94833657 0 15.24911319 0 180.95875025 0 28075
0.16250000 0.16249700 8672.41891412 0 217.35503304 0 2710.21260842 0 199.84123052 0 741.32683437 0 28590
0.16350000 0.16349900 8565.53902291 0 -26.01641093 0 2434.43392920 0 151.04556219 0 223.03515552 0 29163
0.16450000 0.16449100 8715.62123809 0 -18.62126713 0 2409.48796486 0 295.27739402 0 278.80273206 0 28996
0.16550000 0.16550500 8518.16256136 0 149.90865893 0 2061.83722724 0 -10.73169674 0 293.27051261 0 30777
0.16650000 0.16650700 8431.74692887 0 95.17187468 0 2020.74394121 0 -215.68757492 0 451.87346074 0 29211
0.16750000 0.16749900 8285.27863807 0 22.66963136 0 2192.22410378 0 213.31051341 0 427.38445462 0 30922
0.16850000 0.16850800 8270.01008218 0 8.34663846 0 1906.58127837 0 313.78530036 0 466.33245362 0 30867
0.16950000 0.16949900 8262.03528248 0 104.96275376 0 2053.45599836 0 -108.58689380 0 99.55790467 0 30852
0.17050000 0.17049200 8141.51255212 0 303.57623860 0 2321.46858477 0 -126.52470082 0 342.46052708 0 31257
0.17150000 0.17149500 7958.20200488 0 144.63386718 0 2579.62800958 0 -425.30177966 0 412.09612650 0 32608
0.17250000 0.17250900 7861.05444498 0 45.28994198 0 2677.79713473 0 -93.86789607 0 552.36472454 0 32361
0.17350000 0.17350400 7818.36839592 0 -73.53116824 0 2919.68840755 0 144.58223969 0 385.11691779 0 32508
0.17450000 0.17449800 7772.95817287 0 68.31459472 0 2777.71280693 0 30.83699061 0 402.82404879 0 32791
0.17550000 0.17549800 7860.29650947 0 42.70516221 0 2773.87919110 0 211.69248587 0 565.53193169 0 33633
0.17650000 0.17650100 7860.10977173 0 34.86602198 0 2687.45257403 0 117.08236223 0 236.25618708 0 33984
0.17750000 0.17750300 7860.32946319 0 -10.51611351 0 2593.56743218 0 202.14030156 0 504.79054069 0 34069
0.17850000 0.17849800 7790.67628845 0 31.01581945 0 2396.72389152 0 99.59063870 0 709.43532479 0 34536
