### header ###
fiducial parameters:
Omega_m = 0.31
Omega_nu = 0
Omega_de = 0.69
Omega_k = 0
H_0 = 100
w_de = -1
zeff = 0
beta = 0
fgrowth = 0
b_1 = 2
gamma = 0.55
Lx = 3500 Ly = 3500 Lz = 3500
nx = 700 ny = 700 nz = 700
xoffset = -983.599254 yoffset = -42.9823471 zoffset = 800.977702
bins = 400 dk = 0.001
kx_ny = 0.628318531 ky_ny = 0.628318531 kz_ny = 0.628318531
############################
A(data) = 9.12307151 (not used)
A(ran) = 9.12267549 (used)
Ngal = 506480
weighted Ngal = 0
Nran = 25229228
weighted Nran = 0
SN(data) = 6692.36221
SN(ran) = 135.419833
SN(data+ran) = 6827.78204
############################
13 columns: k_central k_mean P_0(k) sigma^{lin}_{P_0(k)} P^img_1(k) sigma^{lin}_{P_1(k)} P_2(k) sigma^{lin}_{P_2(k)} P^img_3(k) sigma^{lin}_{P_3(k)} P_4(k) sigma^{lin}_{P_4(k)} N_modes
### header ###
0.00050000 0 0 0 0 0 0 0 0 0 0 0 0
0.00150000 0.00179520 20539.50304122 0 -22874.93301774 0 -4001.99834399 0 -54418.78087096 0 -79619.14790417 0 3
0.00250000 0.00253879 24030.18051612 0 -9190.82483253 0 -9037.30444613 0 11138.46644321 0 16805.07790075 0 6
0.00350000 0.00331552 37985.42090637 0 -13740.82153345 0 18381.80344907 0 -53813.53092173 0 -14700.98302279 0 7
0.00450000 0.00420575 22466.08722627 0 -723.32641528 0 3394.26588135 0 2803.65836737 0 27021.05993857 0 24
0.00550000 0.00557378 33815.56730876 0 2488.79657890 0 15550.31017478 0 7549.54295114 0 -6154.98555450 0 45
0.00650000 0.00659388 36371.34781126 0 -3573.81970477 0 -1883.30496907 0 23362.75788608 0 38665.36594915 0 40
0.00750000 0.00754703 70027.74866332 0 -20942.85654641 0 5863.75158165 0 17641.22356564 0 -44702.81657703 0 57
0.00850000 0.00846663 75096.03045235 0 -1691.60220838 0 15797.13352068 0 -19676.11563633 0 18886.65440491 0 75
0.00950000 0.00948925 55517.23812909 0 13277.16272480 0 25806.93513116 0 -26444.80926095 0 11926.17014302 0 112
0.01050000 0.01054430 60035.30267752 0 -1672.92843499 0 29446.12402736 0 -5109.51787450 0 2623.89583708 0 105
0.01150000 0.01145670 59519.02776620 0 -3895.92032657 0 37623.03985691 0 23389.01101455 0 -3964.63981264 0 144
0.01250000 0.01249090 71159.81871355 0 -3855.16756229 0 33504.92359616 0 7898.79743636 0 1129.33489166 0 169
0.01350000 0.01339930 69100.32120028 0 -3733.53539010 0 8326.72343042 0 7320.52559739 0 2375.42480529 0 180
0.01450000 0.01448870 81199.05897855 0 -376.09089450 0 30539.96776501 0 -9141.38327134 0 -9574.24133848 0 267
0.01550000 0.01550050 75570.12460496 0 6358.13423982 0 24279.53031372 0 1906.15288004 0 15207.04228161 0 238
0.01650000 0.01653350 68917.09852962 0 4714.98498110 0 43719.25794810 0 -9079.13369852 0 -20144.82734838 0 315
0.01750000 0.01747870 70332.90008963 0 4997.10175870 0 22893.27725395 0 6822.84756745 0 -5027.94643851 0 297
0.01850000 0.01844180 73969.23299696 0 -4270.94461907 0 43608.31376503 0 7439.81805563 0 -16613.50695493 0 388
0.01950000 0.01947590 64706.27247629 0 -983.26973467 0 28697.41556021 0 1490.09022438 0 4271.14234138 0 399
0.02050000 0.02045430 68567.45958436 0 2885.72410913 0 31862.62014952 0 4864.55092137 0 -10863.53357607 0 462
0.02150000 0.02154770 69118.66543649 0 3627.05094350 0 33839.51367699 0 -8822.84165105 0 -9820.49348661 0 571
0.02250000 0.02255340 60944.16621291 0 3072.16525955 0 33348.83281978 0 9155.33367852 0 -2759.50038559 0 510
0.02350000 0.02348930 66657.46210391 0 -2600.01537629 0 34219.36019685 0 6179.86561140 0 -4460.15388178 0 555
0.02450000 0.02439640 67811.39145358 0 -535.88676721 0 30159.35232506 0 1875.45099968 0 -16822.43352542 0 592
0.02550000 0.02547300 62302.51845831 0 2694.94405253 0 33335.21194978 0 -2533.89923392 0 -3871.80918975 0 837
0.02650000 0.02652900 61826.88646554 0 2952.10388124 0 30237.67232757 0 -1924.48613168 0 -7959.68492218 0 723
0.02750000 0.02749970 62672.58870858 0 1049.47704899 0 38375.26338728 0 2969.42655220 0 1260.65545687 0 826
0.02850000 0.02848090 56903.05180595 0 1601.36394463 0 30524.36967194 0 7249.08193732 0 3384.78619522 0 831
0.02950000 0.02946900 61174.29300848 0 -5096.29244911 0 27395.63386360 0 16666.89197767 0 6529.26289607 0 996
0.03050000 0.03053250 62225.29691307 0 -1936.85476041 0 19862.41398731 0 1745.14101514 0 4847.79944818 0 1041
0.03150000 0.03150510 62372.38033993 0 7297.58980984 0 20059.03783652 0 -469.17526101 0 4673.67200362 0 1036
0.03250000 0.03246190 60095.49813527 0 413.26927886 0 22009.01916116 0 168.19687382 0 16600.43531355 0 1059
0.03350000 0.03345080 57108.57315895 0 -1447.31629875 0 22317.79549642 0 2213.20463741 0 9650.01292015 0 1302
0.03450000 0.03451200 57921.87091287 0 1639.55730349 0 23344.08411269 0 329.39437800 0 4380.07634767 0 1339
0.03550000 0.03553350 54821.25561034 0 4518.93232967 0 25047.46178288 0 -2208.89868495 0 7833.15363062 0 1365
0.03650000 0.03647120 50709.51040169 0 3869.08501575 0 26158.55129948 0 -4546.91003603 0 8817.88760882 0 1308
0.03750000 0.03744890 49603.14425130 0 1462.25531746 0 31103.03695552 0 1267.86133648 0 809.79806910 0 1579
0.03850000 0.03847530 46137.18206471 0 -93.39874498 0 30623.23082517 0 1284.34917993 0 3765.69821862 0 1662
0.03950000 0.03950240 44924.59509745 0 1661.20789605 0 30055.21857699 0 4516.39489340 0 3052.39302890 0 1683
0.04050000 0.04050350 43867.98906085 0 1277.00050087 0 29057.27015798 0 838.51833257 0 30.03357897 0 1822
0.04150000 0.04152450 43923.24146094 0 771.66073155 0 26032.22871480 0 3151.01252154 0 2178.57028006 0 1887
0.04250000 0.04250150 44307.59165556 0 -1480.94007542 0 23258.07490938 0 6004.25524954 0 6021.98434969 0 1920
0.04350000 0.04349210 43601.28363858 0 -1841.76131557 0 16972.70247834 0 5746.55717678 0 4292.95770252 0 2005
0.04450000 0.04448520 44217.73785184 0 491.54753999 0 13925.47219855 0 2663.69294354 0 1062.03461237 0 2151
0.04550000 0.04548030 43273.06460985 0 1751.96243472 0 11938.47286431 0 730.78494006 0 2859.08652062 0 2274
0.04650000 0.04648670 39722.74090583 0 2342.58093327 0 14948.79498022 0 -1517.62854784 0 3847.79691409 0 2311
0.04750000 0.04749250 37855.80294991 0 2102.71082181 0 13325.82438133 0 -1771.74564994 0 1545.39754732 0 2568
0.04850000 0.04851840 35656.36198194 0 412.08294502 0 15568.21502809 0 -720.60114282 0 179.73177349 0 2493
0.04950000 0.04949480 34988.82950618 0 -335.79838381 0 12821.41280840 0 4518.78953022 0 2023.72076038 0 2644
0.05050000 0.05050630 36044.11739406 0 -753.43842410 0 10014.96435959 0 2029.89409017 0 -2294.88591912 0 2829
0.05150000 0.05149060 35125.03820618 0 1362.20783038 0 11555.11128122 0 -1319.91722595 0 -2404.46801519 0 2784
0.05250000 0.05249300 34388.85215178 0 1559.26007792 0 11860.15286180 0 -3121.15645326 0 -2563.51364160 0 3055
0.05350000 0.05348950 33499.87069277 0 419.29541537 0 13518.93316731 0 -146.46719234 0 -2702.20485501 0 3009
0.05450000 0.05448610 33340.26485317 0 -145.64444786 0 13725.33328611 0 -900.99858141 0 -7442.67404450 0 3336
0.05550000 0.05550870 32600.89327272 0 772.20886172 0 12802.62918928 0 1487.05848234 0 -2834.52501633 0 3349
0.05650000 0.05647670 32825.19824483 0 -1447.30531417 0 12035.02725730 0 2604.11262186 0 -2509.29379134 0 3324
0.05750000 0.05747970 34405.43885638 0 -1113.97845919 0 9179.86222909 0 2491.18023115 0 -4586.27874416 0 3639
0.05850000 0.05849280 34946.64874746 0 583.67954405 0 8359.97373162 0 463.94111217 0 -4418.00607679 0 3846
0.05950000 0.05951020 34533.07958978 0 715.69433425 0 8435.98697388 0 -940.63860849 0 -2042.02105830 0 3787
0.06050000 0.06049470 33424.73621632 0 153.05903435 0 7364.31010370 0 1030.00799255 0 -2358.90400813 0 3930
0.06150000 0.06148310 33270.84235445 0 -480.97049505 0 8191.53629566 0 73.73251546 0 -2046.90919310 0 4083
0.06250000 0.06249100 33749.22049037 0 821.73720104 0 7751.58219463 0 958.18097090 0 -3953.73213207 0 4303
0.06350000 0.06350600 33101.13070807 0 1084.71226246 0 8374.20973769 0 -1373.01664980 0 -2099.26166602 0 4470
0.06450000 0.06451750 32003.55221574 0 382.57289078 0 9563.71811795 0 450.80795720 0 0.04979296 0 4479
0.06550000 0.06550280 31220.02265352 0 -429.55610462 0 8005.62240472 0 2218.87267686 0 -1139.91303506 0 4636
0.06650000 0.06648880 31212.00391553 0 174.40096042 0 9267.06875081 0 -822.99383614 0 882.83559065 0 4653
0.06750000 0.06749660 31070.19308351 0 583.35549916 0 8235.26587910 0 747.94284244 0 -1597.70608196 0 5220
0.06850000 0.06852730 30695.83884993 0 271.51776352 0 7981.82982051 0 182.11652420 0 924.07826686 0 5029
0.06950000 0.06949320 30918.38629043 0 89.86105353 0 7572.48972326 0 558.42601169 0 -1224.14273761 0 5040
0.07050000 0.07048030 29644.28571672 0 874.80806501 0 8603.13921485 0 -1459.47622059 0 -1522.20911460 0 5475
0.07150000 0.07148790 29170.63094702 0 404.58926960 0 8741.16036934 0 118.73554040 0 -1468.06615635 0 5509
0.07250000 0.07249820 28032.62922759 0 276.67172498 0 8986.51178251 0 58.72506286 0 -1294.90535418 0 5916
0.07350000 0.07351270 28350.52275809 0 -31.99509409 0 8042.90404406 0 840.87452339 0 -1370.55610555 0 5721
0.07450000 0.07449140 27559.63353224 0 767.49977546 0 8004.82053092 0 -632.04242022 0 -4150.91619447 0 6028
0.07550000 0.07549160 27309.51481456 0 1083.89830564 0 8495.41351155 0 -673.52456011 0 -2194.64070974 0 6183
0.07650000 0.07648840 26114.17362626 0 499.65964684 0 9819.07647674 0 663.77355503 0 -782.70571928 0 6330
0.07750000 0.07749960 26110.10933440 0 -278.32380469 0 8934.78543023 0 1077.86338146 0 -2107.26941943 0 6583
0.07850000 0.07848650 25592.29658292 0 821.77235167 0 8989.43367882 0 618.84335780 0 -2311.21997855 0 6549
0.07950000 0.07947320 24517.45615583 0 -41.36515420 0 8214.55995979 0 -243.38407623 0 -139.65016660 0 6828
0.08050000 0.08048110 24067.85760008 0 507.84425187 0 9008.74455742 0 1125.44635297 0 1162.48633171 0 7147
0.08150000 0.08149960 23850.36306297 0 393.19057863 0 7580.21187779 0 1100.62121893 0 1296.12464174 0 7386
0.08250000 0.08250610 23983.49608265 0 51.54862190 0 8349.46149566 0 706.63645570 0 907.83098556 0 7227
0.08350000 0.08350160 23353.53084511 0 388.30903458 0 7182.19687488 0 -881.51414657 0 1023.25687424 0 7798
0.08450000 0.08449610 22939.63215025 0 546.04200456 0 7933.62951602 0 778.91823866 0 2043.76760534 0 7371
0.08550000 0.08548940 22378.32049134 0 -313.88196460 0 7927.70883140 0 -164.00955475 0 1369.91900034 0 8256
0.08650000 0.08650700 22038.78735285 0 503.30542648 0 7649.30483932 0 -514.81835700 0 267.98732190 0 8037
0.08750000 0.08749060 22113.26275495 0 880.97041022 0 8055.25070364 0 617.01332801 0 298.16963198 0 8155
0.08850000 0.08849210 20734.36935882 0 260.79352531 0 8472.52166229 0 207.18661420 0 1183.54375735 0 8718
0.08950000 0.08949900 21064.45576489 0 226.89623278 0 7777.42889391 0 342.88233467 0 443.21981446 0 8571
0.09050000 0.09049190 19817.48708545 0 409.40930005 0 7410.92862974 0 -87.84813061 0 450.46084470 0 8932
0.09150000 0.09150830 20059.58706515 0 304.74939095 0 7703.73339647 0 -24.91114324 0 1253.91092931 0 9285
0.09250000 0.09250820 19307.47338050 0 212.04179528 0 7863.49302009 0 1003.85811906 0 1400.77466472 0 9204
0.09350000 0.09350330 19705.44444512 0 -363.03682844 0 6896.26845058 0 1438.08925778 0 842.63644883 0 9349
0.09450000 0.09448040 19343.72247002 0 -131.79839412 0 6477.92100382 0 71.50638198 0 1077.59975172 0 9564
0.09550000 0.09549270 18986.06478677 0 925.51944279 0 6729.78626854 0 -867.60438231 0 44.05439726 0 10155
0.09650000 0.09649430 18583.91958457 0 793.00705145 0 8062.68725928 0 -1035.88913271 0 2060.27741793 0 9913
0.09750000 0.09749140 18164.74829486 0 -126.74768764 0 7728.21800875 0 772.10780366 0 1408.17826664 0 10476
0.09850000 0.09850240 18075.66341123 0 192.41346254 0 7893.04152033 0 643.01490977 0 1059.08745155 0 10575
0.09950000 0.09950330 17584.32347967 0 188.13606997 0 7888.06550895 0 399.72090703 0 1864.05999791 0 10882
0.10050000 0.10051200 17471.40207353 0 280.87002862 0 7534.17553410 0 155.19004143 0 2345.36003013 0 10875
0.10150000 0.10150300 17192.61362142 0 168.98995996 0 7338.01303694 0 526.46090548 0 1957.38492656 0 11118
0.10250000 0.10250800 17097.59706859 0 108.07556194 0 6779.45850575 0 318.28677820 0 1968.61115974 0 11575
0.10350000 0.10349800 16497.72955992 0 408.57007871 0 7755.10824243 0 -63.02025043 0 2468.51905791 0 11364
0.10450000 0.10450100 16112.61044522 0 509.72810606 0 7308.37666012 0 75.92371800 0 2359.92557338 0 12093
0.10550000 0.10551000 15685.42041753 0 -30.09322520 0 6983.45300316 0 313.33712980 0 2782.97441720 0 12067
0.10650000 0.10649700 15957.50828037 0 -30.26150885 0 6390.63759009 0 889.44830334 0 1369.23795684 0 12054
0.10750000 0.10749900 15395.97693001 0 12.95597382 0 6030.50837801 0 456.96151476 0 1336.86642144 0 12807
0.10850000 0.10850100 15498.79252937 0 142.68959783 0 5937.74366256 0 -179.61643548 0 1525.97682300 0 12736
0.10950000 0.10950300 15349.07280509 0 249.53104304 0 5258.89707704 0 -161.84998779 0 1369.79817004 0 12933
0.11050000 0.11050200 14930.78028119 0 172.32267928 0 5684.50532627 0 492.40104127 0 1497.09838168 0 13428
0.11150000 0.11150900 14915.29203385 0 258.24400602 0 5641.35792517 0 -169.91376252 0 -148.34225888 0 13453
0.11250000 0.11250000 14301.91350091 0 279.18279827 0 5320.23493033 0 -2.03175048 0 848.65709306 0 13668
0.11350000 0.11349100 13979.51629565 0 89.40167871 0 5287.40204288 0 686.23041522 0 1178.51282311 0 13791
0.11450000 0.11448600 14095.84291928 0 -103.13074675 0 5202.38145110 0 456.38262778 0 1886.94086260 0 14205
0.11550000 0.11549300 13948.75949242 0 219.40695120 0 4616.98062453 0 -142.90050163 0 816.60850410 0 14776
0.11650000 0.11649800 14024.99242613 0 -24.71034525 0 4279.62243141 0 813.49437777 0 1296.01479601 0 14553
0.11750000 0.11747300 13940.85060016 0 -193.10878598 0 3712.29122673 0 689.14791769 0 1379.33277904 0 14568
0.11850000 0.11849100 13892.95786371 0 260.73970091 0 4040.81782349 0 -140.39382216 0 916.44289046 0 16015
0.11950000 0.11950300 13827.48981112 0 527.08922303 0 4124.72897344 0 -1069.05595116 0 1098.43858436 0 15270
0.12050000 0.12050700 13087.23946486 0 183.02934218 0 4347.60595111 0 -366.66832814 0 425.45556368 0 15999
0.12150000 0.12150000 13032.53629341 0 -60.14833393 0 4438.07489089 0 815.03331639 0 254.41588247 0 15670
0.12250000 0.12250700 13052.41836978 0 -97.89813575 0 3991.88155264 0 349.70155733 0 -142.60281971 0 16887
0.12350000 0.12352200 13157.43088366 0 102.54230320 0 3925.21618164 0 325.80681659 0 255.26828530 0 16407
0.12450000 0.12449800 13050.11160954 0 114.22747182 0 4002.88809437 0 -150.37660172 0 294.60513817 0 16306
0.12550000 0.12549900 13041.76333438 0 -24.09553872 0 3278.24682575 0 122.96350239 0 374.52339599 0 17523
0.12650000 0.12650100 12736.94144524 0 158.08118093 0 3986.34532806 0 -221.53685982 0 -281.56425361 0 17154
0.12750000 0.12750600 12474.19046910 0 301.61988622 0 4290.05777536 0 -185.52064324 0 299.40869176 0 18007
0.12850000 0.12850300 12531.63978370 0 118.48509215 0 4500.89566149 0 109.41381242 0 137.12261645 0 17496
0.12950000 0.12949900 12287.23304376 0 47.92041758 0 4018.20058855 0 266.52417683 0 582.10325789 0 18405
0.13050000 0.13049000 12486.93257329 0 53.99609452 0 4085.59094133 0 599.11506545 0 767.96552134 0 18100
0.13150000 0.13148800 12393.89324353 0 -47.35866654 0 3909.15673653 0 125.85574035 0 706.58153284 0 19059
0.13250000 0.13249300 12216.82193352 0 229.82581829 0 4358.03031049 0 -411.40190152 0 1197.20856564 0 18957
0.13350000 0.13349100 12055.23887085 0 209.67681680 0 4291.65053839 0 -319.26001133 0 827.55902451 0 19468
0.13450000 0.13450700 11860.04301608 0 171.75807225 0 4629.16251552 0 221.94219055 0 896.37297790 0 19953
0.13550000 0.13551000 11847.08122043 0 -69.96810243 0 4534.12399355 0 215.36353003 0 577.64681679 0 19956
0.13650000 0.13649900 11806.65799333 0 161.47431540 0 4725.34343304 0 102.90182826 0 779.82666281 0 19723
0.13750000 0.13749600 11686.70646074 0 96.36886356 0 4160.28603489 0 59.94984270 0 994.84527726 0 20946
0.13850000 0.13851100 11552.91436670 0 54.45085582 0 4565.51790198 0 59.14972644 0 940.35960034 0 20955
0.13950000 0.13949800 11385.61932629 0 129.33675140 0 4155.33199265 0 -90.06031368 0 123.34906089 0 20506
0.14050000 0.14048300 11370.02123322 0 198.67357045 0 4346.59537044 0 84.71730773 0 619.13005515 0 21447
0.14150000 0.14148400 10972.92893441 0 106.75411786 0 4307.94065952 0 179.73177349 0 694.97633191 0 21771
0.14250000 0.14249400 11035.98038102 0 77.72518790 0 4029.24008399 0 -78.36701648 0 -214.31889718 0 22470
0.14350000 0.14350900 10994.67838812 0 91.61935407 0 3859.89092850 0 348.35594719 0 228.16824629 0 22519
0.14450000 0.14449900 10701.41226934 0 -17.98427177 0 3725.79126643 0 382.17634771 0 319.04251680 0 22218
0.14550000 0.14550500 10551.11036271 0 95.06905909 0 3368.94644155 0 289.64560365 0 411.18001315 0 23559
0.14650000 0.14650700 10672.27019828 0 218.16898987 0 3442.94950703 0 176.77252964 0 527.60439948 0 23044
0.14750000 0.14750500 10543.05867101 0 -138.39243304 0 2887.23998014 0 433.61600265 0 591.46540910 0 23649
0.14850000 0.14849900 10470.15406279 0 54.91198818 0 2783.06229378 0 226.80066700 0 710.66010464 0 23640
0.14950000 0.14949500 10346.37989894 0 187.13208004 0 2718.58285273 0 -190.62846949 0 385.60133744 0 24457
0.15050000 0.15050000 10021.29147339 0 199.46555813 0 2873.83880159 0 -122.47249200 0 795.07324955 0 24591
0.15150000 0.15149900 9744.45827520 0 5.71180199 0 2631.84866763 0 164.35996262 0 636.67900830 0 25020
0.15250000 0.15250500 9825.89789632 0 71.86458889 0 2723.71264812 0 441.52379645 0 716.67855195 0 25297
0.15350000 0.15350100 9901.35092538 0 146.37162656 0 2278.42004482 0 242.62284535 0 847.21042485 0 25452
0.15450000 0.15450400 9574.45004536 0 171.24509271 0 2398.14090139 0 143.98138357 0 1028.43170639 0 26061
0.15550000 0.15549900 9557.01752867 0 138.89992029 0 2445.25373319 0 -111.96355141 0 1319.62064249 0 26128
0.15650000 0.15649500 9190.72597137 0 20.15713007 0 2465.11384041 0 -25.31592474 0 1089.92004832 0 26331
0.15750000 0.15749700 9174.28206622 0 2.18525988 0 2349.21561511 0 322.38292532 0 1197.05478162 0 27345
0.15850000 0.15849900 9227.29361350 0 190.22643413 0 2353.78519730 0 -175.85421937 0 752.39928353 0 26980
0.15950000 0.15949700 9049.24467653 0 239.42633473 0 2582.18741499 0 -291.87766880 0 872.73527616 0 27777
0.16050000 0.16050000 8859.66193835 0 16.19257813 0 2691.62671161 0 -117.11202058 0 903.26579719 0 28224
0.16150000 0.16150500 9012.36946637 0 -8.23435416 0 2793.35483829 0 173.19705126 0 534.12594023 0 28075
0.16250000 0.16249700 8824.56622895 0 123.68409035 0 2651.87354344 0 -147.40857021 0 533.23509139 0 28590
0.16350000 0.16349900 8700.97880284 0 4.42997926 0 2761.02724118 0 151.92872183 0 534.65869200 0 29163
0.16450000 0.16449100 8668.65120573 0 140.26640112 0 2825.06729933 0 -203.52216079 0 453.88912980 0 28996
0.16550000 0.16550500 8493.79877938 0 157.84830799 0 3024.78879801 0 63.54245701 0 406.52584975 0 30777
0.16650000 0.16650700 8496.65476825 0 70.58499603 0 2797.02368553 0 -116.97471342 0 399.51439707 0 29211
0.16750000 0.16749900 8518.29437623 0 -69.83914355 0 2981.98191866 0 223.82165092 0 262.97286451 0 30922
0.16850000 0.16850800 8674.28629146 0 6.22813182 0 2923.60989996 0 -130.65050628 0 176.89445839 0 30867
0.16950000 0.16949900 8436.93164712 0 23.27554038 0 2645.51347592 0 99.34952733 0 32.84705754 0 30852
0.17050000 0.17049200 8622.42812431 0 9.67713383 0 2693.91150271 0 186.43565814 0 -17.73459243 0 31257
0.17150000 0.17149500 8551.03938710 0 63.78917051 0 2560.69060644 0 3.80926303 0 -110.99910593 0 32608
0.17250000 0.17250900 8371.81510086 0 210.88731670 0 2728.10647716 0 -151.34544103 0 -280.98536663 0 32361
0.17350000 0.17350400 8117.99458223 0 168.28035657 0 2618.34862792 0 113.49040700 0 497.84938928 0 32508
0.17450000 0.17449800 8051.25231922 0 87.97104797 0 2603.11302575 0 364.74932331 0 -3.33545448 0 32791
0.17550000 0.17549800 7988.33268748 0 -52.13640638 0 2180.88802487 0 267.06022397 0 305.33157330 0 33633
0.17650000 0.17650100 7942.54898896 0 138.01236683 0 2338.82420945 0 43.82910367 0 114.00448499 0 33984
0.17750000 0.17750300 7694.05598802 0 114.28788697 0 2140.43184406 0 76.47525339 0 630.07508327 0 34069
0.17850000 0.17849800 7572.94009074 0 30.35828293 0 2312.70289585 0 -32.67811482 0 589.89571368 0 34536
