### header ###
fiducial parameters:
Omega_m = 0.31
Omega_nu = 0
Omega_de = 0.69
Omega_k = 0
H_0 = 100
w_de = -1
zeff = 0
beta = 0
fgrowth = 0
b_1 = 2
gamma = 0.55
Lx = 3500 Ly = 3500 Lz = 3500
nx = 700 ny = 700 nz = 700
xoffset = -983.599254 yoffset = -42.9823471 zoffset = 800.977702
bins = 400 dk = 0.001
kx_ny = 0.628318531 ky_ny = 0.628318531 kz_ny = 0.628318531
############################
A(data) = 9.0486181 (not used)
A(ran) = 9.05325962 (used)
Ngal = 502717
weighted Ngal = 0
Nran = 25229228
weighted Nran = 0
SN(data) = 6755.48732
SN(ran) = 134.389402
SN(data+ran) = 6889.87672
############################
13 columns: k_central k_mean P_0(k) sigma^{lin}_{P_0(k)} P^img_1(k) sigma^{lin}_{P_1(k)} P_2(k) sigma^{lin}_{P_2(k)} P^img_3(k) sigma^{lin}_{P_3(k)} P_4(k) sigma^{lin}_{P_4(k)} N_modes
### header ###
0.00050000 0 0 0 0 0 0 0 0 0 0 0 0
0.00150000 0.00179520 7345.01020968 0 -27980.23281637 0 -42399.02216955 0 16736.64401356 0 428.60154527 0 3
0.00250000 0.00253879 33294.45918550 0 -28551.97981923 0 -34930.28173432 0 8852.81854963 0 -28018.12959178 0 6
0.00350000 0.00331552 80296.89603244 0 -23085.61711985 0 -6350.71965333 0 -51267.52668882 0 4790.69065533 0 7
0.00450000 0.00420575 79095.29363777 0 18414.53747536 0 3742.24615616 0 -56042.95977284 0 26132.73755392 0 24
0.00550000 0.00557378 48282.90847275 0 8854.10374462 0 18569.96917739 0 7071.48336783 0 13908.66580250 0 45
0.00650000 0.00659388 62026.14661217 0 -13315.16934593 0 23286.30526092 0 4496.43592502 0 -10727.17109204 0 40
0.00750000 0.00754703 43075.78168629 0 2340.66961764 0 15842.93918835 0 15136.41147991 0 -16758.39346727 0 57
0.00850000 0.00846663 45435.37772248 0 9912.47829740 0 25537.48356574 0 -1243.32180134 0 25138.19435240 0 75
0.00950000 0.00948925 56358.98592600 0 -6725.28259378 0 53.64667526 0 20252.47615967 0 15468.14557187 0 112
0.01050000 0.01054430 53583.73366332 0 -12087.64335996 0 6577.52910799 0 12180.35315255 0 6451.19553873 0 105
0.01150000 0.01145670 57540.04716995 0 -5198.97623360 0 -30442.75429766 0 10158.89521412 0 13744.00705950 0 144
0.01250000 0.01249090 70612.34761610 0 940.69902364 0 -15234.61355879 0 9425.66400974 0 -1672.41216008 0 169
0.01350000 0.01339930 68132.14097296 0 2648.85278598 0 -14233.04023082 0 -23585.85455521 0 17653.85582411 0 180
0.01450000 0.01448870 61852.70021111 0 6638.95483787 0 -510.19824577 0 -27434.07986763 0 -9103.14597418 0 267
0.01550000 0.01550050 52429.47477648 0 3982.86321855 0 16142.70817409 0 -10455.16012121 0 2148.93390323 0 238
0.01650000 0.01653350 57073.31268097 0 -3172.25668491 0 17446.57693950 0 6664.14246279 0 -14895.51980320 0 315
0.01750000 0.01747870 67679.57658261 0 -7413.40015857 0 16144.24601425 0 -346.92905121 0 -7761.60012482 0 297
0.01850000 0.01844180 71845.58557981 0 1769.43888969 0 30418.58823798 0 -7578.00397870 0 -23699.65472715 0 388
0.01950000 0.01947590 67457.68821646 0 2439.42092515 0 21698.59514001 0 -10976.78451938 0 -4637.25814551 0 399
0.02050000 0.02045430 69343.95902013 0 1832.41344430 0 39926.61457294 0 8512.30778418 0 -8269.54873013 0 462
0.02150000 0.02154770 67767.34331753 0 2849.99129452 0 42299.61178769 0 -7764.34626797 0 -10526.39507440 0 571
0.02250000 0.02255340 62367.54712800 0 7078.26084911 0 49133.88331062 0 13795.19516773 0 13824.52397652 0 510
0.02350000 0.02348930 62773.31723915 0 -1618.35707841 0 43496.71050760 0 2410.09211635 0 8574.13994324 0 555
0.02450000 0.02439640 60065.72994358 0 -837.64176368 0 43280.64396493 0 21732.20793211 0 14201.18497034 0 592
0.02550000 0.02547300 61024.35359275 0 929.78475232 0 32243.34543519 0 6094.52646702 0 7975.49172213 0 837
0.02650000 0.02652900 58630.37584437 0 1276.95656258 0 36122.32755084 0 5589.25809742 0 31464.09985627 0 723
0.02750000 0.02749970 57823.77867972 0 -2183.44743028 0 25869.87673205 0 6751.76639828 0 19647.55574762 0 826
0.02850000 0.02848090 61778.77403764 0 191.87631694 0 23344.30380414 0 953.77615729 0 20950.43590149 0 831
0.02950000 0.02946900 59368.31943039 0 -1233.23796371 0 17231.05962545 0 8130.58290240 0 11512.38129388 0 996
0.03050000 0.03053250 62295.26864041 0 -272.71837731 0 11880.47432108 0 7058.12612757 0 13161.60502124 0 1041
0.03150000 0.03150510 61580.17296536 0 -1067.33027481 0 14310.04208462 0 -3153.79161840 0 10053.66300879 0 1036
0.03250000 0.03246190 61313.13800591 0 5072.57675691 0 11790.07128873 0 -3709.08373153 0 3640.91347409 0 1059
0.03350000 0.03345080 56243.97745107 0 3161.98610955 0 18093.89780171 0 -6170.08934180 0 7839.95308105 0 1302
0.03450000 0.03451200 55069.72664213 0 289.92571025 0 21779.33174848 0 482.39958794 0 -923.55320429 0 1339
0.03550000 0.03553350 55101.47205689 0 -1665.45892564 0 19045.05194153 0 1891.48847564 0 -4770.36919605 0 1365
0.03650000 0.03647120 55189.45848327 0 177.92700822 0 18014.25965050 0 468.53046660 0 -1860.70970327 0 1308
0.03750000 0.03744890 51238.19788003 0 2164.04867511 0 15220.11392298 0 -1959.94433197 0 -4595.24215539 0 1579
0.03850000 0.03847530 51513.36142319 0 2415.38668034 0 17709.10822419 0 149.55605415 0 -10424.08476538 0 1662
0.03950000 0.03950240 46254.82683705 0 3976.26149043 0 22372.93805078 0 -1758.44333254 0 -6620.79733939 0 1683
0.04050000 0.04050350 44002.76976643 0 1672.48905209 0 21083.01969255 0 439.46968138 0 -3863.75749805 0 1822
0.04150000 0.04152450 42278.52140833 0 -2098.82228312 0 21410.25010975 0 4550.35919182 0 -5525.54757645 0 1887
0.04250000 0.04250150 44191.15518620 0 1636.61343804 0 17998.99109461 0 -100.11526188 0 -7860.30749404 0 1920
0.04350000 0.04349210 41927.45446863 0 1912.16144124 0 18855.12868160 0 223.01977712 0 -4063.03961382 0 2005
0.04450000 0.04448520 42047.07646404 0 -176.50011224 0 17061.01844189 0 1750.09505738 0 -3443.67448882 0 2151
0.04550000 0.04548030 40447.06362184 0 -746.29735346 0 15542.51112825 0 2664.18724931 0 -5075.63046809 0 2274
0.04650000 0.04648670 41361.41944352 0 723.74932133 0 14678.13511182 0 3094.24425044 0 -1879.38347666 0 2311
0.04750000 0.04749250 39457.79301517 0 459.16941384 0 13386.23953053 0 -1515.68427849 0 -3904.47730861 0 2568
0.04850000 0.04851840 37829.00059281 0 2384.68479997 0 13039.45657414 0 1771.25134417 0 -1075.50059990 0 2493
0.04950000 0.04949480 36608.50473329 0 786.69311913 0 13240.58409810 0 -403.41831417 0 -3132.42662473 0 2644
0.05050000 0.05050630 35621.98026976 0 65.30515137 0 11619.04149364 0 3007.25742017 0 -664.19206725 0 2829
0.05150000 0.05149060 35968.32384325 0 -219.98693663 0 9244.80302219 0 3128.42824031 0 -1534.69857363 0 2784
0.05250000 0.05249300 33883.45196731 0 581.17835688 0 10751.85342663 0 -1536.13755264 0 -805.61624232 0 3055
0.05350000 0.05348950 34267.36277903 0 2015.00999432 0 10820.24337553 0 695.64309546 0 2456.68867324 0 3009
0.05450000 0.05448610 31983.34060219 0 590.39111790 0 11724.71308187 0 -1712.58274201 0 -1125.76490557 0 3336
0.05550000 0.05550870 31070.19308351 0 1028.72279756 0 13940.52106298 0 -77.49264450 0 4664.85139184 0 3349
0.05650000 0.05647670 30683.42628292 0 311.84652330 0 15473.96739534 0 2223.01386072 0 4827.35715861 0 3324
0.05750000 0.05747970 31136.32021045 0 -682.05188381 0 13797.50192797 0 3227.54203871 0 7293.49256427 0 3639
0.05850000 0.05849280 33249.31259219 0 -803.70602514 0 12584.69526927 0 3284.56295498 0 6882.92219490 0 3846
0.05950000 0.05951020 33777.56068763 0 -770.28436461 0 11724.71308187 0 -2351.79698967 0 5732.61775418 0 3787
0.06050000 0.06049470 32445.13203351 0 259.76427086 0 12428.27495571 0 -492.24396189 0 6316.92012350 0 3930
0.06150000 0.06148310 32138.11322986 0 894.34522580 0 12647.63687016 0 -847.28951378 0 4786.60439433 0 4083
0.06250000 0.06249100 32812.78567781 0 1160.83864582 0 13348.34275512 0 -1111.94631326 0 2011.36311622 0 4303
0.06350000 0.06350600 31848.45005089 0 -360.87506456 0 12935.32282606 0 -62.93731691 0 -1007.74116547 0 4470
0.06450000 0.06451750 31331.95544812 0 1100.53334235 0 13718.30315966 0 544.79415712 0 -1585.21662293 0 4479
0.06550000 0.06550280 30180.88208732 0 60.57870948 0 12539.43883023 0 737.82275572 0 -210.10411668 0 4636
0.06650000 0.06648880 30497.01808621 0 -51.00027204 0 12592.71400725 0 1940.91905226 0 -780.97564910 0 4653
0.06750000 0.06749660 30203.83984402 0 -462.40766584 0 10325.47625732 0 1369.63340145 0 -598.23739810 0 5220
0.06850000 0.06852730 30181.65100740 0 409.08415670 0 8480.96879860 0 2357.84948916 0 -943.23316453 0 5029
0.06950000 0.06949320 29854.53043593 0 494.32883376 0 9029.54933789 0 -184.30025723 0 1852.33945896 0 5040
0.07050000 0.07048030 29096.48508209 0 973.95591558 0 7561.10970607 0 865.73590651 0 2279.57342494 0 5475
0.07150000 0.07148790 28660.06801343 0 -71.62885996 0 9275.55982542 0 642.05375967 0 3471.53136489 0 5509
0.07250000 0.07249820 27754.06046693 0 130.98992958 0 8718.65298012 0 -181.75073793 0 1544.61764267 0 5916
0.07350000 0.07351270 27602.80290248 0 610.12270563 0 8227.24714112 0 -238.49703989 0 2680.02700297 0 5721
0.07450000 0.07449140 26765.22924315 0 377.69793747 0 9289.64204747 0 -20.65813643 0 1581.04248535 0 6028
0.07550000 0.07549160 27396.18309222 0 177.71939979 0 9108.49546103 0 -928.00525156 0 391.02771629 0 6183
0.07650000 0.07648840 26333.42569498 0 1016.41019015 0 10991.93224497 0 -443.32416790 0 -87.23310439 0 6330
0.07750000 0.07749960 25676.87779179 0 231.73603546 0 10918.43446983 0 -723.55269748 0 713.17557176 0 6583
0.07850000 0.07848650 25291.20944846 0 39.08948030 0 11096.72506740 0 737.66018404 0 292.25773501 0 6549
0.07950000 0.07947320 25476.29949646 0 -203.43867804 0 8902.17223424 0 1944.45608463 0 -586.47072395 0 6828
0.08050000 0.08048110 26158.99068239 0 -272.20869314 0 9372.56458589 0 1659.35150328 0 647.23408410 0 7147
0.08150000 0.08149960 25516.28334065 0 608.28388818 0 8655.87614782 0 -642.25807272 0 712.43960540 0 7386
0.08250000 0.08250610 24183.30545791 0 893.12154441 0 7921.53550161 0 198.00570844 0 1962.34995337 0 7227
0.08350000 0.08350160 23490.28877375 0 134.87187753 0 7777.51677049 0 608.79357235 0 1367.45845608 0 7798
0.08450000 0.08449610 23135.37723365 0 686.83566517 0 7723.93402544 0 1072.07121634 0 -306.43662130 0 7371
0.08550000 0.08548940 21919.49489462 0 1202.51411420 0 7603.10372705 0 -1732.39891095 0 709.45619548 0 8256
0.08650000 0.08650700 20792.36790205 0 774.29373360 0 7704.66708513 0 148.16540726 0 968.35927585 0 8037
0.08750000 0.08749060 20438.99420211 0 -177.18774648 0 7583.85875589 0 1406.08021327 0 758.03656618 0 8155
0.08850000 0.08849210 20137.90706765 0 -100.04243417 0 6502.05410978 0 1902.44009451 0 192.84955007 0 8718
0.08950000 0.08949900 20741.28963954 0 -187.82081274 0 5488.48562856 0 116.56828423 0 70.56368596 0 8571
0.09050000 0.09049190 19959.51760893 0 247.96683991 0 5726.99365302 0 41.08845281 0 164.13038505 0 8932
0.09150000 0.09150830 19055.92666839 0 904.69598854 0 6570.75162671 0 -1396.82021859 0 832.07148692 0 9285
0.09250000 0.09250820 18731.99162296 0 538.05072801 0 6633.95685734 0 -299.07256384 0 499.05879072 0 9204
0.09350000 0.09350330 19095.58097541 0 -118.33240659 0 7179.28596314 0 865.59859935 0 -64.43967690 0 9349
0.09450000 0.09448040 18859.41266491 0 92.82930474 0 7510.82233279 0 817.60150946 0 188.87203634 0 9564
0.09550000 0.09549270 18432.99155730 0 -26.91011576 0 6607.42911456 0 -209.94264346 0 1794.12122428 0 10155
0.09650000 0.09649430 17683.07478717 0 365.47650201 0 6716.19835226 0 222.15748817 0 1558.76577216 0 9913
0.09750000 0.09749140 17952.85588977 0 478.21666270 0 7122.13323200 0 -13.30034017 0 1127.86295893 0 10476
0.09850000 0.09850240 17260.82781715 0 189.19937660 0 7244.85287688 0 658.40429595 0 1158.34514785 0 10575
0.09950000 0.09950330 17208.21171448 0 143.35306602 0 6617.46901390 0 105.71607575 0 1417.08675500 0 10882
0.10050000 0.10051200 17129.34248335 0 -28.16356533 0 6529.17501949 0 1.49394581 0 969.80594406 0 10875
0.10150000 0.10150300 17008.51218495 0 43.79450227 0 5417.75596571 0 515.26872447 0 -177.96765113 0 11118
0.10250000 0.10250800 16487.18437024 0 367.72833939 0 6214.26929273 0 -268.55412584 0 424.80857235 0 11575
0.10350000 0.10349800 16363.71777443 0 407.84839229 0 5644.14800661 0 161.21068566 0 202.95206147 0 11364
0.10450000 0.10450100 16035.38889997 0 199.86100275 0 6320.87456963 0 -251.81583414 0 -623.73259106 0 12093
0.10550000 0.10551000 15540.09452228 0 -79.32607951 0 5494.45025147 0 274.31882953 0 -902.60782130 0 12067
0.10650000 0.10649700 15495.27746615 0 49.60171626 0 5632.64715912 0 -399.04425736 0 -1109.66152217 0 12054
0.10750000 0.10749900 15269.76419105 0 641.13984323 0 5844.03427387 0 157.68793323 0 -1099.61063826 0 12807
0.10850000 0.10850100 14946.37837426 0 55.50493541 0 5500.99705673 0 318.34609489 0 -777.75716934 0 12736
0.10950000 0.10950300 15166.06982588 0 -179.60435245 0 5552.38288726 0 658.79205137 0 -747.87034426 0 12933
0.11050000 0.11050200 15147.83543540 0 328.34754823 0 5723.11609890 0 241.33435498 0 -589.94624271 0 13428
0.11150000 0.11150900 14627.60607795 0 187.42207275 0 4729.95695353 0 18.79680060 0 187.53631231 0 13453
0.11250000 0.11250000 14539.72949729 0 -122.63066984 0 5194.35172855 0 502.21905225 0 689.44010732 0 13668
0.11350000 0.11349100 14600.80372085 0 -77.17310328 0 4468.55707981 0 451.91520211 0 223.30867138 0 13791
0.11450000 0.11448600 14356.72651809 0 434.14545905 0 5104.58580141 0 64.75251753 0 910.48046446 0 14205
0.11550000 0.11549300 14134.17907759 0 301.15963263 0 4528.34610837 0 -282.08382389 0 139.95883309 0 14776
0.11650000 0.11649800 13852.53463661 0 -91.52741319 0 5045.49978550 0 436.98716797 0 999.35664122 0 14553
0.11750000 0.11747300 13866.04566088 0 -47.87856636 0 4312.86174804 0 648.85211164 0 161.17114120 0 14568
0.11850000 0.11849100 13880.98467959 0 252.92527597 0 4257.68623996 0 -159.88594621 0 112.00309587 0 16015
0.11950000 0.11950300 13557.26932562 0 409.96182405 0 4158.41865755 0 -846.69414994 0 -492.20551588 0 15270
0.12050000 0.12050700 13150.40075721 0 5.82332835 0 4581.48947052 0 677.70418998 0 83.73605586 0 15999
0.12150000 0.12150000 13364.59992254 0 -507.23350963 0 3726.68101681 0 746.60711841 0 332.22180698 0 15670
0.12250000 0.12250700 13598.57131853 0 114.94366595 0 3512.62465092 0 620.23400469 0 -213.18638774 0 16887
0.12350000 0.12352200 13606.48021078 0 234.78315590 0 3436.06218002 0 -424.17256560 0 142.67531789 0 16407
0.12450000 0.12449800 13394.91734287 0 74.59030073 0 4008.21561207 0 -474.34240395 0 391.52861280 0 16306
0.12550000 0.12549900 13251.12928778 0 187.30234091 0 4166.04195092 0 -271.71438737 0 122.47029508 0 17523
0.12650000 0.12650100 13315.16934593 0 33.06510131 0 4324.95576245 0 6.28058316 0 141.39561518 0 17154
0.12750000 0.12750600 13170.28283358 0 85.57871791 0 4219.66863426 0 340.86886252 0 -9.65854793 0 18007
0.12850000 0.12850300 13214.77035253 0 238.37401267 0 4922.42863430 0 -236.85814166 0 129.44440021 0 17496
0.12950000 0.12949900 13041.10426002 0 160.62960177 0 4910.86187937 0 -63.70898313 0 632.71138069 0 18405
0.13050000 0.13049000 12724.96826113 0 50.78947809 0 4882.78531185 0 102.39346224 0 675.60503816 0 18100
0.13150000 0.13148800 12492.20516813 0 166.10980503 0 4781.04620060 0 67.20471351 0 246.41142443 0 19059
0.13250000 0.13249300 12224.40128860 0 148.02810011 0 4856.41135308 0 11.87377373 0 834.34089962 0 18957
0.13350000 0.13349100 12191.66726231 0 348.98096937 0 5005.32920357 0 352.72561016 0 529.94301499 0 19468
0.13450000 0.13450700 12100.49530988 0 20.17360693 0 4652.36193281 0 110.90463861 0 494.86488090 0 19953
0.13550000 0.13551000 12011.84980915 0 -56.96313742 0 4675.55036553 0 525.88311696 0 679.20468259 0 19956
0.13650000 0.13649900 11925.84060584 0 -13.54145154 0 4161.70304475 0 -13.57089020 0 128.69305545 0 19723
0.13750000 0.13749600 11626.62084872 0 284.63554010 0 3984.97225649 0 248.57538523 0 492.88655938 0 20946
0.13850000 0.13851100 11574.88351186 0 264.98304129 0 4203.89478803 0 -361.64728001 0 448.48911392 0 20955
0.13950000 0.13949800 10965.12988787 0 119.21117240 0 4054.35081691 0 533.85681820 0 828.17635748 0 20506
0.14050000 0.14048300 11259.07705015 0 12.45068348 0 3901.02815282 0 576.71862041 0 558.04924085 0 21447
0.14150000 0.14148400 11125.28495611 0 18.19550510 0 3566.03164281 0 107.41637774 0 582.51298245 0 21771
0.14250000 0.14249400 10745.96569573 0 218.01850122 0 3592.62529303 0 -119.74502262 0 557.72409750 0 22470
0.14350000 0.14350900 10490.73915180 0 190.60979572 0 3456.96582165 0 -222.06521776 0 1147.06399181 0 22519
0.14450000 0.14449900 10244.93737115 0 96.85163552 0 3733.87591185 0 178.37298186 0 640.99374841 0 22218
0.14550000 0.14550500 10231.87671435 0 230.70238718 0 3353.49114793 0 298.80014644 0 528.80830864 0 23559
0.14650000 0.14650700 10249.45203048 0 -188.05698105 0 3115.89484300 0 115.44566092 0 352.70364101 0 23044
0.14750000 0.14750500 10362.72494294 0 11.62024980 0 2808.37074901 0 484.06155377 0 186.93325927 0 23649
0.14850000 0.14849900 10116.46181024 0 258.80312076 0 2756.15009096 0 -94.04485754 0 186.90909322 0 23640
0.14950000 0.14949500 9952.72577134 0 188.42166886 0 2889.28311064 0 -400.12184393 0 180.45895220 0 24457
0.15050000 0.15050000 9806.43323370 0 196.00322086 0 2866.39126138 0 -199.93350092 0 -292.66636111 0 24591
0.15150000 0.15149900 9468.87731828 0 -52.97024528 0 2979.86189615 0 411.57765468 0 -51.94088099 0 25020
0.15250000 0.15250500 9536.82788427 0 -50.70269997 0 2571.12595040 0 350.24199830 0 -540.18503046 0 25297
0.15350000 0.15350100 9634.84322541 0 14.34167765 0 2571.70813274 0 125.21204440 0 -84.21597184 0 25452
0.15450000 0.15450400 9504.09385797 0 119.40999316 0 2259.13113537 0 -77.29635019 0 -134.61703544 0 26061
0.15550000 0.15549900 9399.93814076 0 -32.67558837 0 2280.22151473 0 -51.16273387 0 -333.33893801 0 26128
0.15650000 0.15649500 9319.26743972 0 283.69635914 0 2322.32538143 0 359.51187910 0 -128.05375332 0 26331
0.15750000 0.15749700 9182.39966536 0 154.87588265 0 2264.90902055 0 81.54078903 0 434.81771489 0 27345
0.15850000 0.15849900 9105.30993498 0 12.95959873 0 2117.82559368 0 172.00852051 0 126.71363547 0 26980
0.15950000 0.15949700 8883.31172311 0 -1.21778267 0 2219.41092092 0 64.79986103 0 592.47049749 0 27777
0.16050000 0.16050000 8850.57769682 0 198.72519794 0 2160.64345761 0 -156.49500865 0 -42.36573891 0 28224
0.16150000 0.16150500 8638.52052314 0 51.11550020 0 2345.08541582 0 8.07506687 0 477.92666998 0 28075
0.16250000 0.16249700 8810.29726916 0 157.21889198 0 2308.63860399 0 -188.66552637 0 -131.05693547 0 28590
0.16350000 0.16349900 8481.34227407 0 34.26307880 0 2364.15463382 0 -313.01198645 0 -239.05505617 0 29163
0.16450000 0.16449100 8501.98228595 0 71.33480295 0 2453.00884143 0 103.75554924 0 -450.57288734 0 28996
0.16550000 0.16550500 8520.73295135 0 109.21048798 0 2511.34790641 0 20.23039717 0 -308.96087608 0 30777
0.16650000 0.16650700 8496.87445970 0 -74.67290472 0 2375.61154302 0 142.28207019 0 -98.92750005 0 29211
0.16750000 0.16749900 8415.16022427 0 51.63012743 0 2259.97694746 0 138.12550792 0 -362.81823545 0 30922
0.16850000 0.16850800 8443.18186892 0 -15.78153543 0 2257.40655747 0 404.89573918 0 -51.28015895 0 30867
0.16950000 0.16949900 8343.74951792 0 119.39131939 0 2171.85870621 0 92.55227382 0 40.17585452 0 30852
0.17050000 0.17049200 8342.95862869 0 181.50248659 0 2051.16022269 0 -110.33673621 0 349.10509504 0 31257
0.17150000 0.17149500 8292.52845597 0 18.32369506 0 2192.55364095 0 -95.93112834 0 295.19610818 0 32608
0.17250000 0.17250900 8096.76140343 0 65.64973742 0 2372.59078556 0 130.38028580 0 394.12756268 0 32361
0.17350000 0.17350400 7754.31735320 0 109.98962371 0 2059.91492703 0 281.03919104 0 481.44283167 0 32508
0.17450000 0.17449800 7934.93668016 0 188.04270111 0 2433.10479591 0 -63.06276073 0 388.32660990 0 32791
0.17550000 0.17549800 7587.18708138 0 110.11265093 0 2219.97113412 0 175.37968583 0 625.16278241 0 33633
0.17650000 0.17650100 7548.83993850 0 155.29439487 0 2212.58950134 0 -208.21367174 0 462.03748575 0 33984
0.17750000 0.17750300 7213.59078331 0 193.26806228 0 2567.50104145 0 -108.81669105 0 606.88005980 0 34069
0.17850000 0.17849800 7215.45816065 0 52.43342922 0 2200.37465663 0 -73.27358002 0 254.88602218 0 34536
