### header ###
fiducial parameters:
Omega_m = 0.31
Omega_nu = 0
Omega_de = 0.69
Omega_k = 0
H_0 = 100
w_de = -1
zeff = 0
beta = 0
fgrowth = 0
b_1 = 2
gamma = 0.55
Lx = 3500 Ly = 3500 Lz = 3500
nx = 700 ny = 700 nz = 700
xoffset = -983.599254 yoffset = -42.9823471 zoffset = 800.977702
bins = 400 dk = 0.001
kx_ny = 0.628318531 ky_ny = 0.628318531 kz_ny = 0.628318531
############################
A(data) = 9.0538765 (not used)
A(ran) = 9.06930086 (used)
Ngal = 503797
weighted Ngal = 0
Nran = 25229228
weighted Nran = 0
SN(data) = 6698.78348
SN(ran) = 134.627523
SN(data+ran) = 6833.411
############################
13 columns: k_central k_mean P_0(k) sigma^{lin}_{P_0(k)} P^img_1(k) sigma^{lin}_{P_1(k)} P_2(k) sigma^{lin}_{P_2(k)} P^img_3(k) sigma^{lin}_{P_3(k)} P_4(k) sigma^{lin}_{P_4(k)} N_modes
### header ###
0.00050000 0 0 0 0 0 0 0 0 0 0 0 0
0.00150000 0.00179520 81547.70931228 0 -106316.16295160 0 -52229.44570977 0 -58566.22594050 0 55113.33539528 0 3
0.00250000 0.00253879 100406.13336565 0 -87113.59223925 0 -44595.05792001 0 -110129.12778603 0 -8313.47603588 0 6
0.00350000 0.00331552 110330.14546427 0 -20324.53495581 0 -54937.36254252 0 -82611.12578388 0 29874.19282085 0 7
0.00450000 0.00420575 94837.50429554 0 27040.17309486 0 1199.98766250 0 -81868.34898593 0 20620.34949542 0 24
0.00550000 0.00557378 77134.87696918 0 12138.61177674 0 20021.36075256 0 -6988.29719967 0 -26245.10973143 0 45
0.00650000 0.00659388 86771.42280334 0 8502.25690027 0 38432.60285615 0 48270.60575145 0 -4935.34649165 0 40
0.00750000 0.00754703 76534.02084898 0 -1864.90581000 0 47001.22854395 0 13234.32289173 0 18679.70505748 0 57
0.00850000 0.00846663 67373.10700759 0 5582.97492190 0 15924.11517972 0 27738.46237386 0 22993.12701872 0 75
0.00950000 0.00948925 67981.21294569 0 -881.05279452 0 36534.02933119 0 4833.29981237 0 2171.90264450 0 112
0.01050000 0.01054430 68752.87916953 0 5857.06197695 0 37102.92034518 0 8522.04011549 0 20761.28156164 0 105
0.01150000 0.01145670 65351.83580689 0 2254.25398514 0 25471.90566743 0 6363.80227928 0 26594.96836814 0 144
0.01250000 0.01249090 77629.84180969 0 -7456.59149796 0 31408.18838183 0 9141.61394736 0 16184.88893280 0 169
0.01350000 0.01339930 67051.47872241 0 2547.16859760 0 27689.14164297 0 26170.08510070 0 39909.69833117 0 180
0.01450000 0.01448870 75461.48718213 0 1754.32411782 0 11978.01732560 0 12845.68871380 0 28634.69365077 0 267
0.01550000 0.01550050 78029.68025165 0 -8710.77704158 0 19470.48443761 0 7240.57987815 0 48308.50252686 0 238
0.01650000 0.01653350 71106.32384508 0 5766.82371320 0 11466.02639758 0 14471.29561011 0 28659.29909335 0 315
0.01750000 0.01747870 77967.28787939 0 4815.35102077 0 12872.16153372 0 -4835.33195830 0 65788.80210418 0 297
0.01850000 0.01844180 69139.64597012 0 -5435.14454410 0 2364.46220185 0 21081.92123529 0 29997.54957094 0 388
0.01950000 0.01947590 81435.77651768 0 -3050.83321960 0 6519.34382703 0 13216.41803842 0 27594.56447304 0 399
0.02050000 0.02045430 80035.35335928 0 1287.07335393 0 -732.97087001 0 -8751.16731496 0 32862.10640870 0 462
0.02150000 0.02154770 70006.98782114 0 6881.81275307 0 9011.00737937 0 -19823.74829182 0 16141.06048820 0 571
0.02250000 0.02255340 63734.24764857 0 6340.69073856 0 17780.50794597 0 -10598.13531793 0 26053.42893988 0 510
0.02350000 0.02348930 62447.51481639 0 -705.27546716 0 19797.60500908 0 6624.33437176 0 712.31547973 0 555
0.02450000 0.02439640 63108.89593151 0 -2673.20558340 0 26017.07000464 0 6928.25552594 0 6554.10999925 0 592
0.02550000 0.02547300 67334.99054073 0 451.94266354 0 17281.03943069 0 1191.10114329 0 -1388.64769659 0 837
0.02650000 0.02652900 69697.99179443 0 -2595.98403815 0 14261.60011954 0 6976.42287671 0 6355.65172642 0 723
0.02750000 0.02749970 63658.34425203 0 -811.88294097 0 14210.19231985 0 -5206.95103330 0 -3231.52943856 0 826
0.02850000 0.02848090 68758.48130155 0 5059.18656293 0 13229.26998834 0 -3739.55493587 0 -9005.83364569 0 831
0.02950000 0.02946900 66748.30451916 0 1985.96678442 0 24261.95499759 0 -6283.42816170 0 -9771.65607691 0 996
0.03050000 0.03053250 57976.35439288 0 4048.72671575 0 23510.82992448 0 -5718.64537786 0 -10701.67589908 0 1041
0.03150000 0.03150510 56423.79490423 0 2274.52052156 0 28297.68696398 0 1225.17528743 0 -6257.63638528 0 1036
0.03250000 0.03246190 52078.18814533 0 1126.83040911 0 29003.88513523 0 2969.74510480 0 -13303.08631609 0 1059
0.03350000 0.03345080 49316.00752402 0 4631.30450717 0 30281.94015507 0 6771.25303004 0 -2505.00980803 0 1302
0.03450000 0.03451200 48643.64183632 0 930.70196413 0 24786.79787553 0 2795.01350875 0 1689.39430929 0 1339
0.03550000 0.03553350 47488.50418366 0 -1348.29037692 0 24902.24573336 0 8705.36164730 0 3667.41924773 0 1365
0.03650000 0.03647120 44643.60973082 0 2353.54353671 0 23642.31525828 0 -2997.44819685 0 5745.39281209 0 1308
0.03750000 0.03744890 43725.29946302 0 1659.03295068 0 21430.24203185 0 585.27889782 0 10585.01973827 0 1579
0.03850000 0.03847530 45464.92622273 0 -195.51550583 0 27587.42450087 0 3265.44979869 0 3038.02520797 0 1662
0.03950000 0.03950240 41702.92980507 0 -49.74056125 0 21364.99367071 0 334.34842023 0 7305.28999522 0 1683
0.04050000 0.04050350 45965.27350381 0 -909.09091603 0 20038.93606869 0 4171.21568460 0 8282.94990868 0 1822
0.04150000 0.04152450 44908.66746721 0 -1133.03669262 0 18894.89283435 0 3231.18891681 0 6527.88982450 0 1887
0.04250000 0.04250150 46480.77949505 0 500.82730690 0 16204.22178055 0 2510.33732573 0 8366.49856773 0 1920
0.04350000 0.04349210 45406.70798805 0 1123.09565443 0 19219.48695412 0 -816.06806313 0 4871.05378833 0 2005
0.04450000 0.04448520 43813.17604367 0 2502.02200429 0 16938.76014906 0 -338.08207645 0 9105.20008926 0 2151
0.04550000 0.04548030 42492.28119076 0 533.81727374 0 20272.68777322 0 38.61483692 0 6364.25264675 0 2274
0.04650000 0.04648670 42351.67866172 0 -169.52820402 0 19919.53376473 0 2498.97927768 0 7773.62823180 0 2311
0.04750000 0.04749250 41382.61966860 0 -835.87544441 0 16939.41922342 0 4394.54302976 0 7299.18257287 0 2568
0.04850000 0.04851840 40722.00747356 0 806.04903448 0 17382.31718989 0 311.48952469 0 8092.00508350 0 2493
0.04950000 0.04949480 39677.48446680 0 1807.61027941 0 15781.53542762 0 -63.44480416 0 8107.20773195 0 2644
0.05050000 0.05050630 40049.64178585 0 1620.57596207 0 16455.54880121 0 2009.00143312 0 7373.51517553 0 2829
0.05150000 0.05149060 36936.50407057 0 -193.95679498 0 15895.55529101 0 -243.82895142 0 7259.00100636 0 2784
0.05250000 0.05249300 37513.85320545 0 78.43028761 0 16499.15755435 0 967.42778410 0 5697.70878252 0 3055
0.05350000 0.05348950 35250.15248789 0 909.53029894 0 12356.98507966 0 324.19977362 0 3974.02063762 0 3009
0.05450000 0.05448610 35998.75110930 0 -508.83286340 0 13199.28210519 0 1672.73071269 0 1184.34563115 0 3336
0.05550000 0.05550870 35620.66212105 0 808.21519219 0 12078.19662754 0 -632.45873552 0 2018.92050216 0 3349
0.05650000 0.05647670 34670.82612995 0 674.46703644 0 10344.99584279 0 360.04682778 0 -40.22759186 0 3324
0.05750000 0.05747970 34438.50241985 0 501.65114985 0 11255.45214120 0 -344.83209630 0 -3143.74073449 0 3639
0.05850000 0.05849280 33277.87248091 0 430.35468305 0 12214.07579037 0 -1440.08844999 0 -5213.27814711 0 3846
0.05950000 0.05951020 31965.65544034 0 979.89197861 0 12375.76869877 0 -1304.98919181 0 -4883.08189531 0 3787
0.06050000 0.06049470 31990.48057437 0 944.03833370 0 13448.19251989 0 -442.17847698 0 -4847.10742011 0 3930
0.06150000 0.06148310 31980.70430477 0 367.61739521 0 12989.80630607 0 264.34813300 0 -6984.81509016 0 4083
0.06250000 0.06249100 31361.50394836 0 118.66633760 0 13911.74148282 0 902.74183308 0 -4438.11882919 0 4303
0.06350000 0.06350600 30733.07655099 0 -1061.40190099 0 11696.81226752 0 3201.47564798 0 -2764.27867467 0 4470
0.06450000 0.06451750 32338.03245085 0 -274.49018886 0 10277.42973685 0 2069.83399608 0 -2861.76675633 0 4479
0.06550000 0.06550280 31808.02682380 0 761.79768383 0 9511.91487365 0 982.33494755 0 -2060.89255399 0 4636
0.06650000 0.06648880 31751.23658355 0 -200.22459210 0 9532.24731750 0 -141.51974085 0 -75.31209700 0 4653
0.06750000 0.06749660 31729.04774694 0 46.69486881 0 9139.69164716 0 888.93312689 0 -1108.31041974 0 5220
0.06850000 0.06852730 30618.06807606 0 643.24119196 0 9681.53864345 0 -1305.19789869 0 -2083.87227983 0 5029
0.06950000 0.06949320 30409.47104274 0 910.54637190 0 9624.79234150 0 -1111.53988408 0 -944.94785631 0 5040
0.07050000 0.07048030 30017.65133876 0 815.01244570 0 11131.32647103 0 -789.03063618 0 -3800.48635998 0 5475
0.07150000 0.07148790 28661.71569932 0 535.47814111 0 11532.04367880 0 -795.12158167 0 -2385.02532172 0 5509
0.07250000 0.07249820 28081.62042130 0 -221.50170919 0 11337.17736120 0 1863.45584642 0 -2216.88446922 0 5916
0.07350000 0.07351270 27872.03477645 0 156.74765382 0 11034.00315796 0 1092.09828907 0 -2821.40943666 0 5721
0.07450000 0.07449140 27891.91685282 0 740.51397600 0 8827.72978585 0 2135.25811037 0 -883.06956204 0 6028
0.07550000 0.07549160 27496.25254844 0 109.16578077 0 10106.01548171 0 431.74752685 0 -210.94773185 0 6183
0.07650000 0.07648840 27312.37080343 0 242.48663665 0 9375.31072903 0 547.63806296 0 981.77693126 0 6330
0.07750000 0.07749960 26624.84640556 0 438.33936886 0 8837.89051549 0 -38.27739085 0 -107.90233523 0 6583
0.07850000 0.07848650 25069.87031095 0 477.07316869 0 7945.48186984 0 95.26579278 0 1716.19666639 0 6549
0.07950000 0.07947320 25366.78330782 0 358.98901345 0 8711.64482281 0 216.14892697 0 -375.50871215 0 6828
0.08050000 0.08048110 24645.31658068 0 461.62885965 0 8423.22290054 0 412.03900673 0 -796.13875309 0 7147
0.08150000 0.08149960 23967.56845241 0 664.26236851 0 8697.15617158 0 -956.33885808 0 -1327.57347304 0 7386
0.08250000 0.08250610 23624.41040497 0 118.20828092 0 7344.94430224 0 780.27043954 0 -828.96504980 0 7227
0.08350000 0.08350160 22920.62883968 0 209.48129141 0 8513.32934943 0 244.84172901 0 -1104.49877305 0 7798
0.08450000 0.08449610 23218.53044809 0 531.20624083 0 8737.87598214 0 431.44325419 0 -1453.91802687 0 7371
0.08550000 0.08548940 21874.56799276 0 752.05436795 0 7350.52446511 0 678.96521891 0 29.37263724 0 8256
0.08650000 0.08650700 21436.17370104 0 -103.59231849 0 7956.82893331 0 1343.46814956 0 1552.62539608 0 8037
0.08750000 0.08749060 21352.80079515 0 -363.28288287 0 6430.37977369 0 1370.17164551 0 3159.69033388 0 8155
0.08850000 0.08849210 21793.94123001 0 21.65180086 0 6219.33318069 0 1119.96505125 0 1857.38137778 0 8718
0.08950000 0.08949900 21185.06637183 0 237.81489793 0 5320.52052922 0 180.95984871 0 2565.42495723 0 8571
0.09050000 0.09049190 20949.22759851 0 924.57916337 0 6209.82054083 0 -1243.70626138 0 2636.33037324 0 8932
0.09150000 0.09150830 19493.11265713 0 621.55764569 0 6470.75906250 0 -474.08316804 0 2759.37955530 0 9285
0.09250000 0.09250820 19291.98513316 0 678.95643125 0 7587.39578826 0 -338.62032051 0 1558.18358981 0 9204
0.09350000 0.09350330 18424.09405351 0 307.62295514 0 7743.60739494 0 -157.72528078 0 986.71449664 0 9349
0.09450000 0.09448040 18590.29063667 0 36.79842799 0 6931.82551203 0 809.98920066 0 1297.00340754 0 9564
0.09550000 0.09549270 18547.78034078 0 -119.47040831 0 6965.65799558 0 511.48124385 0 938.18575343 0 10155
0.09650000 0.09649430 18114.76848962 0 448.57369513 0 6146.06608157 0 -52.81777942 0 875.70111076 0 9913
0.09750000 0.09749140 17810.60567484 0 484.66460681 0 6895.66429909 0 -420.33016211 0 1081.53552407 0 10476
0.09850000 0.09850240 17164.93249851 0 77.00119472 0 7235.90045023 0 578.86830126 0 964.20820587 0 10575
0.09950000 0.09950330 17134.94461536 0 189.67720551 0 6510.29253922 0 383.21219290 0 1073.41353111 0 10882
0.10050000 0.10051200 16873.84132510 0 -161.62260713 0 6478.40432502 0 906.34257597 0 1636.20700885 0 10875
0.10150000 0.10150300 16957.32407672 0 33.17626518 0 5647.08088749 0 160.68013081 0 1386.41782835 0 11118
0.10250000 0.10250800 16855.05770599 0 80.50615214 0 5783.63010925 0 279.19597976 0 496.62460943 0 11575
0.10350000 0.10349800 16393.92534903 0 261.98205607 0 4917.40868463 0 29.12899942 0 1166.79228416 0 11364
0.10450000 0.10450100 16369.10021499 0 667.72360733 0 6165.70649734 0 -647.18904735 0 774.10260204 0 12093
0.10550000 0.10551000 15840.74227383 0 288.93929564 0 6079.92797006 0 -223.60195947 0 251.66534550 0 12067
0.10650000 0.10649700 15479.45968163 0 -59.66764903 0 5696.34669552 0 827.32395465 0 -238.07413384 0 12054
0.10750000 0.10749900 15387.73850057 0 -129.87719237 0 5474.94165057 0 535.13432399 0 58.06027653 0 12807
0.10850000 0.10850100 15578.32083486 0 71.74145183 0 4915.91478276 0 185.49757564 0 -54.62353330 0 12736
0.10950000 0.10950300 15220.66315161 0 219.98034589 0 4810.79242315 0 -463.78073741 0 102.62974039 0 12933
0.11050000 0.11050200 15142.23330338 0 194.79491787 0 5193.31917873 0 -48.34332362 0 274.93506405 0 13428
0.11150000 0.11150900 14992.95296200 0 113.06640249 0 5145.69007201 0 -318.45154679 0 -454.51415198 0 13453
0.11250000 0.11250000 14881.02016740 0 306.83645974 0 5734.41922408 0 396.49803344 0 82.34936342 0 13668
0.11350000 0.11349100 14755.90588570 0 -243.10946191 0 5217.27653153 0 232.27867335 0 -463.06783865 0 13791
0.11450000 0.11448600 14802.15093626 0 151.66069826 0 5465.38507242 0 246.87057956 0 -91.95306538 0 14205
0.11550000 0.11549300 14737.12226658 0 377.23219159 0 4959.02923014 0 -227.40152312 0 -230.09274340 0 14776
0.11650000 0.11649800 14086.83556977 0 202.83123117 0 5358.92259496 0 -526.41477027 0 19.07460044 0 14553
0.11750000 0.11747300 13866.15550661 0 174.16589056 0 5768.80093626 0 694.55891815 0 -528.75228732 0 14568
0.11850000 0.11849100 13718.52285111 0 215.54477548 0 5471.69021708 0 23.79928480 0 -242.24936988 0 16015
0.11950000 0.11950300 13288.80637173 0 150.99063933 0 5382.05610482 0 134.51817429 0 -316.46553607 0 15270
0.12050000 0.12050700 13670.19073176 0 -88.16206969 0 5174.33783730 0 -23.23270055 0 -637.60061394 0 15999
0.12150000 0.12150000 13283.42393117 0 71.19507919 0 5098.00604244 0 569.78515820 0 -395.89278349 0 15670
0.12250000 0.12250700 13398.76194327 0 25.05811682 0 4432.87918806 0 206.68571769 0 -254.74541965 0 16887
0.12350000 0.12352200 13229.70937124 0 93.73871750 0 4459.02247081 0 512.04255551 0 -11.22019166 0 16407
0.12450000 0.12449800 13310.88536262 0 114.36258206 0 4073.10148231 0 700.29176658 0 -99.17684985 0 16306
0.12550000 0.12549900 13292.43128068 0 -109.35032159 0 4102.37536824 0 415.55846378 0 511.39995801 0 17523
0.12650000 0.12650100 12964.32209768 0 201.69322945 0 3731.21764529 0 -533.73049561 0 840.23082743 0 17154
0.12750000 0.12750600 12501.98143773 0 375.11985828 0 4014.41091101 0 -99.21200048 0 639.55367095 0 18007
0.12850000 0.12850300 12547.23787677 0 283.00103570 0 4310.84058669 0 -54.97394117 0 563.95344861 0 17496
0.12950000 0.12949900 12373.02255563 0 -32.75962035 0 3986.24646691 0 195.99663011 0 812.81662964 0 18405
0.13050000 0.13049000 12114.33587133 0 -35.54420950 0 4348.44077863 0 257.56735634 0 246.56630690 0 18100
0.13150000 0.13148800 12163.21721932 0 239.29451986 0 4309.48948426 0 -421.94379582 0 171.97446833 0 19059
0.13250000 0.13249300 12051.61396189 0 295.12800383 0 4590.33205144 0 -357.93339602 0 312.71869836 0 18957
0.13350000 0.13349100 11831.26343591 0 -182.74703866 0 4372.48600801 0 766.26401104 0 37.54878415 0 19468
0.13450000 0.13450700 11999.32739641 0 -82.09298350 0 4329.32762234 0 253.57336575 0 -43.95300965 0 19953
0.13550000 0.13551000 11978.45670850 0 163.39112332 0 3965.43070186 0 -29.51049362 0 732.27884193 0 19956
0.13650000 0.13649900 12174.64117481 0 -9.52969890 0 4205.45459734 0 352.68826261 0 571.23622023 0 19723
0.13750000 0.13749600 11937.59409850 0 -6.99298761 0 3953.10601143 0 -332.85561682 0 597.07852569 0 20946
0.13850000 0.13851100 11688.90337526 0 282.94830975 0 4187.30808344 0 138.75821930 0 420.58390574 0 20955
0.13950000 0.13949800 11598.93972582 0 198.63512445 0 4518.27325531 0 -90.33317046 0 551.00922828 0 20506
0.14050000 0.14048300 11515.23728275 0 84.20762356 0 4328.97611602 0 269.42630090 0 671.76593004 0 21447
0.14150000 0.14148400 11455.37136218 0 9.19165966 0 4044.17910270 0 448.14859217 0 677.85687554 0 21771
0.14250000 0.14249400 11302.57595757 0 -20.93505750 0 3843.44702335 0 348.30212278 0 701.91308949 0 22470
0.14350000 0.14350900 11277.31144064 0 269.41751325 0 3757.59160405 0 -384.19970598 0 459.44842199 0 22519
0.14450000 0.14449900 10838.96108720 0 274.60223150 0 3772.56357648 0 -404.72657676 0 417.76526441 0 22218
0.14550000 0.14550500 10662.05454578 0 172.58850594 0 3878.59765561 0 130.20453264 0 19.53913802 0 23559
0.14650000 0.14650700 10430.81830837 0 107.10606357 0 3710.63255627 0 244.79779072 0 -109.38041932 0 23044
0.14750000 0.14750500 10438.52947832 0 7.19966235 0 3286.63903920 0 413.03420900 0 -124.96049769 0 23649
0.14850000 0.14849900 10135.73973512 0 33.44780382 0 3090.83903294 0 784.58298274 0 489.61645213 0 23640
0.14950000 0.14949500 10074.45680469 0 47.47169779 0 2894.31404489 0 58.02205021 0 470.61973230 0 24457
0.15050000 0.15050000 9894.05716919 0 254.69269370 0 2646.38125715 0 186.77398297 0 697.74005037 0 24591
0.15150000 0.15149900 9848.22953238 0 217.89767092 0 2495.92556651 0 50.50354967 0 738.08418854 0 25020
0.15250000 0.15250500 9458.81544979 0 93.97686303 0 2677.62138157 0 -11.35607083 0 1071.11226315 0 25297
0.15350000 0.15350100 9435.49520220 0 -25.91700055 0 2658.64004015 0 85.56575612 0 808.25693357 0 25452
0.15450000 0.15450400 9392.95195260 0 196.98524164 0 2788.55458007 0 -71.76781481 0 472.02246222 0 26061
0.15550000 0.15549900 9053.08927693 0 159.26421940 0 2509.53545193 0 -181.40142852 0 1174.34967010 0 26128
0.15650000 0.15649500 9161.77063805 0 73.60981778 0 2526.24298683 0 27.19714264 0 202.48961096 0 26331
0.15750000 0.15749700 8849.47923956 0 106.54156638 0 2770.06754442 0 98.23679013 0 465.44709707 0 27345
0.15850000 0.15849900 8826.68625146 0 184.70229258 0 2664.84632366 0 -78.59516605 0 125.16920456 0 26980
0.15950000 0.15949700 8752.94681572 0 -53.56121529 0 2724.84405910 0 180.10524896 0 380.91971260 0 27777
0.16050000 0.16050000 8621.71412709 0 53.05658403 0 2466.16835938 0 279.02681734 0 24.85764837 0 28224
0.16150000 0.16150500 8677.15326491 0 53.65150848 0 2480.45928831 0 12.78780002 0 77.90928934 0 28075
0.16250000 0.16249700 8651.97662455 0 105.32227882 0 2510.93049265 0 -67.86851123 0 301.80223013 0 28590
0.16350000 0.16349900 8533.26634866 0 -63.50445039 0 2093.43984255 0 -96.39610530 0 -470.83173455 0 29163
0.16450000 0.16449100 8487.25197412 0 79.02378407 0 2322.68787233 0 1.77445884 0 -13.56484868 0 28996
0.16550000 0.16550500 8369.18978802 0 158.71608923 0 2378.65426963 0 61.86401432 0 -97.68964857 0 30777
0.16650000 0.16650700 8289.36489907 0 92.32412424 0 2390.44071601 0 170.14993083 0 67.71274999 0 29211
0.16750000 0.16749900 8273.01985507 0 125.57783066 0 2405.88502506 0 140.22465974 0 -348.81949615 0 30922
0.16850000 0.16850800 8212.78045903 0 -104.66814753 0 1992.03026848 0 102.18145999 0 238.87600764 0 30867
0.16950000 0.16949900 8163.76729617 0 38.86209964 0 2217.69732759 0 180.39304476 0 177.78860260 0 30852
0.17050000 0.17049200 8195.12825089 0 39.37156412 0 1904.59307073 0 -159.43338182 0 90.33844306 0 31257
0.17150000 0.17149500 8058.78773601 0 63.90275099 0 2126.59128260 0 48.97987960 0 44.05934032 0 32608
0.17250000 0.17250900 8122.72893301 0 64.86291248 0 1822.57126727 0 162.24543240 0 -49.56601640 0 32361
0.17350000 0.17350400 8106.49373473 0 -19.26507293 0 2009.64952290 0 92.95870300 0 322.04679740 0 32508
0.17450000 0.17449800 8026.46013891 0 105.04184269 0 1818.45205255 0 95.47691627 0 -119.91748041 0 32791
0.17550000 0.17549800 7851.37703653 0 205.33791063 0 2005.67310763 0 11.79138944 0 603.08818535 0 33633
0.17650000 0.17650100 7769.37720221 0 30.01754149 0 1733.04700073 0 94.80872472 0 386.35487912 0 33984
0.17750000 0.17750300 7656.12625890 0 35.35428624 0 1922.19035601 0 64.54941278 0 530.62515694 0 34069
0.17850000 0.17849800 7594.48083757 0 98.89553494 0 1841.11322579 0 -89.37751265 0 196.33385649 0 34536
