### header ###
fiducial parameters:
Omega_m = 0.31
Omega_nu = 0
Omega_de = 0.69
Omega_k = 0
H_0 = 100
w_de = -1
zeff = 0
beta = 0
fgrowth = 0
b_1 = 2
gamma = 0.55
Lx = 3500 Ly = 3500 Lz = 3500
nx = 700 ny = 700 nz = 700
xoffset = -983.599254 yoffset = -42.9823471 zoffset = 800.977702
bins = 400 dk = 0.001
kx_ny = 0.628318531 ky_ny = 0.628318531 kz_ny = 0.628318531
############################
A(data) = 9.00192895 (not used)
A(ran) = 8.99538422 (used)
Ngal = 499468
weighted Ngal = 0
Nran = 25229228
weighted Nran = 0
SN(data) = 6784.65811
SN(ran) = 133.530281
SN(data+ran) = 6918.18839
############################
13 columns: k_central k_mean P_0(k) sigma^{lin}_{P_0(k)} P^img_1(k) sigma^{lin}_{P_1(k)} P_2(k) sigma^{lin}_{P_2(k)} P^img_3(k) sigma^{lin}_{P_3(k)} P_4(k) sigma^{lin}_{P_4(k)} N_modes
### header ###
0.00050000 0 0 0 0 0 0 0 0 0 0 0 0
0.00150000 0.00179520 19528.48298084 0 -24492.52117607 0 8635.37893538 0 -59854.49661284 0 -78458.73765668 0 3
0.00250000 0.00253879 34641.27762970 0 -37683.34516038 0 -21241.41722917 0 23358.25421132 0 -16941.50629221 0 6
0.00350000 0.00331552 76411.65271042 0 -37710.25736320 0 -1517.45279468 0 -17421.20257683 0 9044.51032574 0 7
0.00450000 0.00420575 94778.07775788 0 512.99381949 0 17536.97997184 0 -68050.30590723 0 18313.25971616 0 24
0.00550000 0.00557378 83012.06268310 0 40400.59887983 0 76147.91312274 0 -14333.65891567 0 50429.84318377 0 45
0.00650000 0.00659388 45540.60992781 0 -740.12072830 0 58697.27189139 0 39453.83856904 0 41660.96873781 0 40
0.00750000 0.00754703 58499.00035630 0 -3641.88011648 0 81511.02083986 0 98416.16819682 0 15870.62031125 0 57
0.00850000 0.00846663 78797.61172081 0 -4150.46582700 0 64591.70338427 0 29448.98001623 0 41902.29979742 0 75
0.00950000 0.00948925 77035.57643304 0 6744.37378093 0 80170.79313921 0 9067.03968411 0 52988.47967514 0 112
0.01050000 0.01054430 64275.67723110 0 7496.91586390 0 53076.57594724 0 3840.14066700 0 39884.98304286 0 105
0.01150000 0.01145670 62678.63022350 0 -604.18334723 0 65828.34656547 0 21780.21051429 0 48531.15981308 0 144
0.01250000 0.01249090 75485.43355036 0 -8487.18606668 0 67915.19566448 0 12795.59906283 0 33821.82851513 0 169
0.01350000 0.01339930 78817.27410573 0 -1672.40117551 0 65737.83368740 0 29271.13978613 0 8666.15770775 0 180
0.01450000 0.01448870 85552.79432116 0 1444.04289612 0 47250.02911292 0 6636.83481536 0 15880.72611803 0 267
0.01550000 0.01550050 85381.21529744 0 3794.28007647 0 52813.38558819 0 5646.80627317 0 17559.71803708 0 238
0.01650000 0.01653350 87137.42876175 0 1279.13150795 0 57385.38438800 0 -610.14028095 0 20453.38399219 0 315
0.01750000 0.01747870 79477.55676360 0 -1154.03919540 0 50844.73049017 0 10559.73325219 0 7524.92652399 0 297
0.01850000 0.01844180 74767.37204072 0 6519.26693502 0 43143.44665339 0 6937.71324293 0 4686.91939815 0 388
0.01950000 0.01947590 76582.13327688 0 4711.06348869 0 52945.85953353 0 5497.86645354 0 7239.23976029 0 399
0.02050000 0.02045430 73023.57114343 0 647.33294525 0 47584.83888520 0 4433.59318528 0 -1205.99622371 0 462
0.02150000 0.02154770 69532.34443990 0 469.93209806 0 35411.07647620 0 9878.82156701 0 7267.59094212 0 571
0.02250000 0.02255340 67442.19996912 0 176.08160002 0 37921.82023112 0 3376.53678121 0 3516.08479128 0 510
0.02350000 0.02348930 64918.82395574 0 1232.46904363 0 24591.27248358 0 6923.52117516 0 -1962.30601508 0 555
0.02450000 0.02439640 65687.96372788 0 1928.38565495 0 28814.62094965 0 3240.91026354 0 -3245.27113886 0 592
0.02550000 0.02547300 65697.41046030 0 3127.97787284 0 27292.59857278 0 -3994.70458779 0 -10090.98858642 0 837
0.02650000 0.02652900 59125.56037634 0 2515.36825997 0 27018.64333260 0 1283.26170724 0 6021.76465824 0 723
0.02750000 0.02749970 59630.30148645 0 -22.96599512 0 31958.95485106 0 -1252.30718171 0 -4907.06121726 0 826
0.02850000 0.02848090 55793.28043806 0 -720.21997815 0 25093.15760482 0 8747.47649857 0 -11273.46684023 0 831
0.02950000 0.02946900 60482.48462731 0 -68.17377250 0 27740.65928838 0 4502.81796169 0 -1651.99183965 0 996
0.03050000 0.03053250 59007.03683819 0 2341.88890520 0 25212.55990878 0 -3378.16249795 0 1798.89951336 0 1041
0.03150000 0.03150510 53782.99380995 0 2286.29598336 0 30305.99636902 0 1132.13595767 0 -1072.18216052 0 1036
0.03250000 0.03246190 57897.26547029 0 2286.54862853 0 31060.85619681 0 254.52353128 0 -5973.10300170 0 1059
0.03350000 0.03345080 51799.28984749 0 1637.08577466 0 32052.87294663 0 -350.00692845 0 4987.62207257 0 1302
0.03450000 0.03451200 48584.87437301 0 392.03500160 0 31173.00868287 0 3319.51586494 0 -658.89860172 0 1339
0.03550000 0.03553350 48368.03891025 0 325.28614785 0 29758.74496302 0 6415.77029216 0 9294.77184286 0 1365
0.03650000 0.03647120 49644.00686130 0 -527.02111868 0 27559.96306941 0 3619.15303581 0 282.24969093 0 1308
0.03750000 0.03744890 48819.06546044 0 2069.17492172 0 28249.35484462 0 3218.44681262 0 3311.14562063 0 1579
0.03850000 0.03847530 46840.52424709 0 445.48922715 0 21177.92639965 0 1674.03787682 0 4007.60047600 0 1662
0.03950000 0.03950240 46653.23728458 0 220.93710216 0 21714.85230743 0 3632.27960005 0 3604.92801432 0 1683
0.04050000 0.04050350 47259.47584534 0 616.10490386 0 20782.59163245 0 404.74854590 0 5353.25455551 0 1822
0.04150000 0.04152450 45565.98429048 0 802.16049578 0 19173.57144073 0 1683.05621091 0 772.12208360 0 1887
0.04250000 0.04250150 42404.51445584 0 -157.72857615 0 19851.75895191 0 324.85225723 0 5236.84005529 0 1920
0.04350000 0.04349210 42789.30403336 0 2389.38619704 0 18055.12226050 0 1646.07115503 0 2240.92969860 0 2005
0.04450000 0.04448520 42465.69852512 0 1148.47001710 0 18671.68631949 0 392.97747793 0 5693.12821575 0 2151
0.04550000 0.04548030 39817.97715011 0 -304.99764229 0 17572.46014128 0 3658.84029655 0 3622.81089848 0 2274
0.04650000 0.04648670 41296.72031101 0 942.17095636 0 15798.01228649 0 3541.05272476 0 7297.21633438 0 2311
0.04750000 0.04749250 39968.79533165 0 -862.84696392 0 14354.30991212 0 1221.17690301 0 6643.78804980 0 2568
0.04850000 0.04851840 39107.71468700 0 2418.87977442 0 15971.01930464 0 -402.72518764 0 5557.78729697 0 2493
0.04950000 0.04949480 36617.62192854 0 1261.73194498 0 14578.28534706 0 -391.32320130 0 7721.28674345 0 2644
0.05050000 0.05050630 35285.63265732 0 933.87760406 0 16545.29275920 0 444.91034018 0 6027.32285196 0 2829
0.05150000 0.05149060 36738.23253548 0 61.18253144 0 18355.98970351 0 -407.58146717 0 4611.68606054 0 2784
0.05250000 0.05249300 35216.10031288 0 -641.03658824 0 14859.05102223 0 3434.01904952 0 5806.18143676 0 3055
0.05350000 0.05348950 36304.34191852 0 -1482.36806985 0 13554.96256538 0 2252.03510148 0 4613.81706762 0 3009
0.05450000 0.05448610 36577.85777579 0 456.62978066 0 12185.84543884 0 -326.74929292 0 2092.73682991 0 3336
0.05550000 0.05550870 36402.98338030 0 2427.37084903 0 16336.69572588 0 -2558.08726274 0 4575.99718423 0 3349
0.05650000 0.05647670 34078.86751354 0 1303.46233622 0 15392.24217533 0 -1146.47082489 0 2776.70222626 0 3324
0.05750000 0.05747970 33295.00841413 0 -465.36361432 0 15206.60289871 0 2933.17746268 0 2937.20880082 0 3639
0.05850000 0.05849280 34120.38919789 0 -291.84691200 0 15366.75796694 0 3191.09522689 0 2453.09671801 0 3846
0.05950000 0.05951020 33250.74058663 0 248.88515018 0 13209.93714060 0 1232.30427504 0 7586.19846984 0 3787
0.06050000 0.06049470 33135.84195743 0 -255.17931027 0 11796.55218656 0 2661.08959984 0 7283.70531010 0 3930
0.06150000 0.06148310 33019.18579661 0 -903.01425048 0 10595.22440620 0 3489.17258846 0 9016.52163481 0 4083
0.06250000 0.06249100 34037.89505781 0 480.93973824 0 10576.34192593 0 83.51131151 0 8971.79245526 0 4303
0.06350000 0.06350600 33028.30299186 0 1252.19733598 0 9386.73468452 0 -1271.54116830 0 6178.67927756 0 4470
0.06450000 0.06451750 32893.85182346 0 458.69707722 0 10652.12449217 0 -1210.35709902 0 7579.88234061 0 4479
0.06550000 0.06550280 32313.53685399 0 780.75156382 0 12301.18345094 0 -505.61767900 0 5555.34872186 0 4636
0.06650000 0.06648880 31086.12071375 0 -371.27745479 0 11504.03301871 0 -708.28194467 0 3961.93760778 0 4653
0.06750000 0.06749660 30690.01702647 0 585.52055842 0 12106.31713335 0 -315.08477530 0 2392.43990822 0 5220
0.06850000 0.06852730 29893.63551432 0 902.61990433 0 12012.83842068 0 -67.58071543 0 1283.16284609 0 5029
0.06950000 0.06949320 28992.68087120 0 347.33548039 0 12941.58403244 0 1891.92785855 0 4530.51006917 0 5040
0.07050000 0.07048030 30162.53785111 0 459.87572186 0 12166.73228255 0 836.15884638 0 1322.05921760 0 5475
0.07150000 0.07148790 29041.12283628 0 347.86603525 0 10641.56831792 0 791.92177568 0 1534.40199017 0 5509
0.07250000 0.07249820 28033.50799339 0 409.21597157 0 11981.86192600 0 85.57531269 0 1629.13294411 0 5916
0.07350000 0.07351270 27927.39702226 0 38.91087115 0 9692.49026232 0 349.52690262 0 3741.57609723 0 5721
0.07450000 0.07449140 26760.39603122 0 325.05876720 0 10806.30395292 0 698.15307030 0 1539.11437181 0 6028
0.07550000 0.07549160 27056.86964519 0 581.03885281 0 9725.97123955 0 184.91978712 0 2814.90656970 0 6183
0.07650000 0.07648840 25777.60632236 0 392.84456460 0 9602.48267459 0 1144.21898751 0 2451.92136874 0 6330
0.07750000 0.07749960 26324.19865401 0 121.08623894 0 9361.40426014 0 1253.57040756 0 2373.52447423 0 6583
0.07850000 0.07848650 25955.00716955 0 123.44242975 0 8620.45090124 0 23.14724057 0 2403.52334195 0 6549
0.07950000 0.07947320 24500.21037688 0 738.84871480 0 8306.57772430 0 -1023.45349809 0 1455.85131164 0 6828
0.08050000 0.08048110 23976.46595620 0 761.32315030 0 8431.26360767 0 -11.53435044 0 2007.82608385 0 7147
0.08150000 0.08149960 23226.43934035 0 504.25339509 0 9621.35417028 0 1197.56007196 0 1389.20790979 0 7386
0.08250000 0.08250610 23413.83614858 0 -14.66769977 0 8239.92333788 0 963.76772451 0 1617.15976000 0 7227
0.08350000 0.08350160 22500.13940127 0 364.83170760 0 8114.00718238 0 714.79689467 0 2189.56583721 0 7798
0.08450000 0.08449610 22074.92659664 0 263.07062721 0 8079.98796109 0 352.79041914 0 2785.14936257 0 7371
0.08550000 0.08548940 21240.86800054 0 766.65945566 0 7325.60046993 0 -215.19656453 0 3277.22526050 0 8256
0.08650000 0.08650700 21188.25189788 0 221.67306852 0 7873.75261088 0 23.45184277 0 2535.94236442 0 8037
0.08750000 0.08749060 20055.52277329 0 44.73181585 0 7811.23940832 0 680.25261082 0 2564.37043826 0 8155
0.08850000 0.08849210 20167.56541362 0 546.26718830 0 8301.96420382 0 -232.35007307 0 2541.02822152 0 8718
0.08950000 0.08949900 19512.88488777 0 232.52472777 0 7412.14791729 0 603.78350879 0 3246.20482753 0 8571
0.09050000 0.09049190 19680.39961964 0 -134.58408172 0 7911.47363312 0 709.26945775 0 1348.81763641 0 8932
0.09150000 0.09150830 20169.65248241 0 40.48474071 0 6251.08958002 0 101.51941980 0 1875.65970655 0 9285
0.09250000 0.09250820 19659.52893173 0 -218.22061736 0 6581.14303237 0 425.04254375 0 1402.42235061 0 9204
0.09350000 0.09350330 19147.42815799 0 317.91769656 0 5858.78655485 0 -324.45681262 0 788.13868888 0 9349
0.09450000 0.09448040 19319.88594752 0 693.61204799 0 6312.89976993 0 -810.13529548 0 -62.09359189 0 9564
0.09550000 0.09549270 18476.16092755 0 378.01319470 0 6523.55091833 0 441.04486909 0 -326.14843680 0 10155
0.09650000 0.09649430 18650.59594014 0 -263.96037759 0 5451.76420242 0 1155.48915898 0 509.51061153 0 9913
0.09750000 0.09749140 18090.60242994 0 59.43279887 0 5087.02146986 0 467.51329518 0 -879.43476698 0 10476
0.09850000 0.09850240 18100.70823671 0 384.54132618 0 4965.16960621 0 840.64055199 0 816.86444464 0 10575
0.09950000 0.09950330 17478.21250853 0 374.13234521 0 4839.69283361 0 -1065.90996958 0 440.75487637 0 10882
0.10050000 0.10051200 16767.51066252 0 607.10853891 0 5410.34137921 0 11.83532773 0 191.75988047 0 10875
0.10150000 0.10150300 16294.73465862 0 52.70892230 0 6049.34691999 0 -189.69478082 0 498.72595817 0 11118
0.10250000 0.10250800 16269.47014168 0 267.65009552 0 5761.85868639 0 195.33865421 0 29.10560228 0 11575
0.10350000 0.10349800 15938.72466125 0 164.89161593 0 5757.84931740 0 506.17239992 0 399.76045150 0 11364
0.10450000 0.10450100 16204.77100917 0 285.83395697 0 6060.91367492 0 -538.95256142 0 -55.92059163 0 12093
0.10550000 0.10551000 15486.27011663 0 90.63832189 0 6047.80907983 0 636.56257183 0 1194.23174647 0 12067
0.10650000 0.10649700 15730.01778221 0 -191.47098621 0 5885.72072682 0 514.67445910 0 1323.24555144 0 12054
0.10750000 0.10749900 15544.59819704 0 -62.25165989 0 5293.50946524 0 567.73763387 0 996.38092051 0 12807
0.10850000 0.10850100 15693.54900124 0 555.64911174 0 5534.34621909 0 -649.36948500 0 817.97718184 0 12736
0.10950000 0.10950300 14982.40777232 0 203.94286992 0 5778.78591274 0 -516.33972030 0 1421.06317028 0 12933
0.11050000 0.11050200 14918.14802272 0 207.83690090 0 6198.59430765 0 416.26587026 0 1436.91390851 0 13428
0.11150000 0.11150900 15183.64514201 0 -185.76450075 0 5793.59311658 0 181.67494438 0 -23.16097129 0 13453
0.11250000 0.11250000 15072.81080467 0 151.25536753 0 5758.15688543 0 253.72275594 0 289.88726425 0 13668
0.11350000 0.11349100 14586.30408504 0 316.05690997 0 5595.09090546 0 -348.24829838 0 234.64584874 0 13791
0.11450000 0.11448600 14594.43266875 0 88.27048742 0 5325.96887722 0 110.96834913 0 668.08499977 0 14205
0.11550000 0.11549300 14656.93488674 0 -296.64607176 0 4965.15862164 0 1447.20645302 0 439.71024352 0 14776
0.11650000 0.11649800 14796.76849570 0 7.06032304 0 4902.08520588 0 609.56468934 0 757.01719784 0 14553
0.11750000 0.11747300 14521.16556963 0 401.71680387 0 3903.99398742 0 70.58675356 0 1378.55287439 0 14568
0.11850000 0.11849100 14126.38003106 0 386.62180423 0 4992.69694510 0 -761.89874190 0 1647.23551973 0 16015
0.11950000 0.11950300 13578.35970498 0 50.35119364 0 4945.29851441 0 339.84290344 0 1397.30353978 0 15270
0.12050000 0.12050700 13680.84576716 0 -72.17402430 0 4867.12131135 0 798.71353691 0 1812.46546049 0 15999
0.12150000 0.12150000 13616.58601756 0 -135.24974682 0 4303.40403105 0 414.83787582 0 1815.70590941 0 15670
0.12250000 0.12250700 13813.64924967 0 71.05195021 0 3803.92453120 0 622.65829986 0 2013.17557070 0 16887
0.12350000 0.12352200 13849.67864773 0 349.14903333 0 3939.62794087 0 7.05488568 0 2520.11359533 0 16407
0.12450000 0.12449800 13177.75234293 0 399.47265569 0 4351.76910412 0 -638.83308298 0 2270.31343026 0 16306
0.12550000 0.12549900 12578.54390862 0 315.47692454 0 4464.75641770 0 21.82359958 0 1724.81955587 0 17523
0.12650000 0.12650100 12426.95680700 0 405.18243652 0 4901.06364063 0 -446.63711499 0 1841.97002245 0 17154
0.12750000 0.12750600 12113.34725980 0 118.85197687 0 4557.61999430 0 -10.20412968 0 1505.76520945 0 18007
0.12850000 0.12850300 11987.13452084 0 -25.73476649 0 5297.44194222 0 336.41242142 0 1042.54248832 0 17496
0.12950000 0.12949900 11844.33507728 0 207.55130201 0 4285.36736287 0 -32.45842337 0 1048.30719201 0 18405
0.13050000 0.13049000 11972.19550213 0 -142.38312826 0 4562.36532965 0 209.17701875 0 665.47945915 0 18100
0.13150000 0.13148800 11758.98494833 0 -53.93798613 0 4066.11529415 0 371.31699925 0 674.25723110 0 19059
0.13250000 0.13249300 11912.32958156 0 32.62637748 0 3822.90587262 0 772.48127912 0 1114.67048726 0 18957
0.13350000 0.13349100 11928.03752035 0 -187.07166489 0 3393.00265551 0 222.02347639 0 1378.05856862 0 19468
0.13450000 0.13450700 12148.38804634 0 110.42461279 0 2774.52728089 0 549.16601700 0 943.50228656 0 19953
0.13550000 0.13551000 11868.50113696 0 133.34941577 0 2996.39367788 0 -189.43115108 0 1491.28754279 0 19956
0.13650000 0.13649900 11348.05208806 0 320.13108794 0 3110.95178533 0 -527.25838545 0 1198.52671435 0 19723
0.13750000 0.13749600 11328.27985741 0 357.00959347 0 3379.31587807 0 -250.45045177 0 817.71904439 0 20946
0.13850000 0.13851100 11088.15710079 0 -122.96020702 0 3040.40886022 0 554.94170527 0 782.27402558 0 20955
0.13950000 0.13949800 11189.32501426 0 -53.17851278 0 3023.45966472 0 237.75448278 0 587.30664992 0 20506
0.14050000 0.14048300 11166.14756611 0 189.40588656 0 2696.91029103 0 -236.42754641 0 494.01137962 0 21447
0.14150000 0.14148400 11070.80147611 0 144.31421612 0 2657.68438234 0 170.36522845 0 -41.37394186 0 21771
0.14250000 0.14249400 10748.96448405 0 -59.74552965 0 2750.36122121 0 108.95498682 0 753.78663505 0 22470
0.14350000 0.14350900 10821.81416941 0 -24.08817906 0 2504.07611936 0 47.49037156 0 40.64983883 0 22519
0.14450000 0.14449900 10967.46960183 0 307.69874869 0 2687.34272831 0 -66.11548329 0 -452.89941982 0 22218
0.14550000 0.14550500 10666.70101998 0 184.52214559 0 2879.40797989 0 -578.73428948 0 -215.47117884 0 23559
0.14650000 0.14650700 10349.19194952 0 53.29582802 0 2672.41469417 0 131.46336465 0 -28.42060433 0 23044
0.14750000 0.14750500 10475.04219759 0 -36.02522393 0 3181.53864874 0 341.93107068 0 -286.55015110 0 23649
0.14850000 0.14849900 10329.48562631 0 0.68082491 0 2618.38158164 0 -51.10100057 0 -377.52328276 0 23640
0.14950000 0.14949500 10293.57705854 0 273.07647437 0 2950.55505650 0 -74.16486823 0 -559.64310233 0 24457
0.15050000 0.15050000 9818.57118641 0 311.63781642 0 3227.87157589 0 -373.46887702 0 293.10684247 0 24591
0.15150000 0.15149900 9852.83206829 0 44.01693987 0 3416.35585681 0 126.83666268 0 -34.65127359 0 25020
0.15250000 0.15250500 9775.34689330 0 -91.33781947 0 3231.56239228 0 490.30738174 0 -442.15540937 0 25297
0.15350000 0.15350100 9891.81631638 0 180.57099484 0 3198.97116543 0 -347.14654575 0 -590.04839924 0 25452
0.15450000 0.15450400 9618.20159795 0 260.36183161 0 3340.04603109 0 -290.00919301 0 -106.41084997 0 26061
0.15550000 0.15549900 9364.73258564 0 -83.56985928 0 3268.10806526 0 366.88801959 0 174.42622493 0 26128
0.15650000 0.15649500 9461.00137974 0 -122.67021430 0 3149.89209514 0 619.44860775 0 -18.58578696 0 26331
0.15750000 0.15749700 9400.23472422 0 315.77680337 0 3124.26508730 0 -67.48416104 0 258.65812440 0 27345
0.15850000 0.15849900 9219.29684466 0 374.61346949 0 3163.11752052 0 -430.50627015 0 -220.44389485 0 26980
0.15950000 0.15949700 8766.80934632 0 47.97424198 0 3248.24795803 0 40.85360265 0 480.96939659 0 27777
0.16050000 0.16050000 8700.04511417 0 -13.34955106 0 3059.43413993 0 472.04333291 0 66.98974542 0 28224
0.16150000 0.16150500 8567.14277050 0 32.99062591 0 3162.33761587 0 278.62478198 0 680.83259625 0 28075
0.16250000 0.16249700 8445.20303028 0 265.52567918 0 2558.12021646 0 415.79463209 0 521.29705791 0 28590
0.16350000 0.16349900 8468.25964813 0 46.12312181 0 2477.37262342 0 190.35495363 0 803.99382095 0 29163
0.16450000 0.16449100 8345.59492611 0 -77.27163490 0 2234.66849223 0 316.26012456 0 648.69063842 0 28996
0.16550000 0.16550500 8275.21676958 0 -15.30963819 0 2197.55162148 0 114.79207885 0 885.60809677 0 30777
0.16650000 0.16650700 8285.31159178 0 -22.68446053 0 1774.77739197 0 63.89286488 0 939.49950831 0 29211
0.16750000 0.16749900 8404.98851006 0 111.11883778 0 1946.57610714 0 40.50703939 0 642.40856136 0 30922
0.16850000 0.16850800 8375.68167041 0 66.00860340 0 1885.19431556 0 -205.04681946 0 274.46162897 0 30867
0.16950000 0.16949900 8140.56787888 0 93.10644550 0 2074.20585596 0 -163.40869863 0 411.44474135 0 30852
0.17050000 0.17049200 8166.77706906 0 44.80607156 0 2270.41229141 0 -198.70981954 0 494.61113728 0 31257
0.17150000 0.17149500 8077.23083338 0 41.82430933 0 2244.06030179 0 16.83934977 0 301.98786941 0 32608
0.17250000 0.17250900 8066.09247678 0 225.58357636 0 2466.86038746 0 -228.40441460 0 -184.32332483 0 32361
0.17350000 0.17350400 7830.89080867 0 107.74767245 0 2365.05536877 0 21.87324984 0 288.94588638 0 32508
0.17450000 0.17449800 7875.04879044 0 55.71869519 0 2781.63429935 0 123.50943565 0 54.43393958 0 32791
0.17550000 0.17549800 7708.88516101 0 100.51718739 0 2472.12199772 0 113.78589200 0 506.07463722 0 33633
0.17650000 0.17650100 7788.43543564 0 -70.07421341 0 2304.00311436 0 384.36667148 0 467.41113865 0 33984
0.17750000 0.17750300 7656.28004291 0 5.68044103 0 2058.08050341 0 207.14047900 0 545.63008309 0 34069
0.17850000 0.17849800 7689.85988130 0 110.66187956 0 2181.25051577 0 25.60328116 0 514.88975672 0 34536
