### header ###
fiducial parameters:
Omega_m = 0.31
Omega_nu = 0
Omega_de = 0.69
Omega_k = 0
H_0 = 100
w_de = -1
zeff = 0
beta = 0
fgrowth = 0
b_1 = 2
gamma = 0.55
Lx = 3500 Ly = 3500 Lz = 3500
nx = 700 ny = 700 nz = 700
xoffset = -983.599254 yoffset = -42.9823471 zoffset = 800.977702
bins = 400 dk = 0.001
kx_ny = 0.628318531 ky_ny = 0.628318531 kz_ny = 0.628318531
############################
A(data) = 9.12959951 (not used)
A(ran) = 9.13490837 (used)
Ngal = 507155
weighted Ngal = 0
Nran = 25229228
weighted Nran = 0
SN(data) = 6715.5529
SN(ran) = 135.601421
SN(data+ran) = 6851.15432
############################
13 columns: k_central k_mean P_0(k) sigma^{lin}_{P_0(k)} P^img_1(k) sigma^{lin}_{P_1(k)} P_2(k) sigma^{lin}_{P_2(k)} P^img_3(k) sigma^{lin}_{P_3(k)} P_4(k) sigma^{lin}_{P_4(k)} N_modes
### header ###
0.00050000 0 0 0 0 0 0 0 0 0 0 0 0
0.00150000 0.00179520 47248.93065566 0 -8766.63359315 0 21241.19753772 0 -29742.26810415 0 10120.65791697 0 3
0.00250000 0.00253879 46723.64839482 0 15597.10445398 0 15253.94640653 0 -42018.40672961 0 16962.26713438 0 6
0.00350000 0.00331552 17525.55601636 0 21408.16304096 0 13769.05188499 0 -1698.46756625 0 8507.66130998 0 7
0.00450000 0.00420575 19529.80112955 0 -9924.97874100 0 3415.52102930 0 25577.79694711 0 8030.88692166 0 24
0.00550000 0.00557378 39414.84333638 0 -12179.69407819 0 -9418.98538961 0 7074.38329499 0 -21265.03406022 0 45
0.00650000 0.00659388 45388.14406038 0 -33.42967927 0 -14669.78683666 0 -22525.95314683 0 7679.32567619 0 40
0.00750000 0.00754703 56295.82463366 0 4908.97253288 0 -2648.80884769 0 -23959.87925160 0 -9111.25258875 0 57
0.00850000 0.00846663 47507.39764850 0 -7452.32948380 0 1157.14782944 0 -860.14036524 0 6007.34191444 0 75
0.00950000 0.00948925 55696.28666217 0 -1916.55527028 0 10455.05027549 0 2450.09792970 0 -17645.83708612 0 112
0.01050000 0.01054430 58104.10497200 0 -1132.39958741 0 8179.96954073 0 -5846.52777185 0 10994.12915949 0 105
0.01150000 0.01145670 60500.27963489 0 1734.66173290 0 13932.06294210 0 17528.96123386 0 -58.02951972 0 144
0.01250000 0.01249090 70617.07098231 0 -7829.45182966 0 8050.37355341 0 3300.29286292 0 11747.23145567 0 169
0.01350000 0.01339930 65782.76058926 0 -6743.36320025 0 -6314.52548668 0 10261.23847686 0 5779.71960141 0 180
0.01450000 0.01448870 78159.18836239 0 7228.48586373 0 19129.30361323 0 -18006.46060397 0 -1597.29965277 0 267
0.01550000 0.01550050 66768.29644126 0 8404.80177232 0 12907.64170316 0 -21150.46496820 0 14199.20774727 0 238
0.01650000 0.01653350 67637.28597817 0 -3081.66691483 0 34773.09250068 0 12598.42598499 0 -1058.52284451 0 315
0.01750000 0.01747870 65224.52461068 0 -2850.93596776 0 17132.41816367 0 -8016.38728585 0 -5551.06473855 0 297
0.01850000 0.01844180 67928.81653448 0 8035.75308731 0 44075.92701982 0 -4538.01253224 0 -14332.12107551 0 388
0.01950000 0.01947590 56401.82575907 0 6480.59025496 0 28683.90453594 0 6919.13833070 0 -2765.35516278 0 399
0.02050000 0.02045430 67612.02146123 0 -4568.45078286 0 41100.31615326 0 15369.28441864 0 9645.06986248 0 462
0.02150000 0.02154770 63883.74768140 0 -2168.71711845 0 23263.12781277 0 -490.87089031 0 -6355.77255672 0 571
0.02250000 0.02255340 60180.95810995 0 4868.86785839 0 36046.20446286 0 511.04845169 0 1463.05719125 0 510
0.02350000 0.02348930 58672.00737445 0 1681.18883357 0 28828.90089401 0 9439.82312380 0 1673.92803110 0 555
0.02450000 0.02439640 61514.48522133 0 -2358.58545552 0 28489.14806407 0 -5192.40745920 0 1319.79639565 0 592
0.02550000 0.02547300 58974.41265762 0 1696.56723519 0 24815.90699287 0 4938.61989428 0 -8445.71930519 0 837
0.02650000 0.02652900 58571.82807251 0 -27.35729771 0 22606.68975531 0 2130.62262074 0 749.36534458 0 723
0.02750000 0.02749970 61732.74867852 0 -920.66316325 0 20413.29030226 0 1052.51538177 0 -1110.50733426 0 826
0.02850000 0.02848090 62252.97803597 0 2509.34871420 0 18105.65129438 0 6964.13113999 0 -4736.62458908 0 831
0.02950000 0.02946900 59820.99366646 0 -4595.26412453 0 10636.08701620 0 3169.51054177 0 -4961.83029615 0 996
0.03050000 0.03053250 61053.90209299 0 544.33390352 0 11178.88967031 0 1857.45826979 0 -5480.63165916 0 1041
0.03150000 0.03150510 56109.41643695 0 4781.23293834 0 14397.80881954 0 -8660.90708206 0 -161.33920516 0 1036
0.03250000 0.03246190 55015.46285358 0 2827.68162761 0 15370.16318444 0 -3173.43203418 0 -3512.75646579 0 1059
0.03350000 0.03345080 55492.96222369 0 1714.98836341 0 22744.65598693 0 1768.59307760 0 -13777.51000588 0 1302
0.03450000 0.03451200 50576.48722773 0 643.34444694 0 17447.45570530 0 -2802.97732387 0 -8122.60810271 0 1339
0.03550000 0.03553350 50669.96594040 0 2245.20269734 0 21688.70902468 0 3041.47436376 0 -7603.98249285 0 1365
0.03650000 0.03647120 48404.50769122 0 -46.06775957 0 23057.93599695 0 -1954.93536687 0 -8188.05418615 0 1308
0.03750000 0.03744890 48158.89264830 0 697.77959483 0 20145.81595991 0 7440.64189857 0 -5068.51246506 0 1579
0.03850000 0.03847530 48924.40751150 0 487.56782934 0 14898.04625490 0 1208.75335142 0 -3954.85255847 0 1662
0.03950000 0.03950240 45600.25615693 0 -392.25798842 0 13314.83980875 0 5886.10518686 0 3451.70421138 0 1683
0.04050000 0.04050350 47799.69712489 0 14.52369202 0 12253.73009739 0 2533.43788187 0 81.31890067 0 1822
0.04150000 0.04152450 44205.87451345 0 -133.30437902 0 11995.15325883 0 -759.98632781 0 -884.17351159 0 1887
0.04250000 0.04250150 44949.53007721 0 2735.75173967 0 12254.60886320 0 -2989.95671835 0 -988.74664256 0 1920
0.04350000 0.04349210 40731.34436025 0 2406.69788343 0 12948.94369606 0 -6724.01936794 0 -4464.14128163 0 2005
0.04450000 0.04448520 41261.56967875 0 1678.05823039 0 17261.26720005 0 2434.84035838 0 -1398.46790448 0 2151
0.04550000 0.04548030 39254.02919378 0 -587.36706507 0 13998.08022331 0 3180.85760524 0 -5834.11520483 0 2274
0.04650000 0.04648670 40013.61238778 0 -109.69974084 0 13757.51808378 0 3723.36367589 0 -3846.75337970 0 2311
0.04750000 0.04749250 37885.24160442 0 1608.50391680 0 14618.37903698 0 1031.60185403 0 49.84557377 0 2568
0.04850000 0.04851840 36362.77984465 0 300.13257510 0 12216.38255062 0 -322.90798789 0 5503.34775526 0 2493
0.04950000 0.04949480 35749.73084888 0 1482.99419049 0 13675.57317232 0 2634.75957936 0 1647.64194891 0 2644
0.05050000 0.05050630 35165.46143328 0 273.84868982 0 12168.16027698 0 684.95510634 0 5317.67552492 0 2829
0.05150000 0.05149060 34749.69536108 0 -120.23383610 0 13866.04566088 0 1305.21986783 0 6176.25168702 0 2784
0.05250000 0.05249300 35194.57055062 0 1044.38899497 0 13200.05102527 0 521.49697713 0 5431.84917233 0 3055
0.05350000 0.05348950 34433.88889937 0 -1193.60562583 0 11197.23390652 0 22.80122654 0 3723.52844448 0 3009
0.05450000 0.05448610 35802.34695155 0 -670.64330672 0 11750.19729026 0 2670.75602371 0 3552.46569567 0 3336
0.05550000 0.05550870 34123.35503249 0 684.38940085 0 9810.20094210 0 -1994.52376646 0 2174.76961794 0 3349
0.05650000 0.05647670 34116.65444322 0 2147.59378538 0 13974.79292944 0 -1470.12027142 0 4851.92964747 0 3324
0.05750000 0.05747970 33309.72774139 0 947.76869455 0 11789.41221438 0 711.38838180 0 3278.48848635 0 3639
0.05850000 0.05849280 33223.93822953 0 -1417.57007619 0 12325.89873925 0 3819.84117687 0 4125.45395523 0 3846
0.05950000 0.05951020 33221.41177784 0 -563.22846682 0 10787.15784291 0 2559.48230346 0 2945.30443081 0 3787
0.06050000 0.06049470 33265.67960534 0 1567.54244565 0 11080.79743716 0 -2495.10172356 0 6883.84489899 0 3930
0.06150000 0.06148310 31665.77660887 0 778.81718059 0 10799.77911681 0 1282.85527806 0 4878.42443654 0 4083
0.06250000 0.06249100 32055.61908978 0 101.83830194 0 11505.35116742 0 383.01996288 0 4143.43570055 0 4303
0.06350000 0.06350600 31170.04284827 0 317.12461042 0 10582.49328658 0 -465.31857758 0 4050.14372561 0 4470
0.06450000 0.06451750 31139.94511940 0 354.76654375 0 11153.07592474 0 603.70441987 0 3698.84610989 0 4479
0.06550000 0.06550280 29769.07046125 0 -148.09510600 0 11224.14610934 0 -1102.45564255 0 4398.36566101 0 4636
0.06650000 0.06648880 30345.21129314 0 616.67500317 0 9619.09134833 0 3147.87093378 0 2435.14792641 0 4653
0.06750000 0.06749660 30385.08529161 0 -316.93128195 0 8939.28910499 0 249.04991877 0 1393.83241485 0 5220
0.06850000 0.06852730 30416.61101492 0 151.28063205 0 8724.17822013 0 327.08542084 0 697.90921278 0 5029
0.06950000 0.06949320 28793.64041602 0 1222.72572775 0 8648.72519107 0 -1022.91305712 0 1258.12900518 0 5040
0.07050000 0.07048030 28730.25943223 0 636.55158726 0 9262.35636918 0 530.51091739 0 1400.21445152 0 5475
0.07150000 0.07148790 28154.66782897 0 -305.23381060 0 7645.58106922 0 752.85843867 0 -1026.23479187 0 5509
0.07250000 0.07249820 28359.85964479 0 73.95802873 0 8436.10780418 0 1598.33220259 0 1068.43751973 0 5916
0.07350000 0.07351270 27040.39278632 0 183.99378765 0 7620.37147515 0 416.22522734 0 1944.55494578 0 5721
0.07450000 0.07449140 27135.18964769 0 113.78259663 0 5637.32658704 0 1199.69107904 0 2516.23604121 0 6028
0.07550000 0.07549160 27007.10953139 0 586.20709420 0 8060.86382023 0 -84.56033819 0 2248.12459364 0 6183
0.07650000 0.07648840 26028.49396012 0 1025.62404963 0 7784.53591237 0 -636.16273339 0 2944.22794270 0 6330
0.07750000 0.07749960 25111.28214958 0 802.49442679 0 9716.52450713 0 -1515.20095730 0 4309.55539169 0 6583
0.07850000 0.07848650 24642.79012899 0 198.08699427 0 8500.07097032 0 366.07845659 0 3139.52265862 0 6549
0.07950000 0.07947320 24763.51058165 0 -475.62320511 0 9410.85680590 0 1417.11970872 0 2478.91046358 0 6828
0.08050000 0.08048110 24917.51428924 0 169.17010695 0 8493.98551711 0 441.07672435 0 2419.09946587 0 7147
0.08150000 0.08149960 24553.59539962 0 690.17277832 0 8666.05884660 0 -821.51201730 0 2330.57479544 0 7386
0.08250000 0.08250610 23168.99002575 0 689.42143355 0 9103.11302047 0 -239.07043457 0 1835.21451031 0 7227
0.08350000 0.08350160 23438.55143689 0 342.69999076 0 9931.49259254 0 287.48383977 0 2158.13897506 0 7798
0.08450000 0.08449610 22869.77026863 0 74.32227716 0 8397.39817040 0 -198.52418026 0 -474.43577282 0 7371
0.08550000 0.08548940 21947.72524615 0 397.46028200 0 8872.40404254 0 1426.43462627 0 2107.62092575 0 8256
0.08650000 0.08650700 22652.82496015 0 69.88286215 0 8385.91929206 0 855.20609523 0 1228.16309117 0 8037
0.08750000 0.08749060 21060.94070166 0 335.68414426 0 7986.90469304 0 -27.06126347 0 3341.04562720 0 8155
0.08850000 0.08849210 21628.51356694 0 302.85345373 0 7815.49043791 0 713.47764750 0 730.47737203 0 8718
0.08950000 0.08949900 20702.95348124 0 271.40022860 0 7789.77555350 0 -634.46232155 0 1498.65819099 0 8571
0.09050000 0.09049190 20107.15026442 0 885.24560587 0 8138.12930377 0 -243.23139067 0 2020.39243489 0 8932
0.09150000 0.09150830 19515.85072237 0 154.11245486 0 8306.45689400 0 520.98839142 0 1747.32694509 0 9285
0.09250000 0.09250820 19504.64645834 0 -180.34471264 0 8272.44865729 0 255.32979891 0 1159.00422220 0 9204
0.09350000 0.09350330 19221.57402292 0 242.77113708 0 7742.41007652 0 806.15668329 0 529.42454316 0 9349
0.09450000 0.09448040 19359.65010026 0 166.12628189 0 7280.79439837 0 -171.56364532 0 1176.77726064 0 9564
0.09550000 0.09549270 18596.66168876 0 566.02623746 0 7059.66396773 0 -317.29816667 0 -132.22349708 0 10155
0.09650000 0.09649430 18275.36294076 0 511.90854372 0 7402.45952428 0 -290.39145613 0 806.85749902 0 9913
0.09750000 0.09749140 17787.31838097 0 5.32540866 0 7232.11077269 0 -22.61734479 0 -1348.54302209 0 10476
0.09850000 0.09850240 17505.34440281 0 436.60600331 0 7835.53728287 0 32.41613276 0 -965.18363592 0 10575
0.09950000 0.09950330 17042.34466850 0 119.50226357 0 7374.26212646 0 36.16242124 0 -1188.47583044 0 10882
0.10050000 0.10051200 16701.93276421 0 93.08260898 0 6821.11200498 0 260.24209977 0 -430.19211137 0 10875
0.10150000 0.10150300 16560.01208646 0 97.60858242 0 6363.26403522 0 1326.79356838 0 -815.24751556 0 11118
0.10250000 0.10250800 17098.14629722 0 -83.50768660 0 6121.42768527 0 672.04933201 0 -527.19028110 0 11575
0.10350000 0.10349800 16592.74611275 0 106.39404357 0 5937.30427966 0 253.05050010 0 153.75435779 0 11364
0.10450000 0.10450100 16283.53039458 0 112.57868747 0 5147.06314359 0 121.65304288 0 301.00475016 0 12093
0.10550000 0.10551000 16515.96395040 0 -36.41330888 0 5486.91483468 0 574.53049355 0 396.11027803 0 12067
0.10650000 0.10649700 16327.90806781 0 197.13353337 0 4637.93918901 0 864.46499146 0 269.87007764 0 12054
0.10750000 0.10749900 16152.37459796 0 281.52690606 0 5396.57770977 0 -396.21243455 0 528.51941438 0 12807
0.10850000 0.10850100 15816.02698552 0 327.14254062 0 4672.85914525 0 -756.28232994 0 263.93621153 0 12736
0.10950000 0.10950300 15344.89866751 0 121.67501203 0 5557.50169809 0 361.27600146 0 243.99811383 0 12933
0.11050000 0.11050200 15254.05625226 0 99.97334121 0 4920.89079414 0 87.36656695 0 297.06678089 0 13428
0.11150000 0.11150900 14639.24972488 0 244.77692003 0 5194.58240457 0 125.78434063 0 -386.77339133 0 13453
0.11250000 0.11250000 14781.93932271 0 363.76949943 0 5246.64927861 0 34.03767537 0 304.62965911 0 13668
0.11350000 0.11349100 14483.15894850 0 -81.19741129 0 4251.31518787 0 609.83820520 0 -602.01499261 0 13791
0.11450000 0.11448600 14245.89218074 0 176.79120341 0 4501.51079755 0 501.79065392 0 53.61152463 0 14205
0.11550000 0.11549300 14476.01897632 0 41.39799807 0 3883.72745100 0 75.83353466 0 261.49653796 0 14776
0.11650000 0.11649800 13972.26647774 0 -158.89733468 0 3586.83642328 0 745.28457587 0 637.34906723 0 14553
0.11750000 0.11747300 14306.96640430 0 245.95007238 0 3887.15463765 0 -32.42546965 0 118.66853451 0 14568
0.11850000 0.11849100 13787.94534983 0 224.32913817 0 3615.81372575 0 -425.03705146 0 788.06728916 0 16015
0.11950000 0.11950300 13814.08863257 0 232.76419146 0 4320.12255052 0 -165.78356323 0 782.96385674 0 15270
0.12050000 0.12050700 13592.74949506 0 253.13947514 0 4446.92845640 0 -378.66018602 0 51.20656231 0 15999
0.12150000 0.12150000 13232.89489729 0 105.07128134 0 4830.89419098 0 -190.72952756 0 539.53584222 0 15670
0.12250000 0.12250700 13051.97898688 0 176.97354732 0 4769.80898285 0 97.57496963 0 -297.47760390 0 16887
0.12350000 0.12352200 13083.06532728 0 -62.17696479 0 5227.09673941 0 774.71993502 0 633.29795686 0 16407
0.12450000 0.12449800 13156.77180930 0 66.41382428 0 4764.10798968 0 -123.16781544 0 334.07270746 0 16306
0.12550000 0.12549900 13002.98779317 0 114.18902581 0 4439.64568477 0 370.03619809 0 957.59109935 0 17523
0.12650000 0.12650100 13086.58039051 0 -45.33245228 0 4219.35008166 0 496.32143523 0 467.53196895 0 17154
0.12750000 0.12750600 12888.41870114 0 9.89863774 0 3314.95726732 0 577.46117752 0 954.60878790 0 18007
0.12850000 0.12850300 12762.42565363 0 -73.26501205 0 3200.03666897 0 486.62315610 0 1066.63934520 0 17496
0.12950000 0.12949900 12776.81544372 0 236.15403055 0 3034.38931444 0 -1.51356426 0 495.90072610 0 18405
0.13050000 0.13049000 12453.53947265 0 432.08365477 0 3299.01865250 0 -651.12042587 0 114.56909202 0 18100
0.13150000 0.13148800 12051.17457899 0 283.59200570 0 3190.56796740 0 -187.60221974 0 368.69168641 0 19059
0.13250000 0.13249300 11938.36301858 0 -203.83082728 0 3374.62546558 0 42.70922650 0 52.76164825 0 18957
0.13350000 0.13349100 11842.24800849 0 11.52688093 0 3067.46386249 0 255.42316778 0 -339.01027283 0 19468
0.13450000 0.13450700 12087.20397706 0 261.98205607 0 3431.80016586 0 -169.79622759 0 -497.16944423 0 19953
0.13550000 0.13551000 11809.73367365 0 175.22590182 0 3259.04579288 0 -165.97249788 0 -502.50904496 0 19956
0.13650000 0.13649900 11558.62634444 0 36.95473846 0 3749.12249859 0 76.55082725 0 178.52676588 0 19723
0.13750000 0.13749600 11841.58893414 0 -150.51830271 0 3470.35601562 0 244.79339689 0 -148.54547347 0 20946
0.13850000 0.13851100 11749.09883300 0 116.14318127 0 3553.24560032 0 -6.69053839 0 -492.19233440 0 20955
0.13950000 0.13949800 11458.44704250 0 320.90659876 0 3739.48902844 0 -212.61628843 0 176.63741939 0 20506
0.14050000 0.14048300 11262.59211338 0 301.14645115 0 3998.62608021 0 17.29345200 0 260.40137607 0 21447
0.14150000 0.14148400 11006.21218933 0 156.77731217 0 4242.75820583 0 166.48328050 0 734.17917299 0 21771
0.14250000 0.14249400 11010.93555554 0 6.55612018 0 3937.78253268 0 386.96342444 0 223.41082790 0 22470
0.14350000 0.14350900 11054.21477151 0 -101.45647820 0 3849.52149199 0 112.20631046 0 584.63520187 0 22519
0.14450000 0.14449900 10741.61580499 0 275.54031400 0 3669.16579477 0 -20.23072671 0 561.83672148 0 22218
0.14550000 0.14550500 10484.13742368 0 75.81101628 0 3695.08938607 0 12.65356854 0 886.33857085 0 23559
0.14650000 0.14650700 10415.25316902 0 171.56034995 0 3779.41794977 0 103.61055288 0 367.78875454 0 23044
0.14750000 0.14750500 10556.67954101 0 49.37356668 0 3799.73940905 0 92.36938068 0 318.33950415 0 23649
0.14850000 0.14849900 10255.70225228 0 134.36439027 0 3408.74354802 0 401.42571270 0 698.02894463 0 23640
0.14950000 0.14949500 10155.95134867 0 8.60486379 0 3581.58579758 0 105.87139761 0 904.93325531 0 24457
0.15050000 0.15050000 9989.38129005 0 223.41302482 0 3229.87076810 0 155.87987259 0 939.17546342 0 24591
0.15150000 0.15149900 9835.81696536 0 22.14379987 0 3291.18665225 0 402.82185187 0 1064.00194932 0 25020
0.15250000 0.15250500 9847.79014947 0 3.40939164 0 3025.62362552 0 291.29878183 0 1150.45822473 0 25297
0.15350000 0.15350100 9644.32291155 0 174.50421540 0 3060.57653548 0 38.19698377 0 1701.43340084 0 25452
0.15450000 0.15450400 9496.84404007 0 123.01293297 0 2890.78799709 0 252.97800192 0 1737.90218181 0 26061
0.15550000 0.15549900 9483.38793866 0 -49.24383888 0 2485.21560824 0 259.37651545 0 1806.56674502 0 26128
0.15650000 0.15649500 9465.09862531 0 24.39223203 0 2391.84674130 0 115.62910328 0 1323.12472114 0 26331
0.15750000 0.15749700 9311.62217720 0 218.47326253 0 2408.04898585 0 -128.12185767 0 1569.34391555 0 27345
0.15850000 0.15849900 9134.12246886 0 172.71592698 0 2598.54344356 0 -123.74121013 0 1294.46597128 0 26980
0.15950000 0.15949700 8931.52301217 0 69.18907655 0 2659.90326600 0 124.22123595 0 1031.91052052 0 27777
0.16050000 0.16050000 8921.03274536 0 108.20979342 0 2659.88129685 0 56.44938896 0 817.57404803 0 28224
0.16150000 0.16150500 8829.99260780 0 145.66861392 0 2433.93962343 0 -290.50240032 0 643.42792970 0 28075
0.16250000 0.16249700 8574.20585067 0 -31.44751315 0 2372.66767757 0 -74.83393855 0 694.73247439 0 28590
0.16350000 0.16349900 8489.30608919 0 93.05306048 0 2853.12189771 0 219.19165357 0 515.81905156 0 29163
0.16450000 0.16449100 8534.48563622 0 142.69948395 0 2304.10197552 0 -98.29237206 0 346.01074094 0 28996
0.16550000 0.16550500 8651.63610280 0 -42.57697225 0 2456.49095094 0 103.36834305 0 331.11346361 0 30777
0.16650000 0.16650700 8666.06983117 0 -103.01145429 0 2410.69626785 0 17.47920112 0 -17.55752112 0 29211
0.16750000 0.16749900 8505.42045717 0 59.67127394 0 2413.32158069 0 -274.31663262 0 -237.52380676 0 30922
0.16850000 0.16850800 8377.53806318 0 275.51944331 0 2591.52430168 0 -194.88059754 0 -188.59302819 0 30867
0.16950000 0.16949900 8341.45374225 0 200.81775902 0 2804.13070399 0 -377.39586172 0 -289.63352062 0 30852
0.17050000 0.17049200 8093.93836827 0 56.64853926 0 2952.45538756 0 337.43618358 0 -367.36475004 0 31257
0.17150000 0.17149500 8148.96009233 0 3.10154899 0 2821.55223611 0 178.47513839 0 -471.23157300 0 32608
0.17250000 0.17250900 8043.37638068 0 -35.56134543 0 2628.65215701 0 278.24032194 0 -126.75427839 0 32361
0.17350000 0.17350400 7944.05387540 0 151.38608394 0 2576.99171216 0 339.81434355 0 239.09899446 0 32508
0.17450000 0.17449800 8043.94757845 0 -121.95182326 0 2270.77478231 0 239.59439869 0 294.69301476 0 32791
0.17550000 0.17549800 8125.24440013 0 48.90123006 0 1894.63006340 0 136.98201392 0 336.84741049 0 33633
0.17650000 0.17650100 7877.28964325 0 197.00171850 0 2048.91936988 0 -297.97740196 0 111.56481142 0 33984
0.17750000 0.17750300 7738.88402873 0 116.17064271 0 2152.55881219 0 -131.52597672 0 203.66386177 0 34069
0.17850000 0.17849800 7703.04136839 0 3.91694480 0 2238.35930862 0 61.82523878 0 -65.08315316 0 34536
