### header ###
fiducial parameters:
Omega_m = 0.31
Omega_nu = 0
Omega_de = 0.69
Omega_k = 0
H_0 = 100
w_de = -1
zeff = 0
beta = 0
fgrowth = 0
b_1 = 2
gamma = 0.55
Lx = 3500 Ly = 3500 Lz = 3500
nx = 700 ny = 700 nz = 700
xoffset = -983.599254 yoffset = -42.9823471 zoffset = 800.977702
bins = 400 dk = 0.001
kx_ny = 0.628318531 ky_ny = 0.628318531 kz_ny = 0.628318531
############################
A(data) = 9.06155711 (not used)
A(ran) = 9.05043221 (used)
Ngal = 502357
weighted Ngal = 0
Nran = 25229228
weighted Nran = 0
SN(data) = 6778.74648
SN(ran) = 134.347431
SN(data+ran) = 6913.09391
############################
13 columns: k_central k_mean P_0(k) sigma^{lin}_{P_0(k)} P^img_1(k) sigma^{lin}_{P_1(k)} P_2(k) sigma^{lin}_{P_2(k)} P^img_3(k) sigma^{lin}_{P_3(k)} P_4(k) sigma^{lin}_{P_4(k)} N_modes
### header ###
0.00050000 0 0 0 0 0 0 0 0 0 0 0 0
0.00150000 0.00179520 53510.90594711 0 -24816.23653004 0 11608.71599542 0 -75282.43864906 0 -96717.62373857 0 3
0.00250000 0.00253879 67111.89387160 0 -3566.30625712 0 -13299.90079004 0 29403.94326864 0 41800.58265532 0 6
0.00350000 0.00331552 63025.08364271 0 11384.19133185 0 35852.43660252 0 -14433.50868043 0 123241.41207638 0 7
0.00450000 0.00420575 40056.12268367 0 17337.50013376 0 24783.83204093 0 18899.72604628 0 50142.70645649 0 24
0.00550000 0.00557378 51219.96348955 0 -10887.24926827 0 19679.19131665 0 36750.75494822 0 -30190.32881974 0 45
0.00650000 0.00659388 66925.48567490 0 -15345.66758759 0 -16828.91442325 0 12871.83199654 0 22553.63426974 0 40
0.00750000 0.00754703 90995.43034377 0 -16689.08081429 0 -14516.00282052 0 -18156.50986543 0 -6779.96379609 0 57
0.00850000 0.00846663 72775.53949454 0 -166.83258991 0 -13846.93250459 0 -30675.84692784 0 11932.98057802 0 75
0.00950000 0.00948925 79763.59503362 0 -2399.22837407 0 2458.35832828 0 4084.34968463 0 -10124.86500826 0 112
0.01050000 0.01054430 88233.35956819 0 15172.66056943 0 23629.24361690 0 -25585.48614792 0 -2929.92602919 0 105
0.01150000 0.01145670 76066.18790274 0 17219.85536142 0 27974.85037581 0 -10129.86298879 0 1905.73546628 0 144
0.01250000 0.01249090 68233.08919498 0 -3136.26024056 0 46284.04580012 0 12245.49166796 0 5336.06369942 0 169
0.01350000 0.01339930 65395.00517714 0 -1045.31609290 0 43313.59768267 0 16908.22303728 0 14123.08465928 0 180
0.01450000 0.01448870 73398.80414281 0 -4414.19443010 0 19729.72035053 0 15404.10551372 0 1948.75105251 0 267
0.01550000 0.01550050 71056.12434839 0 -5059.90056015 0 32387.13349028 0 4487.82402012 0 25513.64704323 0 238
0.01650000 0.01653350 81976.98640876 0 3752.54968524 0 12622.92158185 0 15220.11392298 0 16124.25409215 0 315
0.01750000 0.01747870 73454.82546297 0 -1985.06604946 0 21509.33095443 0 -18548.21972368 0 9236.15816357 0 297
0.01850000 0.01844180 72089.33324539 0 7914.85688148 0 15092.91257249 0 6825.03349739 0 -3108.62305595 0 388
0.01950000 0.01947590 70200.20645285 0 884.66671890 0 20849.70737092 0 -319.35557711 0 5132.61843064 0 399
0.02050000 0.02045430 74046.23485075 0 -4544.85592096 0 13636.46809393 0 7834.53768676 0 -2340.91127824 0 462
0.02150000 0.02154770 72147.33178862 0 4954.88804627 0 17123.74035133 0 -8207.77149393 0 -21047.75921456 0 571
0.02250000 0.02255340 64346.08834135 0 4359.24959805 0 13677.87993256 0 -12859.63912098 0 -3298.28268614 0 510
0.02350000 0.02348930 58312.92169677 0 2014.57061142 0 24377.18316397 0 9315.64253077 0 -8941.50798865 0 555
0.02450000 0.02439640 61773.17190562 0 -2293.90829216 0 17991.52158526 0 5039.75485404 0 -1319.11535215 0 592
0.02550000 0.02547300 60521.04047707 0 1292.80730082 0 14079.80544331 0 3925.79836399 0 -15601.60812873 0 837
0.02650000 0.02652900 61433.30922995 0 3423.66059758 0 22657.43848063 0 -4982.18470914 0 -4911.81753718 0 723
0.02750000 0.02749970 54134.50013255 0 4406.30750699 0 20383.08272767 0 -7316.51622840 0 -2219.60864322 0 826
0.02850000 0.02848090 51780.94561127 0 2330.59676458 0 27222.73669117 0 3086.75277194 0 -3717.06951580 0 831
0.02950000 0.02946900 49704.53185622 0 981.79780195 0 23667.90931239 0 -2456.37012064 0 -6814.15877054 0 996
0.03050000 0.03053250 49610.17437775 0 -185.74912235 0 26681.74649153 0 5636.37092922 0 -11037.18868401 0 1041
0.03150000 0.03150510 50704.34765258 0 -2720.50515293 0 19938.09769240 0 5676.31083513 0 -3765.13800542 0 1036
0.03250000 0.03246190 50990.27607687 0 -1712.40698885 0 17814.34042952 0 2375.40283614 0 -12469.35725716 0 1059
0.03350000 0.03345080 53035.49364579 0 1970.37967592 0 17256.98321674 0 -94.48841458 0 -7424.64836089 0 1302
0.03450000 0.03451200 48713.83325511 0 2418.85780527 0 17575.64566733 0 -4489.38382942 0 -6962.67019184 0 1339
0.03550000 0.03553350 48870.36341440 0 2019.03034789 0 22728.83820241 0 3143.77368821 0 -4126.38764390 0 1365
0.03650000 0.03647120 49211.10485587 0 -1292.77434710 0 17946.26514622 0 990.08676042 0 -5256.59031679 0 1308
0.03750000 0.03744890 47361.85206180 0 -947.91039554 0 16759.71161598 0 7110.00626387 0 -1472.74558427 0 1579
0.03850000 0.03847530 46722.00070894 0 1072.30299082 0 13860.11399169 0 1752.52264792 0 -911.19995397 0 1662
0.03950000 0.03950240 46436.40182182 0 2924.96100239 0 18794.38399523 0 -4594.55012732 0 311.53236452 0 1683
0.04050000 0.04050350 43342.04772566 0 1673.26895674 0 18574.47285215 0 -905.78675660 0 1596.60762470 0 1822
0.04150000 0.04152450 42519.19339359 0 -377.16518570 0 16561.98930952 0 8060.62215963 0 6026.12553355 0 1887
0.04250000 0.04250150 43091.37977935 0 -1209.85180868 0 17164.05373270 0 -29.28640834 0 2460.69804224 0 1920
0.04350000 0.04349210 42109.68852776 0 1750.02914994 0 16060.98295409 0 4134.94462594 0 3741.49920522 0 2005
0.04450000 0.04448520 42683.52259941 0 -59.14544245 0 13532.22450013 0 1355.92465487 0 6966.36100822 0 2151
0.04550000 0.04548030 39451.75150025 0 -489.13093402 0 8393.79523060 0 2589.63495520 0 8688.26965236 0 2274
0.04650000 0.04648670 41212.57848504 0 1051.75305243 0 12286.79366086 0 2201.22046872 0 5976.49723463 0 2311
0.04750000 0.04749250 41347.13949916 0 719.78389062 0 9178.92854042 0 1304.47291690 0 9057.92248887 0 2568
0.04850000 0.04851840 38752.58345545 0 577.74897332 0 10865.11535452 0 -1538.51022032 0 6666.55906876 0 2493
0.04950000 0.04949480 37754.63503643 0 1866.89401763 0 11017.30660764 0 -3835.68093053 0 5100.25787982 0 2644
0.05050000 0.05050630 36542.81698926 0 732.44690589 0 13889.22310903 0 -2388.54038495 0 586.39932423 0 2829
0.05150000 0.05149060 35258.72045450 0 1005.83863750 0 15494.72823752 0 866.56634020 0 -561.87406902 0 2784
0.05250000 0.05249300 35216.53969579 0 -837.10242116 0 13410.07605303 0 1170.46113141 0 1410.77062577 0 3055
0.05350000 0.05348950 34503.09170663 0 528.81270247 0 13518.82332158 0 2672.67832391 0 2871.20250417 0 3009
0.05450000 0.05448610 35448.86340588 0 179.05072999 0 11980.43393157 0 1448.11817254 0 -347.44752303 0 3336
0.05550000 0.05550870 36485.58736611 0 -513.81107169 0 13423.25754013 0 -611.34638701 0 -2313.17523247 0 3349
0.05650000 0.05647670 34487.16407639 0 1578.81261712 0 13130.73837229 0 -1670.61069018 0 2460.77493425 0 3324
0.05750000 0.05747970 33544.46805745 0 994.98148596 0 14830.60097925 0 -3052.32712147 0 -330.80589557 0 3639
0.05850000 0.05849280 32872.10236975 0 -380.48142816 0 14772.71228175 0 2698.85456037 0 1282.92118549 0 3846
0.05950000 0.05951020 33977.37006289 0 286.27443833 0 15725.51410745 0 2197.32094545 0 -1690.21815224 0 3787
0.06050000 0.06049470 34004.72164861 0 -263.02998429 0 14335.63613873 0 -218.91813772 0 1152.18280263 0 3930
0.06150000 0.06148310 32758.19235208 0 1055.30216783 0 13316.37764891 0 1152.89679985 0 -245.41292678 0 4083
0.06250000 0.06249100 32305.18857883 0 85.18645883 0 12359.07214845 0 1454.41233263 0 4045.70595829 0 4303
0.06350000 0.06350600 32696.89843708 0 47.73675552 0 13554.96256538 0 1139.57251331 0 428.73006476 0 4470
0.06450000 0.06451750 31858.44601194 0 449.61832799 0 11835.21788204 0 901.92677780 0 2395.99890973 0 4479
0.06550000 0.06550280 31464.64908490 0 459.86363883 0 11369.91138750 0 -392.03610006 0 1303.75891968 0 4636
0.06650000 0.06648880 30977.37344519 0 -299.93704971 0 9500.63371761 0 1667.54599443 0 1807.44551082 0 4653
0.06750000 0.06749660 31124.23718061 0 289.38526928 0 9914.92785709 0 -294.40631741 0 -985.44577850 0 5220
0.06850000 0.06852730 30897.73529398 0 98.01446238 0 9861.87237152 0 1182.87369842 0 1190.67274495 0 5029
0.06950000 0.06949320 30607.96226928 0 -119.11670507 0 9965.57772126 0 310.79969353 0 324.56995372 0 5040
0.07050000 0.07048030 29971.62597965 0 620.49324060 0 7074.60298644 0 820.39928010 0 711.53996890 0 5475
0.07150000 0.07148790 29519.50097220 0 508.12545693 0 9180.85084062 0 708.37751045 0 2671.23934490 0 5509
0.07250000 0.07249820 29207.97849379 0 643.04017428 0 8702.97799505 0 -537.30597399 0 2593.99583051 0 5916
0.07350000 0.07351270 28032.29969041 0 881.49876817 0 10325.02588984 0 -386.25821488 0 127.99883046 0 5721
0.07450000 0.07449140 27207.02875237 0 1353.35426488 0 11853.78180970 0 -1376.60860504 0 1165.37527430 0 6028
0.07550000 0.07549160 25574.06219243 0 690.49133092 0 12395.21139224 0 -1620.47710092 0 9.98265873 0 6183
0.07650000 0.07648840 24693.20931713 0 45.96087967 0 11737.23549462 0 1090.28693305 0 1765.26475211 0 6330
0.07750000 0.07749960 25448.61837355 0 -27.48933227 0 10535.85279140 0 2267.31464194 0 -2414.76055970 0 6583
0.07850000 0.07848650 25128.74761998 0 7.78710630 0 10652.72864366 0 1417.70189107 0 4.26454061 0 6549
0.07950000 0.07947320 24414.97009365 0 66.63615203 0 8226.36837531 0 -339.12890622 0 66.02969378 0 6828
0.08050000 0.08048110 24140.24593339 0 118.64986074 0 8269.57069928 0 593.01643075 0 -513.81107169 0 7147
0.08150000 0.08149960 23937.03134063 0 769.51654299 0 7664.44158034 0 -370.90507778 0 -2192.97105471 0 7386
0.08250000 0.08250610 22940.84045323 0 842.89678320 0 8897.71249777 0 -1755.32371393 0 -2727.89777028 0 7227
0.08350000 0.08350160 22046.47655366 0 769.45063555 0 9154.48786643 0 -485.42034540 0 -3182.31855340 0 7798
0.08450000 0.08449610 21549.64433580 0 35.37306986 0 9701.02527521 0 1534.36903645 0 -2537.62300402 0 7371
0.08550000 0.08548940 21252.07226458 0 -72.50619777 0 8993.12449521 0 209.23633544 0 -2140.28904461 0 8256
0.08650000 0.08650700 20934.61811698 0 364.24842680 0 8058.88659717 0 1737.10030801 0 -1428.34594190 0 8037
0.08750000 0.08749060 21456.49516032 0 143.71445845 0 7366.70474052 0 1518.67208223 0 -460.31730168 0 8155
0.08850000 0.08849210 21294.03333184 0 96.35238670 0 7134.28216928 0 949.39111592 0 359.51187910 0 8718
0.08950000 0.08949900 20109.23733321 0 60.05661275 0 6532.95371246 0 -601.89196539 0 1531.32630985 0 8571
0.09050000 0.09049190 20036.95884563 0 314.61902942 0 6646.95160670 0 552.51301627 0 1229.81077706 0 8932
0.09150000 0.09150830 19416.11080333 0 432.81632576 0 6307.23173048 0 213.66531511 0 616.37073051 0 9285
0.09250000 0.09250820 19502.44954382 0 509.86211785 0 6876.12274447 0 -412.41248219 0 1163.83743414 0 9204
0.09350000 0.09350330 18357.08816076 0 170.52780012 0 6507.78805667 0 -351.48435346 0 504.62906747 0 9349
0.09450000 0.09448040 18267.78358568 0 14.60146280 0 6364.10984731 0 816.76448503 0 742.86467453 0 9564
0.09550000 0.09549270 18858.20436192 0 -255.65164689 0 6180.79930007 0 1416.26291206 0 -456.83409371 0 10155
0.09650000 0.09649430 19091.84622073 0 176.32875290 0 5158.16854646 0 263.29141712 0 718.51627095 0 9913
0.09750000 0.09749140 18557.55661037 0 54.06299057 0 4658.59018547 0 287.70902351 0 40.41345083 0 10476
0.09850000 0.09850240 18406.51873738 0 413.53949934 0 5071.21466991 0 -360.74654506 0 403.63471025 0 10575
0.09950000 0.09950330 17922.53846945 0 369.20137057 0 4963.92834951 0 -32.81047892 0 1003.52528651 0 10882
0.10050000 0.10051200 17307.07286771 0 442.00711764 0 5831.62170685 0 -140.26420421 0 922.84250245 0 10875
0.10150000 0.10150300 16873.07240502 0 181.38714858 0 5863.21333760 0 -349.54777331 0 1042.59301736 0 11118
0.10250000 0.10250800 16160.39333595 0 293.22327894 0 5994.95131657 0 299.68660145 0 843.73600455 0 11575
0.10350000 0.10349800 16460.60170459 0 48.14516193 0 6088.46298295 0 786.13839822 0 1079.35069259 0 11364
0.10450000 0.10450100 16437.53410217 0 121.76288861 0 5198.05352951 0 223.91172441 0 1162.17876368 0 12093
0.10550000 0.10551000 16109.20522772 0 90.52045743 0 5328.50631348 0 89.96430852 0 1400.09362122 0 12067
0.10650000 0.10649700 16287.59468644 0 383.92838703 0 5415.30640602 0 -465.98973496 0 96.10094983 0 12054
0.10750000 0.10749900 15499.01222082 0 57.76435214 0 5635.23951825 0 -305.47986503 0 676.90561155 0 12807
0.10850000 0.10850100 15533.17424155 0 310.49212550 0 5434.27676287 0 192.97806957 0 116.23764860 0 12736
0.10950000 0.10950300 15105.10544806 0 313.84242014 0 5760.91401315 0 85.47095926 0 289.10955651 0 12933
0.11050000 0.11050200 15064.02314660 0 -68.19640072 0 5535.56550664 0 24.69496685 0 21.22757667 0 13428
0.11150000 0.11150900 14998.55509402 0 163.34279120 0 5502.57883518 0 -246.52786090 0 -749.78495526 0 13453
0.11250000 0.11250000 14737.12226658 0 182.44496292 0 5371.74159116 0 -122.66582047 0 -351.79082303 0 13668
0.11350000 0.11349100 14913.97388514 0 -50.92601633 0 5973.67419948 0 122.39120616 0 -919.88106168 0 13791
0.11450000 0.11448600 14765.68215529 0 -118.38623100 0 5502.45800488 0 18.31062342 0 -1302.62750870 0 14205
0.11550000 0.11549300 15065.45114104 0 -36.56302860 0 5309.95337039 0 138.24963359 0 -1829.28284112 0 14776
0.11650000 0.11649800 15010.63812386 0 -36.62443236 0 4988.97317499 0 423.07191143 0 -1599.93595019 0 14553
0.11750000 0.11747300 14966.37029635 0 305.41505605 0 5142.58143797 0 211.22234617 0 -1560.41345804 0 14568
0.11850000 0.11849100 14462.39810632 0 208.98808410 0 4598.26291285 0 394.34066338 0 -289.98722386 0 16015
0.11950000 0.11950300 14414.50536987 0 11.54917961 0 4578.36985190 0 905.83728563 0 -437.53749506 0 15270
0.12050000 0.12050700 14533.68798238 0 -23.95933002 0 4240.64916789 0 589.70238520 0 -100.09911456 0 15999
0.12150000 0.12150000 14343.10564809 0 141.35607072 0 3277.18132221 0 197.38178471 0 -262.68836408 0 15670
0.12250000 0.12250700 13827.81934830 0 318.82062843 0 3836.71348036 0 -263.23759271 0 103.28101570 0 16887
0.12350000 0.12352200 13742.46921934 0 35.85144799 0 3684.43435066 0 -278.78955057 0 19.28165963 0 16407
0.12450000 0.12449800 13361.08485932 0 208.54430737 0 3848.79651020 0 83.41387835 0 -856.35178616 0 16306
0.12550000 0.12549900 13409.30713295 0 150.84783989 0 3682.16054414 0 -262.36761456 0 -728.39030324 0 17523
0.12650000 0.12650100 13098.11419172 0 218.80060279 0 3843.88640625 0 412.04340056 0 -645.61056427 0 17154
0.12750000 0.12750600 12959.15934857 0 145.35335668 0 3482.27427687 0 164.75650569 0 -593.05267984 0 18007
0.12850000 0.12850300 12872.93045380 0 100.22521746 0 3446.62933885 0 200.52666784 0 -555.87868931 0 17496
0.12950000 0.12949900 12469.68679434 0 220.71521379 0 3499.84959300 0 186.51694397 0 -200.77931301 0 18405
0.13050000 0.13049000 12141.24807416 0 199.84232897 0 3565.66915191 0 89.45813941 0 179.87347448 0 18100
0.13150000 0.13148800 12131.14226738 0 164.90809279 0 3425.09957659 0 301.29254596 0 522.47460409 0 19059
0.13250000 0.13249300 12027.00851931 0 13.89976830 0 3410.70978651 0 98.45307636 0 344.33119979 0 18957
0.13350000 0.13349100 11786.99560841 0 187.85266800 0 3758.40446242 0 -68.61315541 0 426.55731631 0 19468
0.13450000 0.13450700 11673.96435655 0 159.42898799 0 3628.27023105 0 -321.77108463 0 837.66153591 0 19953
0.13550000 0.13551000 11588.72407332 0 -72.18632702 0 3744.34420952 0 122.22424066 0 508.24518877 0 19956
0.13650000 0.13649900 11418.46319831 0 151.32457034 0 3527.20117873 0 537.73986460 0 273.30824885 0 19723
0.13750000 0.13749600 11649.02937679 0 147.55686194 0 3645.43911800 0 153.79719763 0 1098.65498044 0 20946
0.13850000 0.13851100 11396.82359032 0 -90.35415100 0 3446.31078624 0 -30.40881197 0 707.24170565 0 20955
0.13950000 0.13949800 11444.27694387 0 129.50701228 0 3407.09586213 0 131.86320310 0 514.35810341 0 20506
0.14050000 0.14048300 11171.20046950 0 182.42079686 0 3269.74476657 0 -16.34735076 0 682.44952533 0 21447
0.14150000 0.14148400 11152.52669611 0 119.85596681 0 3742.88326137 0 -144.42735721 0 770.41837639 0 21771
0.14250000 0.14249400 11063.55165820 0 134.11504047 0 3510.76825815 0 -487.09000043 0 -70.50689572 0 22470
0.14350000 0.14350900 10563.10551597 0 300.58184412 0 4175.79625137 0 -332.07131833 0 -13.63701732 0 22519
0.14450000 0.14449900 10582.10882654 0 -49.25910744 0 3791.21538072 0 215.46348964 0 170.56295076 0 22218
0.14550000 0.14550500 10649.68591706 0 0.68297459 0 3911.24380532 0 421.61755402 0 -77.06776123 0 23559
0.14650000 0.14650700 10611.40468161 0 4.94438679 0 3546.96242481 0 315.38685104 0 4.25143602 0 23044
0.14750000 0.14750500 10723.27156878 0 43.95103243 0 3782.95498214 0 171.55266075 0 247.73506543 0 23649
0.14850000 0.14849900 10404.66404106 0 231.95353000 0 3435.47999768 0 -170.55855693 0 -12.71563137 0 23640
0.14950000 0.14949500 10156.62140760 0 174.56243363 0 3720.81525505 0 -258.76137938 0 234.86444173 0 24457
0.15050000 0.15050000 9981.48338236 0 144.06816169 0 3952.10641532 0 88.71821860 0 194.03917928 0 24591
0.15150000 0.15149900 9921.68336923 0 43.66631231 0 3647.84473939 0 108.19507409 0 -158.79627661 0 25020
0.15250000 0.15250500 9992.25924806 0 -31.76013409 0 3365.62910063 0 84.86823576 0 -191.45011552 0 25297
0.15350000 0.15350100 9797.11831615 0 75.67008422 0 3553.65202951 0 48.39912525 0 -496.09625149 0 25452
0.15450000 0.15450400 9709.62619554 0 136.79417773 0 2933.81456789 0 377.22889622 0 -141.48678713 0 26061
0.15550000 0.15549900 9754.50915911 0 2.30272890 0 3031.48938728 0 557.46156622 0 29.32880879 0 26128
0.15650000 0.15649500 9873.91146307 0 -69.73863471 0 2683.52009705 0 294.04822034 0 -99.80769385 0 26331
0.15750000 0.15749700 9601.34027904 0 67.81798220 0 2492.19081183 0 207.78527341 0 333.83763761 0 27345
0.15850000 0.15849900 9411.09846650 0 137.42579065 0 2266.99608934 0 -153.51050028 0 219.23888724 0 26980
0.15950000 0.15949700 9279.33851839 0 187.62858272 0 2489.33482296 0 9.69261109 0 532.45738365 0 27777
0.16050000 0.16050000 9190.06689702 0 175.92671755 0 2541.83009532 0 86.47011598 0 414.76318073 0 28224
0.16150000 0.16150500 9026.17707411 0 9.54025507 0 2511.79827389 0 208.94853964 0 333.54984180 0 28075
0.16250000 0.16249700 9008.95326430 0 127.42543577 0 2632.50774198 0 -300.93884272 0 561.29188668 0 28590
0.16350000 0.16349900 8840.40598261 0 147.43163782 0 2421.31834953 0 -230.61670752 0 -178.88046912 0 29163
0.16450000 0.16449100 8757.47245962 0 57.83992600 0 2931.95817512 0 -62.72828049 0 90.24024098 0 28996
0.16550000 0.16550500 8505.45341089 0 86.96244452 0 2691.06649841 0 -39.85916930 0 -182.05281368 0 30777
0.16650000 0.16650700 8711.95239084 0 -20.36484834 0 2664.27512589 0 355.86060717 0 -58.47186846 0 29211
0.16750000 0.16749900 8534.45268250 0 105.72728002 0 2393.59328834 0 191.22383333 0 -221.70382532 0 30922
0.16850000 0.16850800 8367.39930268 0 101.12529333 0 2390.64942289 0 223.18564416 0 -33.39068404 0 30867
0.16950000 0.16949900 8437.87632037 0 42.09189352 0 2256.83535970 0 157.64619186 0 104.92222069 0 30852
0.17050000 0.17049200 8300.33848708 0 -14.51029084 0 2055.41125228 0 106.06417686 0 213.73232100 0 31257
0.17150000 0.17149500 8260.70614920 0 229.62809598 0 2106.53345307 0 -315.59995175 0 280.22413575 0 32608
0.17250000 0.17250900 8034.59970719 0 115.09305614 0 2343.37182250 0 -147.33277666 0 184.55180394 0 32361
0.17350000 0.17350400 7939.37444748 0 -1.84116815 0 2281.75935489 0 209.54280502 0 453.02025011 0 32508
0.17450000 0.17449800 7993.16589941 0 20.72909676 0 2265.53514118 0 348.56245715 0 269.60864481 0 32791
0.17550000 0.17549800 7849.22406031 0 150.70943427 0 2155.05231016 0 153.74996396 0 550.15682545 0 33633
0.17650000 0.17650100 7939.50626235 0 97.36219846 0 2118.59451376 0 89.70100831 0 803.25565767 0 33984
0.17750000 0.17750300 7650.97449436 0 -69.86902159 0 2165.39977753 0 48.93066872 0 802.35931655 0 34069
0.17850000 0.17849800 7751.76893236 0 72.87066589 0 1997.06120272 0 -93.35711345 0 433.69289466 0 34536
