### header ###
fiducial parameters:
Omega_m = 0.31
Omega_nu = 0
Omega_de = 0.69
Omega_k = 0
H_0 = 100
w_de = -1
zeff = 0
beta = 0
fgrowth = 0
b_1 = 2
gamma = 0.55
Lx = 3500 Ly = 3500 Lz = 3500
nx = 700 ny = 700 nz = 700
xoffset = -983.599254 yoffset = -42.9823471 zoffset = 800.977702
bins = 400 dk = 0.001
kx_ny = 0.628318531 ky_ny = 0.628318531 kz_ny = 0.628318531
############################
A(data) = 8.97315763 (not used)
A(ran) = 8.97580391 (used)
Ngal = 499196
weighted Ngal = 0
Nran = 25229228
weighted Nran = 0
SN(data) = 6755.2599
SN(ran) = 133.239625
SN(data+ran) = 6888.49952
############################
13 columns: k_central k_mean P_0(k) sigma^{lin}_{P_0(k)} P^img_1(k) sigma^{lin}_{P_1(k)} P_2(k) sigma^{lin}_{P_2(k)} P^img_3(k) sigma^{lin}_{P_3(k)} P_4(k) sigma^{lin}_{P_4(k)} N_modes
### header ###
0.00050000 0 0 0 0 0 0 0 0 0 0 0 0
0.00150000 0.00179520 10898.10202598 0 -11921.88615971 0 -23915.72126983 0 17985.04068743 0 11500.95733839 0 3
0.00250000 0.00253879 30135.95518546 0 -22968.19203896 0 -14714.93342997 0 -12522.41274273 0 9772.27121298 0 6
0.00350000 0.00331552 53850.54893133 0 -29233.13316500 0 -33472.51910705 0 527.41656329 0 -14702.63070868 0 7
0.00450000 0.00420575 64487.13025329 0 -16338.01387459 0 -25997.84700262 0 -15548.99202607 0 -1657.15458877 0 24
0.00550000 0.00557378 80310.07751954 0 9464.57136583 0 -8307.47845925 0 -28151.70199437 0 19756.63255335 0 45
0.00650000 0.00659388 71581.73614640 0 -3265.99902732 0 34408.51453670 0 11731.52351687 0 6254.25313692 0 40
0.00750000 0.00754703 88341.33791666 0 701.53851557 0 9056.69221674 0 1753.61012060 0 -16825.50920575 0 57
0.00850000 0.00846663 82116.38063482 0 -565.70329102 0 33123.09985323 0 -13356.25164738 0 -16722.69360639 0 75
0.00950000 0.00948925 77656.42447534 0 1582.40457235 0 26536.96982491 0 -3852.39945000 0 -1056.65656563 0 112
0.01050000 0.01054430 79869.92569620 0 2149.97743763 0 35483.57465524 0 17607.94031072 0 16129.63653272 0 105
0.01150000 0.01145670 82210.84795901 0 1761.10159910 0 37084.68595470 0 4598.86706434 0 -19147.53800372 0 144
0.01250000 0.01249090 82321.79214209 0 4603.12907850 0 25057.56758966 0 2088.88124493 0 10890.83023893 0 169
0.01350000 0.01339930 70026.65020606 0 -2834.54698547 0 37300.09342302 0 116.79896026 0 -3011.79404864 0 180
0.01450000 0.01448870 71462.55353390 0 5907.76676399 0 33646.95411964 0 7318.93283437 0 14686.37354126 0 267
0.01550000 0.01550050 70070.14911349 0 5549.48296010 0 24774.49515424 0 6315.03077701 0 -3955.98396944 0 238
0.01650000 0.01653350 69345.16732312 0 2381.94964140 0 40472.32813878 0 -2736.50967518 0 6770.20949564 0 315
0.01750000 0.01747870 64040.93691504 0 2504.07611936 0 32943.50209153 0 9070.06044157 0 8905.57745174 0 297
0.01850000 0.01844180 71553.61564060 0 -6036.96730669 0 35887.36754333 0 11642.21894179 0 12056.22748238 0 388
0.01950000 0.01947590 70660.78958118 0 -3648.60267490 0 30515.03278525 0 -10023.18081988 0 9071.81797318 0 399
0.02050000 0.02045430 71544.49844535 0 5100.48855584 0 30611.47733251 0 2622.76442610 0 -1411.16607038 0 462
0.02150000 0.02154770 68688.72926566 0 1783.21354371 0 32471.27531626 0 4565.68267057 0 5692.46914139 0 571
0.02250000 0.02255340 75431.71899044 0 -3505.34187930 0 34722.23392963 0 21461.54806370 0 9527.09555296 0 510
0.02350000 0.02348930 75612.85459231 0 1790.83683708 0 32384.82673004 0 -1884.76591722 0 18374.99301407 0 555
0.02450000 0.02439640 72355.59928476 0 -255.71755432 0 15945.75478771 0 10548.55095730 0 19246.94838558 0 592
0.02550000 0.02547300 76856.30820851 0 -7150.70410529 0 18434.52939746 0 5284.22750141 0 2190.64232532 0 837
0.02650000 0.02652900 74259.99463319 0 5008.98706624 0 15904.89217770 0 -1490.36483869 0 -563.29766963 0 723
0.02750000 0.02749970 71971.13924441 0 6610.81236291 0 21928.72193559 0 -12395.98031232 0 5900.60482267 0 826
0.02850000 0.02848090 61192.85693615 0 3219.42443958 0 23404.60910762 0 1993.45826292 0 9290.08143037 0 831
0.02950000 0.02946900 65312.29134560 0 1755.83998884 0 20315.30791484 0 6720.99861048 0 -7285.02345881 0 996
0.03050000 0.03053250 62699.94029431 0 31.11479045 0 23836.30281006 0 4138.09719827 0 3452.07768685 0 1041
0.03150000 0.03150510 61661.12926529 0 1390.04273731 0 15439.03645453 0 793.12129101 0 -684.55636635 0 1036
0.03250000 0.03246190 54554.00095943 0 4372.14548626 0 18675.42107417 0 -6776.88811577 0 4060.16165581 0 1059
0.03350000 0.03345080 53011.87681474 0 2867.43479578 0 19197.51780896 0 5430.28936302 0 5144.60259933 0 1302
0.03450000 0.03451200 52427.71724486 0 638.35415562 0 24800.85812843 0 2106.33573076 0 5440.76864527 0 1339
0.03550000 0.03553350 48355.84603469 0 -40.04920240 0 18392.89786738 0 3791.19341158 0 9158.07982166 0 1365
0.03650000 0.03647120 47216.08678365 0 1534.53380504 0 18782.41081111 0 2716.77039825 0 7112.71945330 0 1308
0.03750000 0.03744890 46371.48299787 0 871.91802396 0 18499.44822142 0 -950.71695383 0 11650.34752550 0 1579
0.03850000 0.03847530 46363.90364279 0 811.52264699 0 18426.73035093 0 5561.81863511 0 7487.33731661 0 1662
0.03950000 0.03950240 46864.69030677 0 245.06361738 0 16956.00592801 0 175.36101206 0 8282.82907838 0 1683
0.04050000 0.04050350 44461.59536315 0 769.98778115 0 17706.14238959 0 -1601.45182121 0 7176.72655773 0 1822
0.04150000 0.04152450 42100.79102397 0 2324.39048108 0 19829.35042384 0 -1234.18263695 0 3159.30587384 0 1887
0.04250000 0.04250150 40979.48585486 0 184.74842779 0 18176.06240462 0 3053.60133189 0 11963.40784407 0 1920
0.04350000 0.04349210 43628.74507003 0 -1052.29898569 0 19219.59679985 0 3533.12186335 0 3220.36911282 0 2005
0.04450000 0.04448520 42431.53650439 0 1166.29797840 0 15468.25541760 0 -1727.55471444 0 5291.76291820 0 2151
0.04550000 0.04548030 39680.77983857 0 1728.67514084 0 16210.15344974 0 1575.13278530 0 1751.27040664 0 2274
0.04650000 0.04648670 39601.47122453 0 89.60511299 0 19292.31467034 0 -1063.87233136 0 5355.48442374 0 2311
0.04750000 0.04749250 38937.56365772 0 1708.32072785 0 17598.49357830 0 -12.38005268 0 -1040.15224533 0 2568
0.04850000 0.04851840 36993.29431082 0 2.64542560 0 19096.56958694 0 235.72233685 0 2302.04786044 0 2493
0.04950000 0.04949480 36465.48559829 0 253.38333265 0 17270.16470384 0 2095.08752844 0 1754.03851893 0 2644
0.05050000 0.05050630 36895.20207767 0 397.58880150 0 17850.04029041 0 -364.50766271 0 757.02269013 0 2829
0.05150000 0.05149060 36469.22035296 0 461.54977072 0 16478.72624935 0 2462.90594133 0 -2379.24743655 0 2784
0.05250000 0.05249300 35232.02794313 0 1012.34589830 0 16320.98778709 0 -752.76067597 0 -1496.32946160 0 3055
0.05350000 0.05348950 34325.25147654 0 751.49854858 0 16130.62514425 0 1408.57371125 0 3893.53667432 0 3009
0.05450000 0.05448610 34406.31762219 0 -983.92661211 0 13485.86960384 0 3217.56804681 0 -388.33979138 0 3336
0.05550000 0.05550870 34754.52857302 0 -751.30741702 0 12033.48941714 0 4218.57017700 0 1931.86776445 0 3349
0.05650000 0.05647670 35640.32450597 0 503.93044866 0 8951.38311940 0 214.80990757 0 2092.17661671 0 3324
0.05750000 0.05747970 33844.45673465 0 1181.30290454 0 11344.64687056 0 -2698.50305405 0 672.67325574 0 3639
0.05850000 0.05849280 33164.84122904 0 544.06478150 0 13416.44710513 0 -184.91099946 0 5029.94563072 0 3846
0.05950000 0.05951020 31916.66424663 0 203.31125699 0 11168.89370926 0 1032.39494017 0 97.50741451 0 3787
0.06050000 0.06049470 32703.59902635 0 -149.37810408 0 11638.15464993 0 1547.69332299 0 853.72867022 0 3930
0.06150000 0.06148310 33151.44005049 0 474.47861265 0 12068.42035794 0 562.45625137 0 -9.54738406 0 4083
0.06250000 0.06249100 31338.43634594 0 1248.01221383 0 11662.32070961 0 -1176.44772346 0 3235.94523674 0 4303
0.06350000 0.06350600 30124.42138425 0 1180.81958335 0 13604.50298772 0 -1159.55345083 0 1501.93159362 0 4470
0.06450000 0.06451750 30101.68331901 0 282.12226989 0 14181.52258542 0 2131.21578766 0 2779.41541568 0 4479
0.06550000 0.06550280 29949.87652594 0 -345.17811034 0 14013.67831637 0 1429.94968949 0 2353.87307388 0 4636
0.06650000 0.06648880 29206.98988226 0 -130.41323951 0 12210.45088142 0 1278.32963415 0 2781.13999358 0 4653
0.06750000 0.06749660 29541.79965454 0 420.28182999 0 13138.42757309 0 114.37466509 0 4624.85656307 0 5220
0.06850000 0.06852730 28686.21129618 0 692.20162887 0 11527.10062114 0 442.13344023 0 4847.79944818 0 5029
0.06950000 0.06949320 28215.19282389 0 556.57071738 0 12351.16325619 0 281.63016104 0 4237.13410466 0 5040
0.07050000 0.07048030 28341.73510003 0 -321.55139317 0 12135.20655924 0 827.42391426 0 2565.35904979 0 5475
0.07150000 0.07148790 28179.82250018 0 265.11924999 0 11497.77181234 0 1276.73687113 0 1396.55658885 0 5509
0.07250000 0.07249820 27583.36020901 0 320.20797995 0 10671.54521649 0 -337.85140043 0 3583.81566582 0 5916
0.07350000 0.07351270 27395.85355505 0 -76.66243050 0 9854.83126050 0 -639.13515873 0 872.01688511 0 5721
0.07450000 0.07449140 27363.11952876 0 837.46051823 0 10648.87305868 0 657.43435819 0 928.48967121 0 6028
0.07550000 0.07549160 25751.79257680 0 806.94208023 0 9169.18522454 0 522.07476565 0 1089.69925842 0 6183
0.07650000 0.07648840 26200.51236675 0 -137.90142264 0 9979.97849592 0 1697.43501642 0 1415.04362450 0 6330
0.07750000 0.07749960 25085.68809547 0 217.05844958 0 9053.66047470 0 242.98753316 0 161.93237208 0 6583
0.07850000 0.07848650 24272.50018727 0 503.01763067 0 8458.96669972 0 -833.63898543 0 2066.36287114 0 6549
0.07950000 0.07947320 23958.12171999 0 287.50471046 0 8575.55695310 0 783.24616025 0 1353.81561693 0 6828
0.08050000 0.08048110 23935.49350047 0 309.29590554 0 9075.09137581 0 678.32042450 0 1327.14507471 0 7147
0.08150000 0.08149960 24184.40391517 0 -1.01185049 0 7178.48408934 0 1228.16309117 0 -261.87440725 0 7386
0.08250000 0.08250610 23944.50084999 0 12.28042261 0 7113.29065107 0 312.96585124 0 510.31578070 0 7227
0.08350000 0.08350160 22457.95864256 0 456.81432148 0 6724.97502575 0 480.16312896 0 3233.55059992 0 7798
0.08450000 0.08449610 22755.97009669 0 57.43020144 0 7175.78188449 0 333.91562807 0 2085.65178059 0 7371
0.08550000 0.08548940 22805.18098185 0 249.20040741 0 5909.98564765 0 1440.61570947 0 2099.33855803 0 8256
0.08650000 0.08650700 22381.83555457 0 359.44267629 0 6688.49526021 0 -1025.21542353 0 992.67252880 0 8037
0.08750000 0.08749060 21818.65651832 0 901.99488215 0 6590.78748710 0 -1455.79638878 0 2120.92324315 0 8155
0.08850000 0.08849210 20790.28083326 0 176.29579919 0 7755.99799281 0 -221.97514427 0 1184.18086256 0 8718
0.08950000 0.08949900 20611.67168308 0 145.96959120 0 7611.12246503 0 1577.59332956 0 1799.24003511 0 8571
0.09050000 0.09049190 20032.45517087 0 326.35714368 0 8090.55511992 0 67.61762359 0 1014.98878646 0 8932
0.09150000 0.09150830 19842.75160239 0 649.79348951 0 7491.10502501 0 35.88308356 0 1795.79087932 0 9285
0.09250000 0.09250820 19541.99400511 0 545.96950638 0 7865.83273405 0 -41.70446765 0 2114.17871559 0 9204
0.09350000 0.09350330 18352.03525738 0 336.31356027 0 7522.40007229 0 -246.85849654 0 1153.39110561 0 9349
0.09450000 0.09448040 18115.31771825 0 10.31156979 0 7513.79915196 0 1242.20137493 0 3129.07633009 0 9564
0.09550000 0.09549270 18187.59620583 0 -142.03491731 0 7042.37425049 0 760.38396934 0 1413.05541686 0 10155
0.09650000 0.09649430 18209.67519672 0 70.91673012 0 6632.88036923 0 -143.39480739 0 1675.33405639 0 9913
0.09750000 0.09749140 17739.42564451 0 648.03266252 0 5903.85625615 0 -181.57388631 0 599.47645788 0 10476
0.09850000 0.09850240 17259.28997698 0 -36.16582646 0 5622.57430606 0 670.39615384 0 2046.54670220 0 10575
0.09950000 0.09950330 17527.64308515 0 -21.53767115 0 6037.35176673 0 718.38555453 0 1085.38561676 0 10882
0.10050000 0.10051200 17403.40756925 0 219.22021346 0 5202.13979051 0 -210.41168471 0 108.34501351 0 10875
0.10150000 0.10150300 16976.32738729 0 272.99299162 0 5642.06093782 0 -361.15517116 0 427.10215111 0 11118
0.10250000 0.10250800 16799.14623155 0 352.88159109 0 5493.19801020 0 -980.14462378 0 -886.19357449 0 11575
0.10350000 0.10349800 16311.98043757 0 -44.63888636 0 5824.72339527 0 486.90216424 0 -606.94267187 0 11364
0.10450000 0.10450100 16464.44630500 0 165.34967261 0 6158.39077200 0 497.21887481 0 -403.90493073 0 12093
0.10550000 0.10551000 16024.95355602 0 334.07380592 0 4872.93215025 0 299.55039275 0 162.51125905 0 12067
0.10650000 0.10649700 15857.98805278 0 -84.51859681 0 5647.72897727 0 603.17386501 0 -335.76323318 0 12054
0.10750000 0.10749900 15546.57542010 0 317.98250554 0 5447.87566373 0 508.03538343 0 774.88690052 0 12807
0.10850000 0.10850100 15256.25316678 0 584.24854491 0 5233.75339040 0 -334.38686623 0 934.01051739 0 12736
0.10950000 0.10950300 14998.77478547 0 161.36117431 0 5494.61502006 0 -380.07719589 0 1473.69025751 0 12933
0.11050000 0.11050200 14704.38824029 0 -106.48686321 0 5875.87854978 0 507.87061484 0 336.13121636 0 13428
0.11150000 0.11150900 14558.07373351 0 147.92484512 0 5428.04851022 0 312.97903273 0 1585.68895955 0 13453
0.11250000 0.11250000 14444.27356156 0 159.95405056 0 5622.56332149 0 -107.85620003 0 2346.31568795 0 13668
0.11350000 0.11349100 14193.49576953 0 288.84482831 0 5902.24152398 0 58.09982099 0 842.89568474 0 13791
0.11450000 0.11448600 14270.71731478 0 -18.86292773 0 5251.41658311 0 531.15351488 0 1553.92157565 0 14205
0.11550000 0.11549300 14137.91383227 0 -205.07647781 0 5352.62843487 0 725.86165463 0 1702.37807408 0 14776
0.11650000 0.11649800 14302.90211244 0 115.23256021 0 4838.02317858 0 -309.16189376 0 1496.70293707 0 14553
0.11750000 0.11747300 14084.63865525 0 513.67815836 0 5003.25311935 0 -237.78743650 0 1161.70642706 0 14568
0.11850000 0.11849100 13767.84358200 0 -15.33830792 0 5265.79538862 0 -123.74999779 0 768.68940467 0 16015
0.11950000 0.11950300 13479.93793465 0 29.18622904 0 4876.08472258 0 323.49236715 0 903.97649904 0 15270
0.12050000 0.12050700 13637.45670546 0 107.30027081 0 4788.08731163 0 499.80244628 0 193.25597925 0 15999
0.12150000 0.12150000 13463.57092150 0 194.53348504 0 4673.58412704 0 124.84955350 0 362.29756671 0 15670
0.12250000 0.12250700 13245.52715576 0 68.41323619 0 4625.51563742 0 353.53077933 0 360.44886314 0 16887
0.12350000 0.12352200 13373.38758061 0 -80.78933442 0 4116.89697319 0 -23.47534976 0 503.03191062 0 16407
0.12450000 0.12449800 13094.92866567 0 77.43189981 0 3926.44645377 0 147.65462464 0 113.47612705 0 16306
0.12550000 0.12549900 13042.20271728 0 178.58937794 0 4041.48788242 0 -128.74028911 0 389.14166518 0 17523
0.12650000 0.12650100 12946.96647300 0 237.25578318 0 4279.78720000 0 -368.93334700 0 132.11145444 0 17154
0.12750000 0.12750600 12680.04135927 0 149.90536356 0 4553.12730411 0 -440.68127973 0 -346.40508710 0 18007
0.12850000 0.12850300 12362.58721167 0 252.98239575 0 4852.91825900 0 25.06954077 0 -375.29451299 0 17496
0.12950000 0.12949900 12507.69341547 0 67.16352136 0 4504.31186356 0 527.23861322 0 283.42723712 0 18405
0.13050000 0.13049000 12358.74261127 0 -11.61772334 0 4593.94597582 0 639.09122044 0 -91.63374386 0 18100
0.13150000 0.13148800 12075.45048440 0 86.51789887 0 4039.23604504 0 123.84007128 0 213.25229518 0 19059
0.13250000 0.13249300 12151.46372666 0 223.17465959 0 4322.27552674 0 498.31843052 0 834.88793133 0 18957
0.13350000 0.13349100 11945.94237366 0 -138.28807960 0 3551.52102243 0 278.86314721 0 598.52739081 0 19468
0.13450000 0.13450700 11699.77810211 0 307.84813888 0 3690.69555703 0 -248.92249772 0 335.55782167 0 19953
0.13550000 0.13551000 11467.56423774 0 243.64880443 0 3625.68885650 0 -460.96099763 0 287.48164286 0 19956
0.13650000 0.13649900 11047.18464506 0 71.14268278 0 4269.60450121 0 -45.99767799 0 -316.48860367 0 19723
0.13750000 0.13749600 11190.42347152 0 36.17757995 0 3256.35457259 0 416.43722959 0 -653.24154684 0 20946
0.13850000 0.13851100 11370.35077040 0 -121.50145578 0 3160.89863686 0 620.21642937 0 -691.69304316 0 20955
0.13950000 0.13949800 11111.33454893 0 19.08086165 0 2579.36437983 0 109.59835324 0 -689.95967761 0 20506
0.14050000 0.14048300 11134.62184280 0 260.77924537 0 2580.28708393 0 -192.66171388 0 -634.78526799 0 21447
0.14150000 0.14148400 10619.92870993 0 355.66178641 0 2592.43602121 0 -139.79955679 0 -1215.70658587 0 21771
0.14250000 0.14249400 10555.89963636 0 -9.05850467 0 2728.54586006 0 282.94281746 0 -439.22033158 0 22470
0.14350000 0.14350900 10520.39749777 0 41.54464211 0 2639.19734668 0 453.80674551 0 -905.03321492 0 22519
0.14450000 0.14449900 10383.18920166 0 -145.58732808 0 2134.47820572 0 21.79965321 0 98.42693308 0 22218
0.14550000 0.14550500 10755.02796811 0 -7.64706399 0 2129.49120976 0 637.19528321 0 -714.62443688 0 23559
0.14650000 0.14650700 10551.24217758 0 117.45913307 0 2112.00377021 0 -248.43368424 0 330.08311070 0 23044
0.14750000 0.14750500 10251.05577808 0 218.65890180 0 2157.37005498 0 -399.85711573 0 266.81636646 0 23649
0.14850000 0.14849900 10272.27797231 0 129.05884172 0 2514.89592335 0 162.07626998 0 63.43865280 0 23640
0.14950000 0.14949500 10107.95975106 0 131.45347854 0 2655.01513120 0 -61.07598108 0 102.77111184 0 24457
0.15050000 0.15050000 10019.73166409 0 48.05311121 0 2602.39902854 0 215.89408489 0 837.96580857 0 24591
0.15150000 0.15149900 9892.23373014 0 53.13182835 0 3000.74356863 0 -149.20784320 0 350.44411443 0 25020
0.15250000 0.15250500 9700.64081517 0 255.26498993 0 2827.30815214 0 -204.64478410 0 160.66365395 0 25297
0.15350000 0.15350100 9607.89806887 0 321.28886189 0 2961.11123075 0 -47.58692595 0 408.56678333 0 25452
0.15450000 0.15450400 9517.36322165 0 -130.76913967 0 2980.33423277 0 208.72115899 0 251.90920301 0 26061
0.15550000 0.15549900 9556.96260581 0 -7.43541324 0 2880.16591540 0 240.81148933 0 231.16593615 0 26128
0.15650000 0.15649500 9164.17625945 0 227.88484432 0 2763.64156946 0 -156.47743334 0 101.82885521 0 26331
0.15750000 0.15749700 9007.26164012 0 292.99260292 0 3100.53841053 0 -320.90879568 0 351.34265247 0 27345
0.15850000 0.15849900 8706.04269080 0 220.57021743 0 3128.46119403 0 98.39397936 0 -65.42158784 0 26980
0.15950000 0.15949700 8632.38014706 0 -71.74925088 0 2924.96100239 0 188.57874825 0 239.87999757 0 27777
0.16050000 0.16050000 8672.22119182 0 29.93515720 0 2783.97401331 0 491.49042021 0 222.23328172 0 28224
0.16150000 0.16150500 8548.87542630 0 -76.46273097 0 2558.94405940 0 129.36970512 0 105.22890996 0 28075
0.16250000 0.16249700 8509.13324270 0 94.72161705 0 2365.28604480 0 140.19829677 0 566.93356315 0 28590
0.16350000 0.16349900 8524.63247461 0 145.28195696 0 2234.94310655 0 76.30751896 0 233.89230706 0 29163
0.16450000 0.16449100 8418.87300980 0 102.47584653 0 2530.99930676 0 -151.44320372 0 476.44704806 0 28996
0.16550000 0.16550500 8399.86969924 0 30.00754553 0 2248.72874513 0 180.83791995 0 55.14563004 0 30777
0.16650000 0.16650700 8310.72989274 0 -30.34707867 0 2382.57576204 0 168.17490468 0 449.43598408 0 29211
0.16750000 0.16749900 8373.52869419 0 77.50945089 0 2057.46536735 0 -157.41002355 0 -82.17679578 0 30922
0.16850000 0.16850800 8093.21338648 0 195.22771003 0 2134.82971204 0 -170.95839537 0 71.31261412 0 30867
0.16950000 0.16949900 7999.89944240 0 101.56852084 0 2365.73641227 0 33.98648726 0 223.25594543 0 30852
0.17050000 0.17049200 7871.66554209 0 45.27588173 0 2224.61760832 0 248.94776224 0 220.12863762 0 31257
0.17150000 0.17149500 7842.54544018 0 -16.98863011 0 2078.63263871 0 381.24375750 0 293.09695636 0 32608
0.17250000 0.17250900 7777.97812254 0 -25.50332155 0 1740.63734038 0 102.94752408 0 406.74444274 0 32361
0.17350000 0.17350400 7820.90583219 0 168.55936472 0 1672.58791324 0 237.64244014 0 567.89361480 0 32508
0.17450000 0.17449800 7667.72596754 0 124.17510075 0 1775.28268231 0 -182.01985996 0 582.47673336 0 32791
0.17550000 0.17549800 7565.87701057 0 85.41581670 0 1753.79685834 0 -16.23146352 0 680.49866524 0 33633
0.17650000 0.17650100 7585.33068861 0 -89.06247511 0 1894.39938738 0 247.59336444 0 614.70107548 0 33984
0.17750000 0.17750300 7652.16082820 0 -8.04158590 0 1559.93013685 0 145.94652360 0 498.10862519 0 34069
0.17850000 0.17849800 7529.71579763 0 106.01573489 0 1580.60310245 0 -63.07363545 0 441.96098244 0 34536
