### header ###
fiducial parameters:
Omega_m = 0.31
Omega_nu = 0
Omega_de = 0.69
Omega_k = 0
H_0 = 100
w_de = -1
zeff = 0
beta = 0
fgrowth = 0
b_1 = 2
gamma = 0.55
Lx = 3500 Ly = 3500 Lz = 3500
nx = 700 ny = 700 nz = 700
xoffset = -983.599254 yoffset = -42.9823471 zoffset = 800.977702
bins = 400 dk = 0.001
kx_ny = 0.628318531 ky_ny = 0.628318531 kz_ny = 0.628318531
############################
A(data) = 9.03838888 (not used)
A(ran) = 9.04660463 (used)
Ngal = 502420
weighted Ngal = 0
Nran = 25229228
weighted Nran = 0
SN(data) = 6715.38885
SN(ran) = 134.290613
SN(data+ran) = 6849.67946
############################
13 columns: k_central k_mean P_0(k) sigma^{lin}_{P_0(k)} P^img_1(k) sigma^{lin}_{P_1(k)} P_2(k) sigma^{lin}_{P_2(k)} P^img_3(k) sigma^{lin}_{P_3(k)} P_4(k) sigma^{lin}_{P_4(k)} N_modes
### header ###
0.00050000 0 0 0 0 0 0 0 0 0 0 0 0
0.00150000 0.00179520 33673.09740238 0 -21100.48516295 0 5552.24008782 0 -68986.41118261 0 -115589.55881622 0 3
0.00250000 0.00253879 36843.68443226 0 -7145.05803498 0 -33177.91287041 0 44553.97561856 0 55819.86310371 0 6
0.00350000 0.00331552 51769.30196434 0 -20474.58421727 0 -3264.66989404 0 -20909.90282867 0 8942.11214014 0 7
0.00450000 0.00420575 52359.83258631 0 -19509.69936172 0 -21747.36664227 0 -10016.32644659 0 -18398.93938230 0 24
0.00550000 0.00557378 53934.25137440 0 5803.10575643 0 -17587.50900571 0 -13013.20344567 0 3914.37440851 0 45
0.00650000 0.00659388 72182.81195805 0 -3697.78060635 0 -17616.28858588 0 -6475.86688875 0 25519.35902098 0 40
0.00750000 0.00754703 61287.98333470 0 -754.30950070 0 2457.66630020 0 2697.55838081 0 -11410.33461460 0 57
0.00850000 0.00846663 75229.60285494 0 1722.00750529 0 -9229.27083656 0 -16233.77028079 0 -11808.52537067 0 75
0.00950000 0.00948925 67737.35543439 0 -6315.33834505 0 8377.02178827 0 -6352.60899981 0 -5804.47882801 0 112
0.01050000 0.01054430 65587.45488876 0 4139.22860925 0 6665.37273492 0 -13580.11723659 0 -741.81564785 0 105
0.01150000 0.01145670 68688.50957420 0 6747.78998300 0 6958.50703883 0 -9062.62388593 0 -12284.59674635 0 144
0.01250000 0.01249090 61402.33273527 0 3743.11393739 0 18466.05512077 0 7619.82224652 0 3048.84501196 0 169
0.01350000 0.01339930 63519.82879178 0 1587.50141403 0 32253.01185907 0 -4046.67260068 0 -8191.49235737 0 180
0.01450000 0.01448870 61912.34644022 0 1778.17162490 0 30604.33736033 0 4274.15211426 0 -2198.55121758 0 267
0.01550000 0.01550050 64079.49276480 0 -2990.05557950 0 22625.91275732 0 10740.57227059 0 992.13977703 0 238
0.01650000 0.01653350 63993.26387003 0 -3367.22186366 0 21889.83654865 0 7013.10036456 0 -7152.90101980 0 315
0.01750000 0.01747870 69728.30921475 0 -1888.84119365 0 21251.52303595 0 -6304.71626336 0 4379.47219617 0 297
0.01850000 0.01844180 68134.88711610 0 6495.06792162 0 34934.78540907 0 -8554.03817541 0 -7898.67660607 0 388
0.01950000 0.01947590 66190.50792348 0 1587.50141403 0 32001.24545550 0 -760.22579150 0 -969.04471318 0 399
0.02050000 0.02045430 72131.40415837 0 -1655.19933485 0 38847.05077965 0 4209.22230574 0 -16229.26660603 0 462
0.02150000 0.02154770 73530.39932233 0 -1586.31508019 0 42453.28595810 0 -1719.00871697 0 -7486.63430397 0 571
0.02250000 0.02255340 68916.43945527 0 654.74094100 0 40214.19068312 0 1656.57240642 0 -7409.10519069 0 510
0.02350000 0.02348930 67691.22022954 0 2433.47827138 0 36517.00324369 0 3152.84694516 0 -3400.62594888 0 555
0.02450000 0.02439640 68865.58088422 0 6302.57427171 0 49786.25707623 0 4269.54957835 0 5457.57504131 0 592
0.02550000 0.02547300 66416.35073575 0 49.94575307 0 41673.38130483 0 6025.37858262 0 -1239.43326264 0 837
0.02650000 0.02652900 62928.96863263 0 3119.98110400 0 47435.66838955 0 8482.04528672 0 8386.82002701 0 723
0.02750000 0.02749970 59842.52342872 0 1640.99628250 0 34947.63735900 0 6380.85033592 0 13561.44346320 0 826
0.02850000 0.02848090 59207.17575062 0 1369.84210833 0 39379.91239557 0 5392.48046420 0 12409.16179942 0 831
0.02950000 0.02946900 57929.77980513 0 1081.08625505 0 33850.49824957 0 -729.19327550 0 9388.23957096 0 996
0.03050000 0.03053250 57568.71690438 0 249.89243548 0 35013.76448593 0 4295.74778396 0 12406.30581055 0 1041
0.03150000 0.03150510 53431.48748735 0 1557.61239203 0 27942.77542387 0 5745.42576581 0 9519.38438301 0 1036
0.03250000 0.03246190 52806.90469037 0 2438.57511306 0 36770.30748742 0 1373.11551096 0 15843.26872552 0 1059
0.03350000 0.03345080 51450.74935948 0 506.57773065 0 26490.06569999 0 7081.49031345 0 7465.73066235 0 1302
0.03450000 0.03451200 53893.82814730 0 -345.25390389 0 29726.56016536 0 1740.24189577 0 7557.01246050 0 1339
0.03550000 0.03553350 51556.64063916 0 1845.36425538 0 26759.73695686 0 544.57885949 0 13853.96263104 0 1365
0.03650000 0.03647120 48954.50524037 0 479.18550200 0 27631.36279119 0 -161.68302228 0 9813.48532930 0 1308
0.03750000 0.03744890 49702.00540453 0 -565.29576338 0 28744.97875949 0 3605.87268756 0 7983.10403093 0 1579
0.03850000 0.03847530 48554.44710696 0 2086.33282409 0 26029.59241738 0 549.94152783 0 5629.12111132 0 1662
0.03950000 0.03950240 46791.75274483 0 2848.47542350 0 29711.18176374 0 -988.91580498 0 7382.02821928 0 1683
0.04050000 0.04050350 45597.07063088 0 -57.89902300 0 29677.01974301 0 2272.79594366 0 11455.26151645 0 1822
0.04150000 0.04152450 47402.05559745 0 -2165.12516322 0 28017.36067170 0 7873.19239768 0 7399.68042741 0 1887
0.04250000 0.04250150 48776.77485600 0 -463.69615621 0 24674.09616084 0 2230.72503067 0 6512.82997549 0 1920
0.04350000 0.04349210 44909.10685011 0 2458.34734370 0 25271.76675499 0 -4039.43376735 0 12121.36599779 0 2005
0.04450000 0.04448520 44233.55563636 0 3030.47880660 0 26160.74821400 0 2991.08812933 0 8781.31996670 0 2151
0.04550000 0.04548030 42919.14168128 0 377.01799242 0 27374.54348424 0 -2504.72420914 0 7523.94889703 0 2274
0.04650000 0.04648670 41539.58921078 0 1822.35157582 0 27312.15111198 0 4589.79380739 0 5838.23441955 0 2311
0.04750000 0.04749250 39622.34191244 0 225.87796290 0 25403.80131742 0 962.48692335 0 6357.70584149 0 2568
0.04850000 0.04851840 37908.96828120 0 84.46499210 0 23741.17641151 0 3484.30642280 0 5798.54715881 0 2493
0.04950000 0.04949480 38587.59517527 0 1103.41130037 0 22792.21918621 0 3962.76145073 0 6446.57103368 0 2644
0.05050000 0.05050630 36815.56392645 0 -1055.60973587 0 19533.97526713 0 736.41673043 0 7150.22078409 0 2829
0.05150000 0.05149060 38008.15897161 0 801.61675944 0 18320.61937979 0 2009.37490859 0 3411.52264488 0 2784
0.05250000 0.05249300 35804.10448316 0 969.11391599 0 16907.56396293 0 639.17909702 0 3794.52173707 0 3055
0.05350000 0.05348950 35102.30014094 0 1157.85084208 0 16369.21006072 0 41.08702482 0 5381.58376820 0 3009
0.05450000 0.05448610 35642.74111194 0 -489.38357919 0 14479.75373100 0 4122.35630576 0 3249.59906046 0 3336
0.05550000 0.05550870 36348.60974602 0 -2831.38342857 0 12328.31534522 0 5240.73957856 0 4555.87344726 0 3349
0.05650000 0.05647670 36707.36588653 0 23.48314880 0 6898.52028796 0 2298.29113662 0 2695.77888005 0 3324
0.05750000 0.05747970 36513.26848901 0 2249.20108176 0 8942.51856933 0 -3378.03068308 0 4004.90925572 0 3639
0.05850000 0.05849280 34696.09064688 0 1092.44979539 0 8956.02959360 0 -500.39451474 0 4277.68914663 0 3846
0.05950000 0.05951020 34167.40316854 0 496.87945152 0 9456.20112152 0 899.90781335 0 2107.33532687 0 3787
0.06050000 0.06049470 31588.99444652 0 805.00220471 0 11353.21483717 0 -1158.94929934 0 2331.67325270 0 3930
0.06150000 0.06148310 32091.97802502 0 530.85693142 0 10521.75958477 0 1025.58999746 0 1829.94191547 0 4083
0.06250000 0.06249100 31030.31908504 0 42.80808765 0 9646.98117811 0 1349.23505017 0 3740.92800745 0 4303
0.06350000 0.06350600 31656.22003072 0 29.47545284 0 10933.04395136 0 -1579.29593831 0 1408.29909694 0 4470
0.06450000 0.06451750 29289.70371380 0 1807.70914057 0 11236.11929346 0 -918.88036712 0 679.59573338 0 4479
0.06550000 0.06550280 29726.12078245 0 1497.50481087 0 13783.88105797 0 -1711.33050074 0 975.72882560 0 4636
0.06650000 0.06648880 27922.12442742 0 -606.82953077 0 13497.18371360 0 1030.94827196 0 1334.47178462 0 4653
0.06750000 0.06749660 28754.64518336 0 -278.44902882 0 13451.04850876 0 1883.09626219 0 973.58024320 0 5220
0.06850000 0.06852730 28310.20937672 0 518.18073467 0 12732.10823331 0 -548.69807421 0 -223.43169859 0 5029
0.06950000 0.06949320 28209.59069187 0 47.20356437 0 13328.35083302 0 532.33655335 0 3376.20724403 0 5040
0.07050000 0.07048030 28102.60095493 0 -32.36615296 0 12050.62535036 0 2007.49654668 0 1701.49930828 0 5475
0.07150000 0.07148790 28576.58526182 0 88.53411717 0 11366.61601572 0 688.74478388 0 2657.04727713 0 5509
0.07250000 0.07249820 27980.12297065 0 579.01769145 0 11631.78359784 0 483.25089231 0 2427.76629364 0 5916
0.07350000 0.07351270 28167.30008744 0 26.96086448 0 11002.47743465 0 894.00140868 0 4246.77855939 0 5721
0.07450000 0.07449140 27217.46409633 0 71.57723247 0 10989.18610183 0 1439.09983845 0 2355.80635866 0 6028
0.07550000 0.07549160 27307.75728295 0 901.46652420 0 10893.45555178 0 -949.48997707 0 2750.52598980 0 6183
0.07650000 0.07648840 26193.92162320 0 425.53135723 0 10508.03985362 0 -448.02117113 0 1948.09197816 0 6330
0.07750000 0.07749960 25895.80032334 0 -107.21810621 0 11384.96025193 0 492.96125448 0 460.54907616 0 6583
0.07850000 0.07848650 24806.35041472 0 560.53175425 0 10920.85107580 0 64.61268392 0 1948.99271311 0 6549
0.07950000 0.07947320 24609.61671979 0 236.29573154 0 9127.82830877 0 1397.53421581 0 755.01251335 0 6828
0.08050000 0.08048110 24503.72544011 0 294.06359875 0 8617.81460382 0 2311.93397577 0 2216.62083948 0 7147
0.08150000 0.08149960 24907.84786537 0 224.71579513 0 8846.05205292 0 399.47595107 0 920.30177081 0 7386
0.08250000 0.08250610 23171.84601462 0 735.13153543 0 7501.83695242 0 -639.21973994 0 2274.92695074 0 7227
0.08350000 0.08350160 22672.48734507 0 436.03700245 0 8830.15737639 0 -382.31914715 0 1753.11581484 0 7798
0.08450000 0.08449610 21822.61096445 0 324.63036887 0 9201.54577537 0 -137.99479151 0 1708.86995648 0 7371
0.08550000 0.08548940 21309.85111635 0 581.39585141 0 8608.95005375 0 134.43578999 0 1066.38450311 0 8256
0.08650000 0.08650700 21708.26156388 0 29.94592208 0 9047.28942261 0 870.81077904 0 679.47380462 0 8037
0.08750000 0.08749060 20897.16072447 0 11.70713777 0 7812.85414049 0 122.06716127 0 1614.36967856 0 8155
0.08850000 0.08849210 21175.50979368 0 -331.15300807 0 7475.04557989 0 1925.79329582 0 960.95677239 0 8718
0.08950000 0.08949900 21067.86098239 0 432.45713024 0 5912.01779358 0 933.02300432 0 1450.58970137 0 8571
0.09050000 0.09049190 20871.89620754 0 508.60987658 0 5856.99606952 0 -763.79687604 0 -161.59844107 0 8932
0.09150000 0.09150830 19711.26626859 0 774.78584245 0 6007.33092987 0 -334.06611672 0 1132.84995489 0 9285
0.09250000 0.09250820 19342.62401276 0 5.10884782 0 6229.75754007 0 416.07583715 0 958.47865282 0 9204
0.09350000 0.09350330 18534.92839086 0 163.33070817 0 5869.17796051 0 555.58210585 0 506.22512587 0 9349
0.09450000 0.09448040 18229.99665600 0 469.52347196 0 5687.55903745 0 -15.50845895 0 476.37784525 0 9564
0.09550000 0.09549270 17830.48775121 0 630.40132507 0 6213.50037264 0 -689.62135277 0 -821.80640384 0 10155
0.09650000 0.09649430 17162.95527545 0 393.69367206 0 6210.56749177 0 -817.84866234 0 -306.44321205 0 9913
0.09750000 0.09749140 16697.64878090 0 494.10145311 0 7466.66435101 0 -110.74865768 0 -395.46108979 0 10476
0.09850000 0.09850240 16465.43491653 0 190.56695588 0 7522.33416486 0 21.81261500 0 -701.12879101 0 10575
0.09950000 0.09950330 16442.91654274 0 -75.74620730 0 7420.59505361 0 571.71734451 0 -1250.01140604 0 10882
0.10050000 0.10051200 16225.53185135 0 -114.45924630 0 6831.32765748 0 759.78970396 0 -451.56149887 0 10875
0.10150000 0.10150300 15977.17066529 0 11.05037017 0 6179.78871939 0 647.59657499 0 450.64648398 0 11118
0.10250000 0.10250800 16252.22436273 0 274.35288171 0 6024.68655454 0 1032.31475279 0 593.80622152 0 11575
0.10350000 0.10349800 16002.32533650 0 278.02392586 0 6460.64227115 0 -471.01737383 0 297.24473097 0 11364
0.10450000 0.10450100 15547.12464873 0 435.81950791 0 5839.36583052 0 -360.97172880 0 551.92424318 0 12093
0.10550000 0.10551000 14995.36956797 0 69.78378131 0 6853.05514205 0 -183.71038568 0 859.52962300 0 12067
0.10650000 0.10649700 15129.71089064 0 284.55974655 0 6991.14220397 0 -174.81837417 0 51.05464567 0 12054
0.10750000 0.10749900 14690.87721601 0 76.69692206 0 6900.32175787 0 147.28114917 0 328.75727279 0 12807
0.10850000 0.10850100 14987.13113853 0 -244.63082522 0 6528.41708398 0 290.77921154 0 459.17051230 0 12736
0.10950000 0.10950300 15080.17046830 0 -193.76786033 0 6159.31347610 0 880.69469745 0 261.78213684 0 12933
0.11050000 0.11050200 15496.81530631 0 100.07044483 0 6063.08862029 0 98.37750250 0 -627.27072189 0 13428
0.11150000 0.11150900 14902.65977538 0 230.39481915 0 5445.60185720 0 151.48164973 0 204.21528732 0 13453
0.11250000 0.11250000 15141.79392048 0 -54.65044551 0 5307.55873357 0 365.33150565 0 1478.23787056 0 13668
0.11350000 0.11349100 14912.87542788 0 -121.41357920 0 5538.02605090 0 322.79704370 0 -286.72700272 0 13791
0.11450000 0.11448600 15024.03930241 0 603.43090401 0 5467.57100236 0 -511.21871256 0 128.90725461 0 14205
0.11550000 0.11549300 14452.18245382 0 492.29119555 0 5291.13679756 0 -547.69628119 0 -109.15864080 0 14776
0.11650000 0.11649800 13843.63713282 0 -70.05477071 0 6117.42930085 0 604.64140391 0 426.18603775 0 14553
0.11750000 0.11747300 13997.20145750 0 -13.94513458 0 5805.22577894 0 558.53036513 0 -252.21896795 0 14568
0.11850000 0.11849100 13641.19146014 0 249.38275131 0 5789.78146989 0 -127.07722482 0 832.69760756 0 16015
0.11950000 0.11950300 13488.50590126 0 173.51340695 0 5402.34461038 0 750.25179959 0 1313.54617385 0 15270
0.12050000 0.12050700 13719.84099982 0 -16.46873029 0 5476.82001248 0 304.87791045 0 1002.44001074 0 15999
0.12150000 0.12150000 13442.70023360 0 235.78824429 0 5238.03737370 0 -7.05709358 0 1022.17818921 0 15670
0.12250000 0.12250700 13359.98640206 0 68.74387182 0 5227.65695261 0 183.57088161 0 1287.51273683 0 16887
0.12350000 0.12352200 12818.55681952 0 -72.64647077 0 5079.20045418 0 410.94274638 0 1802.57934517 0 16407
0.12450000 0.12449800 13297.04480117 0 184.89781798 0 5011.09610417 0 225.91311354 0 1104.52074220 0 16306
0.12550000 0.12549900 12937.51974058 0 195.07502447 0 4467.91997460 0 -18.24636367 0 1061.09872679 0 17523
0.12650000 0.12650100 12849.42346848 0 47.01770540 0 4568.68145889 0 387.41379191 0 1113.91255176 0 17154
0.12750000 0.12750600 12635.44399459 0 -197.67067897 0 4014.24614242 0 34.29482421 0 935.40995194 0 18007
0.12850000 0.12850300 12878.42274009 0 235.04349027 0 4263.80464689 0 -310.39326435 0 -13.12063257 0 17496
0.12950000 0.12949900 12489.23933354 0 239.93052661 0 4230.04905535 0 83.77241480 0 580.95207468 0 18405
0.13050000 0.13049000 12272.95309941 0 -107.19965212 0 3759.60178084 0 519.51865561 0 111.60215897 0 18100
0.13150000 0.13148800 12453.75916410 0 39.73844884 0 3510.65841242 0 361.09475601 0 36.19713249 0 19059
0.13250000 0.13249300 12319.41784143 0 217.45389419 0 3667.26546372 0 343.03941406 0 395.88509429 0 18957
0.13350000 0.13349100 12039.86046923 0 211.77377171 0 3233.38583133 0 62.00220024 0 1055.21099588 0 19468
0.13450000 0.13450700 12003.94091689 0 116.89782141 0 3389.19100882 0 -130.53846364 0 688.09559564 0 19953
0.13550000 0.13551000 11829.17636712 0 12.60919087 0 2992.47218547 0 241.31568121 0 991.70259105 0 19956
0.13650000 0.13649900 11643.42724477 0 90.33514769 0 3550.62028748 0 62.66632750 0 673.05551886 0 19723
0.13750000 0.13749600 11462.95071726 0 237.10968837 0 3586.48491695 0 -713.74567108 0 638.66721594 0 20946
0.13850000 0.13851100 11209.64647353 0 387.18201743 0 4035.18273776 0 -281.15562751 0 403.50399383 0 20955
0.13950000 0.13949800 10818.72750451 0 115.55111281 0 3880.87146213 0 45.70296191 0 837.25290981 0 20506
0.14050000 0.14048300 10953.51919466 0 -95.24810762 0 4080.97742085 0 600.34204220 0 -137.70040497 0 21447
0.14150000 0.14148400 10964.11930720 0 27.57885653 0 3476.95774375 0 408.21088318 0 536.25255348 0 21771
0.14250000 0.14249400 10902.41896301 0 57.68394507 0 3507.58273210 0 87.42269811 0 -64.20515628 0 22470
0.14350000 0.14350900 10456.80780710 0 341.65316100 0 3474.67295265 0 -469.22249467 0 305.59190767 0 22519
0.14450000 0.14449900 10252.82429426 0 354.41393897 0 4076.96805186 0 -124.55297004 0 342.55389595 0 22218
0.14550000 0.14550500 10152.97452950 0 -70.21778177 0 3799.83827020 0 31.50529200 0 353.65820037 0 23559
0.14650000 0.14650700 10051.79563145 0 -115.80485644 0 3152.23180910 0 1253.36170068 0 412.80243452 0 23044
0.14750000 0.14750500 10273.15673811 0 -62.27329950 0 3050.91011161 0 106.20335139 0 491.08069565 0 23649
0.14850000 0.14849900 10195.24316479 0 124.84845505 0 2750.20743719 0 31.99190857 0 808.84350974 0 23640
0.14950000 0.14949500 10051.64184744 0 155.13731548 0 2878.21066148 0 173.35632756 0 841.84226423 0 24457
0.15050000 0.15050000 9962.93043927 0 58.87104783 0 2681.69665800 0 -62.08084978 0 638.97368551 0 24591
0.15150000 0.15149900 9871.45091881 0 42.00456617 0 2791.39958437 0 -195.54955801 0 345.40658945 0 25020
0.15250000 0.15250500 9808.01501216 0 275.49857263 0 3194.78604328 0 -270.49509982 0 303.76187788 0 25297
0.15350000 0.15350100 9554.85356787 0 76.23875554 0 3056.01793786 0 -195.86701216 0 267.73577518 0 25452
0.15450000 0.15450400 9541.75995736 0 -148.78383870 0 3049.17454914 0 446.75794528 0 1.86913487 0 26061
0.15550000 0.15549900 9648.07963537 0 34.66050063 0 2667.47163651 0 46.84239162 0 -374.47616233 0 26128
0.15650000 0.15649500 9393.64398067 0 355.75076145 0 2916.86537240 0 -111.35500609 0 -8.16498658 0 26331
0.15750000 0.15749700 9263.92716306 0 224.82124702 0 3121.88143505 0 -220.26594477 0 -52.19770030 0 27345
0.15850000 0.15849900 9058.66943980 0 -54.58783344 0 3013.03530534 0 448.67035937 0 271.93407882 0 26980
0.15950000 0.15949700 9149.29216360 0 -124.80122138 0 2599.90553056 0 319.15895327 0 -124.12017788 0 27777
0.16050000 0.16050000 9123.92878551 0 1.74357022 0 2500.70385558 0 149.14413268 0 92.98638412 0 28224
0.16150000 0.16150500 9041.40169170 0 218.13054386 0 2240.29259339 0 -28.13072146 0 48.06233826 0 28075
0.16250000 0.16249700 8981.25017225 0 34.24440502 0 2373.67825825 0 -70.46790049 0 -8.97838320 0 28590
0.16350000 0.16349900 8742.72017864 0 265.63662336 0 2555.89034823 0 -116.85608003 0 -235.35545213 0 29163
0.16450000 0.16449100 8658.58933724 0 47.76542526 0 2627.64157633 0 -69.17962981 0 -0.12183099 0 28996
0.16550000 0.16550500 8436.85475512 0 88.15020635 0 2586.01004624 0 262.18966449 0 -150.51830271 0 30777
0.16650000 0.16650700 8488.74587599 0 10.74611948 0 2507.19573797 0 114.90302303 0 182.38344931 0 29211
0.16750000 0.16749900 8423.23388512 0 154.25305739 0 2424.81144361 0 162.16304810 0 61.71451429 0 30922
0.16850000 0.16850800 8326.28404751 0 -38.22675197 0 2158.88592599 0 146.29473455 0 288.02537920 0 30867
0.16950000 0.16949900 8293.41820635 0 12.02909559 0 2099.00902085 0 329.30869833 0 394.72182805 0 30852
0.17050000 0.17049200 8355.76664032 0 89.80250576 0 2018.10764379 0 -62.50869889 0 488.11376260 0 31257
0.17150000 0.17149500 8040.63023754 0 206.75601896 0 2391.12175951 0 -117.59863714 0 351.82048138 0 32608
0.17250000 0.17250900 7984.46611793 0 53.33932692 0 2182.22814273 0 -142.11510469 0 219.60687042 0 32361
0.17350000 0.17350400 7805.91189062 0 103.54695220 0 2198.94666220 0 193.69316524 0 767.33171150 0 32508
0.17450000 0.17449800 7729.67895690 0 -63.28794446 0 1973.47732539 0 250.55480521 0 550.39519068 0 32791
0.17550000 0.17549800 7909.47444091 0 37.50616400 0 1990.43750546 0 429.04422354 0 712.81527778 0 33633
0.17650000 0.17650100 7891.45974188 0 50.37140526 0 1731.70688288 0 74.08599900 0 552.27684796 0 33984
0.17750000 0.17750300 7742.54189140 0 112.03055730 0 1773.28349010 0 -237.56005584 0 790.09174589 0 34069
0.17850000 0.17849800 7576.52106140 0 60.82267684 0 1607.78991959 0 -47.11887332 0 520.81044134 0 34536
