### header ###
fiducial parameters:
Omega_m = 0.31
Omega_nu = 0
Omega_de = 0.69
Omega_k = 0
H_0 = 100
w_de = -1
zeff = 0
beta = 0
fgrowth = 0
b_1 = 2
gamma = 0.55
Lx = 3500 Ly = 3500 Lz = 3500
nx = 700 ny = 700 nz = 700
xoffset = -983.599254 yoffset = -42.9823471 zoffset = 800.977702
bins = 400 dk = 0.001
kx_ny = 0.628318531 ky_ny = 0.628318531 kz_ny = 0.628318531
############################
A(data) = 9.03953462 (not used)
A(ran) = 9.03227522 (used)
Ngal = 501746
weighted Ngal = 0
Nran = 25229228
weighted Nran = 0
SN(data) = 6738.62317
SN(ran) = 134.077903
SN(data+ran) = 6872.70107
############################
13 columns: k_central k_mean P_0(k) sigma^{lin}_{P_0(k)} P^img_1(k) sigma^{lin}_{P_1(k)} P_2(k) sigma^{lin}_{P_2(k)} P^img_3(k) sigma^{lin}_{P_3(k)} P_4(k) sigma^{lin}_{P_4(k)} N_modes
### header ###
0.00050000 0 0 0 0 0 0 0 0 0 0 0 0
0.00150000 0.00179520 44928.11016068 0 -19654.47602835 0 3507.72553155 0 -27975.61929589 0 -32346.82010891 0 3
0.00250000 0.00253879 70643.54380223 0 -22274.40643472 0 -31182.12587811 0 -34798.57670907 0 -23714.70359159 0 6
0.00350000 0.00331552 52287.22456155 0 2024.22605072 0 2688.45217014 0 -35901.42779623 0 19126.66731581 0 7
0.00450000 0.00420575 35639.99496880 0 11857.84610156 0 7738.89501330 0 -2024.67641819 0 26181.83859336 0 24
0.00550000 0.00557378 43066.33495387 0 -3469.60906469 0 18198.69062414 0 12667.51894653 0 227.58716240 0 45
0.00650000 0.00659388 34548.12845421 0 -5904.53729965 0 -8882.45492645 0 29228.51964452 0 3024.53615284 0 40
0.00750000 0.00754703 64411.22685675 0 -9219.25290637 0 -537.86289182 0 -5273.25391340 0 -11199.21112958 0 57
0.00850000 0.00846663 55254.04777004 0 -10477.37092697 0 -16868.34903881 0 -7413.40015857 0 -3830.11175224 0 75
0.00950000 0.00948925 69018.26644310 0 9962.21644205 0 13837.59561790 0 -16178.29818925 0 7563.61418862 0 112
0.01050000 0.01054430 62912.27208230 0 2438.33345246 0 2634.64973364 0 -15022.28177079 0 -1656.48452984 0 105
0.01150000 0.01145670 61192.74709042 0 -4381.65812612 0 12504.83742660 0 25097.99081676 0 5760.21100050 0 144
0.01250000 0.01249090 67323.56658525 0 -3339.90323165 0 7588.87870555 0 9422.87392831 0 11138.35659748 0 169
0.01350000 0.01339930 76211.51379799 0 -2035.45228390 0 8277.55648354 0 -752.86502941 0 -3676.56939669 0 180
0.01450000 0.01448870 79212.71871866 0 -3046.58219001 0 11086.83895208 0 -16270.45875321 0 -11812.26012535 0 267
0.01550000 0.01550050 77004.38024691 0 6570.90541072 0 16686.88389977 0 -13815.95600991 0 12441.45644281 0 238
0.01650000 0.01653350 72029.24763337 0 493.93888144 0 24518.22507591 0 -5843.91344357 0 -7127.66945658 0 315
0.01750000 0.01747870 78459.17703958 0 3148.85954531 0 38128.54988710 0 4305.24943924 0 -18097.85224784 0 297
0.01850000 0.01844180 77975.19677165 0 3544.28218910 0 38648.99893600 0 3825.46527803 0 -8120.11460473 0 388
0.01950000 0.01947590 77822.73090422 0 -6283.25240854 0 42130.00998703 0 2870.79607499 0 5299.26538127 0 399
0.02050000 0.02045430 76635.29860818 0 849.51169281 0 37484.41455093 0 10393.47076160 0 -8145.32419881 0 462
0.02150000 0.02154770 80422.55954277 0 2556.17594711 0 37430.80983673 0 -1704.00379083 0 -1078.04352845 0 571
0.02250000 0.02255340 80716.61655077 0 4935.45633738 0 42464.38037641 0 855.97391686 0 3025.74445582 0 510
0.02350000 0.02348930 70521.61504658 0 3685.98317540 0 48485.13445397 0 -2896.74163543 0 -4171.49029892 0 555
0.02450000 0.02439640 67746.47262963 0 2144.40825933 0 49623.02632767 0 5917.31235756 0 6838.73125940 0 592
0.02550000 0.02547300 68241.21777869 0 1884.00798172 0 40865.35614574 0 4786.56045604 0 -10602.59505440 0 837
0.02650000 0.02652900 65684.44866466 0 128.49862851 0 43513.51690365 0 1558.46918870 0 334.46485670 0 723
0.02750000 0.02749970 61446.49071705 0 1055.73935382 0 33652.77594311 0 11620.46948808 0 -5210.82858742 0 826
0.02850000 0.02848090 67452.74515880 0 -4862.44188343 0 25745.31167897 0 11669.02129889 0 2730.01779279 0 831
0.02950000 0.02946900 65925.56003282 0 205.39393195 0 16461.70016185 0 5685.38409208 0 -7992.03448844 0 996
0.03050000 0.03053250 65285.81852568 0 3929.23653521 0 18072.03850228 0 -3001.10605952 0 1031.25803691 0 1041
0.03150000 0.03150510 61161.55090429 0 172.67089024 0 10958.95655808 0 4632.76545533 0 7682.43431023 0 1036
0.03250000 0.03246190 59665.01273581 0 2616.15171341 0 16560.56131508 0 3186.31693782 0 -4141.73309180 0 1059
0.03350000 0.03345080 57663.84330294 0 1485.53162676 0 10520.02402231 0 -3314.02357865 0 1841.86017672 0 1302
0.03450000 0.03451200 54607.71551936 0 2270.35736855 0 11916.28402769 0 -2698.71176093 0 -11494.03705767 0 1339
0.03550000 0.03553350 48323.88092847 0 1887.52304494 0 19114.14490307 0 -46.91763595 0 -2364.20955668 0 1365
0.03650000 0.03647120 49975.41141608 0 3488.74419012 0 18028.10021195 0 -2151.29558634 0 -6593.89612114 0 1308
0.03750000 0.03744890 46676.74426990 0 -2182.68949478 0 12339.08022635 0 4568.39586000 0 -4659.45796670 0 1579
0.03850000 0.03847530 50442.36559651 0 539.49519930 0 16396.89118362 0 -193.27904686 0 -13651.73664982 0 1662
0.03950000 0.03950240 47486.08757770 0 1988.11976064 0 12554.59754039 0 -481.17151272 0 -5618.75167480 0 1683
0.04050000 0.04050350 45126.71123295 0 -579.15280169 0 17390.44577361 0 -640.29512960 0 -4285.58705432 0 1822
0.04150000 0.04152450 45162.96032247 0 2715.63898728 0 16734.11756187 0 -2957.24466120 0 -10487.42181088 0 1887
0.04250000 0.04250150 41947.99561936 0 2170.70532609 0 18781.31235385 0 1147.56928215 0 -1635.42710420 0 1920
0.04350000 0.04349210 42666.71620336 0 29.94680085 0 17911.22435969 0 1763.48525135 0 -5380.77090983 0 2005
0.04450000 0.04448520 42270.72236180 0 -606.87676443 0 18386.41696956 0 5240.68465570 0 1540.27873650 0 2151
0.04550000 0.04548030 41797.17743782 0 828.25764332 0 16420.50801467 0 1654.73798280 0 -723.22316030 0 2274
0.04650000 0.04648670 40538.78480290 0 900.20219990 0 16059.22542247 0 880.89791205 0 6883.21877836 0 2311
0.04750000 0.04749250 40207.49009385 0 -264.97535209 0 14707.57376634 0 3929.04979748 0 7427.15284344 0 2568
0.04850000 0.04851840 39874.65754463 0 -100.87934875 0 14689.11968440 0 3710.01742020 0 6510.45730781 0 2493
0.04950000 0.04949480 41030.89365454 0 1551.58186169 0 16852.09187139 0 -3543.19471641 0 6992.59216755 0 2644
0.05050000 0.05050630 37690.70482401 0 2159.09463287 0 15290.30534178 0 -1263.76409091 0 7097.13234481 0 2829
0.05150000 0.05149060 36413.30887852 0 62.51122534 0 18120.81000454 0 47.97599951 0 11522.48710065 0 2784
0.05250000 0.05249300 35662.40349686 0 -302.44922145 0 19333.39697179 0 960.83264672 0 6163.67435142 0 3055
0.05350000 0.05348950 35580.01920250 0 1486.24562397 0 19124.03101839 0 1307.85616525 0 7982.95024691 0 3009
0.05450000 0.05448610 35615.60921767 0 386.39332512 0 17527.31354797 0 809.74534315 0 4459.08837824 0 3336
0.05550000 0.05550870 35340.77521168 0 -1012.81603800 0 18913.45676201 0 1558.34835840 0 6548.37605236 0 3349
0.05650000 0.05647670 36208.66629133 0 103.54091069 0 16880.54191438 0 -197.72779875 0 2526.64941602 0 3324
0.05750000 0.05747970 35210.05879796 0 633.74942279 0 14982.73730950 0 1677.34423317 0 4262.82701993 0 3639
0.05850000 0.05849280 35296.72707563 0 -406.33361973 0 15647.63348785 0 1575.45133791 0 3263.16500759 0 3846
0.05950000 0.05951020 35073.30086933 0 1220.52881323 0 14048.71910291 0 278.19308828 0 1591.47782930 0 3787
0.06050000 0.06049470 33942.10958490 0 1371.07238046 0 15135.20317693 0 -1401.82918369 0 445.47824258 0 3930
0.06150000 0.06148310 33102.11931960 0 1045.58851030 0 16113.81874820 0 -2025.91767489 0 -393.23232001 0 4083
0.06250000 0.06249100 31077.11336423 0 451.42638863 0 17102.97950915 0 -538.17045985 0 -1103.33440836 0 4303
0.06350000 0.06350600 29964.37616174 0 608.24654063 0 17170.20509335 0 1469.38430506 0 100.55673186 0 4470
0.06450000 0.06451750 30939.58651551 0 -379.33354032 0 15686.18933761 0 2944.32680385 0 1351.37704182 0 4479
0.06550000 0.06550280 30903.44727172 0 -1107.62937624 0 14153.95130824 0 4484.19911116 0 1118.64690254 0 4636
0.06650000 0.06648880 31707.51798468 0 -230.61121523 0 10519.26608680 0 708.91026222 0 933.61067895 0 4653
0.06750000 0.06749660 30722.86089848 0 1627.77085711 0 13190.60429285 0 -541.66245547 0 1863.64258415 0 5220
0.06850000 0.06852730 29543.88672333 0 915.81457291 0 12981.01864800 0 -1519.04555770 0 1780.80792231 0 5029
0.06950000 0.06949320 28572.08158706 0 -130.61206028 0 13298.58264133 0 529.82328314 0 2648.03992761 0 5040
0.07050000 0.07048030 28350.96214100 0 1125.94065873 0 12958.28058276 0 757.48074681 0 129.34883443 0 5475
0.07150000 0.07148790 27493.50640530 0 194.85643148 0 11601.13664033 0 846.57661502 0 1834.56642053 0 5509
0.07250000 0.07249820 27358.50600827 0 -219.30149930 0 12251.20364570 0 2047.05199254 0 351.66559891 0 5916
0.07350000 0.07351270 27788.99140773 0 -52.57282345 0 11040.92343869 0 556.35212439 0 1646.12607789 0 5721
0.07450000 0.07449140 26647.14508790 0 387.93995294 0 10180.91928215 0 -203.73526150 0 1757.83918105 0 6028
0.07550000 0.07549160 26006.74450641 0 926.69808742 0 10350.05973075 0 -90.30911425 0 1866.09214384 0 6183
0.07650000 0.07648840 25488.71206347 0 334.97454087 0 9571.51716448 0 526.59931109 0 1592.49939455 0 6330
0.07750000 0.07749960 25570.43728348 0 32.60561664 0 11653.42320582 0 290.94947242 0 1483.07108250 0 6583
0.07850000 0.07848650 24488.56672994 0 855.78608067 0 9634.52467281 0 -5.88895019 0 1171.06528290 0 6549
0.07950000 0.07947320 24201.43000267 0 171.35493844 0 11127.15233345 0 597.05985192 0 2112.13558509 0 6828
0.08050000 0.08048110 24118.49647968 0 349.15782099 0 10711.00180120 0 -482.43364011 0 2384.22344793 0 7147
0.08150000 0.08149960 23423.39272673 0 306.61786675 0 10641.01908929 0 633.78677034 0 1556.76657995 0 7386
0.08250000 0.08250610 23560.15065537 0 278.60281284 0 10935.12003558 0 540.53983216 0 1738.86882420 0 7227
0.08350000 0.08350160 23273.78284817 0 138.62530598 0 9796.32742693 0 307.14512623 0 842.06305414 0 7798
0.08450000 0.08449610 22869.66042290 0 137.70809417 0 10085.65008415 0 1181.78622574 0 1431.77312854 0 7371
0.08550000 0.08548940 22150.39061028 0 666.78003255 0 10090.76889497 0 -531.08870591 0 2301.50961639 0 8256
0.08650000 0.08650700 21671.68293718 0 336.40912605 0 9682.53823956 0 1102.80714888 0 1057.49688544 0 8037
0.08750000 0.08749060 20989.54097988 0 193.43173241 0 9767.67966164 0 879.32601971 0 2408.29064645 0 8155
0.08850000 0.08849210 21071.48589134 0 -239.75477345 0 8425.11224703 0 543.43426703 0 2268.84149753 0 8718
0.08950000 0.08949900 20499.29950558 0 600.14871373 0 8813.53771808 0 40.70816691 0 2417.12224281 0 8571
0.09050000 0.09049190 20029.70902772 0 643.39936981 0 7962.94734024 0 303.50154351 0 3051.72296998 0 8932
0.09150000 0.09150830 19405.45576793 0 272.58766089 0 8177.00370613 0 1497.50481087 0 3654.01806918 0 9285
0.09250000 0.09250820 19807.93050731 0 -159.12581379 0 8512.94488939 0 -286.61496008 0 3232.62789582 0 9204
0.09350000 0.09350330 18637.52429877 0 617.03529715 0 7936.83701121 0 227.84749677 0 2391.68197271 0 9349
0.09450000 0.09448040 18297.22224020 0 412.39161151 0 7939.07786402 0 594.38401003 0 4640.93797733 0 9564
0.09550000 0.09549270 18739.46113232 0 -278.65993262 0 7771.07981096 0 48.72679505 0 2793.81619034 0 10155
0.09650000 0.09649430 18060.50470107 0 82.33728039 0 7245.64376611 0 523.32371155 0 2935.58308407 0 9913
0.09750000 0.09749140 17891.45212904 0 271.36507796 0 7193.82953724 0 310.31307697 0 3287.96817248 0 10476
0.09850000 0.09850240 17833.12404863 0 39.13858134 0 6159.13772294 0 619.69795755 0 2816.91674648 0 10575
0.09950000 0.09950330 17976.25302937 0 403.05142944 0 6797.89061854 0 250.47351937 0 2177.41689994 0 10882
0.10050000 0.10051200 16887.35234938 0 373.97965965 0 6098.32712913 0 -620.03518393 0 2596.66508165 0 10875
0.10150000 0.10150300 17170.75432198 0 242.53936260 0 6678.16976198 0 1098.28150497 0 2769.56225408 0 11118
0.10250000 0.10250800 16463.01831056 0 -116.77040037 0 5731.60717350 0 -9.12689462 0 1642.00686318 0 11575
0.10350000 0.10349800 16582.75015170 0 381.99400380 0 5941.53334010 0 -142.10192320 0 2332.31035791 0 11364
0.10450000 0.10450100 16123.59501780 0 297.48199773 0 6058.22245463 0 422.45128308 0 2386.02491783 0 12093
0.10550000 0.10551000 15448.15364977 0 147.44481930 0 6118.73646499 0 -92.78547629 0 3017.89048643 0 12067
0.10650000 0.10649700 16225.42200563 0 180.68084056 0 6312.85583164 0 -99.33986091 0 1424.06195859 0 12054
0.10750000 0.10749900 15519.00414292 0 33.99637337 0 6322.36847150 0 -327.71154148 0 1463.46362044 0 12807
0.10850000 0.10850100 15736.93806294 0 -229.05140592 0 6643.76608066 0 109.24640753 0 1120.77790962 0 12736
0.10950000 0.10950300 16066.91462328 0 88.21523502 0 5922.20049236 0 33.83446077 0 1150.44724016 0 12933
0.11050000 0.11050200 16002.54502795 0 -52.63532567 0 6494.84823017 0 -94.72886687 0 -134.32374735 0 13428
0.11150000 0.11150900 15670.70109027 0 130.64281708 0 5636.61258982 0 241.27064446 0 -365.75111633 0 13453
0.11250000 0.11250000 15394.98831848 0 476.74802535 0 6233.30555701 0 -337.36258695 0 -47.47806884 0 13668
0.11350000 0.11349100 14804.34785078 0 404.34211672 0 5834.88412491 0 -25.07261645 0 -1043.72552679 0 13791
0.11450000 0.11448600 14966.69983353 0 299.30763370 0 5767.42786469 0 1061.38432567 0 -648.33254135 0 14205
0.11550000 0.11549300 14334.20814430 0 -307.01770519 0 4944.89208523 0 833.96303032 0 311.39725428 0 14776
0.11650000 0.11649800 14343.10564809 0 -347.47168909 0 4153.86005993 0 1158.40007071 0 404.96274507 0 14553
0.11750000 0.11747300 14366.06340478 0 155.42950511 0 3530.27685905 0 706.97148516 0 250.55810058 0 14568
0.11850000 0.11849100 14327.39770930 0 508.02439886 0 3322.84419043 0 -623.72819723 0 367.53720783 0 16015
0.11950000 0.11950300 14120.66805332 0 280.75798598 0 3225.97124483 0 1.85684313 0 1094.39406474 0 15270
0.12050000 0.12050700 13649.21019813 0 -108.54218659 0 3619.02122094 0 -0.57264774 0 152.86131204 0 15999
0.12150000 0.12150000 13699.84907773 0 -16.88932957 0 3022.95437439 0 224.12262821 0 493.11174312 0 15670
0.12250000 0.12250700 13623.39645256 0 70.69286453 0 3099.33010754 0 407.10913055 0 -361.36827187 0 16887
0.12350000 0.12352200 13441.27223916 0 349.39398930 0 3655.05061901 0 -282.26726625 0 463.49623698 0 16407
0.12450000 0.12449800 13384.59184464 0 223.45037236 0 3163.18342796 0 -349.32368803 0 -590.56796952 0 16306
0.12550000 0.12549900 12875.56675122 0 241.85612218 0 3892.30640219 0 -255.92406429 0 -320.28926578 0 17523
0.12650000 0.12650100 12655.87529959 0 242.80409080 0 3588.15457199 0 -258.06276057 0 -862.01213641 0 17154
0.12750000 0.12750600 12360.82968006 0 136.41301306 0 3931.08194340 0 250.66355248 0 -558.57759879 0 18007
0.12850000 0.12850300 12422.12359506 0 -56.01132420 0 3955.51163282 0 245.16687236 0 -376.09528833 0 17496
0.12950000 0.12949900 12192.54602811 0 16.71544379 0 3628.54484537 0 207.85008238 0 -788.61322242 0 18405
0.13050000 0.13049000 12182.00083844 0 390.59492413 0 3693.88108308 0 -84.17884398 0 -340.83041651 0 18100
0.13150000 0.13148800 12099.50669835 0 47.99170745 0 3601.62165797 0 48.79446002 0 36.17659134 0 19059
0.13250000 0.13249300 11620.79902525 0 95.62004525 0 4006.29331187 0 -82.71668753 0 -307.81079133 0 18957
0.13350000 0.13349100 11871.46697156 0 22.56659607 0 3607.10295969 0 366.21027146 0 170.93862314 0 19468
0.13450000 0.13450700 11787.65468277 0 -101.10738848 0 3606.29010132 0 366.23553598 0 -132.30258600 0 19953
0.13550000 0.13551000 11698.35010768 0 243.75865015 0 3215.20636370 0 -62.90018905 0 -401.90244315 0 19956
0.13650000 0.13649900 11627.49961453 0 297.11071918 0 3687.38920069 0 -199.22719291 0 -179.44837152 0 19723
0.13750000 0.13749600 11038.28714127 0 234.59422125 0 3749.23234432 0 -341.59274585 0 200.09167877 0 20946
0.13850000 0.13851100 11016.31799610 0 136.58437239 0 3819.16013337 0 449.40522728 0 -109.36053724 0 20955
0.13950000 0.13949800 11014.45061876 0 -180.92140270 0 3549.15933932 0 131.70941908 0 392.43813541 0 20506
0.14050000 0.14048300 10870.40991851 0 30.20867306 0 3238.28495070 0 389.88971457 0 -297.48419465 0 21447
0.14150000 0.14148400 11005.99249788 0 145.93663749 0 3005.87336402 0 113.91550995 0 -0.12975746 0 21771
0.14250000 0.14249400 10621.22488950 0 267.96754966 0 3425.27532975 0 -98.16352303 0 214.73301556 0 22470
0.14350000 0.14350900 10423.94196594 0 174.92382607 0 3130.35054051 0 -10.32090668 0 789.67323367 0 22519
0.14450000 0.14449900 10472.27408529 0 -85.57619146 0 3467.42313474 0 415.09381636 0 406.35778579 0 22218
0.14550000 0.14550500 10516.71766596 0 -3.93757383 0 3056.41338247 0 148.05556154 0 -317.20589626 0 23559
0.14650000 0.14650700 10087.80306037 0 338.38415220 0 2860.53648420 0 -225.71868660 0 918.27072334 0 23044
0.14750000 0.14750500 9982.58183962 0 123.24251053 0 3258.72724027 0 125.87880795 0 1010.28079865 0 23649
0.14850000 0.14849900 9942.51011884 0 -31.18234557 0 3326.60091425 0 512.99711486 0 1034.08217052 0 23640
0.14950000 0.14949500 10055.56333985 0 -18.02831990 0 2981.22398315 0 200.20481987 0 555.62494568 0 24457
0.15050000 0.15050000 9825.77706602 0 87.63228376 0 2874.34409193 0 15.94388741 0 1272.39796496 0 24591
0.15150000 0.15149900 9757.62877772 0 181.71778421 0 3220.68766542 0 -331.60996629 0 1350.73993661 0 25020
0.15250000 0.15250500 9719.43541886 0 -9.21962638 0 2955.55303703 0 133.41971703 0 1253.73517614 0 25297
0.15350000 0.15350100 9817.68143603 0 27.52755858 0 3036.24570721 0 171.34615078 0 650.71729206 0 25452
0.15450000 0.15450400 9781.35545450 0 105.48309297 0 3076.62499602 0 113.15977136 0 1321.35620495 0 26061
0.15550000 0.15549900 9617.82812248 0 -29.39449654 0 3052.00856886 0 16.76652205 0 1151.62258943 0 26128
0.15650000 0.15649500 9639.95105166 0 216.58281759 0 3103.48227598 0 -77.82525736 0 866.31699040 0 26331
0.15750000 0.15749700 9400.79493742 0 301.67700600 0 3390.16863578 0 -153.16448625 0 1135.12376141 0 27345
0.15850000 0.15849900 9165.24176299 0 -61.24920779 0 3048.15298389 0 109.72445613 0 1194.29765391 0 26980
0.15950000 0.15949700 9073.98193398 0 2.53426172 0 3093.78289839 0 558.53146359 0 938.02098484 0 27777
0.16050000 0.16050000 9129.61879410 0 75.86088624 0 2735.15857275 0 130.40445186 0 984.55932350 0 28224
0.16150000 0.16150500 9010.96344108 0 147.46129616 0 2571.02708924 0 282.64293863 0 1214.54222117 0 28075
0.16250000 0.16249700 8905.55548259 0 -51.37231951 0 2283.40704077 0 -141.63837424 0 1077.29547906 0 28590
0.16350000 0.16349900 8793.53481141 0 170.46079423 0 2425.10802707 0 294.92478924 0 1041.60330737 0 29163
0.16450000 0.16449100 8753.01272315 0 41.32297344 0 2065.97841110 0 -60.97382456 0 1002.85852296 0 28996
0.16550000 0.16550500 8809.04502789 0 -129.48943696 0 2172.90224061 0 174.21312423 0 907.29933224 0 30777
0.16650000 0.16650700 8723.12370116 0 114.70749764 0 2000.97171056 0 142.46331564 0 962.96585072 0 29211
0.16750000 0.16749900 8574.38160384 0 172.48964479 0 1939.24939723 0 -92.47164705 0 1019.80771845 0 30922
0.16850000 0.16850800 8750.57414804 0 37.20200119 0 2141.13485670 0 120.72924033 0 830.71159684 0 30867
0.16950000 0.16949900 8562.83681805 0 133.88985674 0 2325.10447829 0 -398.75756002 0 398.25226968 0 30852
0.17050000 0.17049200 8283.71882876 0 230.80564216 0 2386.16771727 0 -162.85837155 0 845.04646405 0 31257
0.17150000 0.17149500 7995.81318140 0 23.35946251 0 2637.12126247 0 63.98766174 0 1251.85681423 0 32608
0.17250000 0.17250900 8174.12574812 0 9.82676568 0 2233.69086527 0 362.04601999 0 472.64089366 0 32361
0.17350000 0.17350400 8091.52176230 0 104.39474152 0 2307.93559135 0 159.55640903 0 862.13406516 0 32508
0.17450000 0.17449800 7938.66045026 0 46.09598992 0 2062.66107018 0 88.88814994 0 928.86534359 0 32791
0.17550000 0.17549800 7945.51482355 0 57.06562348 0 2106.29179247 0 62.81912291 0 974.51503033 0 33633
0.17650000 0.17650100 7779.66974672 0 130.22760024 0 1863.24713954 0 -68.67291148 0 800.48534846 0 33984
0.17750000 0.17750300 7795.79509927 0 36.00325478 0 2163.80701451 0 -74.97278355 0 700.82671526 0 34069
0.17850000 0.17849800 7522.43302601 0 135.79458162 0 1807.01711249 0 89.49307035 0 43.25823544 0 34536
