### header ###
fiducial parameters:
Omega_m = 0.31
Omega_nu = 0
Omega_de = 0.69
Omega_k = 0
H_0 = 100
w_de = -1
zeff = 0
beta = 0
fgrowth = 0
b_1 = 2
gamma = 0.55
Lx = 3500 Ly = 3500 Lz = 3500
nx = 700 ny = 700 nz = 700
xoffset = -983.599254 yoffset = -42.9823471 zoffset = 800.977702
bins = 400 dk = 0.001
kx_ny = 0.628318531 ky_ny = 0.628318531 kz_ny = 0.628318531
############################
A(data) = 9.12542614 (not used)
A(ran) = 9.12836878 (used)
Ngal = 507331
weighted Ngal = 0
Nran = 25229228
weighted Nran = 0
SN(data) = 6696.39605
SN(ran) = 135.504346
SN(data+ran) = 6831.90039
############################
13 columns: k_central k_mean P_0(k) sigma^{lin}_{P_0(k)} P^img_1(k) sigma^{lin}_{P_1(k)} P_2(k) sigma^{lin}_{P_2(k)} P^img_3(k) sigma^{lin}_{P_3(k)} P_4(k) sigma^{lin}_{P_4(k)} N_modes
### header ###
0.00050000 0 0 0 0 0 0 0 0 0 0 0 0
0.00150000 0.00179520 42228.54160309 0 -21544.26189524 0 6836.27071514 0 -32389.11071335 0 -55872.03982347 0 3
0.00250000 0.00253879 58116.51753902 0 -803.23808235 0 -611.00256989 0 -3578.77374700 0 64042.25506375 0 6
0.00350000 0.00331552 44110.30873200 0 12022.50484455 0 13810.90310652 0 -12685.09426266 0 34854.15864633 0 7
0.00450000 0.00420575 32186.44534922 0 -2518.91627692 0 -10877.05558492 0 10071.00764890 0 15118.94600951 0 24
0.00550000 0.00557378 58211.20455467 0 -23697.34796691 0 -32383.72827278 0 9380.49544729 0 -22289.45529916 0 45
0.00650000 0.00659388 63900.99346035 0 -8534.74926596 0 -2385.16812117 0 -3589.87914988 0 9005.11964847 0 40
0.00750000 0.00754703 96684.88971227 0 -6593.59953768 0 -32652.85030103 0 -57649.67320431 0 -35918.56372946 0 57
0.00850000 0.00846663 73873.99675268 0 2280.49612904 0 -4126.92588796 0 -17649.02261217 0 -18848.64778378 0 75
0.00950000 0.00948925 89622.57846255 0 12648.95501887 0 17564.77094047 0 -11785.56761397 0 -18562.60951376 0 112
0.01050000 0.01054430 74926.20896025 0 -2235.21772086 0 39539.07885227 0 6181.93071105 0 8041.90444795 0 105
0.01150000 0.01145670 89955.30116604 0 -2550.49692309 0 32208.96372301 0 16786.40412736 0 -12377.41638466 0 144
0.01250000 0.01249090 83560.52239208 0 2322.35833515 0 24880.82581682 0 7925.11647227 0 16233.22105216 0 169
0.01350000 0.01339930 86613.57449534 0 1017.50754895 0 13568.69328110 0 10650.92717376 0 8453.63918202 0 180
0.01450000 0.01448870 84988.51682766 0 3096.51805696 0 37765.94914619 0 -6560.48105134 0 10211.48934764 0 267
0.01550000 0.01550050 78770.47982654 0 1317.08320622 0 31186.62955287 0 5120.31570935 0 26726.45370194 0 238
0.01650000 0.01653350 85779.29620779 0 -9063.14016084 0 34514.95504502 0 9464.58235040 0 5151.79749437 0 315
0.01750000 0.01747870 85668.13233327 0 -879.66434454 0 23305.30857148 0 3809.57060151 0 -7792.52169664 0 297
0.01850000 0.01844180 87282.64481127 0 10941.30434995 0 27176.27194915 0 -5480.25818370 0 4284.88404168 0 388
0.01950000 0.01947590 79958.79088839 0 6723.51407760 0 24171.55196525 0 -4257.47753309 0 12700.80220145 0 399
0.02050000 0.02045430 81852.64104714 0 -3614.53951533 0 36420.44885070 0 10767.35265855 0 -7730.50279985 0 462
0.02150000 0.02154770 67917.83196190 0 4044.32190214 0 20553.23375695 0 7313.23184120 0 6947.86298800 0 571
0.02250000 0.02255340 69477.75111417 0 3109.98514295 0 36229.09759633 0 4840.31895425 0 8779.83704940 0 510
0.02350000 0.02348930 62517.81608091 0 5377.38766147 0 25664.90460768 0 744.93636492 0 7791.64293083 0 555
0.02450000 0.02439640 61277.43814502 0 6485.42346690 0 24177.70332589 0 1453.14910679 0 4881.92851519 0 592
0.02550000 0.02547300 57293.00413259 0 560.81735314 0 26465.46025741 0 -2321.71024537 0 2678.26947136 0 837
0.02650000 0.02652900 52212.63931372 0 -119.89770818 0 26797.41404082 0 3503.60631683 0 2679.67549665 0 723
0.02750000 0.02749970 52523.17318060 0 -2285.48312499 0 20198.54190830 0 4789.59219807 0 4130.70458092 0 826
0.02850000 0.02848090 53295.60832452 0 716.48632193 0 16906.79504285 0 3446.02518736 0 -4274.11916055 0 831
0.02950000 0.02946900 50998.84404348 0 1822.72505129 0 18113.45034091 0 -455.11061428 0 4335.91836589 0 996
0.03050000 0.03053250 54780.94222897 0 -101.99593056 0 17441.74372756 0 2161.10480965 0 -8018.67207695 0 1041
0.03150000 0.03150510 54975.03962648 0 -460.30302173 0 18084.56091502 0 -627.47503494 0 3892.71283138 0 1036
0.03250000 0.03246190 57219.95672493 0 -3221.19295576 0 16122.16702336 0 1255.50369233 0 -7373.76782069 0 1059
0.03350000 0.03345080 56906.89640636 0 404.41791027 0 15202.09922395 0 1881.88795921 0 -2231.90037994 0 1302
0.03450000 0.03451200 55176.05730472 0 2632.76038715 0 18442.10875254 0 -294.29207786 0 -1538.75188091 0 1339
0.03550000 0.03553350 55248.55548375 0 149.41325471 0 15908.95646956 0 1505.44665685 0 7351.63390694 0 1365
0.03650000 0.03647120 55976.50310872 0 1964.67868275 0 22169.83330375 0 699.87764819 0 -2175.50558431 0 1308
0.03750000 0.03744890 49872.48597099 0 2152.61373505 0 20048.82218402 0 824.51849481 0 7502.89147139 0 1579
0.03850000 0.03847530 46843.38023596 0 1257.15137822 0 18236.58739955 0 1860.23736665 0 9146.11762212 0 1662
0.03950000 0.03950240 46162.44658164 0 2153.00917966 0 24158.48032387 0 3302.95112948 0 3817.04011086 0 1683
0.04050000 0.04050350 44606.81141267 0 1454.24756404 0 18277.01062665 0 -343.47440313 0 7415.04784446 0 1822
0.04150000 0.04152450 43482.21087180 0 1647.54308776 0 19079.10411654 0 2749.77903886 0 6567.45625493 0 1887
0.04250000 0.04250150 40575.69296677 0 -839.66182658 0 20592.11914389 0 -1457.00469176 0 11315.09837032 0 1920
0.04350000 0.04349210 41735.11460273 0 1131.42196045 0 19971.27110159 0 2370.89916138 0 1542.32186700 0 2005
0.04450000 0.04448520 40494.84651257 0 -195.37160793 0 16458.29494435 0 1888.85217822 0 7814.00752061 0 2151
0.04550000 0.04548030 41647.89709644 0 -65.49331710 0 15506.04234728 0 3181.45077216 0 5130.23477839 0 2274
0.04650000 0.04648670 41340.10937271 0 898.60064922 0 15949.16000521 0 2251.57374943 0 9261.51055709 0 2311
0.04750000 0.04749250 38977.98688482 0 470.94707257 0 14949.67374603 0 -505.40347984 0 9051.80408194 0 2568
0.04850000 0.04851840 39722.63106010 0 788.77030181 0 15431.89648235 0 3046.08788424 0 6686.66083659 0 2493
0.04950000 0.04949480 37165.86194607 0 1287.32599910 0 16138.09465361 0 -187.14306461 0 11409.67554024 0 2644
0.05050000 0.05050630 36313.89849666 0 565.31553561 0 15473.63785816 0 1224.84575026 0 11970.87735342 0 2829
0.05150000 0.05149060 36055.32165810 0 -1193.51774925 0 14391.10823027 0 2223.27749046 0 7175.55120846 0 2784
0.05250000 0.05249300 36769.20903016 0 1455.04943784 0 13658.43723909 0 33.90937556 0 6229.08748114 0 3055
0.05350000 0.05348950 36638.71230789 0 719.50598094 0 14087.05526122 0 -2153.33871684 0 9477.34642374 0 3009
0.05450000 0.05448610 35698.43289493 0 -619.29152836 0 13559.79577731 0 1326.82652210 0 1672.26936064 0 3336
0.05550000 0.05550870 36068.39329947 0 -104.59883487 0 14744.59177594 0 -813.82391495 0 -2075.99634129 0 3349
0.05650000 0.05647670 35290.79540644 0 1330.25370875 0 13480.37731755 0 -3278.20288746 0 -3377.81099163 0 3324
0.05750000 0.05747970 34482.22101872 0 608.16964862 0 16056.58912505 0 774.35305029 0 -2423.99858524 0 3639
0.05850000 0.05849280 34109.84400822 0 -354.66768259 0 13750.37811160 0 1542.90404935 0 -1633.20822054 0 3846
0.05950000 0.05951020 34359.63318872 0 -494.43758103 0 11807.42691341 0 4198.97369952 0 -1647.79573293 0 3787
0.06050000 0.06049470 35307.05257386 0 -849.09867288 0 10292.33580184 0 3974.81152685 0 1091.60508176 0 3930
0.06150000 0.06148310 35234.66424055 0 918.38276598 0 8285.20174606 0 178.39165564 0 1669.03989630 0 4083
0.06250000 0.06249100 33984.61988079 0 693.46046089 0 10131.65347412 0 -892.57231578 0 2882.07723103 0 4303
0.06350000 0.06350600 31941.26968921 0 1536.76367328 0 10218.42061294 0 -2287.80086981 0 476.85787107 0 4470
0.06450000 0.06451750 30311.92803822 0 1700.57660418 0 12434.20662490 0 -1493.51741102 0 2744.79204291 0 4479
0.06550000 0.06550280 29920.76740859 0 -22.27759196 0 11941.76823608 0 1776.52393901 0 3162.15087814 0 4636
0.06650000 0.06648880 29458.20705719 0 -422.89396135 0 11222.05904055 0 2751.22900244 0 1597.11291504 0 4653
0.06750000 0.06749660 30161.76893103 0 533.59977920 0 10011.47126551 0 393.34765802 0 1049.92741647 0 5220
0.06850000 0.06852730 29149.87010484 0 622.50781121 0 10012.88827537 0 -625.97344386 0 2941.72346015 0 5029
0.06950000 0.06949320 28240.34749510 0 631.59754503 0 9960.43694129 0 325.88151169 0 721.95554062 0 5040
0.07050000 0.07048030 28535.39311464 0 -9.17454570 0 10165.43103481 0 -185.01645136 0 941.54593418 0 5475
0.07150000 0.07148790 27288.64412665 0 235.63995256 0 10546.29911992 0 175.25995399 0 1527.45974030 0 5509
0.07250000 0.07249820 27067.19514341 0 482.08762608 0 10020.02824755 0 20.01553893 0 -668.18715629 0 5916
0.07350000 0.07351270 26379.23136264 0 979.22301814 0 10434.70684707 0 22.10755078 0 416.98865513 0 5721
0.07450000 0.07449140 27079.16832753 0 -87.45532229 0 10284.17426441 0 523.10402010 0 896.25763989 0 6028
0.07550000 0.07549160 25740.47846704 0 -753.22642185 0 10895.32292912 0 318.99638159 0 -881.72944419 0 6183
0.07650000 0.07648840 26154.81654481 0 592.54848796 0 9532.08254891 0 582.64040349 0 -1659.99959307 0 6330
0.07750000 0.07749960 26392.52269547 0 467.81866630 0 10612.56904630 0 -232.73673002 0 -746.88392964 0 6583
0.07850000 0.07848650 26426.02564184 0 271.86158064 0 9312.59980416 0 512.89495834 0 -832.34610124 0 6549
0.07950000 0.07947320 25764.86421817 0 -347.36513874 0 8100.52911182 0 1062.53111505 0 -1829.14004167 0 6828
0.08050000 0.08048110 25266.05477725 0 292.22587975 0 8016.18956354 0 833.81913242 0 -1190.11253175 0 7147
0.08150000 0.08149960 25303.62201548 0 522.05499342 0 7733.13909727 0 294.23605654 0 -416.23621191 0 7386
0.08250000 0.08250610 24155.51448928 0 492.23078040 0 7613.63793215 0 -392.89289672 0 -443.52957940 0 7227
0.08350000 0.08350160 23846.62830829 0 682.38361790 0 7734.07278594 0 -538.76252831 0 -1998.42328972 0 7798
0.08450000 0.08449610 22634.70041539 0 740.34371512 0 8876.03993606 0 -712.94928956 0 -819.62047390 0 7371
0.08550000 0.08548940 21747.58633372 0 137.29397578 0 8272.97591678 0 367.96450770 0 -40.98387968 0 8256
0.08650000 0.08650700 21836.67121736 0 62.93336246 0 8589.07896195 0 1720.30489654 0 -768.10502541 0 8037
0.08750000 0.08749060 21829.42139945 0 706.13446073 0 8233.47539377 0 562.73086568 0 155.64260582 0 8155
0.08850000 0.08849210 21130.47304610 0 437.09591524 0 7714.20169414 0 -95.41781927 0 122.92285947 0 8718
0.08950000 0.08949900 20830.59421463 0 131.67866228 0 8743.57697531 0 976.92504555 0 2763.96012206 0 8571
0.09050000 0.09049190 20447.01294009 0 -129.23129950 0 7606.47599083 0 1444.24061842 0 2415.21092718 0 8932
0.09150000 0.09150830 20394.28699170 0 38.38998271 0 7304.98242719 0 -102.58316581 0 1730.72925592 0 9285
0.09250000 0.09250820 19608.12113205 0 695.61892940 0 7208.66969480 0 -553.52469540 0 2271.57665610 0 9204
0.09350000 0.09350330 19359.65010026 0 383.36597692 0 7655.77475258 0 -120.50845042 0 2221.26731368 0 9349
0.09450000 0.09448040 18860.84065934 0 325.68159246 0 7538.19588766 0 197.84203831 0 1795.72497188 0 9564
0.09550000 0.09549270 18249.76888664 0 605.75743649 0 7821.81755171 0 -102.17684647 0 1495.48364951 0 10155
0.09650000 0.09649430 18082.25415478 0 386.59544126 0 8613.06926847 0 47.51212101 0 1471.33955898 0 9913
0.09750000 0.09749140 17840.92309517 0 -113.15757445 0 7580.23384693 0 154.49361953 0 334.19903004 0 10476
0.09850000 0.09850240 17513.14344934 0 85.85410115 0 8065.51029443 0 236.82189257 0 934.17528598 0 10575
0.09950000 0.09950330 17559.38849991 0 -44.63899621 0 7327.65458500 0 378.94248954 0 420.64102552 0 10882
0.10050000 0.10051200 16956.44531092 0 222.71111063 0 7266.74513003 0 54.92802566 0 109.28628153 0 10875
0.10150000 0.10150300 17047.06803471 0 523.09852781 0 7195.89463688 0 -353.45828115 0 -275.00097149 0 11118
0.10250000 0.10250800 16879.88284002 0 43.05040732 0 6967.72309523 0 537.15658380 0 -183.77629311 0 11575
0.10350000 0.10349800 16220.69863942 0 195.89007976 0 7399.84519600 0 -34.79605026 0 85.05640149 0 11364
0.10450000 0.10450100 16072.07737239 0 380.47483741 0 6989.28581120 0 -199.60835758 0 -432.11001775 0 12093
0.10550000 0.10551000 16077.02043005 0 104.19756844 0 6778.01952675 0 892.85901313 0 292.87616645 0 12067
0.10650000 0.10649700 15775.71360415 0 -217.57801986 0 6426.98554076 0 1440.64866319 0 558.90274214 0 12054
0.10750000 0.10749900 16014.84774924 0 -155.80957132 0 5577.69134249 0 712.13423428 0 881.91728038 0 12807
0.10850000 0.10850100 15766.04718028 0 407.37166184 0 5353.01289491 0 -43.54680016 0 746.46541742 0 12736
0.10950000 0.10950300 15297.11577678 0 364.52853340 0 4927.81107486 0 -131.94339048 0 1810.15870025 0 12933
0.11050000 0.11050200 15357.09154307 0 -226.70290431 0 5204.94085652 0 633.62859250 0 1006.40214607 0 13428
0.11150000 0.11150900 15193.09187443 0 -12.04293615 0 4621.70399074 0 271.29587516 0 580.59727299 0 13453
0.11250000 0.11250000 14920.78432014 0 542.48849533 0 4448.87272574 0 -426.65288209 0 261.71952478 0 13668
0.11350000 0.11349100 14161.09128042 0 639.55916323 0 4978.72456878 0 -745.11321654 0 670.32255720 0 13791
0.11450000 0.11448600 13845.94389306 0 213.58952156 0 5283.70024192 0 222.79569184 0 701.69339804 0 14205
0.11550000 0.11549300 13718.85238829 0 -360.91790439 0 4935.34649165 0 807.96694085 0 -728.27386677 0 14776
0.11650000 0.11649800 13775.75247426 0 124.02131673 0 4591.92481447 0 395.22711839 0 -378.14061574 0 14553
0.11750000 0.11747300 13742.68891079 0 155.50200329 0 3670.72560408 0 -212.95351481 0 -291.87657035 0 14568
0.11850000 0.11849100 14053.66216057 0 150.32607269 0 4054.98792212 0 -51.88529905 0 -481.06276546 0 16015
0.11950000 0.11950300 13423.14769440 0 23.47260361 0 3966.59506656 0 -86.11443552 0 -837.42976143 0 15270
0.12050000 0.12050700 13277.05287907 0 119.47480214 0 4042.25680250 0 -333.59378009 0 -1094.63242996 0 15999
0.12150000 0.12150000 13249.37175616 0 266.96905202 0 4462.31784258 0 267.67536003 0 -1150.28247157 0 15670
0.12250000 0.12250700 12912.69460655 0 171.28683409 0 4506.91520726 0 -130.83285019 0 -860.74451673 0 16887
0.12350000 0.12352200 12969.04546389 0 -154.45077969 0 4241.49497998 0 260.49694185 0 -825.58399835 0 16407
0.12450000 0.12449800 12869.85477348 0 16.83209995 0 4035.28159891 0 845.91204837 0 -178.03685394 0 16306
0.12550000 0.12549900 13143.59032221 0 24.57018210 0 3771.47610380 0 225.38585405 0 -58.60939531 0 17523
0.12650000 0.12650100 12944.98924994 0 198.03866215 0 3584.84821564 0 279.72763307 0 287.58379938 0 17154
0.12750000 0.12750600 12942.46279824 0 -33.96627564 0 3872.81977043 0 -85.40702904 0 334.88886120 0 18007
0.12850000 0.12850300 12616.88006693 0 165.54409954 0 3936.31059995 0 231.24502507 0 680.61510171 0 17496
0.12950000 0.12949900 12536.47299564 0 300.39950021 0 3829.90304536 0 -408.11861277 0 1022.02001137 0 18405
0.13050000 0.13049000 12427.83557281 0 119.19030171 0 4005.19485461 0 404.38495655 0 360.40712177 0 18100
0.13150000 0.13148800 12273.28263659 0 9.99652126 0 3794.92816626 0 262.10288636 0 473.17474389 0 19059
0.13250000 0.13249300 12144.43360021 0 80.87973745 0 3781.38418826 0 247.07269570 0 978.64083579 0 18957
0.13350000 0.13349100 11972.19550213 0 259.22163298 0 3559.33105353 0 39.88300582 0 927.67681284 0 19468
0.13450000 0.13450700 11625.63223719 0 -32.51949759 0 3424.80299313 0 96.37567399 0 894.74835961 0 19953
0.13550000 0.13551000 11790.62051736 0 -218.22720810 0 3146.12438674 0 759.77762093 0 802.85581923 0 19956
0.13650000 0.13649900 11696.59257607 0 143.55628061 0 2694.84519138 0 248.20190976 0 797.03179884 0 19723
0.13750000 0.13749600 11784.13961954 0 283.29871762 0 2500.70385558 0 -194.80809936 0 735.34793151 0 20946
0.13850000 0.13851100 11567.52384824 0 77.73847923 0 2386.25559385 0 -326.21763961 0 449.36568282 0 20955
0.13950000 0.13949800 11333.88198943 0 151.97815241 0 2836.95260687 0 293.55061921 0 723.03752102 0 20506
0.14050000 0.14048300 11170.43154942 0 161.88403996 0 2867.90713240 0 -246.86069345 0 34.12027935 0 21447
0.14150000 0.14148400 10995.11777102 0 176.60117030 0 2669.36098299 0 -15.70222681 0 -143.79135046 0 21771
0.14250000 0.14249400 10691.02086368 0 178.93099815 0 3012.67281445 0 -486.18816702 0 -341.03143419 0 22470
0.14350000 0.14350900 10596.39975546 0 168.12547410 0 3024.26153852 0 -30.69100564 0 -0.07962881 0 22519
0.14450000 0.14449900 10450.11820240 0 -271.82972538 0 3050.99798819 0 730.85524133 0 162.29925680 0 22218
0.14550000 0.14550500 10890.03934971 0 -48.39154590 0 2649.21527688 0 410.61650458 0 -127.16839677 0 23559
0.14650000 0.14650700 10681.71693070 0 421.39127182 0 2635.79212918 0 28.19487136 0 142.96311369 0 23044
0.14750000 0.14750500 10578.37407186 0 153.29630112 0 2844.72968425 0 -563.00548000 0 577.79510852 0 23649
0.14850000 0.14849900 10086.64968025 0 73.23744077 0 2894.80835065 0 304.66151437 0 953.18848266 0 23640
0.14950000 0.14949500 10093.74571414 0 5.76610972 0 3050.27300640 0 444.27653034 0 1403.22422440 0 24457
0.15050000 0.15050000 10026.39929965 0 163.20218867 0 3043.51749426 0 -168.55387243 0 1577.31871525 0 24591
0.15150000 0.15149900 9971.00410012 0 183.89053267 0 3181.68144819 0 75.10756425 0 1132.64124801 0 25020
0.15250000 0.15250500 9941.35673872 0 138.58685997 0 3385.96154448 0 -392.25359459 0 785.88904842 0 25297
0.15350000 0.15350100 9834.23518691 0 130.04965016 0 3344.47281384 0 -248.51826545 0 1010.57298828 0 25452
0.15450000 0.15450400 9791.06581666 0 -206.91749217 0 3236.83498712 0 142.96311369 0 253.64915930 0 26061
0.15550000 0.15549900 9787.68256831 0 64.71451091 0 3340.55132143 0 297.86535932 0 354.40185594 0 26128
0.15650000 0.15649500 9707.37435817 0 46.31875705 0 3142.14797147 0 -4.31236744 0 232.82240969 0 26331
0.15750000 0.15749700 9674.00322666 0 33.94990863 0 2739.99178469 0 199.71820330 0 502.87263432 0 27345
0.15850000 0.15849900 9681.54962803 0 13.90240460 0 2749.94380745 0 369.68249485 0 189.18839203 0 26980
0.15950000 0.15949700 9562.37800009 0 126.21273896 0 2515.10463023 0 220.30878461 0 373.23710254 0 27777
0.16050000 0.16050000 9452.07092223 0 231.72285398 0 2638.79091750 0 -83.33500912 0 588.03602554 0 28224
0.16150000 0.16150500 9198.71175564 0 73.55555399 0 2350.10536549 0 69.11701775 0 705.62257965 0 28075
0.16250000 0.16249700 9160.01310644 0 57.84640690 0 2645.57938335 0 188.69079089 0 510.90345533 0 28590
0.16350000 0.16349900 8818.71145176 0 213.99595074 0 2557.84560215 0 -289.09637502 0 864.18049103 0 29163
0.16450000 0.16449100 8745.13678461 0 117.03622703 0 2646.24944228 0 124.40248140 0 662.99365038 0 28996
0.16550000 0.16550500 8646.22070852 0 -17.66967361 0 2601.23466384 0 -4.67177167 0 513.62103859 0 30777
0.16650000 0.16650700 8757.17587616 0 12.79395138 0 2417.10027366 0 176.25955010 0 791.02323764 0 29211
0.16750000 0.16749900 8701.55000061 0 -4.20710228 0 2466.28918968 0 182.21538535 0 684.47288360 0 30922
0.16850000 0.16850800 8679.19639541 0 90.79100745 0 2264.68932910 0 289.86749202 0 898.18762929 0 30867
0.16950000 0.16949900 8640.10230159 0 151.53657259 0 2440.02507664 0 -191.26557470 0 390.03910476 0 30852
0.17050000 0.17049200 8539.63740076 0 176.02228333 0 2382.67462319 0 -66.04353434 0 819.20525706 0 31257
0.17150000 0.17149500 8223.33663328 0 153.72360099 0 2533.83332648 0 -282.51551759 0 548.99795304 0 32608
0.17250000 0.17250900 7982.68661717 0 49.20066951 0 2518.82840034 0 -30.46384468 0 557.54285205 0 32361
0.17350000 0.17350400 8031.89750233 0 121.34877022 0 2559.47131889 0 342.64396944 0 623.72490186 0 32508
0.17450000 0.17449800 7958.66335693 0 125.85793727 0 2509.42560621 0 -21.55513662 0 399.31997014 0 32791
0.17550000 0.17549800 7855.10080664 0 -33.64288983 0 2400.52455364 0 111.68124789 0 463.44790486 0 33633
0.17650000 0.17650100 7686.25694149 0 125.26367189 0 2304.05803723 0 -25.42829691 0 134.10185899 0 33984
0.17750000 0.17750300 7533.26381458 0 269.13520973 0 2616.63503460 0 -248.97192830 0 211.41347773 0 34069
0.17850000 0.17849800 7452.85674328 0 51.90792727 0 2692.08806366 0 -79.15691709 0 272.61841770 0 34536
