### header ###
fiducial parameters:
Omega_m = 0.31
Omega_nu = 0
Omega_de = 0.69
Omega_k = 0
H_0 = 100
w_de = -1
zeff = 0
beta = 0
fgrowth = 0
b_1 = 2
gamma = 0.55
Lx = 3500 Ly = 3500 Lz = 3500
nx = 700 ny = 700 nz = 700
xoffset = -983.599254 yoffset = -42.9823471 zoffset = 800.977702
bins = 400 dk = 0.001
kx_ny = 0.628318531 ky_ny = 0.628318531 kz_ny = 0.628318531
############################
A(data) = 9.10607587 (not used)
A(ran) = 9.11588585 (used)
Ngal = 506071
weighted Ngal = 0
Nran = 25229228
weighted Nran = 0
SN(data) = 6702.62057
SN(ran) = 135.319045
SN(data+ran) = 6837.93961
############################
13 columns: k_central k_mean P_0(k) sigma^{lin}_{P_0(k)} P^img_1(k) sigma^{lin}_{P_1(k)} P_2(k) sigma^{lin}_{P_2(k)} P^img_3(k) sigma^{lin}_{P_3(k)} P_4(k) sigma^{lin}_{P_4(k)} N_modes
### header ###
0.00050000 0 0 0 0 0 0 0 0 0 0 0 0
0.00150000 0.00179520 47712.36977287 0 -35168.53711361 0 20892.10782109 0 -73829.17969655 0 145442.33172053 0 3
0.00250000 0.00253879 37667.52737586 0 5825.70102223 0 -17863.22177751 0 23913.19481813 0 -2341.72413661 0 6
0.00350000 0.00331552 56418.85184657 0 2926.20225909 0 -16135.78789336 0 15028.54297716 0 9269.11188131 0 7
0.00450000 0.00420575 49559.86503533 0 -674.74274921 0 11223.92641789 0 -43013.71885120 0 2915.56919283 0 24
0.00550000 0.00557378 40967.40282502 0 9835.08099900 0 17435.37267546 0 -16560.89085226 0 -3952.07346161 0 45
0.00650000 0.00659388 38512.79023600 0 160.39672883 0 20153.17562354 0 10658.89098888 0 11113.86100063 0 40
0.00750000 0.00754703 40742.76831573 0 -14984.93422402 0 21107.18575223 0 16731.59111018 0 -22439.72425207 0 57
0.00850000 0.00846663 58012.38379094 0 2896.02763821 0 20698.01042357 0 8332.71002247 0 -10220.48571258 0 75
0.00950000 0.00948925 66282.99802462 0 -6055.67403380 0 4372.45305429 0 -5352.92501833 0 -5671.40073118 0 112
0.01050000 0.01054430 58098.83237716 0 -1269.56394523 0 9790.07720513 0 428.83112283 0 1224.90067312 0 105
0.01150000 0.01145670 69849.02966742 0 3755.03219864 0 32451.61293134 0 -4657.63452765 0 -16291.43928684 0 144
0.01250000 0.01249090 64908.16892033 0 3490.09529255 0 25897.11847205 0 -15953.66367997 0 -14887.50106522 0 169
0.01350000 0.01339930 65695.98246587 0 2667.79018911 0 41356.47638585 0 7646.88823336 0 -9796.09675090 0 180
0.01450000 0.01448870 61294.57407825 0 509.96097900 0 29302.88520089 0 2515.32432168 0 -11608.82584114 0 267
0.01550000 0.01550050 65804.29035152 0 -1618.33510926 0 39782.38713495 0 -662.14234600 0 1636.42670031 0 238
0.01650000 0.01653350 66173.70152743 0 5677.11270893 0 33357.51063212 0 -203.45076107 0 -23972.73120152 0 315
0.01750000 0.01747870 64227.56480319 0 -3423.28712211 0 39806.22365745 0 12233.40863812 0 -159.97382279 0 297
0.01850000 0.01844180 68108.85367909 0 -7750.28601507 0 26444.58956950 0 7013.26513315 0 -18236.14801664 0 388
0.01950000 0.01947590 71931.04555449 0 -1856.51359655 0 19420.06524946 0 -3147.49745831 0 -3941.18775018 0 399
0.02050000 0.02045430 69647.68245201 0 6560.57991250 0 28731.35788949 0 6486.86244590 0 -12895.11929042 0 462
0.02150000 0.02154770 75527.39461762 0 1150.05179555 0 32265.86380899 0 -9444.60141287 0 -7101.69094243 0 571
0.02250000 0.02255340 65201.45700826 0 4875.64533967 0 26304.53626909 0 3617.64814937 0 -5164.47369113 0 510
0.02350000 0.02348930 71194.96934581 0 2024.21506614 0 39067.18161418 0 1864.54331910 0 -8550.27046702 0 555
0.02450000 0.02439640 58344.44742008 0 -350.57812622 0 33833.91154497 0 49.24471765 0 5510.86120291 0 592
0.02550000 0.02547300 60893.30764185 0 1800.83279813 0 35233.89532046 0 11576.53119775 0 -1499.18545047 0 837
0.02650000 0.02652900 59186.30506271 0 3048.38365991 0 38101.30814710 0 -604.33932817 0 12103.35129875 0 723
0.02750000 0.02749970 56999.49635322 0 3578.18058008 0 31738.49447936 0 1989.93221512 0 -2177.60363767 0 826
0.02850000 0.02848090 55510.42769409 0 1195.98927808 0 37166.30132897 0 3472.30028497 0 10367.18467941 0 831
0.02950000 0.02946900 52381.03281139 0 -2259.41673426 0 33076.74495694 0 3552.11418935 0 8219.99732322 0 996
0.03050000 0.03053250 54330.79444458 0 1230.60166629 0 31957.63670235 0 7586.78065219 0 8540.82373460 0 1041
0.03150000 0.03150510 54705.69790678 0 -982.11415764 0 24171.00273662 0 5382.10004311 0 9524.86568473 0 1036
0.03250000 0.03246190 56729.16602199 0 -141.94154844 0 24335.55163389 0 7574.11544001 0 6401.76496212 0 1059
0.03350000 0.03345080 53337.34970033 0 734.67018339 0 17242.04419803 0 2141.62916247 0 12062.81822593 0 1302
0.03450000 0.03451200 53433.35486469 0 1060.53961204 0 15073.46987902 0 4050.13274104 0 13139.63587608 0 1339
0.03550000 0.03553350 50567.47987821 0 1457.34521351 0 15324.79689968 0 -1084.69688406 0 12002.07353955 0 1365
0.03650000 0.03647120 49289.97408700 0 1348.37825351 0 13580.44677377 0 4149.08177085 0 18324.02459729 0 1308
0.03750000 0.03744890 47969.07923410 0 -128.75456905 0 14723.17185940 0 2396.46026178 0 11636.28727259 0 1579
0.03850000 0.03847530 46944.98753234 0 937.80568722 0 10362.59312807 0 1924.02477963 0 7316.46130554 0 1662
0.03950000 0.03950240 45719.76830662 0 2795.11236990 0 15571.62024559 0 -2022.01815163 0 13501.35785118 0 1683
0.04050000 0.04050350 43865.02322626 0 -271.01796547 0 15018.21747894 0 -2804.98750065 0 7266.40460828 0 1822
0.04150000 0.04152450 44950.95807165 0 1432.23448059 0 17566.30878063 0 -390.08194459 0 3556.17848120 0 1887
0.04250000 0.04250150 44490.81432621 0 -16.57308373 0 17345.84840892 0 734.41863667 0 6365.79048691 0 1920
0.04350000 0.04349210 42316.08864656 0 1193.56168754 0 21336.87316490 0 -826.87688255 0 4550.22737695 0 2005
0.04450000 0.04448520 40411.91298958 0 914.80728760 0 21219.44808401 0 710.19545722 0 5590.46640040 0 2151
0.04550000 0.04548030 40326.56286063 0 1376.85026564 0 22209.81714794 0 319.81473225 0 2183.56826058 0 2274
0.04650000 0.04648670 39450.43335154 0 421.81417787 0 18577.54853247 0 962.24745967 0 2098.52569966 0 2311
0.04750000 0.04749250 38934.37813167 0 841.16890993 0 19977.20277079 0 3344.80235102 0 3416.60850198 0 2568
0.04850000 0.04851840 37630.06998336 0 -547.10860656 0 18495.82331247 0 -593.30202964 0 65.21002497 0 2493
0.04950000 0.04949480 37932.36542080 0 1066.91395951 0 16794.53271107 0 2278.44201397 0 1248.82507220 0 2644
0.05050000 0.05050630 37259.99973309 0 189.33668376 0 15002.72923160 0 -79.34727973 0 -2000.23574420 0 2829
0.05150000 0.05149060 35534.98245492 0 893.85970769 0 12791.31507952 0 2652.01634289 0 3578.48814811 0 2784
0.05250000 0.05249300 36418.14209046 0 -531.71043271 0 13059.11895906 0 2756.95196476 0 2017.55841516 0 3055
0.05350000 0.05348950 35885.17062881 0 -926.43775305 0 11734.59919720 0 3544.44695768 0 1919.35633628 0 3009
0.05450000 0.05448610 36190.43190085 0 518.24883902 0 11001.04944022 0 -341.93546451 0 -407.69680519 0 3336
0.05550000 0.05550870 35299.69291023 0 2147.06652589 0 12825.58694598 0 -3641.00135067 0 5047.72965373 0 3349
0.05650000 0.05647670 33445.82659567 0 869.77713076 0 14433.83821761 0 -1677.45407890 0 1312.20605599 0 3324
0.05750000 0.05747970 34185.08833040 0 296.27259629 0 16644.26375815 0 -719.21049593 0 11.75030714 0 3639
0.05850000 0.05849280 33050.71151992 0 -48.34387285 0 17732.28567234 0 -816.99296414 0 1021.51032720 0 3846
0.05950000 0.05951020 32172.60478777 0 924.99877405 0 18577.10914957 0 296.43406951 0 -527.52091673 0 3787
0.06050000 0.06049470 32606.71509619 0 830.46444395 0 18188.91435454 0 270.29298368 0 769.49127847 0 3930
0.06150000 0.06148310 32507.41456005 0 -16.97786523 0 20081.22667313 0 3058.03909921 0 321.96551156 0 4083
0.06250000 0.06249100 31631.83427959 0 378.22519695 0 18611.49086175 0 574.98195948 0 5233.96209728 0 4303
0.06350000 0.06350600 31471.78905708 0 86.58457522 0 16132.38267586 0 1734.70567119 0 3106.61287917 0 4470
0.06450000 0.06451750 31507.15938079 0 -77.03469767 0 16231.35367482 0 3079.33818545 0 3939.96846262 0 4479
0.06550000 0.06550280 31576.25234233 0 -111.17925292 0 14980.21085781 0 2352.59886346 0 5891.52058114 0 4636
0.06650000 0.06648880 31018.78528383 0 -540.49040158 0 11843.45631148 0 1816.73845923 0 7774.58388962 0 4653
0.06750000 0.06749660 31084.14349069 0 507.24888803 0 11698.56979913 0 1755.53242081 0 6876.27652849 0 5220
0.06850000 0.06852730 29872.10575206 0 1313.19466753 0 10086.56180367 0 -489.75595620 0 5173.09658060 0 5029
0.06950000 0.06949320 29425.91241381 0 503.64704668 0 10503.37141027 0 717.98901146 0 7482.17456750 0 5040
0.07050000 0.07048030 27775.59022918 0 51.57344704 0 10783.01665905 0 682.93614190 0 5585.18282099 0 5475
0.07150000 0.07148790 28249.90407325 0 -101.44516409 0 8216.69096687 0 1329.02343662 0 4335.34716811 0 5509
0.07250000 0.07249820 27908.39371169 0 364.09574124 0 8728.95650920 0 -761.50769112 0 3363.32234039 0 5916
0.07350000 0.07351270 27233.94095520 0 1089.16101436 0 8652.08647028 0 -347.42006160 0 3430.29527942 0 5721
0.07450000 0.07449140 26002.57036883 0 653.25802370 0 9030.57090314 0 -121.19059238 0 2155.27200161 0 6028
0.07550000 0.07549160 24778.33975464 0 469.89475051 0 9239.90390282 0 954.15512505 0 2138.81711189 0 6183
0.07650000 0.07648840 26121.64313561 0 -155.95786305 0 9040.74261735 0 1069.62934585 0 2301.41075523 0 6330
0.07750000 0.07749960 24350.49065260 0 -42.43307434 0 8344.92486718 0 -99.24330651 0 2030.32248850 0 6583
0.07850000 0.07848650 24338.84700566 0 601.60636651 0 7930.69663514 0 -620.51630821 0 2621.62203055 0 6549
0.07950000 0.07947320 24560.73537180 0 799.37370972 0 8244.62473494 0 484.22632236 0 1742.51570230 0 6828
0.08050000 0.08048110 24062.69485096 0 110.19833059 0 9321.58518454 0 -225.60774242 0 1874.05595896 0 7147
0.08150000 0.08149960 23292.12708438 0 549.87781731 0 9901.17517222 0 -20.77578120 0 2830.94404566 0 7386
0.08250000 0.08250610 22170.71206955 0 593.87432587 0 9052.97943120 0 98.95375318 0 3086.93950967 0 7227
0.08350000 0.08350160 22314.28043319 0 76.85894451 0 9528.25991765 0 1239.32341692 0 3441.09311427 0 7798
0.08450000 0.08449610 22286.26977311 0 23.40570756 0 9383.01091441 0 573.50343601 0 1567.45456907 0 7371
0.08550000 0.08548940 21882.36703929 0 -125.21204440 0 8344.25480826 0 1182.20363949 0 4067.75199546 0 8256
0.08650000 0.08650700 21974.63744898 0 198.88886807 0 8161.32872106 0 -258.65153366 0 2771.55046172 0 8037
0.08750000 0.08749060 21536.13331153 0 122.60979915 0 7255.88138775 0 -65.40884574 0 1384.37469785 0 8155
0.08850000 0.08849210 21591.60540307 0 56.28769605 0 7306.38845248 0 478.46711096 0 479.46670706 0 8718
0.08950000 0.08949900 21432.76848354 0 360.98600874 0 7018.65855828 0 28.95489394 0 767.19220743 0 8571
0.09050000 0.09049190 20310.14516573 0 729.51182810 0 7485.55781585 0 -950.27098018 0 661.22513419 0 8932
0.09150000 0.09150830 20395.49529468 0 795.26218420 0 8225.17105690 0 -253.28666841 0 104.53830988 0 9285
0.09250000 0.09250820 19641.40438697 0 -38.90999238 0 7466.88404247 0 881.42077770 0 41.31078056 0 9204
0.09350000 0.09350330 19544.19091963 0 -392.97967484 0 7824.20120396 0 939.96195882 0 -77.01228914 0 9349
0.09450000 0.09448040 19271.22429098 0 124.92095322 0 6509.05128252 0 748.62718131 0 471.10085658 0 9564
0.09550000 0.09549270 18909.06293298 0 694.79948029 0 6616.75501668 0 -923.61471790 0 154.33104785 0 10155
0.09650000 0.09649430 18757.58567708 0 363.90021585 0 7176.40800513 0 -354.09209099 0 -270.47862296 0 9913
0.09750000 0.09749140 18346.21343391 0 396.13224717 0 7470.13547595 0 373.91485067 0 -115.63898939 0 10476
0.09850000 0.09850240 17981.85516138 0 -243.85751131 0 7187.28273198 0 -256.60400933 0 -693.01778261 0 10575
0.09950000 0.09950330 17595.63758942 0 222.29369687 0 6983.20035799 0 670.83333983 0 -921.77260508 0 10882
0.10050000 0.10051200 17547.08577862 0 480.23452868 0 6625.52070560 0 476.17023683 0 -143.54749295 0 10875
0.10150000 0.10150300 16949.85456737 0 180.05801530 0 6345.19441332 0 995.65813563 0 735.40724821 0 11118
0.10250000 0.10250800 17123.30096843 0 193.25927462 0 6503.96542541 0 744.46732367 0 368.87293185 0 11575
0.10350000 0.10349800 16447.74975467 0 30.03204113 0 5553.20673021 0 148.98375792 0 1292.56564022 0 11364
0.10450000 0.10450100 16097.01235215 0 301.64954457 0 6002.79430139 0 -648.68953996 0 1455.57669733 0 12093
0.10550000 0.10551000 16078.33857876 0 111.54613765 0 5905.13046657 0 255.18260564 0 1490.25499297 0 12067
0.10650000 0.10649700 15685.42041753 0 250.73165683 0 5793.43933256 0 458.36644159 0 785.32004756 0 12054
0.10750000 0.10749900 15956.51966884 0 48.47722556 0 5978.02409022 0 706.58702512 0 1919.81768833 0 12807
0.10850000 0.10850100 15631.04678325 0 218.38977978 0 5651.83720742 0 -119.01564700 0 1178.64463798 0 12736
0.10950000 0.10950300 15316.33877880 0 370.67550021 0 6128.78734890 0 -344.36525197 0 1486.46531543 0 12933
0.11050000 0.11050200 14748.21668489 0 370.11748393 0 6197.11139035 0 -339.48700328 0 1286.73283218 0 13428
0.11150000 0.11150900 14542.25594899 0 188.69738163 0 6734.38880445 0 -289.18644852 0 1199.44941845 0 13453
0.11250000 0.11250000 14359.91204414 0 369.85824801 0 6703.42329435 0 -328.03009408 0 907.27187081 0 13668
0.11350000 0.11349100 13885.81789153 0 107.47228922 0 6784.43451713 0 275.26240432 0 -57.02552979 0 13791
0.11450000 0.11448600 13770.04049652 0 40.09434900 0 6326.18011818 0 1147.37155984 0 718.00658678 0 14205
0.11550000 0.11549300 14025.32196331 0 -154.39915220 0 6164.28948748 0 143.99017123 0 450.63879478 0 14776
0.11650000 0.11649800 13874.83331895 0 98.95946516 0 5459.14583519 0 391.32320130 0 610.01395836 0 14553
0.11750000 0.11747300 14063.43843017 0 -169.26457428 0 4831.88280251 0 520.43257205 0 51.07958065 0 14568
0.11850000 0.11849100 13930.08571903 0 -117.61181863 0 4793.35990647 0 283.10868451 0 566.58315529 0 16015
0.11950000 0.11950300 14016.20476807 0 174.63383336 0 4166.12982750 0 -116.68801607 0 175.88827154 0 15270
0.12050000 0.12050700 13706.22012982 0 288.29230431 0 4874.06356122 0 -337.27910420 0 81.64832800 0 15999
0.12150000 0.12150000 13693.03864273 0 163.26919456 0 4537.79284079 0 192.26077698 0 -518.12800872 0 15670
0.12250000 0.12250700 13484.99083803 0 38.06769535 0 4272.43852094 0 231.45922423 0 -705.82030196 0 16887
0.12350000 0.12352200 13524.09591642 0 -3.94873415 0 4910.88384851 0 155.85790344 0 -281.08752316 0 16407
0.12450000 0.12449800 13252.55728221 0 242.81178000 0 4341.28982188 0 24.78273358 0 -392.84126923 0 16306
0.12550000 0.12549900 13104.92462672 0 227.75522636 0 4936.67562493 0 -309.81327891 0 -171.95030227 0 17523
0.12650000 0.12650100 12678.83305629 0 181.23885685 0 4681.22938956 0 -34.42729816 0 -739.57369659 0 17154
0.12750000 0.12750600 12746.82756057 0 95.42671677 0 5006.20796937 0 188.29754319 0 108.10686797 0 18007
0.12850000 0.12850300 12418.05930321 0 79.96790808 0 4870.37274483 0 150.58970243 0 327.87850698 0 17496
0.12950000 0.12949900 12525.26873160 0 47.95435991 0 4465.02004744 0 883.73303023 0 579.46366510 0 18405
0.13050000 0.13049000 12600.07367088 0 -84.22651703 0 4318.96917040 0 290.30028418 0 749.02262592 0 18100
0.13150000 0.13148800 12327.43657941 0 169.30631565 0 4200.39070938 0 123.77086847 0 501.97409628 0 19059
0.13250000 0.13249300 12083.46922238 0 345.81301863 0 4425.43164785 0 -12.03217127 0 1253.22988581 0 18957
0.13350000 0.13349100 11880.25462963 0 -28.67445780 0 4031.03056932 0 229.56109009 0 1379.69526993 0 19468
0.13450000 0.13450700 11825.00222954 0 -76.98427848 0 3741.32345206 0 402.91302383 0 669.01429461 0 19953
0.13550000 0.13551000 11958.46478641 0 199.05034129 0 3910.90328357 0 75.83573157 0 1198.24111546 0 19956
0.13650000 0.13649900 11787.98421994 0 -83.63466826 0 3541.41521565 0 -36.61839085 0 1121.49190684 0 19723
0.13750000 0.13749600 11757.44710817 0 117.52394205 0 3666.01322244 0 -129.88158620 0 711.64212543 0 20946
0.13850000 0.13851100 11597.84126856 0 390.61359791 0 3632.91670526 0 -389.59313111 0 404.43109176 0 20955
0.13950000 0.13949800 11123.96680740 0 281.44671868 0 3746.23355600 0 -32.32891526 0 891.33655137 0 20506
0.14050000 0.14048300 11180.75704765 0 -52.68211995 0 4240.49538387 0 361.32103820 0 236.48466619 0 21447
0.14150000 0.14148400 11043.88927328 0 183.25452592 0 4172.97321622 0 23.12549112 0 272.55580563 0 21771
0.14250000 0.14249400 10779.52356497 0 241.00921164 0 4129.66104653 0 17.65429521 0 899.02794909 0 22470
0.14350000 0.14350900 10633.43973421 0 -17.92133017 0 3923.77720264 0 246.06431194 0 1516.31039913 0 22519
0.14450000 0.14449900 10417.83454358 0 -77.17672819 0 3984.47795072 0 484.02200931 0 710.67877841 0 22218
0.14550000 0.14550500 10567.00503924 0 104.44439178 0 3534.80250296 0 -17.80082941 0 912.45549061 0 23559
0.14650000 0.14650700 10468.30865459 0 146.76377580 0 3596.31610941 0 111.14849612 0 1291.11567664 0 23044
0.14750000 0.14750500 10354.13500718 0 115.25782472 0 3611.91420248 0 33.22877144 0 1122.89793213 0 23649
0.14850000 0.14849900 10186.71913647 0 97.30496883 0 3357.65430094 0 283.07133696 0 997.34756289 0 23640
0.14950000 0.14949500 10206.63416656 0 -19.99796361 0 3095.24384654 0 216.76186612 0 837.07825510 0 24457
0.15050000 0.15050000 10279.90126568 0 38.05627140 0 2825.82523484 0 207.10862373 0 450.08956615 0 24591
0.15150000 0.15149900 10078.44420454 0 71.51418103 0 2974.33665614 0 -77.50000416 0 699.00217776 0 25020
0.15250000 0.15250500 9676.33195605 0 320.33210562 0 2796.70513293 0 -3.93358643 0 953.74869586 0 25297
0.15350000 0.15350100 9536.19077906 0 137.92229333 0 3032.31323022 0 -93.59668698 0 683.96869172 0 25452
0.15450000 0.15450400 9359.56983652 0 242.98423779 0 3231.44156198 0 -50.69973413 0 399.68136257 0 26061
0.15550000 0.15549900 9179.10429358 0 65.60568928 0 2924.64244978 0 222.25415241 0 778.46787118 0 26128
0.15650000 0.15649500 9275.13142709 0 -75.52190233 0 2963.95623505 0 81.15698807 0 384.03054356 0 26331
0.15750000 0.15749700 8979.82217781 0 138.98559996 0 3007.68581850 0 5.36169071 0 722.96612130 0 27345
0.15850000 0.15849900 8946.14347828 0 81.62306348 0 2873.56418728 0 293.33861696 0 648.80158260 0 26980
0.15950000 0.15949700 8985.60006299 0 -50.81155708 0 2782.76571032 0 8.40173708 0 744.80235313 0 27777
0.16050000 0.16050000 8891.06683136 0 229.22606063 0 2886.83355096 0 58.08685919 0 619.85393848 0 28224
0.16150000 0.16150500 8961.88437079 0 -5.52856833 0 2745.70376243 0 -147.46129616 0 776.49504195 0 28075
0.16250000 0.16249700 8700.62729651 0 -95.92486714 0 2820.09128795 0 275.64356898 0 988.34900104 0 28590
0.16350000 0.16349900 9003.52688544 0 -8.71944387 0 2502.32957232 0 321.25810509 0 417.33466917 0 29163
0.16450000 0.16449100 8883.10301623 0 136.70739960 0 2716.85827483 0 46.94696476 0 939.50829597 0 28996
0.16550000 0.16550500 8989.80715429 0 40.30162788 0 2509.09606903 0 -393.69477052 0 427.05491745 0 30777
0.16650000 0.16650700 8751.61768244 0 158.58317590 0 2744.34167543 0 91.74644557 0 711.99143483 0 29211
0.16750000 0.16749900 8498.40131529 0 183.86197278 0 2658.57413272 0 -157.00798819 0 210.19968246 0 30922
0.16850000 0.16850800 8439.73271313 0 108.25351202 0 2629.48698452 0 -136.36577940 0 -17.90485331 0 30867
0.16950000 0.16949900 8336.84022176 0 133.07480145 0 2620.35880471 0 467.92301973 0 234.49645855 0 30852
0.17050000 0.17049200 8055.39350308 0 -104.18416726 0 2519.14695294 0 116.47601382 0 442.59369382 0 31257
0.17150000 0.17149500 8158.26402531 0 -58.72583178 0 2074.94182233 0 581.52876474 0 620.51740666 0 32608
0.17250000 0.17250900 8321.93415677 0 75.01551354 0 1762.33187123 0 29.05353540 0 123.68628727 0 32361
0.17350000 0.17350400 8104.34075851 0 132.36629652 0 2039.67035977 0 -213.79822844 0 229.42048756 0 32508
0.17450000 0.17449800 8020.64930001 0 296.90420922 0 2165.70734557 0 -396.93631788 0 174.15051216 0 32791
0.17550000 0.17549800 7716.00316404 0 183.51376183 0 2511.01836923 0 -209.59992480 0 230.01585140 0 33633
0.17650000 0.17650100 7679.47946021 0 1.37377459 0 2717.62719491 0 208.35317581 0 212.41966458 0 33984
0.17750000 0.17750300 7762.77547409 0 -100.59331048 0 2333.81524435 0 240.08760600 0 25.01714436 0 34069
0.17850000 0.17849800 7686.94896956 0 27.25371319 0 2416.02378555 0 79.61255716 0 164.46541452 0 34536
