### header ###
fiducial parameters:
Omega_m = 0.31
Omega_nu = 0
Omega_de = 0.69
Omega_k = 0
H_0 = 100
w_de = -1
zeff = 0
beta = 0
fgrowth = 0
b_1 = 2
gamma = 0.55
Lx = 3500 Ly = 3500 Lz = 3500
nx = 700 ny = 700 nz = 700
xoffset = -983.599254 yoffset = -42.9823471 zoffset = 800.977702
bins = 400 dk = 0.001
kx_ny = 0.628318531 ky_ny = 0.628318531 kz_ny = 0.628318531
############################
A(data) = 9.00719811 (not used)
A(ran) = 8.99992347 (used)
Ngal = 499614
weighted Ngal = 0
Nran = 25229228
weighted Nran = 0
SN(data) = 6757.14911
SN(ran) = 133.597663
SN(data+ran) = 6890.74677
############################
13 columns: k_central k_mean P_0(k) sigma^{lin}_{P_0(k)} P^img_1(k) sigma^{lin}_{P_1(k)} P_2(k) sigma^{lin}_{P_2(k)} P^img_3(k) sigma^{lin}_{P_3(k)} P_4(k) sigma^{lin}_{P_4(k)} N_modes
### header ###
0.00050000 0 0 0 0 0 0 0 0 0 0 0 0
0.00150000 0.00179520 35002.34053045 0 -15656.53099164 0 -16875.70870244 0 57046.73001532 0 40042.72150513 0 3
0.00250000 0.00253879 37997.72362766 0 -3818.19349098 0 14522.92310125 0 -44246.07804910 0 -30572.70179130 0 6
0.00350000 0.00331552 34698.50725285 0 1952.28808488 0 -21896.42729220 0 -3495.25804167 0 25058.88573837 0 7
0.00450000 0.00420575 37975.53479104 0 -14566.31216294 0 -26556.85190128 0 20471.94791985 0 20013.89124321 0 24
0.00550000 0.00557378 75038.36144630 0 -12227.91635183 0 -47085.59006138 0 -31908.86520009 0 -31328.98961352 0 45
0.00650000 0.00659388 74793.40547774 0 2983.75043484 0 -5855.18361504 0 -42003.90709380 0 -21520.86475564 0 40
0.00750000 0.00754703 63231.26407007 0 13323.73731254 0 -12212.97733311 0 -23412.73769133 0 -1376.12528385 0 57
0.00850000 0.00846663 64686.71993709 0 -9337.75447538 0 6319.31476032 0 9462.74792678 0 -2156.82082635 0 75
0.00950000 0.00948925 64568.96531902 0 -2690.72597666 0 8371.56245569 0 -4364.84074550 0 -35280.79944539 0 112
0.01050000 0.01054430 69171.72092206 0 12078.08678182 0 25101.17634280 0 -7428.70166817 0 5922.05769292 0 105
0.01150000 0.01145670 63129.76661942 0 8167.12857538 0 19355.14642550 0 11599.48895445 0 4319.72710590 0 144
0.01250000 0.01249090 66785.21268303 0 2441.81556197 0 39116.06296216 0 -302.10979816 0 15566.12795930 0 169
0.01350000 0.01339930 58768.01253882 0 -4088.30413076 0 31593.49812128 0 24308.30989388 0 18887.31347926 0 180
0.01450000 0.01448870 62167.07867839 0 -7454.03209255 0 21054.13026666 0 11398.69096766 0 19859.66784417 0 267
0.01550000 0.01550050 71464.31106551 0 2302.34444390 0 15267.12789363 0 3977.51373170 0 20700.97625817 0 238
0.01650000 0.01653350 72122.39680886 0 1507.35797247 0 18856.11729313 0 -1506.96252786 0 20284.55111161 0 315
0.01750000 0.01747870 70889.04899942 0 -4538.29813113 0 16138.97341941 0 -1232.71070422 0 25057.78728111 0 297
0.01850000 0.01844180 70420.11759593 0 5634.47059816 0 28887.11912869 0 3347.13108041 0 9717.15062776 0 388
0.01950000 0.01947590 67630.80508035 0 2662.29790282 0 33245.13845461 0 -4964.76317703 0 4752.59615762 0 399
0.02050000 0.02045430 65579.43615078 0 2678.07174905 0 36694.29424515 0 -6724.75533430 0 5211.87212182 0 462
0.02150000 0.02154770 67816.00497407 0 3151.07842897 0 41873.63006298 0 4425.51952443 0 -5332.99900367 0 571
0.02250000 0.02255340 65674.34285788 0 -126.48186099 0 39191.74666725 0 6804.08591748 0 6522.66116795 0 510
0.02350000 0.02348930 64897.95326783 0 -3149.99095629 0 32588.70039715 0 5639.67728557 0 -280.29114164 0 555
0.02450000 0.02439640 68302.40184797 0 -2691.07748299 0 35002.99960481 0 8346.72633709 0 9364.31517188 0 592
0.02550000 0.02547300 67621.02881075 0 -365.50616036 0 28981.14706999 0 3903.69740396 0 1312.39279373 0 837
0.02650000 0.02652900 70676.27782852 0 5898.94615221 0 28427.52461189 0 205.06109941 0 879.35677651 0 723
0.02750000 0.02749970 62736.73861245 0 1612.56820866 0 21473.19171064 0 -21.38311822 0 -6278.11162857 0 826
0.02850000 0.02848090 63766.98167486 0 2522.76087732 0 33222.62008082 0 -5742.08645574 0 -1636.43768488 0 831
0.02950000 0.02946900 58404.31334065 0 428.00947680 0 29789.28207480 0 6223.08990451 0 -4293.24330141 0 996
0.03050000 0.03053250 58150.89925120 0 129.80798957 0 22909.20488420 0 1133.17949206 0 -8951.65773371 0 1041
0.03150000 0.03150510 53610.75571187 0 4728.62782024 0 22139.84542060 0 3669.67108511 0 -2616.27254371 0 1036
0.03250000 0.03246190 53969.40200666 0 2324.44540394 0 25310.54229621 0 185.17023538 0 -8055.83288599 0 1059
0.03350000 0.03345080 52044.90489040 0 -1012.04931484 0 20849.26798802 0 1027.23658489 0 -5995.12706973 0 1302
0.03450000 0.03451200 52764.50424021 0 1194.98968198 0 21508.67188008 0 1944.39017720 0 -12871.50245937 0 1339
0.03550000 0.03553350 49811.85113034 0 -1054.85619419 0 16666.78213195 0 -2184.94133215 0 -977.19856141 0 1365
0.03650000 0.03647120 49927.95806253 0 1174.02013292 0 21480.22183709 0 6030.22277913 0 -9414.73436003 0 1308
0.03750000 0.03744890 50817.81828734 0 361.46273919 0 18589.96109949 0 -2209.28314500 0 -6644.94142992 0 1579
0.03850000 0.03847530 48225.34931242 0 1189.35459624 0 20020.37214103 0 3366.32112871 0 -2633.27666206 0 1662
0.03950000 0.03950240 47531.56370818 0 2068.79046168 0 22168.73484649 0 -1141.38496778 0 -2400.95295197 0 1683
0.04050000 0.04050350 45238.31449037 0 2139.69587769 0 20413.50999372 0 619.98355644 0 873.14829609 0 1822
0.04150000 0.04152450 44339.33707032 0 -294.68532555 0 21558.10245669 0 2848.38754692 0 2688.60595415 0 1887
0.04250000 0.04250150 42770.74010570 0 -352.10717872 0 17740.63394750 0 7512.57986440 0 7068.91297784 0 1920
0.04350000 0.04349210 45230.84498102 0 -8.42372819 0 17894.85734654 0 3269.40424482 0 1497.06542797 0 2005
0.04450000 0.04448520 43102.14466048 0 1919.15861398 0 14186.46564308 0 -978.76496146 0 7283.14509690 0 2151
0.04550000 0.04548030 40526.37223588 0 664.59629952 0 13910.42333411 0 545.56088028 0 6123.25112432 0 2274
0.04650000 0.04648670 40119.72335892 0 395.74778713 0 15225.38651782 0 976.16820850 0 4951.72448937 0 2311
0.04750000 0.04749250 38523.22557995 0 958.28422588 0 11822.80531503 0 -202.01727434 0 1616.97302226 0 2568
0.04850000 0.04851840 37834.05349619 0 821.17039709 0 13636.57793966 0 1732.06937377 0 3002.87457571 0 2493
0.04950000 0.04949480 36731.53194621 0 414.59182139 0 12355.66693095 0 734.54715617 0 4133.00035659 0 2644
0.05050000 0.05050630 36726.03965991 0 -365.59952922 0 11174.93522418 0 1592.74105515 0 437.62756856 0 2829
0.05150000 0.05149060 36185.70853464 0 1011.64618102 0 10079.30100120 0 1039.47889103 0 -275.04820515 0 2784
0.05250000 0.05249300 35725.01556058 0 604.70291752 0 10249.33120018 0 -1814.90403561 0 -19.07438075 0 3055
0.05350000 0.05348950 33285.89121889 0 727.95860954 0 12880.29011743 0 -831.95505045 0 347.86933062 0 3009
0.05450000 0.05448610 33787.33695723 0 680.75790116 0 11363.86987258 0 -166.26249059 0 -1514.53089837 0 3336
0.05550000 0.05550870 34128.62762733 0 264.70183624 0 12478.25476095 0 2150.09826793 0 -236.85264937 0 3349
0.05650000 0.05647670 34007.46779176 0 -1014.16494352 0 10769.38480447 0 1954.08955479 0 -2190.60937161 0 3324
0.05750000 0.05747970 33903.22419796 0 487.83804982 0 11430.87576532 0 -1661.69121724 0 -983.03686174 0 3639
0.05850000 0.05849280 34067.77309523 0 1037.28856726 0 11413.19060347 0 -367.40868833 0 -1340.17277779 0 3846
0.05950000 0.05951020 32986.56161605 0 -265.08959165 0 13040.66487712 0 -641.15412317 0 -1070.98044828 0 3787
0.06050000 0.06049470 31949.28842719 0 708.04248099 0 14263.35765115 0 -1267.00453982 0 -86.85611386 0 3930
0.06150000 0.06148310 31626.45183903 0 1258.86497154 0 13993.46670282 0 917.70501785 0 19.82352860 0 4083
0.06250000 0.06249100 31988.39350558 0 -136.69751349 0 14691.97567327 0 477.09733475 0 240.41824163 0 4303
0.06350000 0.06350600 33058.84010363 0 -1023.97965912 0 13746.64335692 0 4887.19012546 0 508.88778626 0 4470
0.06450000 0.06451750 31858.11647477 0 51.64264984 0 12901.38049679 0 -369.82419584 0 1395.26040928 0 4479
0.06550000 0.06550280 32007.83619905 0 951.96040745 0 11520.18034041 0 -1007.35670543 0 1339.74437946 0 4636
0.06650000 0.06648880 31360.84487401 0 546.35286797 0 11557.08850428 0 1254.32834306 0 1911.24972172 0 4653
0.06750000 0.06749660 30062.57824062 0 -321.04170901 0 11419.12227266 0 1433.69542874 0 4152.50895750 0 5220
0.06850000 0.06852730 30408.70212266 0 554.48474705 0 10401.56639159 0 -324.12947236 0 -195.63743459 0 5029
0.06950000 0.06949320 29965.91400190 0 831.85618930 0 9323.86997563 0 1993.94158411 0 2635.72622175 0 5040
0.07050000 0.07048030 29341.00166775 0 -58.96200009 0 8851.45646263 0 643.48504947 0 198.31437493 0 5475
0.07150000 0.07148790 28348.43568930 0 1073.52996758 0 9208.66377840 0 -660.31890695 0 563.70629573 0 5509
0.07250000 0.07249820 27026.66207059 0 1311.49205878 0 9925.06661758 0 -1897.91445060 0 1223.81320043 0 5916
0.07350000 0.07351270 25899.86461519 0 462.78004285 0 9885.74184774 0 590.26809069 0 -152.66688511 0 5721
0.07450000 0.07449140 25496.62095573 0 -292.33792239 0 9932.38234292 0 1496.73589079 0 -1673.87310824 0 6028
0.07550000 0.07549160 26332.43708345 0 -402.44837641 0 8274.83230954 0 2266.80935160 0 -434.43984559 0 6183
0.07650000 0.07648840 25767.28082414 0 -294.92918307 0 7368.53916415 0 -88.97701513 0 -63.59045959 0 6330
0.07750000 0.07749960 24966.17594578 0 1177.48027328 0 7620.06390711 0 -1770.99869900 0 -1846.35286691 0 6583
0.07850000 0.07848650 25308.23553596 0 892.65799545 0 7857.61627376 0 -991.60263143 0 -1856.63442684 0 6549
0.07950000 0.07947320 24509.10788067 0 -300.21935322 0 9040.68769449 0 631.57557588 0 -2074.96379147 0 6828
0.08050000 0.08048110 24535.58070059 0 227.88484432 0 7713.37785119 0 925.80833704 0 -3517.31506341 0 7147
0.08150000 0.08149960 24094.00088282 0 -147.10429755 0 7197.42149247 0 977.34245931 0 -1536.62087383 0 7386
0.08250000 0.08250610 24471.10125954 0 -277.25939961 0 6791.34381329 0 444.62034746 0 -1358.85753575 0 7227
0.08350000 0.08350160 23604.96771150 0 667.57751252 0 6454.72158653 0 -57.38428593 0 -1893.37782213 0 7798
0.08450000 0.08449610 23550.26454004 0 705.86314179 0 7171.79448464 0 -80.57974878 0 -2515.17053767 0 7371
0.08550000 0.08548940 22763.65929749 0 433.96531206 0 6624.32338719 0 804.11684816 0 494.80446576 0 8256
0.08650000 0.08650700 22787.82535717 0 -309.67157793 0 6441.40828456 0 705.96639677 0 -331.83515002 0 8037
0.08750000 0.08749060 22078.22196842 0 439.14783340 0 6080.78476672 0 329.13404363 0 677.24173947 0 8155
0.08850000 0.08849210 21689.14840759 0 608.56619169 0 6260.18480612 0 -42.92748996 0 -271.83302076 0 8718
0.08950000 0.08949900 20797.64049689 0 638.29703584 0 6477.92100382 0 65.81395678 0 1699.57700808 0 8571
0.09050000 0.09049190 20558.17681461 0 447.40713352 0 7568.22770910 0 -838.62158755 0 -560.62622158 0 8932
0.09150000 0.09150830 19702.25891907 0 574.91385513 0 7410.32447825 0 -555.45358635 0 1129.71935170 0 9285
0.09250000 0.09250820 18849.52654958 0 316.79617170 0 7800.14499001 0 -88.44876704 0 -338.21938361 0 9204
0.09350000 0.09350330 18669.26971353 0 377.87369063 0 7641.92320655 0 779.39936294 0 234.32400076 0 9349
0.09450000 0.09448040 18333.03194681 0 230.62110135 0 7682.88467771 0 702.66443426 0 927.19019628 0 9564
0.09550000 0.09549270 18051.60719728 0 339.59135672 0 7078.61235543 0 1031.26023383 0 1239.98249127 0 10155
0.09650000 0.09649430 17938.68579114 0 -187.97569521 0 6739.44170784 0 532.90006192 0 770.75230740 0 9913
0.09750000 0.09749140 17468.43623893 0 331.91094358 0 5966.65505760 0 542.25452394 0 851.39994084 0 10476
0.09850000 0.09850240 17083.75650713 0 -118.73663886 0 5380.83681726 0 630.92748610 0 2338.93405517 0 10575
0.09950000 0.09950330 17000.27375552 0 216.27524955 0 5690.17336572 0 -51.32991906 0 692.97933661 0 10882
0.10050000 0.10051200 16659.31262259 0 719.72127856 0 6116.92401051 0 -491.57609987 0 1168.92329124 0 10875
0.10150000 0.10150300 16090.53145433 0 466.33245362 0 5602.43958452 0 -267.45457013 0 620.71183360 0 11118
0.10250000 0.10250800 15591.17278478 0 111.60765126 0 6290.09579725 0 -455.14027262 0 323.60001596 0 11575
0.10350000 0.10349800 15521.96997752 0 150.36671561 0 6614.47022558 0 331.30020134 0 36.20515123 0 11364
0.10450000 0.10450100 15220.99268879 0 -134.93778496 0 6145.31913063 0 113.52665609 0 97.42294314 0 12093
0.10550000 0.10551000 15338.63746114 0 140.11920785 0 5832.37964236 0 438.06914837 0 -211.17401405 0 12067
0.10650000 0.10649700 15469.02433768 0 63.71930863 0 5341.14955652 0 803.52368124 0 -4.11022934 0 12054
0.10750000 0.10749900 15191.99341718 0 -82.13406580 0 4843.28478885 0 581.56940766 0 279.33109000 0 12807
0.10850000 0.10850100 15487.91780252 0 85.28367229 0 4789.64712093 0 37.80142932 0 -220.54385446 0 12736
0.10950000 0.10950300 15110.70758007 0 396.99233921 0 4908.91761002 0 -361.56489572 0 -182.31314805 0 12933
0.11050000 0.11050200 14304.87933551 0 383.76142153 0 5235.98325863 0 -675.96203677 0 258.43623604 0 13428
0.11150000 0.11150900 14011.81093904 0 83.16980115 0 4992.75186796 0 285.55824420 0 -340.36686755 0 13453
0.11250000 0.11250000 14260.28197083 0 152.18136700 0 5323.11288835 0 489.71860865 0 -420.75856044 0 13668
0.11350000 0.11349100 13887.57542314 0 41.43150102 0 4754.92488700 0 469.41582315 0 -276.25870505 0 13791
0.11450000 0.11448600 14292.79630567 0 -138.43637133 0 4850.02931641 0 27.19604418 0 -333.88816664 0 14205
0.11550000 0.11549300 13853.85278532 0 98.45823911 0 4504.94896877 0 93.41621045 0 365.89062040 0 14776
0.11650000 0.11649800 13840.89098967 0 68.23111197 0 4553.18222697 0 99.52462142 0 364.46152751 0 14553
0.11750000 0.11747300 14161.42081759 0 -74.48902297 0 4433.01100293 0 349.32588495 0 337.23626436 0 14568
0.11850000 0.11849100 14039.49206194 0 167.14565023 0 4529.96084054 0 53.38414398 0 -831.03234636 0 16015
0.11950000 0.11950300 13759.16576966 0 361.45504999 0 4624.42816474 0 -729.34815797 0 298.91768137 0 15270
0.12050000 0.12050700 13285.51099996 0 120.61939460 0 4539.75907928 0 211.96160790 0 142.72035463 0 15999
0.12150000 0.12150000 13195.98673342 0 11.15219716 0 4479.95906615 0 787.18522798 0 791.68121354 0 15670
0.12250000 0.12250700 13242.23178399 0 144.47898471 0 4275.19564866 0 313.38106809 0 -205.85528400 0 16887
0.12350000 0.12352200 13168.41545624 0 1.90062764 0 3682.70977277 0 475.46832264 0 661.95231290 0 16407
0.12450000 0.12449800 13083.72440164 0 -102.05909185 0 3626.75436004 0 386.21976887 0 610.02933676 0 16306
0.12550000 0.12549900 13210.81590640 0 -108.97069476 0 3244.07382045 0 193.37900647 0 637.43474690 0 17523
0.12650000 0.12650100 13184.56277793 0 170.51571709 0 2485.49022255 0 310.08679477 0 368.00295371 0 17154
0.12750000 0.12750600 13321.76008948 0 54.22160779 0 2937.65916829 0 -118.33789888 0 79.70944109 0 18007
0.12850000 0.12850300 13104.15570664 0 148.86182917 0 3142.42258578 0 -534.21161989 0 102.07249303 0 17496
0.12950000 0.12949900 12523.51119999 0 124.78035070 0 3034.48817560 0 -171.00233366 0 153.78731151 0 18405
0.13050000 0.13049000 12477.81537805 0 354.27663181 0 3169.09312801 0 -172.93781535 0 -192.25418623 0 18100
0.13150000 0.13148800 12464.30435378 0 249.29597319 0 3771.08065918 0 397.51081103 0 -296.03642798 0 19059
0.13250000 0.13249300 12122.02507214 0 -4.86202447 0 3529.02461778 0 -241.10697433 0 -1.78426806 0 18957
0.13350000 0.13349100 11923.31415414 0 253.04061398 0 3802.99084253 0 65.79418454 0 -90.69621059 0 19468
0.13450000 0.13450700 11617.39380775 0 -75.05538753 0 3780.37360759 0 416.60749046 0 531.92353342 0 19953
0.13550000 0.13551000 12022.28515310 0 52.99452119 0 3451.39664335 0 119.96141870 0 288.82615454 0 19956
0.13650000 0.13649900 11634.85927816 0 223.88755835 0 3609.83811826 0 -219.22460729 0 62.66138444 0 19723
0.13750000 0.13749600 11636.83650122 0 254.07755764 0 3779.71453323 0 -202.36987912 0 586.07857471 0 20946
0.13850000 0.13851100 11447.68216137 0 6.14938342 0 3827.20084050 0 235.04458872 0 807.35949399 0 20955
0.13950000 0.13949800 11324.87463991 0 -100.78883587 0 4072.03597877 0 123.56326005 0 232.44893422 0 20506
0.14050000 0.14048300 11355.85113459 0 387.87184859 0 3984.53287358 0 -144.73272833 0 208.58055646 0 21447
0.14150000 0.14148400 11031.14716909 0 59.76585111 0 4131.90189934 0 -0.36146603 0 1079.36716945 0 21771
0.14250000 0.14249400 11210.41539362 0 50.65074294 0 4186.59408622 0 109.82891942 0 355.77163214 0 22470
0.14350000 0.14350900 10699.74261431 0 267.24366633 0 4128.70538871 0 -159.21478882 0 512.74007587 0 22519
0.14450000 0.14449900 10762.35467802 0 69.98798451 0 4000.99874788 0 443.23409440 0 916.32535553 0 22218
0.14550000 0.14550500 10697.98508270 0 44.10844135 0 3760.67826895 0 484.81289854 0 475.14647466 0 23559
0.14650000 0.14650700 10616.11706325 0 8.49739073 0 3509.40617115 0 317.17184409 0 1198.94412811 0 23044
0.14750000 0.14750500 10377.24654789 0 6.03654989 0 3433.23914487 0 -11.26281180 0 767.57556901 0 23649
0.14850000 0.14849900 10062.78020403 0 297.32272143 0 3317.73636418 0 37.47485797 0 1081.26640204 0 23640
0.14950000 0.14949500 9939.85185228 0 263.52648697 0 3330.95080499 0 -313.06251548 0 735.19524595 0 24457
0.15050000 0.15050000 9965.99513502 0 131.18545497 0 3400.66988717 0 290.45956048 0 766.41779506 0 24591
0.15150000 0.15149900 9689.15095225 0 2.61209841 0 3639.16692705 0 333.02258232 0 967.73315522 0 25020
0.15250000 0.15250500 9731.63927900 0 -103.47763955 0 3116.15847274 0 15.27426787 0 928.77746701 0 25297
0.15350000 0.15350100 9715.20635842 0 47.38623781 0 3144.11420996 0 276.86615191 0 905.91307918 0 25452
0.15450000 0.15450400 9667.82989687 0 101.46449693 0 3040.28802992 0 -56.64469466 0 1001.45798995 0 26061
0.15550000 0.15549900 9610.30369026 0 201.41422131 0 2885.82297028 0 -113.70680308 0 1039.60191824 0 26128
0.15650000 0.15649500 9430.72789770 0 -9.36404056 0 3061.63105444 0 372.53738527 0 696.44057543 0 26331
0.15750000 0.15749700 9326.19870502 0 -10.05805684 0 2935.61603779 0 14.47338268 0 1063.67131368 0 27345
0.15850000 0.15849900 9299.16567190 0 230.45523430 0 2794.46428012 0 118.93545962 0 688.30100715 0 26980
0.15950000 0.15949700 8995.67291605 0 34.66258770 0 2628.88283303 0 208.40150793 0 893.43240782 0 27777
0.16050000 0.16050000 9125.35677994 0 94.53938300 0 2547.54207307 0 198.83394521 0 706.86493481 0 28224
0.16150000 0.16150500 9012.50128124 0 126.23910193 0 2283.08848817 0 -51.51577803 0 670.86629355 0 28075
0.16250000 0.16249700 8697.96902995 0 140.75960843 0 2513.00657687 0 -115.99818492 0 333.42242076 0 28590
0.16350000 0.16349900 8678.39452161 0 69.45688043 0 2474.26398937 0 -113.10375004 0 287.49262743 0 29163
0.16450000 0.16449100 8444.22540332 0 98.55259659 0 2455.39249368 0 64.96001610 0 244.94608245 0 28996
0.16550000 0.16550500 8367.81671644 0 55.99715411 0 2266.30406126 0 -104.19273523 0 -121.48278201 0 30777
0.16650000 0.16650700 8309.82915779 0 79.93297714 0 2385.58553493 0 278.13487005 0 128.69854773 0 29211
0.16750000 0.16749900 8431.65905229 0 149.07053604 0 2390.26496285 0 -38.07197934 0 71.84514620 0 30922
0.16850000 0.16850800 8318.30924782 0 -182.86786896 0 2199.07847707 0 107.05762160 0 -0.43755727 0 30867
0.16950000 0.16949900 8159.59315859 0 30.15407973 0 2014.60356514 0 371.71464078 0 141.20448362 0 30852
0.17050000 0.17049200 8370.38710643 0 121.48388046 0 1861.14908617 0 110.40264364 0 299.94144353 0 31257
0.17150000 0.17149500 8165.83239582 0 73.31224571 0 1823.49397137 0 6.49872578 0 306.23889900 0 32608
0.17250000 0.17250900 8191.03100532 0 114.68552849 0 1736.34237251 0 246.73107549 0 280.15383449 0 32361
0.17350000 0.17350400 7977.09546972 0 -72.32264557 0 1797.75711781 0 -228.66804434 0 515.87507288 0 32508
0.17450000 0.17449800 7894.32671532 0 187.51873699 0 1908.25093340 0 43.33358960 0 348.10000665 0 32791
0.17550000 0.17549800 7847.77409672 0 142.88951705 0 2084.69612278 0 -53.45664216 0 565.22875749 0 33633
0.17650000 0.17650100 7802.68242628 0 134.28310444 0 1929.60494250 0 -4.86388086 0 602.63781787 0 33984
0.17750000 0.17750300 7782.47081273 0 -14.40956231 0 2046.53571763 0 112.98401820 0 350.47816661 0 34069
0.17850000 0.17849800 7447.29854955 0 108.59051870 0 2322.09470541 0 -101.61784157 0 493.34681297 0 34536
