### header ###
fiducial parameters:
Omega_m = 0.31
Omega_nu = 0
Omega_de = 0.69
Omega_k = 0
H_0 = 100
w_de = -1
zeff = 0
beta = 0
fgrowth = 0
b_1 = 2
gamma = 0.55
Lx = 3500 Ly = 3500 Lz = 3500
nx = 700 ny = 700 nz = 700
xoffset = -983.599254 yoffset = -42.9823471 zoffset = 800.977702
bins = 400 dk = 0.001
kx_ny = 0.628318531 ky_ny = 0.628318531 kz_ny = 0.628318531
############################
A(data) = 9.0646602 (not used)
A(ran) = 9.06533864 (used)
Ngal = 503338
weighted Ngal = 0
Nran = 25229228
weighted Nran = 0
SN(data) = 6732.77562
SN(ran) = 134.568707
SN(data+ran) = 6867.34433
############################
13 columns: k_central k_mean P_0(k) sigma^{lin}_{P_0(k)} P^img_1(k) sigma^{lin}_{P_1(k)} P_2(k) sigma^{lin}_{P_2(k)} P^img_3(k) sigma^{lin}_{P_3(k)} P_4(k) sigma^{lin}_{P_4(k)} N_modes
### header ###
0.00050000 0 0 0 0 0 0 0 0 0 0 0 0
0.00150000 0.00179520 97825.08834622 0 -43006.90841620 0 -2141.90377678 0 -2793.96997435 0 73256.11454498 0 3
0.00250000 0.00253879 90623.27302471 0 15799.00089802 0 -674.24954190 0 -61474.94076004 0 30984.40357165 0 6
0.00350000 0.00331552 51572.34857795 0 41609.56093813 0 22148.96261584 0 -22021.98095680 0 83400.14763240 0 7
0.00450000 0.00420575 46624.12816724 0 -14371.44584535 0 7441.77330955 0 28252.54037067 0 6870.35584386 0 24
0.00550000 0.00557378 76020.38223507 0 -24629.49879616 0 -1772.48161630 0 1453.58848969 0 -30961.00643205 0 45
0.00650000 0.00659388 106529.59319685 0 13511.90304086 0 -15117.40816935 0 -30773.06039518 0 -59372.49356797 0 40
0.00750000 0.00754703 109361.74554550 0 14064.09750452 0 29899.56718351 0 -72255.09044564 0 -12612.15670072 0 57
0.00850000 0.00846663 80578.87001060 0 8365.38912590 0 24966.50548296 0 -23825.09854603 0 4088.84237482 0 75
0.00950000 0.00948925 71290.75481872 0 -3264.75777062 0 60240.16495617 0 20708.66545898 0 -34424.22247549 0 112
0.01050000 0.01054430 79235.78632108 0 8819.56824842 0 54534.44842024 0 3895.75555798 0 -19109.31169113 0 105
0.01150000 0.01145670 79971.09360968 0 8266.22040464 0 58211.75378330 0 19084.92594000 0 -29412.95061816 0 144
0.01250000 0.01249090 82222.93098885 0 -9489.49536101 0 39983.95404182 0 26825.20500945 0 21999.68227446 0 169
0.01350000 0.01339930 83616.32402080 0 -12595.13061322 0 19522.11192874 0 18908.40385862 0 -16142.26879119 0 180
0.01450000 0.01448870 85999.75657950 0 -1295.02618448 0 15296.67639388 0 6217.33398848 0 1223.13215693 0 267
0.01550000 0.01550050 91969.87177746 0 10247.41988455 0 8797.13775121 0 -23264.77549866 0 -10156.88503734 0 238
0.01650000 0.01653350 79764.25410797 0 6093.77951608 0 29029.14965217 0 -17121.21389964 0 -3273.16096864 0 315
0.01750000 0.01747870 70405.61796012 0 2527.05584520 0 31018.45574665 0 -2548.93711378 0 -17297.95567247 0 297
0.01850000 0.01844180 70177.24869615 0 5886.26995545 0 39860.37760028 0 -579.77782387 0 -37558.67026158 0 388
0.01950000 0.01947590 69479.50864579 0 1628.95719095 0 34581.30186341 0 6596.01614364 0 -28342.28432866 0 399
0.02050000 0.02045430 67255.02285234 0 1211.56540200 0 27968.69901516 0 3641.93503934 0 -24653.99439302 0 462
0.02150000 0.02154770 66539.59764012 0 -222.04874090 0 28200.69318808 0 -1168.22027860 0 -19899.10245973 0 571
0.02250000 0.02255340 63033.10238070 0 3587.91291139 0 34200.68642346 0 -687.64083434 0 -12337.65223191 0 510
0.02350000 0.02348930 61152.76324622 0 -2129.66696293 0 18259.54515624 0 12842.17365057 0 -7350.14000507 0 555
0.02450000 0.02439640 65244.84606995 0 -3108.56813308 0 19191.69598549 0 8119.41159209 0 -7941.83499174 0 592
0.02550000 0.02547300 65694.88400861 0 823.44530207 0 14023.67427742 0 4590.38697431 0 -12718.81690049 0 837
0.02650000 0.02652900 61672.55322077 0 4268.90148857 0 19844.83867118 0 1163.85940328 0 5249.67003607 0 723
0.02750000 0.02749970 59463.55567467 0 4587.24538655 0 19622.95030504 0 -6676.42321494 0 1618.59873901 0 826
0.02850000 0.02848090 58128.05134023 0 -3566.97631605 0 16222.67586248 0 10504.82137385 0 8990.87265783 0 831
0.02950000 0.02946900 61897.95665014 0 -2816.51031729 0 14996.02864232 0 5817.94591399 0 -3136.83143834 0 996
0.03050000 0.03053250 59198.16840110 0 2774.20872828 0 12146.41082327 0 -6762.28961881 0 5106.59597820 0 1041
0.03150000 0.03150510 58861.16171431 0 4364.61006947 0 19876.80377739 0 -5391.31609950 0 -2129.94157724 0 1036
0.03250000 0.03246190 53078.66301603 0 1734.20038085 0 25343.93539685 0 -5416.50372443 0 -4823.10612902 0 1059
0.03350000 0.03345080 52345.22310478 0 1846.25400575 0 25335.25758451 0 2378.54442390 0 1685.02244941 0 1302
0.03450000 0.03451200 53242.77253040 0 -2330.66267202 0 20888.26322068 0 7608.25549159 0 -4972.01299493 0 1339
0.03550000 0.03553350 53667.32626067 0 -752.50363697 0 18926.30871193 0 3662.72883524 0 -4213.52825819 0 1365
0.03650000 0.03647120 54264.77716337 0 1854.08600600 0 14936.27256748 0 67.57983666 0 -3964.37618290 0 1308
0.03750000 0.03744890 51220.29302672 0 1207.54504844 0 16662.16861146 0 -1338.27244673 0 -1161.33295159 0 1579
0.03850000 0.03847530 50576.04784483 0 402.72958146 0 15550.52986623 0 -1147.64617415 0 -7021.58045459 0 1662
0.03950000 0.03950240 47047.36374880 0 3481.98867799 0 15718.48398100 0 -215.10099875 0 -4505.00389163 0 1683
0.04050000 0.04050350 45917.82015026 0 -428.11602716 0 13587.36705449 0 4186.38537934 0 -2277.68407846 0 1822
0.04150000 0.04152450 48415.93164671 0 -1567.70721424 0 13076.58442946 0 6228.10985418 0 -9059.35048330 0 1887
0.04250000 0.04250150 47667.00348811 0 1318.64301553 0 9694.41256252 0 -4543.30709622 0 -6164.36637949 0 1920
0.04350000 0.04349210 44684.36249510 0 2017.67924546 0 12854.58621759 0 -1785.92673314 0 -3576.44501761 0 2005
0.04450000 0.04448520 42248.75321664 0 1507.09434273 0 13829.02765128 0 -4683.21759719 0 -6574.27767451 0 2151
0.04550000 0.04548030 41207.08619875 0 3083.78693734 0 16643.16530090 0 825.21821209 0 -9305.95413775 0 2274
0.04650000 0.04648670 40177.17267352 0 759.46675753 0 20353.97361033 0 -1901.77003558 0 -6325.61990498 0 2311
0.04750000 0.04749250 38022.21922451 0 -374.40695952 0 19266.72061622 0 1403.02650210 0 -4995.04764363 0 2568
0.04850000 0.04851840 38556.83837205 0 696.76132495 0 18850.29546967 0 2155.42578563 0 -1966.76575154 0 2493
0.04950000 0.04949480 37682.13685739 0 54.36506631 0 17051.24217229 0 4338.49974045 0 -2576.77202070 0 2644
0.05050000 0.05050630 37683.67469756 0 56.73070386 0 15521.20105744 0 3000.57880004 0 39.22063609 0 2829
0.05150000 0.05149060 38182.37429275 0 791.38463008 0 14940.44670506 0 1091.93461894 0 1614.86398433 0 2784
0.05250000 0.05249300 35807.50970066 0 568.53621229 0 14501.94256762 0 652.11892352 0 4567.25346445 0 3055
0.05350000 0.05348950 34679.17440511 0 696.29118524 0 18312.93017899 0 -1376.18020671 0 4351.70319669 0 3009
0.05450000 0.05448610 35241.47467555 0 1664.50326782 0 16634.70718001 0 -751.19757129 0 1057.72097072 0 3336
0.05550000 0.05550870 34681.92054825 0 -987.01108010 0 14955.16603232 0 2445.77000810 0 662.02481108 0 3349
0.05650000 0.05647670 34594.15381333 0 -861.54309516 0 14802.15093626 0 1229.55813189 0 1336.69066828 0 3324
0.05750000 0.05747970 34772.65311777 0 1129.79624371 0 13973.58462645 0 303.01492694 0 -42.39858279 0 3639
0.05850000 0.05849280 33262.82361647 0 1255.59156891 0 14907.71267877 0 -1225.52679376 0 2591.70005484 0 3846
0.05950000 0.05951020 31912.70980050 0 652.96693253 0 14845.53999796 0 193.97766567 0 433.60831345 0 3787
0.06050000 0.06049470 31443.22916837 0 315.90422441 0 13492.02096449 0 2534.12990994 0 -557.24407168 0 3930
0.06150000 0.06148310 31776.39125476 0 -545.78057173 0 13534.86079755 0 1251.40644676 0 424.66796982 0 4083
0.06250000 0.06249100 31134.56267883 0 938.13192902 0 13344.05877182 0 57.87452741 0 627.85180578 0 4303
0.06350000 0.06350600 29845.41324069 0 753.58671583 0 11079.14975127 0 -532.80559460 0 -437.38151413 0 4470
0.06450000 0.06451750 30490.75687984 0 125.46688648 0 12881.82795759 0 -123.96968924 0 -4048.95739177 0 4479
0.06550000 0.06550280 29679.32650326 0 493.05682026 0 11453.61383057 0 363.01705621 0 -1087.88021320 0 4636
0.06650000 0.06648880 29354.51269203 0 -222.61005256 0 11528.08923267 0 1021.84535667 0 -2812.28125685 0 4653
0.06750000 0.06749660 29293.65815993 0 -1174.92086787 0 9551.98659443 0 705.07225256 0 -3377.20684013 0 5220
0.06850000 0.06852730 30350.15435080 0 536.50519865 0 8243.84483029 0 2048.47998698 0 -5483.15811086 0 5029
0.06950000 0.06949320 30392.55480096 0 589.60791788 0 9751.63120110 0 -916.68564952 0 -1200.97627404 0 5040
0.07050000 0.07048030 28261.76741163 0 616.49375773 0 8878.53343404 0 -477.62239732 0 -2741.69439344 0 5475
0.07150000 0.07148790 28569.11575246 0 988.30396429 0 11585.97793017 0 -248.21948508 0 -3158.86649093 0 5509
0.07250000 0.07249820 27647.51011289 0 427.24714747 0 10662.73558928 0 -203.81654733 0 -739.83073558 0 5916
0.07350000 0.07351270 27418.26208311 0 -142.99387049 0 11905.40930084 0 1653.40884952 0 -1680.68354324 0 5721
0.07450000 0.07449140 26232.91685586 0 462.08911324 0 11403.85371677 0 -160.39453192 0 1662.81164365 0 6028
0.07550000 0.07549160 26384.50395748 0 938.24287321 0 11830.05513293 0 1047.22631007 0 -210.43585077 0 6183
0.07650000 0.07648840 25638.32194203 0 482.78734335 0 11347.83239661 0 -687.22891286 0 1579.29593831 0 6330
0.07750000 0.07749960 24738.90513907 0 389.46790699 0 11401.87649371 0 643.28732717 0 603.16397890 0 6583
0.07850000 0.07848650 24720.45105714 0 566.33600241 0 13184.78246939 0 77.17101621 0 1747.82125085 0 6549
0.07950000 0.07947320 23595.63082481 0 279.72763307 0 11147.58363845 0 813.56797441 0 836.92666800 0 6828
0.08050000 0.08048110 23517.96989666 0 182.83601370 0 11037.40837546 0 1059.80254722 0 1096.76233859 0 7147
0.08150000 0.08149960 23316.73252697 0 -182.33841256 0 9632.39366573 0 1575.86875166 0 1916.39050169 0 7386
0.08250000 0.08250610 23398.45774697 0 60.86562652 0 9788.23179694 0 -22.34602585 0 273.34669486 0 7227
0.08350000 0.08350160 22522.21839216 0 580.98392994 0 8763.93138830 0 569.29524626 0 1943.00612105 0 7798
0.08450000 0.08449610 22046.36670793 0 279.04549111 0 9141.85560796 0 -637.91587117 0 674.73506001 0 7371
0.08550000 0.08548940 22206.85131335 0 336.14769322 0 8920.07708754 0 361.39243793 0 1063.06935911 0 8256
0.08650000 0.08650700 21527.34565346 0 75.60472601 0 8404.59306545 0 652.13979421 0 617.93493365 0 8037
0.08750000 0.08749060 22335.48065827 0 -468.13172661 0 7915.59284784 0 1421.32680002 0 627.45196733 0 8155
0.08850000 0.08849210 21695.29976823 0 -9.23306051 0 7447.65005588 0 0.42076405 0 -456.14755793 0 8718
0.08950000 0.08949900 21306.44589885 0 1134.90406996 0 7215.05173147 0 -145.22593564 0 1604.86802328 0 8571
0.09050000 0.09049190 20197.00406814 0 557.87678306 0 8142.10571904 0 -499.25651302 0 1961.38331098 0 8932
0.09150000 0.09150830 19846.48635707 0 149.05296073 0 8101.27606276 0 1738.80291676 0 2270.59902914 0 9285
0.09250000 0.09250820 19676.55501923 0 299.32301210 0 7167.15899501 0 921.31454840 0 1951.92559399 0 9204
0.09350000 0.09350330 19711.59580577 0 368.07655034 0 7623.15057201 0 -290.58917844 0 1889.86275890 0 9349
0.09450000 0.09448040 18564.47689110 0 473.94586088 0 7785.61240049 0 -1169.05510611 0 2569.26955763 0 9564
0.09550000 0.09549270 17548.29408160 0 346.55337883 0 7999.55892065 0 -81.15808652 0 1918.42264761 0 10155
0.09650000 0.09649430 17658.68903604 0 151.58929854 0 8439.64483655 0 1116.46097260 0 2360.05738825 0 9913
0.09750000 0.09749140 17777.10272847 0 225.40562628 0 7288.74722891 0 377.65949146 0 967.73315522 0 10476
0.09850000 0.09850240 17368.58647417 0 -41.61252677 0 7494.65304195 0 753.23960333 0 2080.66478464 0 10575
0.09950000 0.09950330 17395.93805990 0 105.71717421 0 7069.90158938 0 -60.14679609 0 1672.98335786 0 10882
0.10050000 0.10051200 16994.34208632 0 180.63031153 0 6481.74363508 0 348.55037412 0 2161.70896115 0 10875
0.10150000 0.10150300 17029.71241003 0 85.61793284 0 6846.90378140 0 483.88470215 0 2156.50227374 0 11118
0.10250000 0.10250800 16726.31851534 0 139.93247011 0 6194.93644498 0 431.10273244 0 1784.75138387 0 11575
0.10350000 0.10349800 16996.42915511 0 142.51823850 0 6202.97715211 0 329.83156399 0 2133.70928564 0 11364
0.10450000 0.10450100 16206.85807797 0 364.11331655 0 6306.72644014 0 -1313.73291158 0 633.88123767 0 12093
0.10550000 0.10551000 15871.05969415 0 766.20689127 0 7562.26308619 0 -636.92725964 0 1028.85790780 0 12067
0.10650000 0.10649700 15296.45670242 0 -180.85659372 0 6842.09253861 0 283.07023851 0 631.36577054 0 12054
0.10750000 0.10749900 15604.24442615 0 -242.64481449 0 6605.51779893 0 1378.80551956 0 194.36871646 0 12807
0.10850000 0.10850100 15875.67321464 0 90.09974830 0 6384.18964599 0 883.49466500 0 411.88522271 0 12736
0.10950000 0.10950300 15502.08790115 0 250.79866272 0 5430.21247101 0 -92.77668863 0 566.49967254 0 12933
0.11050000 0.11050200 15153.54741314 0 -23.94450085 0 5328.45139062 0 290.59357227 0 1113.94550547 0 13428
0.11150000 0.11150900 15224.28806056 0 145.16771741 0 5203.12840204 0 341.02264653 0 348.92055422 0 13453
0.11250000 0.11250000 14793.14358675 0 236.94272287 0 5166.06645415 0 28.44125533 0 1755.77408140 0 13668
0.11350000 0.11349100 14638.04142190 0 237.63584940 0 4989.02809786 0 538.86907867 0 1195.80254035 0 13791
0.11450000 0.11448600 14647.48815432 0 -52.38366911 0 4902.29391276 0 -139.10643026 0 1243.91496826 0 14205
0.11550000 0.11549300 14305.75810131 0 317.80675238 0 4638.07100388 0 690.93510765 0 1279.94436632 0 14776
0.11650000 0.11649800 14233.91899663 0 117.87105454 0 5114.62570075 0 -579.16488472 0 1900.75945490 0 14553
0.11750000 0.11747300 13774.32447983 0 297.78077811 0 5110.26482544 0 -368.10950406 0 847.06323158 0 14568
0.11850000 0.11849100 13612.19218853 0 168.96908928 0 4791.13003823 0 559.05982153 0 1021.14014711 0 16015
0.11950000 0.11950300 13663.59998821 0 -121.94083868 0 4663.22567509 0 565.50776563 0 1529.21727191 0 15270
0.12050000 0.12050700 13555.95117691 0 -77.12927484 0 4360.30411702 0 389.92156983 0 328.41455412 0 15999
0.12150000 0.12150000 13468.29428771 0 245.38326844 0 3963.28871021 0 -0.04474741 0 1021.75967700 0 15670
0.12250000 0.12250700 13230.03890842 0 126.83995805 0 3383.63281509 0 -267.17116815 0 161.86426773 0 16887
0.12350000 0.12352200 12910.05830913 0 127.45838949 0 3437.31442130 0 374.15760972 0 284.62785090 0 16407
0.12450000 0.12449800 12838.32905017 0 188.26898330 0 3662.71785067 0 144.80302960 0 -170.78264221 0 16306
0.12550000 0.12549900 12980.57926510 0 76.12879997 0 3326.68879083 0 200.00160527 0 65.43180350 0 17523
0.12650000 0.12650100 12705.52556766 0 75.49202429 0 3323.16274303 0 -337.32084557 0 -450.92768904 0 17154
0.12750000 0.12750600 12530.32163499 0 19.98423290 0 3202.77182754 0 5.93243811 0 -411.39970460 0 18007
0.12850000 0.12850300 12569.09717620 0 91.57497639 0 3331.12655816 0 105.96608462 0 -309.17177987 0 17496
0.12950000 0.12949900 12406.41565627 0 138.01456374 0 3789.73246343 0 -135.71878807 0 -545.78496556 0 18405
0.13050000 0.13049000 12295.58131893 0 351.00542609 0 3861.32990751 0 -351.36572007 0 -276.85187197 0 18100
0.13150000 0.13148800 12018.00116980 0 11.69033137 0 4073.01360573 0 337.83712048 0 145.36653817 0 19059
0.13250000 0.13249300 12296.13054756 0 -238.34655124 0 3760.89796040 0 604.26023924 0 517.39533773 0 18957
0.13350000 0.13349100 12181.23191835 0 -135.59356394 0 3445.65171189 0 325.86613328 0 392.18988407 0 19468
0.13450000 0.13450700 12413.99501135 0 179.08038834 0 3353.66690109 0 -114.32413605 0 201.13850854 0 19953
0.13550000 0.13551000 12063.58714601 0 371.36423292 0 3638.79345159 0 -305.59520304 0 763.25423816 0 19956
0.13650000 0.13649900 11881.46293261 0 252.24862630 0 4368.00430240 0 -545.46092067 0 75.65064152 0 19723
0.13750000 0.13749600 11399.13035056 0 324.88521095 0 4277.37059403 0 -214.65832047 0 317.26411450 0 20946
0.13850000 0.13851100 11350.02931112 0 198.93170791 0 4626.95461643 0 380.70880881 0 93.74915284 0 20955
0.13950000 0.13949800 11224.58549225 0 -12.79087570 0 4301.07530166 0 -21.20604691 0 148.94970575 0 20506
0.14050000 0.14048300 11005.00388634 0 37.97586433 0 4307.45733833 0 629.42809194 0 588.95213889 0 21447
0.14150000 0.14148400 11011.26509272 0 -21.75176047 0 3879.87186603 0 322.73772701 0 662.52131376 0 21771
0.14250000 0.14249400 11059.48736635 0 66.17699690 0 3509.87850777 0 118.42028317 0 97.44348429 0 22470
0.14350000 0.14350900 10641.31567275 0 244.89445496 0 3801.37611036 0 -156.15119153 0 461.05546496 0 22519
0.14450000 0.14449900 10479.65571807 0 361.89662981 0 3724.67084003 0 -219.36630828 0 409.37964171 0 22218
0.14550000 0.14550500 10210.72042756 0 -6.90617654 0 3751.26449025 0 295.69920160 0 177.31626598 0 23559
0.14650000 0.14650700 10283.15269916 0 -29.05617170 0 3321.64687202 0 440.75817174 0 182.72726643 0 23044
0.14750000 0.14750500 10248.97969386 0 26.68493202 0 2985.38713616 0 -8.06265431 0 14.92825383 0 23649
0.14850000 0.14849900 10051.27935654 0 -45.84279552 0 3074.21937462 0 373.23051180 0 585.70400078 0 23640
0.14950000 0.14949500 10250.31981172 0 130.72629983 0 3072.15427498 0 -63.31320898 0 -73.76074581 0 24457
0.15050000 0.15050000 9947.77172911 0 108.60326081 0 2972.99653829 0 -58.65245484 0 323.17271609 0 24591
0.15150000 0.15149900 10118.02161955 0 -46.95498349 0 2730.45717569 0 455.71366731 0 234.22623807 0 25020
0.15250000 0.15250500 10030.96888184 0 -14.64814723 0 2962.91270066 0 -247.43628505 0 472.79797305 0 25297
0.15350000 0.15350100 10004.16652474 0 212.31640960 0 2812.22633399 0 155.36689305 0 318.07807132 0 25452
0.15450000 0.15450400 9787.84733690 0 204.24494566 0 3107.40376839 0 -71.55976700 0 586.92658371 0 26061
0.15550000 0.15549900 9484.84888681 0 173.16190063 0 3034.56506760 0 143.34537681 0 590.33399812 0 26128
0.15650000 0.15649500 9484.11292045 0 65.60008715 0 2907.31977882 0 466.03037788 0 1213.10324217 0 26331
0.15750000 0.15749700 9491.69227553 0 -103.23378204 0 2811.45741390 0 261.81399210 0 914.39866150 0 27345
0.15850000 0.15849900 9302.24135222 0 47.67194655 0 2283.83543910 0 228.91629568 0 1221.46250190 0 26980
0.15950000 0.15949700 9322.89234867 0 112.35789756 0 2325.03857086 0 53.99752251 0 1029.71360601 0 27777
0.16050000 0.16050000 9121.76482471 0 182.58556545 0 2208.47028662 0 -134.86638524 0 1035.55190633 0 28224
0.16150000 0.16150500 8920.23087156 0 211.84846680 0 2785.43496146 0 -423.26414145 0 924.38913027 0 28075
0.16250000 0.16249700 8650.81225986 0 148.42684009 0 2363.84706579 0 248.24694651 0 1223.91206159 0 28590
0.16350000 0.16349900 8783.15439032 0 -99.08051515 0 2615.32787046 0 400.68645096 0 860.85875629 0 29163
0.16450000 0.16449100 8832.72776638 0 -23.43679391 0 2214.75346214 0 141.45822725 0 880.49807360 0 28996
0.16550000 0.16550500 8896.59207136 0 91.20380769 0 2299.92783794 0 -102.49847475 0 732.11627026 0 30777
0.16650000 0.16650700 8594.46140251 0 54.93055211 0 2136.00506131 0 -100.66921388 0 901.03812587 0 29211
0.16750000 0.16749900 8647.50590351 0 69.16194465 0 2268.50097578 0 -97.88198843 0 210.96530717 0 30922
0.16850000 0.16850800 8503.33338838 0 144.29444389 0 2403.66614139 0 -214.57044389 0 322.16103695 0 30867
0.16950000 0.16949900 8427.17734667 0 106.27079667 0 2373.21690620 0 218.19425438 0 308.56323455 0 30852
0.17050000 0.17049200 8425.09027788 0 -30.92113243 0 2008.08971360 0 329.20214798 0 270.42260164 0 31257
0.17150000 0.17149500 8351.75727133 0 17.50073088 0 1960.85605150 0 130.00681033 0 346.85984840 0 32608
0.17250000 0.17250900 8177.36619703 0 160.24074790 0 1890.99416988 0 39.99878321 0 94.69217840 0 32361
0.17350000 0.17350400 8185.11032070 0 119.47370368 0 1857.69993038 0 -35.81772535 0 303.47408208 0 32508
0.17450000 0.17449800 7944.67999604 0 55.97408650 0 1935.37184311 0 -108.87117453 0 709.50892143 0 32791
0.17550000 0.17549800 7816.12754312 0 43.72540931 0 1982.64944350 0 55.28590303 0 251.65875475 0 33633
0.17650000 0.17650100 7986.77287817 0 104.77865233 0 1842.59614308 0 283.11197988 0 544.35587267 0 33984
0.17750000 0.17750300 7830.90179324 0 101.46394771 0 1890.21426522 0 -24.67102048 0 570.84846482 0 34069
0.17850000 0.17849800 7728.88806768 0 -39.52699582 0 1779.89620279 0 243.10616654 0 667.50281742 0 34536
