### header ###
fiducial parameters:
Omega_m = 0.31
Omega_nu = 0
Omega_de = 0.69
Omega_k = 0
H_0 = 100
w_de = -1
zeff = 0
beta = 0
fgrowth = 0
b_1 = 2
gamma = 0.55
Lx = 3500 Ly = 3500 Lz = 3500
nx = 700 ny = 700 nz = 700
xoffset = -983.599254 yoffset = -42.9823471 zoffset = 800.977702
bins = 400 dk = 0.001
kx_ny = 0.628318531 ky_ny = 0.628318531 kz_ny = 0.628318531
############################
A(data) = 8.98271492 (not used)
A(ran) = 8.96612915 (used)
Ngal = 498071
weighted Ngal = 0
Nran = 25229228
weighted Nran = 0
SN(data) = 6799.59676
SN(ran) = 133.09601
SN(data+ran) = 6932.69277
############################
13 columns: k_central k_mean P_0(k) sigma^{lin}_{P_0(k)} P^img_1(k) sigma^{lin}_{P_1(k)} P_2(k) sigma^{lin}_{P_2(k)} P^img_3(k) sigma^{lin}_{P_3(k)} P_4(k) sigma^{lin}_{P_4(k)} N_modes
### header ###
0.00050000 0 0 0 0 0 0 0 0 0 0 0 0
0.00150000 0.00179520 104128.58532202 0 -5516.36447377 0 40706.62907194 0 -43332.71083896 0 85772.04638989 0 3
0.00250000 0.00253879 128199.84813960 0 1304.43996318 0 18492.41809497 0 -40954.88041228 0 15025.68698829 0 6
0.00350000 0.00331552 95647.50667769 0 33506.35159060 0 74185.73892254 0 -27581.38298595 0 -45586.63528693 0 7
0.00450000 0.00420575 83695.19325193 0 25127.75900845 0 55881.81609307 0 43896.98833247 0 35546.40641040 0 24
0.00550000 0.00557378 86135.52589660 0 -2559.89971722 0 58789.76199253 0 54153.06406022 0 11566.31554525 0 45
0.00650000 0.00659388 68916.98868390 0 -8808.60564499 0 54785.77544090 0 46049.74486696 0 62946.54394876 0 40
0.00750000 0.00754703 79746.23940894 0 105.90006734 0 6405.87319226 0 52381.25250284 0 44911.96283898 0 57
0.00850000 0.00846663 76053.66548999 0 -4595.48381599 0 41309.68210666 0 -9470.16251327 0 49983.75969124 0 75
0.00950000 0.00948925 77605.45605856 0 9547.16436707 0 -4519.65731146 0 31790.45150767 0 25943.14383116 0 112
0.01050000 0.01054430 75167.64986558 0 -3729.06466906 0 19331.20005728 0 2732.78590508 0 34374.13282452 0 105
0.01150000 0.01145670 81928.21490650 0 -2332.81564825 0 -7248.42286297 0 364.53512414 0 28723.99822586 0 144
0.01250000 0.01249090 77674.65886582 0 1881.44857631 0 9024.73809510 0 -10861.10598553 0 788.74613575 0 169
0.01350000 0.01339930 75353.61867939 0 1648.42185356 0 -7256.51849296 0 -19606.91282907 0 -9378.25459448 0 180
0.01450000 0.01448870 74786.92457991 0 1690.09732194 0 10986.98918731 0 -14783.36731715 0 -19823.63844610 0 267
0.01550000 0.01550050 70300.71529197 0 1324.14628639 0 28892.06218635 0 2697.95382542 0 -7747.30919590 0 238
0.01650000 0.01653350 77154.42950837 0 738.64769712 0 19876.25454876 0 6246.47605953 0 -25147.75093055 0 315
0.01750000 0.01747870 83602.48345935 0 -5266.43249383 0 11503.70348154 0 10932.13223184 0 -6766.26603408 0 297
0.01850000 0.01844180 75316.71051551 0 -2935.36339262 0 8977.86692389 0 3196.62046690 0 -17513.36314079 0 388
0.01950000 0.01947590 79677.47598458 0 9851.78853389 0 22260.01664464 0 -15881.60488383 0 -7617.43859427 0 399
0.02050000 0.02045430 72311.55114871 0 8363.41190284 0 26024.97889690 0 -7588.38439979 0 -11099.69090200 0 462
0.02150000 0.02154770 68621.50368146 0 -2235.96467180 0 27409.80396223 0 2172.55073428 0 -18270.85926600 0 571
0.02250000 0.02255340 62887.88633117 0 2120.00053905 0 28156.75489776 0 3728.08704210 0 -1356.06745431 0 510
0.02350000 0.02348930 63858.15362728 0 -399.79670059 0 23784.12609030 0 8007.36895176 0 -3205.34221753 0 555
0.02450000 0.02439640 61956.83395918 0 -1393.23924793 0 19606.14390899 0 12941.36434098 0 6867.76348473 0 592
0.02550000 0.02547300 66575.29750100 0 677.89861691 0 13599.88946724 0 2877.09023508 0 -9573.03303550 0 837
0.02650000 0.02652900 65673.68378353 0 2987.89161871 0 14431.42161164 0 -8144.36854099 0 7923.87521557 0 723
0.02750000 0.02749970 58568.75239219 0 2002.34478214 0 18689.81086425 0 -800.22830947 0 1431.27882278 0 826
0.02850000 0.02848090 59437.08285474 0 626.04044976 0 28148.62631405 0 -6032.95793770 0 -4248.07473896 0 831
0.02950000 0.02946900 54143.61732780 0 6137.24546979 0 29300.13905775 0 -4995.61884141 0 -6834.63401383 0 996
0.03050000 0.03053250 52515.59382551 0 571.25050018 0 31444.43747135 0 2042.70210180 0 -3964.83753495 0 1041
0.03150000 0.03150510 53234.64394669 0 -2727.82087827 0 30731.75840228 0 3578.29042581 0 -5834.31292714 0 1036
0.03250000 0.03246190 55916.52734242 0 2826.23166403 0 33186.59068275 0 3518.72108870 0 -9383.51620475 0 1059
0.03350000 0.03345080 53323.83867605 0 -139.65895426 0 29170.41125556 0 556.92222370 0 7.08498341 0 1302
0.03450000 0.03451200 54426.03068886 0 -1300.35370218 0 26236.87130199 0 4558.64155955 0 -6344.88684529 0 1339
0.03550000 0.03553350 54965.15351115 0 -849.99171863 0 24107.73159855 0 5480.56575173 0 1404.23480508 0 1365
0.03650000 0.03647120 52789.43921997 0 2196.44217965 0 19218.05895969 0 4879.88538469 0 -6093.43899433 0 1308
0.03750000 0.03744890 52058.41591468 0 813.53502069 0 17353.09822683 0 1509.23633439 0 372.95040520 0 1579
0.03850000 0.03847530 49939.49186374 0 1236.02804514 0 17641.99248572 0 2229.74740371 0 -1074.47244390 0 1662
0.03950000 0.03950240 46756.82180402 0 1689.04280297 0 13854.95124257 0 -1492.81439838 0 1141.73647410 0 1683
0.04050000 0.04050350 45985.26542591 0 1713.83498329 0 17438.44835579 0 -2248.08065535 0 -5688.70143300 0 1822
0.04150000 0.04152450 43689.59960213 0 1840.39922857 0 14625.07962625 0 254.18300953 0 -3616.63756869 0 1887
0.04250000 0.04250150 42797.87199998 0 660.86813558 0 19510.35843608 0 256.02622081 0 -3969.95634577 0 1920
0.04350000 0.04349210 40377.20174023 0 202.06121263 0 16361.85039709 0 743.94116264 0 -1937.53580391 0 2005
0.04450000 0.04448520 40822.84584985 0 766.14098383 0 17445.69817369 0 4080.60394538 0 2175.08817055 0 2151
0.04550000 0.04548030 40859.20478510 0 -618.72033059 0 14893.21304296 0 4233.56411858 0 4551.88604741 0 2274
0.04650000 0.04648670 41694.80122136 0 -796.72203390 0 13632.73333925 0 5358.42828920 0 7348.70102606 0 2311
0.04750000 0.04749250 41908.56100379 0 -229.40071533 0 12596.22907048 0 -74.96871926 0 8535.73787749 0 2568
0.04850000 0.04851840 41392.50578392 0 2320.61178811 0 13199.17225947 0 -2349.25955340 0 7171.41002460 0 2493
0.04950000 0.04949480 38877.36819997 0 592.89779736 0 15433.10478534 0 -3131.19635260 0 7834.05436557 0 2644
0.05050000 0.05050630 39654.96609300 0 1098.16287159 0 16929.20357091 0 -533.06812589 0 2834.81061521 0 2829
0.05150000 0.05149060 39889.92610052 0 682.07824678 0 19900.42060844 0 -636.85146609 0 3439.96170329 0 2784
0.05250000 0.05249300 38284.09143485 0 136.43388375 0 18992.32599314 0 -243.39506080 0 2169.46406939 0 3055
0.05350000 0.05348950 37301.08203455 0 -252.92088214 0 18704.96957441 0 1989.70153909 0 2471.51784623 0 3009
0.05450000 0.05448610 37395.43951302 0 1378.25629093 0 19216.63096525 0 1231.39255551 0 -924.66813841 0 3336
0.05550000 0.05550870 36570.93749507 0 523.65654410 0 18999.46596532 0 329.09999145 0 3683.85216831 0 3349
0.05650000 0.05647670 35888.13646341 0 935.14851911 0 19467.07922011 0 2310.09955215 0 4617.32114628 0 3324
0.05750000 0.05747970 35059.89969078 0 -275.57766155 0 18961.12980701 0 1300.44157876 0 4209.32116689 0 3639
0.05850000 0.05849280 34745.74091495 0 -347.29044365 0 16399.30778959 0 3049.03174969 0 4352.93346882 0 3846
0.05950000 0.05951020 34777.26663826 0 594.55976320 0 14807.09399392 0 456.57266089 0 2480.84374835 0 3787
0.06050000 0.06049470 34405.10931920 0 797.12626617 0 14513.69606028 0 -836.93655412 0 2927.42154665 0 3930
0.06150000 0.06148310 32737.54135563 0 397.02748984 0 13794.64593910 0 1454.86270011 0 4023.27546108 0 4083
0.06250000 0.06249100 33150.89082186 0 358.88246309 0 12439.36937402 0 451.66914769 0 1197.38431880 0 4303
0.06350000 0.06350600 33499.10177269 0 -419.31408915 0 11509.85484218 0 1710.28696634 0 619.90117214 0 4470
0.06450000 0.06451750 32710.07992418 0 -161.26121469 0 9666.84128534 0 720.03873271 0 -2044.53652542 0 4479
0.06550000 0.06550280 31910.84242316 0 719.34560618 0 9886.02744663 0 -315.61972398 0 1535.76407717 0 4636
0.06650000 0.06648880 31575.92280515 0 196.42063461 0 9707.72586449 0 1628.56174634 0 857.68970710 0 4653
0.06750000 0.06749660 31842.73807315 0 17.80873830 0 8675.84610077 0 175.74657056 0 -207.65675391 0 5220
0.06850000 0.06852730 30386.51328604 0 1368.99629624 0 9100.19112416 0 -1628.66060749 0 -1574.73734069 0 5029
0.06950000 0.06949320 30255.46733515 0 1393.01955648 0 11461.85226000 0 -496.34560129 0 -1980.36465240 0 5040
0.07050000 0.07048030 29906.59730997 0 -125.48116643 0 11045.86649635 0 -597.55525614 0 -622.11346506 0 5475
0.07150000 0.07148790 29286.84772493 0 -664.56883809 0 11011.37493844 0 1197.36234966 0 -987.16596257 0 5509
0.07250000 0.07249820 28720.15362545 0 42.43823709 0 10761.43197393 0 841.11288861 0 -1083.76758922 0 5916
0.07350000 0.07351270 28896.23632393 0 1273.67217538 0 10293.62099683 0 -1741.84564337 0 -2441.88146941 0 5721
0.07450000 0.07449140 27792.61631669 0 1057.10583465 0 12177.71685513 0 133.17036723 0 -567.91668240 0 6028
0.07550000 0.07549160 26942.95962752 0 -137.72127565 0 11036.74930110 0 1985.10998776 0 -1449.17269151 0 6183
0.07650000 0.07648840 26961.85309236 0 -310.66018946 0 10430.77437008 0 1216.42058309 0 -1430.67467128 0 6330
0.07750000 0.07749960 26081.21990851 0 1203.84324748 0 9596.14457621 0 -49.48110565 0 -1884.83182466 0 6583
0.07850000 0.07848650 25209.59407418 0 682.30892280 0 10350.70782054 0 -1030.83293395 0 -703.62338744 0 6549
0.07950000 0.07947320 24897.74205860 0 315.27700532 0 9872.45051492 0 661.78095356 0 -1934.27338585 0 6828
0.08050000 0.08048110 24281.72722824 0 -37.24011766 0 9073.38876706 0 758.43530617 0 -2289.38264826 0 7147
0.08150000 0.08149960 23891.99459305 0 141.72515236 0 9220.80173110 0 722.98369662 0 -1198.40588405 0 7386
0.08250000 0.08250610 23430.64254463 0 631.54701599 0 8831.13500335 0 123.81810214 0 -1799.64646429 0 7227
0.08350000 0.08350160 23188.54256494 0 272.59205472 0 8495.06200523 0 493.70820541 0 -784.30946688 0 7798
0.08450000 0.08449610 22303.51555206 0 422.07011841 0 8633.67632663 0 177.42061942 0 -836.31043348 0 7371
0.08550000 0.08548940 22456.31095667 0 246.06980422 0 7583.69398730 0 971.92157274 0 -101.32598147 0 8256
0.08650000 0.08650700 22184.55263101 0 185.63488280 0 7441.67444839 0 41.51718068 0 -1250.61555753 0 8037
0.08750000 0.08749060 21078.18648061 0 679.73304053 0 7938.10023706 0 219.24218261 0 735.09089252 0 8155
0.08850000 0.08849210 20801.26540584 0 388.48149237 0 8175.81737229 0 -333.05333912 0 -1142.53834790 0 8718
0.08950000 0.08949900 20151.96732055 0 39.74723650 0 7960.93716346 0 271.28708750 0 -1128.32431098 0 8571
0.09050000 0.09049190 20126.70280362 0 650.42620089 0 8103.75857616 0 -562.00478544 0 -1616.67643880 0 8932
0.09150000 0.09150830 19363.05531776 0 434.79025346 0 7842.09507270 0 12.79724675 0 -503.58333616 0 9285
0.09250000 0.09250820 19252.77020905 0 -130.79110881 0 8064.44479089 0 1089.62456332 0 -267.34033057 0 9204
0.09350000 0.09350330 19030.11292282 0 23.24709034 0 7724.49423864 0 886.64613888 0 -358.47383699 0 9349
0.09450000 0.09448040 18911.47953894 0 77.74506998 0 7288.78018263 0 1226.43851328 0 947.41279440 0 9564
0.09550000 0.09549270 18856.33698459 0 421.82626090 0 7282.42011511 0 -373.72921139 0 825.54555235 0 10155
0.09650000 0.09649430 17969.11305719 0 738.16876975 0 7445.24443448 0 -324.74570688 0 977.97297378 0 9913
0.09750000 0.09749140 17616.17874015 0 120.59303163 0 7680.65480947 0 -249.40581892 0 2279.72720896 0 10476
0.09850000 0.09850240 17187.12133512 0 74.57898662 0 7703.15121412 0 1296.68485494 0 1440.20928029 0 10575
0.09950000 0.09950330 17437.89912716 0 -40.05271747 0 6996.70039769 0 608.64088679 0 642.90396558 0 10882
0.10050000 0.10051200 17074.52946617 0 529.70245285 0 7602.88403560 0 -643.53557851 0 517.00977923 0 10875
0.10150000 0.10150300 16758.83285018 0 204.47891706 0 6955.96960256 0 -1018.24131840 0 1066.74589555 0 11118
0.10250000 0.10250800 16709.51211929 0 -549.29893033 0 6199.97836380 0 1882.42620326 0 627.28280492 0 11575
0.10350000 0.10349800 16895.04155019 0 -135.44527221 0 6533.30521878 0 374.79581339 0 -292.13360934 0 11364
0.10450000 0.10450100 17114.84284754 0 496.75312893 0 5544.36414928 0 -303.88051126 0 -97.17600995 0 12093
0.10550000 0.10551000 16910.96918043 0 -24.54568651 0 5804.55572001 0 657.13228245 0 772.29344293 0 12067
0.10650000 0.10649700 16568.36036162 0 -37.17981235 0 5054.80371847 0 796.73301847 0 52.31018232 0 12054
0.10750000 0.10749900 16738.40154518 0 99.70597671 0 5250.48289444 0 248.73685845 0 675.65117336 0 12807
0.10850000 0.10850100 16069.22138352 0 260.74629165 0 4593.23197861 0 -275.27778272 0 564.42578523 0 12736
0.10950000 0.10950300 16253.76220289 0 229.77528926 0 5021.79507787 0 698.86377214 0 1122.90891670 0 12933
0.11050000 0.11050200 16221.24786805 0 -2.23853506 0 4660.72119255 0 180.56330563 0 786.26801617 0 13428
0.11150000 0.11150900 15591.83185914 0 140.72665471 0 3998.63706478 0 98.29951204 0 700.25881286 0 13453
0.11250000 0.11250000 15414.21132050 0 325.07963789 0 4767.34843859 0 -68.68411575 0 354.53476926 0 13668
0.11350000 0.11349100 15035.24356644 0 761.62193067 0 4274.19605255 0 -997.94182827 0 -499.40260784 0 13791
0.11450000 0.11448600 14201.40466179 0 378.14061574 0 5314.99528921 0 -217.95918453 0 514.66457298 0 14205
0.11550000 0.11549300 14299.27720349 0 -159.73435911 0 5144.54767646 0 113.00818426 0 -667.44240227 0 14776
0.11650000 0.11649800 13881.42406250 0 -45.52325430 0 4753.70559945 0 442.41794066 0 -773.71155125 0 14553
0.11750000 0.11747300 14155.15961122 0 225.01896933 0 4654.53687818 0 440.98884777 0 -1455.32405216 0 14568
0.11850000 0.11849100 13806.39943176 0 192.17619577 0 4719.35684099 0 -334.21990073 0 -341.29835930 0 16015
0.11950000 0.11950300 13388.76598222 0 480.55527820 0 5237.77374396 0 -146.31340833 0 -592.58363859 0 15270
0.12050000 0.12050700 13552.65580514 0 -84.44346234 0 5199.67924625 0 166.10980503 0 -513.30028907 0 15999
0.12150000 0.12150000 13425.45445464 0 -212.68988506 0 4980.75671470 0 798.62236495 0 -651.04243541 0 15670
0.12250000 0.12250700 13626.03274998 0 -58.10234744 0 4414.75464330 0 11.05597230 0 -440.19576162 0 16887
0.12350000 0.12352200 13226.74353665 0 154.87698111 0 4488.76869336 0 -229.03163369 0 -216.50482712 0 16407
0.12450000 0.12449800 13514.42949255 0 328.80890028 0 4990.71972203 0 -215.69526412 0 -526.03580252 0 16306
0.12550000 0.12549900 13169.84345068 0 184.05310434 0 4571.44957118 0 -19.60372730 0 -519.28797958 0 17523
0.12650000 0.12650100 12966.29932074 0 27.30775728 0 5236.12605807 0 290.01029146 0 -842.90007857 0 17154
0.12750000 0.12750600 13021.22218365 0 100.98117574 0 4635.87408937 0 211.83748223 0 -90.59350483 0 18007
0.12850000 0.12850300 12727.71440428 0 45.98504573 0 4528.43398495 0 80.77780062 0 -577.25137218 0 17496
0.12950000 0.12949900 12549.21509983 0 118.28956676 0 4146.42350429 0 379.45107525 0 -473.35489088 0 18405
0.13050000 0.13049000 12672.79154137 0 224.48621756 0 3981.38030125 0 84.33746121 0 -69.68546938 0 18100
0.13150000 0.13148800 12151.35388093 0 137.07428433 0 3812.60234354 0 644.95698220 0 54.67307373 0 19059
0.13250000 0.13249300 12399.27568409 0 -140.88483256 0 3582.15699536 0 504.87841727 0 263.43311810 0 18957
0.13350000 0.13349100 11950.77558560 0 214.21893757 0 3196.34585258 0 82.95450352 0 -71.67027180 0 19468
0.13450000 0.13450700 11936.49564124 0 74.01701589 0 2807.33819919 0 -9.77232614 0 674.55820839 0 19953
0.13550000 0.13551000 11650.12783405 0 -81.77596873 0 2739.51944807 0 619.45300158 0 323.58573602 0 19956
0.13650000 0.13649900 11937.04486987 0 -28.68621130 0 2370.36091733 0 304.81639685 0 280.35045834 0 19723
0.13750000 0.13749600 11557.96727009 0 346.26228765 0 2040.42829527 0 -16.81122926 0 407.50237825 0 20946
0.13850000 0.13851100 11568.29276832 0 213.56315858 0 2154.00877577 0 68.20606715 0 949.26808871 0 20955
0.13950000 0.13949800 11309.60608403 0 -21.60940041 0 2563.98597822 0 -217.19246136 0 288.76244402 0 20506
0.14050000 0.14048300 11079.69897990 0 75.95084989 0 2117.25439591 0 98.03192785 0 -180.66326525 0 21447
0.14150000 0.14148400 10982.85898802 0 206.37265737 0 2715.96852445 0 -72.63284990 0 232.78616060 0 21771
0.14250000 0.14249400 10856.89889423 0 179.87237602 0 2619.30428574 0 -430.14707463 0 196.94350027 0 22470
0.14350000 0.14350900 10688.27472053 0 151.43002223 0 2847.97013316 0 -266.58788735 0 -487.06912974 0 22519
0.14450000 0.14449900 10533.46913915 0 139.55240390 0 3003.86318724 0 -6.36326404 0 -185.31303482 0 22218
0.14550000 0.14550500 10445.40582076 0 32.56662141 0 2750.16349890 0 294.00208514 0 -305.24699209 0 23559
0.14650000 0.14650700 10489.01457391 0 -34.44893776 0 2883.90067008 0 395.14034027 0 -44.44412989 0 23044
0.14750000 0.14750500 10311.83341817 0 185.22735515 0 2679.99404925 0 18.68245120 0 -33.30412561 0 23649
0.14850000 0.14849900 10005.21005914 0 291.35590160 0 3088.16978180 0 -328.79242342 0 -72.74467285 0 23640
0.14950000 0.14949500 10140.39719389 0 131.66987462 0 3031.66514044 0 -117.52174513 0 216.48725180 0 24457
0.15050000 0.15050000 9701.69533414 0 -49.28700825 0 2992.66990778 0 193.61737169 0 -64.14792665 0 24591
0.15150000 0.15149900 9675.48614396 0 84.20608572 0 3377.76705334 0 -333.94308950 0 -175.18306198 0 25020
0.15250000 0.15250500 9758.34277494 0 131.27113463 0 3100.74711741 0 215.80291293 0 -297.81592874 0 25297
0.15350000 0.15350100 9740.29512219 0 -86.29864680 0 2958.09047329 0 34.98443568 0 -346.53800042 0 25452
0.15450000 0.15450400 9730.44196059 0 79.15581863 0 2915.26162480 0 240.81808007 0 -787.05890540 0 26061
0.15550000 0.15549900 9520.61465514 0 128.44480411 0 2741.16713396 0 -219.13892763 0 -301.37053643 0 26128
0.15650000 0.15649500 9343.13691594 0 172.79172053 0 3124.46280961 0 -92.87972392 0 -279.65952872 0 26331
0.15750000 0.15749700 9400.70706084 0 122.72733408 0 3122.15604937 0 -23.76545232 0 -457.52282641 0 27345
0.15850000 0.15849900 9164.85730295 0 72.59682050 0 2932.30968144 0 217.98994133 0 -781.09428249 0 26980
0.15950000 0.15949700 9053.23207637 0 92.13464037 0 2881.47307954 0 46.49494959 0 -584.46054716 0 27777
0.16050000 0.16050000 8930.13895603 0 96.04932234 0 2989.12189084 0 -21.19956601 0 -684.92544799 0 28224
0.16150000 0.16150500 8698.54022772 0 144.36694206 0 3157.19683590 0 114.82173719 0 -318.38563936 0 28075
0.16250000 0.16249700 8675.03324240 0 126.41485510 0 2806.17383449 0 55.58028958 0 -498.92148356 0 28590
0.16350000 0.16349900 8766.89722290 0 -142.24472264 0 2561.89890943 0 384.63799042 0 -728.24750380 0 29163
0.16450000 0.16449100 8580.79659422 0 48.41560211 0 2369.30639836 0 160.38684272 0 -141.89101940 0 28996
0.16550000 0.16550500 8661.18169637 0 102.00230161 0 2014.16418223 0 427.57888156 0 -317.81554004 0 30777
0.16650000 0.16650700 8744.92807773 0 -29.28871510 0 2048.22734181 0 313.34042517 0 -42.88574858 0 29211
0.16750000 0.16749900 8463.09689901 0 52.90587569 0 1848.19827510 0 -73.44559842 0 -97.34594129 0 30922
0.16850000 0.16850800 8327.25068990 0 188.74791067 0 1664.75591299 0 -151.58600317 0 125.95130613 0 30867
0.16950000 0.16949900 8237.58362392 0 146.29473455 0 1973.49929454 0 -51.26598885 0 -56.11809425 0 30852
0.17050000 0.17049200 8191.72303339 0 47.60076652 0 1944.24737775 0 238.10379219 0 569.82909649 0 31257
0.17150000 0.17149500 8227.00548052 0 -36.14649361 0 1880.14141217 0 360.88495067 0 448.29358853 0 32608
0.17250000 0.17250900 8103.62676129 0 -20.83323051 0 1667.45811785 0 183.32372872 0 435.25050705 0 32361
0.17350000 0.17350400 8177.27832045 0 85.50600004 0 1608.29520992 0 -139.22945747 0 648.11065299 0 32508
0.17450000 0.17449800 7866.81036101 0 197.55094713 0 1698.08310620 0 -208.72225745 0 622.45069144 0 32791
0.17550000 0.17549800 7875.88361796 0 171.12426242 0 2315.24033211 0 -251.35008826 0 279.06086951 0 33633
0.17650000 0.17650100 7775.05622624 0 54.45634811 0 2175.21998542 0 -195.05085841 0 344.93095746 0 33984
0.17750000 0.17750300 7612.55045947 0 60.68009709 0 2243.15956684 0 289.97953466 0 428.75972311 0 34069
0.17850000 0.17849800 7702.58001634 0 -26.77621382 0 1986.79062736 0 273.58286317 0 337.86348346 0 34536
