### header ###
fiducial parameters:
Omega_m = 0.31
Omega_nu = 0
Omega_de = 0.69
Omega_k = 0
H_0 = 100
w_de = -1
zeff = 0
beta = 0
fgrowth = 0
b_1 = 2
gamma = 0.55
Lx = 3500 Ly = 3500 Lz = 3500
nx = 700 ny = 700 nz = 700
xoffset = -983.599254 yoffset = -42.9823471 zoffset = 800.977702
bins = 400 dk = 0.001
kx_ny = 0.628318531 ky_ny = 0.628318531 kz_ny = 0.628318531
############################
A(data) = 9.09176315 (not used)
A(ran) = 9.09997925 (used)
Ngal = 505255
weighted Ngal = 0
Nran = 25229228
weighted Nran = 0
SN(data) = 6711.4283
SN(ran) = 135.082923
SN(data+ran) = 6846.51122
############################
13 columns: k_central k_mean P_0(k) sigma^{lin}_{P_0(k)} P^img_1(k) sigma^{lin}_{P_1(k)} P_2(k) sigma^{lin}_{P_2(k)} P^img_3(k) sigma^{lin}_{P_3(k)} P_4(k) sigma^{lin}_{P_4(k)} N_modes
### header ###
0.00050000 0 0 0 0 0 0 0 0 0 0 0 0
0.00150000 0.00179520 80657.19001311 0 -44504.76473339 0 -74633.57994668 0 112681.94245394 0 -107654.30358345 0 3
0.00250000 0.00253879 150730.30496119 0 -41610.98893256 0 -2530.28530954 0 -68781.32921252 0 83628.73658781 0 6
0.00350000 0.00331552 132198.23255921 0 8047.29787309 0 -6493.34334373 0 -149933.92344904 0 82412.30502016 0 7
0.00450000 0.00420575 111043.04422480 0 44772.34892147 0 32479.18420852 0 -67696.27313293 0 55158.59183431 0 24
0.00550000 0.00557378 73152.53002554 0 19316.70042147 0 59710.15932912 0 14296.09167744 0 -24547.33419325 0 45
0.00650000 0.00659388 59487.50204289 0 -194.18417564 0 57204.35863186 0 46163.76473035 0 2171.33144673 0 40
0.00750000 0.00754703 70461.52943456 0 -4655.62435087 0 66168.20924114 0 22590.98181652 0 -21413.43563580 0 57
0.00850000 0.00846663 72132.28292418 0 -4602.97529449 0 66302.22102663 0 -25241.99856330 0 -30892.35285341 0 75
0.00950000 0.00948925 91459.74822678 0 3229.27760118 0 60156.68220455 0 3017.87950185 0 -38901.53425965 0 112
0.01050000 0.01054430 78762.68078001 0 -108.05644879 0 72166.99417354 0 854.64807895 0 -14377.48736027 0 105
0.01150000 0.01145670 80111.47644727 0 7756.60214430 0 78167.31694610 0 8249.47991602 0 4810.71553114 0 144
0.01250000 0.01249090 83547.45075071 0 2163.02710986 0 79873.11122225 0 9895.73780879 0 -33391.01357849 0 169
0.01350000 0.01339930 81707.42499761 0 5187.15683351 0 77523.51114710 0 19844.50913400 0 -3187.97560828 0 180
0.01450000 0.01448870 80681.79545569 0 -2480.58011861 0 65327.34021004 0 15956.62951456 0 -18953.00122330 0 267
0.01550000 0.01550050 82729.86901348 0 -37.02690710 0 52773.73128118 0 26498.85335805 0 35028.15427602 0 238
0.01650000 0.01653350 81835.06573101 0 -2608.35266688 0 44744.99733575 0 12154.97878989 0 -5083.59428321 0 315
0.01750000 0.01747870 76229.52849702 0 959.60237459 0 24516.24785285 0 13375.58449512 0 28308.89122801 0 297
0.01850000 0.01844180 85325.52351445 0 -1849.98876043 0 21032.16112150 0 3220.23729795 0 -23720.19587788 0 388
0.01950000 0.01947590 79114.29694833 0 3915.07742115 0 18573.81377779 0 -3243.66739126 0 13139.19649317 0 399
0.02050000 0.02045430 76411.10348179 0 2803.55950622 0 19594.39041633 0 1212.05970777 0 2427.23903415 0 462
0.02150000 0.02154770 80094.34051404 0 668.61335771 0 24841.06166408 0 -6300.54212578 0 -16188.07445885 0 571
0.02250000 0.02255340 72492.46705912 0 10428.41268698 0 34754.08919011 0 -22687.75590096 0 -30284.79614394 0 510
0.02350000 0.02348930 64196.58830852 0 8884.71774840 0 45663.96667790 0 -5301.93463241 0 -8497.18202773 0 555
0.02450000 0.02439640 57772.70041722 0 -4249.83227057 0 50685.67387919 0 12405.97627337 0 -572.08313078 0 592
0.02550000 0.02547300 68813.18447300 0 -3514.14052193 0 38938.11288635 0 17847.18430154 0 -19132.26944783 0 837
0.02650000 0.02652900 72147.55148007 0 -1498.40554582 0 35497.74475387 0 6433.89483692 0 -1596.25611838 0 723
0.02750000 0.02749970 68331.73065676 0 2030.61907196 0 30487.46150807 0 -1947.74047183 0 6149.19668475 0 826
0.02850000 0.02848090 63405.47939121 0 4085.30534245 0 32749.51453974 0 3680.68861141 0 19215.97189090 0 831
0.02950000 0.02946900 64426.05602974 0 -183.91579719 0 23035.19793171 0 3879.56429800 0 -2358.61840924 0 996
0.03050000 0.03053250 63292.77767652 0 3888.69247781 0 25409.29360371 0 5546.20955747 0 -4464.41589595 0 1041
0.03150000 0.03150510 58585.55878824 0 1244.37632030 0 25562.74808267 0 1350.33350742 0 13522.77776771 0 1036
0.03250000 0.03246190 55426.39571384 0 168.87681887 0 23028.60718816 0 8063.36830278 0 7948.76625704 0 1059
0.03350000 0.03345080 55257.01360464 0 -123.47648193 0 19690.17588924 0 4783.59462144 0 8073.39721755 0 1302
0.03450000 0.03451200 53491.79279082 0 1618.46692414 0 13849.12941911 0 1311.86553424 0 4798.48970186 0 1339
0.03550000 0.03553350 52610.72022407 0 3142.48849322 0 20756.77788688 0 -744.28827514 0 11626.73069445 0 1365
0.03650000 0.03647120 48997.34507344 0 2131.23775680 0 16145.45431724 0 1619.74113455 0 12120.15769480 0 1308
0.03750000 0.03744890 49193.09015684 0 -2056.86121586 0 19958.96838030 0 181.46513904 0 7131.23944267 0 1579
0.03850000 0.03847530 47446.65296213 0 1476.89775271 0 16387.77398838 0 1785.04796733 0 8385.97421492 0 1662
0.03950000 0.03950240 46705.85338724 0 280.57783899 0 16964.57389463 0 -113.35639521 0 5545.55048312 0 1683
0.04050000 0.04050350 46411.13730488 0 132.82325474 0 16217.95249627 0 1769.76842687 0 9155.78404599 0 1822
0.04150000 0.04152450 48152.85113338 0 -848.98223641 0 13211.58482648 0 4308.21527384 0 -2123.39477198 0 1887
0.04250000 0.04250150 45292.35858748 0 2038.06661217 0 15661.69374075 0 -3983.30260145 0 4989.58831106 0 1920
0.04350000 0.04349210 43510.99045196 0 4463.40531527 0 16704.34937017 0 -3905.70758074 0 -699.94355563 0 2005
0.04450000 0.04448520 43056.11930137 0 -1165.61693490 0 17832.90435718 0 2505.66888239 0 2913.84461494 0 2151
0.04550000 0.04548030 43295.36329219 0 -1705.00338693 0 14018.07214541 0 4046.91426127 0 -10579.99978860 0 2274
0.04650000 0.04648670 41706.44486830 0 1857.35940863 0 11857.62641011 0 -2445.45145549 0 -2175.03324769 0 2311
0.04750000 0.04749250 39444.61152807 0 2100.23929298 0 13279.90886794 0 -986.58817405 0 -361.81973780 0 2568
0.04850000 0.04851840 38788.39316206 0 828.58498358 0 16138.20449933 0 1563.44520008 0 -1670.10539984 0 2493
0.04950000 0.04949480 38346.48380711 0 1346.22527728 0 16108.98553627 0 -796.31450625 0 -5686.26285789 0 2644
0.05050000 0.05050630 35752.25730058 0 1465.85825726 0 17514.90098095 0 0.15548443 0 -1256.08587468 0 2829
0.05150000 0.05149060 35351.75978426 0 147.79742408 0 18155.85079107 0 1281.13070016 0 820.89358586 0 2784
0.05250000 0.05249300 35071.10395481 0 -1575.06687787 0 14761.94740062 0 4035.90771955 0 1064.38750782 0 3055
0.05350000 0.05348950 36702.64252032 0 912.06334137 0 16145.23462578 0 1778.95152955 0 1511.53211006 0 3009
0.05450000 0.05448610 33484.49229116 0 1110.77096400 0 13171.38129084 0 -1035.70788726 0 3960.38878305 0 3336
0.05550000 0.05550870 33942.32927635 0 392.25798842 0 15074.34864483 0 1450.50182479 0 3837.05400211 0 3349
0.05650000 0.05647670 34228.91677500 0 -82.79456815 0 14454.26952261 0 2259.06522793 0 3194.78604328 0 3324
0.05750000 0.05747970 33401.00953954 0 -193.31529594 0 12291.40718135 0 2118.02331599 0 3338.71689781 0 3639
0.05850000 0.05849280 33797.77230118 0 542.97840727 0 11495.24536065 0 217.12325856 0 3477.19940434 0 3846
0.05950000 0.05951020 32957.34265298 0 809.99139758 0 11591.36037074 0 -147.98196490 0 3018.30790018 0 3787
0.06050000 0.06049470 31269.01384723 0 134.20950780 0 11713.61866357 0 -502.75949322 0 3921.98671731 0 3930
0.06150000 0.06148310 31331.51606522 0 483.51562051 0 11472.28760395 0 1483.33471224 0 1174.27277809 0 4083
0.06250000 0.06249100 30546.22897138 0 1323.27850516 0 11046.63541643 0 -1118.81167113 0 2176.15367409 0 4303
0.06350000 0.06350600 29993.15574191 0 304.08702123 0 11232.38453878 0 -51.57300765 0 -935.32427227 0 4470
0.06450000 0.06451750 29081.54606338 0 233.12778081 0 11928.58674898 0 -490.21730825 0 -502.62987526 0 4479
0.06550000 0.06550280 29083.63313217 0 448.31885305 0 12727.38486710 0 -659.51154087 0 -1388.90034176 0 4636
0.06650000 0.06648880 27575.23162530 0 -428.06000584 0 12088.96150867 0 493.02276808 0 -523.86964481 0 4653
0.06750000 0.06749660 28424.55877729 0 27.41925069 0 10238.57730363 0 2053.98325784 0 -2783.02934006 0 5220
0.06850000 0.06852730 29365.60711033 0 -105.39137179 0 10087.37466204 0 843.43502726 0 -4216.34030877 0 5029
0.06950000 0.06949320 28446.85745963 0 803.55004421 0 8943.75982603 0 92.38102433 0 -1891.14795389 0 5040
0.07050000 0.07048030 28355.24612430 0 329.26915387 0 9534.96050693 0 -1277.94517411 0 -4229.62065702 0 5475
0.07150000 0.07148790 27861.92896967 0 -35.48643064 0 9738.17509968 0 -327.49514540 0 -3167.52233413 0 5509
0.07250000 0.07249820 26439.53666612 0 530.43402538 0 8269.19722381 0 1576.50585687 0 -4217.14218257 0 5916
0.07350000 0.07351270 26655.60320879 0 154.16078698 0 9071.67517374 0 -622.09369283 0 -2351.43449877 0 5721
0.07450000 0.07449140 26728.87030791 0 171.20554825 0 7409.37980500 0 2289.51446313 0 -2777.82265266 0 6028
0.07550000 0.07549160 26715.90851226 0 -39.45471733 0 8150.06953416 0 140.25541655 0 -2384.59692339 0 6183
0.07650000 0.07648840 25784.08722019 0 564.85857739 0 7011.95796901 0 1192.25452341 0 -567.33010622 0 6330
0.07750000 0.07749960 25554.72934469 0 508.82517420 0 8151.83805035 0 -361.68902139 0 1100.74204923 0 6583
0.07850000 0.07848650 24899.82912739 0 -125.67119953 0 7626.85237297 0 1417.08675500 0 1267.93822849 0 6549
0.07950000 0.07947320 25394.13489355 0 3.47383813 0 7338.44143527 0 1594.48760219 0 1096.80627688 0 6828
0.08050000 0.08048110 24851.82654521 0 520.54351623 0 6207.31605828 0 -106.54980481 0 3086.09369758 0 7147
0.08150000 0.08149960 24114.10265065 0 671.89554800 0 7472.47518991 0 -863.39399564 0 1415.05460907 0 7386
0.08250000 0.08250610 22813.63910274 0 1150.08474927 0 9089.68987277 0 -996.67420860 0 3472.89345189 0 7227
0.08350000 0.08350160 21909.60877930 0 489.87898341 0 8637.22434357 0 -175.59608191 0 2640.52647997 0 7798
0.08450000 0.08449610 22264.19078222 0 -270.77960025 0 9096.98362897 0 886.92404856 0 780.79550211 0 7371
0.08550000 0.08548940 22443.01962385 0 256.51283738 0 8929.13935992 0 562.04762527 0 1679.80477743 0 8256
0.08650000 0.08650700 21097.51932836 0 400.72050314 0 7614.54965168 0 248.14369153 0 3432.15167219 0 8037
0.08750000 0.08749060 22084.92255769 0 -505.80112137 0 8110.05273625 0 703.64315967 0 2160.72034961 0 8155
0.08850000 0.08849210 21104.76914626 0 354.69184865 0 7936.23285972 0 335.16347552 0 1550.38454328 0 8718
0.08950000 0.08949900 20999.20740375 0 762.28430040 0 8245.29479387 0 -230.24652742 0 3025.32704206 0 8571
0.09050000 0.09049190 20656.59858494 0 279.10590626 0 8713.79779904 0 -564.41919449 0 1990.65719691 0 8932
0.09150000 0.09150830 20613.20952325 0 105.02382799 0 7944.21864399 0 767.41848962 0 1974.45495235 0 9285
0.09250000 0.09250820 20633.42113680 0 -226.58317246 0 9171.90939854 0 140.85846958 0 1277.47283749 0 9204
0.09350000 0.09350330 19491.46497124 0 470.91302039 0 8362.90661250 0 -343.08115543 0 1437.57298287 0 9349
0.09450000 0.09448040 19231.02075534 0 951.34966521 0 8554.08211370 0 179.70760743 0 2294.10601447 0 9564
0.09550000 0.09549270 18967.83039629 0 368.99595907 0 9191.60473718 0 103.12492493 0 1704.05871369 0 10155
0.09650000 0.09649430 18388.83357552 0 274.55939167 0 9209.23497617 0 248.04922420 0 1692.60180449 0 9913
0.09750000 0.09749140 17940.44332275 0 315.40882019 0 8738.98542397 0 300.57635183 0 1329.16623606 0 10476
0.09850000 0.09850240 17719.65341387 0 65.36941112 0 8391.78505382 0 270.55771188 0 1799.60252600 0 10575
0.09950000 0.09950330 16972.04340398 0 -84.95688126 0 7678.26017265 0 1334.36193889 0 1358.56095229 0 10882
0.10050000 0.10051200 17101.88105189 0 114.56689511 0 7491.61031535 0 318.78547780 0 2053.97227327 0 10875
0.10150000 0.10150300 17063.87443076 0 486.48914431 0 6752.63417951 0 520.45783656 0 1101.34620072 0 11118
0.10250000 0.10250800 16440.49993677 0 115.90152068 0 6765.93649691 0 -104.99230226 0 521.64307194 0 11575
0.10350000 0.10349800 16144.35585998 0 653.23495610 0 6346.65536148 0 -288.92721261 0 1325.29966651 0 11364
0.10450000 0.10450100 15709.03724858 0 -256.12508196 0 6126.09612862 0 486.42103996 0 363.35647950 0 12093
0.10550000 0.10551000 15975.96236231 0 -73.64826379 0 5532.52278004 0 647.85251553 0 -76.91167045 0 12067
0.10650000 0.10649700 15943.77756464 0 -98.79359811 0 4895.37363203 0 600.35961752 0 -766.90990391 0 12054
0.10750000 0.10749900 15709.47663148 0 183.72246871 0 4461.38415391 0 -72.69776872 0 317.95504411 0 12807
0.10850000 0.10850100 15875.56336891 0 332.16798257 0 4618.06809721 0 117.63818160 0 -882.20287927 0 12736
0.10950000 0.10950300 15548.33295171 0 -63.93691301 0 4669.82740322 0 -105.00427545 0 -211.75180257 0 12933
0.11050000 0.11050200 15203.96660129 0 116.68691762 0 4961.22614465 0 -47.65129555 0 -353.76694764 0 13428
0.11150000 0.11150900 14859.27071369 0 353.87130108 0 4895.21984801 0 -106.64811674 0 -530.09130672 0 13453
0.11250000 0.11250000 14839.82802022 0 213.39399617 0 4891.13358701 0 802.78112413 0 1238.90600316 0 13668
0.11350000 0.11349100 15242.41260532 0 -194.16110803 0 4450.07004415 0 746.94434479 0 516.33532647 0 13791
0.11450000 0.11448600 14882.55800756 0 -85.92835686 0 4317.01391648 0 446.18015677 0 624.01489457 0 14205
0.11550000 0.11549300 14456.46643713 0 634.36126349 0 4516.15323280 0 -310.85132102 0 1639.91979439 0 14776
0.11650000 0.11649800 14301.91350091 0 65.31910178 0 4501.32405982 0 -535.49901180 0 2157.72156130 0 14553
0.11750000 0.11747300 14178.66659655 0 50.67787483 0 4746.77433415 0 726.66902072 0 1596.84928530 0 14568
0.11850000 0.11849100 14210.74154848 0 34.00724810 0 4697.88200159 0 41.29606124 0 965.51537001 0 16015
0.11950000 0.11950300 13829.46703419 0 145.04359174 0 3839.92097555 0 606.58127943 0 1884.99659325 0 15270
0.12050000 0.12050700 14200.41605026 0 -133.96125646 0 3535.53846932 0 586.17194357 0 1049.06842289 0 15999
0.12150000 0.12150000 14120.99759049 0 -40.52109964 0 3765.79707977 0 -58.38816602 0 405.79317876 0 15670
0.12250000 0.12250700 13655.80094167 0 408.03403156 0 3610.98051381 0 -793.45961584 0 409.18521477 0 16887
0.12350000 0.12352200 13353.94488714 0 272.94685642 0 3697.68174519 0 -165.93515033 0 829.78340045 0 16407
0.12450000 0.12449800 13408.20867569 0 -109.37251043 0 3575.52231352 0 514.44597999 0 344.13457594 0 16306
0.12550000 0.12549900 13276.83318762 0 88.00158509 0 3998.84577166 0 33.91882229 0 -445.40464594 0 17523
0.12650000 0.12650100 13270.35228979 0 391.97458645 0 4065.66492667 0 -552.15272229 0 -412.24771361 0 17154
0.12750000 0.12750600 12825.36725452 0 122.07485047 0 4190.66936265 0 -421.92072822 0 -96.78495917 0 18007
0.12850000 0.12850300 12795.37937138 0 66.28332756 0 4778.58565634 0 344.36854734 0 -37.53033006 0 17496
0.12950000 0.12949900 12790.32646799 0 134.55991566 0 4441.48010840 0 246.98042529 0 -156.72238930 0 18405
0.13050000 0.13049000 12359.07214845 0 65.41214111 0 4067.63116516 0 107.16944455 0 16.41402712 0 18100
0.13150000 0.13148800 12639.94766935 0 1.98294603 0 4283.77459984 0 678.27868312 0 623.01090464 0 19059
0.13250000 0.13249300 12477.26614942 0 -78.20400542 0 3688.14713619 0 257.71125425 0 535.82964743 0 18957
0.13350000 0.13349100 12229.01480908 0 83.51065243 0 3427.15369166 0 253.63817473 0 555.11196614 0 19468
0.13450000 0.13450700 12209.46226989 0 294.25692722 0 3043.86900058 0 35.75060961 0 464.45079634 0 19953
0.13550000 0.13551000 12185.62574739 0 107.48953499 0 3041.61716320 0 167.21045920 0 -15.17485748 0 19956
0.13650000 0.13649900 11872.45558309 0 125.82718046 0 3082.11728231 0 109.44654645 0 331.74617499 0 19723
0.13750000 0.13749600 11552.69467525 0 151.02578996 0 2869.41201884 0 -239.64822309 0 -62.93995321 0 20946
0.13850000 0.13851100 11269.95177701 0 265.29500316 0 2849.70569563 0 58.77229652 0 122.72623562 0 20955
0.13950000 0.13949800 11353.98375725 0 -22.73520925 0 2810.11729605 0 313.69522686 0 17.97910902 0 20506
0.14050000 0.14048300 11191.30223732 0 -21.63796030 0 2473.98937506 0 287.82875535 0 -339.16405685 0 21447
0.14150000 0.14148400 11148.79194143 0 238.11038293 0 2733.33513371 0 -143.19488817 0 -126.28743405 0 21771
0.14250000 0.14249400 10822.87967295 0 200.76722998 0 2745.50604013 0 -118.01605090 0 550.85434581 0 22470
0.14350000 0.14350900 10483.09388929 0 218.83026114 0 3286.92463809 0 -171.61087898 0 357.05463021 0 22519
0.14450000 0.14449900 10483.75296364 0 201.24396043 0 2772.38528923 0 11.76239017 0 88.64022814 0 22218
0.14550000 0.14550500 10345.21553425 0 92.34927891 0 3284.37621725 0 176.17277197 0 220.91403456 0 23559
0.14650000 0.14650700 10132.00498044 0 101.21349945 0 3019.06583569 0 -50.80167097 0 325.91446540 0 23044
0.14750000 0.14750500 10141.30891342 0 -14.93890886 0 3152.46248512 0 167.17530857 0 467.02558015 0 23649
0.14850000 0.14849900 9850.78893779 0 113.12791610 0 3150.18867860 0 71.47738271 0 604.22399015 0 23640
0.14950000 0.14949500 9968.49961757 0 60.09165353 0 2903.13465667 0 42.60267615 0 421.60547099 0 24457
0.15050000 0.15050000 9881.80937076 0 158.38215822 0 3074.59285009 0 58.51624614 0 38.22367629 0 24591
0.15150000 0.15149900 9851.84345676 0 74.52142746 0 2900.61918955 0 121.05548213 0 544.52283817 0 25020
0.15250000 0.15250500 9701.55253470 0 -107.63519043 0 2965.01075402 0 292.60484751 0 484.84035997 0 25297
0.15350000 0.15350100 9762.94531085 0 54.90660574 0 2695.26260514 0 113.82873183 0 298.65075626 0 25452
0.15450000 0.15450400 9595.82602360 0 181.18283553 0 2874.65165996 0 160.86577008 0 712.06942530 0 26061
0.15550000 0.15549900 9484.26670447 0 167.43783986 0 2679.99404925 0 -323.68349871 0 609.87555275 0 26128
0.15650000 0.15649500 9224.27285604 0 61.66761016 0 2913.76772293 0 33.68419182 0 767.60852273 0 26331
0.15750000 0.15749700 9235.56499665 0 160.22536950 0 2849.93637166 0 307.42413438 0 762.86538429 0 27345
0.15850000 0.15849900 9107.17731232 0 55.84424885 0 2882.12116932 0 46.24867548 0 461.06535107 0 26980
0.15950000 0.15949700 8863.12207871 0 219.36630828 0 2731.79729354 0 -194.83226542 0 951.60340884 0 27777
0.16050000 0.16050000 8753.15552260 0 155.45916346 0 2926.05945965 0 295.38284591 0 633.71207525 0 28224
0.16150000 0.16150500 8688.64312783 0 -18.19627402 0 2750.72371210 0 64.07608755 0 936.67647316 0 28075
0.16250000 0.16249700 8650.23007751 0 88.44382398 0 2735.22448019 0 -79.31630324 0 264.91493694 0 28590
0.16350000 0.16349900 8479.26618985 0 65.91600345 0 2571.45548757 0 -36.37409395 0 207.07457156 0 29163
0.16450000 0.16449100 8478.03591772 0 -59.08162209 0 2617.89826045 0 -3.25479476 0 -14.70636546 0 28996
0.16550000 0.16550500 8574.16191238 0 38.40349374 0 2356.35558729 0 -1.48962887 0 -115.35339051 0 30777
0.16650000 0.16650700 8402.78061097 0 19.26342524 0 2464.15818260 0 81.58615532 0 -105.53955367 0 29211
0.16750000 0.16749900 8448.34461804 0 21.63993752 0 2041.95515086 0 299.81512095 0 136.06919594 0 30922
0.16850000 0.16850800 8623.83414960 0 42.03356544 0 2265.02985085 0 373.87201084 0 -57.90286760 0 30867
0.16950000 0.16949900 8407.59185376 0 45.90310082 0 1778.23753233 0 -71.77682216 0 -46.71354259 0 30852
0.17050000 0.17049200 8396.54137374 0 123.89169877 0 2092.15464756 0 173.43431803 0 362.17563795 0 31257
0.17150000 0.17149500 8125.94741277 0 127.53088767 0 1989.39397106 0 -10.48221512 0 604.14270432 0 32608
0.17250000 0.17250900 8104.45060423 0 89.38783815 0 2252.14494721 0 -88.98228773 0 380.84062368 0 32361
0.17350000 0.17350400 8030.76609136 0 47.90372103 0 1986.53798219 0 8.98975223 0 633.18701268 0 32508
0.17450000 0.17449800 7857.48445889 0 117.24493390 0 2028.83957120 0 -15.78538003 0 8.81116505 0 32791
0.17550000 0.17549800 7826.24433447 0 103.73423917 0 2102.97445155 0 177.11854367 0 601.02308570 0 33633
0.17650000 0.17650100 7773.00211116 0 45.88497628 0 2022.78707171 0 -67.65552037 0 110.26973032 0 33984
0.17750000 0.17750300 7627.08304899 0 169.52820402 0 2197.16716144 0 -140.54540926 0 -21.08290985 0 34069
0.17850000 0.17849800 7401.62469676 0 67.95990287 0 2143.97986100 0 -237.74459666 0 134.19742477 0 34536
