### header ###
fiducial parameters:
Omega_m = 0.31
Omega_nu = 0
Omega_de = 0.69
Omega_k = 0
H_0 = 100
w_de = -1
zeff = 0
beta = 0
fgrowth = 0
b_1 = 2
gamma = 0.55
Lx = 3500 Ly = 3500 Lz = 3500
nx = 700 ny = 700 nz = 700
xoffset = -983.599254 yoffset = -42.9823471 zoffset = 800.977702
bins = 400 dk = 0.001
kx_ny = 0.628318531 ky_ny = 0.628318531 kz_ny = 0.628318531
############################
A(data) = 9.20180467 (not used)
A(ran) = 9.20453581 (used)
Ngal = 511667
weighted Ngal = 0
Nran = 25229228
weighted Nran = 0
SN(data) = 6705.00719
SN(ran) = 136.634993
SN(data+ran) = 6841.64218
############################
13 columns: k_central k_mean P_0(k) sigma^{lin}_{P_0(k)} P^img_1(k) sigma^{lin}_{P_1(k)} P_2(k) sigma^{lin}_{P_2(k)} P^img_3(k) sigma^{lin}_{P_3(k)} P_4(k) sigma^{lin}_{P_4(k)} N_modes
### header ###
0.00050000 0 0 0 0 0 0 0 0 0 0 0 0
0.00150000 0.00179520 19177.85542404 0 -18364.22813294 0 -10446.73495404 0 -32782.35841176 0 -38525.75203164 0 3
0.00250000 0.00253879 21831.06908534 0 -12536.91237854 0 -16237.50503547 0 19432.58766220 0 25594.05411453 0 6
0.00350000 0.00331552 23109.56348808 0 -13678.75869837 0 -4928.14061204 0 7363.01392414 0 8423.27782341 0 7
0.00450000 0.00420575 41137.22431713 0 -24801.95658569 0 -14985.37360692 0 -15796.80398350 0 -13743.67752233 0 24
0.00550000 0.00557378 44308.69011282 0 2308.26512853 0 -2587.14145722 0 -11564.00878501 0 -14097.92998807 0 45
0.00650000 0.00659388 48825.21682109 0 4657.19514475 0 -14511.05976286 0 -4657.74437338 0 16440.06055387 0 40
0.00750000 0.00754703 57393.07358881 0 1321.57589641 0 19286.71253832 0 -13007.16193075 0 -9937.57804575 0 57
0.00850000 0.00846663 57195.68081952 0 8391.94982240 0 10420.78939361 0 14484.47709721 0 19080.86164815 0 75
0.00950000 0.00948925 56347.01274189 0 -14827.41545320 0 6598.86114794 0 8047.35279595 0 -6633.64928931 0 112
0.01050000 0.01054430 58719.57057373 0 -7843.64389743 0 7949.26056280 0 -1654.50730677 0 -6956.28815517 0 105
0.01150000 0.01145670 67741.96895487 0 6141.36468450 0 -1292.01641159 0 -14704.93746892 0 -17882.00539662 0 144
0.01250000 0.01249090 68269.77766740 0 -2387.01352936 0 8414.07275158 0 -7021.38273228 0 4197.88622683 0 169
0.01350000 0.01339930 68848.00556808 0 -2441.68374710 0 5176.97413472 0 -5943.44465573 0 -43658.95264463 0 180
0.01450000 0.01448870 72936.46348286 0 9682.46134755 0 24634.11231665 0 -19404.68684785 0 -30151.44343280 0 267
0.01550000 0.01550050 64041.59598939 0 5070.66544128 0 26797.19434936 0 -9364.30418730 0 -3602.47845463 0 238
0.01650000 0.01653350 54060.24442190 0 523.26219794 0 35219.39568466 0 7836.53687897 0 -15329.95964880 0 315
0.01750000 0.01747870 59547.80734636 0 2145.74837718 0 48491.61535179 0 8164.23963279 0 -5226.21797361 0 297
0.01850000 0.01844180 52826.45722957 0 3490.79830520 0 38440.18221123 0 13508.93720626 0 -1620.45513177 0 388
0.01950000 0.01947590 57801.15046021 0 -2605.56258544 0 37539.66695101 0 6739.96896732 0 24724.62519472 0 399
0.02050000 0.02045430 56651.50509384 0 -3174.45359943 0 30706.16434816 0 20837.40464963 0 24789.76371012 0 462
0.02150000 0.02154770 63679.65432284 0 -811.81044280 0 24664.42973697 0 14606.51569859 0 32085.71681865 0 571
0.02250000 0.02255340 68291.74681257 0 -4322.11075815 0 14029.60594662 0 1694.13964465 0 42853.78347442 0 510
0.02350000 0.02348930 67076.41370217 0 -2380.31294009 0 23160.64175058 0 6069.54754897 0 14381.22211495 0 555
0.02450000 0.02439640 69232.90499134 0 2149.86759190 0 20468.10331945 0 -4040.25761029 0 43532.95959712 0 592
0.02550000 0.02547300 67881.91240956 0 4049.68237356 0 26151.30148158 0 -1455.46685160 0 18247.46212640 0 837
0.02650000 0.02652900 67680.89473132 0 1346.26921557 0 30802.82858688 0 -614.85595795 0 25225.74139588 0 723
0.02750000 0.02749970 63378.01795975 0 1148.98629201 0 32281.90128495 0 -4315.17949285 0 9580.81011288 0 826
0.02850000 0.02848090 63863.42622212 0 2115.49686430 0 39327.29629290 0 -1461.39852079 0 17638.91680540 0 831
0.02950000 0.02946900 59245.95129183 0 2046.41488733 0 34900.84307980 0 2793.20105427 0 5892.22359379 0 996
0.03050000 0.03053250 60644.50707289 0 -1054.25753498 0 33462.52314600 0 9709.87884071 0 4090.77565959 0 1041
0.03150000 0.03150510 58899.49787261 0 1694.45819725 0 31371.28021796 0 5065.27201614 0 7293.56945628 0 1036
0.03250000 0.03246190 59801.55097299 0 424.71849886 0 27841.27797322 0 -3418.09141928 0 5535.65338322 0 1059
0.03350000 0.03345080 56695.55322989 0 2450.33959029 0 31425.98338942 0 -685.44501828 0 4652.55965512 0 1302
0.03450000 0.03451200 53503.10690058 0 1717.29512365 0 29060.45568402 0 -2113.50865666 0 -1868.67351839 0 1339
0.03550000 0.03553350 55535.69221103 0 -1357.12197328 0 30741.86420905 0 5393.07363112 0 -4371.35459704 0 1365
0.03650000 0.03647120 51097.92488817 0 1884.48031834 0 27807.22579822 0 2890.06301530 0 -7810.71214884 0 1308
0.03750000 0.03744890 51991.19033048 0 2807.29426090 0 28674.78734069 0 -4125.60773925 0 -5942.33521390 0 1579
0.03850000 0.03847530 47122.05884235 0 3361.04853387 0 31277.80150529 0 -1242.65174241 0 -4144.47923494 0 1662
0.03950000 0.03950240 45262.91993296 0 936.97305662 0 30899.27313414 0 4884.32315201 0 -3501.13478800 0 1683
0.04050000 0.04050350 44402.82789984 0 -263.74507996 0 27859.40251798 0 3565.14189243 0 -5477.92945431 0 1822
0.04150000 0.04152450 41938.10950404 0 1588.18245753 0 23985.69299717 0 4297.81288360 0 -4161.84584419 0 1887
0.04250000 0.04250150 41681.61973426 0 1398.94024110 0 23879.80171749 0 3359.70841601 0 1405.81658353 0 1920
0.04350000 0.04349210 40686.74699557 0 -516.83402607 0 20835.31758084 0 2326.78511790 0 556.32905678 0 2005
0.04450000 0.04448520 39930.78871052 0 -759.42062233 0 17984.27176735 0 1863.07138638 0 669.45257906 0 2151
0.04550000 0.04548030 39790.73541011 0 1337.27285063 0 16819.46769083 0 1774.19520962 0 520.35238467 0 2274
0.04650000 0.04648670 39773.70932261 0 -134.54014343 0 15813.61037955 0 -138.59894300 0 -1496.56013763 0 2311
0.04750000 0.04749250 38330.99555977 0 123.34576552 0 15670.70109027 0 649.68693915 0 -3399.11007786 0 2568
0.04850000 0.04851840 37884.36283862 0 1635.33922762 0 15529.00010397 0 -481.12427906 0 -2554.06690918 0 2493
0.04950000 0.04949480 36631.02310709 0 1522.50569806 0 14089.91125009 0 2176.26351982 0 -1069.76116072 0 2644
0.05050000 0.05050630 35085.71343634 0 -411.02073685 0 16815.51324470 0 1559.76536826 0 657.21906057 0 2829
0.05150000 0.05149060 36116.83526455 0 -1019.55727020 0 13196.53596205 0 5403.66275909 0 1249.34134711 0 2784
0.05250000 0.05249300 35732.59491566 0 196.46237599 0 10618.24807033 0 281.09631081 0 1052.81196523 0 3055
0.05350000 0.05348950 35936.02919986 0 2141.47537845 0 10038.69103636 0 -1300.36468675 0 740.14928819 0 3009
0.05450000 0.05448610 34156.30875024 0 1309.92126490 0 11261.27396467 0 -847.20163719 0 2166.00392902 0 3336
0.05550000 0.05550870 33657.27961786 0 -934.60917660 0 11649.13922251 0 1069.12515397 0 515.66526754 0 3349
0.05650000 0.05647670 32404.48911496 0 -494.15417906 0 11902.44346624 0 2473.36325442 0 -1131.81740506 0 3324
0.05750000 0.05747970 32812.23644918 0 1237.60982359 0 9629.90016775 0 -1579.25200002 0 -1837.89474602 0 3639
0.05850000 0.05849280 31124.78640924 0 1294.58680157 0 11392.21006984 0 -1679.25554880 0 1045.56214733 0 3846
0.05950000 0.05951020 32349.89578923 0 -268.29708684 0 12027.66759367 0 401.55642911 0 -4950.65898583 0 3787
0.06050000 0.06049470 30711.43694300 0 -107.43988473 0 12273.61217376 0 612.08564875 0 -2475.20866262 0 3930
0.06150000 0.06148310 32089.34172760 0 577.08220976 0 11072.77869917 0 110.83433735 0 -5159.48669517 0 4083
0.06250000 0.06249100 31258.02927465 0 -242.41084310 0 10929.66070301 0 -312.38476735 0 -3627.98463217 0 4303
0.06350000 0.06350600 31329.09945925 0 -583.51807084 0 10449.11860629 0 1740.84604726 0 -5183.88343088 0 4470
0.06450000 0.06451750 31491.34159628 0 626.43369746 0 10971.31420224 0 225.58357636 0 -3327.32589604 0 4479
0.06550000 0.06550280 31464.97862208 0 1251.77992222 0 9726.99280480 0 -1942.35803127 0 -3741.38935950 0 4636
0.06650000 0.06648880 29179.08906790 0 397.65361047 0 11728.44783655 0 -86.68167885 0 -3351.60180145 0 4653
0.06750000 0.06749660 28995.42701434 0 386.21976887 0 12174.42148335 0 186.45872574 0 -4126.60733535 0 5220
0.06850000 0.06852730 28606.79283641 0 461.52780158 0 12882.70672340 0 -433.37544051 0 -4512.86884560 0 5029
0.06950000 0.06949320 28403.02901503 0 1000.40127407 0 13426.11352900 0 100.39679648 0 -3325.08504324 0 5040
0.07050000 0.07048030 28008.79270509 0 -535.67915879 0 12936.86066623 0 -90.86482378 0 -3352.57942841 0 5475
0.07150000 0.07148790 28177.40589421 0 -64.18856957 0 13496.30494779 0 1791.39705028 0 -2192.90514728 0 5509
0.07250000 0.07249820 28093.81329687 0 681.24671464 0 13828.25873120 0 -1095.94618484 0 -2773.60457679 0 5916
0.07350000 0.07351270 26995.46588446 0 970.29146217 0 13766.74512475 0 90.55527852 0 -762.98731304 0 5721
0.07450000 0.07449140 27466.15481957 0 37.51846673 0 15164.09260282 0 1285.45862176 0 -350.44631135 0 6028
0.07550000 0.07549160 27920.69643298 0 -548.94742401 0 13378.87986690 0 1459.33342115 0 31.80330346 0 6183
0.07650000 0.07648840 27103.00485003 0 -102.07315210 0 13539.91370094 0 1723.25974656 0 2098.71243739 0 6330
0.07750000 0.07749960 27171.32889148 0 297.37654584 0 12396.30984950 0 -570.67161320 0 682.19248634 0 6583
0.07850000 0.07848650 26679.43973129 0 1303.42938250 0 13478.61978594 0 -145.05018248 0 557.98882570 0 6549
0.07950000 0.07947320 25873.28194955 0 684.23012455 0 13197.30488213 0 -525.57554893 0 1534.05048385 0 6828
0.08050000 0.08048110 25336.13635032 0 -79.25621763 0 13585.38983143 0 1717.16330878 0 507.37630907 0 7147
0.08150000 0.08149960 24664.75927415 0 188.75450141 0 12990.35553470 0 -175.06442860 0 -613.57625525 0 7386
0.08250000 0.08250610 23818.61764821 0 825.38517759 0 13334.39234794 0 249.15756758 0 52.93498481 0 7227
0.08350000 0.08350160 23145.37319470 0 440.01231926 0 12216.60224207 0 1320.75205346 0 1211.70820145 0 7798
0.08450000 0.08449610 22883.72067581 0 -26.66581886 0 11890.14074495 0 373.35244055 0 603.14420667 0 7371
0.08550000 0.08548940 22708.62658886 0 291.63930358 0 11254.68322112 0 836.90469886 0 -453.62659852 0 8256
0.08650000 0.08650700 22414.89911804 0 787.23136319 0 11172.51861821 0 26.09747708 0 256.84127610 0 8037
0.08750000 0.08749060 21236.69386296 0 105.82328518 0 10210.77535042 0 208.65744847 0 1587.61125975 0 8155
0.08850000 0.08849210 21257.78424232 0 -82.49315147 0 9687.53622008 0 2166.82777197 0 1178.78743742 0 8718
0.08950000 0.08949900 20983.49946496 0 -97.58265883 0 9222.50433985 0 821.62186302 0 2328.98203241 0 8571
0.09050000 0.09049190 20951.20482157 0 731.81309606 0 9178.23651235 0 1628.13334801 0 2019.93108284 0 8932
0.09150000 0.09150830 20552.79437405 0 359.82164405 0 7957.23536250 0 458.62238213 0 4145.28110874 0 9285
0.09250000 0.09250820 20123.73696902 0 -9.37403652 0 8077.30772538 0 524.72973684 0 4427.29902519 0 9204
0.09350000 0.09350330 19969.95295288 0 -282.12776218 0 7589.50482619 0 760.36419711 0 3784.92122064 0 9349
0.09450000 0.09448040 19880.42868634 0 236.20236267 0 7321.53617807 0 -122.63396521 0 4156.45241905 0 9564
0.09550000 0.09549270 19213.77497638 0 618.40946718 0 7237.36139838 0 -599.00302281 0 3262.34116465 0 10155
0.09650000 0.09649430 18882.48026733 0 517.27890126 0 8116.07228202 0 -785.03444867 0 2311.42868543 0 9913
0.09750000 0.09749140 18236.14801664 0 459.42315747 0 7862.89985317 0 29.42690103 0 1505.18302710 0 10476
0.09850000 0.09850240 18199.23985277 0 162.40800407 0 7786.02981424 0 147.62936012 0 927.94263950 0 10575
0.09950000 0.09950330 17880.24786501 0 -174.08021090 0 7074.20754183 0 620.26146612 0 715.68664505 0 10882
0.10050000 0.10051200 17694.60858838 0 75.57836303 0 7356.22545828 0 490.72918933 0 -48.38814068 0 10875
0.10150000 0.10150300 17210.18893755 0 516.37487093 0 6313.07552309 0 35.68481202 0 938.67566537 0 11118
0.10250000 0.10250800 17160.53866948 0 152.29450810 0 6379.22461918 0 590.40869322 0 -488.17857157 0 11575
0.10350000 0.10349800 16651.73326751 0 269.05392389 0 6712.71624275 0 -93.30856164 0 255.44733384 0 11364
0.10450000 0.10450100 16181.70340675 0 363.05660067 0 6408.57539712 0 -221.05463708 0 33.68452136 0 12093
0.10550000 0.10551000 16036.04797433 0 234.66232560 0 6267.77514577 0 346.52921277 0 474.00407912 0 12067
0.10650000 0.10649700 15600.83920865 0 208.99687176 0 6428.14990546 0 397.94250473 0 70.20284275 0 12054
0.10750000 0.10749900 15538.11729921 0 297.96531893 0 6006.04573487 0 55.32753456 0 433.99387195 0 12807
0.10850000 0.10850100 15055.34533426 0 338.03594125 0 7091.06886074 0 -514.58658252 0 107.62475508 0 12736
0.10950000 0.10950300 14709.33129795 0 239.25936922 0 6106.43374369 0 110.41143130 0 594.76517470 0 12933
0.11050000 0.11050200 14371.11630817 0 -91.51467109 0 6434.36717354 0 874.77401283 0 956.81339161 0 13428
0.11150000 0.11150900 14492.38598947 0 -39.91980414 0 5959.93249918 0 660.72423768 0 1236.15986001 0 13453
0.11250000 0.11250000 14400.99434559 0 171.56584223 0 5515.35389309 0 407.23874851 0 969.62689553 0 13668
0.11350000 0.11349100 14522.48371834 0 96.12138114 0 5583.11772135 0 -137.28958195 0 387.21826652 0 13791
0.11450000 0.11448600 14125.94064816 0 255.88561828 0 5182.48839016 0 -161.21837486 0 1261.36945409 0 14205
0.11550000 0.11549300 14018.18199113 0 67.92409317 0 5959.26244025 0 147.57553572 0 1236.75302693 0 14776
0.11650000 0.11649800 14061.13166993 0 -112.74894835 0 5729.83865732 0 -62.39566763 0 238.01811252 0 14553
0.11750000 0.11747300 13940.08168008 0 178.26533305 0 5644.04914546 0 436.74990121 0 799.16500284 0 14568
0.11850000 0.11849100 13824.08459362 0 108.01053327 0 5661.43772385 0 377.89565977 0 1320.08199454 0 16015
0.11950000 0.11950300 13757.51808378 0 -120.41398309 0 5247.14358437 0 786.35479430 0 1974.45495235 0 15270
0.12050000 0.12050700 14246.55125510 0 80.73276387 0 5271.56228922 0 201.27471724 0 1193.33101152 0 15999
0.12150000 0.12150000 13907.78703669 0 168.01892375 0 5102.56464006 0 -437.85165384 0 1551.51595425 0 15670
0.12250000 0.12250700 13632.07426490 0 76.73767482 0 5248.94505428 0 -305.24809055 0 1258.20589718 0 16887
0.12350000 0.12352200 13329.99851891 0 236.11558455 0 5279.05376772 0 76.56455796 0 1236.23675202 0 16407
0.12450000 0.12449800 13340.43386286 0 87.87954649 0 5354.97913340 0 -255.47040144 0 -51.42625376 0 16306
0.12550000 0.12549900 13306.49153359 0 110.65089498 0 5335.47053250 0 223.54264277 0 106.93173840 0 17523
0.12650000 0.12650100 13043.63071172 0 80.49330019 0 4729.22098716 0 82.49249240 0 -342.54181292 0 17154
0.12750000 0.12750600 13381.84570150 0 -61.27952521 0 5039.66697746 0 466.80259333 0 -713.85661526 0 18007
0.12850000 0.12850300 13291.44266915 0 -54.94098745 0 4111.45960976 0 -139.25472199 0 -1006.55483163 0 17496
0.12950000 0.12949900 13000.57118720 0 -33.56336152 0 4228.98355181 0 613.67401794 0 -65.52286560 0 18405
0.13050000 0.13049000 13167.86622761 0 101.28753547 0 4008.34742694 0 427.79088381 0 -262.03038818 0 18100
0.13150000 0.13148800 12806.25409823 0 333.44548836 0 3714.01580462 0 -86.64619868 0 -369.50124941 0 19059
0.13250000 0.13249300 12643.46273258 0 255.19908250 0 3932.32320010 0 26.66900439 0 591.83998302 0 18957
0.13350000 0.13349100 12539.10929305 0 -10.06884369 0 3859.82502107 0 507.18627597 0 -152.99312691 0 19468
0.13450000 0.13450700 12218.90900231 0 167.46859666 0 3679.63409244 0 -173.52878535 0 389.44154401 0 19953
0.13550000 0.13551000 12059.63269988 0 159.28399163 0 3815.20568724 0 140.39601908 0 146.56275812 0 19956
0.13650000 0.13649900 11755.90926801 0 87.00100037 0 3434.38154042 0 94.83058401 0 523.03921112 0 19723
0.13750000 0.13749600 11856.08856995 0 121.23013684 0 3599.61148119 0 122.08583504 0 -122.99535765 0 20946
0.13850000 0.13851100 11331.02600056 0 129.47186164 0 3302.28107056 0 120.82151074 0 65.61370802 0 20955
0.13950000 0.13949800 11568.95184267 0 239.62954932 0 3376.95419496 0 -55.21043902 0 160.77130276 0 20506
0.14050000 0.14048300 11217.99474870 0 49.52021073 0 3082.06235945 0 148.10718903 0 -265.02588113 0 21447
0.14150000 0.14148400 11299.17074007 0 60.45051952 0 2975.41314425 0 312.00579960 0 -281.26986706 0 21771
0.14250000 0.14249400 11117.92529248 0 119.95592642 0 3042.67168217 0 -219.29490856 0 -360.29617758 0 22470
0.14350000 0.14350900 10977.80608463 0 143.96490671 0 2974.17188755 0 -98.55413443 0 -578.11585804 0 22519
0.14450000 0.14449900 10651.36655666 0 -8.43861229 0 3013.58453397 0 356.50869696 0 92.07839935 0 22218
0.14550000 0.14550500 10675.88412266 0 166.89520197 0 2999.04095988 0 7.75240604 0 -100.05330889 0 23559
0.14650000 0.14650700 10396.70022593 0 219.46187406 0 3032.66473655 0 178.64649772 0 149.06614222 0 23044
0.14750000 0.14750500 10272.47569461 0 182.04402602 0 3318.80186772 0 -102.23352686 0 295.79366893 0 23649
0.14850000 0.14849900 10158.21417062 0 79.55411923 0 3319.90032498 0 257.43773839 0 575.96507873 0 23640
0.14950000 0.14949500 10284.41592501 0 -87.98543777 0 3399.12106243 0 -110.16647533 0 596.76436691 0 24457
0.15050000 0.15050000 10000.31093976 0 158.34041685 0 3248.97293982 0 267.07230700 0 975.91116950 0 24591
0.15150000 0.15149900 10061.11054900 0 143.73203377 0 3370.25360569 0 80.28635084 0 930.92165558 0 25020
0.15250000 0.15250500 9972.24535682 0 -14.69867626 0 3152.90186802 0 431.46082951 0 1614.44657057 0 25297
0.15350000 0.15350100 9870.49526100 0 63.07473391 0 3615.67092630 0 254.40379944 0 1264.65384129 0 25452
0.15450000 0.15450400 9850.83287608 0 227.64757755 0 3148.37622412 0 -361.39902867 0 1773.01986035 0 26061
0.15550000 0.15549900 9625.51732329 0 27.00271570 0 3221.03917175 0 283.12186600 0 1937.15134387 0 26128
0.15650000 0.15649500 9686.76730000 0 16.33680557 0 3468.10417824 0 -162.26520463 0 1456.92779975 0 26331
0.15750000 0.15749700 9455.34432486 0 182.37026782 0 3401.74637528 0 -122.74930322 0 1017.92496271 0 27345
0.15850000 0.15849900 9351.56208311 0 179.98661557 0 3542.74434893 0 -221.76204356 0 1111.66071438 0 26980
0.15950000 0.15949700 9163.95656799 0 125.94361693 0 3364.45375137 0 247.56809992 0 1243.00324873 0 27777
0.16050000 0.16050000 9132.00244635 0 -61.66782985 0 3387.20280118 0 347.31351125 0 855.01825904 0 28224
0.16150000 0.16150500 9042.47817982 0 131.13382748 0 3345.21976478 0 -74.38170370 0 624.44548982 0 28075
0.16250000 0.16249700 8871.75595276 0 211.29484435 0 3287.05645296 0 -179.72737966 0 745.74592792 0 28590
0.16350000 0.16349900 8839.88970770 0 61.09399578 0 3122.68330885 0 -42.29477858 0 484.96009181 0 29163
0.16450000 0.16449100 8563.22127809 0 102.24352282 0 3277.37904451 0 -39.33861040 0 -51.73799593 0 28996
0.16550000 0.16550500 8385.33710971 0 215.76227001 0 3212.15265253 0 -221.77632350 0 160.34839671 0 30777
0.16650000 0.16650700 8194.41425367 0 94.50269452 0 3488.45859124 0 -83.05061853 0 16.92140452 0 29211
0.16750000 0.16749900 8168.60050811 0 -20.84849907 0 3021.44948794 0 673.68273796 0 65.99597114 0 30922
0.16850000 0.16850800 8349.08802019 0 -95.51898718 0 2853.41848117 0 209.66363532 0 145.61588797 0 30867
0.16950000 0.16949900 8327.27265905 0 29.23016733 0 2313.02144845 0 403.16457054 0 -5.72414865 0 30852
0.17050000 0.17049200 8287.56342916 0 131.10856296 0 2688.39724728 0 -144.56905820 0 393.78813938 0 31257
0.17150000 0.17149500 8157.58298181 0 114.42848949 0 2455.22772509 0 -102.45464631 0 243.47964201 0 32608
0.17250000 0.17250900 8097.28866291 0 -24.08422461 0 2631.11270126 0 43.50934277 0 -14.30443995 0 32361
0.17350000 0.17350400 7957.29028536 0 27.30534068 0 2604.35428246 0 -47.45467170 0 357.00519964 0 32508
0.17450000 0.17449800 8144.96170791 0 65.91567392 0 2332.84860196 0 312.83074100 0 75.70874991 0 32791
0.17550000 0.17549800 8044.29908478 0 -50.50157244 0 2367.81249649 0 329.83705627 0 61.46494480 0 33633
0.17650000 0.17650100 7972.55884125 0 220.42631953 0 2514.22586443 0 -160.23196024 0 303.86623132 0 33984
0.17750000 0.17750300 7667.82482870 0 285.79990479 0 2441.06861103 0 -430.36237225 0 446.46136183 0 34069
0.17850000 0.17849800 7490.22625920 0 -52.94300354 0 2565.78744812 0 346.71814741 0 375.68007148 0 34536
