### header ###
fiducial parameters:
Omega_m = 0.31
Omega_nu = 0
Omega_de = 0.69
Omega_k = 0
H_0 = 100
w_de = -1
zeff = 0
beta = 0
fgrowth = 0
b_1 = 2
gamma = 0.55
Lx = 3500 Ly = 3500 Lz = 3500
nx = 700 ny = 700 nz = 700
xoffset = -983.599254 yoffset = -42.9823471 zoffset = 800.977702
bins = 400 dk = 0.001
kx_ny = 0.628318531 ky_ny = 0.628318531 kz_ny = 0.628318531
############################
A(data) = 9.02546389 (not used)
A(ran) = 9.01509917 (used)
Ngal = 500546
weighted Ngal = 0
Nran = 25229228
weighted Nran = 0
SN(data) = 6760.22197
SN(ran) = 133.822936
SN(data+ran) = 6894.04491
############################
13 columns: k_central k_mean P_0(k) sigma^{lin}_{P_0(k)} P^img_1(k) sigma^{lin}_{P_1(k)} P_2(k) sigma^{lin}_{P_2(k)} P^img_3(k) sigma^{lin}_{P_3(k)} P_4(k) sigma^{lin}_{P_4(k)} N_modes
### header ###
0.00050000 0 0 0 0 0 0 0 0 0 0 0 0
0.00150000 0.00179520 29935.92611876 0 -18236.91693672 0 -40406.42070329 0 63044.74602764 0 -38541.45997043 0 3
0.00250000 0.00253879 50778.49351750 0 -7669.45054544 0 20650.99645293 0 -35459.40859556 0 65518.47177295 0 6
0.00350000 0.00331552 49460.56449919 0 4073.21132803 0 1277.64859065 0 -75506.30423827 0 -30800.85136381 0 7
0.00450000 0.00420575 47994.67328821 0 3336.06961582 0 -22153.46629060 0 13283.09439399 0 36039.94325648 0 24
0.00550000 0.00557378 57439.64817655 0 -20149.11133168 0 -44332.30694387 0 36657.93530991 0 15987.16662634 0 45
0.00650000 0.00659388 67258.75760702 0 -11887.17491035 0 -34574.49142841 0 -12432.77863047 0 4102.66096712 0 40
0.00750000 0.00754703 74276.91087496 0 8059.60059438 0 -57581.23931713 0 -31362.93194280 0 3734.07363416 0 57
0.00850000 0.00846663 74404.11222545 0 946.71856941 0 -34046.90240732 0 -10785.03782040 0 4491.22923762 0 75
0.00950000 0.00948925 61170.99763671 0 2793.98095893 0 -29852.66305859 0 -7719.07884436 0 21320.17661458 0 112
0.01050000 0.01054430 60511.92328183 0 -5615.30251901 0 -24638.94552858 0 16572.75419065 0 22709.17581749 0 105
0.01150000 0.01145670 67457.90790792 0 -6955.46431222 0 -9138.84583507 0 -8952.87702127 0 1234.85269588 0 144
0.01250000 0.01249090 78985.88729486 0 -5325.14503427 0 -18635.32738425 0 -14577.62627270 0 -50.59483146 0 169
0.01350000 0.01339930 79107.70620479 0 1375.93854611 0 -3287.23220612 0 -32464.57472698 0 -3397.27565424 0 180
0.01450000 0.01448870 80256.36295962 0 8338.59775338 0 21498.78576475 0 -19944.68843594 0 -9198.55797162 0 267
0.01550000 0.01550050 77291.73666564 0 2906.75956562 0 34716.63179761 0 -7143.33345708 0 9109.62687201 0 238
0.01650000 0.01653350 84661.17656473 0 -1163.14540607 0 40462.66171491 0 13579.78769941 0 -12039.42108633 0 315
0.01750000 0.01747870 80925.54312127 0 -3249.12672384 0 36766.13334984 0 15628.63017728 0 17191.40531843 0 297
0.01850000 0.01844180 85944.61402514 0 -1833.12744152 0 32273.11362689 0 16324.17331313 0 -4095.26834978 0 388
0.01950000 0.01947590 87112.49378199 0 4614.30038882 0 27424.74298094 0 -3590.20868706 0 6727.64427689 0 399
0.02050000 0.02045430 78855.82995550 0 5765.53851821 0 32386.47441593 0 -4933.32533030 0 8478.67302293 0 462
0.02150000 0.02154770 74249.11990633 0 2673.72185831 0 32514.88406941 0 -5462.32037667 0 2383.39960498 0 571
0.02250000 0.02255340 67043.24029297 0 6129.31460838 0 36686.49519862 0 1712.38501971 0 -18250.31811527 0 510
0.02350000 0.02348930 59682.36836049 0 4164.69084849 0 37521.21286908 0 241.42662539 0 -11291.26184781 0 555
0.02450000 0.02439640 59715.21223250 0 3275.67643576 0 39681.54875865 0 -396.15641323 0 -9045.26826125 0 592
0.02550000 0.02547300 55223.62050399 0 -540.24215024 0 28997.29439168 0 7829.22115363 0 -8629.28249760 0 837
0.02650000 0.02652900 59129.40497674 0 -1520.49552128 0 31488.04622450 0 7839.50271357 0 -14988.77882442 0 723
0.02750000 0.02749970 53714.23038559 0 1630.29730881 0 27594.12509014 0 43.94521061 0 321.65684507 0 826
0.02850000 0.02848090 55359.38982110 0 2718.25331555 0 23661.09887739 0 3345.95573114 0 -91.49500870 0 831
0.02950000 0.02946900 53420.39306904 0 -430.54361770 0 24177.15409726 0 -479.74022292 0 -1979.76050091 0 996
0.03050000 0.03053250 56160.49469946 0 2916.17334432 0 26542.79164838 0 5721.00706096 0 -212.92275800 0 1041
0.03150000 0.03150510 53676.99268454 0 -258.68668429 0 28981.03722426 0 2422.70240568 0 8932.31390140 0 1036
0.03250000 0.03246190 51542.69023199 0 -1165.08967541 0 23279.16528874 0 6259.85526894 0 3510.76825815 0 1059
0.03350000 0.03345080 53739.82443971 0 1953.05700496 0 25064.59771611 0 2912.50449708 0 6734.00434441 0 1302
0.03450000 0.03451200 51770.94965023 0 -352.27963651 0 21806.68333421 0 -5811.32221672 0 7193.66476865 0 1339
0.03550000 0.03553350 47055.49233251 0 1252.44998115 0 25108.97538934 0 3983.65410778 0 7159.66751651 0 1365
0.03650000 0.03647120 48855.64408714 0 1297.50869788 0 22473.99611852 0 4589.25556333 0 10988.41718175 0 1308
0.03750000 0.03744890 47985.11671007 0 615.72044382 0 17991.52158526 0 6401.19376434 0 7770.75027378 0 1579
0.03850000 0.03847530 48788.52834866 0 -504.73671628 0 21063.13761618 0 3032.30224565 0 4039.08226102 0 1662
0.03950000 0.03950240 49251.85762015 0 977.40616983 0 21192.75557264 0 -3845.56704586 0 8357.12872732 0 1683
0.04050000 0.04050350 44970.94999374 0 2530.12054095 0 19646.89667326 0 -4659.91931875 0 4228.39038489 0 1822
0.04150000 0.04152450 42422.85869205 0 -581.21350751 0 22829.23719581 0 1970.26983020 0 2192.10327348 0 1887
0.04250000 0.04250150 43139.16267008 0 1736.30941879 0 23206.55726397 0 1691.09691804 0 2145.21013313 0 1920
0.04350000 0.04349210 43936.09341086 0 2660.00212715 0 23812.46628756 0 -1154.00624168 0 205.44555945 0 2005
0.04450000 0.04448520 40480.45672249 0 -386.78657282 0 22244.85793448 0 4078.75853719 0 5078.96977815 0 2151
0.04550000 0.04548030 41927.23477718 0 -183.05570515 0 22876.69054936 0 3342.67134394 0 2010.46238127 0 2274
0.04650000 0.04648670 40625.12354339 0 -77.64302330 0 17461.84549538 0 2719.70327913 0 5011.40367221 0 2311
0.04750000 0.04749250 39866.08957802 0 -164.85426839 0 16912.39717487 0 1425.44601474 0 7771.45328643 0 2568
0.04850000 0.04851840 40173.65761029 0 25.07744967 0 16586.48490638 0 1754.07147265 0 4196.05180321 0 2493
0.04950000 0.04949480 39169.99721354 0 1673.55455563 0 17771.28090500 0 -904.02043733 0 5638.58981288 0 2644
0.05050000 0.05050630 38848.03939118 0 1278.35160330 0 16415.23541983 0 500.68450746 0 3345.68111683 0 2829
0.05150000 0.05149060 37575.69634908 0 429.72856241 0 16570.33758468 0 -762.52815791 0 1472.55884654 0 2784
0.05250000 0.05249300 36344.10607126 0 408.88863131 0 18814.59560878 0 455.75321177 0 1059.18301733 0 3055
0.05350000 0.05348950 35700.30027227 0 999.36103505 0 15709.80616866 0 404.26302780 0 -1862.67594176 0 3009
0.05450000 0.05448610 34457.83526759 0 306.81778597 0 17632.10637039 0 -479.22284955 0 -521.87484643 0 3336
0.05550000 0.05550870 34241.10965056 0 1095.88137586 0 16944.47212680 0 1262.87434053 0 -3158.85550636 0 3349
0.05650000 0.05647670 33169.34490380 0 -241.82316846 0 16478.50655790 0 1456.20281796 0 202.09087098 0 3324
0.05750000 0.05747970 34177.94835822 0 -621.88718286 0 14706.36546335 0 1798.32831558 0 -1364.85511238 0 3639
0.05850000 0.05849280 32716.67066772 0 505.15303158 0 14797.64726150 0 -509.42822723 0 -1856.03027535 0 3846
0.05950000 0.05951020 32479.95312860 0 1229.70093134 0 14331.79153833 0 313.12512755 0 19.81210464 0 3787
0.06050000 0.06049470 32210.72125463 0 697.83341923 0 15054.13703128 0 -208.27298843 0 690.66049334 0 3930
0.06150000 0.06148310 31345.24678094 0 484.92274426 0 14722.73247650 0 1133.31130693 0 -2978.06042625 0 4083
0.06250000 0.06249100 30787.99941389 0 1016.61450320 0 15952.56522271 0 -744.36736406 0 -469.40374012 0 4303
0.06350000 0.06350600 29706.34855181 0 -200.86938651 0 14603.11048109 0 914.16578857 0 627.08837798 0 4470
0.06450000 0.06451750 30041.37801554 0 -407.18272719 0 15197.92508637 0 3174.49753772 0 901.48080415 0 4479
0.06550000 0.06550280 30268.20943934 0 -569.84996717 0 12047.22013286 0 3069.13351752 0 3452.23147086 0 4636
0.06650000 0.06648880 30955.51414576 0 -384.84889422 0 10445.68043508 0 2284.24186829 0 2775.16438610 0 4653
0.06750000 0.06749660 31668.08336911 0 325.79143819 0 9544.60496165 0 914.44479671 0 3634.61931401 0 5220
0.06850000 0.06852730 30411.33842008 0 659.38411983 0 9297.16647969 0 -1197.81271713 0 1995.08397966 0 5029
0.06950000 0.06949320 28992.24148829 0 1708.10103640 0 10651.77298585 0 -1884.60114864 0 4301.42680798 0 5040
0.07050000 0.07048030 27588.74264958 0 867.14962100 0 11051.46862836 0 208.88812449 0 2694.83420681 0 5475
0.07150000 0.07148790 27281.39430875 0 -567.11151323 0 10680.28893627 0 2322.56704203 0 3956.76387410 0 5509
0.07250000 0.07249820 27588.74264958 0 -321.26140046 0 9418.79865188 0 1267.43293815 0 1487.32211209 0 5916
0.07350000 0.07351270 26917.25572768 0 247.39344522 0 7888.53784557 0 824.23289593 0 3129.66949701 0 5721
0.07450000 0.07449140 26821.68994622 0 471.01298000 0 7283.40872664 0 519.73944552 0 682.37483024 0 6028
0.07550000 0.07549160 26460.51719975 0 553.12925079 0 7677.84275889 0 -120.06906751 0 2077.40236658 0 6183
0.07650000 0.07648840 25844.94175229 0 152.52738104 0 6732.16992079 0 222.05972548 0 1289.47897532 0 6330
0.07750000 0.07749960 25721.69484792 0 314.51028215 0 8021.13262120 0 -1934.67981503 0 345.03970472 0 6583
0.07850000 0.07848650 25315.70504532 0 588.04920703 0 8042.13512398 0 805.55363025 0 -1186.16907020 0 6549
0.07950000 0.07947320 24836.99737222 0 -111.56371297 0 8117.46732274 0 -724.53801364 0 797.73700840 0 6828
0.08050000 0.08048110 24431.11741534 0 456.31232652 0 8543.85547663 0 827.76553447 0 -419.21412954 0 7147
0.08150000 0.08149960 24393.66002284 0 560.63830461 0 8930.85295324 0 0.99670606 0 -387.81912264 0 7386
0.08250000 0.08250610 23979.43179080 0 262.79271752 0 8499.96112460 0 878.05400620 0 622.17607712 0 7227
0.08350000 0.08350160 23764.13416820 0 173.50791467 0 8898.98670819 0 817.76078576 0 1911.86485778 0 7798
0.08450000 0.08449610 22701.48661668 0 433.26889015 0 8065.07091153 0 130.76804121 0 1953.89183248 0 7371
0.08550000 0.08548940 22215.19958851 0 553.06883564 0 8072.13399170 0 453.74852728 0 2709.08119745 0 8256
0.08650000 0.08650700 21327.86581539 0 939.11065444 0 8778.73859214 0 127.03548345 0 2088.44186203 0 8037
0.08750000 0.08749060 20855.74888584 0 397.45918354 0 8034.00654027 0 245.32285329 0 4149.53213833 0 8155
0.08850000 0.08849210 20568.72200429 0 -479.71495840 0 7063.84908988 0 2373.44758222 0 2651.81862058 0 8718
0.08950000 0.08949900 21102.68207747 0 -185.59094451 0 6816.81703710 0 134.48082674 0 2332.12362017 0 8571
0.09050000 0.09049190 20091.66201708 0 582.00219982 0 5528.80999450 0 -75.97139104 0 2294.08404532 0 8932
0.09150000 0.09150830 19963.58190078 0 525.11859071 0 6241.26937213 0 -870.61635211 0 2425.08605793 0 9285
0.09250000 0.09250820 19144.57216912 0 160.03423794 0 6379.92763182 0 486.70444193 0 937.41463643 0 9204
0.09350000 0.09350330 19054.16913678 0 164.95862183 0 6319.11703801 0 -99.50913317 0 638.42335843 0 9349
0.09450000 0.09448040 19028.79477411 0 376.66209227 0 6408.22389079 0 -821.81299459 0 508.19136436 0 9564
0.09550000 0.09549270 18587.98387642 0 134.76642563 0 6686.28736112 0 38.40843680 0 -110.09178024 0 10155
0.09650000 0.09649430 18382.46252343 0 78.57550366 0 6897.55364558 0 411.01744148 0 -536.60845363 0 9913
0.09750000 0.09749140 18042.49000203 0 455.33469956 0 6642.22824049 0 -906.09981692 0 -1556.07455187 0 10476
0.09850000 0.09850240 17407.91124401 0 536.91931703 0 7280.46486119 0 -446.93589536 0 -567.42457355 0 10575
0.09950000 0.09950330 17570.81245539 0 85.62177744 0 7583.38641926 0 493.21499810 0 -551.85174500 0 10882
0.10050000 0.10051200 16985.66427398 0 107.96912143 0 7011.21101807 0 373.57982121 0 -1651.04716641 0 10875
0.10150000 0.10150300 17083.31712423 0 -439.64104071 0 6758.48895670 0 502.07954818 0 -1309.07545281 0 11118
0.10250000 0.10250800 17108.36194972 0 360.55870887 0 6619.83069700 0 103.88692473 0 -2216.73068521 0 11575
0.10350000 0.10349800 16832.97871510 0 693.83064099 0 6573.10232524 0 -691.47225325 0 -1882.55801814 0 11364
0.10450000 0.10450100 16403.70161862 0 110.03246355 0 7322.43691302 0 -138.73625016 0 -1393.78847656 0 12093
0.10550000 0.10551000 16526.17960291 0 -9.87907421 0 6761.21313070 0 832.22417248 0 -2053.52190579 0 12067
0.10650000 0.10649700 16138.86357369 0 -155.40753597 0 5803.29249417 0 554.89007778 0 -1563.00581717 0 12054
0.10750000 0.10749900 15861.83265319 0 207.92477748 0 6513.84055616 0 863.50054599 0 89.62620337 0 12807
0.10850000 0.10850100 15602.92627744 0 552.10219325 0 6280.93466372 0 -21.28920012 0 -652.66265986 0 12736
0.10950000 0.10950300 15478.25137864 0 322.85086811 0 6185.18214453 0 447.65648332 0 1178.42494653 0 12933
0.11050000 0.11050200 15096.75717289 0 5.59458562 0 6175.68048925 0 827.79409436 0 784.48961387 0 13428
0.11150000 0.11150900 15046.11829329 0 61.80217118 0 5862.21374149 0 -162.51345597 0 1023.53368547 0 13453
0.11250000 0.11250000 15084.89383451 0 -123.26118431 0 5253.11919186 0 840.87232647 0 2085.75064175 0 13668
0.11350000 0.11349100 14695.05135360 0 -169.56665002 0 5069.84159834 0 684.89469119 0 1663.36087228 0 13791
0.11450000 0.11448600 15040.73585273 0 286.73908575 0 4364.23659400 0 151.43661298 0 1344.19313135 0 14205
0.11550000 0.11549300 14574.22105520 0 321.32291406 0 4100.24436116 0 319.57087474 0 1974.16935346 0 14776
0.11650000 0.11649800 14758.32249166 0 -99.66599287 0 4206.97046836 0 271.22227852 0 1657.49511052 0 14553
0.11750000 0.11747300 14211.40062284 0 106.77334086 0 3605.00490633 0 456.03881066 0 2537.43626629 0 14568
0.11850000 0.11849100 14126.70956824 0 222.28710613 0 3813.63489336 0 -122.55707320 0 1620.36725519 0 16015
0.11950000 0.11950300 13663.16060530 0 215.93472780 0 3639.44154137 0 -355.54425148 0 2411.27845019 0 15270
0.12050000 0.12050700 13546.61429022 0 307.24618430 0 4394.34530745 0 520.38204301 0 1326.92538325 0 15999
0.12150000 0.12150000 13416.88648803 0 320.08385428 0 4583.78524619 0 -879.05909460 0 1346.04952412 0 15670
0.12250000 0.12250700 13034.51351647 0 69.58539993 0 4463.10873181 0 -156.09846558 0 917.38646525 0 16887
0.12350000 0.12352200 13040.66487712 0 -51.93846438 0 4918.54009560 0 40.39115215 0 1244.06875227 0 16407
0.12450000 0.12449800 12764.51272242 0 263.81098740 0 4539.91286330 0 79.87333091 0 593.61838533 0 16306
0.12550000 0.12549900 12837.66997582 0 207.50626526 0 4766.76625625 0 303.11268964 0 1104.02643643 0 17523
0.12650000 0.12650100 12676.52629605 0 -35.88231464 0 4831.70704935 0 423.79689322 0 929.22893295 0 17154
0.12750000 0.12750600 12806.25409823 0 44.47444731 0 4429.46298599 0 -299.36914730 0 -98.00732241 0 18007
0.12850000 0.12850300 12131.58165029 0 474.05350969 0 4660.20491763 0 -594.05337440 0 921.07947855 0 17496
0.12950000 0.12949900 12150.91449803 0 1.34041444 0 4531.50966527 0 63.79048866 0 721.21298352 0 18405
0.13050000 0.13049000 12138.72162246 0 -191.08323080 0 5063.27282393 0 474.93557087 0 60.13097830 0 18100
0.13150000 0.13148800 12210.45088142 0 8.33274298 0 4107.66993222 0 234.61728885 0 -763.32783479 0 19059
0.13250000 0.13249300 12524.38996580 0 139.80614753 0 4013.36737661 0 38.13217480 0 58.00579305 0 18957
0.13350000 0.13349100 12073.14372415 0 187.18700290 0 4346.37567899 0 -277.44174352 0 -152.70093728 0 19468
0.13450000 0.13450700 12049.08751020 0 79.23106295 0 4423.58623966 0 -140.80794055 0 -3.69057473 0 19953
0.13550000 0.13551000 12036.01586883 0 57.11823958 0 4385.63454139 0 864.73081812 0 -204.04722336 0 19956
0.13650000 0.13649900 12019.86854713 0 -213.24790135 0 3688.32288936 0 243.24676907 0 80.77329695 0 19723
0.13750000 0.13749600 12025.58052488 0 196.31188734 0 3696.26473533 0 390.08304305 0 386.63828109 0 20946
0.13850000 0.13851100 11728.99706518 0 215.43492975 0 3854.73916396 0 -184.39252764 0 461.48386329 0 20955
0.13950000 0.13949800 11444.38678960 0 198.66478279 0 3582.38767138 0 55.54964262 0 853.45076054 0 20506
0.14050000 0.14048300 11305.98117507 0 200.46515424 0 3785.88786302 0 220.96676050 0 786.99080105 0 21447
0.14150000 0.14148400 11163.62111442 0 28.10765386 0 3625.12864329 0 306.67938036 0 1066.44381980 0 21771
0.14250000 0.14249400 11109.13763442 0 58.71012384 0 3489.21652675 0 -110.75854379 0 151.31907805 0 22470
0.14350000 0.14350900 10973.20354872 0 74.44859974 0 3472.03665523 0 -106.71446355 0 302.21964389 0 22519
0.14450000 0.14449900 10685.95697572 0 190.27256934 0 3752.91217613 0 -220.17477282 0 -36.49470456 0 22218
0.14550000 0.14550500 10524.06634502 0 336.16746545 0 3701.20779299 0 -120.14486107 0 213.87731736 0 23559
0.14650000 0.14650700 10422.96433898 0 142.05029571 0 3937.77154811 0 -74.15684950 0 -516.70660503 0 23044
0.14750000 0.14750500 10289.90821130 0 32.58935947 0 3496.92769670 0 386.23954111 0 -292.45545732 0 23649
0.14850000 0.14849900 10081.19034768 0 -168.18259388 0 3224.04894463 0 508.81748500 0 -36.00105787 0 23640
0.14950000 0.14949500 10030.50752979 0 121.45861595 0 2884.21922268 0 353.99322984 0 -32.72293187 0 24457
0.15050000 0.15050000 9921.02429487 0 160.64388172 0 3035.78435516 0 79.05541964 0 460.15033618 0 24591
0.15150000 0.15149900 9791.57110700 0 77.98574196 0 2736.76232035 0 347.90777663 0 696.83492159 0 25020
0.15250000 0.15250500 9709.52733439 0 32.93493412 0 2649.02853914 0 28.90480429 0 554.38149207 0 25297
0.15350000 0.15350100 9599.70357772 0 191.08542771 0 2558.63649137 0 15.59062356 0 389.81721639 0 25452
0.15450000 0.15450400 9520.40594826 0 101.42462294 0 2915.58017740 0 -442.84084670 0 566.19759679 0 26061
0.15550000 0.15549900 9216.55070151 0 65.08633869 0 2771.72621488 0 186.87394258 0 497.67363611 0 26128
0.15650000 0.15649500 9324.83661802 0 10.66168107 0 3010.94823655 0 -112.65228411 0 -198.38247928 0 26331
0.15750000 0.15749700 9484.57427250 0 172.90596009 0 2883.24159572 0 -111.43079964 0 28.96115515 0 27345
0.15850000 0.15849900 9044.04897370 0 112.34581453 0 3225.35610877 0 -244.16837471 0 -98.47295844 0 26980
0.15950000 0.15949700 9194.06528144 0 111.17266218 0 3050.09725323 0 387.40390580 0 89.97869831 0 27777
0.16050000 0.16050000 9110.07723948 0 -1.35729773 0 3234.08884397 0 -126.23141273 0 46.44727655 0 28224
0.16150000 0.16150500 9054.93468512 0 72.77477057 0 3132.92093050 0 177.28331226 0 44.11558133 0 28075
0.16250000 0.16249700 8973.14355768 0 37.81318281 0 3098.42937259 0 102.70685209 0 240.86641219 0 28590
0.16350000 0.16349900 9043.18119246 0 -46.97146035 0 2751.15211043 0 387.00846119 0 275.41179450 0 29163
0.16450000 0.16449100 8996.46380527 0 -121.10930654 0 2685.34353610 0 351.49973186 0 142.35786374 0 28996
0.16550000 0.16550500 9134.45200604 0 196.83365454 0 2526.95698405 0 -275.61061527 0 -154.25525430 0 30777
0.16650000 0.16650700 8683.30462555 0 274.10902419 0 2551.13402830 0 -291.43718744 0 272.95564407 0 29211
0.16750000 0.16749900 8573.96419008 0 105.08841727 0 2730.96246603 0 2.12649242 0 -215.63924280 0 30922
0.16850000 0.16850800 8214.49405235 0 106.13678488 0 2543.32399719 0 360.73665894 0 -15.25109042 0 30867
0.16950000 0.16949900 8483.95660235 0 8.99101546 0 2558.69141424 0 142.70937006 0 -79.39506262 0 30852
0.17050000 0.17049200 8165.05249116 0 115.07218545 0 2408.91676709 0 -107.95176581 0 -165.82091077 0 31257
0.17150000 0.17149500 8105.62595350 0 190.59990960 0 2465.55322332 0 -14.27719821 0 -123.30731951 0 32608
0.17250000 0.17250900 7951.00710984 0 84.32482895 0 2604.88154194 0 57.37758534 0 20.91923972 0 32361
0.17350000 0.17350400 7839.09628439 0 -32.92405940 0 2408.27966188 0 151.36081943 0 211.22783845 0 32508
0.17450000 0.17449800 7941.27477854 0 58.35202678 0 2443.99050734 0 351.50742106 0 265.28621550 0 32791
0.17550000 0.17549800 7923.98506129 0 2.97509459 0 2173.38556180 0 308.71372320 0 620.88429139 0 33633
0.17650000 0.17650100 7893.86536328 0 -11.39111161 0 2083.74046496 0 211.90668504 0 693.67575851 0 33984
0.17750000 0.17750300 7752.69163646 0 123.52042022 0 1976.45414456 0 130.09249000 0 1272.07941236 0 34069
0.17850000 0.17849800 7682.71990912 0 44.93195476 0 1998.73085776 0 -104.05432961 0 1004.80498922 0 34536
