### header ###
fiducial parameters:
Omega_m = 0.31
Omega_nu = 0
Omega_de = 0.69
Omega_k = 0
H_0 = 100
w_de = -1
zeff = 0
beta = 0
fgrowth = 0
b_1 = 2
gamma = 0.55
Lx = 3500 Ly = 3500 Lz = 3500
nx = 700 ny = 700 nz = 700
xoffset = 857.220397 yoffset = 15.9954215 zoffset = 262.898189
bins = 400 dk = 0.001
kx_ny = 0.628318531 ky_ny = 0.628318531 kz_ny = 0.628318531
############################
A(data) = 3.09414432 (not used)
A(ran) = 3.09339337 (used)
Ngal = 188340
weighted Ngal = 0
Nran = 9360983
weighted Nran = 0
SN(data) = 3449.63685
SN(ran) = 69.4659895
SN(data+ran) = 3519.10284
############################
13 columns: k_central k_mean P_0(k) sigma^{lin}_{P_0(k)} P^img_1(k) sigma^{lin}_{P_1(k)} P_2(k) sigma^{lin}_{P_2(k)} P^img_3(k) sigma^{lin}_{P_3(k)} P_4(k) sigma^{lin}_{P_4(k)} N_modes
### header ###
0.00050000 0 0 0 0 0 0 0 0 0 0 0 0
0.00150000 0.00179520 3667.21733838 0 -6283.02916999 0 2159.09295176 0 9204.75531124 0 -19132.82401573 0 3
0.00250000 0.00253879 9656.53954542 0 -7830.34970572 0 8006.37829616 0 -6876.99639527 0 22182.07533952 0 6
0.00350000 0.00331552 13005.99492829 0 -5244.28063594 0 3515.99686410 0 3382.58158057 0 -4062.92196607 0 7
0.00450000 0.00420575 17902.53479322 0 -5739.19524698 0 10215.66075343 0 96.56078679 0 -279.10310952 0 24
0.00550000 0.00557378 29643.16966873 0 -10574.99063535 0 6779.40506562 0 5577.83570573 0 -2033.97326847 0 45
0.00650000 0.00659388 36465.34541038 0 -11632.38740897 0 8415.66162993 0 8732.15339191 0 -5948.88958636 0 40
0.00750000 0.00754703 45331.97070698 0 -8702.47807398 0 -6730.95786097 0 -6202.31005709 0 -21740.76739182 0 57
0.00850000 0.00846663 63880.16847819 0 -16530.83818452 0 7564.66568504 0 -30742.61771672 0 -42962.10431337 0 75
0.00950000 0.00948925 76413.15682373 0 -18982.08688942 0 9479.85899724 0 -40262.32482080 0 -51105.73095496 0 112
0.01050000 0.01054430 93672.95120815 0 -8075.15983799 0 16035.23789379 0 -53670.73504526 0 -75944.87131427 0 105
0.01150000 0.01145670 109773.72209570 0 -65.10517459 0 46260.56086387 0 -64534.93638327 0 -63825.76372866 0 144
0.01250000 0.01249090 106073.52468807 0 11186.47079447 0 52526.21198783 0 -29702.96993061 0 -57931.27889183 0 169
0.01350000 0.01339930 109658.61783221 0 8119.74025879 0 64883.17174292 0 -12369.21206438 0 -29189.60941173 0 180
0.01450000 0.01448870 107751.86624872 0 -6602.99429305 0 72715.09513974 0 34603.44402330 0 -49139.29151608 0 267
0.01550000 0.01550050 107539.08073038 0 -2599.54661000 0 71118.36070340 0 21005.74124053 0 -44134.16696509 0 238
0.01650000 0.01653350 116658.84548145 0 5915.32500328 0 77629.73245234 0 23631.10762526 0 -34212.26937786 0 315
0.01750000 0.01747870 100758.72020944 0 18278.19734065 0 78622.05709887 0 -5658.49861538 0 7426.87778838 0 297
0.01850000 0.01844180 86818.96442493 0 21516.29159673 0 86958.23608748 0 -6416.84911694 0 19994.53230077 0 388
0.01950000 0.01947590 80088.28758022 0 9662.03622363 0 84132.22408721 0 17852.40149096 0 22530.64791869 0 399
0.02050000 0.02045430 72240.62727238 0 2503.39408365 0 66605.46424792 0 25077.10493529 0 10944.78556310 0 462
0.02150000 0.02154770 70083.65880361 0 767.65888444 0 53450.41829094 0 23983.95165170 0 -11884.74001788 0 571
0.02250000 0.02255340 62764.64629965 0 5355.03476759 0 42225.39206446 0 9162.11952302 0 -7024.22643854 0 510
0.02350000 0.02348930 58967.32966971 0 4651.96578632 0 21983.79026063 0 16485.98798810 0 -16638.74843154 0 555
0.02450000 0.02439640 55289.16393751 0 2.46700810 0 9581.12601967 0 9094.46204627 0 -17213.48290341 0 592
0.02550000 0.02547300 54385.64043175 0 -1752.48489287 0 6424.52648139 0 4831.19796223 0 -15723.19742950 0 837
0.02650000 0.02652900 58865.03974805 0 -1440.10720905 0 11217.19149292 0 421.94143055 0 -17733.81262575 0 723
0.02750000 0.02749970 58519.95177061 0 746.36009943 0 24485.17226780 0 -8139.58000733 0 -3475.89022229 0 826
0.02850000 0.02848090 62841.08272462 0 2726.00393072 0 32789.54021484 0 -4279.85528452 0 -586.91708914 0 831
0.02950000 0.02946900 62359.75806032 0 1348.65327470 0 47083.15168437 0 734.87103032 0 20582.86796003 0 996
0.03050000 0.03053250 62078.74179204 0 1848.05290538 0 50246.27080007 0 7243.90247578 0 20238.11720211 0 1041
0.03150000 0.03150510 63258.11086674 0 2280.46949835 0 52302.86025781 0 12488.92499467 0 25557.75516055 0 1036
0.03250000 0.03246190 58535.91349465 0 2791.21094562 0 42294.40965995 0 16347.05354507 0 27612.54611417 0 1059
0.03350000 0.03345080 57473.67200057 0 1789.48911507 0 37379.99716036 0 15150.59868126 0 25970.73666840 0 1302
0.03450000 0.03451200 54033.35843785 0 457.81034704 0 29631.36698546 0 9039.14680403 0 19779.49865228 0 1339
0.03550000 0.03553350 53104.88068747 0 1327.62201719 0 19390.12251096 0 7776.61939522 0 12202.40080753 0 1365
0.03650000 0.03647120 50898.34094897 0 3052.26381819 0 17074.88567990 0 698.98300473 0 7383.73617087 0 1308
0.03750000 0.03744890 47522.21150192 0 3311.73175902 0 11583.94020432 0 -898.70014253 0 8193.68125929 0 1579
0.03850000 0.03847530 45203.93969516 0 1372.67454532 0 16042.76912978 0 -2904.26941067 0 3873.50576060 0 1662
0.03950000 0.03950240 46676.68975393 0 295.05246884 0 15832.34414809 0 -4679.58406517 0 3257.90028266 0 1683
0.04050000 0.04050350 45982.35475828 0 101.82669444 0 25531.45203784 0 -6954.06229668 0 80.27139778 0 1822
0.04150000 0.04152450 47468.70600444 0 2044.94414358 0 25736.25669416 0 -7655.38897709 0 6787.70066586 0 1887
0.04250000 0.04250150 45419.31056316 0 1978.25336280 0 35291.48425454 0 -3858.53321382 0 2092.49209618 0 1920
0.04350000 0.04349210 46121.06438830 0 1096.47826808 0 35844.41186400 0 2630.66073122 0 6506.40338132 0 2005
0.04450000 0.04448520 42691.20463075 0 1172.57972165 0 31767.65265688 0 9268.36615373 0 2593.43169600 0 2151
0.04550000 0.04548030 42572.39095253 0 1050.13643731 0 27202.93680154 0 11240.98795051 0 4405.16605887 0 2274
0.04650000 0.04648670 39920.72144509 0 440.14903661 0 19140.13043870 0 11303.93559461 0 4866.62849333 0 2311
0.04750000 0.04749250 39670.84177934 0 -296.35863246 0 11339.11883139 0 9513.14256405 0 4187.35596966 0 2568
0.04850000 0.04851840 38939.74985579 0 -353.27791556 0 6759.45291057 0 7274.09486364 0 4841.94402433 0 2493
0.04950000 0.04949480 37688.10339690 0 54.80176932 0 2053.17229992 0 2009.90703526 0 2669.38477299 0 2644
0.05050000 0.05050630 39066.43198953 0 261.69021747 0 3103.40877902 0 -1457.96860306 0 6790.01623991 0 2829
0.05150000 0.05149060 37645.50133063 0 1038.29778396 0 6731.45244960 0 -1959.33534762 0 3699.59041249 0 2784
0.05250000 0.05249300 38592.18893519 0 909.95877830 0 7577.44630492 0 -2032.64687169 0 6817.06124557 0 3055
0.05350000 0.05348950 36948.58098530 0 702.07193555 0 11601.13839993 0 -2383.84976312 0 5218.15736364 0 3009
0.05450000 0.05448610 37785.44743223 0 1161.37279288 0 11689.93954071 0 -1012.02276287 0 6646.07970730 0 3336
0.05550000 0.05550870 35813.72488750 0 500.68780925 0 12770.27848246 0 135.91632831 0 3763.92065662 0 3349
0.05650000 0.05647670 36253.45914410 0 441.74520901 0 12540.40717502 0 1041.34624843 0 4307.82202354 0 3324
0.05750000 0.05747970 34700.90046514 0 1026.50746540 0 10268.12087040 0 1151.45853893 0 1746.61727318 0 3639
0.05850000 0.05849280 34110.31667573 0 489.62925706 0 9229.31613309 0 1508.68641916 0 720.69319755 0 3846
0.05950000 0.05951020 33852.45614796 0 282.43821059 0 9054.18679470 0 443.61677736 0 421.54688371 0 3787
0.06050000 0.06049470 33395.41128924 0 382.97009447 0 7375.68786495 0 1706.64551918 0 -3099.35090410 0 3930
0.06150000 0.06148310 33443.40886786 0 534.04893655 0 8412.62665423 0 -1101.95920937 0 80.04444904 0 4083
0.06250000 0.06249100 32627.45003130 0 951.94598098 0 8198.08759438 0 -2190.97143723 0 -1845.66988743 0 4303
0.06350000 0.06350600 32755.81826264 0 1140.17292560 0 11641.04271003 0 -1607.69407080 0 264.05637445 0 4470
0.06450000 0.06451750 31672.33193868 0 403.60905328 0 11122.79250808 0 -617.16230806 0 335.89762140 0 4479
0.06550000 0.06550280 31354.55874252 0 510.16705001 0 13329.27604332 0 360.40561219 0 1580.45797408 0 4636
0.06650000 0.06648880 32336.31717736 0 325.96313429 0 15252.55138339 0 191.05284421 0 256.03054983 0 4653
0.06750000 0.06749660 31207.64343747 0 824.78387145 0 15016.38531153 0 1279.66940117 0 110.84113429 0 5220
0.06850000 0.06852730 30967.88035737 0 1498.22137333 0 14822.14686690 0 -684.27011699 0 1587.64074990 0 5029
0.06950000 0.06949320 29840.21827604 0 876.19860790 0 15494.45018712 0 112.12178163 0 -784.81099339 0 5040
0.07050000 0.07048030 29413.74798731 0 611.43744464 0 15101.36463106 0 -312.64858350 0 302.65901719 0 5475
0.07150000 0.07148790 28371.73966454 0 80.56073213 0 12272.99209413 0 1482.69803467 0 -3283.72005739 0 5509
0.07250000 0.07249820 29113.28539327 0 -566.50519148 0 12656.18587754 0 1349.02421618 0 -2019.52903228 0 5916
0.07350000 0.07351270 29254.24315343 0 -518.90103563 0 10031.92107659 0 2372.10328311 0 -3398.85804283 0 5721
0.07450000 0.07449140 29429.59730484 0 -38.28565639 0 10429.86259376 0 2296.09400287 0 -3437.95302607 0 6028
0.07550000 0.07549160 28694.23393402 0 632.81941046 0 8363.11158776 0 440.77401679 0 -1642.00053683 0 6183
0.07650000 0.07648840 28337.23086680 0 886.94129780 0 10279.45144633 0 1357.91557091 0 -614.42183741 0 6330
0.07750000 0.07749960 27483.05381775 0 886.27922347 0 10016.49890378 0 1055.85230820 0 2337.80805773 0 6583
0.07850000 0.07848650 27034.88907311 0 314.23913558 0 8913.46508820 0 1687.18795277 0 1880.76319901 0 6549
0.07950000 0.07947320 26826.82462808 0 103.59046494 0 10845.08099112 0 592.75323500 0 4835.46940951 0 6828
0.08050000 0.08048110 26532.43198543 0 211.85704059 0 8164.33192023 0 440.98196883 0 1688.69419997 0 7147
0.08150000 0.08149960 26624.04328889 0 222.32545861 0 9431.33310803 0 -306.83042268 0 2491.62512233 0 7386
0.08250000 0.08250610 26274.90867718 0 521.67747636 0 7789.71475332 0 -1043.16723385 0 1210.10101379 0 7227
0.08350000 0.08350160 26116.07828236 0 454.25268108 0 8917.15202164 0 -232.57131175 0 836.32127536 0 7798
0.08450000 0.08449610 25076.76771577 0 741.32878416 0 7770.61688773 0 -31.27913398 0 555.35896221 0 7371
0.08550000 0.08548940 24461.90412078 0 1122.00578589 0 9371.06073881 0 811.31532375 0 -541.88479418 0 8256
0.08650000 0.08650700 23614.69627519 0 764.26420792 0 8430.31943848 0 1505.42663045 0 402.02412152 0 8037
0.08750000 0.08749060 22868.65428617 0 521.42343765 0 7538.36256233 0 1753.47407013 0 458.08237078 0 8155
0.08850000 0.08849210 22364.62350739 0 138.88723230 0 7012.55864308 0 737.63398227 0 1409.71248948 0 8718
0.08950000 0.08949900 22131.15519171 0 197.58366229 0 7114.35397610 0 666.62229534 0 405.90551822 0 8571
0.09050000 0.09049190 22206.24273859 0 713.71275345 0 6431.05729947 0 -675.65528227 0 -808.02743341 0 8932
0.09150000 0.09150830 20978.76367877 0 828.67538473 0 6754.68687466 0 -1133.76575468 0 -1818.11905248 0 9285
0.09250000 0.09250820 20378.28811672 0 1085.03528563 0 6302.59914291 0 -910.96818874 0 -1862.29480986 0 9204
0.09350000 0.09350330 19711.49271536 0 735.36337082 0 6594.02425377 0 -30.52904535 0 -2095.70692229 0 9349
0.09450000 0.09448040 19114.27694202 0 270.43319561 0 6616.04468855 0 1442.51270831 0 -1794.23266968 0 9564
0.09550000 0.09549270 18941.95776632 0 57.90992166 0 5883.94110644 0 1616.42805642 0 -974.08893885 0 10155
0.09650000 0.09649430 18804.14738835 0 -221.24298395 0 5185.52575457 0 1813.82512390 0 -784.49625517 0 9913
0.09750000 0.09749140 19149.34777230 0 -105.18427681 0 5362.37491252 0 431.68257848 0 313.16003311 0 10476
0.09850000 0.09850240 19023.78970364 0 265.66041531 0 5103.86242701 0 -132.59021976 0 23.80500049 0 10575
0.09950000 0.09950330 18797.85262394 0 396.32286347 0 5903.62348587 0 -1160.08011804 0 868.92365874 0 10882
0.10050000 0.10051200 18305.39971542 0 612.22429019 0 6400.97731811 0 -387.07518012 0 873.80210116 0 10875
0.10150000 0.10150300 18144.43359695 0 351.75593146 0 6382.31783790 0 -12.75858821 0 1038.03475273 0 11118
0.10250000 0.10250800 17709.75763318 0 183.74192498 0 6526.44546157 0 973.44035330 0 1193.07142794 0 11575
0.10350000 0.10349800 17858.47144235 0 142.67533160 0 5868.22667672 0 1298.14903097 0 897.65363795 0 11364
0.10450000 0.10450100 17671.65182721 0 -88.11231370 0 5465.91254640 0 1280.62485648 0 1022.06740837 0 12093
0.10550000 0.10551000 17489.10365933 0 117.71097039 0 4785.07757228 0 769.31800448 0 1348.31605518 0 12067
0.10650000 0.10649700 17510.91052175 0 244.11321192 0 5466.49706024 0 -408.07833601 0 1671.88942712 0 12054
0.10750000 0.10749900 17298.46222294 0 189.39934449 0 4800.17376621 0 -857.55149240 0 1656.66958603 0 12807
0.10850000 0.10850100 17288.00841776 0 354.70323008 0 6466.60023708 0 -621.50681957 0 1700.57556779 0 12736
0.10950000 0.10950300 16892.11269901 0 400.29643351 0 6380.82283135 0 -615.85277225 0 1048.72123938 0 12933
0.11050000 0.11050200 16485.08873604 0 657.10258824 0 6809.82226650 0 -394.61878082 0 530.01916327 0 13428
0.11150000 0.11150900 16144.38461239 0 756.41373745 0 6933.14344567 0 84.62523903 0 980.77375384 0 13453
0.11250000 0.11250000 15123.39630649 0 488.37255231 0 6561.63993901 0 497.04808654 0 -165.36008884 0 13668
0.11350000 0.11349100 15141.60616067 0 251.34319848 0 5802.07544716 0 611.14406366 0 -240.53643686 0 13791
0.11450000 0.11448600 14786.51400408 0 -164.61258556 0 4983.43009508 0 930.34369840 0 -1563.14737195 0 14205
0.11550000 0.11549300 14884.86969798 0 -101.65718542 0 4497.17078511 0 531.83565243 0 -1686.25497876 0 14776
0.11650000 0.11649800 14716.59715654 0 -20.60782220 0 3708.52672982 0 364.92885005 0 -2482.77873021 0 14553
0.11750000 0.11747300 14690.85606636 0 52.17865107 0 3237.23996662 0 57.76637855 0 -2531.97905846 0 14568
0.11850000 0.11849100 14735.14423024 0 -0.81459422 0 3433.74902270 0 267.38135894 0 -2595.58990094 0 16015
0.11950000 0.11950300 14560.23970487 0 42.90241646 0 3439.02088789 0 32.08407697 0 -2584.16939980 0 15270
0.12050000 0.12050700 14748.07097858 0 81.19470483 0 3805.07267895 0 -84.66829072 0 -2228.50397002 0 15999
0.12150000 0.12150000 14548.21220859 0 141.87387320 0 4194.78603979 0 -362.23109387 0 -2382.65825415 0 15670
0.12250000 0.12250700 14896.55997474 0 209.94050964 0 4836.06516399 0 -557.55426130 0 -1451.57267280 0 16887
0.12350000 0.12352200 14459.86069384 0 331.30469152 0 5058.21414439 0 -475.68972609 0 -2417.02092343 0 16407
0.12450000 0.12449800 14238.19506142 0 438.26622761 0 5739.50998520 0 -152.57160050 0 -1178.34617548 0 16306
0.12550000 0.12549900 14178.95683207 0 300.33557469 0 5654.86788519 0 -102.03532091 0 -1552.88465784 0 17523
0.12650000 0.12650100 13827.01205768 0 271.84502134 0 5269.15619601 0 587.84107063 0 -1074.46008142 0 17154
0.12750000 0.12750600 13701.56639553 0 98.39908281 0 5125.20842275 0 653.05145771 0 -1155.39276669 0 18007
0.12850000 0.12850300 13630.97510894 0 6.98331047 0 4915.48036141 0 839.30904033 0 -872.92533040 0 17496
0.12950000 0.12949900 13465.96235621 0 94.38965510 0 4394.31883092 0 624.37430957 0 -540.94170358 0 18405
0.13050000 0.13049000 13376.59918289 0 188.43377259 0 3948.34601317 0 610.46400429 0 -402.52320642 0 18100
0.13150000 0.13148800 13221.70301582 0 157.29941820 0 3697.31980104 0 476.35966887 0 474.90625273 0 19059
0.13250000 0.13249300 13039.04244144 0 163.69534847 0 3782.52393358 0 376.61912681 0 236.78318358 0 18957
0.13350000 0.13349100 13054.21731993 0 166.65501180 0 4082.85163981 0 278.17800397 0 1170.96106795 0 19468
0.13450000 0.13450700 12831.98965498 0 207.50353656 0 3926.65155725 0 -224.32517038 0 1289.78598683 0 19953
0.13550000 0.13551000 12925.51186906 0 227.17355127 0 4528.66708845 0 132.86449164 0 1988.67344603 0 19956
0.13650000 0.13649900 12679.11680504 0 188.94072594 0 4409.16773053 0 204.67876103 0 2161.93683639 0 19723
0.13750000 0.13749600 12645.28244634 0 147.04232441 0 4239.15288823 0 284.89092058 0 1763.43328668 0 20946
0.13850000 0.13851100 12549.51210211 0 -6.35591355 0 4263.32028730 0 758.30666303 0 2038.77302633 0 20955
0.13950000 0.13949800 12255.45667899 0 134.52698388 0 3423.13784841 0 446.26057841 0 1523.89501960 0 20506
0.14050000 0.14048300 12271.98043556 0 90.37674279 0 3197.89768906 0 635.88473592 0 1355.45386840 0 21447
0.14150000 0.14148400 11906.20966077 0 327.31988083 0 2637.82102574 0 45.25665835 0 447.63643406 0 21771
0.14250000 0.14249400 11521.77940577 0 345.96587226 0 2796.43784821 0 119.35435353 0 644.87388431 0 22470
0.14350000 0.14350900 11048.33443763 0 468.12701628 0 2563.01449513 0 -660.41745614 0 -9.02919883 0 22519
0.14450000 0.14449900 10983.21734795 0 316.30853937 0 2915.62246791 0 -696.32121864 0 -230.72672097 0 22218
0.14550000 0.14550500 10709.77727827 0 273.72221002 0 3218.64793031 0 -744.12545807 0 -501.57020033 0 23559
0.14650000 0.14650700 10651.59567008 0 90.26624719 0 3331.87500513 0 -232.85794835 0 -260.57851712 0 23044
0.14750000 0.14750500 10542.87609621 0 71.31799466 0 3576.76382195 0 -91.96527155 0 -444.03492957 0 23649
0.14850000 0.14849900 10612.46696489 0 99.20233971 0 3522.99978950 0 479.75097320 0 -610.24818380 0 23640
0.14950000 0.14949500 10405.62775079 0 202.03383591 0 3431.32104214 0 460.94086827 0 -239.08414479 0 24457
0.15050000 0.15050000 10185.26603386 0 192.25109758 0 3053.64641823 0 745.03145452 0 -82.21468148 0 24591
0.15150000 0.15149900 10009.47349708 0 53.15670009 0 2830.27220691 0 645.26505895 0 500.14713395 0 25020
0.15250000 0.15250500 9846.15808261 0 133.41191133 0 2444.68416488 0 502.02657075 0 486.42117534 0 25297
0.15350000 0.15350100 9815.79708498 0 81.69480138 0 2325.80304275 0 248.38241107 0 791.03718983 0 25452
0.15450000 0.15450400 9600.16768201 0 167.62283183 0 2168.32152601 0 -118.52479350 0 723.37072056 0 26061
0.15550000 0.15549900 9688.32810569 0 101.34368367 0 2575.04199141 0 -350.03161563 0 733.31757239 0 26128
0.15650000 0.15649500 9516.71709098 0 49.12186851 0 2746.32702725 0 -353.69269558 0 781.33988044 0 26331
0.15750000 0.15749700 9529.85741169 0 58.43013897 0 3048.91410427 0 -376.50559623 0 504.07574138 0 27345
0.15850000 0.15849900 9618.05155732 0 100.01908539 0 3007.08764290 0 -10.66616355 0 746.28029081 0 26980
0.15950000 0.15949700 9629.10111699 0 34.73304873 0 3203.68662419 0 106.17795033 0 496.57597921 0 27777
0.16050000 0.16050000 9542.75043807 0 126.16506380 0 3045.24965214 0 214.54243205 0 710.51591238 0 28224
0.16150000 0.16150500 9393.35094921 0 155.09400253 0 2987.88861146 0 247.50901251 0 575.19983482 0 28075
0.16250000 0.16249700 9306.22466539 0 108.86131848 0 2694.83360625 0 227.33991290 0 584.69818468 0 28590
0.16350000 0.16349900 9284.06934280 0 142.25942752 0 2873.97585695 0 49.64242304 0 775.29465848 0 29163
0.16450000 0.16449100 9144.15696315 0 105.91413226 0 2645.14993002 0 206.73467605 0 538.62163327 0 28996
0.16550000 0.16550500 8976.89608028 0 65.01491217 0 2676.94973093 0 175.82176247 0 414.37759668 0 30777
0.16650000 0.16650700 9014.79955454 0 151.95673691 0 2647.52170732 0 -30.78544460 0 531.22191290 0 29211
0.16750000 0.16749900 8927.67327073 0 150.38416987 0 2668.15954206 0 53.93365387 0 566.66256059 0 30922
0.16850000 0.16850800 8829.75596221 0 257.06356563 0 2917.82563545 0 -65.56727775 0 533.45543020 0 30867
0.16950000 0.16949900 8471.31409170 0 152.36814472 0 2678.44473748 0 -139.20084646 0 645.16164497 0 30852
0.17050000 0.17049200 8548.95326630 0 134.59330372 0 2929.16745204 0 -71.40229954 0 455.45093445 0 31257
0.17150000 0.17149500 8435.10795569 0 81.20999212 0 3097.26014307 0 121.97005295 0 368.71470121 0 32608
0.17250000 0.17250900 8376.03833610 0 72.84987054 0 2779.62183471 0 153.30786312 0 356.37471484 0 32361
0.17350000 0.17350400 8311.24722529 0 151.14178973 0 2800.16974425 0 257.77622289 0 178.93429866 0 32508
0.17450000 0.17449800 8236.59806378 0 132.36428268 0 2490.00646863 0 197.99282198 0 521.26494448 0 32791
0.17550000 0.17549800 8073.48498103 0 155.05353618 0 2585.73185025 0 261.01353030 0 249.42329533 0 33633
0.17650000 0.17650100 8078.77932752 0 45.90310817 0 2283.61688056 0 468.34845710 0 734.14376022 0 33984
0.17750000 0.17750300 7897.95097921 0 108.26219179 0 2220.12968523 0 213.26549412 0 704.96078279 0 34069
