### header ###
fiducial parameters:
Omega_m = 0.31
Omega_nu = 0
Omega_de = 0.69
Omega_k = 0
H_0 = 100
w_de = -1
zeff = 0
beta = 0
fgrowth = 0
b_1 = 2
gamma = 0.55
Lx = 3500 Ly = 3500 Lz = 3500
nx = 700 ny = 700 nz = 700
xoffset = 857.220397 yoffset = 15.9954215 zoffset = 262.898189
bins = 400 dk = 0.001
kx_ny = 0.628318531 ky_ny = 0.628318531 kz_ny = 0.628318531
############################
A(data) = 3.10071552 (not used)
A(ran) = 3.10187854 (used)
Ngal = 189222
weighted Ngal = 0
Nran = 9360983
weighted Nran = 0
SN(data) = 3434.95662
SN(ran) = 69.6565345
SN(data+ran) = 3504.61315
############################
13 columns: k_central k_mean P_0(k) sigma^{lin}_{P_0(k)} P^img_1(k) sigma^{lin}_{P_1(k)} P_2(k) sigma^{lin}_{P_2(k)} P^img_3(k) sigma^{lin}_{P_3(k)} P_4(k) sigma^{lin}_{P_4(k)} N_modes
### header ###
0.00050000 0 0 0 0 0 0 0 0 0 0 0 0
0.00150000 0.00179520 8223.17672681 0 -16144.60942540 0 -14534.38620819 0 26607.29471930 0 4710.45089208 0 3
0.00250000 0.00253879 15180.83603173 0 -15718.13913667 0 -7029.41961918 0 -18316.86517916 0 -10826.12925398 0 6
0.00350000 0.00331552 23245.66571169 0 -14845.41501391 0 -23456.09069337 0 11173.55528678 0 5234.20901289 0 7
0.00450000 0.00420575 28948.38504704 0 -15406.21107888 0 -29350.35071718 0 6517.95877027 0 3234.94687387 0 24
0.00550000 0.00557378 42343.19408412 0 -15422.84724196 0 -41061.87230730 0 1418.35654989 0 -3111.86174837 0 45
0.00650000 0.00659388 53799.77771566 0 -24023.06911625 0 -44929.21819129 0 -7064.53541206 0 -5929.29713214 0 40
0.00750000 0.00754703 60115.78695489 0 -9538.84993227 0 -35169.52319411 0 -24823.74066781 0 -4030.57137326 0 57
0.00850000 0.00846663 71062.04504324 0 -5116.26086477 0 -50666.55873090 0 -26651.24566366 0 1408.77951546 0 75
0.00950000 0.00948925 63872.41242919 0 -1058.02062973 0 -26972.95308758 0 -26914.72651679 0 -643.34965207 0 112
0.01050000 0.01054430 77430.43571488 0 1258.24472087 0 -41896.71543709 0 -28502.80565207 0 -13363.78484106 0 105
0.01150000 0.01145670 68135.99125145 0 1797.53742100 0 -24659.40235413 0 -28550.35360466 0 -23600.75786828 0 144
0.01250000 0.01249090 67542.70970587 0 4201.51918958 0 -18134.99145034 0 -39336.43242009 0 -28557.54762113 0 169
0.01350000 0.01339930 69031.87111471 0 276.24348797 0 4245.30152418 0 -29225.69190058 0 -36681.05349791 0 180
0.01450000 0.01448870 66490.13517142 0 -4771.46514424 0 6508.52786431 0 -20751.02809496 0 -15098.77928139 0 267
0.01550000 0.01550050 75413.86297374 0 -3516.79495030 0 24395.69668798 0 -5691.80466349 0 -26035.37041011 0 238
0.01650000 0.01653350 82551.33896840 0 -4737.20364082 0 26920.68406168 0 193.46396380 0 -13138.29738740 0 315
0.01750000 0.01747870 90000.29339481 0 -114.98623665 0 41639.97897439 0 4769.68912143 0 -15205.00343080 0 297
0.01850000 0.01844180 87015.11378018 0 9909.64527793 0 44410.46216006 0 -1367.76238095 0 4515.44808319 0 388
0.01950000 0.01947590 78350.59538372 0 7994.14846817 0 42032.95212395 0 6510.29264647 0 10106.85125436 0 399
0.02050000 0.02045430 72732.96777440 0 7787.07320040 0 50885.07698111 0 5999.47251465 0 12236.45997925 0 462
0.02150000 0.02154770 67007.87954409 0 4318.19714417 0 40231.18821828 0 18644.86736749 0 -1614.87684662 0 571
0.02250000 0.02255340 67042.27593533 0 1134.91230105 0 36036.28977198 0 20083.44584805 0 3248.32324824 0 510
0.02350000 0.02348930 62901.89464508 0 -1359.95012869 0 24841.61330248 0 11519.08164960 0 2078.29515430 0 555
0.02450000 0.02439640 64342.04681673 0 1200.70382978 0 19928.88690050 0 8281.06607808 0 -7004.66770627 0 592
0.02550000 0.02547300 63815.42232998 0 450.88723025 0 18158.37200386 0 1496.85001394 0 1681.07303877 0 837
0.02650000 0.02652900 61130.59290289 0 1954.89529058 0 16704.28142530 0 -4479.18574394 0 -6447.25507717 0 723
0.02750000 0.02749970 65710.37123021 0 -13.90086313 0 19291.99163008 0 369.59372010 0 16363.24008212 0 826
0.02850000 0.02848090 62892.56490497 0 1658.34444299 0 31512.71469830 0 -7003.58860380 0 -8828.57569388 0 831
0.02950000 0.02946900 63735.50130329 0 3161.70279371 0 22678.46247580 0 -930.12338165 0 -5847.49891677 0 996
0.03050000 0.03053250 59978.53860947 0 2881.30476122 0 34355.02564214 0 2201.75122128 0 -3492.77367969 0 1041
0.03150000 0.03150510 55787.57439092 0 3616.40959708 0 24599.71449874 0 4543.71831978 0 -6408.95818013 0 1036
0.03250000 0.03246190 54666.09466749 0 1737.36621763 0 30901.33570505 0 16079.86327719 0 1336.71570363 0 1059
0.03350000 0.03345080 50286.73714270 0 2152.05630440 0 18054.05876507 0 12423.50440741 0 -10224.14744474 0 1302
0.03450000 0.03451200 50209.62627868 0 2698.19456082 0 21158.50168396 0 5769.64616981 0 10677.93251475 0 1339
0.03550000 0.03553350 47006.82766590 0 1355.77984727 0 16517.23699713 0 3155.11577238 0 8286.72012539 0 1365
0.03650000 0.03647120 48083.00756689 0 665.65897157 0 21587.33250935 0 1227.22052486 0 20654.80812470 0 1308
0.03750000 0.03744890 47651.59139183 0 -726.24270682 0 17835.20329534 0 181.44883223 0 14095.88842317 0 1579
0.03850000 0.03847530 48701.24335709 0 -545.56273510 0 21608.01530669 0 -1012.14865816 0 14045.30549488 0 1662
0.03950000 0.03950240 50605.74681044 0 7.64776782 0 22179.82720938 0 -2928.05462761 0 9052.72551011 0 1683
0.04050000 0.04050350 50292.58228108 0 323.40026592 0 22547.39648828 0 -2443.02054857 0 1881.05545593 0 1822
0.04150000 0.04152450 49043.97079788 0 1430.41776812 0 20852.75598408 0 -1036.53637399 0 2310.77429272 0 1887
0.04250000 0.04250150 47220.17521678 0 1153.99892600 0 20492.60553466 0 -534.58399153 0 -9065.76466496 0 1920
0.04350000 0.04349210 45572.07100660 0 2170.01886427 0 21019.34242791 0 3546.93113491 0 -3591.57899961 0 2005
0.04450000 0.04448520 43459.05348219 0 2901.89763336 0 14571.03072957 0 2847.04325780 0 -8785.22050401 0 2151
0.04550000 0.04548030 40438.12859823 0 2547.04153044 0 14446.59672598 0 2910.66534093 0 -2350.31890199 0 2274
0.04650000 0.04648670 39167.48543960 0 1252.07360362 0 12766.68147423 0 3443.21365062 0 -5672.21220927 0 2311
0.04750000 0.04749250 38139.07830422 0 515.04324430 0 11892.60847339 0 1765.52404771 0 -5016.14038870 0 2568
0.04850000 0.04851840 38204.94851751 0 -1211.80959271 0 10045.78079894 0 1706.44318747 0 -187.77394640 0 2493
0.04950000 0.04949480 39211.54879047 0 -667.87675196 0 10674.56031953 0 286.64783429 0 -3291.30749664 0 2644
0.05050000 0.05050630 39947.13697430 0 11.16860940 0 9845.94451024 0 -1331.17406282 0 -1581.00876596 0 2829
0.05150000 0.05149060 39846.53315026 0 922.53594240 0 16135.27968529 0 -1759.61146543 0 -5812.79902796 0 2784
0.05250000 0.05249300 39388.25181996 0 2011.70553937 0 12099.09922732 0 -2687.57214588 0 -1047.19475901 0 3055
0.05350000 0.05348950 36916.65753723 0 1244.03653835 0 16819.49809529 0 -1170.73625493 0 -3382.07575129 0 3009
0.05450000 0.05448610 37421.02553553 0 706.10058477 0 16968.66153049 0 1107.44801912 0 1319.87720883 0 3336
0.05550000 0.05550870 36905.30447999 0 -519.48554947 0 15904.95875182 0 1311.97503137 0 -6791.91590989 0 3349
0.05650000 0.05647670 37799.72305866 0 42.61836521 0 16402.35754666 0 528.15995964 0 -2245.83705345 0 3324
0.05750000 0.05747970 36228.28008646 0 1080.76721055 0 14321.26347033 0 294.90971258 0 -5731.10197845 0 3639
0.05850000 0.05849280 35580.70619785 0 920.48677178 0 12102.02179651 0 453.90646904 0 -6890.09175337 0 3846
0.05950000 0.05951020 34365.14222780 0 504.39722399 0 8962.15958717 0 2170.20995533 0 -6363.71456094 0 3787
0.06050000 0.06049470 34165.28345780 0 117.82337690 0 8076.31762501 0 2167.54592111 0 -11427.47034614 0 3930
0.06150000 0.06148310 33556.82703374 0 -89.78739547 0 4529.25160229 0 984.85073786 0 -9725.93932304 0 4083
0.06250000 0.06249100 33875.38707545 0 440.74366703 0 6115.56595540 0 57.54572457 0 -10920.91042095 0 4303
0.06350000 0.06350600 33872.80172578 0 862.85483141 0 7252.19807602 0 -2407.99468089 0 -6242.60778996 0 4470
0.06450000 0.06451750 32476.15087246 0 1010.62217779 0 7940.33947312 0 106.86812629 0 -6389.43316981 0 4479
0.06550000 0.06550280 32645.32266596 0 1130.65209443 0 10011.78907113 0 467.95615839 0 -1896.98345801 0 4636
0.06650000 0.06648880 31736.62846087 0 904.81842872 0 10526.92561283 0 1561.13529547 0 -1494.52319924 0 4653
0.06750000 0.06749660 31325.89508316 0 1046.13701378 0 10940.51411582 0 1939.56304298 0 -546.02360178 0 5220
0.06850000 0.06852730 29975.66811735 0 807.53734103 0 11928.35374271 0 899.07445620 0 1558.50498320 0 5029
0.06950000 0.06949320 29292.23655290 0 923.89493708 0 11582.47891972 0 1747.59520980 0 233.91007326 0 5040
0.07050000 0.07048030 28281.47723917 0 283.69603941 0 11005.58624290 0 -354.26484470 0 987.61256575 0 5475
0.07150000 0.07148790 28479.98713108 0 207.68900730 0 10742.62245970 0 -259.42972261 0 -682.00624993 0 5509
0.07250000 0.07249820 28703.90089364 0 -36.35664832 0 11146.69013153 0 347.52832272 0 -581.22707174 0 5916
0.07350000 0.07351270 27998.43765377 0 30.49397452 0 10259.29695957 0 115.38078349 0 -1091.32780191 0 5721
0.07450000 0.07449140 28005.74407674 0 338.73476165 0 9441.80939451 0 1112.83566302 0 -552.31836619 0 6028
0.07550000 0.07549160 27626.14730156 0 500.32586030 0 10505.44472928 0 697.11143638 0 429.94702200 0 6183
0.07650000 0.07648840 27272.96605559 0 534.21642225 0 9734.81943712 0 1160.77703839 0 226.05623059 0 6330
0.07750000 0.07749960 27013.30702370 0 260.45711809 0 10324.81871268 0 213.14297103 0 40.52333273 0 6583
0.07850000 0.07848650 27215.86354988 0 531.59735063 0 10587.07433489 0 -921.30396708 0 1969.59806173 0 6549
0.07950000 0.07947320 26596.95332063 0 262.05329049 0 11048.58173195 0 -726.18200730 0 956.61871948 0 6828
0.08050000 0.08048110 27144.26060472 0 -74.08420640 0 11640.14345797 0 785.06278396 0 334.08787664 0 7147
0.08150000 0.08149960 26075.49953322 0 -144.58062190 0 9414.67446365 0 740.73752594 0 -1195.24087353 0 7386
0.08250000 0.08250610 27104.69351415 0 138.68152839 0 9425.89263308 0 2196.23206177 0 -1145.16377452 0 7227
0.08350000 0.08350160 26077.07322432 0 431.53082969 0 7538.62109729 0 2236.00148406 0 -1883.31482672 0 7798
0.08450000 0.08449610 25775.14934568 0 1008.26388927 0 7784.10566861 0 1576.60243088 0 403.67986938 0 7371
0.08550000 0.08548940 24376.13795571 0 831.27984351 0 5213.84095376 0 1116.83059029 0 -829.74999094 0 8256
0.08650000 0.08650700 23921.67844665 0 896.01137887 0 6738.38793110 0 591.75281708 0 2192.88234786 0 8037
0.08750000 0.08749060 22699.14527315 0 1043.62023208 0 6342.43600911 0 646.57122257 0 1883.67452755 0 8155
0.08850000 0.08849210 21894.87671335 0 856.94224913 0 6642.42649581 0 862.49063433 0 3998.46807477 0 8718
0.08950000 0.08949900 21157.04039936 0 770.25435069 0 6963.08853922 0 1006.42379474 0 3448.19325889 0 8571
0.09050000 0.09049190 20766.31537995 0 567.36397719 0 6293.86515730 0 876.10081423 0 5014.16203418 0 8932
0.09150000 0.09150830 20253.06726758 0 418.83676282 0 6241.15774602 0 870.53781619 0 4526.09297944 0 9285
0.09250000 0.09250820 19611.33851735 0 378.49069515 0 5121.24047304 0 63.14570436 0 3826.29502753 0 9204
0.09350000 0.09350330 19658.77406343 0 278.94461635 0 5390.63390846 0 -38.99977493 0 4587.15219421 0 9349
0.09450000 0.09448040 19414.62712955 0 102.10962161 0 5115.87868264 0 -766.75963238 0 1925.57967347 0 9564
0.09550000 0.09549270 19607.62910260 0 198.62791874 0 6045.88516152 0 -1130.60713182 0 2336.41421704 0 10155
0.09650000 0.09649430 19322.22898054 0 148.99370137 0 5760.75481508 0 -1157.95563505 0 585.12420535 0 9913
0.09750000 0.09749140 19306.60447603 0 397.22998399 0 7122.31235682 0 -683.54059876 0 1402.92313643 0 10476
0.09850000 0.09850240 19066.61658292 0 434.10493871 0 6589.62915933 0 -607.53918697 0 -73.44382653 0 10575
0.09950000 0.09950330 18281.79434888 0 676.70403498 0 7587.92259140 0 107.98848195 0 -337.54662487 0 10882
0.10050000 0.10051200 17750.67360184 0 873.58066034 0 6468.62355421 0 96.80661982 0 -1070.70907627 0 10875
0.10150000 0.10150300 17019.69408481 0 787.62115607 0 7345.66408685 0 681.28572422 0 -630.82869122 0 11118
0.10250000 0.10250800 16153.60194599 0 538.40693684 0 5789.57584355 0 1186.12470578 0 -640.15955539 0 11575
0.10350000 0.10349800 15776.36570745 0 262.14658789 0 5837.44977502 0 1414.23123107 0 -401.88586152 0 11364
0.10450000 0.10450100 15604.04653175 0 118.22466813 0 4439.01165822 0 1340.63869073 0 -860.85961591 0 12093
0.10550000 0.10551000 15361.58569548 0 76.44137086 0 4201.87889040 0 980.12966455 0 36.71117844 0 12067
0.10650000 0.10649700 15239.39982203 0 70.79957585 0 3510.73623956 0 493.67139506 0 -72.84649835 0 12054
0.10750000 0.10749900 15233.10505762 0 -140.67224764 0 3593.59107609 0 -38.82228506 0 175.88133792 0 12807
0.10850000 0.10850100 15531.20711501 0 -169.68661530 0 3460.22075517 0 -486.30539664 0 593.42430185 0 12736
0.10950000 0.10950300 16102.90661119 0 -224.37013298 0 4182.07286381 0 -439.28350650 0 576.66786380 0 12933
0.11050000 0.11050200 15887.19852366 0 47.70003860 0 4065.59724094 0 42.01507949 0 1038.35511128 0 13428
0.11150000 0.11150900 16172.59864572 0 56.87072350 0 5071.15213338 0 14.83451158 0 1527.98661647 0 13453
0.11250000 0.11250000 15803.79289524 0 256.58808611 0 4370.64602048 0 644.93121163 0 1796.71685349 0 13668
0.11350000 0.11349100 15805.81621237 0 262.17581358 0 4994.86183687 0 1154.92065936 0 2512.03814406 0 13791
0.11450000 0.11448600 15434.76233174 0 320.98465008 0 4338.37411223 0 648.27305709 0 2251.36745361 0 14205
0.11550000 0.11549300 15353.26761394 0 137.88793845 0 3931.03541104 0 651.45416124 0 3364.05698817 0 14776
0.11650000 0.11649800 14910.04875562 0 135.27561122 0 4174.39549937 0 406.71259694 0 2787.32168046 0 14553
0.11750000 0.11747300 15213.65873186 0 -23.66876381 0 3174.12371277 0 198.04902523 0 2938.99178078 0 14568
0.11850000 0.11849100 14881.27268974 0 164.26862165 0 3858.26343821 0 -107.49816476 0 2434.82611419 0 16015
0.11950000 0.11950300 15032.68425509 0 289.87952138 0 3611.58735792 0 -198.47504589 0 2281.82961709 0 15270
0.12050000 0.12050700 14436.48014032 0 446.99459290 0 4027.92982034 0 -189.09022660 0 2004.52276356 0 15999
0.12150000 0.12150000 14120.95507430 0 523.56702975 0 3975.22240906 0 -299.17104327 0 1694.64050420 0 15670
0.12250000 0.12250700 13627.60291372 0 387.37755362 0 4418.02536331 0 -214.70879368 0 1778.33838955 0 16887
0.12350000 0.12352200 13399.97973641 0 38.06196744 0 3944.98505860 0 184.79292582 0 940.89080098 0 16407
0.12450000 0.12449800 13655.14250801 0 -45.34737040 0 4094.12601250 0 271.54826816 0 1286.77349243 0 16306
0.12550000 0.12549900 13565.89174120 0 -208.28925805 0 3734.12169153 0 115.41113325 0 357.06376673 0 17523
0.12650000 0.12650100 13880.96718119 0 -82.62878705 0 3530.07015881 0 270.95476181 0 811.56036993 0 17154
0.12750000 0.12750600 13771.93286910 0 33.44037389 0 3351.87212278 0 228.16834886 0 649.37913712 0 18007
0.12850000 0.12850300 13801.72059354 0 110.00471747 0 3340.47410293 0 281.53109008 0 606.00821034 0 17496
0.12950000 0.12949900 13656.71619911 0 86.17712327 0 3467.92060092 0 269.74639185 0 1027.55846625 0 18405
0.13050000 0.13049000 13997.98235530 0 186.85895743 0 3948.43593837 0 -103.95376277 0 840.20267206 0 18100
0.13150000 0.13148800 13534.97995169 0 367.53330882 0 3858.12855040 0 -570.72717989 0 1119.64300110 0 19059
0.13250000 0.13249300 13471.58268157 0 368.45953844 0 4267.67041913 0 -704.36615237 0 787.35812484 0 18957
0.13350000 0.13349100 13043.87592126 0 326.96018001 0 4395.83631877 0 -240.46674483 0 1087.09569691 0 19468
0.13450000 0.13450700 12857.84315166 0 374.83523554 0 4586.18549824 0 -84.42875245 0 998.93077697 0 19953
0.13550000 0.13551000 12545.24065483 0 190.13560711 0 4542.66169861 0 542.01968199 0 866.61595315 0 19956
0.13650000 0.13649900 12477.68434394 0 195.82674858 0 3967.26402835 0 988.92434969 0 739.16383483 0 19723
0.13750000 0.13749600 12134.50727712 0 117.92004649 0 3541.85036078 0 789.16337335 0 607.06145931 0 20946
0.13850000 0.13851100 11997.82096423 0 199.48445633 0 3133.35387257 0 737.37994356 0 1195.71298086 0 20955
0.13950000 0.13949800 11721.63817577 0 106.71075718 0 3472.76532139 0 325.39772956 0 1018.03538695 0 20506
0.14050000 0.14048300 11714.66897232 0 103.17444846 0 2992.14881808 0 -67.18761755 0 1108.38436533 0 21447
0.14150000 0.14148400 11689.37750817 0 83.79848917 0 3501.96853199 0 -302.87258956 0 1022.27423634 0 21771
0.14250000 0.14249400 11480.18899807 0 151.10694371 0 3331.71763602 0 -326.90847301 0 347.92062143 0 22470
0.14350000 0.14350900 11312.70330218 0 247.74956244 0 3477.90229877 0 -25.72748899 0 409.23050271 0 22519
0.14450000 0.14449900 11125.17552603 0 277.14386410 0 3267.37615123 0 175.26310213 0 279.13233521 0 22218
0.14550000 0.14550500 10873.39619031 0 232.91752380 0 2610.94462984 0 626.72360557 0 78.21829292 0 23559
0.14650000 0.14650700 10732.12369192 0 139.90113900 0 2435.61295974 0 698.01855690 0 -25.94848018 0 23044
0.14750000 0.14750500 10573.77664507 0 129.95990749 0 1649.09338744 0 198.62005029 0 -74.43615117 0 23649
0.14850000 0.14849900 10549.00225086 0 70.08916672 0 2059.81552450 0 -170.93320347 0 -259.54550131 0 23640
0.14950000 0.14949500 10429.66026205 0 146.63541285 0 1559.28058810 0 -542.08937402 0 -511.41251411 0 24457
0.15050000 0.15050000 10485.12163276 0 101.22869182 0 2210.05806217 0 -596.72343284 0 -653.27739479 0 24591
0.15150000 0.15149900 10404.24515075 0 145.23370370 0 2377.15033529 0 -469.10720102 0 -918.42411237 0 25020
0.15250000 0.15250500 10415.72185515 0 63.00227366 0 2647.58915123 0 -1.98126586 0 -886.49954022 0 25297
0.15350000 0.15350100 10337.00357808 0 149.10273569 0 2927.31274467 0 180.02801398 0 -869.35979599 0 25452
0.15450000 0.15450400 10190.60534296 0 148.28778851 0 2726.77953563 0 307.44865847 0 -787.14904874 0 26061
0.15550000 0.15549900 10045.92692740 0 217.73590092 0 2846.99829519 0 248.96804898 0 -415.36002955 0 26128
0.15650000 0.15649500 9900.79888581 0 159.49584135 0 2992.96938559 0 -149.83562611 0 -337.92318667 0 26331
0.15750000 0.15749700 9729.39020281 0 132.73297603 0 3096.21476255 0 -119.31501125 0 -275.20147965 0 27345
0.15850000 0.15849900 9665.40841885 0 155.87185556 0 3124.11405766 0 -105.80903218 0 -367.75137745 0 26980
0.15950000 0.15949700 9519.70710408 0 111.24276274 0 3206.69911858 0 -291.01370303 0 -539.28033540 0 27777
0.16050000 0.16050000 9621.64856556 0 59.81746008 0 3334.40415154 0 95.01429806 0 -447.62406934 0 28224
0.16150000 0.16150500 9458.56920475 0 97.19228655 0 2940.11584585 0 304.68345839 0 -696.82479979 0 28075
0.16250000 0.16249700 9456.09626159 0 146.79390603 0 3160.12910261 0 215.20338231 0 -351.55022755 0 28590
0.16350000 0.16349900 9192.45803935 0 124.50144750 0 3057.76049640 0 142.35047679 0 -397.25134122 0 29163
0.16450000 0.16449100 9249.88652393 0 144.76609263 0 3247.04181406 0 65.69440951 0 -102.44717836 0 28996
0.16550000 0.16550500 9142.18984928 0 79.92687184 0 3148.56247300 0 3.20242767 0 174.16938682 0 30777
0.16650000 0.16650700 9128.39757083 0 114.98174039 0 3324.38873174 0 39.51673246 0 341.50895425 0 29211
0.16750000 0.16749900 9075.98241647 0 89.93307430 0 3153.83433820 0 252.45377477 0 437.88067329 0 30922
0.16850000 0.16850800 9018.04810260 0 146.03853430 0 3096.85547964 0 364.71190549 0 723.45952170 0 30867
0.16950000 0.16949900 8804.38581351 0 92.66185467 0 2568.15147251 0 771.15472681 0 921.37253505 0 30852
0.17050000 0.17049200 8588.36298776 0 69.65640167 0 2406.84813452 0 412.62967549 0 558.35796783 0 31257
0.17150000 0.17149500 8691.10253544 0 6.00293464 0 1909.55050553 0 384.29761532 0 692.32179511 0 32608
0.17250000 0.17250900 8463.71541180 0 121.64070189 0 2051.92458769 0 33.37191833 0 806.28738067 0 32361
0.17350000 0.17350400 8478.47438621 0 126.84737130 0 1797.25640473 0 -135.85787693 0 839.24047236 0 32508
0.17450000 0.17449800 8322.80261424 0 77.32634729 0 2174.21162699 0 -136.18947613 0 1009.36772117 0 32791
0.17550000 0.17549800 8443.93186652 0 76.87582201 0 2169.72660735 0 -73.78632915 0 1126.70662602 0 33633
0.17650000 0.17650100 8342.87841645 0 75.53728532 0 2460.97186779 0 182.06144769 0 1051.66516581 0 33984
0.17750000 0.17750300 8345.77850433 0 71.89250432 0 2321.62152068 0 -37.21622088 0 1068.98363639 0 34069
