### header ###
fiducial parameters:
Omega_m = 0.31
Omega_nu = 0
Omega_de = 0.69
Omega_k = 0
H_0 = 100
w_de = -1
zeff = 0
beta = 0
fgrowth = 0
b_1 = 2
gamma = 0.55
Lx = 3500 Ly = 3500 Lz = 3500
nx = 700 ny = 700 nz = 700
xoffset = 857.220397 yoffset = 15.9954215 zoffset = 262.898189
bins = 400 dk = 0.001
kx_ny = 0.628318531 ky_ny = 0.628318531 kz_ny = 0.628318531
############################
A(data) = 3.05641914 (not used)
A(ran) = 3.05530919 (used)
Ngal = 186785
weighted Ngal = 0
Nran = 9360983
weighted Nran = 0
SN(data) = 3448.21802
SN(ran) = 68.6107621
SN(data+ran) = 3516.82878
############################
13 columns: k_central k_mean P_0(k) sigma^{lin}_{P_0(k)} P^img_1(k) sigma^{lin}_{P_1(k)} P_2(k) sigma^{lin}_{P_2(k)} P^img_3(k) sigma^{lin}_{P_3(k)} P_4(k) sigma^{lin}_{P_4(k)} N_modes
### header ###
0.00050000 0 0 0 0 0 0 0 0 0 0 0 0
0.00150000 0.00179520 17970.54073014 0 -34135.38332686 0 -27793.07096491 0 61491.97982389 0 6543.44132548 0 3
0.00250000 0.00253879 33893.03489710 0 -37552.42874257 0 -10888.81836311 0 -40087.08307590 0 -9413.13449450 0 6
0.00350000 0.00331552 50456.13374921 0 -30462.27588749 0 -32035.51736380 0 1358.81482297 0 -7422.57261915 0 7
0.00450000 0.00420575 67294.40373122 0 -24262.49497682 0 -30602.67161512 0 -31866.79519633 0 -4330.14595589 0 24
0.00550000 0.00557378 74401.64237542 0 -2155.91184760 0 -34675.83381401 0 -52121.43615501 0 -7143.86068427 0 45
0.00650000 0.00659388 81605.10098986 0 341.28526530 0 -29108.22710044 0 -44269.95402592 0 -23413.26381409 0 40
0.00750000 0.00754703 66381.55048536 0 7598.92718847 0 -24181.89951107 0 -58878.41612242 0 -30340.87685960 0 57
0.00850000 0.00846663 71106.33320712 0 3647.93962238 0 -18618.56424478 0 -45041.06266607 0 -38694.14163732 0 75
0.00950000 0.00948925 70178.41748928 0 -6373.20167016 0 -2414.23324205 0 -50680.60954431 0 -46291.69746640 0 112
0.01050000 0.01054430 80191.47675393 0 -9067.60813168 0 -7430.77829418 0 -31853.64363498 0 -69899.53694464 0 105
0.01150000 0.01145670 88237.30973416 0 -12786.35261301 0 1951.25331974 0 -20699.88313413 0 -62606.60275037 0 144
0.01250000 0.01249090 99457.83970035 0 -11453.99828187 0 -10565.42484158 0 -579.21274713 0 -60269.44665038 0 169
0.01350000 0.01339930 104119.33755849 0 -672.37188819 0 9420.04749470 0 -1822.52538757 0 -46891.83580892 0 180
0.01450000 0.01448870 106025.07748342 0 1387.83818315 0 -20128.74567049 0 5528.47800837 0 -33539.29161859 0 267
0.01550000 0.01550050 91421.89849276 0 10352.84165496 0 -13749.22675463 0 11459.61860723 0 -36000.09487662 0 238
0.01650000 0.01653350 88091.96812021 0 15042.23880821 0 -17493.71232613 0 -16619.52691879 0 -18840.22987720 0 315
0.01750000 0.01747870 70193.25514824 0 9068.03527640 0 -3852.00239575 0 -7714.52604058 0 -24803.95712253 0 297
0.01850000 0.01844180 64476.82221899 0 13852.97796087 0 7963.49521362 0 -27884.45745536 0 -3223.04302475 0 388
0.01950000 0.01947590 55916.05502878 0 5859.67254151 0 16457.43673524 0 -22250.98052850 0 -14165.24323818 0 399
0.02050000 0.02045430 57968.26063274 0 -881.55815016 0 29579.65999210 0 -5906.31000139 0 -1022.29784171 0 462
0.02150000 0.02154770 61847.29679349 0 -6531.32390399 0 30170.35618801 0 5271.74154568 0 -5469.56575789 0 571
0.02250000 0.02255340 67010.35248725 0 -2200.09884562 0 34966.62944842 0 7616.00173693 0 -8190.15169496 0 510
0.02350000 0.02348930 70794.18033632 0 337.38813169 0 36484.56692313 0 8107.18445192 0 -4345.24214983 0 555
0.02450000 0.02439640 64895.53645872 0 5416.88082792 0 30176.76335893 0 5273.69741890 0 -5334.82407758 0 592
0.02550000 0.02547300 64933.64226470 0 2574.65980928 0 28601.72337850 0 8487.66923851 0 8199.95354240 0 837
0.02650000 0.02652900 62567.59769234 0 -2112.63534229 0 21144.00124452 0 16418.76889673 0 2405.17327756 0 723
0.02750000 0.02749970 65969.69304258 0 -3055.42244105 0 17286.09750713 0 16750.03087377 0 1928.51348331 0 826
0.02850000 0.02848090 63755.73447460 0 -649.40948688 0 7248.36501412 0 7914.32860733 0 -7546.32094305 0 831
0.02950000 0.02946900 62085.14896296 0 3705.69408584 0 -833.83933968 0 -630.47685885 0 -3685.52835842 0 996
0.03050000 0.03053250 54855.72444532 0 6607.89521677 0 2469.31243063 0 -5592.50475494 0 -9014.34992851 0 1041
0.03150000 0.03150510 51528.71664197 0 5585.83904905 0 8051.62191536 0 -6659.28747191 0 -4832.97398504 0 1036
0.03250000 0.03246190 45937.84178139 0 3880.13774453 0 10601.33872067 0 -5439.86795866 0 -160.66374496 0 1059
0.03350000 0.03345080 46417.14312855 0 1570.09409410 0 15094.84505363 0 2497.47026071 0 552.04634244 0 1302
0.03450000 0.03451200 46429.28303134 0 -730.22302124 0 17551.03964486 0 1608.48091635 0 7400.27116810 0 1339
0.03550000 0.03553350 49085.22398606 0 -84.57252038 0 21839.79752476 0 2236.57475725 0 7927.92979471 0 1365
0.03650000 0.03647120 50478.27783115 0 28.72244797 0 27575.56437327 0 3909.44212099 0 17682.10563239 0 1308
0.03750000 0.03744890 48573.77437780 0 -206.27942969 0 23412.70178155 0 1359.41057745 0 11760.08120127 0 1579
0.03850000 0.03847530 53422.31666411 0 -826.67117671 0 29386.32079952 0 -391.73330578 0 18075.30359496 0 1662
0.03950000 0.03950240 52163.81340827 0 -1139.59965241 0 24113.55635463 0 965.14812526 0 7642.18121248 0 1683
0.04050000 0.04050350 53452.77882759 0 -786.61736596 0 23727.66481503 0 2390.74028202 0 9616.23057190 0 1822
0.04150000 0.04152450 52123.68428516 0 70.74022521 0 20102.89217381 0 6010.13989220 0 5273.00049856 0 1887
0.04250000 0.04250150 51411.81387436 0 1688.31201784 0 13254.97534198 0 3465.75115533 0 -1376.78862348 0 1920
0.04350000 0.04349210 49820.92457641 0 1928.65961177 0 10914.82922890 0 678.81502919 0 -3452.62207528 0 2005
0.04450000 0.04448520 45620.18099173 0 1728.46362225 0 9105.81510351 0 49.29283881 0 -10080.95279507 0 2151
0.04550000 0.04548030 45648.28261855 0 1567.72231680 0 8464.65962647 0 -4632.41829470 0 -8305.05362674 0 2274
0.04650000 0.04648670 44790.17134175 0 748.43737169 0 8022.95825599 0 -1915.15959024 0 -12053.68699836 0 2311
0.04750000 0.04749250 43866.07744516 0 1416.11966039 0 9037.53939097 0 -2138.33146986 0 -12826.14451660 0 2568
0.04850000 0.04851840 42408.61467138 0 1829.92173575 0 8196.13172115 0 -1246.02613353 0 -16944.04450539 0 2493
0.04950000 0.04949480 40334.48979849 0 2128.84436064 0 8500.31497058 0 -254.26801580 0 -15988.58919325 0 2644
0.05050000 0.05050630 38564.19971487 0 2186.72247125 0 10485.42513033 0 318.04634398 0 -14840.91875362 0 2829
0.05150000 0.05149060 37307.71977616 0 1404.72164055 0 7602.44551214 0 1720.49400089 0 -14192.44561295 0 2784
0.05250000 0.05249300 35744.81969852 0 418.88846982 0 10929.41959355 0 2504.67551783 0 -8445.74161129 0 3055
0.05350000 0.05348950 35751.11446293 0 374.68348675 0 7945.99352044 0 3245.44564165 0 -6501.36756979 0 3009
0.05450000 0.05448610 35114.66881854 0 154.50724056 0 9099.72267081 0 4460.24524745 0 -541.81622621 0 3336
0.05550000 0.05550870 35210.10194325 0 934.88829349 0 10046.87114206 0 1578.43465695 0 1063.68029737 0 3349
0.05650000 0.05647670 34699.21436753 0 536.67587663 0 9081.60274184 0 4408.24599717 0 4599.64055717 0 3324
0.05750000 0.05747970 33405.07824887 0 405.13103739 0 6185.66265336 0 3043.82208949 0 5910.59268932 0 3639
0.05850000 0.05849280 33137.32594845 0 -147.48970231 0 4406.39128980 0 2147.14414003 0 4176.14904088 0 3846
0.05950000 0.05951020 32146.91221255 0 284.83359326 0 4858.87244433 0 2596.48915300 0 2603.81805728 0 3787
0.06050000 0.06049470 32171.86645717 0 700.70507242 0 2244.65678512 0 -2038.88543284 0 -783.81394767 0 3930
0.06150000 0.06148310 30875.14498884 0 1086.71801105 0 2984.50517559 0 -1940.54097960 0 -128.36261102 0 4083
0.06250000 0.06249100 29668.34872636 0 1641.43850429 0 3044.51900984 0 -4131.24264121 0 -1072.41877925 0 4303
0.06350000 0.06350600 29380.92528717 0 425.15962886 0 5761.69902974 0 -2223.35575199 0 -1386.03967904 0 4470
0.06450000 0.06451750 29321.01261878 0 -251.61297409 0 6773.09906056 0 -847.13702950 0 -2277.23219094 0 4479
0.06550000 0.06550280 30403.26247116 0 -296.58794173 0 7200.65969242 0 279.92480109 0 -799.67787804 0 4636
0.06650000 0.06648880 30128.87818681 0 29.39047984 0 8112.82725859 0 348.29381103 0 -2243.33038834 0 4653
0.06750000 0.06749660 30408.88279652 0 429.00730360 0 7824.14486651 0 115.66067570 0 -999.86037878 0 5220
0.06850000 0.06852730 29728.14898825 0 904.81730466 0 7403.62088202 0 -140.32715966 0 -836.26732024 0 5029
0.06950000 0.06949320 29202.98578610 0 1168.89278821 0 7833.82306679 0 1003.59452295 0 -57.52121995 0 5040
0.07050000 0.07048030 28067.79246878 0 1083.38403404 0 7580.08785784 0 855.52929933 0 1540.00287210 0 5475
0.07150000 0.07148790 27596.13476411 0 585.03090795 0 7804.95707571 0 1278.10695072 0 -197.45327074 0 5509
0.07250000 0.07249820 26721.16251120 0 443.77077427 0 7181.85408374 0 565.08437322 0 2577.46997197 0 5916
0.07350000 0.07351270 27041.29624402 0 260.04121401 0 7579.71691637 0 921.42199392 0 847.57766300 0 5721
0.07450000 0.07449140 26388.77646909 0 19.99059807 0 6662.28872566 0 77.83206417 0 1741.63766491 0 6028
0.07550000 0.07549160 26770.39656141 0 204.78779534 0 6428.29209939 0 852.40439843 0 2902.78564477 0 6183
0.07650000 0.07648840 26044.36293069 0 17.61365007 0 4984.46423494 0 141.96379841 0 935.46381481 0 6330
0.07750000 0.07749960 26689.68868916 0 619.13616633 0 6572.22863200 0 1271.78970501 0 4499.32899005 0 6583
0.07850000 0.07848650 25532.80091592 0 855.35169705 0 5263.52462999 0 544.80286711 0 1684.15297707 0 6549
0.07950000 0.07947320 24994.93577845 0 847.63049406 0 5867.31618401 0 711.82432413 0 4846.35035941 0 6828
0.08050000 0.08048110 24333.31107642 0 776.22088810 0 6300.47465993 0 -1029.48398972 0 2730.64631948 0 7147
0.08150000 0.08149960 23552.98510267 0 768.74585536 0 7968.68839426 0 -844.50559316 0 4237.28694021 0 7386
0.08250000 0.08250610 23381.22795951 0 731.80345673 0 8988.44022858 0 -1322.04665442 0 4159.58032170 0 7227
0.08350000 0.08350160 23018.71697343 0 266.88114998 0 8547.71679472 0 497.44150932 0 3740.95600718 0 7798
0.08450000 0.08449610 22676.88878470 0 360.01780974 0 8648.34310006 0 1104.73340197 0 4085.02108540 0 7371
0.08550000 0.08548940 22676.10193915 0 123.85511008 0 7680.93897620 0 1371.55048024 0 3133.78101729 0 8256
0.08650000 0.08650700 21958.16157696 0 304.88354197 0 7683.69293563 0 1195.56685240 0 1810.31804088 0 8037
0.08750000 0.08749060 21729.75155411 0 707.02231813 0 6987.54819521 0 -654.30366621 0 1038.59566120 0 8155
0.08850000 0.08849210 21334.08064838 0 407.08129029 0 7301.02746279 0 -282.85299060 0 1414.57969124 0 8718
0.08950000 0.08949900 20784.86245366 0 522.90158322 0 7148.81781125 0 -777.17297122 0 236.21890292 0 8571
0.09050000 0.09049190 20955.04590573 0 263.89788128 0 8279.84084715 0 -542.59969957 0 471.32498141 0 8932
0.09150000 0.09150830 20350.07408339 0 329.84453099 0 7949.87154494 0 -200.75240173 0 -547.65237207 0 9285
0.09250000 0.09250820 20164.60334632 0 422.47536146 0 7947.62341479 0 1131.20288631 0 -503.49572380 0 9204
0.09350000 0.09350330 19978.34576371 0 508.02683011 0 7881.92181127 0 778.34087483 0 -30.75138542 0 9349
0.09450000 0.09448040 19275.91749953 0 261.06860949 0 7164.03765233 0 1290.33677871 0 -826.00235799 0 9564
0.09550000 0.09549270 19151.03386991 0 269.26304387 0 7532.18020443 0 912.32830747 0 1160.30493106 0 10155
0.09650000 0.09649430 18782.45293244 0 117.67387624 0 6507.35883663 0 575.00312343 0 92.49976449 0 9913
0.09750000 0.09749140 18679.48857175 0 297.82328925 0 6796.46837343 0 258.84858097 0 1257.14313710 0 10476
0.09850000 0.09850240 18530.21273004 0 232.10819694 0 6250.89214955 0 276.11984082 0 723.94736594 0 10575
0.09950000 0.09950330 18036.52334993 0 211.62435912 0 6338.49054070 0 496.11511253 0 485.36343011 0 10882
0.10050000 0.10051200 18099.69580704 0 279.82251117 0 5781.81979455 0 -411.82934116 0 374.15067991 0 10875
0.10150000 0.10150300 17600.16128856 0 297.90871819 0 6019.14365343 0 189.87369995 0 -419.07281649 0 11118
0.10250000 0.10250800 17490.67735044 0 638.12387354 0 5824.20828845 0 -14.14647135 0 -343.09388600 0 11575
0.10350000 0.10349800 16824.44398161 0 137.71820463 0 5483.62781196 0 391.30953325 0 -180.14491675 0 11364
0.10450000 0.10450100 16780.94266328 0 179.27713851 0 5300.80986847 0 706.10845323 0 -30.35526489 0 12093
0.10550000 0.10551000 16729.34807643 0 141.32757758 0 5273.83230671 0 983.95036174 0 -551.81141284 0 12067
0.10650000 0.10649700 16372.12019620 0 243.90750802 0 4486.53712951 0 534.03881997 0 -12.05728401 0 12054
0.10750000 0.10749900 16250.72116830 0 515.51197943 0 4601.21424827 0 -216.52753097 0 -916.76049606 0 12807
0.10850000 0.10850100 15818.85536722 0 505.20655084 0 4564.43483908 0 -618.17284256 0 -212.68547655 0 12736
0.10950000 0.10950300 15421.16114435 0 346.58185992 0 5093.63343484 0 -326.24190243 0 -662.39131441 0 12933
0.11050000 0.11050200 15265.81535125 0 179.91673154 0 4860.32248827 0 -293.54622164 0 -1044.83309829 0 13428
0.11150000 0.11150900 15366.41917529 0 -123.13008811 0 5525.67908634 0 -199.10227420 0 -843.27249377 0 13453
0.11250000 0.11250000 15297.06436028 0 61.91058166 0 5605.92609191 0 113.08993887 0 -1102.33801930 0 13668
0.11350000 0.11349100 15257.72208273 0 132.18780447 0 5156.54735699 0 389.88421873 0 -546.52605887 0 13791
0.11450000 0.11448600 15260.75705842 0 83.73587874 0 5358.14842785 0 530.61828995 0 126.36627145 0 14205
0.11550000 0.11549300 15256.26079813 0 27.81555227 0 4902.42996591 0 1218.10435711 0 795.99656493 0 14776
0.11650000 0.11649800 15298.75045789 0 -59.63277619 0 4444.67694619 0 935.23900179 0 653.40441415 0 14553
0.11750000 0.11747300 15148.35055111 0 111.87763469 0 3942.09621136 0 787.37161362 0 477.82657379 0 14568
0.11850000 0.11849100 14998.28786385 0 265.71549450 0 3499.27077581 0 259.93555189 0 129.90145611 0 16015
0.11950000 0.11950300 14560.68933090 0 441.32705680 0 3403.47795028 0 -450.78269220 0 -266.20558687 0 15270
0.12050000 0.12050700 14283.60729038 0 401.73074054 0 3113.69397444 0 -378.34344263 0 -272.00126639 0 15999
0.12150000 0.12150000 13939.75578452 0 124.07542683 0 3132.98293109 0 171.70431211 0 -788.17869235 0 15670
0.12250000 0.12250700 13771.48324307 0 158.39762978 0 2733.86114559 0 132.56661440 0 -1063.39703297 0 16887
0.12350000 0.12352200 13686.16670403 0 132.51827960 0 3090.67312174 0 471.17210856 0 -1307.68110279 0 16407
0.12450000 0.12449800 13381.43266271 0 216.55788072 0 2733.52392606 0 208.20607723 0 -1180.94276580 0 16306
0.12550000 0.12549900 13515.19640641 0 162.99393186 0 3301.14306603 0 -10.63213810 0 -710.88910198 0 17523
0.12650000 0.12650100 13214.84621888 0 48.24768310 0 2988.07970252 0 -65.97598781 0 -815.20009264 0 17154
0.12750000 0.12750600 13401.77824053 0 108.80185543 0 3691.26109030 0 -196.81255365 0 -38.13390760 0 18007
0.12850000 0.12850300 13339.72984850 0 142.42129289 0 4040.81160608 0 -108.83849995 0 128.46040468 0 17496
0.12950000 0.12949900 13211.24921064 0 377.03278275 0 4000.15417238 0 11.46523893 0 424.96179341 0 18405
0.13050000 0.13049000 12910.33699057 0 218.68236371 0 4487.98717346 0 503.79022885 0 841.01986737 0 18100
0.13150000 0.13148800 12675.07017077 0 215.99247599 0 3562.51067682 0 907.18570977 0 1249.46577265 0 19059
0.13250000 0.13249300 12773.98789721 0 -32.71085566 0 4318.70297345 0 599.66061487 0 1108.41359102 0 18957
0.13350000 0.13349100 12684.62472389 0 -116.50035231 0 3278.78541172 0 585.26021722 0 1357.24113186 0 19468
0.13450000 0.13450700 12907.07720186 0 -2.12698965 0 3393.59741829 0 327.54919011 0 1618.69866787 0 19953
0.13550000 0.13551000 12731.04861141 0 -25.00898659 0 2960.69747734 0 -2.59253244 0 1810.39672543 0 19956
0.13650000 0.13649900 12739.36669295 0 233.52451894 0 2982.02099177 0 -253.81838977 0 1541.66648841 0 19723
0.13750000 0.13749600 12643.70875523 0 371.93065139 0 3327.63727980 0 -41.61929618 0 1337.85100935 0 20946
0.13850000 0.13851100 12181.71801019 0 501.15879252 0 3219.71579213 0 -339.40695256 0 1562.10199144 0 20955
0.13950000 0.13949800 11793.24112093 0 257.75711378 0 3577.29213254 0 -34.59445150 0 1357.28609447 0 20506
0.14050000 0.14048300 11633.62388055 0 238.16241143 0 3332.12229944 0 9.27849398 0 1483.08021680 0 21447
0.14150000 0.14148400 11564.83109807 0 167.73636240 0 3286.27168511 0 251.26451392 0 868.67186817 0 21771
0.14250000 0.14249400 11150.07356740 0 197.40943220 0 3256.33783221 0 3.68419072 0 987.81939372 0 22470
0.14350000 0.14350900 11245.59661731 0 180.85195368 0 3207.75573975 0 -75.33225585 0 535.86092945 0 22519
0.14450000 0.14449900 10971.01000126 0 110.17759868 0 3061.61603960 0 57.73198215 0 1031.94681629 0 22218
0.14550000 0.14550500 11060.77783799 0 52.20810157 0 3181.38517314 0 -9.52374250 0 770.08461686 0 23559
0.14650000 0.14650700 11147.11727626 0 67.23662679 0 3220.69372875 0 -162.89276600 0 834.50478620 0 23044
0.14750000 0.14750500 11101.51395624 0 264.76790764 0 3678.97505905 0 -143.35539097 0 1585.31393519 0 23649
0.14850000 0.14849900 10881.45573688 0 220.22120880 0 3784.21003119 0 10.00915876 0 1340.89722570 0 23640
0.14950000 0.14949500 10776.27696799 0 175.96901500 0 3773.75622601 0 164.20792214 0 1796.71685349 0 24457
0.15050000 0.15050000 10595.41489773 0 202.77684293 0 3717.53049105 0 438.57534551 0 914.34263209 0 24591
0.15150000 0.15149900 10380.92080048 0 99.97940589 0 3576.65141544 0 353.32175410 0 1085.70298028 0 25020
0.15250000 0.15250500 10129.90582901 0 141.41637872 0 3036.70675758 0 176.84241356 0 353.78037265 0 25297
0.15350000 0.15350100 9969.78275935 0 159.95895616 0 2670.31774700 0 78.55461319 0 -185.27290161 0 25452
0.15450000 0.15450400 9818.42739725 0 57.10835085 0 2312.28053992 0 95.84801712 0 -399.17798876 0 26061
0.15550000 0.15549900 9766.42814697 0 30.03827854 0 2014.59438661 0 139.89664274 0 -911.67297754 0 26128
0.15650000 0.15649500 9687.37265038 0 47.43048779 0 1940.95688367 0 257.13550580 0 -963.45753139 0 26331
0.15750000 0.15749700 9646.68149473 0 60.62892266 0 1730.70051175 0 496.47144116 0 -903.58308121 0 27345
0.15850000 0.15849900 9457.91724701 0 239.84963310 0 1767.49116159 0 238.88968153 0 -260.05582686 0 26980
0.15950000 0.15949700 9400.24146811 0 260.02660116 0 1883.02256980 0 261.54633714 0 -104.28761010 0 27777
0.16050000 0.16050000 9116.70729407 0 354.53012406 0 2296.74596061 0 -17.08342857 0 639.19735569 0 28224
0.16150000 0.16150500 8978.11007056 0 247.32916210 0 2426.06964727 0 -241.45030177 0 877.72284013 0 28075
0.16250000 0.16249700 8829.07028251 0 50.39003872 0 2395.13537646 0 -165.20384379 0 860.69999867 0 28590
0.16350000 0.16349900 8907.97965065 0 -38.61860446 0 2549.42454839 0 -142.17399858 0 967.64242566 0 29163
0.16450000 0.16449100 9048.85872626 0 -158.39425758 0 2458.84738480 0 144.83016434 0 486.83370722 0 28996
0.16550000 0.16550500 9154.77937809 0 -86.49691978 0 2290.67600922 0 291.07327848 0 298.32349821 0 30777
0.16650000 0.16650700 9124.42962112 0 112.66616634 0 1933.57177614 0 326.08228519 0 23.70079966 0 29211
0.16750000 0.16749900 9035.19009497 0 156.15174776 0 2089.77185870 0 166.63590270 0 311.39187875 0 30922
0.16850000 0.16850800 8929.25820248 0 218.67449526 0 1911.25908444 0 -4.88411895 0 357.61231049 0 30867
0.16950000 0.16949900 8776.04813302 0 90.25984002 0 2239.68841750 0 -75.45545338 0 600.24962497 0 30852
0.17050000 0.17049200 8854.49663447 0 42.88252051 0 2474.59553648 0 -324.17587082 0 1023.75687817 0 31257
0.17150000 0.17149500 8771.28209711 0 71.11768626 0 2798.41620273 0 -53.49571811 0 1133.33860995 0 32608
0.17250000 0.17250900 8833.74639322 0 125.87055876 0 2875.92048952 0 71.13308596 0 1434.54308694 0 32361
0.17350000 0.17350400 8720.04721107 0 162.81408145 0 2806.02612328 0 170.79269534 0 1338.66033620 0 32508
0.17450000 0.17449800 8600.04202387 0 154.22510022 0 2719.10217118 0 663.90093380 0 1664.63920740 0 32791
0.17550000 0.17549800 8376.78021905 0 183.01465488 0 2435.65792234 0 660.85808965 0 1430.78870960 0 33633
0.17650000 0.17650100 8200.07718956 0 110.77706258 0 1908.17914614 0 338.48971546 0 1347.66409744 0 33984
0.17750000 0.17750300 8001.72466676 0 157.85920261 0 1903.61544194 0 115.29198235 0 1186.64177572 0 34069
