### header ###
fiducial parameters:
Omega_m = 0.31
Omega_nu = 0
Omega_de = 0.69
Omega_k = 0
H_0 = 100
w_de = -1
zeff = 0
beta = 0
fgrowth = 0
b_1 = 2
gamma = 0.55
Lx = 3500 Ly = 3500 Lz = 3500
nx = 700 ny = 700 nz = 700
xoffset = 857.220397 yoffset = 15.9954215 zoffset = 262.898189
bins = 400 dk = 0.001
kx_ny = 0.628318531 ky_ny = 0.628318531 kz_ny = 0.628318531
############################
A(data) = 3.08174524 (not used)
A(ran) = 3.08098088 (used)
Ngal = 187810
weighted Ngal = 0
Nran = 9360983
weighted Nran = 0
SN(data) = 3454.3053
SN(ran) = 69.1872517
SN(data+ran) = 3523.49256
############################
13 columns: k_central k_mean P_0(k) sigma^{lin}_{P_0(k)} P^img_1(k) sigma^{lin}_{P_1(k)} P_2(k) sigma^{lin}_{P_2(k)} P^img_3(k) sigma^{lin}_{P_3(k)} P_4(k) sigma^{lin}_{P_4(k)} N_modes
### header ###
0.00050000 0 0 0 0 0 0 0 0 0 0 0 0
0.00150000 0.00179520 4657.76596210 0 -15693.52211157 0 -16776.55880950 0 41423.25922830 0 6403.54018648 0 3
0.00250000 0.00253879 14431.19703448 0 -24965.48527353 0 -17211.79680580 0 -2007.41161079 0 11631.03853088 0 6
0.00350000 0.00331552 27962.01794540 0 -31727.52353377 0 -29417.45740205 0 -15197.24738179 0 -22793.90395881 0 7
0.00450000 0.00420575 47907.42860247 0 -37382.02047749 0 -46021.24740981 0 -1496.97366110 0 -4439.13530538 0 24
0.00550000 0.00557378 77215.28965989 0 -31844.98833391 0 -71562.14159426 0 -12652.36405630 0 -2589.55367150 0 45
0.00650000 0.00659388 96315.40338199 0 -23778.80977586 0 -75096.31459059 0 -35902.52602828 0 -17421.88456796 0 40
0.00750000 0.00754703 100988.70392340 0 -8286.83253190 0 -75680.26639607 0 -50880.91794034 0 -2901.90887401 0 57
0.00850000 0.00846663 98512.61338038 0 1813.11696291 0 -76040.52925199 0 -54171.73084834 0 -14404.21947272 0 75
0.00950000 0.00948925 90587.84220852 0 7346.85559582 0 -61251.65471126 0 -55000.39162023 0 -4974.65114686 0 112
0.01050000 0.01054430 87179.45209387 0 2019.42786643 0 -54942.05264294 0 -43769.63266188 0 7045.75228469 0 105
0.01150000 0.01145670 85166.25154795 0 -1450.49357033 0 -41963.93452846 0 -34829.15628998 0 -11301.91227748 0 144
0.01250000 0.01249090 94260.05039583 0 -3362.42709381 0 -38713.81277610 0 -20537.00610504 0 -9026.06268657 0 169
0.01350000 0.01339930 93593.81702700 0 -3286.53022008 0 -30787.58031965 0 -14407.92888746 0 -10383.03404282 0 180
0.01450000 0.01448870 95969.07893297 0 6264.23480197 0 -21775.38859608 0 -17991.22352749 0 -3493.13338051 0 267
0.01550000 0.01550050 94577.59877898 0 9116.01037372 0 7169.63549640 0 2606.84179233 0 -13211.13680413 0 238
0.01650000 0.01653350 84225.74630129 0 11214.70730910 0 7737.06354530 0 -11260.20946326 0 2468.99769241 0 315
0.01750000 0.01747870 82591.58049802 0 7933.16793795 0 23669.88787028 0 -4623.95408470 0 -6893.28409818 0 297
0.01850000 0.01844180 71890.36859560 0 3076.19516360 0 19726.44278083 0 -2663.13497119 0 237.26091124 0 388
0.01950000 0.01947590 76436.98700328 0 719.50056451 0 37798.59899358 0 -3390.28142632 0 -5913.40285200 0 399
0.02050000 0.02045430 78228.63432329 0 -1399.71955098 0 38051.96326106 0 -2554.87626400 0 -9624.03158351 0 462
0.02150000 0.02154770 83371.11962621 0 -1830.33763983 0 45291.72917737 0 -2531.07980640 0 -10878.82542461 0 571
0.02250000 0.02255340 81789.67247487 0 809.37406336 0 35315.08962108 0 -524.21336717 0 -20071.98038430 0 510
0.02350000 0.02348930 82039.43973411 0 2863.08366639 0 47161.72383298 0 4283.13755454 0 -3441.60623756 0 555
0.02450000 0.02439640 81057.90611228 0 4811.83032102 0 46576.31074291 0 7947.65713674 0 -19715.65175613 0 592
0.02550000 0.02547300 76039.51759343 0 3322.94992844 0 38974.03384052 0 18160.17050797 0 4846.40656267 0 837
0.02650000 0.02652900 73330.29595424 0 3471.25907419 0 32170.62998559 0 16668.42374946 0 -5871.05932070 0 723
0.02750000 0.02749970 70179.87877387 0 682.84592654 0 17269.68615707 0 9122.46250724 0 7053.41840849 0 826
0.02850000 0.02848090 69554.22415418 0 2766.72880832 0 16725.18903566 0 13762.60312900 0 2296.11648417 0 831
0.02950000 0.02946900 64973.65898130 0 2293.86835402 0 7472.08768562 0 7496.89580178 0 14146.69616447 0 996
0.03050000 0.03053250 59731.46910640 0 4770.59961414 0 4674.96415772 0 547.18363693 0 7642.02384337 0 1041
0.03150000 0.03150510 57097.11020108 0 4170.00040493 0 12770.16607596 0 2265.53067353 0 12330.99385190 0 1036
0.03250000 0.03246190 52040.72828276 0 3777.24082774 0 10453.94006763 0 209.48863548 0 21687.37430085 0 1059
0.03350000 0.03345080 50020.78334640 0 2230.65093431 0 10988.81519201 0 1695.61844082 0 15104.06238723 0 1302
0.03450000 0.03451200 48993.61268261 0 1111.45868330 0 18202.43535472 0 4237.34314346 0 20497.10179495 0 1339
0.03550000 0.03553350 46322.49684940 0 1104.80759027 0 13037.35634383 0 3085.34505329 0 11389.36454016 0 1365
0.03650000 0.03647120 48027.81597180 0 46.85597813 0 15104.96163929 0 -304.23270829 0 15004.58262826 0 1308
0.03750000 0.03744890 47167.56897136 0 301.45514350 0 17333.08342719 0 -4689.55452237 0 7040.75019512 0 1579
0.03850000 0.03847530 48530.49787249 0 -1154.34738617 0 18636.09965992 0 -2974.98434442 0 5259.06209165 0 1662
0.03950000 0.03950240 48695.39821871 0 -786.08905538 0 17170.76843063 0 -2999.74749798 0 -3015.74294397 0 1683
0.04050000 0.04050350 51131.80926465 0 7.91952179 0 16949.32761123 0 -511.82392193 0 -1288.00996401 0 1822
0.04150000 0.04152450 49333.52996071 0 1574.54539179 0 18734.34294731 0 -551.26286908 0 -4102.72511030 0 1887
0.04250000 0.04250150 48113.13251085 0 2561.98035526 0 19365.05585983 0 1952.53475393 0 -1298.78974806 0 1920
0.04350000 0.04349210 46377.80085100 0 3148.76480472 0 16972.03372571 0 1780.48535384 0 1567.56494769 0 2005
0.04450000 0.04448520 43906.09416176 0 2334.27849340 0 19089.32269740 0 3109.55741497 0 2392.37017638 0 2151
0.04550000 0.04548030 42102.53175197 0 2535.23884717 0 16647.51613911 0 1542.31844615 0 4637.33045907 0 2274
0.04650000 0.04648670 41111.55598353 0 619.42167886 0 15978.36020109 0 4238.44472723 0 3505.53181827 0 2311
0.04750000 0.04749250 39701.97838186 0 635.11924760 0 16399.09775795 0 1082.27120962 0 4893.23511361 0 2568
0.04850000 0.04851840 41779.13823044 0 -874.56871354 0 10778.60378269 0 2034.09691563 0 4789.98973665 0 2493
0.04950000 0.04949480 40449.14443595 0 -504.50738237 0 16733.84433672 0 -1438.02768867 0 -1196.46610446 0 2644
0.05050000 0.05050630 43393.97011445 0 394.22760618 0 10814.56262438 0 -3200.42683548 0 -1156.21333419 0 2829
0.05150000 0.05149060 41045.34855072 0 350.26317304 0 16367.73634241 0 -1845.64740612 0 -6014.18652646 0 2784
0.05250000 0.05249300 41156.85580597 0 1941.44023165 0 14823.15852547 0 -4870.54023979 0 -8055.76971548 0 3055
0.05350000 0.05348950 40080.11387245 0 1921.22954164 0 15364.73307768 0 -1618.19283858 0 -11892.72087990 0 3009
0.05450000 0.05448610 37891.33436211 0 1496.42286921 0 15867.07775885 0 -833.76964765 0 -12572.44302960 0 3336
0.05550000 0.05550870 36144.08761249 0 1433.52018772 0 14981.98892029 0 328.55185615 0 -13008.13065193 0 3349
0.05650000 0.05647670 36143.97520598 0 535.82608344 0 15671.60284264 0 1490.13934546 0 -12368.53762534 0 3324
0.05750000 0.05747970 35254.39010713 0 260.11203011 0 14586.31801456 0 545.65603250 0 -10908.30965148 0 3639
0.05850000 0.05849280 35565.53131936 0 466.48138501 0 16838.26998201 0 3222.14377269 0 -10713.32932390 0 3846
0.05950000 0.05951020 34588.60636433 0 521.90341344 0 14813.60397234 0 2736.49145786 0 -4234.08335475 0 3787
0.06050000 0.06049470 33753.87564105 0 125.87280689 0 15651.03245180 0 3501.76620027 0 -3039.28086660 0 3930
0.06150000 0.06148310 34924.81422770 0 -29.91991449 0 15022.23044991 0 2150.59501981 0 -910.19370790 0 4083
0.06250000 0.06249100 34126.72802580 0 285.29221181 0 14275.62642836 0 2776.37328665 0 646.09686711 0 4303
0.06350000 0.06350600 34078.95526019 0 450.72761301 0 12716.77298498 0 1959.70628909 0 4040.27205484 0 4470
0.06450000 0.06451750 32986.47641564 0 400.45492668 0 12462.62187196 0 2725.53182339 0 6012.53415080 0 4479
0.06550000 0.06550280 33323.47112456 0 446.72706542 0 10761.73156595 0 3030.14221755 0 5373.89657952 0 4636
0.06650000 0.06648880 32122.85721998 0 129.54400341 0 11222.77809633 0 2376.22860193 0 5056.52804678 0 4653
0.06750000 0.06749660 32189.40187231 0 401.05068117 0 10269.42478588 0 1688.71668127 0 6507.37007728 0 5220
0.06850000 0.06852730 31722.01561492 0 151.63188210 0 9042.18177972 0 885.30803125 0 4626.03360509 0 5029
0.06950000 0.06949320 31329.60449790 0 568.64091511 0 10625.92202381 0 -951.69081820 0 4507.87188460 0 5040
0.07050000 0.07048030 31521.81962540 0 845.51275546 0 9881.82466738 0 -1848.27771840 0 4867.35913563 0 5475
0.07150000 0.07148790 30390.67294234 0 634.13231847 0 10259.84775146 0 -928.57666811 0 4459.21110759 0 5509
0.07250000 0.07249820 30814.33306839 0 688.64048199 0 11746.70482690 0 -1277.09529215 0 4690.93712241 0 5916
0.07350000 0.07351270 30064.91888415 0 -249.38507712 0 10580.56599812 0 209.87306573 0 2727.93732265 0 5721
0.07450000 0.07449140 30320.08165575 0 -179.66943722 0 11748.05370499 0 427.28973217 0 2980.87444540 0 6028
0.07550000 0.07549160 30261.18064592 0 310.66685677 0 12369.88650343 0 175.33729043 0 1684.50143724 0 6183
0.07650000 0.07648840 30199.01984737 0 842.44743001 0 10911.90665971 0 -68.75984737 0 1439.71378628 0 6330
0.07750000 0.07749960 28898.36415129 0 1430.86739415 0 10916.14438504 0 -315.78022879 0 844.66296227 0 6583
0.07850000 0.07848650 27668.74936783 0 1135.36192708 0 10594.49316437 0 263.64609070 0 -918.87261433 0 6549
0.07950000 0.07947320 26389.78812766 0 861.79933431 0 8518.71591583 0 1601.60163810 0 -1499.05318148 0 6828
0.08050000 0.08048110 25255.38165588 0 1118.28737862 0 8255.65096677 0 722.01509808 0 -3681.06582008 0 7147
0.08150000 0.08149960 24461.56690126 0 962.15923623 0 7935.78700957 0 931.23957826 0 -4650.70683344 0 7386
0.08250000 0.08250610 23210.03284887 0 746.69844302 0 7032.71312984 0 -15.01840863 0 -4245.87479736 0 7227
0.08350000 0.08350160 22765.01548643 0 780.56315148 0 7169.08470451 0 -406.09098896 0 -2932.10126188 0 7798
0.08450000 0.08449610 22290.88483860 0 181.60957354 0 7367.02132324 0 503.16524867 0 -2776.58685901 0 7371
0.08550000 0.08548940 21982.21656953 0 242.81941303 0 7092.77192670 0 1505.55027761 0 -2457.19500914 0 8256
0.08650000 0.08650700 21860.03069608 0 384.48533419 0 5861.42608302 0 1588.29270764 0 -2211.91276954 0 8037
0.08750000 0.08749060 20892.88510719 0 732.70158473 0 6120.92774580 0 1131.13544241 0 -2006.89454086 0 8155
0.08850000 0.08849210 20750.24124941 0 313.88842727 0 4607.02566470 0 1363.99676295 0 -731.32123282 0 8718
0.08950000 0.08949900 20358.16735191 0 177.02001584 0 4423.58948542 0 115.80792822 0 -424.84713877 0 8571
0.09050000 0.09049190 20484.73707914 0 -303.28512144 0 4816.86613255 0 42.32453460 0 -863.53489078 0 8932
0.09150000 0.09150830 20662.45176720 0 36.89428864 0 5068.65670892 0 -905.43104419 0 -540.27625706 0 9285
0.09250000 0.09250820 20971.34484929 0 469.98284771 0 6241.85466636 0 -719.17570970 0 521.98097393 0 9204
0.09350000 0.09350330 20563.19682125 0 623.26710547 0 7335.36765078 0 -852.38191713 0 1323.31684796 0 9349
0.09450000 0.09448040 20214.39942906 0 543.57426398 0 7535.15897687 0 160.67835781 0 1531.34757104 0 9564
0.09550000 0.09549270 20103.00458032 0 456.62445838 0 8029.57899927 0 372.13860343 0 960.08083991 0 10155
0.09650000 0.09649430 19528.49492146 0 408.35035976 0 7569.39799900 0 485.62196508 0 1384.62335704 0 9913
0.09750000 0.09749140 19667.65417751 0 163.38173431 0 8123.39347027 0 251.20606254 0 660.67599110 0 10476
0.09850000 0.09850240 19198.46941600 0 91.59893874 0 6720.17807692 0 -22.15048911 0 -421.55924843 0 10575
0.09950000 0.09950330 19399.45225107 0 -304.25968586 0 6358.89232178 0 303.45822746 0 -831.73284173 0 10882
0.10050000 0.10051200 19254.56026314 0 -105.11346071 0 6168.66678945 0 490.56672733 0 -2233.87700107 0 10875
0.10150000 0.10150300 19462.17508215 0 290.07735683 0 6120.01725309 0 106.57474530 0 -2819.46994155 0 11118
0.10250000 0.10250800 18795.60449380 0 756.75770136 0 5645.09975971 0 295.46612479 0 -2410.71491837 0 11575
0.10350000 0.10349800 18017.97627623 0 836.96086839 0 5917.33707976 0 564.02437986 0 -2120.96466448 0 11364
0.10450000 0.10450100 17339.60300461 0 552.26890732 0 5310.27449638 0 915.81515733 0 -1327.85807085 0 12093
0.10550000 0.10551000 16643.80672436 0 306.71689211 0 5531.41181821 0 862.21748652 0 -1815.29764915 0 12067
0.10650000 0.10649700 16707.31640099 0 271.86750264 0 5388.29585311 0 38.92502460 0 105.33254099 0 12054
0.10750000 0.10749900 16497.34104534 0 161.28535295 0 5194.09113043 0 230.78966861 0 -506.30701055 0 12807
0.10850000 0.10850100 16286.69125064 0 255.91926739 0 5592.99934357 0 482.46671442 0 968.60912162 0 12736
0.10950000 0.10950300 16423.04034401 0 93.52794681 0 5064.54263075 0 98.71202252 0 718.40122887 0 12933
0.11050000 0.11050200 16132.91914864 0 178.20253230 0 6078.82026816 0 556.18739817 0 1027.48315389 0 13428
0.11150000 0.11150900 16282.08258384 0 74.94422859 0 5595.85446885 0 218.55309623 0 1316.43756971 0 13453
0.11250000 0.11250000 16087.50691969 0 98.69257620 0 5200.53202330 0 361.17447270 0 626.54263109 0 13668
0.11350000 0.11349100 16199.80102049 0 45.34478505 0 5351.48272196 0 219.24552031 0 1511.01323386 0 13791
0.11450000 0.11448600 15780.74956124 0 205.76011163 0 4687.90214671 0 210.46432396 0 795.97970395 0 14205
0.11550000 0.11549300 16008.59755156 0 80.73597388 0 4776.25366145 0 394.66149530 0 892.09401209 0 14776
0.11650000 0.11649800 15564.70425419 0 299.07437367 0 4505.51134795 0 501.11607804 0 511.99702795 0 14553
0.11750000 0.11747300 15686.10328208 0 311.33792362 0 4348.27712552 0 487.15406577 0 900.18840469 0 14568
0.11850000 0.11849100 15003.00893716 0 427.91808455 0 4334.84454790 0 152.19054244 0 772.88129077 0 16015
0.11950000 0.11950300 15006.26872587 0 482.75559914 0 5320.85194872 0 -108.64280023 0 1498.85084977 0 15270
0.12050000 0.12050700 14433.33275811 0 329.82092562 0 4772.64541257 0 200.58941229 0 1285.24476393 0 15999
0.12150000 0.12150000 14428.27446529 0 252.13903655 0 5386.96945632 0 182.49421275 0 2038.45828811 0 15670
0.12250000 0.12250700 14007.64931493 0 194.21483926 0 4802.39941505 0 337.68600894 0 1623.47594443 0 16887
0.12350000 0.12352200 14102.07078107 0 77.21765020 0 4672.71602757 0 900.21088599 0 2189.00432335 0 16407
0.12450000 0.12449800 13884.78900244 0 -12.70350902 0 3977.15580099 0 743.26667235 0 1618.99092478 0 16306
0.12550000 0.12549900 13792.50325994 0 20.24250106 0 3483.26408917 0 455.10809460 0 1433.87988855 0 17523
0.12650000 0.12650100 13724.94694905 0 -18.61564168 0 3515.16505594 0 121.58449863 0 1371.07837291 0 17154
0.12750000 0.12750600 13623.44387295 0 173.28474760 0 3038.14556087 0 -573.28330387 0 526.73352106 0 18007
0.12850000 0.12850300 13607.14492939 0 114.26795907 0 3519.49270648 0 -526.90325489 0 951.43790356 0 17496
0.12950000 0.12949900 13438.64757493 0 173.52979379 0 3569.46863963 0 -533.77016842 0 249.50984834 0 18405
0.13050000 0.13049000 13608.49380747 0 184.54001118 0 4301.56098108 0 -244.60780056 0 619.70831545 0 18100
0.13150000 0.13148800 13217.20675553 0 159.88589193 0 4037.34948565 0 394.23210244 0 509.26554982 0 19059
0.13250000 0.13249300 13224.73799152 0 276.94940084 0 3969.02881051 0 412.80727777 0 502.35479775 0 18957
0.13350000 0.13349100 12876.72744489 0 332.22417674 0 3616.42083773 0 570.47426525 0 609.22640864 0 19468
0.13450000 0.13450700 12668.77540636 0 296.81387881 0 3870.13356538 0 332.84128847 0 1072.10291696 0 19953
0.13550000 0.13551000 12220.27344220 0 268.43910417 0 3326.00738544 0 191.57890667 0 832.07792971 0 19956
0.13650000 0.13649900 12263.43754100 0 166.63815083 0 3618.80385568 0 -242.37091106 0 777.20894130 0 19723
0.13750000 0.13749600 11868.32866781 0 112.11514964 0 3362.42709381 0 -34.12200695 0 526.32436137 0 20946
0.13850000 0.13851100 11854.72748043 0 93.70656075 0 3504.02557107 0 -146.46118276 0 266.67544607 0 20955
0.13950000 0.13949800 11803.35770658 0 135.14971593 0 3392.49583452 0 -89.16185326 0 415.73883948 0 20506
0.14050000 0.14048300 11585.73870843 0 386.14782643 0 3416.15740431 0 24.73662562 0 -87.27623410 0 21447
0.14150000 0.14148400 11284.82648836 0 308.44795232 0 3376.96125521 0 114.56246412 0 94.80533436 0 21771
0.14250000 0.14249400 10957.56618298 0 243.37357711 0 3314.95782578 0 251.88387378 0 243.05321856 0 22470
0.14350000 0.14350900 10974.92174771 0 158.68988669 0 3113.00829474 0 496.46582084 0 556.52012143 0 22519
0.14450000 0.14449900 10884.41202802 0 -91.64873482 0 3046.93574975 0 358.93421101 0 227.04091159 0 22218
0.14550000 0.14550500 10935.64691406 0 1.92963755 0 3120.13486731 0 183.42606269 0 533.12158287 0 23559
0.14650000 0.14650700 10978.92341937 0 115.40214073 0 2878.28102618 0 -189.39147604 0 254.70078085 0 23044
0.14750000 0.14750500 10804.63712979 0 198.11197287 0 3058.46865740 0 52.81228655 0 922.23244483 0 23649
0.14850000 0.14849900 10688.58865164 0 151.72967576 0 2893.23109165 0 -136.49409776 0 893.13939261 0 23640
0.14950000 0.14949500 10609.84789327 0 65.61943437 0 2991.58678555 0 408.90902010 0 743.95347611 0 24457
0.15050000 0.15050000 10588.22088126 0 51.81108179 0 2814.41164872 0 208.70965838 0 437.28491880 0 24591
0.15150000 0.15149900 10439.92297617 0 58.26928526 0 2503.24795519 0 130.73776052 0 267.22511389 0 25020
0.15250000 0.15250500 10435.86510126 0 123.18404323 0 2763.64887002 0 -163.82686408 0 -21.67051332 0 25297
0.15350000 0.15350100 10308.80078539 0 213.84775983 0 2713.94271249 0 -153.90586574 0 -219.29947544 0 25452
0.15450000 0.15450400 10171.63112452 0 180.99358588 0 2675.88186912 0 96.95836860 0 34.18664069 0 26061
0.15550000 0.15549900 9922.09991894 0 172.35626985 0 2682.43516849 0 282.06951725 0 310.57468344 0 26128
0.15650000 0.15649500 9891.61527416 0 165.44664185 0 2863.28599810 0 512.06222372 0 532.05596918 0 26331
0.15750000 0.15749700 9778.15214568 0 82.43207566 0 2797.44950677 0 503.54068641 0 614.40610050 0 27345
0.15850000 0.15849900 9769.32823486 0 62.48126949 0 2777.04772569 0 3.37144210 0 1095.18896544 0 26980
0.15950000 0.15949700 9749.58965218 0 115.43361455 0 2961.27075052 0 -87.54263752 0 1048.07040570 0 27777
0.16050000 0.16050000 9660.40632928 0 147.44249157 0 3044.53025049 0 -395.41237076 0 1270.84549034 0 28224
0.16150000 0.16150500 9612.30758480 0 186.87694247 0 3261.73334456 0 -409.39798840 0 950.63644517 0 28075
0.16250000 0.16249700 9477.85816140 0 191.62611740 0 3225.86442808 0 -214.09055789 0 731.95408145 0 28590
0.16350000 0.16349900 9354.78427655 0 179.78409186 0 3512.84948189 0 -36.40565755 0 875.00934705 0 29163
0.16450000 0.16449100 9142.29101513 0 148.63737275 0 3136.34388566 0 302.42633572 0 74.42625940 0 28996
0.16550000 0.16550500 9142.33597774 0 90.40124741 0 3173.31438591 0 320.02132631 0 574.07352161 0 30777
0.16650000 0.16650700 8917.61288832 0 132.40587309 0 3073.95827410 0 261.64413080 0 289.79858869 0 29211
0.16750000 0.16749900 8923.23321369 0 75.65980841 0 2930.50508947 0 139.38631719 0 530.61491776 0 30922
0.16850000 0.16850800 8875.44920743 0 35.98210984 0 2962.05759608 0 127.08792123 0 759.92868893 0 30867
0.16950000 0.16949900 8836.66896241 0 91.45022493 0 2747.26000126 0 -75.91103696 0 656.56416107 0 30852
0.17050000 0.17049200 8854.50787512 0 55.56928095 0 2743.11220114 0 227.87047162 0 522.28222337 0 31257
0.17150000 0.17149500 8816.18849678 0 91.20101971 0 2718.21415977 0 82.10418588 0 540.85627464 0 32608
0.17250000 0.17250900 8754.31995515 0 37.02220725 0 2564.27344801 0 141.05330570 0 562.80701738 0 32361
0.17350000 0.17350400 8758.19797965 0 42.71065096 0 2614.77769174 0 85.01382832 0 478.88993935 0 32508
0.17450000 0.17449800 8757.16383979 0 38.44583566 0 2551.22305251 0 -17.31700930 0 247.34602308 0 32791
0.17550000 0.17549800 8683.98720353 0 123.07725705 0 2633.21235894 0 -170.60272834 0 425.73852237 0 33633
0.17650000 0.17650100 8564.90374968 0 165.18810688 0 2639.10245992 0 -34.67920601 0 498.91403456 0 33984
0.17750000 0.17750300 8425.20494240 0 147.34582198 0 2635.14575087 0 -80.37009069 0 168.14327396 0 34069
