### header ###
fiducial parameters:
Omega_m = 0.31
Omega_nu = 0
Omega_de = 0.69
Omega_k = 0
H_0 = 100
w_de = -1
zeff = 0
beta = 0
fgrowth = 0
b_1 = 2
gamma = 0.55
Lx = 3500 Ly = 3500 Lz = 3500
nx = 700 ny = 700 nz = 700
xoffset = 857.220397 yoffset = 15.9954215 zoffset = 262.898189
bins = 400 dk = 0.001
kx_ny = 0.628318531 ky_ny = 0.628318531 kz_ny = 0.628318531
############################
A(data) = 3.05342794 (not used)
A(ran) = 3.0483373 (used)
Ngal = 185928
weighted Ngal = 0
Nran = 9360983
weighted Nran = 0
SN(data) = 3464.22251
SN(ran) = 68.4541997
SN(data+ran) = 3532.67671
############################
13 columns: k_central k_mean P_0(k) sigma^{lin}_{P_0(k)} P^img_1(k) sigma^{lin}_{P_1(k)} P_2(k) sigma^{lin}_{P_2(k)} P^img_3(k) sigma^{lin}_{P_3(k)} P_4(k) sigma^{lin}_{P_4(k)} N_modes
### header ###
0.00050000 0 0 0 0 0 0 0 0 0 0 0 0
0.00150000 0.00179520 47754.21853301 0 -46441.53534064 0 -21925.11406381 0 83536.13237894 0 -145356.22679767 0 3
0.00250000 0.00253879 80400.10323150 0 -44659.55498026 0 -14958.49596027 0 -39647.34881931 0 82391.15969548 0 6
0.00350000 0.00331552 80783.18460841 0 -10964.96253116 0 -32421.40890340 0 -25799.54155777 0 29593.26117948 0 7
0.00450000 0.00420575 70881.96981853 0 16788.69871229 0 -32925.66449519 0 -24897.36693010 0 25401.51011539 0 24
0.00550000 0.00557378 43524.24925643 0 8073.82220055 0 -21947.93258480 0 7908.20245268 0 18166.46527238 0 45
0.00650000 0.00659388 33392.71353306 0 -5933.17515664 0 -7660.25617885 0 -15208.15081300 0 6238.67356221 0 40
0.00750000 0.00754703 51944.28349949 0 -12740.26594501 0 15987.35272167 0 -29286.84104055 0 24117.94020841 0 57
0.00850000 0.00846663 66581.85888139 0 -8587.73351132 0 48321.98380143 0 -37599.07744311 0 27214.40226528 0 75
0.00950000 0.00948925 79875.05243586 0 678.89034155 0 71264.60156941 0 -32275.39285040 0 49555.98243868 0 112
0.01050000 0.01054430 92717.27108300 0 1078.28077861 0 111167.22556682 0 -17929.39994847 0 47864.26450366 0 105
0.01150000 0.01145670 92383.31134978 0 7260.70724862 0 105235.53417608 0 22995.56123293 0 15417.67654263 0 144
0.01250000 0.01249090 89654.75579134 0 7293.61987396 0 94346.49099995 0 42472.79878705 0 12697.66387874 0 169
0.01350000 0.01339930 80900.98662807 0 8717.09091993 0 67699.85400309 0 46193.22936599 0 -7734.77045255 0 180
0.01450000 0.01448870 67851.37797495 0 8099.59701268 0 46370.71924104 0 48953.70837251 0 8884.12698979 0 267
0.01550000 0.01550050 59104.35320212 0 2656.72780027 0 2303.18685348 0 32179.95972570 0 -24942.10472001 0 238
0.01650000 0.01653350 57346.20302128 0 -95.08309084 0 10906.32005630 0 20830.16227611 0 22044.93940061 0 315
0.01750000 0.01747870 57640.59566393 0 -3470.01136196 0 -3057.78297770 0 1932.03180699 0 1693.51643913 0 297
0.01850000 0.01844180 66689.99394142 0 -5500.82600757 0 21312.83581850 0 -1304.47751733 0 44575.47491279 0 388
0.01950000 0.01947590 71995.13146042 0 -2908.40597014 0 24293.85639235 0 3105.84800023 0 33657.54326428 0 399
0.02050000 0.02045430 81339.37200658 0 -3407.59202845 0 38827.56816150 0 3688.37224306 0 46150.06526719 0 462
0.02150000 0.02154770 85824.84127428 0 -1118.75161750 0 52563.64335477 0 5371.47983961 0 46686.80633959 0 571
0.02250000 0.02255340 89471.53318443 0 486.22109176 0 46490.43217132 0 11093.97147960 0 35458.96995043 0 510
0.02350000 0.02348930 89702.64096346 0 1033.74082415 0 46482.45130930 0 209.33801076 0 28316.09844343 0 555
0.02450000 0.02439640 89917.11257940 0 1582.81851073 0 50835.39330488 0 10852.98316858 0 15780.41234172 0 592
0.02550000 0.02547300 87890.42325261 0 1869.82604585 0 38209.44477780 0 852.05031793 0 13529.24721982 0 837
0.02650000 0.02652900 85105.77684702 0 3855.68932919 0 32949.38226823 0 1419.18835804 0 3166.41262637 0 723
0.02750000 0.02749970 80998.89269594 0 4926.24890481 0 35002.37471774 0 -1673.44063693 0 4014.04761669 0 826
0.02850000 0.02848090 76838.05342136 0 8662.19158176 0 37195.76289488 0 7873.58124843 0 4622.23426514 0 831
0.02950000 0.02946900 67934.10916433 0 7349.40722354 0 34013.75948595 0 6612.81862179 0 9579.19262774 0 996
0.03050000 0.03053250 64977.93042858 0 4233.92598564 0 41208.11317331 0 4043.81285982 0 16972.37094523 0 1041
0.03150000 0.03150510 63546.32115148 0 1275.91502382 0 35608.02097913 0 8640.17114698 0 17961.09858353 0 1036
0.03250000 0.03246190 60991.65845985 0 493.85461767 0 35987.16812828 0 9116.78597862 0 19525.45994576 0 1059
0.03350000 0.03345080 58685.97618191 0 1375.77696492 0 29885.29328547 0 7266.11400162 0 16622.56189448 0 1302
0.03450000 0.03451200 57920.03824110 0 1933.78534851 0 26327.17770308 0 5931.74759400 0 15847.96865261 0 1339
0.03550000 0.03553350 54234.00405339 0 2108.48754217 0 19920.00678642 0 4903.50906838 0 9146.01167052 0 1365
0.03650000 0.03647120 53026.42094536 0 2658.12164096 0 20360.75270158 0 911.79999689 0 8335.49330892 0 1308
0.03750000 0.03744890 51643.37127942 0 2388.10996975 0 19782.64603449 0 -1271.31759768 0 3694.28482534 0 1579
0.03850000 0.03847530 47694.64308413 0 2306.85130562 0 23361.33200771 0 -1326.89137489 0 9748.02720172 0 1662
0.03950000 0.03950240 48359.41516836 0 1902.15415735 0 22825.37778086 0 -491.97630493 0 5240.96464398 0 1683
0.04050000 0.04050350 46389.71594077 0 263.02111052 0 23978.78095236 0 5950.81173764 0 4881.46615230 0 1822
0.04150000 0.04152450 46095.99773717 0 1098.25316683 0 19395.96764934 0 4379.27884024 0 407.09028281 0 1887
0.04250000 0.04250150 45139.30595346 0 -27.52925289 0 16929.09443992 0 5196.42918578 0 -2832.02574842 0 1920
0.04350000 0.04349210 43467.14675071 0 323.16983258 0 12410.12803304 0 1648.35150449 0 -4538.54762045 0 2005
0.04450000 0.04448520 43257.39620807 0 44.86874349 0 10538.95310911 0 824.53882527 0 -8670.03755597 0 2151
0.04550000 0.04548030 42444.24753419 0 485.53203987 0 5373.51439740 0 297.17020744 0 -10354.43782736 0 2274
0.04650000 0.04648670 43311.68855110 0 467.38850552 0 7748.10186432 0 -1471.35621808 0 -8981.47102512 0 2311
0.04750000 0.04749250 42189.08476260 0 518.44354114 0 4617.36706337 0 381.23004174 0 -11694.77302052 0 2568
0.04850000 0.04851840 42486.39997443 0 691.12354174 0 11270.77567495 0 -965.68880056 0 -3826.60976575 0 2493
0.04950000 0.04949480 41513.97127970 0 1086.94732032 0 7359.93971327 0 521.04912398 0 -3326.71554644 0 2644
0.05050000 0.05050630 41784.08411676 0 1036.12384211 0 14523.14555746 0 3450.29526058 0 4202.00253756 0 2829
0.05150000 0.05149060 40778.72031538 0 1089.20556705 0 9917.83971232 0 642.14128211 0 4167.14527964 0 2784
0.05250000 0.05249300 40113.72341814 0 788.19330519 0 17147.50028362 0 3257.78787616 0 10203.44216609 0 3055
0.05350000 0.05348950 41131.78915484 0 803.70203101 0 16498.24029740 0 2403.14996043 0 9716.49717642 0 3009
0.05450000 0.05448610 38218.66211140 0 976.51129908 0 15647.88506960 0 694.98245714 0 11434.43954959 0 3336
0.05550000 0.05550870 38381.31432748 0 912.09675007 0 17329.03679293 0 1111.45531111 0 12002.20481802 0 3349
0.05650000 0.05647670 38181.68037049 0 264.37673300 0 16561.07553498 0 504.90867360 0 7426.22583064 0 3324
0.05750000 0.05747970 37695.74703939 0 631.47165644 0 16537.69498146 0 1711.20922338 0 7720.44986352 0 3639
0.05850000 0.05849280 36954.65093670 0 492.83171845 0 15032.90906811 0 -480.96945974 0 3191.92890352 0 3846
0.05950000 0.05951020 35995.14899030 0 666.88869876 0 13612.54044174 0 696.73599865 0 4739.66534333 0 3787
0.06050000 0.06049470 34701.35009116 0 1114.89157804 0 12520.39881671 0 703.88617658 0 952.21350846 0 3930
0.06150000 0.06148310 34129.98781451 0 711.78835404 0 11107.33661332 0 258.87668260 0 1.37578821 0 4083
0.06250000 0.06249100 33630.22848301 0 1024.98772943 0 9878.21641849 0 542.87846770 0 487.62954530 0 4303
0.06350000 0.06350600 32669.26525202 0 755.03900586 0 11525.26400750 0 443.65611964 0 1215.82250502 0 4470
0.06450000 0.06451750 32151.97050538 0 694.48674444 0 9792.77623228 0 -143.01704738 0 2199.71666350 0 4479
0.06550000 0.06550280 31361.64035248 0 973.14809638 0 11053.99972560 0 770.19589931 0 1623.75696069 0 4636
0.06650000 0.06648880 31023.74639151 0 711.60063518 0 11323.83154640 0 -23.82602051 0 1906.74034285 0 4653
0.06750000 0.06749660 29918.79042465 0 647.50869284 0 10430.77308647 0 1278.36548568 0 592.91397630 0 5220
0.06850000 0.06852730 29374.06849023 0 431.30938887 0 10018.20748269 0 641.88611934 0 1000.06158643 0 5029
0.06950000 0.06949320 29187.92331412 0 -139.77187151 0 8606.11197526 0 -43.36609330 0 -3341.86794363 0 5040
0.07050000 0.07048030 29281.10830868 0 81.59284868 0 7381.40935617 0 276.72121563 0 -1553.61530013 0 5475
0.07150000 0.07148790 29416.44574348 0 212.24484304 0 8017.41661518 0 -615.52342118 0 -1805.85550254 0 5509
0.07250000 0.07249820 29264.69695861 0 695.86934448 0 9200.58502982 0 -758.68322483 0 -236.59321659 0 5916
0.07350000 0.07351270 29771.08827404 0 543.87326529 0 10740.95884340 0 -1099.67286101 0 2115.16448870 0 5721
0.07450000 0.07449140 28623.08061489 0 873.38844521 0 11691.73804483 0 1690.98729272 0 2028.55527482 0 6028
0.07550000 0.07549160 28801.91936802 0 479.00684212 0 12748.35921354 0 1102.84047639 0 4850.09349611 0 6183
0.07650000 0.07648840 27448.32020699 0 1126.89771708 0 13106.71115884 0 2094.32432225 0 5531.64787188 0 6330
0.07750000 0.07749960 27330.85540685 0 1186.84410743 0 12201.72636849 0 2635.53917364 0 6140.62136588 0 6583
0.07850000 0.07848650 25483.00483319 0 879.15040278 0 10114.10147408 0 2557.27052260 0 4459.18862629 0 6549
0.07950000 0.07947320 25393.07962734 0 318.91861847 0 8871.22272275 0 2102.75481029 0 5243.80852861 0 6828
0.08050000 0.08048110 24592.97010831 0 -168.94023610 0 7263.46120805 0 1193.08266859 0 2230.63969366 0 7147
0.08150000 0.08149960 24699.30666422 0 -44.11179807 0 6798.90759464 0 405.72004748 0 967.18717930 0 7386
0.08250000 0.08250610 24812.94964311 0 61.32842836 0 5993.18899089 0 -1414.34363758 0 -174.31663934 0 7227
0.08350000 0.08350160 24621.74617418 0 81.03935904 0 7158.91191560 0 -1828.32556335 0 -254.27925645 0 7798
0.08450000 0.08449610 24951.20964710 0 358.55202889 0 7932.86444038 0 -1534.52867519 0 -903.75955942 0 7371
0.08550000 0.08548940 24404.35198904 0 697.72854811 0 8226.86366025 0 413.90886154 0 -1097.76757071 0 8256
0.08650000 0.08650700 23651.67801609 0 1056.17716301 0 7995.71091862 0 570.09208312 0 -391.45678577 0 8037
0.08750000 0.08749060 22708.47501326 0 1041.79362633 0 8463.50183944 0 1620.14871181 0 -1106.04855811 0 8155
0.08850000 0.08849210 21633.41917734 0 952.41584018 0 7466.62472936 0 1487.58771774 0 -182.86403016 0 8718
0.08950000 0.08949900 21042.61057492 0 800.49394929 0 7014.87421713 0 528.39264111 0 -170.05755678 0 8571
0.09050000 0.09049190 19922.25491656 0 783.91174133 0 6719.40247202 0 591.16268292 0 856.68259010 0 8932
0.09150000 0.09150830 19568.73645108 0 436.78021358 0 6242.10196068 0 636.46250536 0 962.55603120 0 9285
0.09250000 0.09250820 19519.27758786 0 133.84804858 0 6449.10978454 0 214.72003433 0 1598.98256648 0 9204
0.09350000 0.09350330 19540.18519822 0 -78.95601683 0 6118.19626767 0 937.84121244 0 1395.57175086 0 9349
0.09450000 0.09448040 19438.34490260 0 -151.00465379 0 6424.54896270 0 899.79273378 0 207.88571868 0 9564
0.09550000 0.09549270 19705.53517047 0 187.65367143 0 5858.78453010 0 -89.41218255 0 761.82498671 0 10155
0.09650000 0.09649430 19349.43135531 0 258.18201038 0 6921.52061281 0 -656.79234628 0 -28.09982832 0 9913
0.09750000 0.09749140 18929.14342448 0 500.95196454 0 6073.58212492 0 -715.76529627 0 523.79071870 0 10476
0.09850000 0.09850240 18368.57217253 0 663.88519689 0 6343.14417010 0 -217.19747375 0 -869.33057030 0 10575
0.09950000 0.09950330 17949.74552629 0 846.99652136 0 6417.66968445 0 -394.34675707 0 -807.50586721 0 10882
0.10050000 0.10051200 17302.39645069 0 853.13279260 0 6905.50268552 0 149.73446026 0 -736.59647021 0 10875
0.10150000 0.10150300 16539.71829859 0 503.89364284 0 6744.80634267 0 378.05118571 0 -838.66719917 0 11118
0.10250000 0.10250800 16184.28892248 0 359.55469493 0 6670.74169501 0 569.81106686 0 289.88064544 0 11575
0.10350000 0.10349800 16105.49196086 0 87.46249168 0 7058.44297937 0 1093.13305042 0 86.54266923 0 11364
0.10450000 0.10450100 15965.54585926 0 -36.97038785 0 6608.77198753 0 608.61379318 0 977.12728674 0 12093
0.10550000 0.10551000 16149.33049871 0 -91.33320976 0 5982.99372068 0 873.67508181 0 101.08750924 0 12067
0.10650000 0.10649700 16394.26427814 0 -238.79301193 0 6093.81529624 0 451.51558263 0 836.22123357 0 12054
0.10750000 0.10749900 16448.44421466 0 -43.76176421 0 5146.53193718 0 530.73294459 0 -127.44200173 0 12807
0.10850000 0.10850100 16472.38680072 0 -119.88828444 0 5568.53968758 0 -16.51645015 0 425.40579911 0 12736
0.10950000 0.10950300 16408.42749806 0 250.69798512 0 5149.19597141 0 11.82314125 0 -254.96830834 0 12933
0.11050000 0.11050200 16383.13603391 0 278.53770479 0 5043.90479601 0 177.24707699 0 -172.17192318 0 13428
0.11150000 0.11150900 15896.64067027 0 176.38941534 0 5279.32898492 0 644.85140301 0 766.07732488 0 13453
0.11250000 0.11250000 15983.53090043 0 132.00120966 0 5127.14181467 0 686.91166991 0 172.51139083 0 13668
0.11350000 0.11349100 15742.08172272 0 114.46129826 0 5048.98557014 0 1155.32532278 0 1294.88924226 0 13791
0.11450000 0.11448600 15494.67500013 0 240.09355522 0 3948.39097577 0 626.68651142 0 795.77175191 0 14205
0.11550000 0.11549300 15622.36879244 0 184.80866273 0 4325.30123543 0 639.82683213 0 2343.15860748 0 14776
0.11650000 0.11649800 15139.13321751 0 47.71600032 0 3470.53967254 0 205.23292511 0 835.63559567 0 14553
0.11750000 0.11747300 15242.32239122 0 -16.17855619 0 4028.59301873 0 -131.16153305 0 1375.92309338 0 14568
0.11850000 0.11849100 15406.66070491 0 0.40970598 0 3750.92646438 0 -458.80626869 0 322.74830818 0 16015
0.11950000 0.11950300 15225.23660211 0 371.19438876 0 3825.04731530 0 -724.49366156 0 15.75669457 0 15270
0.12050000 0.12050700 14958.49596027 0 442.61973164 0 3970.23156014 0 -685.29526434 0 -305.31743109 0 15999
0.12150000 0.12150000 14458.84903527 0 499.75708337 0 3917.88384968 0 -455.87695511 0 -1304.10657586 0 15670
0.12250000 0.12250700 14214.25247537 0 439.53866927 0 4379.22263699 0 -35.68681794 0 -676.86927255 0 16887
0.12350000 0.12352200 13819.70563471 0 318.88264839 0 4315.38698148 0 -147.93258395 0 -1288.98790062 0 16407
0.12450000 0.12449800 13727.75711173 0 293.09547155 0 4390.92415440 0 61.73758804 0 -726.55632097 0 16306
0.12550000 0.12549900 13486.53274704 0 271.65280622 0 4994.62578321 0 178.89495638 0 -182.21207241 0 17523
0.12650000 0.12650100 13228.55981277 0 93.17712610 0 4451.51126184 0 334.10810981 0 301.33262041 0 17154
0.12750000 0.12750600 13338.60578342 0 30.59390391 0 4948.30306154 0 741.85259849 0 974.60151252 0 18007
0.12850000 0.12850300 13382.10710175 0 -43.14667580 0 4109.87416417 0 518.18275805 0 894.47365785 0 17496
0.12950000 0.12949900 13537.34048835 0 -1.30742257 0 4669.82718033 0 628.96723946 0 1158.61883345 0 18405
0.13050000 0.13049000 13366.37019073 0 120.31655323 0 4172.51831069 0 35.92804231 0 1078.75963033 0 18100
0.13150000 0.13148800 13051.74437677 0 301.06734105 0 3873.49451995 0 17.43683463 0 1013.39412226 0 19059
0.13250000 0.13249300 12934.72920266 0 189.90854597 0 3900.35967519 0 -32.77886160 0 968.79684049 0 18957
0.13350000 0.13349100 12690.46986227 0 4.69708576 0 3339.48492567 0 605.85758562 0 295.82919781 0 19468
0.13450000 0.13450700 12692.15595988 0 37.82984800 0 3285.54104281 0 373.26716476 0 7.77911482 0 19953
0.13550000 0.13551000 12612.45974620 0 49.50697320 0 2912.55377026 0 283.21943582 0 45.13199953 0 19956
0.13650000 0.13649900 12474.98658776 0 246.33436451 0 3013.52853577 0 -125.64124948 0 -74.13377767 0 19723
0.13750000 0.13749600 12261.07700435 0 317.27298721 0 2697.18290225 0 -302.04415360 0 -106.64938323 0 20946
0.13850000 0.13851100 12204.31171816 0 294.13747987 0 3356.48078958 0 -281.42430390 0 288.81165956 0 20955
0.13950000 0.13949800 11928.69096224 0 317.77769243 0 3312.57480782 0 -586.35842880 0 -232.65561663 0 20506
0.14050000 0.14048300 11790.20614523 0 288.01469742 0 4201.29437656 0 -386.78067507 0 -29.61821542 0 21447
0.14150000 0.14148400 11670.71802796 0 131.08060037 0 4195.16822192 0 -342.49925558 0 -678.00008201 0 21771
0.14250000 0.14249400 11415.89247589 0 142.71017762 0 4099.81378177 0 -138.31283505 0 -437.50973182 0 22470
0.14350000 0.14350900 11414.99322383 0 73.02747282 0 4005.67333189 0 693.12887383 0 -610.98781861 0 22519
0.14450000 0.14449900 11229.93839084 0 4.98169903 0 3742.05759095 0 726.35286520 0 -513.84723906 0 22218
0.14550000 0.14550500 11244.58495875 0 210.98926235 0 3462.83982679 0 873.12428992 0 -66.66784986 0 23559
0.14650000 0.14650700 11071.97352612 0 168.44564746 0 3118.86467377 0 742.36517216 0 -116.80047768 0 23044
0.14750000 0.14750500 10753.98675759 0 262.40961912 0 2802.99114758 0 425.22370057 0 731.74612942 0 23649
0.14850000 0.14849900 10683.32802710 0 263.86753152 0 2811.74761450 0 -101.96236909 0 706.88967845 0 23640
0.14950000 0.14949500 10493.76569317 0 149.38937228 0 3024.66802065 0 71.77582636 0 926.47803861 0 24457
0.15050000 0.15050000 10312.34159037 0 200.52421652 0 3069.13603494 0 -20.62153580 0 1093.67822198 0 24591
0.15150000 0.15149900 10421.36466181 0 71.95376587 0 2895.47922180 0 77.90715171 0 1083.34806396 0 25020
0.15250000 0.15250500 10154.50037281 0 40.30582614 0 3175.77608842 0 31.37400507 0 816.39947007 0 25297
0.15350000 0.15350100 10305.40610887 0 116.08557229 0 2867.36635432 0 51.51545267 0 798.01201361 0 25452
0.15450000 0.15450400 10123.45369549 0 167.95218290 0 3119.13444939 0 73.48125789 0 518.50648879 0 26061
0.15550000 0.15549900 9991.48845591 0 209.00191530 0 3285.96818754 0 -329.75572984 0 727.36339970 0 26128
0.15650000 0.15649500 9751.91646688 0 232.25882166 0 3133.30890996 0 -161.17407051 0 453.76258871 0 26331
0.15750000 0.15749700 9639.66732868 0 266.27865110 0 3378.72603737 0 -111.32852890 0 -40.09821132 0 27345
0.15850000 0.15849900 9297.91782450 0 263.31336744 0 3175.73112582 0 -278.02850331 0 -246.63111769 0 26980
0.15950000 0.15949700 9103.10610668 0 285.76656727 0 3385.84136928 0 74.56170924 0 -474.25991532 0 27777
0.16050000 0.16050000 8886.13906627 0 206.02539099 0 2837.17396645 0 62.07559441 0 -658.70325690 0 28224
0.16150000 0.16150500 8645.80271300 0 40.81480280 0 2786.57979751 0 274.99015542 0 -929.60069139 0 28075
0.16250000 0.16249700 8663.95636393 0 9.12077641 0 2699.44227305 0 308.96502225 0 -885.63738231 0 28590
0.16350000 0.16349900 8684.18953524 0 -62.57411727 0 2475.34866007 0 438.68437982 0 -648.66985206 0 29163
0.16450000 0.16449100 8736.58220830 0 -41.00859162 0 2312.03324560 0 371.65750357 0 -560.83428318 0 28996
0.16550000 0.16550500 8782.18552831 0 -56.70930775 0 2433.29738569 0 250.02804234 0 -44.70406796 0 30777
0.16650000 0.16650700 8886.65613621 0 -57.80639526 0 2428.17164896 0 224.68711933 0 13.85601294 0 29211
0.16750000 0.16749900 8949.87355592 0 13.60040054 0 2355.87178345 0 229.72068273 0 327.81784166 0 30922
0.16850000 0.16850800 9003.86240138 0 104.32211890 0 2185.32863056 0 54.00728013 0 452.31816509 0 30867
0.16950000 0.16949900 8802.36249638 0 190.88760665 0 2343.91173108 0 -78.84630808 0 415.79391867 0 30852
0.17050000 0.17049200 8711.86401734 0 224.47242290 0 2263.68720681 0 14.43906549 0 496.94130036 0 31257
0.17150000 0.17149500 8549.15559801 0 167.77570468 0 2437.32153865 0 -58.74633848 0 496.56473856 0 32608
0.17250000 0.17250900 8434.73701422 0 133.84692451 0 2225.75001059 0 28.83597854 0 381.53353931 0 32361
0.17350000 0.17350400 8350.47709634 0 59.12155140 0 2503.18051128 0 -106.94534956 0 47.56919742 0 32508
0.17450000 0.17449800 8444.64002751 0 44.63639924 0 2593.56658381 0 -185.84280260 0 406.79577776 0 32791
0.17550000 0.17549800 8410.00758261 0 25.13184690 0 2671.94764136 0 -156.20457882 0 54.94351393 0 33633
0.17650000 0.17650100 8478.66547728 0 14.76942821 0 2893.70319898 0 -37.91078069 0 635.63294534 0 33984
0.17750000 0.17750300 8410.05254521 0 31.29824308 0 2679.91726273 0 338.07718358 0 587.80622461 0 34069
0.17850000 0.17849800 8420.58503495 0 89.23615396 0 2633.39220935 0 447.33406056 0 469.42193924 0 34536
