### header ###
fiducial parameters:
Omega_m = 0.31
Omega_nu = 0
Omega_de = 0.69
Omega_k = 0
H_0 = 100
w_de = -1
zeff = 0
beta = 0
fgrowth = 0
b_1 = 2
gamma = 0.55
Lx = 3500 Ly = 3500 Lz = 3500
nx = 700 ny = 700 nz = 700
xoffset = 857.220397 yoffset = 15.9954215 zoffset = 262.898189
bins = 400 dk = 0.001
kx_ny = 0.628318531 ky_ny = 0.628318531 kz_ny = 0.628318531
############################
A(data) = 3.09248264 (not used)
A(ran) = 3.09436619 (used)
Ngal = 188758
weighted Ngal = 0
Nran = 9360983
weighted Nran = 0
SN(data) = 3439.55837
SN(ran) = 69.4878355
SN(data+ran) = 3509.0462
############################
13 columns: k_central k_mean P_0(k) sigma^{lin}_{P_0(k)} P^img_1(k) sigma^{lin}_{P_1(k)} P_2(k) sigma^{lin}_{P_2(k)} P^img_3(k) sigma^{lin}_{P_3(k)} P_4(k) sigma^{lin}_{P_4(k)} N_modes
### header ###
0.00050000 0 0 0 0 0 0 0 0 0 0 0 0
0.00150000 0.00179520 53.82473196 0 -5699.85296942 0 -2828.73223776 0 7574.41132922 0 13655.03010150 0 3
0.00250000 0.00253879 3648.59158012 0 -7738.07520387 0 -1010.31980429 0 -3069.93412114 0 9314.30669327 0 6
0.00350000 0.00331552 11130.16637496 0 -11595.51807457 0 -5096.34243167 0 2814.85003410 0 -11911.04314059 0 7
0.00450000 0.00420575 21257.30700388 0 -15254.01266798 0 -10462.78645976 0 -722.73899599 0 482.90172760 0 24
0.00550000 0.00557378 40619.10307500 0 -16890.08938188 0 -28836.65297878 0 42.40187028 0 8078.70064297 0 45
0.00650000 0.00659388 54881.01590947 0 -17328.58716690 0 -25261.45160728 0 -15087.31381764 0 -9243.95146034 0 40
0.00750000 0.00754703 64795.04504119 0 -14253.81956594 0 -34300.17126658 0 -21647.02036473 0 -8718.19250370 0 57
0.00850000 0.00846663 74446.71738485 0 -8921.56959738 0 -28158.16730065 0 -29524.46839701 0 -24975.82667220 0 75
0.00950000 0.00948925 75049.32867054 0 -3850.36126074 0 -27339.73552093 0 -33816.37365911 0 -21404.44712195 0 112
0.01050000 0.01054430 83180.02856378 0 1859.21487156 0 5557.75990353 0 -43542.90873664 0 -42752.35377073 0 105
0.01150000 0.01145670 77299.59454037 0 2717.37111096 0 -7256.61565176 0 -18865.74615436 0 -24869.93974232 0 144
0.01250000 0.01249090 75250.98594465 0 2236.70964506 0 14861.60155097 0 -8553.77550546 0 -42103.43100403 0 169
0.01350000 0.01339930 76033.78486156 0 -3526.74292620 0 -10436.75311266 0 4868.97778933 0 -15987.91475421 0 180
0.01450000 0.01448870 72440.26122937 0 -2469.24498673 0 -4273.06593148 0 12116.85945547 0 -28226.51045710 0 267
0.01550000 0.01550050 76111.00813208 0 -406.47766734 0 -19181.15881387 0 10129.27635257 0 -40903.82875802 0 238
0.01650000 0.01653350 69233.52838883 0 100.81200089 0 -19614.93552558 0 -3401.28602339 0 -18262.01080360 0 315
0.01750000 0.01747870 71726.36750144 0 2835.20685258 0 -25107.34228576 0 -16701.69607563 0 -8966.97058568 0 297
0.01850000 0.01844180 70892.98565624 0 -1762.28674030 0 -24331.51257230 0 -7820.12071355 0 646.31718386 0 388
0.01950000 0.01947590 72780.51572699 0 -2119.97548721 0 -14546.75092399 0 -14216.61301202 0 -19146.98723565 0 399
0.02050000 0.02045430 75431.51079539 0 -3524.60720256 0 -17419.07440528 0 -8074.27182658 0 -4929.84591304 0 462
0.02150000 0.02154770 79862.23809402 0 21.25213630 0 -10491.37143456 0 -8502.06851210 0 -17511.80977381 0 571
0.02250000 0.02255340 75493.22196790 0 3222.57091742 0 -10830.41194191 0 -10088.07936764 0 -12426.42697660 0 510
0.02350000 0.02348930 74750.10254808 0 7506.97866549 0 -1972.80164719 0 -8374.97047428 0 -11373.51522263 0 555
0.02450000 0.02439640 67468.40900454 0 7393.40313050 0 6951.26337465 0 -6915.00103539 0 -23246.00293121 0 592
0.02550000 0.02547300 63206.51627989 0 6612.18914535 0 14887.11782812 0 -10071.96027449 0 -1034.17471327 0 837
0.02650000 0.02652900 57447.93091040 0 3413.48212943 0 21212.90643350 0 -4372.55693110 0 -15948.01044412 0 723
0.02750000 0.02749970 59619.73703813 0 2302.48993313 0 39641.27886791 0 -6960.70552126 0 14232.23751654 0 826
0.02850000 0.02848090 57580.68299553 0 -1296.39548946 0 33756.01136469 0 -557.71837480 0 -4428.23187417 0 831
0.02950000 0.02946900 61499.51105988 0 -3239.76911304 0 38699.64955618 0 2948.35524283 0 7163.55430435 0 996
0.03050000 0.03053250 66801.27638366 0 -3845.97740696 0 29532.67407204 0 10933.55615302 0 5402.79629255 0 1041
0.03150000 0.03150510 70599.60467217 0 -4970.39094023 0 25986.69839244 0 11037.29611862 0 -5175.18435590 0 1036
0.03250000 0.03246190 69750.93554198 0 -1364.04172556 0 17093.32034710 0 7535.21518012 0 -2769.28043604 0 1059
0.03350000 0.03345080 71518.86508895 0 1742.51443567 0 12343.58338072 0 1057.33944629 0 -12705.53233425 0 1302
0.03450000 0.03451200 67325.98995978 0 2957.03302520 0 12297.38430621 0 878.33545560 0 -7598.69113480 0 1339
0.03550000 0.03553350 64452.76722643 0 4939.46791007 0 15760.96601595 0 -6004.53080748 0 -13731.01690044 0 1365
0.03650000 0.03647120 61981.95978925 0 4324.88533135 0 18132.96813321 0 -4249.97763488 0 -12647.30576347 0 1308
0.03750000 0.03744890 59381.32283613 0 3206.22701125 0 24123.56053378 0 -6124.95189876 0 -10691.45501758 0 1579
0.03850000 0.03847530 57064.84953349 0 2253.13223577 0 23134.15845644 0 -64.89992031 0 -11662.73716594 0 1662
0.03950000 0.03950240 57687.35677097 0 1658.53553406 0 27608.61188642 0 2081.09407634 0 -9148.59702019 0 1683
0.04050000 0.04050350 55444.06010458 0 2150.47137265 0 26074.15065513 0 5583.66960346 0 -13754.73467348 0 1822
0.04150000 0.04152450 52498.89720656 0 3226.42646062 0 21948.83183686 0 8028.19639923 0 -6010.21857675 0 1887
0.04250000 0.04250150 47005.92841384 0 4644.68184465 0 20048.59983078 0 5020.11957906 0 -11194.82259796 0 1920
0.04350000 0.04349210 43535.82712668 0 4106.17599008 0 16341.77043922 0 2937.19327666 0 -5773.78272928 0 2005
0.04450000 0.04448520 40742.97504606 0 1246.80173843 0 16258.25240429 0 3972.70450330 0 -8211.41900615 0 2151
0.04550000 0.04548030 40200.38883527 0 -79.26513473 0 16869.40658453 0 1339.75067933 0 -1959.13301590 0 2274
0.04650000 0.04648670 40155.53863886 0 -670.78808050 0 14496.50521522 0 1079.57907377 0 -264.07098730 0 2311
0.04750000 0.04749250 40797.37979560 0 580.83477303 0 19175.20126898 0 1338.40180124 0 4930.66648055 0 2568
0.04850000 0.04851840 39610.81670443 0 1329.42052130 0 17177.73763409 0 2448.41606092 0 8071.83260537 0 2493
0.04950000 0.04949480 39567.09057309 0 1375.49594865 0 21705.13452901 0 3702.78275730 0 11252.79063378 0 2644
0.05050000 0.05050630 38481.01889946 0 1225.73675896 0 20011.84290289 0 1722.43863346 0 10128.46702571 0 2829
0.05150000 0.05149060 37567.60362106 0 1306.75936943 0 21352.17809605 0 -1252.28717599 0 10794.05967745 0 2784
0.05250000 0.05249300 37422.37441362 0 1298.81222936 0 24142.44482701 0 -3651.60407452 0 10344.11890999 0 3055
0.05350000 0.05348950 37404.05215292 0 137.94076951 0 25473.22546705 0 -1373.63000063 0 7463.97193579 0 3009
0.05450000 0.05448610 37680.23494138 0 333.31564393 0 25591.70192575 0 -1230.32294446 0 8719.35029073 0 3336
0.05550000 0.05550870 37348.52333831 0 249.10406085 0 22794.35358484 0 3184.88101552 0 4294.83907195 0 3349
0.05650000 0.05647670 36482.31879298 0 691.41692272 0 22999.83268020 0 4715.76771987 0 5440.05904972 0 3324
0.05750000 0.05747970 34846.57929861 0 1322.64240891 0 17757.98002482 0 6159.08975503 0 4605.56438010 0 3639
0.05850000 0.05849280 33960.14158196 0 660.86258591 0 15089.33713478 0 7447.35825401 0 5541.80942014 0 3846
0.05950000 0.05951020 32426.46719623 0 127.25877912 0 11721.86298878 0 5364.34202640 0 8264.87954102 0 3787
0.06050000 0.06049470 32924.54043012 0 -399.88727382 0 7986.92072975 0 5246.66365390 0 4494.40558503 0 3930
0.06150000 0.06148310 33254.11630955 0 -1236.07815763 0 7504.25842801 0 1308.36678248 0 7099.35894803 0 4083
0.06250000 0.06249100 33722.17700599 0 -469.85470430 0 6508.64027081 0 -848.15992871 0 1685.31076410 0 4303
0.06350000 0.06350600 34821.17542796 0 221.97250218 0 8646.67948375 0 -3274.98607178 0 6361.85985357 0 4470
0.06450000 0.06451750 34419.09735131 0 1032.79773355 0 9878.39626890 0 -2607.98833870 0 1635.17746184 0 4479
0.06550000 0.06550280 34469.56787309 0 1082.59156816 0 11590.34737523 0 -2074.29348264 0 4266.37774430 0 4636
0.06650000 0.06648880 32748.96146570 0 1566.78934279 0 13037.13153082 0 -243.34547548 0 2469.36863389 0 4653
0.06750000 0.06749660 32731.20123754 0 1190.13761810 0 14800.11519147 0 -727.35328311 0 2620.69027403 0 5220
0.06850000 0.06852730 31370.07084053 0 858.74637357 0 15917.66068714 0 -1502.15560109 0 1268.81093256 0 5029
0.06950000 0.06949320 31077.13948248 0 1190.16009940 0 15062.13476001 0 -1833.65363179 0 1327.18363181 0 5040
0.07050000 0.07048030 30834.90345923 0 1203.31166075 0 18645.76661955 0 -2596.10697088 0 1016.66065536 0 5475
0.07150000 0.07148790 29546.38766593 0 300.05118622 0 14787.75047566 0 -1353.19449760 0 -2461.75871334 0 5509
0.07250000 0.07249820 30163.04976503 0 115.64381472 0 18038.77148008 0 349.31221399 0 619.98033920 0 5916
0.07350000 0.07351270 29097.43607574 0 947.84988785 0 15928.56411835 0 56.78180995 0 -6114.01474560 0 5721
0.07450000 0.07449140 29617.99061109 0 554.69801195 0 18013.70482895 0 1541.83509817 0 -3039.92158369 0 6028
0.07550000 0.07549160 27677.40466889 0 1343.41513146 0 14957.82152122 0 984.84174534 0 -3462.51384792 0 6183
0.07650000 0.07648840 27106.82923779 0 679.15674497 0 15290.31996985 0 3138.69318166 0 -2533.69887802 0 6330
0.07750000 0.07749960 26605.83343470 0 -116.02824498 0 14208.40733699 0 3868.60483688 0 -1375.74324297 0 6583
0.07850000 0.07848650 26303.23511703 0 -322.07724133 0 10508.01883830 0 3961.93595990 0 -1732.37536871 0 6549
0.07950000 0.07947320 26222.52724478 0 144.11301083 0 9577.42784558 0 3564.07312728 0 -1465.52232035 0 6828
0.08050000 0.08048110 25809.32092391 0 289.00612281 0 7627.08501855 0 1416.23206690 0 -1051.21441571 0 7147
0.08150000 0.08149960 25025.39794193 0 1017.93759329 0 7516.27468364 0 374.45530154 0 308.52888500 0 7386
0.08250000 0.08250610 24209.32669886 0 740.69593553 0 6537.94464727 0 -386.03654399 0 542.87397144 0 7227
0.08350000 0.08350160 23634.92944650 0 267.28918560 0 5857.19959835 0 86.60910148 0 -185.16611543 0 7798
0.08450000 0.08449610 23919.09309698 0 14.91870406 0 7724.41781323 0 -463.75552721 0 -723.27067877 0 7371
0.08550000 0.08548940 23794.65909339 0 173.33308240 0 7147.91855919 0 -643.47105110 0 -1338.50296709 0 8256
0.08650000 0.08650700 23659.09684558 0 679.24779424 0 8940.16163369 0 -1234.93161126 0 -267.70846187 0 8037
0.08750000 0.08749060 23151.13183904 0 673.37792643 0 7956.89695165 0 -973.06041931 0 -1405.24995113 0 8155
0.08850000 0.08849210 22995.89845245 0 342.98709982 0 9387.51705148 0 850.44627707 0 92.93781265 0 8718
0.08950000 0.08949900 22262.22117924 0 491.44124996 0 8679.95180992 0 1250.49991252 0 -1296.14819514 0 8571
0.09050000 0.09049190 21844.06897204 0 203.20061546 0 7464.50024637 0 1674.51973940 0 -403.99910386 0 8932
0.09150000 0.09150830 21434.34725290 0 444.42947641 0 7556.65110107 0 1747.88746672 0 -883.78267494 0 9285
0.09250000 0.09250820 20697.97222351 0 610.32462022 0 6482.80925543 0 1088.74919663 0 -463.74203843 0 9204
0.09350000 0.09350330 19953.50392560 0 851.51189076 0 5932.41079239 0 1086.86076731 0 -103.05181296 0 9349
0.09450000 0.09448040 19485.21841614 0 755.35149595 0 6169.82457648 0 154.89279488 0 282.00656960 0 9564
0.09550000 0.09549270 18890.25077295 0 407.94232413 0 6059.02548222 0 527.41470449 0 1321.39469668 0 10155
0.09650000 0.09649430 18672.29455528 0 112.14336368 0 5903.75837368 0 1078.42915520 0 309.27076795 0 9913
0.09750000 0.09749140 18428.70965394 0 -78.97703685 0 5069.74705204 0 360.80690342 0 1359.82648153 0 10476
0.09850000 0.09850240 18534.70899033 0 183.78239132 0 4576.99064595 0 477.22070272 0 -520.95807471 0 10575
0.09950000 0.09950330 18477.71889113 0 238.89417779 0 5103.08682211 0 172.73395572 0 859.96486011 0 10882
0.10050000 0.10051200 17941.42744475 0 318.27452919 0 4134.69352098 0 -111.94653988 0 -79.00873548 0 10875
0.10150000 0.10150300 18026.63157729 0 157.09483836 0 4485.42430509 0 235.19263150 0 357.15818820 0 11118
0.10250000 0.10250800 17574.08297886 0 290.95862385 0 5105.12137989 0 223.53495263 0 941.77431613 0 11575
0.10350000 0.10349800 17507.08870050 0 355.07304749 0 4763.95638956 0 269.69580892 0 37.58986011 0 11364
0.10450000 0.10450100 17232.14238362 0 232.68709046 0 5390.54398325 0 -113.68344523 0 1913.04634791 0 12093
0.10550000 0.10551000 17061.50930553 0 507.06912667 0 5909.68219661 0 -589.25739262 0 1919.48724078 0 12067
0.10650000 0.10649700 16660.44288745 0 655.49517518 0 6053.18034384 0 -844.06046339 0 2292.86793611 0 12054
0.10750000 0.10749900 16085.14638303 0 591.41784569 0 6828.88641014 0 -171.70431211 0 2472.14507462 0 12807
0.10850000 0.10850100 15716.67785207 0 460.49798663 0 6510.86591966 0 443.09970743 0 2985.40442764 0 12736
0.10950000 0.10950300 15529.18379788 0 -88.54788891 0 6256.41130906 0 1639.60627823 0 2065.77306939 0 12933
0.11050000 0.11050200 15713.19325035 0 -451.15250961 0 5031.98970624 0 1520.52282438 0 2191.16252829 0 13428
0.11150000 0.11150900 15933.17278515 0 -206.08496644 0 4839.56100637 0 1159.13590338 0 1314.22316152 0 13453
0.11250000 0.11250000 16028.94312938 0 275.01151265 0 4388.20391692 0 73.83342748 0 1641.33733844 0 13668
0.11350000 0.11349100 15301.11099455 0 757.63334805 0 4208.05000765 0 -531.90422040 0 1535.76514677 0 13791
0.11450000 0.11448600 14808.54567952 0 585.42657885 0 4015.12671916 0 -779.87297552 0 1540.50870138 0 14205
0.11550000 0.11549300 14517.30041908 0 276.12208895 0 4947.77475096 0 -504.43431814 0 1194.66760034 0 14776
0.11650000 0.11649800 14466.94230380 0 52.34737323 0 4815.07886908 0 -190.75833917 0 -211.11740577 0 14553
0.11750000 0.11747300 14315.98036448 0 85.44951595 0 5428.29008841 0 -334.09799322 0 -383.60519124 0 14568
0.11850000 0.11849100 14203.57385717 0 287.31890114 0 5195.83343129 0 -390.23829923 0 -344.53606149 0 16015
0.11950000 0.11950300 13938.18209341 0 204.79116754 0 5421.91663944 0 21.68737430 0 -448.25579392 0 15270
0.12050000 0.12050700 14038.89832396 0 103.44804590 0 5229.64530869 0 727.29932799 0 1.78138461 0 15999
0.12150000 0.12150000 13846.79560297 0 -17.40120177 0 5461.02286334 0 737.24730388 0 54.99791868 0 15670
0.12250000 0.12250700 14149.61873366 0 -125.21185662 0 4813.60634383 0 883.82876161 0 1274.33009207 0 16887
0.12350000 0.12352200 14258.87785877 0 -164.06741400 0 5016.61249604 0 834.69250507 0 1780.66520425 0 16407
0.12450000 0.12449800 14458.51181575 0 -116.67345833 0 4622.12185863 0 790.17615598 0 2840.14149825 0 16306
0.12550000 0.12549900 14398.26192783 0 -190.31433346 0 4129.10691757 0 1023.51183199 0 2052.95872756 0 17523
0.12650000 0.12650100 14470.98893806 0 45.16133763 0 3657.22439988 0 362.85494999 0 2739.90861568 0 17154
0.12750000 0.12750600 14550.68515175 0 93.15723015 0 3745.67708049 0 -96.53830549 0 1904.81819157 0 18007
0.12850000 0.12850300 14355.99708109 0 334.14070769 0 3696.40930833 0 -387.84628876 0 1318.29227708 0 17496
0.12950000 0.12949900 14003.15305464 0 439.05532129 0 3756.59175235 0 -653.98780392 0 1601.90513567 0 18405
0.13050000 0.13049000 13694.14756604 0 405.46376065 0 4064.59682302 0 -124.30136391 0 1960.92027937 0 18100
0.13150000 0.13148800 13319.04705115 0 288.55874492 0 4176.77851732 0 329.25102463 0 2094.77394828 0 19059
0.13250000 0.13249300 13051.63197026 0 258.43942128 0 4165.95377067 0 705.54417256 0 1907.24617213 0 18957
0.13350000 0.13349100 12811.30685763 0 212.04813165 0 4071.41989802 0 575.73826199 0 2127.06833783 0 19468
0.13450000 0.13450700 12611.89771366 0 245.99264873 0 4138.49286093 0 140.81500390 0 2576.64940446 0 19953
0.13550000 0.13551000 12323.46261591 0 180.10557447 0 4126.85878742 0 29.51828604 0 2574.59236538 0 19956
0.13650000 0.13649900 12301.65575349 0 141.54452213 0 4007.78657423 0 -163.88306733 0 2493.03020367 0 19723
0.13750000 0.13749600 12142.93776517 0 39.88340248 0 4020.55595346 0 103.05147574 0 1801.83134957 0 20946
0.13850000 0.13851100 12195.43160408 0 63.93120103 0 4266.25409714 0 154.22397616 0 2303.80508927 0 20955
0.13950000 0.13949800 12136.30578124 0 33.67417943 0 3925.70734259 0 51.52028615 0 1337.58123373 0 20506
0.14050000 0.14048300 12303.00463158 0 170.09802312 0 4171.93379686 0 -126.98900350 0 1597.75733555 0 21447
0.14150000 0.14148400 11952.40873528 0 279.84836466 0 3952.34768483 0 -303.54478047 0 1194.48774993 0 21771
0.14250000 0.14249400 11849.21956157 0 312.22031470 0 4303.67422342 0 -143.39136105 0 1172.30994604 0 22470
0.14350000 0.14350900 11494.46462450 0 408.90677197 0 4096.44158655 0 7.70980497 0 1113.94286712 0 22519
0.14450000 0.14449900 11241.77479606 0 248.39365172 0 3623.17646882 0 422.53943317 0 868.50550653 0 22218
0.14550000 0.14550500 11024.85271826 0 117.34902144 0 3524.02268872 0 287.43355578 0 99.79483441 0 23559
0.14650000 0.14650700 10943.98747690 0 202.42613462 0 3242.12964969 0 280.71726697 0 -127.21044432 0 23044
0.14750000 0.14750500 10737.55292622 0 166.23573553 0 3314.94658512 0 -170.66230379 0 -371.66087577 0 23649
0.14850000 0.14849900 10558.92774546 0 335.37942741 0 3009.44817956 0 -446.94400998 0 -677.46727517 0 23640
0.14950000 0.14949500 10416.01411206 0 214.31649497 0 3618.34298900 0 -573.15178825 0 -727.40386604 0 24457
0.15050000 0.15050000 10266.82819556 0 106.79281393 0 3496.34820662 0 -214.32211529 0 -839.64850798 0 24591
0.15150000 0.15149900 10266.56966060 0 25.97568255 0 3852.31713397 0 154.17226917 0 -547.02626782 0 25020
0.15250000 0.15250500 10122.07109545 0 112.17764766 0 3452.12748665 0 372.41961969 0 -659.72053579 0 25297
0.15350000 0.15350100 10107.72802512 0 207.25849037 0 3650.12030862 0 408.99107685 0 -530.17878051 0 25452
0.15450000 0.15450400 9925.28102310 0 112.95954733 0 3190.28776852 0 443.43692695 0 13.30791881 0 26061
0.15550000 0.15549900 9764.50599570 0 44.98216166 0 3054.30961662 0 685.24355734 0 200.39045278 0 26128
0.15650000 0.15649500 9789.83118179 0 -31.90647469 0 2737.44691317 0 582.81874788 0 539.90756372 0 26331
0.15750000 0.15749700 9719.76820579 0 74.17536808 0 2569.62399776 0 289.71990414 0 139.02436824 0 27345
0.15850000 0.15849900 9602.43829346 0 177.32351341 0 2729.12883163 0 -50.07923473 0 755.85620117 0 26980
0.15950000 0.15949700 9421.07039391 0 230.26473022 0 2665.03464116 0 -111.60898314 0 451.30650652 0 27777
0.16050000 0.16050000 9300.88535630 0 188.55629569 0 2764.17718061 0 18.38880534 0 1024.66175055 0 28224
0.16150000 0.16150500 9107.31011006 0 89.68319464 0 2662.39308824 0 113.81945711 0 705.76561338 0 28075
0.16250000 0.16249700 9275.97607428 0 -30.43226335 0 2952.10962018 0 84.68222913 0 862.96498979 0 28590
0.16350000 0.16349900 9261.47563483 0 84.89456502 0 2815.88417397 0 169.70010409 0 1115.63683318 0 29163
0.16450000 0.16449100 9198.69660050 0 104.07527421 0 2848.85300256 0 -30.87211001 0 849.44585916 0 28996
0.16550000 0.16550500 9188.05170426 0 141.14323090 0 2913.70031663 0 -1.73870386 0 1043.41003191 0 30777
0.16650000 0.16650700 9036.66262021 0 158.67977011 0 2723.29493390 0 28.82215254 0 393.75662291 0 29211
0.16750000 0.16749900 8910.48631576 0 95.68660138 0 2727.95980395 0 428.09456276 0 1018.40520436 0 30922
0.16850000 0.16850800 8765.60556849 0 32.00145819 0 2294.35170200 0 403.40896969 0 397.67174156 0 30867
0.16950000 0.16949900 8734.73874158 0 32.58068892 0 2066.46998973 0 533.25197442 0 465.36518839 0 30852
0.17050000 0.17049200 8688.97805245 0 25.35778398 0 1698.50728806 0 342.42843948 0 118.89236278 0 31257
0.17150000 0.17149500 8565.51074482 0 -1.48946491 0 1542.45333396 0 136.49634589 0 194.44976887 0 32608
0.17250000 0.17250900 8617.56619836 0 -6.82570531 0 1458.55311690 0 11.75614697 0 490.96127417 0 32361
0.17350000 0.17350400 8755.07307875 0 -59.99270183 0 1383.74658629 0 29.41622093 0 266.17636118 0 32508
0.17450000 0.17449800 8661.60706792 0 16.59895653 0 1502.94244664 0 53.08307383 0 381.06255604 0 32791
0.17550000 0.17549800 8759.63678295 0 131.88655503 0 1331.88222381 0 124.73974929 0 337.12847266 0 33633
0.17650000 0.17650100 8506.81206671 0 218.39797525 0 1452.07850208 0 -12.58548218 0 505.78881655 0 33984
0.17750000 0.17750300 8421.79902523 0 203.05336293 0 1416.44563926 0 19.44441485 0 355.77783629 0 34069
