### header ###
fiducial parameters:
Omega_m = 0.31
Omega_nu = 0
Omega_de = 0.69
Omega_k = 0
H_0 = 100
w_de = -1
zeff = 0
beta = 0
fgrowth = 0
b_1 = 2
gamma = 0.55
Lx = 3500 Ly = 3500 Lz = 3500
nx = 700 ny = 700 nz = 700
xoffset = 857.220397 yoffset = 15.9954215 zoffset = 262.898189
bins = 400 dk = 0.001
kx_ny = 0.628318531 ky_ny = 0.628318531 kz_ny = 0.628318531
############################
A(data) = 3.02878016 (not used)
A(ran) = 3.02428699 (used)
Ngal = 184689
weighted Ngal = 0
Nran = 9360983
weighted Nran = 0
SN(data) = 3458.83196
SN(ran) = 67.9141199
SN(data+ran) = 3526.74608
############################
13 columns: k_central k_mean P_0(k) sigma^{lin}_{P_0(k)} P^img_1(k) sigma^{lin}_{P_1(k)} P_2(k) sigma^{lin}_{P_2(k)} P^img_3(k) sigma^{lin}_{P_3(k)} P_4(k) sigma^{lin}_{P_4(k)} N_modes
### header ###
0.00050000 0 0 0 0 0 0 0 0 0 0 0 0
0.00150000 0.00179520 1666.33654566 0 -3371.61070546 0 -9336.03487113 0 15534.35449722 0 27058.60684615 0 3
0.00250000 0.00253879 6591.40518215 0 -6647.05764392 0 6791.58993101 0 -12055.37309597 0 -9083.26635814 0 6
0.00350000 0.00331552 14874.41589280 0 -9864.73887826 0 -3195.96429714 0 29.91968968 0 -7362.54754424 0 7
0.00450000 0.00420575 28768.87185487 0 -13200.34577943 0 8639.99129657 0 -17565.65249081 0 -8249.27751781 0 24
0.00550000 0.00557378 50058.55193286 0 -8069.94417605 0 7543.93792509 0 -24681.99606210 0 -2239.54228904 0 45
0.00650000 0.00659388 69254.77321871 0 -8690.85524113 0 45012.39900670 0 -41020.50671261 0 -45663.45749704 0 40
0.00750000 0.00754703 73478.78495040 0 -8170.05341146 0 18749.40541929 0 -10148.66647508 0 -22299.54013966 0 57
0.00850000 0.00846663 84230.91700062 0 -9713.90058610 0 38608.37547224 0 -17498.43339944 0 -43421.39730224 0 75
0.00950000 0.00948925 88251.02332806 0 -8892.33266483 0 17488.87884632 0 8406.47801828 0 -25472.55102801 0 112
0.01050000 0.01054430 101882.67287604 0 -1544.09446896 0 51063.57851472 0 -12361.68082839 0 -57376.10315223 0 105
0.01150000 0.01145670 91954.93015042 0 5768.99421206 0 19392.93267364 0 6020.40260631 0 -24283.51499368 0 144
0.01250000 0.01249090 90426.65127704 0 5914.56063903 0 34257.00716777 0 6898.92690484 0 -18532.01123416 0 169
0.01350000 0.01339930 87069.51852972 0 2583.49496076 0 5782.49423359 0 -1406.32905361 0 7142.09590211 0 180
0.01450000 0.01448870 85010.56853533 0 2951.18788682 0 28810.23744956 0 3809.17551646 0 -14003.49027416 0 267
0.01550000 0.01550050 83172.38492129 0 3851.12562499 0 25123.75363582 0 -1861.58664886 0 -27352.21264324 0 238
0.01650000 0.01653350 77620.29030573 0 5007.97967627 0 26941.36685902 0 -7895.70284907 0 -10531.07341295 0 315
0.01750000 0.01747870 75674.75847721 0 4529.97100394 0 13447.30287599 0 -496.14995855 0 -9386.51663356 0 297
0.01850000 0.01844180 70344.77912009 0 2225.04184960 0 14237.63302889 0 4924.81010152 0 -13978.76084255 0 388
0.01950000 0.01947590 72774.78299512 0 770.90406030 0 25967.25206668 0 2491.53519713 0 -14121.06748081 0 399
0.02050000 0.02045430 68797.50354697 0 3338.07984433 0 22941.83092243 0 4253.36107075 0 6926.39905523 0 462
0.02150000 0.02154770 66585.11867010 0 4794.57592215 0 31847.91090310 0 1349.40639830 0 21604.08107894 0 571
0.02250000 0.02255340 62522.18546338 0 2774.21508171 0 43287.52115203 0 -1818.34386550 0 36901.37025223 0 510
0.02350000 0.02348930 64314.17000292 0 2931.68535780 0 55956.63377792 0 8870.12113898 0 42461.67054283 0 555
0.02450000 0.02439640 64473.78724330 0 2810.34253316 0 59977.52695090 0 1015.30728102 0 35403.10391630 0 592
0.02550000 0.02547300 66502.72470024 0 1534.93333862 0 77881.74784173 0 598.45112085 0 55343.56868705 0 837
0.02650000 0.02652900 65276.70692501 0 392.72810337 0 75112.27631463 0 6775.88674194 0 40850.09844752 0 723
0.02750000 0.02749970 65590.88311294 0 781.17351881 0 70826.77822344 0 11682.97033726 0 41313.55047716 0 826
0.02850000 0.02848090 66519.58567634 0 -3528.74376203 0 56826.43533148 0 22440.38549332 0 23926.84914599 0 831
0.02950000 0.02946900 66920.09006188 0 -2020.36084044 0 48711.35994275 0 19120.90892595 0 20531.83540571 0 996
0.03050000 0.03053250 66778.57026918 0 1197.61265083 0 34031.29490109 0 12390.56930077 0 16737.55375146 0 1041
0.03150000 0.03150510 62769.03015343 0 2845.57073255 0 23849.17624944 0 7097.93138539 0 3955.59623289 0 1036
0.03250000 0.03246190 62056.26049058 0 5066.91440806 0 31011.94370824 0 -49.95491313 0 22732.97963185 0 1059
0.03350000 0.03345080 54063.93300783 0 4731.44842764 0 19919.55716039 0 3421.73276707 0 14200.53888148 0 1302
0.03450000 0.03451200 53938.48734568 0 1616.60790683 0 27522.62090832 0 8412.52548838 0 26094.83345247 0 1339
0.03550000 0.03553350 50443.09459437 0 132.05404072 0 22355.29376729 0 5523.18366188 0 18134.20460479 0 1365
0.03650000 0.03647120 53174.46031549 0 106.03305835 0 21188.51422141 0 6773.09906056 0 19137.65749554 0 1308
0.03750000 0.03744890 50247.61967815 0 999.40738056 0 20699.77072763 0 1871.30981174 0 16838.26998201 0 1579
0.03850000 0.03847530 49929.17204295 0 2625.10784976 0 18857.31566631 0 -494.49421070 0 15282.11429481 0 1662
0.03950000 0.03950240 46113.30833930 0 2916.22946305 0 19364.83104681 0 -2726.57720391 0 13379.63415859 0 1683
0.04050000 0.04050350 44507.13175634 0 2590.71145853 0 17738.08407303 0 2144.51382776 0 9706.56044118 0 1822
0.04150000 0.04152450 41672.80167453 0 1306.62448162 0 19301.09655717 0 2602.21064422 0 7811.42044988 0 1887
0.04250000 0.04250150 42294.18484693 0 869.58011274 0 14818.88707819 0 4803.47851753 0 1665.26868384 0 1920
0.04350000 0.04349210 39860.69637018 0 270.18477723 0 11950.83504418 0 3132.96044979 0 -1428.06847212 0 2005
0.04450000 0.04448520 39672.41547044 0 568.43858340 0 12329.75738032 0 1303.82555959 0 -1923.57883764 0 2151
0.04550000 0.04548030 38853.98369071 0 1421.45896949 0 11146.90370389 0 -2575.87379956 0 -4427.72604489 0 2274
0.04650000 0.04648670 38606.46456162 0 561.39181946 0 13696.39569619 0 -1285.36841109 0 -2829.40667680 0 2311
0.04750000 0.04749250 37993.62428376 0 552.89501157 0 15712.06918527 0 -2498.00981195 0 -1225.96157198 0 2568
0.04850000 0.04851840 38787.43903839 0 126.92155960 0 15978.24779458 0 158.61345027 0 1824.54870470 0 2493
0.04950000 0.04949480 38979.20453986 0 320.48556519 0 21593.51486725 0 1057.90597509 0 4895.23594944 0 2644
0.05050000 0.05050630 40003.78985399 0 -134.19201249 0 18928.46898544 0 2541.91579370 0 8435.01803049 0 2829
0.05150000 0.05149060 39853.50235371 0 -637.54498003 0 22504.56960900 0 4196.46089675 0 9152.95839268 0 2784
0.05250000 0.05249300 41158.54190358 0 -576.89155275 0 18846.63704812 0 865.83472792 0 11035.95848118 0 3055
0.05350000 0.05348950 41262.74273586 0 -869.05629842 0 18194.90411873 0 1272.28429364 0 5485.11157785 0 3009
0.05450000 0.05448610 42177.50689235 0 176.61198022 0 15176.67699095 0 546.73625903 0 2852.51745470 0 3336
0.05550000 0.05550870 40269.40643076 0 1481.83250457 0 13424.70916802 0 -173.51518094 0 -3873.04489392 0 3349
0.05650000 0.05647670 38768.66715167 0 2288.29299126 0 10565.55972939 0 -119.06434474 0 -6192.13726818 0 3324
0.05750000 0.05747970 36451.40700347 0 2106.35181853 0 9423.82435334 0 609.50180459 0 -10126.06152646 0 3639
0.05850000 0.05849280 34590.18005544 0 1674.93564347 0 8884.46420932 0 1898.98429384 0 -6674.96817968 0 3846
0.05950000 0.05951020 33622.69724702 0 59.29679314 0 8867.17608849 0 3659.97835931 0 -7342.39305748 0 3787
0.06050000 0.06049470 32971.97597620 0 163.35026049 0 8200.71790665 0 3105.28596769 0 -6353.78906634 0 3930
0.06150000 0.06148310 34113.80127746 0 -151.89716146 0 6276.00376329 0 1415.16420508 0 -3643.17358647 0 4083
0.06250000 0.06249100 32747.61258761 0 1117.38363030 0 8041.97743703 0 -1093.90528312 0 -2442.76201361 0 4303
0.06350000 0.06350600 32802.57936969 0 1195.54437110 0 7906.98846240 0 -1357.67951724 0 2005.87164164 0 4470
0.06450000 0.06451750 31059.71647385 0 732.40595561 0 9426.09496479 0 -77.18730044 0 -749.33662375 0 4479
0.06550000 0.06550280 31517.21095860 0 13.38739021 0 8658.80814589 0 404.92982974 0 -806.79208589 0 4636
0.06650000 0.06648880 30579.06624859 0 -443.18401231 0 8155.64289722 0 1139.02637922 0 -3802.00398130 0 4653
0.06750000 0.06749660 30595.02797263 0 111.82896268 0 6502.34550640 0 606.54663751 0 -7010.13066253 0 5220
0.06850000 0.06852730 31041.73143268 0 175.61718263 0 7620.63288503 0 -1040.74374956 0 -4487.86352630 0 5029
0.06950000 0.06949320 30485.76884752 0 388.90290993 0 7531.96663206 0 -1337.31145812 0 -7401.11421690 0 5040
0.07050000 0.07048030 30303.55789917 0 1049.42940038 0 8688.41601992 0 -1819.28808016 0 -2776.63182162 0 5475
0.07150000 0.07148790 29900.13094444 0 1157.58469358 0 10260.70204091 0 -1054.56075743 0 -3123.96792920 0 5509
0.07250000 0.07249820 29296.50800018 0 984.89570046 0 11338.78161187 0 332.08928894 0 -1386.33193595 0 5916
0.07350000 0.07351270 28954.90462447 0 550.59292630 0 11434.43954959 0 2497.62762982 0 767.66675289 0 5721
0.07450000 0.07449140 28151.64772323 0 73.33805200 0 9548.69674231 0 3208.89104548 0 1267.40585122 0 6028
0.07550000 0.07549160 27870.96867448 0 -58.98643878 0 9262.52101535 0 4551.31699968 0 2333.81762672 0 6183
0.07650000 0.07648840 27305.22672319 0 274.57649947 0 5956.74680122 0 2496.52604605 0 570.59454021 0 6330
0.07750000 0.07749960 27408.75311642 0 653.53705383 0 6072.80652002 0 999.70188561 0 3187.07294241 0 6583
0.07850000 0.07848650 25646.66870783 0 1103.77682259 0 4949.53953312 0 -755.50324474 0 1451.80872646 0 6549
0.07950000 0.07947320 25181.86780010 0 1038.09657631 0 6224.29676992 0 -2116.77190176 0 897.97062430 0 6828
0.08050000 0.08048110 24217.98199992 0 743.97033709 0 5382.21466106 0 -1770.60482184 0 316.11632425 0 7147
0.08150000 0.08149960 23924.82582886 0 609.94131403 0 6199.15143424 0 -700.46901876 0 -509.42629113 0 7386
0.08250000 0.08250610 22945.87755669 0 300.77283600 0 5165.10149219 0 688.00313710 0 -1410.04970900 0 7227
0.08350000 0.08350160 22858.65010702 0 295.84943098 0 4412.50620380 0 1751.77673187 0 -2301.57944042 0 7798
0.08450000 0.08449610 22343.49108402 0 222.37828967 0 2905.83186112 0 2335.96459101 0 -2247.26461609 0 7371
0.08550000 0.08548940 21760.88815663 0 179.77509934 0 1796.53700308 0 1540.84592090 0 -3808.46735547 0 8256
0.08650000 0.08650700 22024.14419675 0 -117.35351770 0 1153.58302192 0 1538.15940538 0 -1772.57193572 0 8037
0.08750000 0.08749060 21483.58130310 0 399.09480794 0 1379.28404795 0 -281.09720096 0 -1236.73011538 0 8155
0.08850000 0.08849210 21547.54060576 0 655.51091209 0 1714.40156819 0 -1015.10607337 0 268.84489166 0 8718
0.08950000 0.08949900 20915.81603468 0 854.65814890 0 4412.70853551 0 -1003.77886963 0 1987.43697445 0 8571
0.09050000 0.09049190 20720.00389894 0 1173.87239649 0 5264.22155034 0 -1251.35420198 0 3575.23509345 0 8932
0.09150000 0.09150830 19892.46719213 0 903.57071649 0 6944.69883462 0 -330.68420759 0 4022.71415840 0 9285
0.09250000 0.09250820 19336.16738745 0 706.60866219 0 7664.30281312 0 -260.61111500 0 4435.43713129 0 9204
0.09350000 0.09350330 19357.07499781 0 425.64634904 0 7920.75825955 0 -44.60852243 0 4156.27557039 0 9349
0.09450000 0.09448040 18847.76111319 0 278.25893665 0 8880.14779944 0 305.23537434 0 3929.10201911 0 9564
0.09550000 0.09549270 18715.45865409 0 74.02125875 0 7885.37269104 0 -115.93719570 0 2978.86236892 0 10155
0.09650000 0.09649430 18525.26684372 0 -75.45343006 0 7738.36746078 0 680.52360810 0 1800.33634303 0 9913
0.09750000 0.09749140 18753.78927308 0 -154.07447550 0 6481.14563913 0 1033.42158967 0 1517.13938851 0 10476
0.09850000 0.09850240 18822.80686857 0 -64.37138492 0 6097.44602642 0 248.32395969 0 16.61075921 0 10575
0.09950000 0.09950330 18796.39133935 0 51.21442805 0 4786.89855770 0 1000.04360139 0 212.39996402 0 10882
0.10050000 0.10051200 18505.59570494 0 151.12155656 0 5327.92231803 0 74.37994792 0 -144.94369492 0 10875
0.10150000 0.10150300 18399.82118156 0 292.61549576 0 4527.13835995 0 725.69865932 0 893.29338953 0 11118
0.10250000 0.10250800 18036.52334993 0 733.70087858 0 5059.91148265 0 -608.94314425 0 45.63906528 0 11575
0.10350000 0.10349800 17544.52006744 0 522.32718597 0 5904.78127289 0 -309.50569755 0 1001.86571087 0 11364
0.10450000 0.10450100 17091.74665599 0 522.69363119 0 5643.51482795 0 109.36445000 0 1288.00996401 0 12093
0.10550000 0.10551000 16952.92461947 0 24.61938564 0 6477.09900486 0 58.11292781 0 1800.92085687 0 12067
0.10650000 0.10649700 16879.97279622 0 -211.26128610 0 5560.69371337 0 857.93479859 0 1257.03073060 0 12054
0.10750000 0.10749900 17005.19364537 0 120.40423031 0 5511.48214447 0 574.90645383 0 835.80645356 0 12807
0.10850000 0.10850100 16884.24424350 0 343.64018163 0 5652.38370138 0 -291.48356224 0 1232.07648597 0 12736
0.10950000 0.10950300 16939.54824510 0 446.87656607 0 5385.02482374 0 -335.92459897 0 1249.27468159 0 12933
0.11050000 0.11050200 16275.11338039 0 372.40837904 0 6576.72489229 0 -817.82366052 0 546.51257009 0 13428
0.11150000 0.11150900 16418.43167721 0 348.86258796 0 6810.48546489 0 -560.19244202 0 1243.13728629 0 13453
0.11250000 0.11250000 15992.74823402 0 286.62535299 0 7149.46976899 0 194.42503943 0 358.79145475 0 13668
0.11350000 0.11349100 16106.39121292 0 215.29105939 0 7794.54823314 0 9.87201158 0 2063.17647907 0 13791
0.11450000 0.11448600 15864.38000268 0 98.88411689 0 7083.80188742 0 951.65484812 0 798.17837524 0 14205
0.11550000 0.11549300 15706.11164038 0 -35.15120093 0 7078.57498483 0 1189.86784248 0 1729.65513123 0 14776
0.11650000 0.11649800 15573.24714874 0 55.13921366 0 6062.20658638 0 998.86333306 0 1121.86302962 0 14553
0.11750000 0.11747300 15385.30346852 0 182.53467909 0 5822.79196646 0 671.68283630 0 1048.84376247 0 14568
0.11850000 0.11849100 15067.64267886 0 249.68520249 0 4869.02275194 0 402.49398072 0 522.12710239 0 16015
0.11950000 0.11950300 15072.81337820 0 234.43950791 0 4791.51846515 0 -208.09929105 0 285.88009785 0 15270
0.12050000 0.12050700 14671.63455361 0 81.36129128 0 4416.27182179 0 98.62389582 0 295.62461796 0 15999
0.12150000 0.12150000 14832.71307859 0 -114.63890055 0 5163.28050677 0 25.02112649 0 -468.80033126 0 15670
0.12250000 0.12250700 14722.44229492 0 4.89836085 0 4392.76762112 0 -279.99449312 0 -245.56550400 0 16887
0.12350000 0.12352200 14884.08285243 0 299.34976962 0 4715.38553775 0 -201.89894810 0 -850.36759252 0 16407
0.12450000 0.12449800 14388.37015519 0 493.08126090 0 4935.62360752 0 -590.99856942 0 -793.54160681 0 16306
0.12550000 0.12549900 13978.98565557 0 755.01315236 0 5098.29830490 0 -234.76323865 0 -591.71235074 0 17523
0.12650000 0.12650100 13241.48656111 0 540.82704895 0 5309.30780042 0 267.14080901 0 -580.15134146 0 17154
0.12750000 0.12750600 12874.81653426 0 441.55749014 0 4673.04200644 0 433.48782699 0 -304.26418212 0 18007
0.12850000 0.12850300 12506.34800330 0 192.71308833 0 4509.09711553 0 988.28700479 0 -1201.01856800 0 17496
0.12950000 0.12949900 12471.61439254 0 46.96467523 0 4218.58249739 0 762.11387143 0 -212.63264549 0 18405
0.13050000 0.13049000 12348.07964101 0 -41.55162746 0 3567.89494852 0 623.96290175 0 -479.25638457 0 18100
0.13150000 0.13148800 12343.47097421 0 -33.10843748 0 3590.94952317 0 358.61834873 0 482.66792206 0 19059
0.13250000 0.13249300 12447.44699347 0 22.34045611 0 3361.31426939 0 495.59579447 0 303.55264893 0 18957
0.13350000 0.13349100 12329.75738032 0 127.53642319 0 3199.75239643 0 449.75754485 0 770.14306825 0 19468
0.13450000 0.13450700 12180.25672559 0 215.36974394 0 3123.84428205 0 374.87795001 0 673.65557050 0 19953
0.13550000 0.13551000 11868.77829384 0 259.91981498 0 2707.78283589 0 346.88872969 0 707.28872156 0 19956
0.13650000 0.13649900 11855.85154550 0 18.46310605 0 2765.63846520 0 99.95984716 0 1164.16047426 0 19723
0.13750000 0.13749600 11895.75585559 0 -49.85363487 0 2693.30487775 0 47.73881884 0 644.48158560 0 20946
0.13850000 0.13851100 12046.38057539 0 -175.13383465 0 2638.19196721 0 312.33721747 0 1237.11229750 0 20955
0.13950000 0.13949800 12230.39002785 0 -199.07529664 0 2772.61890931 0 354.70098195 0 1434.37447718 0 20506
0.14050000 0.14048300 12352.35108829 0 -65.13709804 0 2419.26905358 0 314.92256714 0 1830.94463497 0 21447
0.14150000 0.14148400 12353.25034034 0 243.22969678 0 2539.90371722 0 263.27852142 0 1583.34682132 0 21771
0.14250000 0.14249400 12087.85857659 0 301.56755001 0 2685.40270028 0 23.51667780 0 1565.94629399 0 22470
0.14350000 0.14350900 11877.77081442 0 402.89639602 0 2483.12719038 0 -304.74078571 0 1771.47035195 0 22519
0.14450000 0.14449900 11526.95010511 0 248.38915546 0 2231.51646442 0 54.25041540 0 1163.50851651 0 22218
0.14550000 0.14550500 11347.43691294 0 112.24486675 0 2296.89208907 0 104.64056653 0 899.53869507 0 23559
0.14650000 0.14650700 11208.31137884 0 101.86019157 0 2048.06904449 0 232.50386785 0 468.74974833 0 23044
0.14750000 0.14750500 10980.49711047 0 116.19235848 0 1889.09252120 0 403.65064368 0 263.59550777 0 23649
0.14850000 0.14849900 10883.80503289 0 336.96773135 0 1754.58689455 0 -149.47480123 0 32.03933919 0 23640
0.14950000 0.14949500 10636.26342249 0 418.08925955 0 1990.78668836 0 -260.85054086 0 350.89264948 0 24457
0.15050000 0.15050000 10234.34271495 0 372.06666326 0 2277.85042673 0 -262.76257555 0 798.65497883 0 24591
0.15150000 0.15149900 10218.34726896 0 235.38035037 0 2793.71761073 0 -305.81651598 0 1445.16550188 0 25020
0.15250000 0.15250500 10047.71419086 0 149.48604188 0 3022.56601896 0 269.74189559 0 1551.07491307 0 25297
0.15350000 0.15350100 9999.05341385 0 54.58077813 0 3071.57525615 0 487.35414935 0 1927.33321499 0 25452
0.15450000 0.15450400 9928.88927199 0 133.68618321 0 2726.94814539 0 411.38758358 0 2192.07302100 0 26061
0.15550000 0.15549900 9940.63575200 0 80.02837491 0 2824.29218072 0 606.41287377 0 2151.68536293 0 26128
0.15650000 0.15649500 9729.55881257 0 91.25014135 0 2024.16018038 0 395.81028980 0 2253.42449269 0 26331
0.15750000 0.15749700 9553.87868230 0 137.98460805 0 2133.71156241 0 127.60386710 0 1563.42838822 0 27345
0.15850000 0.15849900 9540.27749491 0 89.15701978 0 1916.98057566 0 -348.38261217 0 1475.36913039 0 26980
0.15950000 0.15949700 9338.10315087 0 162.30600403 0 2415.52591688 0 -275.07446030 0 1252.39958249 0 27777
0.16050000 0.16050000 9335.69765161 0 125.46926752 0 2011.57065156 0 -423.05088278 0 842.08997732 0 28224
0.16150000 0.16150500 9222.02095077 0 121.50244188 0 2183.12546302 0 -74.66613489 0 586.65293385 0 28075
0.16250000 0.16249700 9077.99449295 0 159.11253516 0 2205.19086041 0 129.59571041 0 548.93155812 0 28590
0.16350000 0.16349900 8880.40633440 0 114.55459566 0 1985.18884430 0 433.97679529 0 297.23540321 0 29163
0.16450000 0.16449100 8920.98508354 0 -25.15455302 0 1882.68535028 0 501.19251447 0 504.06899699 0 28996
0.16550000 0.16550500 8764.68383513 0 101.60030773 0 1594.49754684 0 150.31672597 0 238.01965516 0 30777
0.16650000 0.16650700 8819.08858466 0 154.32176982 0 1890.27278953 0 -70.26598216 0 451.06033627 0 29211
0.16750000 0.16749900 8570.15313358 0 182.32785112 0 1960.61678180 0 -325.04027686 0 634.48077864 0 30922
0.16850000 0.16850800 8519.18802316 0 259.73996457 0 2130.23820133 0 -333.48874995 0 781.08471767 0 30867
0.16950000 0.16949900 8447.60755931 0 195.36588190 0 2492.28832073 0 -310.65111986 0 1069.82780926 0 30852
0.17050000 0.17049200 8357.90716647 0 46.58294273 0 2820.47035947 0 2.37215949 0 870.62886546 0 31257
0.17150000 0.17149500 8420.25905608 0 -10.33962265 0 2528.61810389 0 87.65549365 0 1137.94727675 0 32608
0.17250000 0.17250900 8448.38316421 0 -36.44342614 0 2825.88835312 0 277.65194151 0 1262.76346247 0 32361
0.17350000 0.17350400 8429.63375879 0 2.92310874 0 2346.90174417 0 310.99958003 0 956.38041769 0 32508
0.17450000 0.17449800 8450.11422442 0 11.38217052 0 2523.13266633 0 259.88834116 0 832.47584875 0 32791
0.17550000 0.17549800 8420.15789022 0 63.26418082 0 2015.76341429 0 -89.60136270 0 516.14370401 0 33633
0.17650000 0.17650100 8367.78769847 0 75.06124376 0 2240.08184027 0 -131.11432232 0 524.43705611 0 33984
0.17750000 0.17750300 8334.81886987 0 127.65782222 0 2048.52991117 0 -310.34649823 0 302.00818351 0 34069
0.17850000 0.17849800 8174.72952216 0 150.54266304 0 2181.66417843 0 -24.80901542 0 248.21155318 0 34536
