### header ###
fiducial parameters:
Omega_m = 0.31
Omega_nu = 0
Omega_de = 0.69
Omega_k = 0
H_0 = 100
w_de = -1
zeff = 0
beta = 0
fgrowth = 0
b_1 = 2
gamma = 0.55
Lx = 3500 Ly = 3500 Lz = 3500
nx = 700 ny = 700 nz = 700
xoffset = 857.220397 yoffset = 15.9954215 zoffset = 262.898189
bins = 400 dk = 0.001
kx_ny = 0.628318531 ky_ny = 0.628318531 kz_ny = 0.628318531
############################
A(data) = 3.08597297 (not used)
A(ran) = 3.08761048 (used)
Ngal = 188051
weighted Ngal = 0
Nran = 9360983
weighted Nran = 0
SN(data) = 3437.73356
SN(ran) = 69.3361277
SN(data+ran) = 3507.06969
############################
13 columns: k_central k_mean P_0(k) sigma^{lin}_{P_0(k)} P^img_1(k) sigma^{lin}_{P_1(k)} P_2(k) sigma^{lin}_{P_2(k)} P^img_3(k) sigma^{lin}_{P_3(k)} P_4(k) sigma^{lin}_{P_4(k)} N_modes
### header ###
0.00050000 0 0 0 0 0 0 0 0 0 0 0 0
0.00150000 0.00179520 15649.90838673 0 -28579.46689005 0 -21886.10900578 0 44123.60075340 0 -2735.72709361 0 3
0.00250000 0.00253879 30826.58537768 0 -31690.99141890 0 -5845.21706467 0 -27015.21793433 0 8859.20646712 0 6
0.00350000 0.00331552 45559.25666477 0 -24253.61486274 0 -17282.72531191 0 -17761.23981353 0 -13907.04549089 0 7
0.00450000 0.00420575 60067.11493723 0 -14021.13809581 0 -11200.33051682 0 -28230.78190438 0 13342.31519816 0 24
0.00550000 0.00557378 59236.20603519 0 7931.51556229 0 -6094.68082634 0 -33747.01884410 0 23789.93802008 0 45
0.00650000 0.00659388 73769.91780433 0 -435.46842964 0 6551.17489318 0 -4996.53669383 0 26624.71772793 0 40
0.00750000 0.00754703 62943.48505278 0 -9810.73879215 0 -371.52261577 0 10337.25087239 0 7866.25234415 0 57
0.00850000 0.00846663 90012.20848459 0 -26371.46586696 0 -556.57182842 0 20587.02700080 0 18187.03566322 0 75
0.00950000 0.00948925 106381.96814413 0 -29095.63757162 0 -14904.54083676 0 22809.97808936 0 9734.24616393 0 112
0.01050000 0.01054430 139044.60141221 0 -16054.45940654 0 -20325.56946479 0 9237.08342275 0 -2212.98063136 0 105
0.01150000 0.01145670 131190.75874647 0 6703.15973171 0 -16498.91473644 0 -6350.75409065 0 24303.07372595 0 144
0.01250000 0.01249090 122274.67458665 0 20731.01973666 0 -19546.70477564 0 -3318.85833158 0 23550.73697253 0 169
0.01350000 0.01339930 100529.97296707 0 20661.55251514 0 1307.75978734 0 -9003.43525665 0 36899.79656113 0 180
0.01450000 0.01448870 75994.10536448 0 16908.29923606 0 -9474.98055482 0 -3329.80672539 0 24015.76269327 0 267
0.01550000 0.01550050 67836.09068995 0 8668.67743723 0 -3725.74740674 0 -193.85176625 0 -9117.05575424 0 238
0.01650000 0.01653350 58606.27996823 0 1430.33908357 0 -2755.53312020 0 -18997.71139394 0 13949.42274415 0 315
0.01750000 0.01747870 66912.44641939 0 -5303.83360351 0 8124.62994185 0 -14956.92226916 0 -4096.23925483 0 297
0.01850000 0.01844180 70007.67200467 0 -3762.57177853 0 9984.64289961 0 -16165.17981624 0 5691.11898380 0 388
0.01950000 0.01947590 75153.30468980 0 -4046.26332168 0 21810.34701985 0 -3450.20533537 0 -1493.99488866 0 399
0.02050000 0.02045430 78183.10968783 0 -898.09764365 0 26252.53978223 0 -4010.66418082 0 -5796.56752831 0 462
0.02150000 0.02154770 81424.68854563 0 3393.60865894 0 30015.68483395 0 2165.89354545 0 4297.40194031 0 571
0.02250000 0.02255340 77683.46276284 0 680.27181752 0 28058.12550915 0 15590.89497039 0 4215.48007779 0 510
0.02350000 0.02348930 77030.94298790 0 10.79584694 0 29582.47015478 0 12840.19533001 0 17744.49124394 0 555
0.02450000 0.02439640 75812.11922914 0 -451.29526587 0 16190.35887388 0 12992.16892789 0 3170.31313217 0 592
0.02550000 0.02547300 73205.29991812 0 2974.42231188 0 14211.44231268 0 4087.52775052 0 5918.14640661 0 837
0.02650000 0.02652900 71330.24696968 0 5848.24079972 0 9841.20095563 0 -7252.49033294 0 -3885.17355606 0 723
0.02750000 0.02749970 67545.18264903 0 5300.67498066 0 15990.38769737 0 -10287.57843681 0 1867.30814008 0 826
0.02850000 0.02848090 63503.49427220 0 3797.33911124 0 15492.76408951 0 -9999.13209840 0 -10953.83428694 0 831
0.02950000 0.02946900 61531.20969494 0 1797.85215922 0 20847.24806522 0 -925.47537257 0 -8688.64083293 0 996
0.03050000 0.03053250 60401.74910949 0 1232.63851851 0 18358.45558687 0 6311.62538545 0 -6609.48014852 0 1041
0.03150000 0.03150510 58715.65149984 0 1838.52083356 0 23500.60367027 0 11713.32009423 0 -4782.27865025 0 1036
0.03250000 0.03246190 59092.32570584 0 954.98882513 0 11558.64874017 0 9486.16500230 0 4309.91278458 0 1059
0.03350000 0.03345080 55048.38919885 0 1215.33915703 0 10954.20522841 0 11074.27785952 0 -691.24381670 0 1302
0.03450000 0.03451200 55181.81572303 0 1983.32289628 0 9363.76555649 0 2420.79778208 0 13360.74986536 0 1339
0.03550000 0.03553350 51693.72939470 0 2118.84018149 0 7588.19236702 0 2361.49210882 0 10252.21534961 0 1365
0.03650000 0.03647120 50228.84779143 0 2605.43671098 0 13030.16232736 0 -2011.30087595 0 12694.62890304 0 1308
0.03750000 0.03744890 48034.11073621 0 1914.44018860 0 7493.57980982 0 1645.12543773 0 8952.97597552 0 1579
0.03850000 0.03847530 46304.62421474 0 417.84308930 0 6441.09520057 0 4574.04559545 0 7115.93890786 0 1662
0.03950000 0.03950240 45375.24721230 0 -92.98288766 0 3878.06946479 0 1536.65315818 0 3447.81107676 0 1683
0.04050000 0.04050350 45148.07366103 0 682.15237839 0 2932.09002123 0 -1961.58347776 0 -890.12465009 0 1822
0.04150000 0.04152450 45343.21135772 0 474.72752639 0 7256.05361922 0 -3635.69855373 0 1425.92150783 0 1887
0.04250000 0.04250150 44611.55740164 0 1488.19471288 0 6904.10884483 0 -4414.93418436 0 2838.27555023 0 1920
0.04350000 0.04349210 43072.59991006 0 1781.76678802 0 11235.71608532 0 -3870.78552312 0 4931.85798952 0 2005
0.04450000 0.04448520 43764.68677556 0 391.87044172 0 13231.25756894 0 2320.67730602 0 9620.59194439 0 2151
0.04550000 0.04548030 42743.81087617 0 -1128.32527973 0 13603.77273417 0 5380.53980410 0 9421.20528172 0 2274
0.04650000 0.04648670 45149.42253911 0 -2439.64835335 0 14736.60551484 0 7093.92971373 0 12197.56732772 0 2311
0.04750000 0.04749250 46379.37454210 0 -1017.78022418 0 9908.72354457 0 5945.01156186 0 9748.46558710 0 2568
0.04850000 0.04851840 46542.70119722 0 164.52153629 0 9012.02311381 0 2984.12299346 0 10107.15475193 0 2493
0.04950000 0.04949480 43528.29589069 0 2505.46236338 0 3883.16147958 0 373.73589989 0 8338.04493663 0 2644
0.05050000 0.05050630 43035.28094963 0 2194.62464872 0 5691.75970089 0 700.89391535 0 8996.29744344 0 2829
0.05150000 0.05149060 39100.26634823 0 1449.95401909 0 2001.28545615 0 -171.97296366 0 5130.58145380 0 2784
0.05250000 0.05249300 38809.92033985 0 1494.08481386 0 4824.71210676 0 502.31995174 0 5165.98950360 0 3055
0.05350000 0.05348950 38054.99823676 0 1312.46962000 0 3874.70851023 0 -1336.60329712 0 1551.96292448 0 3009
0.05450000 0.05448610 37117.86518531 0 2191.11756569 0 6583.42432013 0 -2408.73656384 0 6639.27911361 0 3336
0.05550000 0.05550870 34877.37868161 0 1340.39139642 0 6889.27118587 0 -1892.46471642 0 4443.89010064 0 3349
0.05650000 0.05647670 35505.16902494 0 244.32341209 0 12260.96459784 0 -1403.84486979 0 7763.25426150 0 3324
0.05750000 0.05747970 35971.76843678 0 -240.50608711 0 9951.34809215 0 -1392.41312800 0 3071.96867892 0 3639
0.05850000 0.05849280 35347.01306915 0 -5.55166747 0 14106.11741534 0 -2298.88168425 0 1337.01920120 0 3846
0.05950000 0.05951020 36727.92701146 0 34.44877267 0 12595.14914408 0 -3031.13139482 0 491.64020948 0 3787
0.06050000 0.06049470 35663.66220024 0 195.54348418 0 15213.20910583 0 -2179.29240112 0 -1228.31086798 0 3930
0.06150000 0.06148310 36217.71387478 0 1293.12446009 0 14490.99729636 0 -2065.71686614 0 -2810.28632991 0 4083
0.06250000 0.06249100 35022.27066953 0 903.11996640 0 14985.58592853 0 141.87836946 0 -4478.70239595 0 4303
0.06350000 0.06350600 33310.76918923 0 1893.98220427 0 13200.90781197 0 776.60419429 0 -5310.06092402 0 4470
0.06450000 0.06451750 32039.00196553 0 1460.52023078 0 14481.10552372 0 650.61448464 0 -4953.13654136 0 4479
0.06550000 0.06550280 30902.23495710 0 1454.58516719 0 12196.66807566 0 787.15579313 0 -7115.84898265 0 4636
0.06650000 0.06648880 29362.60302648 0 1643.05715800 0 14280.79712769 0 313.69283995 0 -5482.32389647 0 4653
0.06750000 0.06749660 28360.72382683 0 807.57668331 0 12684.62472389 0 -125.87505502 0 -4276.83154948 0 5220
0.06850000 0.06852730 28052.05555775 0 92.14826934 0 15029.64927939 0 925.44951907 0 -1184.21379516 0 5029
0.06950000 0.06949320 28235.27816467 0 -359.56368745 0 13120.08753321 0 2803.56442077 0 711.46687143 0 5040
0.07050000 0.07048030 29148.69344307 0 -469.35449534 0 15245.80699295 0 2481.20503911 0 1766.50198433 0 5475
0.07150000 0.07148790 29662.84080751 0 -367.69967045 0 13915.25116592 0 3091.84214942 0 2555.84295996 0 5509
0.07250000 0.07249820 29590.11379728 0 179.06019395 0 13626.25403563 0 2562.08152111 0 4238.29859877 0 5916
0.07350000 0.07351270 29441.17517509 0 93.21894133 0 12720.93202576 0 1961.26873954 0 4573.05641819 0 5721
0.07450000 0.07449140 28804.61712419 0 92.18086723 0 10054.48106260 0 1596.37473551 0 3544.82913322 0 6028
0.07550000 0.07549160 28747.96424451 0 -191.18548389 0 9702.57001017 0 1258.59318105 0 3616.69061335 0 6183
0.07650000 0.07648840 28510.78651409 0 202.38117202 0 7649.57756066 0 1044.11931697 0 826.78245915 0 6330
0.07750000 0.07749960 28022.49264633 0 472.32315120 0 8374.83558647 0 551.93618406 0 1043.59999891 0 6583
0.07850000 0.07848650 27413.58659623 0 952.53499107 0 6491.19478088 0 -308.55136631 0 -190.40538273 0 6549
0.07950000 0.07947320 26753.42317880 0 1068.29795669 0 9300.17719530 0 -1766.88416645 0 217.22894757 0 6828
0.08050000 0.08048110 25879.91221050 0 1333.43343361 0 9033.81873558 0 -1592.71028338 0 -813.84896642 0 7147
0.08150000 0.08149960 25287.97954300 0 1371.80901521 0 12268.04620780 0 -2905.46091965 0 2523.96447449 0 7386
0.08250000 0.08250610 24563.29479038 0 1235.49364380 0 12711.60228565 0 -1118.70890303 0 1501.99823198 0 7227
0.08350000 0.08350160 23529.60454915 0 673.71739408 0 13547.56948051 0 87.97360407 0 2215.13883630 0 7798
0.08450000 0.08449610 23415.62435074 0 255.51910022 0 13326.69069365 0 2623.15197654 0 1381.03758946 0 7371
0.08550000 0.08548940 23146.29835923 0 -247.63490780 0 11257.28689407 0 3551.55104236 0 1661.62671301 0 8256
0.08650000 0.08650700 22872.25129441 0 -52.15324720 0 8761.78374724 0 3451.53173216 0 678.29683519 0 8037
0.08750000 0.08749060 22682.39670356 0 -75.37429588 0 6494.49953219 0 2264.05814828 0 185.06944583 0 8155
0.08850000 0.08849210 22313.70335958 0 307.66560303 0 6012.37678169 0 593.39957241 0 68.78558846 0 8718
0.08950000 0.08949900 22054.04432770 0 431.50047994 0 5356.01270421 0 -982.15073356 0 -501.53310619 0 8571
0.09050000 0.09049190 21403.54786989 0 881.35694252 0 6007.79059619 0 -2103.14823307 0 -521.58755115 0 8932
0.09150000 0.09150830 20903.00169284 0 849.87637608 0 6815.19529755 0 -1450.93195571 0 79.56863230 0 9285
0.09250000 0.09250820 20242.16383637 0 588.36263682 0 7876.90848104 0 -616.78687033 0 -64.05754595 0 9204
0.09350000 0.09350330 20232.15965722 0 346.01870332 0 9029.44612244 0 849.07941394 0 1027.22461892 0 9349
0.09450000 0.09448040 20187.75908683 0 -15.16543634 0 8373.70028075 0 700.95236674 0 -611.02940902 0 9564
0.09550000 0.09549270 20354.79515669 0 87.92830425 0 9109.87297842 0 467.12322617 0 -114.48377956 0 10155
0.09650000 0.09649430 19868.41219956 0 75.25862959 0 8096.67444349 0 479.55875807 0 -599.43355373 0 9913
0.09750000 0.09749140 19759.71510699 0 514.79932218 0 8597.10821403 0 -325.56409119 0 -865.82910760 0 10476
0.09850000 0.09850240 19300.19730511 0 507.82674653 0 7946.57803427 0 -378.76833923 0 -2105.01418109 0 10575
0.09950000 0.09950330 18667.57348197 0 759.48131103 0 7948.34281644 0 -202.06306161 0 -2645.74568451 0 10882
0.10050000 0.10051200 18006.28599947 0 546.01460926 0 7812.20729544 0 221.42058623 0 -2780.41992091 0 10875
0.10150000 0.10150300 17620.50686638 0 380.62192253 0 7676.93730454 0 373.05584053 0 -2472.66214455 0 11118
0.10250000 0.10250800 17378.27084313 0 44.85334380 0 7400.77699738 0 949.51238009 0 -2134.23987299 0 11575
0.10350000 0.10349800 17318.92020727 0 -2.60489716 0 7311.57119318 0 1269.94623829 0 -1227.23176551 0 11364
0.10450000 0.10450100 17421.65975495 0 -117.70422600 0 6820.27607168 0 1125.60504225 0 129.72947415 0 12093
0.10550000 0.10551000 17492.02622852 0 17.65085662 0 6531.94213978 0 1669.56261242 0 592.82180297 0 12067
0.10650000 0.10649700 17482.47167540 0 -27.15864864 0 6143.79122939 0 1070.00541154 0 1927.50182475 0 12054
0.10750000 0.10749900 16944.71894443 0 325.82712241 0 6032.98089448 0 648.52035140 0 1381.17247727 0 12807
0.10850000 0.10850100 16961.24270101 0 474.40154752 0 5597.88902664 0 574.75245692 0 1496.04068709 0 12736
0.10950000 0.10950300 16382.46159487 0 730.48492840 0 5638.51273838 0 -445.11852830 0 1266.01201053 0 12933
0.11050000 0.11050200 15899.00120693 0 716.22279076 0 5248.50712062 0 -641.71975771 0 1673.26078651 0 13428
0.11150000 0.11150900 15344.72471938 0 427.53477836 0 6243.29346966 0 -373.69543355 0 1896.76988565 0 13453
0.11250000 0.11250000 15057.63849971 0 282.09874294 0 5333.86862227 0 24.86915290 0 876.78087360 0 13668
0.11350000 0.11349100 14911.73485323 0 85.75042817 0 6142.89197733 0 -3.18902882 0 1142.39857444 0 13791
0.11450000 0.11448600 14966.81404181 0 76.32671622 0 6132.95524208 0 -519.22027011 0 1007.86934243 0 14205
0.11550000 0.11549300 15060.78588192 0 89.76120475 0 6940.80956947 0 -443.48975801 0 751.49370462 0 14776
0.11650000 0.11649800 15010.98979918 0 145.65635217 0 6877.97433188 0 -607.01312451 0 1156.17961224 0 14553
0.11750000 0.11747300 14927.80898377 0 -20.78576171 0 7037.81638528 0 -21.84373175 0 880.97700852 0 14568
0.11850000 0.11849100 14983.33779838 0 108.89301711 0 7140.92687443 0 661.67191276 0 206.96286126 0 16015
0.11950000 0.11950300 14919.15368271 0 235.02739394 0 6368.46935620 0 833.68646683 0 166.48865017 0 15270
0.12050000 0.12050700 14464.91898667 0 200.83333442 0 5943.31422360 0 959.90773389 0 -379.93736690 0 15999
0.12150000 0.12150000 14294.17350206 0 181.93105615 0 5018.86062618 0 918.65229758 0 408.60664659 0 15670
0.12250000 0.12250700 14305.41415280 0 1.79662693 0 5250.68780686 0 636.70193123 0 -181.42859906 0 16887
0.12350000 0.12352200 14232.46232955 0 -31.78586251 0 4184.32099396 0 774.06043503 0 -416.72914081 0 16407
0.12450000 0.12449800 14185.36400299 0 178.59595507 0 4525.03635827 0 132.45308382 0 -132.28897032 0 16306
0.12550000 0.12549900 14037.32463286 0 343.70650147 0 4311.95858301 0 -447.51503503 0 -608.19002065 0 17523
0.12650000 0.12650100 13661.77449194 0 477.48935427 0 5501.47796532 0 -668.61301459 0 305.80077907 0 17154
0.12750000 0.12750600 13414.92980189 0 322.16379434 0 5094.12802348 0 -96.81313940 0 285.39112954 0 18007
0.12850000 0.12850300 13243.50987824 0 137.56308365 0 5499.74690510 0 -18.54707371 0 106.09926578 0 17496
0.12950000 0.12949900 13196.29914517 0 -63.23720326 0 5706.33882489 0 454.00538676 0 162.04522094 0 18405
0.13050000 0.13049000 13227.88537372 0 16.97934015 0 5636.82664077 0 323.04168916 0 -96.75569967 0 18100
0.13150000 0.13148800 13261.38251290 0 48.90683486 0 5486.30308683 0 233.59983130 0 687.81766636 0 19059
0.13250000 0.13249300 13106.37393932 0 137.71483243 0 5143.14850131 0 423.04076620 0 36.71072882 0 18957
0.13350000 0.13349100 13117.61459005 0 79.37079684 0 4834.00812491 0 340.41636300 0 227.25673209 0 19468
0.13450000 0.13450700 12951.02814622 0 214.19846813 0 4861.59268180 0 569.77959303 0 268.15134351 0 19953
0.13550000 0.13551000 12582.78442827 0 200.03412415 0 4284.85737410 0 515.44003927 0 285.05053782 0 19956
0.13650000 0.13649900 12504.54949918 0 85.32631841 0 3656.01040960 0 839.63164700 0 294.86025372 0 19723
0.13750000 0.13749600 12340.09877899 0 -0.97775339 0 2897.39013242 0 860.13571800 0 -492.78113553 0 20946
0.13850000 0.13851100 12309.86142852 0 21.57935165 0 2888.35264923 0 383.83899677 0 301.26068024 0 20955
0.13950000 0.13949800 12181.60560368 0 297.68840144 0 2693.99055744 0 101.51701451 0 -433.14835933 0 20506
0.14050000 0.14048300 11833.48265054 0 519.07976198 0 2576.55947926 0 -257.87401655 0 343.08601755 0 21447
0.14150000 0.14148400 11385.09309288 0 606.71974353 0 2965.28366284 0 -559.64502233 0 159.42502525 0 21771
0.14250000 0.14249400 11004.67575020 0 460.14390613 0 3515.97438280 0 -250.66538724 0 744.24685709 0 22470
0.14350000 0.14350900 10740.98132470 0 217.14576676 0 3752.12921400 0 -126.75744610 0 394.81998847 0 22519
0.14450000 0.14449900 10674.76265124 0 81.90354027 0 3900.42711910 0 320.82840503 0 874.70584948 0 22218
0.14550000 0.14550500 10697.31139661 0 36.68004184 0 3666.95880342 0 125.50298948 0 986.71780995 0 23559
0.14650000 0.14650700 10608.15055501 0 81.33420131 0 3857.28550159 0 419.14812885 0 660.78277729 0 23044
0.14750000 0.14750500 10593.58267166 0 53.50976893 0 3450.48635164 0 243.01724848 0 1291.07866166 0 23649
0.14850000 0.14849900 10387.94620719 0 138.70063750 0 3340.49658424 0 215.30005191 0 875.09140380 0 23640
0.14950000 0.14949500 10335.80082845 0 171.60427032 0 3310.10186466 0 81.04025829 0 1250.09524909 0 24457
0.15050000 0.15050000 10160.34551119 0 181.04641693 0 3297.10767241 0 71.68455228 0 1088.16355873 0 24591
0.15150000 0.15149900 10183.20899477 0 123.82925658 0 3151.74357716 0 88.79855543 0 1176.70504047 0 25020
0.15250000 0.15250500 10002.08838955 0 37.50634207 0 3044.21551227 0 -61.78086455 0 1055.08344769 0 25297
0.15350000 0.15350100 9977.83106527 0 16.67022225 0 3087.53698019 0 80.41932474 0 461.11509835 0 25452
0.15450000 0.15450400 9979.69701329 0 26.67383937 0 3019.90198474 0 67.72716878 0 389.63580035 0 26061
0.15550000 0.15549900 9916.24353991 0 100.85628906 0 2808.81380466 0 5.45445832 0 -16.20463450 0 26128
0.15650000 0.15649500 9851.34002259 0 187.38951614 0 2543.79298238 0 -79.44082610 0 -210.38788754 0 26331
0.15750000 0.15749700 9707.70698755 0 167.97466420 0 2655.60373520 0 57.76536689 0 -506.69706113 0 27345
0.15850000 0.15849900 9487.07549500 0 194.21821146 0 2622.28644643 0 -89.51761985 0 -615.74373794 0 26980
0.15950000 0.15949700 9430.09663645 0 109.98662002 0 2778.26171597 0 -44.16372988 0 -509.60052121 0 27777
0.16050000 0.16050000 9489.17749669 0 33.20555670 0 2647.09456259 0 -139.07045491 0 -288.25524735 0 28224
0.16150000 0.16150500 9472.97971899 0 -28.93916771 0 2843.64858128 0 25.04012319 0 -327.80660101 0 28075
0.16250000 0.16249700 9569.60435267 0 -53.88262131 0 2882.96837753 0 -28.35094446 0 -629.37302695 0 28590
0.16350000 0.16349900 9521.73042121 0 8.87214446 0 2835.97121683 0 272.17999274 0 63.06544611 0 29163
0.16450000 0.16449100 9520.88737240 0 140.72845089 0 2776.29460210 0 233.19516787 0 -180.06848032 0 28996
0.16550000 0.16550500 9276.81912308 0 248.91746605 0 2435.79281015 0 230.88858634 0 -241.11982664 0 30777
0.16650000 0.16650700 9128.01538870 0 232.06997873 0 2674.53299103 0 419.87877115 0 -301.93174709 0 29211
0.16750000 0.16749900 8846.08862772 0 179.37718030 0 2205.05597260 0 42.59835686 0 -19.09179564 0 30922
0.16850000 0.16850800 8691.06881349 0 69.97462449 0 2119.52586118 0 230.62555511 0 -334.18229810 0 30867
0.16950000 0.16949900 8661.59582727 0 52.70920978 0 2165.47764137 0 27.11694582 0 -149.35565033 0 30852
0.17050000 0.17049200 8691.75449318 0 84.29600037 0 2193.93896902 0 -37.03007570 0 -258.59791446 0 31257
0.17150000 0.17149500 8741.24707835 0 74.20931484 0 2175.58298638 0 84.93817874 0 -158.73260117 0 32608
0.17250000 0.17250900 8594.56782696 0 159.85779031 0 2113.12993092 0 123.43021348 0 222.74361082 0 32361
0.17350000 0.17350400 8463.86154026 0 174.30877089 0 2333.06450312 0 -32.03113351 0 78.52156568 0 32508
0.17450000 0.17449800 8370.89011807 0 128.65599201 0 2341.89965460 0 -0.12830528 0 552.21382814 0 32791
0.17550000 0.17549800 8352.20815655 0 149.65352757 0 2457.34113760 0 77.13199644 0 305.97276103 0 33633
0.17650000 0.17650100 8261.67595557 0 125.18712719 0 2367.24732199 0 4.92132550 0 926.01155161 0 33984
0.17750000 0.17750300 8075.13735668 0 96.68803095 0 2146.19992537 0 294.65117761 0 410.12525851 0 34069
0.17850000 0.17849800 8117.21111237 0 32.23829870 0 2315.12442455 0 392.37851913 0 1153.24580240 0 34536
