### header ###
fiducial parameters:
Omega_m = 0.31
Omega_nu = 0
Omega_de = 0.69
Omega_k = 0
H_0 = 100
w_de = -1
zeff = 0
beta = 0
fgrowth = 0
b_1 = 2
gamma = 0.55
Lx = 3500 Ly = 3500 Lz = 3500
nx = 700 ny = 700 nz = 700
xoffset = 857.220397 yoffset = 15.9954215 zoffset = 262.898189
bins = 400 dk = 0.001
kx_ny = 0.628318531 ky_ny = 0.628318531 kz_ny = 0.628318531
############################
A(data) = 3.08800591 (not used)
A(ran) = 3.08642148 (used)
Ngal = 188561
weighted Ngal = 0
Nran = 9360983
weighted Nran = 0
SN(data) = 3453.38671
SN(ran) = 69.3094271
SN(data+ran) = 3522.69614
############################
13 columns: k_central k_mean P_0(k) sigma^{lin}_{P_0(k)} P^img_1(k) sigma^{lin}_{P_1(k)} P_2(k) sigma^{lin}_{P_2(k)} P^img_3(k) sigma^{lin}_{P_3(k)} P_4(k) sigma^{lin}_{P_4(k)} N_modes
### header ###
0.00050000 0 0 0 0 0 0 0 0 0 0 0 0
0.00150000 0.00179520 4183.37677930 0 -14549.11146064 0 -9180.03712029 0 11994.67358203 0 -8030.17475376 0 3
0.00250000 0.00253879 14460.42272638 0 -23234.08784144 0 -15311.67720623 0 3967.20782509 0 4314.25167576 0 6
0.00350000 0.00331552 27164.83099556 0 -27107.05405080 0 -19604.14450088 0 -9419.27188979 0 -13351.86975129 0 7
0.00450000 0.00420575 46286.41436055 0 -28012.48846718 0 -31908.61041705 0 -4503.45430886 0 -638.70276706 0 24
0.00550000 0.00557378 65789.73022437 0 -18700.73340163 0 -45334.10643062 0 -17403.89952679 0 -105.23654583 0 45
0.00650000 0.00659388 83111.91022035 0 -7855.13534058 0 -23736.76974213 0 -42239.33047137 0 -4294.88403455 0 40
0.00750000 0.00754703 78253.70097442 0 1142.66835006 0 -22878.54605882 0 -42253.49369129 0 -8663.54045985 0 57
0.00850000 0.00846663 80242.50930825 0 8799.05774506 0 -3737.13418593 0 -43043.93625069 0 -10496.77818757 0 75
0.00950000 0.00948925 73313.43497815 0 10988.54541640 0 1413.30949771 0 -45190.78813380 0 -10794.11588070 0 112
0.01050000 0.01054430 68411.49960087 0 7649.80237367 0 39765.60046500 0 -35173.68223488 0 -29461.63315942 0 105
0.01150000 0.01145670 70493.60533577 0 481.18303210 0 36787.05283430 0 -27677.06744937 0 -27047.36619542 0 144
0.01250000 0.01249090 75972.07368904 0 -5229.98252821 0 46487.62200864 0 -11242.67404812 0 -56305.54357661 0 169
0.01350000 0.01339930 80709.22112660 0 -1007.54561169 0 41626.93981954 0 -13058.26395419 0 -67260.00733999 0 180
0.01450000 0.01448870 83113.70872447 0 -4141.19061711 0 42172.22378650 0 -9804.16301147 0 -63023.74329900 0 267
0.01550000 0.01550050 91714.26781827 0 846.37266525 0 15165.99837276 0 10979.68778362 0 -74088.92747208 0 238
0.01650000 0.01653350 82554.26153759 0 1715.67176172 0 21690.52168306 0 -93.87865512 0 -62527.35616272 0 315
0.01750000 0.01747870 81064.98772224 0 347.83406842 0 4721.99504038 0 12908.98811248 0 -72637.42224319 0 297
0.01850000 0.01844180 79942.72115326 0 133.30062889 0 17015.87226356 0 3227.53928504 0 -63106.69930139 0 388
0.01950000 0.01947590 80768.68416897 0 755.83259580 0 -8712.83071330 0 1413.37694161 0 -50005.04643538 0 399
0.02050000 0.02045430 77002.27932854 0 229.41943329 0 -1644.50720194 0 -1517.61149584 0 -42395.01348399 0 462
0.02150000 0.02154770 74940.85639098 0 1792.92875420 0 -7142.87150701 0 -80.21283399 0 -32455.91770114 0 571
0.02250000 0.02255340 73967.52844418 0 335.55590562 0 -7024.29388245 0 3566.25381352 0 -30950.45734874 0 510
0.02350000 0.02348930 73070.74932887 0 -3404.53457145 0 -14230.43901242 0 8331.06449253 0 -21860.25550910 0 555
0.02450000 0.02439640 73144.48799766 0 -1184.23627646 0 -11851.01806568 0 -666.04902215 0 -34707.98207510 0 592
0.02550000 0.02547300 74851.71803068 0 203.48500392 0 -8036.15477995 0 -12344.48263277 0 -31376.47801144 0 837
0.02650000 0.02652900 74455.59749892 0 4207.42053121 0 984.02117784 0 -21607.11605463 0 -30410.11926810 0 723
0.02750000 0.02749970 70733.48082237 0 6639.84114615 0 15186.56876360 0 -25794.59567145 0 -10062.63053438 0 826
0.02850000 0.02848090 70512.60203551 0 5930.89330454 0 26616.84927242 0 -14467.16711681 0 -12991.49448885 0 831
0.02950000 0.02946900 66595.01044274 0 3488.45726981 0 37087.29061532 0 -3054.38830118 0 -16264.09754267 0 996
0.03050000 0.03053250 65683.73088798 0 2113.04000571 0 31705.60426485 0 8870.50332111 0 -7915.44143175 0 1041
0.03150000 0.03150510 61586.17647701 0 1397.94352816 0 30497.23431127 0 11413.30712622 0 -20407.06418259 0 1036
0.03250000 0.03246190 64048.21620662 0 -368.14929648 0 19159.68917097 0 12922.02726733 0 -9346.72472998 0 1059
0.03350000 0.03345080 60955.68837751 0 -2022.99115271 0 13889.17285623 0 10437.89965904 0 -22199.38594165 0 1302
0.03450000 0.03451200 61728.59552177 0 63.78642145 0 5208.02953733 0 3340.58650944 0 -14361.61740645 0 1339
0.03550000 0.03553350 59895.02057454 0 2626.42300590 0 8356.79434205 0 -2666.00133712 0 -18688.81831185 0 1365
0.03650000 0.03647120 55488.34826846 0 4479.73653582 0 10406.57196545 0 -3255.47230211 0 -9226.38232325 0 1308
0.03750000 0.03744890 53606.21371007 0 5286.46679813 0 16947.64151362 0 -4633.17141830 0 -3804.11722364 0 1579
0.03850000 0.03847530 50186.58294469 0 3231.47351280 0 23505.77436960 0 -3163.70362954 0 2981.99851047 0 1662
0.03950000 0.03950240 49051.61444038 0 956.51530550 0 27103.00741654 0 3218.69289291 0 10807.19999815 0 1683
0.04050000 0.04050350 49208.87114410 0 -386.46930904 0 24471.34626740 0 5225.34013946 0 10915.53738990 0 1822
0.04150000 0.04152450 52140.54526125 0 -552.36108066 0 30560.40676837 0 7347.23777795 0 19830.08158057 0 1887
0.04250000 0.04250150 51861.66471662 0 -1209.46029670 0 20589.27513094 0 6951.20717139 0 11660.82625532 0 1920
0.04350000 0.04349210 53767.96667409 0 -128.12880549 0 19018.84381732 0 7326.38637084 0 13593.65614851 0 2005
0.04450000 0.04448520 52098.39282101 0 1099.06586587 0 17282.05087287 0 2888.47629639 0 9727.71534585 0 2151
0.04550000 0.04548030 49215.95275406 0 2219.37656163 0 14602.05492559 0 3548.42614146 0 9265.88196992 0 2274
0.04650000 0.04648670 48793.19188007 0 1955.77206134 0 9154.58828703 0 -911.11094500 0 3984.28237355 0 2311
0.04750000 0.04749250 47017.05665807 0 1073.81374401 0 12652.02683677 0 -881.27600983 0 2861.15027446 0 2568
0.04850000 0.04851840 46446.36882046 0 -68.32550862 0 9841.52693450 0 951.51096779 0 4030.75122367 0 2493
0.04950000 0.04949480 45802.84156611 0 -736.67065850 0 10767.04839374 0 1977.85994002 0 -339.31702736 0 2644
0.05050000 0.05050630 46425.01158407 0 518.55482359 0 7624.72448189 0 660.38485825 0 -945.59051705 0 2829
0.05150000 0.05149060 46198.73728485 0 1828.93255849 0 10274.14585919 0 3751.28616520 0 -77.71887081 0 2784
0.05250000 0.05249300 42135.69167163 0 4285.88027332 0 8295.13937279 0 -962.35707168 0 473.52028050 0 3055
0.05350000 0.05348950 39337.21926564 0 3112.99705409 0 10941.51453374 0 2098.84306384 0 4531.40980723 0 3009
0.05450000 0.05448610 35513.03748045 0 2198.74996754 0 9893.02035550 0 2237.74378492 0 6444.18637952 0 3336
0.05550000 0.05550870 35216.62152067 0 -55.38504669 0 9329.49281241 0 2749.82286962 0 6735.70141558 0 3349
0.05650000 0.05647670 35145.13098202 0 -1273.70061563 0 9682.29187625 0 2503.58517471 0 4879.33042866 0 3324
0.05750000 0.05747970 36199.27920758 0 -916.96732403 0 6938.95486210 0 698.81664310 0 4451.32017077 0 3639
0.05850000 0.05849280 36871.47012129 0 -116.40930304 0 7984.16677032 0 -481.16617113 0 2036.67102465 0 3846
0.05950000 0.05951020 37451.48769901 0 670.28225122 0 7838.17319862 0 -2237.79998818 0 2413.73865342 0 3787
0.06050000 0.06049470 36362.60586270 0 1166.50977026 0 7862.00337817 0 -881.05119682 0 1436.67881058 0 3930
0.06150000 0.06148310 35479.42793476 0 1243.01363913 0 8779.56645669 0 -1891.98136844 0 2900.21153575 0 4083
0.06250000 0.06249100 35464.14064977 0 601.50183346 0 8526.74174045 0 154.13067876 0 -484.58445301 0 4303
0.06350000 0.06350600 34842.30785133 0 304.05960227 0 10440.15902983 0 289.78285178 0 2563.26178944 0 4470
0.06450000 0.06451750 33902.13982419 0 902.71867516 0 8317.54198970 0 -1239.45035285 0 -193.43024184 0 4479
0.06550000 0.06550280 33663.05118314 0 1557.48208398 0 10746.10706143 0 113.86666784 0 2303.10816892 0 4636
0.06650000 0.06648880 31431.44479352 0 1824.21148518 0 9351.24347157 0 -1523.97370416 0 -609.20392734 0 4653
0.06750000 0.06749660 29576.96223592 0 1969.47441458 0 9021.31913197 0 59.71809273 0 -724.59595149 0 5220
0.06850000 0.06852730 28319.13341912 0 763.88539799 0 8584.10278113 0 1729.22798650 0 -1190.96942625 0 5029
0.06950000 0.06949320 27068.49861879 0 35.33757092 0 5484.95420874 0 2645.01504221 0 -4162.21063397 0 5040
0.07050000 0.07048030 27800.93942042 0 -380.79053229 0 5289.81651205 0 2957.38148537 0 -1975.69049443 0 5475
0.07150000 0.07148790 27748.67039452 0 -307.83983311 0 4594.44737653 0 2230.68465626 0 -3713.66370720 0 5509
0.07250000 0.07249820 27596.80920315 0 532.62474611 0 2873.79600654 0 -185.19084486 0 -1898.70327757 0 5916
0.07350000 0.07351270 27468.89059783 0 929.72546261 0 6101.85236151 0 -273.04777097 0 -1100.45183811 0 5721
0.07450000 0.07449140 26616.62445941 0 811.59184375 0 4904.18350742 0 -1006.09781587 0 -43.92992434 0 6028
0.07550000 0.07549160 26486.45772394 0 796.94527585 0 7329.98337908 0 -356.03075093 0 1390.44601412 0 6183
0.07650000 0.07648840 26062.46037837 0 475.55821048 0 7482.47404689 0 -578.45175507 0 1359.84896283 0 6330
0.07750000 0.07749960 25306.52661671 0 189.40496482 0 7948.45522295 0 755.74042247 0 1926.15294666 0 6583
0.07850000 0.07848650 25309.11196638 0 1.19670216 0 7149.41356573 0 1447.69464830 0 2895.28813073 0 6549
0.07950000 0.07947320 25602.26813744 0 -196.54727429 0 7128.93310010 0 1644.50720194 0 3241.12923177 0 6828
0.08050000 0.08048110 25893.85061740 0 -393.62847949 0 5782.82021246 0 1657.54635679 0 3381.33386834 0 7147
0.08150000 0.08149960 25908.35105685 0 -168.18374030 0 5550.59960901 0 441.22027062 0 3988.22784196 0 7386
0.08250000 0.08250610 25767.05607716 0 323.65205650 0 5215.06618469 0 119.49486166 0 3825.04731530 0 7227
0.08350000 0.08350160 25466.81829613 0 998.36424817 0 5996.97709019 0 -232.83659111 0 3698.21905310 0 7798
0.08450000 0.08449610 24363.88564641 0 1121.28638424 0 6423.29000981 0 -368.77427666 0 4031.39194077 0 7371
0.08550000 0.08548940 23012.75942854 0 1301.07160016 0 5565.13377041 0 -494.98542713 0 1252.75928332 0 8256
0.08650000 0.08650700 22397.10898801 0 846.12986719 0 6521.03870857 0 -26.92641679 0 1654.00555181 0 8037
0.08750000 0.08749060 21485.49221372 0 348.39048063 0 5614.92985314 0 87.10458936 0 -22.39845787 0 8155
0.08850000 0.08849210 21130.51246364 0 84.22956812 0 4853.39824742 0 311.58634200 0 -467.39075365 0 8718
0.08950000 0.08949900 21490.55050655 0 108.31131344 0 5120.31873968 0 603.11149465 0 -615.33907451 0 8571
0.09050000 0.09049190 20863.99663481 0 270.52536895 0 5376.00982186 0 -237.37106962 0 -956.70190030 0 8932
0.09150000 0.09150830 20708.76324821 0 582.36462559 0 4979.56331123 0 221.42845468 0 75.08080249 0 9285
0.09250000 0.09250820 20601.63984675 0 528.96141803 0 6638.46978676 0 -181.59271256 0 743.16325836 0 9204
0.09350000 0.09350330 20328.37962748 0 708.50945623 0 7021.56240432 0 0.17260918 0 2480.14841794 0 9349
0.09450000 0.09448040 20259.69925151 0 407.82317324 0 7604.67116099 0 514.04170232 0 3050.88121815 0 9564
0.09550000 0.09549270 19755.21884670 0 152.31531367 0 8285.33752535 0 14.68388686 0 3197.81900451 0 10155
0.09650000 0.09649430 20031.40163516 0 115.00309763 0 8643.70071131 0 -288.93643078 0 2277.69305762 0 9913
0.09750000 0.09749140 19975.53560103 0 174.13903706 0 9842.44866786 0 -1034.02970887 0 3617.83715972 0 10476
0.09850000 0.09850240 19964.07013728 0 379.00326883 0 9515.99768934 0 -1160.79951969 0 2200.73956272 0 10575
0.09950000 0.09950330 19245.00571002 0 683.92390495 0 10501.88144300 0 -788.66316439 0 2222.78247880 0 10882
0.10050000 0.10051200 19021.65398000 0 729.96561034 0 10527.56632992 0 103.54707603 0 1866.39764737 0 10875
0.10150000 0.10150300 18443.43490640 0 311.23450963 0 10511.22242376 0 987.60357322 0 2740.14466934 0 11118
0.10250000 0.10250800 17949.63311978 0 102.77113391 0 9625.71768112 0 2005.73675384 0 2188.73454774 0 11575
0.10350000 0.10349800 17889.72045139 0 114.99747730 0 8968.35318572 0 1459.12639009 0 2023.65435110 0 11364
0.10450000 0.10450100 17588.80823132 0 144.75710011 0 8183.42978583 0 1233.29047625 0 1742.40202916 0 12093
0.10550000 0.10551000 17358.82451736 0 516.82938370 0 8522.15555495 0 486.48749518 0 2231.55018637 0 12067
0.10650000 0.10649700 16865.69716979 0 744.38848929 0 7689.31326099 0 -461.41747186 0 2436.84943132 0 12054
0.10750000 0.10749900 16320.18838982 0 460.96896989 0 7955.46938900 0 -530.45754865 0 1109.27687300 0 12807
0.10850000 0.10850100 16138.53947401 0 305.71197793 0 7762.25384359 0 -734.54392738 0 421.95716747 0 12736
0.10950000 0.10950300 15989.48844531 0 -37.60289926 0 7950.46729943 0 -355.73062555 0 -319.42107556 0 12933
0.11050000 0.11050200 16193.50625608 0 -135.66903400 0 7607.16658545 0 165.48935632 0 -1088.48391728 0 13428
0.11150000 0.11150900 16240.37976963 0 -165.00938054 0 7252.55777684 0 464.90769391 0 -497.91361665 0 13453
0.11250000 0.11250000 16046.70335753 0 112.00116944 0 6196.82461954 0 877.41597037 0 -2272.48863633 0 13668
0.11350000 0.11349100 16120.44202633 0 190.04568191 0 6454.04443021 0 841.42228266 0 -866.84189023 0 13791
0.11450000 0.11448600 15592.01903547 0 341.86865507 0 5595.29243632 0 590.65685364 0 -1342.40347290 0 14205
0.11550000 0.11549300 15655.19149257 0 291.42286272 0 6084.28322442 0 663.91554665 0 86.40114944 0 14776
0.11650000 0.11649800 15274.13343279 0 162.01936744 0 6116.39776356 0 -274.19544141 0 -55.77498486 0 14553
0.11750000 0.11747300 15178.70030809 0 326.80955529 0 6477.69475935 0 -233.50878203 0 -67.51089866 0 14568
0.11850000 0.11849100 15157.56788471 0 121.13824480 0 6563.57333094 0 -108.57254616 0 -39.09374677 0 16015
0.11950000 0.11950300 14939.38685402 0 206.48176141 0 6489.62108978 0 435.52238477 0 -895.47182764 0 15270
0.12050000 0.12050700 14793.93283356 0 275.26330323 0 5787.20406625 0 622.18575487 0 -562.56421933 0 15999
0.12150000 0.12150000 14424.56505054 0 222.37828967 0 5239.87430085 0 1264.73057635 0 -1392.09838978 0 15670
0.12250000 0.12250700 14172.99928718 0 247.02116827 0 4400.46746687 0 1207.93156820 0 -439.66568863 0 16887
0.12350000 0.12352200 13813.29846379 0 289.28264282 0 3949.82977906 0 1012.12055653 0 -689.53523779 0 16407
0.12450000 0.12449800 13416.50349299 0 333.52472003 0 4184.07369964 0 781.25557556 0 767.60605338 0 16306
0.12550000 0.12549900 13152.79782684 0 348.18028046 0 3510.03931921 0 -26.54614558 0 715.33815154 0 17523
0.12650000 0.12650100 12993.85502550 0 246.11629589 0 4271.69457209 0 -64.86170210 0 1509.97909400 0 17154
0.12750000 0.12750600 12935.40364170 0 134.49326193 0 4567.91944081 0 -69.97215155 0 2020.46200629 0 18007
0.12850000 0.12850300 12775.44918180 0 74.07397741 0 4503.89269424 0 51.82164800 0 1330.66823353 0 17496
0.12950000 0.12949900 12947.31873148 0 137.17078494 0 4571.53893034 0 -312.62722626 0 1183.10097074 0 18405
0.13050000 0.13049000 12606.83942084 0 95.91748435 0 4450.00501464 0 -432.79203070 0 -215.15841971 0 18100
0.13150000 0.13148800 12772.41420610 0 147.77633890 0 4326.97609239 0 -155.15470204 0 626.63368037 0 19059
0.13250000 0.13249300 12599.98262389 0 -18.67757766 0 4669.31011040 0 140.16304616 0 -448.64696856 0 18957
0.13350000 0.13349100 12687.54729308 0 -25.25987792 0 4077.61349657 0 580.08839382 0 -250.11347129 0 19468
0.13450000 0.13450700 12777.92212496 0 -101.46305938 0 4087.77504483 0 707.58547474 0 -527.54846824 0 19953
0.13550000 0.13551000 12627.40981167 0 32.35744960 0 3265.07181783 0 870.06008853 0 -146.52300634 0 19956
0.13650000 0.13649900 12673.72129269 0 45.35771180 0 3487.20955758 0 597.09325024 0 448.39630205 0 19723
0.13750000 0.13749600 12546.25231340 0 145.73840892 0 2876.11158059 0 349.92482945 0 113.39343644 0 20946
0.13850000 0.13851100 12280.07370409 0 296.87570239 0 2818.73929926 0 556.79326924 0 817.07952944 0 20955
0.13950000 0.13949800 12039.86099796 0 365.04575281 0 2757.88241620 0 -6.10713547 0 857.67738769 0 20506
0.14050000 0.14048300 11649.58560458 0 212.09084612 0 2564.18352280 0 335.80657213 0 1273.55448717 0 21447
0.14150000 0.14148400 11516.38389342 0 138.52303522 0 2252.55896259 0 480.89527144 0 768.85376561 0 21771
0.14250000 0.14249400 11380.25961307 0 -46.69636089 0 1950.68004655 0 534.96954585 0 1228.88414117 0 22470
0.14350000 0.14350900 11353.50686433 0 -11.24683309 0 1662.43603986 0 371.51811951 0 837.78255996 0 22519
0.14450000 0.14449900 11423.76093140 0 15.03156019 0 1476.90909954 0 289.40853811 0 920.53398251 0 22218
0.14550000 0.14550500 11259.75983723 0 143.88145342 0 1432.19379094 0 231.41914505 0 907.74661824 0 23559
0.14650000 0.14650700 11241.21276353 0 199.47433974 0 1231.28964042 0 41.57264748 0 1120.10723998 0 23044
0.14750000 0.14750500 11063.49807547 0 247.47753869 0 1864.89140018 0 -234.75874239 0 965.99454626 0 23649
0.14850000 0.14849900 10876.93699529 0 316.13430929 0 1984.57060851 0 -476.38889457 0 1077.66366688 0 23640
0.14950000 0.14949500 10691.14027936 0 274.31122011 0 2453.22705944 0 -519.59233565 0 1001.17665898 0 24457
0.15050000 0.15050000 10591.34578217 0 215.24722085 0 2837.03907865 0 -686.14730566 0 937.12967925 0 24591
0.15150000 0.15149900 10536.07550252 0 223.04373619 0 3354.54739765 0 -479.72511970 0 1191.80123440 0 25020
0.15250000 0.15250500 10373.50197100 0 140.17541088 0 3541.63678842 0 -413.92347439 0 582.15105323 0 25297
0.15350000 0.15350100 10350.16638008 0 169.46180229 0 3829.73466665 0 -199.61822007 0 837.84550760 0 25452
0.15450000 0.15450400 10162.72852914 0 265.18943205 0 3798.22712265 0 51.75723907 0 621.64170738 0 26061
0.15550000 0.15549900 10014.83528748 0 135.26437057 0 4034.53932297 0 237.38455840 0 720.46838454 0 26128
0.15650000 0.15649500 9962.99340630 0 59.57185187 0 3879.26097377 0 220.13915205 0 595.24303913 0 26331
0.15750000 0.15749700 9975.92015464 0 11.25998465 0 3773.53141300 0 456.24564846 0 527.98572955 0 27345
0.15850000 0.15849900 9812.87451579 0 40.62337452 0 3439.96510255 0 133.97169574 0 372.14309969 0 26980
0.15950000 0.15949700 9803.81455130 0 95.69278374 0 3083.60275243 0 375.55126499 0 366.11586276 0 27777
0.16050000 0.16050000 9738.66373967 0 56.75606886 0 2754.09431690 0 76.91415263 0 422.54055724 0 28224
0.16150000 0.16150500 9587.89289141 0 104.06437078 0 2444.70664618 0 480.67495469 0 -56.05611354 0 28075
0.16250000 0.16249700 9619.61400777 0 88.22404577 0 2510.62182207 0 26.11888845 0 300.64244445 0 28590
0.16350000 0.16349900 9333.24718975 0 132.14621406 0 2201.87486844 0 261.17539567 0 433.29898405 0 29163
0.16450000 0.16449100 9531.49854669 0 53.55079730 0 2422.86606181 0 211.99979685 0 966.62964303 0 28996
0.16550000 0.16550500 9457.71491529 0 26.15047467 0 2360.13199008 0 97.52309890 0 1019.43259983 0 30777
0.16650000 0.16650700 9556.16053440 0 135.86799352 0 2762.92946838 0 34.98079267 0 1087.05972683 0 29211
0.16750000 0.16749900 9343.53238517 0 249.88753421 0 2949.10836643 0 -99.37229835 0 1547.38797963 0 30922
0.16850000 0.16850800 9136.09741658 0 332.52542618 0 3135.42215230 0 -330.62575621 0 1401.37192663 0 30867
0.16950000 0.16949900 8950.57047626 0 186.58693368 0 3015.13594883 0 -25.79785546 0 1628.62416246 0 30852
0.17050000 0.17049200 8777.58810217 0 39.43793550 0 2996.63383772 0 319.47727882 0 998.90941973 0 31257
0.17150000 0.17149500 8814.13145769 0 -36.06394177 0 2799.54026781 0 474.68481191 0 830.91339830 0 32608
0.17250000 0.17250900 8720.74413142 0 -87.03804471 0 2434.42145076 0 457.01338490 0 518.19737089 0 32361
0.17350000 0.17350400 8693.73284771 0 115.59323179 0 2101.18111919 0 78.72490905 0 240.38806027 0 32508
0.17450000 0.17449800 8582.22559246 0 198.80664509 0 1915.53053172 0 26.60324809 0 160.68510220 0 32791
0.17550000 0.17549800 8300.95078922 0 234.26527782 0 1877.91931437 0 -73.33985051 0 35.02598008 0 33633
0.17650000 0.17650100 8146.58293273 0 200.54107750 0 1656.95060230 0 57.54055387 0 390.79246331 0 33984
0.17750000 0.17750300 8008.09811572 0 52.42942999 0 1631.64789751 0 215.19438979 0 -13.40267749 0 34069
