### header ###
fiducial parameters:
Omega_m = 0.31
Omega_nu = 0
Omega_de = 0.69
Omega_k = 0
H_0 = 100
w_de = -1
zeff = 0
beta = 0
fgrowth = 0
b_1 = 2
gamma = 0.55
Lx = 3500 Ly = 3500 Lz = 3500
nx = 700 ny = 700 nz = 700
xoffset = 857.220397 yoffset = 15.9954215 zoffset = 262.898189
bins = 400 dk = 0.001
kx_ny = 0.628318531 ky_ny = 0.628318531 kz_ny = 0.628318531
############################
A(data) = 3.05178453 (not used)
A(ran) = 3.04399564 (used)
Ngal = 186590
weighted Ngal = 0
Nran = 9360983
weighted Nran = 0
SN(data) = 3474.9093
SN(ran) = 68.3567021
SN(data+ran) = 3543.266
############################
13 columns: k_central k_mean P_0(k) sigma^{lin}_{P_0(k)} P^img_1(k) sigma^{lin}_{P_1(k)} P_2(k) sigma^{lin}_{P_2(k)} P^img_3(k) sigma^{lin}_{P_3(k)} P_4(k) sigma^{lin}_{P_4(k)} N_modes
### header ###
0.00050000 0 0 0 0 0 0 0 0 0 0 0 0
0.00150000 0.00179520 31558.80136630 0 -24297.67821360 0 -17930.18679402 0 59962.91410495 0 -166.07949049 0 3
0.00250000 0.00253879 53870.81862828 0 -29506.93298187 0 -9140.41382646 0 -19431.60051216 0 41372.56389350 0 6
0.00350000 0.00331552 59834.99549963 0 -11244.24773923 0 -7460.48733406 0 -30968.55479642 0 -24788.66983753 0 7
0.00450000 0.00420575 68769.62673316 0 1494.63560575 0 -5422.70348499 0 -20772.27292484 0 7973.18465455 0 24
0.00550000 0.00557378 57682.86051068 0 4271.00889240 0 19841.32223130 0 -1202.09767047 0 23647.63138183 0 45
0.00650000 0.00659388 70980.21310592 0 -2593.27432689 0 -6072.86272327 0 21902.07072981 0 -40815.81446279 0 40
0.00750000 0.00754703 68904.06491590 0 -14353.97376395 0 28001.24781645 0 18922.39903404 0 -667.77333798 0 57
0.00850000 0.00846663 88509.89551439 0 -17629.49938696 0 14785.95197155 0 14197.16668626 0 -27181.01753261 0 75
0.00950000 0.00948925 102808.90249627 0 -18504.02201384 0 27375.48079026 0 17696.38125881 0 13333.21027107 0 112
0.01050000 0.01054430 115315.58771909 0 -11805.49343022 0 -782.52127283 0 -4458.37929943 0 -16312.99437335 0 105
0.01150000 0.01145670 122229.71198372 0 -1065.73396426 0 13797.22433325 0 7212.10267486 0 9589.30921340 0 144
0.01250000 0.01249090 113051.72066187 0 10275.24744296 0 -2050.00243641 0 -126.22801145 0 6350.57424023 0 169
0.01350000 0.01339930 96418.92977522 0 18068.55920452 0 1311.51416469 0 5179.37711862 0 31546.66146351 0 180
0.01450000 0.01448870 83757.12357231 0 11936.89663727 0 -2865.23063068 0 7691.92109196 0 32628.34928336 0 267
0.01550000 0.01550050 75235.81106616 0 7415.35612138 0 -14900.38179599 0 16380.10105821 0 16165.06740973 0 238
0.01650000 0.01653350 70971.55780485 0 -2142.15329111 0 -11051.52678244 0 -2715.64005075 0 21042.38576191 0 315
0.01750000 0.01747870 73313.43497815 0 -2471.16713800 0 -17323.07924804 0 -8269.66805824 0 20457.64711088 0 297
0.01850000 0.01844180 76274.10997418 0 -6307.69115770 0 -14740.53974259 0 -12038.84933940 0 4495.97927613 0 388
0.01950000 0.01947590 82055.73867767 0 -4505.53382925 0 -15202.98011367 0 -21006.41567957 0 -12047.84185998 0 399
0.02050000 0.02045430 83078.52548768 0 -2925.89642267 0 -6198.99406513 0 -13783.06111333 0 -18328.10582990 0 462
0.02150000 0.02154770 83588.17659183 0 1097.09313167 0 -2605.13321341 0 -12872.34359110 0 -22301.78826981 0 571
0.02250000 0.02255340 81204.14697829 0 2669.15995998 0 -5325.66294723 0 -485.44323873 0 -23837.71078569 0 510
0.02350000 0.02348930 80230.48181197 0 2433.54468001 0 179.87176893 0 32.98782529 0 -26063.13481741 0 555
0.02450000 0.02439640 77018.69067861 0 960.33937488 0 6986.80631226 0 -1652.43186071 0 -26360.56243575 0 592
0.02550000 0.02547300 74622.85838180 0 2860.77933299 0 9571.06563727 0 -3961.72238753 0 -4753.14288355 0 837
0.02650000 0.02652900 76300.52550340 0 5025.34648165 0 11335.40941665 0 -9545.00980887 0 -1120.83788227 0 723
0.02750000 0.02749970 71377.00807672 0 4998.07666298 0 13506.20388582 0 -7562.84469962 0 11109.16883939 0 826
0.02850000 0.02848090 71107.12005267 0 6738.03947093 0 20263.40866625 0 -3501.53014661 0 9558.43114584 0 831
0.02950000 0.02946900 64544.15371687 0 3391.04579057 0 22101.25506077 0 2981.99851047 0 11442.30800511 0 996
0.03050000 0.03053250 61869.66568845 0 4205.92552467 0 21489.08922196 0 2952.24450799 0 2195.54638208 0 1041
0.03150000 0.03150510 60308.45170842 0 5007.55253155 0 18416.12012512 0 1264.83174220 0 -121.11463943 0 1036
0.03250000 0.03246190 55290.85003512 0 5202.79139409 0 21480.09670137 0 3550.84288136 0 998.03489710 0 1059
0.03350000 0.03345080 53048.90224682 0 2958.74160411 0 20372.44297834 0 -3577.92160898 0 5907.86121119 0 1302
0.03450000 0.03451200 49164.02094769 0 -510.62454450 0 17277.77942559 0 7862.64409527 0 9746.86941470 0 1339
0.03550000 0.03553350 53509.20689426 0 -2552.93163142 0 21612.39916048 0 8702.10713251 0 10143.58570095 0 1365
0.03650000 0.03647120 53634.65255642 0 -3080.35420437 0 11173.72389654 0 11899.69008335 0 12669.56225191 0 1308
0.03750000 0.03744890 54721.39866909 0 -1825.33555025 0 9385.03286767 0 12877.17707092 0 6594.48512045 0 1579
0.03850000 0.03847530 54423.07179869 0 1298.84595132 0 1143.29782650 0 2630.73941578 0 9702.54752887 0 1662
0.03950000 0.03950240 50733.32819624 0 2454.36236516 0 2042.80841995 0 4256.93559768 0 8744.46190446 0 1683
0.04050000 0.04050350 49551.03655236 0 2816.85086993 0 -781.10495084 0 -1544.78014866 0 8488.66965643 0 1822
0.04150000 0.04152450 45561.72960793 0 2770.47194502 0 -849.00747378 0 -1093.99520833 0 7510.96909650 0 1887
0.04250000 0.04250150 44674.95467176 0 1274.17272296 0 3014.57391629 0 -5823.63501527 0 1485.62060386 0 1920
0.04350000 0.04349210 43898.33811275 0 847.11117600 0 6765.23060505 0 -3004.07514851 0 6769.86175315 0 2005
0.04450000 0.04448520 44150.80312817 0 577.12311016 0 9377.91753576 0 -4707.46087898 0 4360.99030150 0 2151
0.04550000 0.04548030 45354.67682146 0 529.40654780 0 15615.39958899 0 -2022.22678846 0 12516.12736944 0 2274
0.04650000 0.04648670 44093.47580944 0 983.35011099 0 18984.89705211 0 2877.65154974 0 9077.79216124 0 2311
0.04750000 0.04749250 43338.89092587 0 1004.06887842 0 16083.79750495 0 2372.68779695 0 10122.57692473 0 2568
0.04850000 0.04851840 41369.52891780 0 2175.32445141 0 17435.71056836 0 1376.64249502 0 8651.14202209 0 2493
0.04950000 0.04949480 39774.36817257 0 2608.86510946 0 12340.88562454 0 248.31609123 0 3304.59394580 0 2644
0.05050000 0.05050630 37403.93974642 0 2038.93039544 0 13081.86932073 0 -2006.72593110 0 986.33000750 0 2829
0.05150000 0.05149060 35677.71301366 0 1525.59235786 0 11648.68635253 0 -4305.87739097 0 -623.57509930 0 2784
0.05250000 0.05249300 34372.33624427 0 563.81080750 0 11762.55414443 0 -168.64685511 0 -3105.09487663 0 3055
0.05350000 0.05348950 33965.19987479 0 562.69798307 0 10069.40864677 0 800.85027792 0 -6439.08312409 0 3009
0.05450000 0.05448610 33870.77840865 0 388.54208504 0 12218.69975109 0 1586.16822465 0 -1619.45179146 0 3336
0.05550000 0.05550870 32598.56155892 0 749.16464179 0 10225.19282525 0 3035.77378357 0 -1247.99324741 0 3349
0.05650000 0.05647670 34082.77708144 0 531.64568543 0 14385.55999251 0 -190.71225250 0 4763.70909524 0 3324
0.05750000 0.05747970 32924.42802361 0 171.56830024 0 13114.24239483 0 1183.06724879 0 3703.44595569 0 3639
0.05850000 0.05849280 34056.47395873 0 513.08624701 0 15152.62199839 0 1181.26874467 0 4925.33841210 0 3846
0.05950000 0.05951020 33235.79404886 0 38.53890825 0 15911.59073575 0 -72.45431204 0 7096.54878535 0 3787
0.06050000 0.06049470 33333.02567768 0 566.56139473 0 16389.31839181 0 991.73114017 0 6705.74508138 0 3930
0.06150000 0.06148310 33843.01400135 0 -348.86708422 0 14048.67769010 0 4226.78817242 0 7078.99088890 0 4083
0.06250000 0.06249100 32871.37215216 0 -488.53104548 0 10639.19723233 0 5314.99556969 0 5000.14494271 0 4303
0.06350000 0.06350600 33609.77049868 0 -626.49429630 0 10022.51265192 0 5089.10345260 0 6723.95493557 0 4470
0.06450000 0.06451750 32975.91020396 0 -268.50654808 0 7175.67172584 0 2993.82367504 0 5822.84816972 0 4479
0.06550000 0.06550280 32917.45882016 0 165.22520103 0 6601.28571414 0 3775.53224883 0 7979.61430677 0 4636
0.06650000 0.06648880 32934.09498324 0 1069.68730112 0 6207.75053205 0 -1227.87248260 0 6733.49824804 0 4653
0.06750000 0.06749660 31880.73360324 0 1256.42373546 0 7292.27099587 0 -2110.91552273 0 8710.26784494 0 5220
0.06850000 0.06852730 31233.94656018 0 1053.67162196 0 8470.66213396 0 -1969.00230725 0 8844.23392035 0 5029
0.06950000 0.06949320 30719.57438273 0 813.81524447 0 8948.03008920 0 -1602.20863324 0 6997.49617110 0 5040
0.07050000 0.07048030 29859.77700831 0 813.33976494 0 8044.65271190 0 -623.13783799 0 6340.45765458 0 5475
0.07150000 0.07148790 29371.25832754 0 883.02842728 0 10245.63956893 0 640.92841590 0 4388.68726490 0 5509
0.07250000 0.07249820 28697.71853574 0 1208.48236009 0 8960.24867654 0 1486.85707544 0 5643.11016453 0 5916
0.07350000 0.07351270 26788.38160258 0 1202.86203472 0 8594.87132453 0 1393.45850852 0 4585.14011773 0 5721
0.07450000 0.07449140 26465.21289406 0 816.72095268 0 9021.65635149 0 916.58626597 0 4388.49617384 0 6028
0.07550000 0.07549160 25380.37769201 0 686.80263560 0 10187.58160791 0 86.77388942 0 4624.38122943 0 6183
0.07650000 0.07648840 25509.86998843 0 484.43158016 0 10266.23244107 0 -490.28683513 0 3524.15757653 0 6330
0.07750000 0.07749960 24934.57348402 0 401.25188882 0 10991.28813517 0 -980.99519466 0 4767.19369697 0 6583
0.07850000 0.07848650 25159.49890515 0 -149.82888172 0 10406.50452155 0 -1870.55668814 0 2432.90396291 0 6549
0.07950000 0.07947320 25383.18785469 0 -220.04023432 0 11611.81701813 0 530.83635858 0 3354.90709847 0 6828
0.08050000 0.08048110 25888.00547902 0 -297.56250615 0 10898.22678777 0 -30.31479855 0 805.22963544 0 7147
0.08150000 0.08149960 25377.67993584 0 -43.52312519 0 8670.44221940 0 1716.49232923 0 197.98944978 0 7386
0.08250000 0.08250610 25029.21976318 0 362.30528217 0 8364.58411301 0 687.99189645 0 -973.66741445 0 7227
0.08350000 0.08350160 24358.60254057 0 776.51426908 0 7144.38899486 0 1551.29972608 0 -1335.52419465 0 7798
0.08450000 0.08449610 22639.12019825 0 988.79845440 0 6713.25383607 0 1610.24569852 0 -934.25656892 0 7371
0.08550000 0.08548940 22609.10766079 0 930.98778769 0 5353.04517241 0 1201.27710297 0 -1438.46607404 0 8256
0.08650000 0.08650700 21682.54082104 0 639.73353473 0 6252.84802278 0 1293.76517718 0 -774.60111033 0 8037
0.08750000 0.08749060 20825.77842232 0 788.50017496 0 5377.80832597 0 1058.71530194 0 -217.78873198 0 8155
0.08850000 0.08849210 20635.36179894 0 357.99561668 0 5146.95908191 0 487.25747976 0 1058.97383691 0 8718
0.08950000 0.08949900 20263.63347927 0 178.96464842 0 5266.71697480 0 651.01689993 0 1220.76839134 0 8571
0.09050000 0.09049190 20263.85829228 0 125.51085793 0 4648.95329193 0 668.76363931 0 1992.87744940 0 8932
0.09150000 0.09150830 19995.43155282 0 274.18982109 0 4483.40098796 0 165.61075535 0 973.50892127 0 9285
0.09250000 0.09250820 19707.10886157 0 457.38432637 0 4349.77213207 0 -112.80779854 0 1064.29853316 0 9204
0.09350000 0.09350330 19540.97204377 0 839.43718374 0 4431.37925638 0 -500.35508599 0 1052.91962243 0 9349
0.09450000 0.09448040 18495.14189976 0 822.71559172 0 5342.41151682 0 -893.41928481 0 -308.77505525 0 9564
0.09550000 0.09549270 18176.46945153 0 548.51115779 0 5542.33773072 0 -846.47720330 0 1636.56006188 0 10155
0.09650000 0.09649430 17983.69229150 0 223.19211278 0 7081.85725484 0 -191.22482617 0 1272.84632617 0 9913
0.09750000 0.09749140 17880.27830477 0 264.90504358 0 6653.75707175 0 -388.23633934 0 2080.81306007 0 10476
0.09850000 0.09850240 17890.95692297 0 136.72677923 0 8165.11876579 0 1085.22075637 0 3014.84369191 0 10575
0.09950000 0.09950330 17549.80317328 0 -100.65362013 0 6929.91737891 0 144.29173717 0 2549.66060206 0 10882
0.10050000 0.10051200 17814.85771752 0 8.96644228 0 7256.80674282 0 1220.54357832 0 3139.49126786 0 10875
0.10150000 0.10150300 17855.66127967 0 18.18208978 0 6432.45114016 0 860.28072239 0 2331.15359250 0 11118
0.10250000 0.10250800 17430.31505601 0 157.79175870 0 5219.61864824 0 60.09150715 0 2103.62034040 0 11575
0.10350000 0.10349800 17328.13754087 0 375.05555229 0 5076.60384899 0 167.66779443 0 1113.68095995 0 11364
0.10450000 0.10450100 16893.12435758 0 293.60804522 0 4362.63143651 0 -468.66544345 0 -465.54728694 0 12093
0.10550000 0.10551000 16559.50184388 0 423.91416476 0 4911.29883934 0 -732.84434099 0 -1443.22086930 0 12067
0.10650000 0.10649700 16089.41783031 0 310.31502441 0 4438.95545497 0 -308.77955152 0 -1213.87787244 0 12054
0.10750000 0.10749900 16203.96006126 0 205.87139407 0 5122.82540479 0 -53.60430280 0 -1970.89073657 0 12807
0.10850000 0.10850100 15872.13605168 0 49.19774290 0 4815.65214227 0 738.72432539 0 -1196.00523778 0 12736
0.10950000 0.10950300 15823.46403402 0 197.16101382 0 4848.56476761 0 1229.18763874 0 -2074.58573956 0 12933
0.11050000 0.11050200 15686.21568859 0 219.53665317 0 4293.98478249 0 549.36207505 0 -1267.57446098 0 13428
0.11150000 0.11150900 15351.13189030 0 242.24613984 0 3847.70846717 0 496.16007514 0 -883.89283332 0 13453
0.11250000 0.11250000 15397.44337131 0 9.33169598 0 3455.87062334 0 92.73143430 0 -616.63062528 0 13668
0.11350000 0.11349100 15421.94798991 0 -154.94337781 0 3394.17069148 0 305.68500037 0 -306.16047989 0 13791
0.11450000 0.11448600 15581.79004330 0 -178.19016758 0 3243.19751151 0 -40.02211211 0 -828.71247888 0 14205
0.11550000 0.11549300 15747.81445460 0 -145.35510273 0 2969.88108898 0 597.53388375 0 -254.61197971 0 14776
0.11650000 0.11649800 15607.64353998 0 234.51819246 0 3206.50802752 0 672.42809144 0 -534.81442487 0 14553
0.11750000 0.11747300 15641.36549217 0 208.53430423 0 2738.87447581 0 245.96904336 0 458.67924934 0 14568
0.11850000 0.11849100 15347.64728857 0 242.48331757 0 3604.48326665 0 363.30570008 0 526.54805032 0 16015
0.11950000 0.11950300 15137.44711990 0 411.21110537 0 3396.23897121 0 190.88648258 0 1105.95975697 0 15270
0.12050000 0.12050700 14671.18492758 0 375.72099881 0 3224.98765732 0 106.69603193 0 1399.12379649 0 15999
0.12150000 0.12150000 14528.42866330 0 482.53640645 0 3359.27971161 0 -264.65212894 0 897.41983241 0 15670
0.12250000 0.12250700 14052.04988532 0 322.59543533 0 3383.55951719 0 -299.77691434 0 1096.89642028 0 16887
0.12350000 0.12352200 13769.45992594 0 235.76702876 0 3645.10697840 0 -195.86496679 0 259.22064651 0 16407
0.12450000 0.12449800 13479.33873058 0 225.61334895 0 3014.29290002 0 -109.42739765 0 115.77757846 0 16306
0.12550000 0.12549900 13444.38030680 0 185.54267723 0 3482.10630214 0 -67.40377526 0 -81.42378929 0 17523
0.12650000 0.12650100 13486.08312101 0 -1.87645803 0 3307.21301742 0 246.99756290 0 240.18348043 0 17154
0.12750000 0.12750600 13271.38669205 0 41.77250625 0 3703.40099309 0 386.49628660 0 578.06395262 0 18007
0.12850000 0.12850300 13708.53559898 0 -81.68434758 0 3716.95721787 0 135.26212244 0 1033.79028301 0 17496
0.12950000 0.12949900 13590.84598583 0 -173.13637101 0 3910.58866736 0 362.33788005 0 894.30954435 0 18405
0.13050000 0.13049000 13939.64337801 0 92.71693386 0 3939.92676577 0 287.92702034 0 1980.77126856 0 18100
0.13150000 0.13148800 13754.84707999 0 67.90555791 0 3625.06489814 0 293.47428148 0 2251.45737881 0 19059
0.13250000 0.13249300 13627.94013324 0 296.48003149 0 3872.73015570 0 302.90743557 0 1440.28705946 0 18957
0.13350000 0.13349100 13670.99182554 0 294.66466639 0 3676.11993376 0 23.92673674 0 2138.82605849 0 19468
0.13450000 0.13450700 13069.61701143 0 369.72523571 0 3378.08532028 0 169.83386783 0 1326.84641229 0 19953
0.13550000 0.13551000 12858.62999721 0 264.61728292 0 3291.56603160 0 -176.75923274 0 1463.01565524 0 19956
0.13650000 0.13649900 12704.63308220 0 134.08747444 0 3378.99581299 0 -318.00138137 0 1066.59949437 0 19723
0.13750000 0.13749600 12525.45710954 0 166.22899114 0 3440.75194811 0 -285.61481849 0 108.97439942 0 20946
0.13850000 0.13851100 12442.95073318 0 272.46100900 0 3626.64982989 0 -503.16524867 0 576.08222590 0 20955
0.13950000 0.13949800 12127.20085414 0 253.75319399 0 3738.93269005 0 -374.17990560 0 -199.17533843 0 20506
0.14050000 0.14048300 12159.12430222 0 340.86486496 0 4033.81992132 0 -364.11839913 0 -153.53829646 0 21447
0.14150000 0.14148400 11777.50420990 0 347.38556645 0 4169.08991222 0 8.40302714 0 -827.03874599 0 21771
0.14250000 0.14249400 11593.94438347 0 257.61885378 0 4273.08841278 0 24.86465664 0 -249.08270361 0 22470
0.14350000 0.14350900 11397.23299567 0 122.46239345 0 3949.07665546 0 573.54970729 0 -10.15425308 0 22519
0.14450000 0.14449900 11404.65182516 0 -14.33969814 0 4085.50443338 0 848.47579100 0 -181.26673369 0 22218
0.14550000 0.14550500 11425.67184202 0 -108.06413153 0 3441.07792698 0 1009.50148491 0 351.65813779 0 23559
0.14650000 0.14650700 11358.67756367 0 21.49988025 0 3599.34628927 0 858.26302559 0 708.60500176 0 23044
0.14750000 0.14750500 11399.81834534 0 42.41558387 0 2756.47733486 0 740.85105651 0 1280.77098494 0 23649
0.14850000 0.14849900 11226.25145740 0 163.32777919 0 2818.23346997 0 546.10116227 0 1412.36528305 0 23640
0.14950000 0.14949500 11043.08505374 0 208.21844195 0 2167.75949347 0 183.69583831 0 1677.06012646 0 24457
0.15050000 0.15050000 10759.17993823 0 275.54431950 0 2377.44259221 0 47.84414374 0 1530.58320679 0 24591
0.15150000 0.15149900 10588.83911705 0 285.41923117 0 2156.33899233 0 4.02471499 0 1580.67154644 0 25020
0.15250000 0.15250500 10283.53180255 0 272.47786998 0 1988.62848342 0 50.25897274 0 1208.51608204 0 25297
0.15350000 0.15350100 10046.92734531 0 211.54904676 0 2016.07815251 0 9.25374207 0 1252.08484427 0 25452
0.15450000 0.15450400 9855.99365200 0 139.17499296 0 1821.86218918 0 170.33070459 0 1164.07054905 0 26061
0.15550000 0.15549900 9733.39187447 0 148.52496624 0 1950.63508395 0 287.69658700 0 1165.22833608 0 26128
0.15650000 0.15649500 9590.59064759 0 133.59850613 0 1732.65638498 0 -49.12018241 0 1034.17246514 0 26331
0.15750000 0.15749700 9503.59925158 0 205.25877861 0 1734.38744519 0 -141.39502148 0 568.11597673 0 27345
0.15850000 0.15849900 9300.60434003 0 239.61245537 0 1938.63006897 0 -500.79234730 0 715.08523690 0 26980
0.15950000 0.15949700 9184.31980822 0 216.21279275 0 2232.11221891 0 -555.84006206 0 40.01469329 0 27777
0.16050000 0.16050000 9133.59075147 0 121.61597245 0 2423.87772038 0 -507.85035190 0 160.97061473 0 28224
0.16150000 0.16150500 8982.99975362 0 93.22827107 0 2579.79678667 0 -236.06040974 0 -291.68027362 0 28075
0.16250000 0.16249700 9103.19603189 0 117.09835493 0 2874.23439191 0 -163.37836211 0 -302.77029963 0 28590
0.16350000 0.16349900 8874.43754886 0 131.40208298 0 2749.26083709 0 18.60102883 0 -308.48617053 0 29163
0.16450000 0.16449100 8924.82938609 0 123.40211185 0 2992.40735305 0 314.34030143 0 11.32113379 0 28996
0.16550000 0.16550500 8758.71504959 0 32.57293288 0 2677.46680087 0 407.05768492 0 275.95010699 0 30777
0.16650000 0.16650700 8690.34941184 0 84.32612531 0 2610.14654364 0 488.02634027 0 472.29842176 0 29211
0.16750000 0.16749900 8654.37932950 0 96.57371354 0 2528.25840307 0 355.96218296 0 919.87078412 0 30922
0.16850000 0.16850800 8536.17264642 0 127.80732288 0 2406.31982394 0 57.79256926 0 878.55352422 0 30867
0.16950000 0.16949900 8502.01230884 0 157.81199187 0 2519.92908087 0 7.99967887 0 1286.96458349 0 30852
0.17050000 0.17049200 8308.31341545 0 94.18271472 0 2671.73406900 0 -66.14302388 0 930.05144148 0 31257
0.17150000 0.17149500 8347.55452715 0 47.45881423 0 2617.84638939 0 198.19290556 0 1050.63439813 0 32608
0.17250000 0.17250900 8288.28257585 0 97.02446363 0 2748.68756390 0 84.10030064 0 1097.89121787 0 32361
0.17350000 0.17350400 8265.68886788 0 75.86405104 0 2346.81181897 0 242.13373333 0 778.19699450 0 32508
0.17450000 0.17449800 8207.52974099 0 58.39551777 0 2298.12856065 0 365.86856845 0 732.72294196 0 32791
0.17550000 0.17549800 7999.48777726 0 68.29819384 0 1874.83937607 0 246.89190079 0 538.93524743 0 33633
0.17650000 0.17650100 8052.36379830 0 78.95343148 0 1701.95816783 0 209.90341549 0 426.91204631 0 33984
0.17750000 0.17750300 7850.67280224 0 171.77288008 0 1564.86719151 0 46.91420470 0 188.92836123 0 34069
