### header ###
fiducial parameters:
Omega_m = 0.31
Omega_nu = 0
Omega_de = 0.69
Omega_k = 0
H_0 = 100
w_de = -1
zeff = 0
beta = 0
fgrowth = 0
b_1 = 2
gamma = 0.55
Lx = 3500 Ly = 3500 Lz = 3500
nx = 700 ny = 700 nz = 700
xoffset = 857.220397 yoffset = 15.9954215 zoffset = 262.898189
bins = 400 dk = 0.001
kx_ny = 0.628318531 ky_ny = 0.628318531 kz_ny = 0.628318531
############################
A(data) = 3.05245236 (not used)
A(ran) = 3.05048112 (used)
Ngal = 186410
weighted Ngal = 0
Nran = 9360983
weighted Nran = 0
SN(data) = 3449.1291
SN(ran) = 68.5023416
SN(data+ran) = 3517.63144
############################
13 columns: k_central k_mean P_0(k) sigma^{lin}_{P_0(k)} P^img_1(k) sigma^{lin}_{P_1(k)} P_2(k) sigma^{lin}_{P_2(k)} P^img_3(k) sigma^{lin}_{P_3(k)} P_4(k) sigma^{lin}_{P_4(k)} N_modes
### header ###
0.00050000 0 0 0 0 0 0 0 0 0 0 0 0
0.00150000 0.00179520 1367.03173865 0 -5013.79109270 0 1760.64560530 0 -22653.50823118 0 3218.17582298 0 3
0.00250000 0.00253879 5988.42295498 0 -8075.59822336 0 -11778.40346196 0 12568.17158232 0 -13693.24831399 0 6
0.00350000 0.00331552 14057.44539767 0 -12594.81192455 0 -10425.52370258 0 666.98536836 0 7415.36736203 0 7
0.00450000 0.00420575 28585.42443494 0 -22085.29333673 0 -23412.25215552 0 10156.20895172 0 -5463.50704715 0 24
0.00550000 0.00557378 52966.50827697 0 -22807.84236572 0 -25219.97360608 0 5550.63333096 0 -1204.67177949 0 45
0.00650000 0.00659388 81923.66103158 0 -23332.21872232 0 -50122.28642250 0 -16871.54230817 0 -37959.00307951 0 40
0.00750000 0.00754703 82860.68167652 0 -7374.94598200 0 -17061.62171203 0 -35611.95520688 0 3585.50904822 0 57
0.00850000 0.00846663 86854.93450727 0 6114.85779441 0 -9466.12292204 0 -45994.94428710 0 -13095.13328859 0 75
0.00950000 0.00948925 78735.25045173 0 6370.49267333 0 16202.49877667 0 -31527.32754425 0 13068.60535286 0 112
0.01050000 0.01054430 85914.09204108 0 4733.23569111 0 28048.90817555 0 -25232.45072839 0 -1421.14423127 0 105
0.01150000 0.01145670 83756.11191375 0 1775.32589515 0 34507.89849208 0 -859.51073782 0 -7570.36469496 0 144
0.01250000 0.01249090 86239.50887974 0 4947.58365990 0 43917.89684503 0 -5775.52503014 0 -16488.57333777 0 169
0.01350000 0.01339930 85934.32521240 0 3496.70790744 0 44433.61790056 0 -4331.44987138 0 -5853.97353159 0 180
0.01450000 0.01448870 81801.47515813 0 5092.35200066 0 48470.69761060 0 7454.22629161 0 -6820.57956925 0 267
0.01550000 0.01550050 78511.56150219 0 2180.51763205 0 39143.54285355 0 18469.17599657 0 -25813.14274516 0 238
0.01650000 0.01653350 76768.36138683 0 -1709.65801358 0 42205.15889315 0 18643.96811544 0 -21364.54281186 0 315
0.01750000 0.01747870 85519.09557440 0 -1051.64718076 0 47143.40157228 0 -1432.13758768 0 -24914.56512572 0 297
0.01850000 0.01844180 79971.27240611 0 4313.61095867 0 37206.21670006 0 -6016.32225010 0 -23080.09092642 0 388
0.01950000 0.01947590 73657.96092305 0 2917.45469398 0 36487.82671184 0 -9180.39682111 0 -27222.60794031 0 399
0.02050000 0.02045430 76762.51624845 0 380.69948302 0 39420.40008105 0 -7599.30937059 0 -26928.66492370 0 462
0.02150000 0.02154770 77901.30657400 0 347.36196108 0 41446.07774928 0 -3941.10703409 0 -36755.01697972 0 571
0.02250000 0.02255340 81793.60670262 0 -1964.30371524 0 37199.13509010 0 -2660.36977111 0 -42235.17143060 0 510
0.02350000 0.02348930 77353.32485087 0 343.29509365 0 30858.05919973 0 -1309.69317927 0 -46647.68887505 0 555
0.02450000 0.02439640 81718.74396875 0 1758.84710118 0 39649.82176247 0 1705.31912240 0 -54375.86106562 0 592
0.02550000 0.02547300 77137.27954382 0 3118.15651278 0 33613.14269390 0 -3839.53651409 0 -43449.16170954 0 837
0.02650000 0.02652900 73391.66990724 0 6023.37013811 0 33141.26017621 0 2042.63981018 0 -48628.40394036 0 723
0.02750000 0.02749970 71934.88157250 0 3024.54437349 0 39194.57540786 0 -3779.20794162 0 -31244.96239789 0 826
0.02850000 0.02848090 70028.91683455 0 2261.84374009 0 35564.96928683 0 2978.42398354 0 -38891.07783813 0 831
0.02950000 0.02946900 68484.33901761 0 -499.74809085 0 34662.00781361 0 2327.65775012 0 -25516.05234634 0 996
0.03050000 0.03053250 68236.25785597 0 137.83173520 0 35650.51063889 0 6444.72593076 0 -21045.30833110 0 1041
0.03150000 0.03150510 67824.96244573 0 3045.65431556 0 31801.48701558 0 6879.91896446 0 -23300.29527424 0 1036
0.03250000 0.03246190 62558.60517175 0 4509.31068790 0 35737.17605603 0 6415.87118033 0 -9587.37582148 0 1059
0.03350000 0.03345080 57653.41000576 0 5249.11411576 0 25488.17553252 0 5222.15903530 0 -12064.81524259 0 1302
0.03450000 0.03451200 55825.11816437 0 2879.07911238 0 27616.81756145 0 7036.19773157 0 -870.09830674 0 1339
0.03550000 0.03553350 52642.55272290 0 2192.70249744 0 27147.85761295 0 1853.72943400 0 -1849.43550542 0 1365
0.03650000 0.03647120 53006.52499357 0 -346.56724708 0 26569.52613284 0 2019.31545992 0 2227.85201228 0 1308
0.03750000 0.03744890 52553.18954959 0 198.35926719 0 25851.13614463 0 -736.58185736 0 255.61352169 0 1579
0.03850000 0.03847530 52943.12772345 0 940.98297432 0 25105.09415561 0 -793.25946648 0 2771.12390276 0 1662
0.03950000 0.03950240 51053.23711604 0 1638.61710096 0 27342.77049663 0 597.76431709 0 -4379.43620935 0 1683
0.04050000 0.04050350 49937.60253099 0 2589.53119020 0 29139.92573550 0 21.67208702 0 154.34762332 0 1822
0.04150000 0.04152450 48073.00338774 0 2615.75562836 0 27178.76940246 0 3989.72284851 0 -1896.39894417 0 1887
0.04250000 0.04250150 46426.58527517 0 2535.72219515 0 28841.14923907 0 3781.63592217 0 4655.55155391 0 1920
0.04350000 0.04349210 43326.97583610 0 1062.79341003 0 22791.88064168 0 7049.87760351 0 4048.92735591 0 2005
0.04450000 0.04448520 43339.67777142 0 396.05083973 0 23782.29437759 0 9252.89901833 0 9824.22757303 0 2151
0.04550000 0.04548030 41486.88131143 0 604.50196314 0 15602.24802763 0 8755.89364625 0 10475.88181786 0 2274
0.04650000 0.04648670 41297.36394011 0 50.90351165 0 16144.49701889 0 9403.68110723 0 11764.68986807 0 2311
0.04750000 0.04749250 41333.78364848 0 -482.41163523 0 12267.25936225 0 5129.13140985 0 14451.43020579 0 2568
0.04850000 0.04851840 41432.58896840 0 -125.98071713 0 7123.49262515 0 3430.64660310 0 14195.48058865 0 2493
0.04950000 0.04949480 40768.82854274 0 436.93870676 0 6817.99421958 0 -56.35163024 0 13762.15350297 0 2644
0.05050000 0.05050630 39972.54084496 0 1620.13747116 0 8598.36716691 0 -1532.35922960 0 11373.62762914 0 2829
0.05150000 0.05149060 39005.39525606 0 2677.82650169 0 10295.69418664 0 -1814.44335970 0 8980.11090639 0 2784
0.05250000 0.05249300 36432.63511675 0 2585.00120796 0 12374.15795070 0 -3145.89843878 0 8638.18155180 0 3055
0.05350000 0.05348950 34623.67719461 0 2068.00995888 0 11604.73540817 0 -2631.52626133 0 5765.22859407 0 3009
0.05450000 0.05448610 34161.01201053 0 763.64372400 0 16645.60522848 0 -1379.85732113 0 7814.05076216 0 3336
0.05550000 0.05550870 34481.70777588 0 -188.97107570 0 14735.48144976 0 850.30014861 0 5761.47421672 0 3349
0.05650000 0.05647670 34158.53906737 0 -526.04896543 0 13544.53450482 0 1337.80604675 0 3140.90758986 0 3324
0.05750000 0.05747970 35343.07884140 0 -329.61971797 0 13303.64735965 0 2819.89708628 0 4552.81200622 0 3639
0.05850000 0.05849280 33919.56283282 0 -8.94257837 0 11490.86761626 0 2137.83688123 0 2834.54365418 0 3846
0.05950000 0.05951020 34333.55599925 0 1298.14903097 0 11173.35295506 0 1552.73852938 0 4780.15416726 0 3787
0.06050000 0.06049470 33252.99224448 0 504.28032122 0 11978.93667100 0 1992.72008029 0 4894.76384211 0 3930
0.06150000 0.06148310 32965.68121179 0 709.76278878 0 11834.94393514 0 260.21544410 0 6849.64789204 0 4083
0.06250000 0.06249100 32864.40294871 0 210.19005208 0 12550.41135417 0 -1125.98722437 0 5181.80509918 0 4303
0.06350000 0.06350600 34178.65983217 0 -34.16584549 0 16828.82783540 0 -2511.17261395 0 9141.23439396 0 4470
0.06450000 0.06451750 33702.05624118 0 471.19796206 0 15555.03729456 0 -3096.93416420 0 3690.90138947 0 4479
0.06550000 0.06550280 35002.82434377 0 1102.69097573 0 20569.82880518 0 -1829.79808859 0 7815.48956545 0 4636
0.06650000 0.06648880 32943.87434937 0 -8.77119217 0 17088.93649331 0 350.10917612 0 3820.24755743 0 4653
0.06750000 0.06749660 33413.28392390 0 544.94449931 0 19138.21952808 0 2009.94075721 0 4278.58509099 0 5220
0.06850000 0.06852730 33235.90645537 0 -121.72500677 0 15579.42950665 0 4190.85181204 0 2980.04263725 0 5029
0.06950000 0.06949320 31741.91156671 0 698.82563562 0 15965.32104624 0 3385.72896278 0 951.89539805 0 5040
0.07050000 0.07048030 31725.61262315 0 1564.30515898 0 13596.46631119 0 718.97000580 0 4062.94444737 0 5475
0.07150000 0.07148790 29146.22049991 0 1475.32416779 0 12449.91993663 0 687.98290393 0 1810.11570916 0 5509
0.07250000 0.07249820 29168.81420788 0 1395.50430695 0 14621.50125135 0 -1437.35324962 0 4285.23955622 0 5916
0.07350000 0.07351270 27725.96428005 0 660.99410152 0 13157.85611967 0 -27.27611344 0 2803.17099799 0 5721
0.07450000 0.07449140 27574.55271470 0 287.22223154 0 13963.24874454 0 1396.47100291 0 2337.97666749 0 6028
0.07550000 0.07549160 27504.41105414 0 -316.27369336 0 12804.33765418 0 1208.86454221 0 959.85377877 0 6183
0.07650000 0.07648840 27260.82615280 0 -111.64248028 0 11740.97209503 0 2055.45415202 0 -1473.52566367 0 6330
0.07750000 0.07749960 27091.76676581 0 929.23199804 0 10927.63233009 0 922.60675850 0 -1221.34166453 0 6583
0.07850000 0.07848650 25805.61150917 0 1011.45286188 0 9006.91985838 0 832.23417476 0 -2278.38997797 0 6549
0.07950000 0.07947320 24912.42940208 0 1179.42527795 0 9716.77819269 0 607.89776373 0 1523.38919032 0 6828
0.08050000 0.08048110 24126.37069646 0 406.08536863 0 8214.80244202 0 1157.65213748 0 -1903.05340941 0 7147
0.08150000 0.08149960 24200.67139779 0 194.26991845 0 8967.86983774 0 719.81755086 0 -91.95830235 0 7386
0.08250000 0.08250610 23626.61136496 0 297.04318809 0 8703.09630977 0 384.88550135 0 -1220.37496856 0 7227
0.08350000 0.08350160 23767.45671862 0 603.48018799 0 9612.15021569 0 -1308.08576622 0 746.61526220 0 7798
0.08450000 0.08449610 23236.11115857 0 446.75966330 0 9131.26393677 0 -466.66910388 0 6.91373084 0 7371
0.08550000 0.08548940 23285.57002178 0 479.15634278 0 10863.89784044 0 156.76436322 0 1788.64606627 0 8256
0.08650000 0.08650700 22593.03353025 0 32.63801624 0 9737.32610223 0 792.80084793 0 1298.18275292 0 8037
0.08750000 0.08749060 22692.96291525 0 162.40154957 0 9871.57319391 0 1427.29286722 0 146.04415462 0 8155
0.08850000 0.08849210 22517.04673131 0 224.59382193 0 9441.10123351 0 1126.60546016 0 1727.69925800 0 8718
0.08950000 0.08949900 21925.90090936 0 643.95215095 0 8311.40459440 0 1286.53743876 0 381.69877687 0 8571
0.09050000 0.09049190 21382.86507255 0 558.63561190 0 8219.28746166 0 1200.79375499 0 2499.45985589 0 8932
0.09150000 0.09150830 20605.46166799 0 408.92925327 0 6580.82772981 0 1881.06669658 0 970.69201420 0 9285
0.09250000 0.09250820 20467.20166400 0 -11.44365688 0 6697.39327789 0 2135.20656895 0 1725.47360916 0 9204
0.09350000 0.09350330 20121.55165403 0 -33.15564821 0 4613.29794781 0 1695.86573513 0 1464.87036261 0 9349
0.09450000 0.09448040 20028.81628549 0 231.25952781 0 5005.95635914 0 753.17755410 0 1448.45901254 0 9564
0.09550000 0.09549270 19725.76834179 0 718.04265211 0 4635.44202975 0 -291.10587637 0 2965.94686123 0 10155
0.09650000 0.09649430 18953.98526260 0 617.88845410 0 4878.25132619 0 134.73156373 0 2173.15500582 0 9913
0.09750000 0.09749140 18862.26155263 0 422.07519430 0 5155.35584801 0 -300.80430982 0 4137.13274219 0 10476
0.09850000 0.09850240 18648.80159525 0 216.93331846 0 4633.19389960 0 279.85398499 0 2657.31231411 0 10575
0.09950000 0.09950330 18273.13904782 0 -49.33476643 0 5207.27641373 0 522.66777769 0 2594.83677734 0 10882
0.10050000 0.10051200 18544.48835647 0 -134.89230503 0 4415.18147867 0 -45.36737876 0 1992.68635834 0 10875
0.10150000 0.10150300 18514.81303854 0 -41.95505441 0 4646.40166421 0 247.10210095 0 1369.57212571 0 11118
0.10250000 0.10250800 18262.46042963 0 369.79155555 0 3776.42026023 0 -720.24019933 0 81.51281525 0 11575
0.10350000 0.10349800 17894.77874422 0 688.82595273 0 4611.82542256 0 -625.14092195 0 -69.26769997 0 11364
0.10450000 0.10450100 17361.29746052 0 921.87611621 0 5401.08771364 0 -1184.07890735 0 -21.44075442 0 12093
0.10550000 0.10551000 16646.95410657 0 801.31788899 0 5799.82731702 0 -481.49439813 0 361.51506442 0 12067
0.10650000 0.10649700 16224.30563908 0 280.87238795 0 6206.73887348 0 -171.14452770 0 860.95628550 0 12054
0.10750000 0.10749900 16307.37404799 0 160.87506920 0 6551.43342815 0 -135.33968293 0 792.18823246 0 12807
0.10850000 0.10850100 16151.35381584 0 232.80961355 0 6800.33515728 0 201.54374354 0 1214.05772285 0 12736
0.10950000 0.10950300 15805.59139935 0 217.68756612 0 6996.78801011 0 544.29366563 0 1152.86362027 0 12933
0.11050000 0.11050200 15684.07996495 0 253.79478440 0 6540.41759043 0 266.35508753 0 1712.80539579 0 13428
0.11150000 0.11150900 15612.13980027 0 176.97280511 0 6552.37764281 0 433.73961756 0 1281.76016220 0 13453
0.11250000 0.11250000 15401.26519256 0 230.87397349 0 5871.73375974 0 750.31568442 0 727.58371645 0 13668
0.11350000 0.11349100 15165.66115324 0 242.47207692 0 5991.61529979 0 584.77237298 0 920.68685536 0 13791
0.11450000 0.11448600 15034.14553969 0 192.57932458 0 5818.97014521 0 546.99029774 0 1564.57493460 0 14205
0.11550000 0.11549300 14920.61496730 0 137.15729615 0 5660.25215689 0 632.53277387 0 1848.77230703 0 14776
0.11650000 0.11649800 14786.62641059 0 284.92913879 0 5390.74631497 0 267.58369065 0 1938.54014377 0 14553
0.11750000 0.11747300 14636.67612984 0 134.54946518 0 6053.24778775 0 299.22499839 0 2257.05522288 0 14568
0.11850000 0.11849100 14547.53776954 0 94.15888454 0 5926.27339709 0 180.45515871 0 2139.30940647 0 16015
0.11950000 0.11950300 14455.25202704 0 -61.97802556 0 5524.43137411 0 -110.99299548 0 1436.94858620 0 15270
0.12050000 0.12050700 14339.58573102 0 -106.26641425 0 5004.16909568 0 211.73676562 0 382.05060924 0 15999
0.12150000 0.12150000 14707.04260341 0 46.49335474 0 5392.08395240 0 -537.49082381 0 308.58846045 0 15670
0.12250000 0.12250700 14405.68075732 0 209.65274898 0 4349.54731906 0 -27.87063145 0 -785.45058641 0 16887
0.12350000 0.12352200 14309.57319357 0 331.44632371 0 4760.26945612 0 -418.20616232 0 -591.20202520 0 16407
0.12450000 0.12449800 14065.20144667 0 368.26282705 0 4397.79219199 0 -17.46055241 0 -665.79835564 0 16306
0.12550000 0.12549900 13806.55407335 0 388.69270976 0 5506.89595897 0 292.39630307 0 -103.04754151 0 17523
0.12650000 0.12650100 13432.24040401 0 336.62039525 0 5053.57175564 0 67.36713074 0 -63.70031807 0 17154
0.12750000 0.12750600 13262.39417147 0 326.58586634 0 5727.23519460 0 177.09195601 0 843.56699882 0 18007
0.12850000 0.12850300 13036.45709177 0 286.31286290 0 5950.89042219 0 -133.26578287 0 1548.66941381 0 17496
0.12950000 0.12949900 12918.99229164 0 109.68739390 0 5986.96167039 0 265.28610164 0 1567.02539646 0 18405
0.13050000 0.13049000 12999.02572484 0 8.50384453 0 6729.31672596 0 199.75423195 0 1904.50345335 0 18100
0.13150000 0.13148800 12818.05124807 0 -65.77556700 0 6127.41360127 0 25.13488188 0 1598.64534696 0 19059
0.13250000 0.13249300 12963.39286202 0 55.14326029 0 6662.86199884 0 107.96038032 0 1186.90031069 0 18957
0.13350000 0.13349100 13050.05827916 0 229.92526257 0 6081.28197067 0 -229.07771751 0 1176.73876242 0 19468
0.13450000 0.13450700 12709.24174900 0 133.11853035 0 5845.04845491 0 321.77711596 0 673.92534612 0 19953
0.13550000 0.13551000 12715.76132642 0 115.69327358 0 5637.45611721 0 516.78329703 0 818.51833273 0 19956
0.13650000 0.13649900 12445.64848935 0 -101.45564055 0 4376.47991821 0 1154.25746096 0 220.57978555 0 19723
0.13750000 0.13749600 12373.93313769 0 35.22381554 0 4572.75292062 0 1070.87431384 0 97.97160086 0 20946
0.13850000 0.13851100 12284.23274486 0 37.62897757 0 3365.25973780 0 623.93592419 0 -490.25198911 0 20955
0.13950000 0.13949800 12006.02663926 0 243.85355289 0 3680.35765909 0 566.43100318 0 299.95002037 0 20506
0.14050000 0.14048300 11850.23122013 0 305.96489257 0 3249.27870355 0 111.17846622 0 730.33767588 0 21447
0.14150000 0.14148400 11690.38916674 0 346.93818855 0 3150.54082753 0 -25.31372063 0 772.20909985 0 21771
0.14250000 0.14249400 11575.95934230 0 237.56890507 0 3680.13284607 0 189.18015180 0 1189.87908313 0 22470
0.14350000 0.14350900 11418.47782556 0 113.60476068 0 3285.50732086 0 232.84783176 0 1147.15336970 0 22519
0.14450000 0.14449900 11314.05218026 0 56.56587705 0 3717.51925040 0 334.44532933 0 1525.18769443 0 22218
0.14550000 0.14550500 11329.11465224 0 -70.48596169 0 3239.22956180 0 189.64326661 0 1157.56221228 0 23559
0.14650000 0.14650700 11350.58429514 0 105.21147918 0 3443.05628151 0 37.55849869 0 1181.14509751 0 23044
0.14750000 0.14750500 11214.66234650 0 79.75938614 0 3338.63063621 0 -61.38946509 0 1117.49041649 0 23649
0.14850000 0.14849900 11092.79121128 0 228.57301229 0 3423.56499314 0 -298.42241593 0 935.54587156 0 23640
0.14950000 0.14949500 10864.03272825 0 287.11319723 0 3391.43921335 0 -112.09075743 0 633.45338316 0 24457
0.15050000 0.15050000 10675.07738946 0 286.53430372 0 3779.94982456 0 -264.18901413 0 609.09826523 0 24591
0.15150000 0.15149900 10597.80915634 0 178.23962645 0 3716.40642598 0 -25.14702178 0 592.09902912 0 25020
0.15250000 0.15250500 10485.27900187 0 152.16918521 0 3638.02536843 0 58.75083474 0 305.16343418 0 25297
0.15350000 0.15350100 10445.68942999 0 83.14102351 0 3555.60891727 0 110.86215431 0 411.01664211 0 25452
0.15450000 0.15450400 10278.55219427 0 62.53972088 0 3003.50187532 0 502.09289059 0 357.47292642 0 26061
0.15550000 0.15549900 10277.61922026 0 109.94840181 0 3079.44371166 0 580.60658782 0 445.17360749 0 26128
0.15650000 0.15649500 10054.98689189 0 135.91632831 0 2455.93605626 0 476.60246693 0 236.07614665 0 26331
0.15750000 0.15749700 9946.94175706 0 251.03295651 0 2856.14818489 0 151.27892567 0 286.62422892 0 27345
0.15850000 0.15849900 9646.71521669 0 232.71744021 0 2638.73151845 0 -187.07365386 0 291.91070696 0 26980
0.15950000 0.15949700 9550.67509684 0 229.72742712 0 2792.16640093 0 -323.84764382 0 248.75897287 0 27777
0.16050000 0.16050000 9361.77596131 0 125.12080735 0 2832.50909640 0 -415.01156938 0 221.58807193 0 28224
0.16150000 0.16150500 9397.63363714 0 23.28039932 0 3055.32127519 0 55.92257461 0 -88.09994898 0 28075
0.16250000 0.16249700 9299.23298064 0 23.55849302 0 3109.51245236 0 75.28144811 0 -252.69882095 0 28590
0.16350000 0.16349900 9421.27272563 0 2.38023027 0 3106.16273845 0 254.47371970 0 -156.32372972 0 29163
0.16450000 0.16449100 9386.30306120 0 91.85893499 0 3060.08731110 0 53.14883163 0 -24.91490235 0 28996
0.16550000 0.16550500 9365.56406060 0 191.88465237 0 2989.65339362 0 286.62535299 0 483.36034615 0 30777
0.16650000 0.16650700 9121.18107306 0 183.48788627 0 2826.43914501 0 392.76632158 0 718.97899832 0 29211
0.16750000 0.16749900 9014.46233502 0 174.80111139 0 2591.27349106 0 387.00211589 0 1013.75944341 0 30922
0.16850000 0.16850800 8892.27646157 0 62.12685178 0 2469.05389567 0 573.84870860 0 819.90767716 0 30867
0.16950000 0.16949900 8815.39041057 0 7.79490793 0 2415.02008760 0 236.52689675 0 1188.68757415 0 30852
0.17050000 0.17049200 8756.23086578 0 -30.53073145 0 2103.13699242 0 -19.86874942 0 503.66433356 0 31257
0.17150000 0.17149500 8818.86377165 0 27.81645152 0 2085.79266834 0 -236.35154260 0 611.74881067 0 32608
0.17250000 0.17250900 8704.93977649 0 119.64773451 0 2090.62614816 0 -179.03996078 0 218.48790045 0 32361
0.17350000 0.17350400 8656.47009054 0 180.64512570 0 2090.91840507 0 -205.51618951 0 -19.76623468 0 32508
0.17450000 0.17449800 8427.18329693 0 283.54653875 0 2176.39231323 0 3.09602367 0 -222.91334465 0 32791
0.17550000 0.17549800 8242.92655015 0 273.20401602 0 2150.93223933 0 124.45760896 0 -175.33391823 0 33633
0.17650000 0.17650100 7899.00760038 0 268.31770514 0 1800.52743409 0 169.38536587 0 -152.48729562 0 33984
0.17750000 0.17750300 7801.84341546 0 168.22533071 0 1844.55706300 0 188.01000006 0 -100.84471119 0 34069
