### header ###
fiducial parameters:
Omega_m = 0.31
Omega_nu = 0
Omega_de = 0.69
Omega_k = 0
H_0 = 100
w_de = -1
zeff = 0
beta = 0
fgrowth = 0
b_1 = 2
gamma = 0.55
Lx = 3500 Ly = 3500 Lz = 3500
nx = 700 ny = 700 nz = 700
xoffset = 857.220397 yoffset = 15.9954215 zoffset = 262.898189
bins = 400 dk = 0.001
kx_ny = 0.628318531 ky_ny = 0.628318531 kz_ny = 0.628318531
############################
A(data) = 3.07831083 (not used)
A(ran) = 3.08294454 (used)
Ngal = 187521
weighted Ngal = 0
Nran = 9360983
weighted Nran = 0
SN(data) = 3430.42004
SN(ran) = 69.2313481
SN(data+ran) = 3499.65139
############################
13 columns: k_central k_mean P_0(k) sigma^{lin}_{P_0(k)} P^img_1(k) sigma^{lin}_{P_1(k)} P_2(k) sigma^{lin}_{P_2(k)} P^img_3(k) sigma^{lin}_{P_3(k)} P_4(k) sigma^{lin}_{P_4(k)} N_modes
### header ###
0.00050000 0 0 0 0 0 0 0 0 0 0 0 0
0.00150000 0.00179520 4817.00102035 0 -5971.91043906 0 -10433.61697111 0 22386.76758933 0 16737.66615797 0 3
0.00250000 0.00253879 9764.42731114 0 -6514.89007262 0 3697.15119128 0 -14001.46695703 0 -10329.89948681 0 6
0.00350000 0.00331552 14894.76147062 0 -6204.69307505 0 -11084.55181429 0 5644.02065724 0 12237.35923131 0 7
0.00450000 0.00420575 22155.65981031 0 -7244.09356684 0 -4314.21795381 0 -6102.44811600 0 -391.91315619 0 24
0.00550000 0.00557378 34119.98363536 0 -11365.98398664 0 -17040.82650818 0 -1603.46758613 0 7053.69942476 0 45
0.00650000 0.00659388 50710.50967526 0 -13894.56836858 0 2219.93859416 0 4.70773065 0 -17660.07395695 0 40
0.00750000 0.00754703 54582.46422605 0 -9431.37807063 0 -22841.78913093 0 4908.57860186 0 -183.74192498 0 57
0.00850000 0.00846663 60436.48272025 0 -7173.92942498 0 -9733.31318992 0 -2781.75755835 0 -2366.28062603 0 75
0.00950000 0.00948925 60295.86217960 0 -6047.82979410 0 -26058.52615061 0 2193.27577063 0 -4444.57578034 0 112
0.01050000 0.01054430 63452.91134391 0 -5909.87328768 0 -19335.04332238 0 -1107.49635392 0 -12388.54598364 0 105
0.01150000 0.01145670 66351.76276092 0 -9027.46776792 0 -33594.03358765 0 5257.65701031 0 -9093.30425925 0 144
0.01250000 0.01249090 72302.90047743 0 -10002.07714890 0 -26561.88249035 0 -12679.56643107 0 -20938.40974265 0 169
0.01350000 0.01339930 82325.51429521 0 -5712.71227385 0 -27468.55337831 0 -17758.65446386 0 -20985.17084969 0 180
0.01450000 0.01448870 83490.15811745 0 -5120.70092180 0 -17745.72771552 0 -15321.56897888 0 -14091.39216288 0 267
0.01550000 0.01550050 92635.88877171 0 -427.14472778 0 -4699.21024134 0 -32828.32045986 0 -34213.16862992 0 238
0.01650000 0.01653350 93038.64128740 0 1338.53668905 0 3710.25779003 0 -21279.78830535 0 -11603.83615611 0 315
0.01750000 0.01747870 98361.53903455 0 3845.31420856 0 33757.02302325 0 -22588.08764393 0 -13894.23114906 0 297
0.01850000 0.01844180 94906.72503238 0 8229.14551235 0 29584.15625239 0 -18881.93269141 0 -10360.35040964 0 388
0.01950000 0.01947590 87261.62125071 0 7643.58629382 0 41645.59929976 0 3447.87852067 0 -3016.40614236 0 399
0.02050000 0.02045430 80827.24795928 0 6905.05305949 0 51402.70894727 0 2207.54015641 0 -6382.32907855 0 462
0.02150000 0.02154770 76039.74240644 0 7489.88163572 0 33243.66250437 0 17764.83682177 0 6292.14533773 0 571
0.02250000 0.02255340 70027.68036297 0 2164.17372589 0 54973.75127800 0 21485.94183975 0 9290.09433159 0 510
0.02350000 0.02348930 72130.69370823 0 1235.50488445 0 24674.91445214 0 12817.93884156 0 19504.66474191 0 555
0.02450000 0.02439640 69429.79015059 0 -1374.07962666 0 43374.74860170 0 10839.98897634 0 12271.53080953 0 592
0.02550000 0.02547300 72337.63408819 0 1962.50521112 0 29437.91538638 0 -3731.16540039 0 22298.30366808 0 837
0.02650000 0.02652900 71384.98893874 0 3094.60734950 0 46433.21725910 0 -3844.86458254 0 23840.18372885 0 723
0.02750000 0.02749970 69237.01299055 0 4249.44932430 0 46264.94471766 0 -2409.54589070 0 29545.60082038 0 826
0.02850000 0.02848090 65847.84438865 0 1798.77389258 0 48986.08144662 0 1618.09167273 0 21745.03883910 0 831
0.02950000 0.02946900 66077.60328959 0 1478.38162479 0 48060.63867193 0 8248.98526089 0 16224.64285861 0 996
0.03050000 0.03053250 62574.22967627 0 2656.61539376 0 44959.56794827 0 8389.43719177 0 9189.87268968 0 1041
0.03150000 0.03150510 60076.10745781 0 2409.66953785 0 39440.29603284 0 10088.69760343 0 1452.89906958 0 1036
0.03250000 0.03246190 55226.44110643 0 1492.94950814 0 31191.34449391 0 2554.43787862 0 -86.08641122 0 1059
0.03350000 0.03345080 55801.62520434 0 480.65584558 0 24967.17137114 0 7969.17174224 0 -10695.80514941 0 1302
0.03450000 0.03451200 52814.87189861 0 954.24581812 0 20242.38864938 0 3059.87373874 0 -14894.31184459 0 1339
0.03550000 0.03553350 52074.67504797 0 2277.60313241 0 13832.18275702 0 328.64402949 0 -19536.92540951 0 1365
0.03650000 0.03647120 48990.80251992 0 2334.15484624 0 16254.20577003 0 -1703.95900366 0 -17733.81262575 0 1308
0.03750000 0.03744890 46574.39983228 0 3474.97972958 0 10637.28632170 0 -531.33769160 0 -16837.37072995 0 1579
0.03850000 0.03847530 43613.16280371 0 2112.29812276 0 9471.14749292 0 380.67362953 0 -16038.16046298 0 1662
0.03950000 0.03950240 41280.72777703 0 401.76895875 0 8576.85256141 0 2700.71246658 0 -14175.80944987 0 1683
0.04050000 0.04050350 41310.85272099 0 218.72058192 0 7196.88283377 0 387.50794517 0 -14409.61498507 0 1822
0.04150000 0.04152450 42148.05638743 0 835.50408005 0 7712.52520475 0 975.37599336 0 -13347.26108449 0 1887
0.04250000 0.04250150 40454.53994830 0 1444.88448561 0 9792.39405016 0 -5207.62487391 0 -15535.47856229 0 1920
0.04350000 0.04349210 39858.33583353 0 1820.07492571 0 11715.90544390 0 -5207.78224302 0 -9307.60726543 0 2005
0.04450000 0.04448520 39892.95703778 0 1314.93132251 0 17514.95715602 0 -2386.69364776 0 -8954.05507799 0 2151
0.04550000 0.04548030 39685.45462529 0 503.98131991 0 22852.91737515 0 -2383.14160213 0 -102.59746586 0 2274
0.04650000 0.04648670 41033.77068047 0 -367.04883677 0 24918.72416649 0 1981.92905559 0 -1358.88226687 0 2311
0.04750000 0.04749250 41747.43959538 0 132.30358317 0 28871.94862207 0 2685.87480762 0 6100.32363301 0 2568
0.04850000 0.04851840 41276.34392324 0 716.88261695 0 23860.07968065 0 6726.58524784 0 8802.91328826 0 2493
0.04950000 0.04949480 41244.98250770 0 748.88587365 0 30196.99653024 0 5864.03391399 0 13324.89218953 0 2644
0.05050000 0.05050630 39344.63809512 0 488.00947929 0 21124.55491875 0 4834.58139810 0 13138.18498089 0 2829
0.05150000 0.05149060 39599.57605370 0 1304.08409456 0 22067.19588905 0 5747.09742444 0 11291.34606579 0 2784
0.05250000 0.05249300 37663.37396529 0 1321.16988367 0 17121.98400646 0 130.24092376 0 11257.73652010 0 3055
0.05350000 0.05348950 37385.39267271 0 734.70354462 0 17738.53369906 0 1142.06135492 0 5826.81611942 0 3009
0.05450000 0.05448610 35854.07882363 0 632.54289045 0 16435.96709235 0 -4664.76888750 0 3969.83813736 0 3336
0.05550000 0.05550870 36671.49894479 0 827.43216876 0 18908.23581412 0 -3092.10068438 0 -815.75200859 0 3349
0.05650000 0.05647670 36037.30143054 0 696.42575669 0 19896.73863941 0 -5379.98901222 0 -4408.67314190 0 3324
0.05750000 0.05747970 35736.61402349 0 970.76957469 0 20853.88004915 0 -1535.58529636 0 -6503.98664141 0 3639
0.05850000 0.05849280 35367.02142745 0 499.48843182 0 22506.70533263 0 -252.66285087 0 -7798.08903812 0 3846
0.05950000 0.05951020 35094.99767976 0 230.51090048 0 21042.04854239 0 3002.07431268 0 -8583.46206404 0 3787
0.06050000 0.06049470 35094.21083421 0 481.95751294 0 20763.05559124 0 2563.37419595 0 -7081.90221744 0 3930
0.06150000 0.06148310 34549.93852582 0 305.10835499 0 18044.61661846 0 4494.59667609 0 -6794.86096038 0 4083
0.06250000 0.06249100 34057.03599126 0 844.03910615 0 17701.88917767 0 3962.94761846 0 -4658.23806943 0 4303
0.06350000 0.06350600 32482.78285639 0 398.03931084 0 13865.67989620 0 4468.34975663 0 -3557.47486530 0 4470
0.06450000 0.06451750 31365.01254770 0 399.43090340 0 11986.01828096 0 3568.98529164 0 -4926.00161049 0 4479
0.06550000 0.06550280 31141.32359815 0 610.21670997 0 11127.96320741 0 2983.01016904 0 -2225.37906912 0 4636
0.06650000 0.06648880 30718.67513067 0 105.38975590 0 7188.96941566 0 1138.57675319 0 -4544.37027753 0 4653
0.06750000 0.06749660 30041.87555015 0 337.82539300 0 8573.53656945 0 1160.59718797 0 -2310.11109433 0 5220
0.06850000 0.06852730 30129.21540633 0 338.48746733 0 8132.40847216 0 -565.88245942 0 -2876.30267165 0 5029
0.06950000 0.06949320 29451.29176075 0 447.55887357 0 8502.38325032 0 -109.15020320 0 -3056.47906222 0 5040
0.07050000 0.07048030 29898.10762730 0 852.89224267 0 9638.57698556 0 -459.04007423 0 -1611.67326116 0 5475
0.07150000 0.07148790 29062.02802593 0 810.85220894 0 10092.35081492 0 367.65470785 0 -2024.01405192 0 5509
0.07250000 0.07249820 28187.39299256 0 745.23940655 0 10697.82846654 0 90.41215084 0 822.14231853 0 5916
0.07350000 0.07351270 27505.87233874 0 201.20202776 0 10211.22069640 0 1060.62284037 0 656.33934805 0 5721
0.07450000 0.07449140 27891.08943929 0 -194.58915293 0 9656.37093566 0 1704.04892887 0 993.37677144 0 6028
0.07550000 0.07549160 27651.10154618 0 242.56087806 0 9662.49709031 0 -297.73786030 0 2055.62276178 0 6183
0.07650000 0.07648840 27548.02477898 0 267.22736202 0 10775.26530943 0 -654.04400717 0 -291.09351166 0 6330
0.07750000 0.07749960 27316.80459344 0 671.70194541 0 9207.21701375 0 -2090.89592377 0 337.20378502 0 6583
0.07850000 0.07848650 26711.04592555 0 684.11724414 0 11423.87333791 0 -628.17477358 0 909.60694593 0 6549
0.07950000 0.07947320 25808.08445233 0 968.20783039 0 11525.03919449 0 18.18950861 0 912.14733300 0 6828
0.08050000 0.08048110 25606.31477171 0 841.83144235 0 13299.37591237 0 570.31464801 0 687.41300293 0 7147
0.08150000 0.08149960 25005.83920966 0 793.20888355 0 11351.03392117 0 510.29406936 0 -118.36517626 0 7386
0.08250000 0.08250610 24268.90214773 0 691.29327557 0 12121.58052878 0 306.48533470 0 1330.33101401 0 7227
0.08350000 0.08350160 24340.50509289 0 224.67587868 0 11741.30931455 0 -213.70163137 0 -99.57395562 0 7798
0.08450000 0.08449610 24444.03148612 0 -193.15372184 0 13662.11171146 0 -570.33937744 0 836.83272497 0 7371
0.08550000 0.08548940 24552.39135917 0 270.06675040 0 12049.86517712 0 -447.79155504 0 -2431.62252873 0 8256
0.08650000 0.08650700 24319.93470205 0 343.00396080 0 12942.26043865 0 -1023.58377215 0 -1500.84044495 0 8037
0.08750000 0.08749060 23913.69758463 0 654.53072735 0 12453.96657089 0 261.57781097 0 -2877.42673672 0 8155
0.08850000 0.08849210 23237.12281713 0 546.83967302 0 11907.67094537 0 1821.27767534 0 -1630.81608935 0 8718
0.08950000 0.08949900 22893.83334381 0 340.28934364 0 10721.83849650 0 2237.93487599 0 -2250.76045847 0 8571
0.09050000 0.09049190 22183.98625015 0 151.22159835 0 10162.84093565 0 2753.77957868 0 227.23537485 0 8932
0.09150000 0.09150830 22325.73085587 0 67.89679020 0 9589.93868984 0 2226.09847077 0 856.27455447 0 9285
0.09250000 0.09250820 22230.74735719 0 310.12618147 0 8933.65329691 0 1471.92949127 0 2716.21332394 0 9204
0.09350000 0.09350330 21708.05709820 0 703.48825754 0 8370.10327252 0 315.24180162 0 3564.02816467 0 9349
0.09450000 0.09448040 21379.94250336 0 764.04613929 0 9394.45253298 0 57.04776374 0 3501.32781489 0 9564
0.09550000 0.09549270 20345.57782309 0 967.43672175 0 9598.27925269 0 -330.90115215 0 3950.77399372 0 10155
0.09650000 0.09649430 19830.64361311 0 660.80188639 0 8998.12966951 0 386.09949163 0 1897.93891332 0 9913
0.09750000 0.09749140 18840.56709672 0 403.95189312 0 8051.20601128 0 528.68377396 0 2163.70161856 0 10476
0.09850000 0.09850240 18675.44193748 0 488.12413393 0 7494.61394968 0 328.35289663 0 147.80556459 0 10575
0.09950000 0.09950330 18321.02421994 0 667.66430366 0 7337.94175979 0 381.09852612 0 847.46638056 0 10882
0.10050000 0.10051200 17428.62895840 0 580.27836082 0 7369.21325013 0 31.35410912 0 318.41503732 0 10875
0.10150000 0.10150300 17138.50776303 0 439.99616376 0 7805.23809198 0 449.89355673 0 989.96298581 0 11118
0.10250000 0.10250800 16880.75964177 0 83.19947489 0 7273.95997583 0 296.86446174 0 1540.75599570 0 11575
0.10350000 0.10349800 16852.20838892 0 71.57090930 0 7806.84550504 0 670.89823888 0 318.92199067 0 11364
0.10450000 0.10450100 17049.48180925 0 40.49736683 0 7712.66009256 0 417.51711043 0 2247.82664863 0 12093
0.10550000 0.10551000 16592.77417005 0 87.96202620 0 6854.69494422 0 809.80008403 0 313.30616156 0 12067
0.10650000 0.10649700 16641.89581374 0 27.19933979 0 6717.62644920 0 778.16327254 0 2396.57417975 0 12054
0.10750000 0.10749900 16416.52076658 0 39.52257760 0 5840.43978811 0 1054.00546929 0 976.67766071 0 12807
0.10850000 0.10850100 16539.71829859 0 -73.34513361 0 6039.96133858 0 981.38187305 0 2489.42195479 0 12736
0.10950000 0.10950300 16623.79836606 0 -243.70742443 0 5201.06033388 0 626.42010800 0 1879.71781849 0 12933
0.11050000 0.11050200 16723.39053154 0 -116.90164354 0 5676.86583867 0 520.91311211 0 3096.81051704 0 13428
0.11150000 0.11150900 17092.75831456 0 119.28353743 0 5265.06459914 0 409.06976140 0 3319.88123080 0 13453
0.11250000 0.11250000 16635.82586234 0 256.13733601 0 5678.92287776 0 304.00115089 0 3455.66829163 0 13668
0.11350000 0.11349100 16597.04561732 0 362.81673177 0 5002.16825985 0 350.32162442 0 4039.45148734 0 13791
0.11450000 0.11448600 15976.11207094 0 463.13953955 0 5196.54159229 0 401.94880916 0 3967.06169663 0 14205
0.11550000 0.11549300 15722.18577093 0 550.50412516 0 4587.87159585 0 199.53728739 0 3686.18031617 0 14776
0.11650000 0.11649800 15324.04192204 0 337.76469349 0 4897.97866822 0 195.40972044 0 3812.33413932 0 14553
0.11750000 0.11747300 14816.63894804 0 177.53820984 0 4608.84665012 0 -265.25575188 0 2752.49814450 0 14568
0.11850000 0.11849100 15038.19217395 0 -33.62179799 0 4712.57537506 0 209.72356508 0 3289.12681040 0 16015
0.11950000 0.11950300 14889.14114526 0 -63.91816188 0 4846.84494805 0 114.81425470 0 1922.27492216 0 15270
0.12050000 0.12050700 15048.42116611 0 90.97171043 0 4214.94052655 0 -86.37271059 0 1697.52935144 0 15999
0.12150000 0.12150000 14896.67238125 0 118.50006407 0 4712.01334253 0 -72.97722711 0 806.04233449 0 15670
0.12250000 0.12250700 14751.78039332 0 263.84505022 0 4013.04719877 0 169.27745562 0 688.95409615 0 16887
0.12350000 0.12352200 14558.66601377 0 260.06819157 0 4064.07975309 0 140.48790097 0 -54.90799347 0 16407
0.12450000 0.12449800 14261.12598892 0 382.37096779 0 3536.93819641 0 172.59906791 0 169.75967953 0 16306
0.12550000 0.12549900 13847.24522900 0 519.81490053 0 3612.50909128 0 85.68399592 0 -469.26569420 0 17523
0.12650000 0.12650100 13604.10995369 0 379.79798283 0 3418.13575883 0 -25.26594787 0 82.89957433 0 17154
0.12750000 0.12750600 13147.40231449 0 467.89658294 0 3469.22451641 0 177.32576154 0 266.39218167 0 18007
0.12850000 0.12850300 13044.66276681 0 43.50806272 0 3532.76791499 0 63.57813219 0 150.10989799 0 17496
0.12950000 0.12949900 12902.58094157 0 47.53581269 0 3751.70206928 0 272.72741243 0 620.09949010 0 18405
0.13050000 0.13049000 13021.16980678 0 216.21054462 0 3835.66973024 0 140.83186488 0 392.07502156 0 18100
0.13150000 0.13148800 12623.13836440 0 291.48356224 0 3641.71230187 0 -3.77510510 0 944.34954921 0 19059
0.13250000 0.13249300 12435.08227767 0 358.89037247 0 4091.39453437 0 -132.16757129 0 571.92430919 0 18957
0.13350000 0.13349100 12293.67489147 0 260.53580264 0 3899.97749307 0 63.75303672 0 828.73945644 0 19468
0.13450000 0.13450700 11972.07987406 0 42.72638787 0 4302.19045753 0 21.01091194 0 756.10574362 0 19953
0.13550000 0.13551000 12207.12188084 0 -74.56272090 0 3880.68853642 0 28.38938749 0 562.75193820 0 19956
0.13650000 0.13649900 12163.73296902 0 -112.77295252 0 4225.85519841 0 62.15259287 0 815.40130029 0 19723
0.13750000 0.13749600 12280.63573662 0 3.81553772 0 3987.64332812 0 -258.19100290 0 451.32336750 0 20946
0.13850000 0.13851100 12423.27959440 0 146.31168211 0 4430.23271000 0 -329.89511391 0 763.08618772 0 20955
0.13950000 0.13949800 12317.28025801 0 144.58062190 0 5029.96638910 0 -330.52346629 0 921.14659797 0 20506
0.14050000 0.14048300 12156.65135906 0 182.76398837 0 4616.64766173 0 307.21822513 0 1043.69891663 0 21447
0.14150000 0.14148400 12122.03015481 0 194.08444772 0 5200.74559566 0 278.85806333 0 1154.22373901 0 21771
0.14250000 0.14249400 11897.44195320 0 210.58122673 0 4501.25114132 0 772.10680993 0 1344.93261931 0 22470
0.14350000 0.14350900 11667.90786528 0 162.86803657 0 4348.19844097 0 708.69043070 0 1088.78741484 0 22519
0.14450000 0.14449900 11666.33417417 0 -16.30467629 0 3656.37011043 0 624.34058762 0 977.80509798 0 22218
0.14550000 0.14550500 11502.44548652 0 82.23772481 0 3276.11013685 0 423.14418018 0 638.53752949 0 23559
0.14650000 0.14650700 11274.26027668 0 212.77315362 0 2874.34679842 0 40.45049331 0 87.93088960 0 23044
0.14750000 0.14750500 11078.61675070 0 323.08777583 0 2494.94111430 0 -187.76945014 0 -308.86385640 0 23649
0.14850000 0.14849900 10769.26280194 0 357.09299242 0 2598.06284410 0 -139.22894808 0 -497.62023567 0 23640
0.14950000 0.14949500 10581.24043716 0 201.34141183 0 2379.31978088 0 179.74250145 0 -693.11875724 0 24457
0.15050000 0.15050000 10373.69306206 0 90.48319175 0 2422.18038212 0 202.37330357 0 -484.30231268 0 24591
0.15150000 0.15149900 10302.40485513 0 114.16454508 0 2313.85423102 0 455.76792080 0 -249.31988134 0 25020
0.15250000 0.15250500 10225.14786265 0 100.06899388 0 2400.22739124 0 252.11655525 0 38.06129300 0 25297
0.15350000 0.15350100 10129.81590380 0 145.96996633 0 2622.24148383 0 186.50937319 0 726.64512211 0 25452
0.15450000 0.15450400 10040.22791748 0 185.58314357 0 2514.35371811 0 36.02414987 0 944.09326238 0 26061
0.15550000 0.15549900 9856.55568453 0 259.80291222 0 2844.99745936 0 -30.13539776 0 1190.00273029 0 26128
0.15650000 0.15649500 9742.75533653 0 153.50345045 0 2765.39117089 0 -74.21459795 0 1516.09400799 0 26331
0.15750000 0.15749700 9696.00547014 0 115.66742009 0 2938.49719214 0 -123.52238682 0 1610.90889691 0 27345
0.15850000 0.15849900 9612.07153113 0 -37.26815269 0 2704.09590245 0 157.00154095 0 1289.14526973 0 26980
0.15950000 0.15949700 9710.66327869 0 0.93425994 0 2678.98428872 0 52.35951314 0 905.94474192 0 27777
0.16050000 0.16050000 9580.56398713 0 77.60320452 0 2597.29847986 0 130.64671125 0 635.03157053 0 28224
0.16150000 0.16150500 9490.44769022 0 195.97400110 0 2436.14127032 0 -209.75054264 0 212.26732434 0 28075
0.16250000 0.16249700 9288.72297221 0 211.64908855 0 2467.16546634 0 11.42117558 0 540.89224472 0 28590
0.16350000 0.16349900 9111.44666953 0 170.68590915 0 2398.61997818 0 245.15746838 0 332.78958148 0 29163
0.16450000 0.16449100 9046.13848878 0 124.15973171 0 2510.05978953 0 239.29209683 0 441.51814787 0 28996
0.16550000 0.16550500 8866.23187383 0 98.33265056 0 2082.90382110 0 131.87868657 0 388.61627333 0 30777
0.16650000 0.16650700 8883.55371661 0 164.63506687 0 2350.73480607 0 6.45644993 0 449.81936843 0 29211
0.16750000 0.16749900 8761.54769357 0 50.40993467 0 2065.71686614 0 -190.08165199 0 424.93706397 0 30922
0.16850000 0.16850800 8813.56942516 0 17.01205044 0 2407.14039144 0 -176.93121470 0 585.22761933 0 30867
0.16950000 0.16949900 8807.98282174 0 53.01787805 0 2576.39086950 0 -190.22778045 0 431.07895553 0 30852
0.17050000 0.17049200 8832.03781431 0 78.40050387 0 2544.39997751 0 -66.81993586 0 458.84111471 0 31257
0.17150000 0.17149500 8835.48869408 0 118.55401919 0 2691.92227771 0 194.81846221 0 470.15258154 0 32608
0.17250000 0.17250900 8770.41656700 0 87.13921056 0 2631.22276376 0 359.75365445 0 1025.24851252 0 32361
0.17350000 0.17350400 8643.98172758 0 -6.64485448 0 2502.56227549 0 575.78996898 0 534.92570731 0 32508
0.17450000 0.17449800 8663.88892002 0 3.34830884 0 2210.88987033 0 614.79952328 0 1077.74909583 0 32791
0.17550000 0.17549800 8569.90583926 0 11.41488082 0 1783.80134580 0 533.34639588 0 498.92190302 0 33633
0.17650000 0.17650100 8524.71842332 0 3.56012766 0 1361.87227996 0 298.53819463 0 782.00532696 0 33984
0.17750000 0.17750300 8560.69974631 0 73.07108655 0 1364.54755484 0 71.38262840 0 579.47465429 0 34069
0.17850000 0.17849800 8368.37221230 0 99.84833991 0 1200.96236475 0 -41.17787582 0 390.65532737 0 34536
