### header ###
fiducial parameters:
Omega_m = 0.31
Omega_nu = 0
Omega_de = 0.69
Omega_k = 0
H_0 = 100
w_de = -1
zeff = 0
beta = 0
fgrowth = 0
b_1 = 2
gamma = 0.55
Lx = 3500 Ly = 3500 Lz = 3500
nx = 700 ny = 700 nz = 700
xoffset = 857.220397 yoffset = 15.9954215 zoffset = 262.898189
bins = 400 dk = 0.001
kx_ny = 0.628318531 ky_ny = 0.628318531 kz_ny = 0.628318531
############################
A(data) = 3.05716349 (not used)
A(ran) = 3.05257088 (used)
Ngal = 186521
weighted Ngal = 0
Nran = 9360983
weighted Nran = 0
SN(data) = 3458.52061
SN(ran) = 68.5492699
SN(data+ran) = 3527.06987
############################
13 columns: k_central k_mean P_0(k) sigma^{lin}_{P_0(k)} P^img_1(k) sigma^{lin}_{P_1(k)} P_2(k) sigma^{lin}_{P_2(k)} P^img_3(k) sigma^{lin}_{P_3(k)} P_4(k) sigma^{lin}_{P_4(k)} N_modes
### header ###
0.00050000 0 0 0 0 0 0 0 0 0 0 0 0
0.00150000 0.00179520 19979.35742228 0 -24577.79522982 0 -13494.85082858 0 4764.04631476 0 -64509.30769961 0 3
0.00250000 0.00253879 37694.39816131 0 -29198.26471279 0 -17403.89952679 0 -9226.39356390 0 23524.65866283 0 6
0.00350000 0.00331552 56578.35416985 0 -27140.21397046 0 -26458.01887759 0 -10115.87749690 0 -4585.99440718 0 7
0.00450000 0.00420575 74371.06780543 0 -18083.39686348 0 -21912.07490896 0 -22247.38352027 0 16673.59444880 0 24
0.00550000 0.00557378 88113.99979564 0 -4091.27088721 0 -12257.92962215 0 -20614.67900159 0 19064.14363976 0 45
0.00650000 0.00659388 82975.22390746 0 4999.67283538 0 7682.79368357 0 -3373.53285673 0 42232.13645490 0 40
0.00750000 0.00754703 85067.55863453 0 -2512.03814406 0 3389.42713687 0 22718.25437939 0 23422.03152166 0 57
0.00850000 0.00846663 83166.31496989 0 -4786.08923084 0 19320.09325691 0 17013.51172691 0 31976.05432144 0 75
0.00950000 0.00948925 90122.36686175 0 -6487.67645720 0 15228.38398432 0 21497.18249048 0 18180.96571183 0 112
0.01050000 0.01054430 87351.99608259 0 5046.59131154 0 4787.41562763 0 6552.45632736 0 6850.23240588 0 105
0.01150000 0.01145670 79441.72535018 0 12170.58976597 0 4417.95791940 0 2399.71032131 0 19158.78991892 0 144
0.01250000 0.01249090 65938.66884656 0 14875.20273835 0 -4548.78785326 0 344.77661142 0 19295.47623180 0 169
0.01350000 0.01339930 56597.80049561 0 9732.17788419 0 -16808.93188360 0 8870.31223005 0 22967.68441911 0 180
0.01450000 0.01448870 48041.19234617 0 -547.47701792 0 -18125.99892975 0 13618.38558012 0 17774.16656187 0 267
0.01550000 0.01550050 49165.25741927 0 -1863.84601966 0 -26015.69927133 0 9051.15181901 0 18812.01584386 0 238
0.01650000 0.01653350 55495.42987843 0 -10666.84923313 0 -26733.52722701 0 12217.12605999 0 23184.74138473 0 315
0.01750000 0.01747870 58838.17459281 0 -441.53388478 0 -24748.09108839 0 -8911.74526864 0 37764.42741536 0 297
0.01850000 0.01844180 65337.74365848 0 1014.38442359 0 -14950.62750475 0 -6431.28211248 0 41287.35976096 0 388
0.01950000 0.01947590 61916.65160850 0 4148.92418481 0 -10206.09495966 0 -14053.96079594 0 37626.61703740 0 399
0.02050000 0.02045430 60671.97435306 0 5306.53135969 0 14081.27557722 0 -9385.80847257 0 42286.09157841 0 462
0.02150000 0.02154770 56675.69820518 0 3228.57342491 0 18375.09174995 0 -9235.97059832 0 33860.88663601 0 571
0.02250000 0.02255340 53603.51595389 0 1197.96111100 0 19933.83278682 0 2638.78772170 0 8334.49289100 0 510
0.02350000 0.02348930 56352.19227714 0 -2233.02271162 0 22793.79155230 0 -2005.65806928 0 11275.04712223 0 555
0.02450000 0.02439640 54557.62238794 0 -3122.82138283 0 10936.31011245 0 593.14103745 0 -13563.41879804 0 592
0.02550000 0.02547300 59007.23397980 0 -3151.67613326 0 12824.23360597 0 -795.09618881 0 -12817.37680903 0 837
0.02650000 0.02652900 57247.17288834 0 730.76257248 0 6958.51359437 0 -6646.72042439 0 -32320.24304682 0 723
0.02750000 0.02749970 58920.56856267 0 1372.51717621 0 5895.40657018 0 -3479.92561590 0 -24337.69493021 0 826
0.02850000 0.02848090 56365.00661897 0 3217.35525548 0 8453.32905053 0 -7407.10548374 0 -29114.74667786 0 831
0.02950000 0.02946900 54022.34260013 0 909.26747828 0 8414.33523314 0 -6637.46936884 0 -22588.08764393 0 996
0.03050000 0.03053250 55882.55788960 0 1038.16289615 0 15051.34373530 0 -4861.24422163 0 -22619.11183994 0 1041
0.03150000 0.03150510 57181.86470760 0 1411.26369928 0 22678.91210183 0 -10723.52459411 0 -21632.18270576 0 1036
0.03250000 0.03246190 58301.77073992 0 802.30144592 0 24962.33789133 0 -5512.52752499 0 -14952.08878935 0 1059
0.03350000 0.03345080 58797.25862415 0 1528.48120510 0 35547.43387169 0 -3245.79410183 0 -12605.04091672 0 1302
0.03450000 0.03451200 58196.22102956 0 2418.12250720 0 31993.92695610 0 4515.70661816 0 -9273.60429697 0 1339
0.03550000 0.03553350 57709.16363339 0 1716.35744142 0 34284.32194904 0 7627.77069824 0 -8200.78535056 0 1365
0.03650000 0.03647120 57509.52967640 0 1822.04203959 0 32958.37478882 0 11991.63860633 0 -1180.63926823 0 1308
0.03750000 0.03744890 55102.34432236 0 730.80753508 0 30623.69163199 0 11127.62598789 0 726.13592064 0 1579
0.03850000 0.03847530 54142.95478247 0 1159.86654568 0 22364.84832041 0 8100.08036066 0 -790.18065224 0 1662
0.03950000 0.03950240 53390.84284206 0 416.50882406 0 21784.26871015 0 3770.14797713 0 1861.12578218 0 1683
0.04050000 0.04050350 51275.46478100 0 1442.96233434 0 18221.76927398 0 2642.56458035 0 491.81443956 0 1822
0.04150000 0.04152450 51944.50831251 0 170.77808249 0 20272.06396731 0 1852.47048112 0 3099.24973825 0 1887
0.04250000 0.04250150 49352.75147346 0 624.91610893 0 14487.84991416 0 1371.37062983 0 33.51197684 0 1920
0.04350000 0.04349210 49267.65974743 0 1790.79303056 0 17327.80032134 0 1144.99516476 0 7090.60248111 0 2005
0.04450000 0.04448520 47406.32039288 0 2052.94748691 0 17362.30911909 0 3297.27628218 0 4851.55478070 0 2151
0.04550000 0.04548030 44816.36205795 0 2344.14778474 0 13989.88908678 0 3154.64366505 0 5430.85295677 0 2274
0.04650000 0.04648670 43017.29590846 0 1225.64683376 0 12728.01363572 0 2346.77809701 0 7031.87008104 0 2311
0.04750000 0.04749250 42077.12788132 0 356.72654721 0 10262.73659870 0 3318.27381774 0 4517.90978570 0 2568
0.04850000 0.04851840 42013.95542421 0 566.23429179 0 9875.83340054 0 1352.01422927 0 4982.18238285 0 2493
0.04950000 0.04949480 41315.79860731 0 1470.04106195 0 9248.91982797 0 -102.70739942 0 714.82108161 0 2644
0.05050000 0.05050630 37874.13616649 0 2302.59109899 0 7847.70527044 0 -180.22022910 0 862.43443108 0 2829
0.05150000 0.05149060 37623.02002916 0 2052.94748691 0 8653.04169207 0 -1804.79888137 0 -1851.78480142 0 2784
0.05250000 0.05249300 35481.00162587 0 -130.08917497 0 7207.33663895 0 2203.34739369 0 -2918.58999970 0 3055
0.05350000 0.05348950 35112.42068840 0 -742.30447265 0 5327.75370827 0 1965.22544860 0 -2919.83771193 0 3009
0.05450000 0.05448610 36367.55174902 0 -425.73852237 0 4284.29534156 0 1106.59035747 0 -4108.30047307 0 3336
0.05550000 0.05550870 36693.30580720 0 790.01878687 0 5583.69208476 0 295.35147015 0 -1739.32209086 0 3349
0.05650000 0.05647670 35199.87295108 0 1461.81290561 0 5680.26051519 0 -94.95955609 0 -1937.38235674 0 3324
0.05750000 0.05747970 34234.07624028 0 1302.91506688 0 7551.97499036 0 -2262.38329133 0 1376.65373568 0 3639
0.05850000 0.05849280 34034.55468980 0 340.02069209 0 10510.85148228 0 -2611.64155019 0 -1280.20895240 0 3846
0.05950000 0.05951020 34616.70799116 0 144.71775784 0 12027.94590819 0 -2607.41506551 0 -1021.33451794 0 3787
0.06050000 0.06049470 33762.41853560 0 -128.10070386 0 14524.26962253 0 -1994.19260553 0 -2765.81831561 0 3930
0.06150000 0.06148310 34049.95438130 0 -106.37578579 0 12155.52729399 0 -1040.61560614 0 -2304.45704701 0 4083
0.06250000 0.06249100 34410.66686326 0 -90.17778327 0 12706.43158631 0 1694.92152047 0 -4874.96905617 0 4303
0.06350000 0.06350600 34151.34505090 0 433.22929202 0 10491.67493213 0 2803.64310532 0 -3814.86328573 0 4470
0.06450000 0.06451750 33672.15611024 0 754.44662357 0 7660.60463903 0 3240.47727403 0 -7004.66770627 0 4479
0.06550000 0.06550280 31974.59303684 0 712.15367519 0 6096.43436786 0 3750.81405787 0 -4143.07904643 0 4636
0.06650000 0.06648880 31780.12977919 0 622.84895326 0 4596.47069366 0 2984.56137884 0 -986.70207304 0 4653
0.06750000 0.06749660 31560.82468343 0 -146.52075821 0 3739.82070145 0 2173.24493103 0 772.87454638 0 5220
0.06850000 0.06852730 31782.04068982 0 -438.80690291 0 4925.63066902 0 1099.92802378 0 2658.58250764 0 5029
0.06950000 0.06949320 32179.51009967 0 286.00711720 0 5188.08862294 0 -1250.81465074 0 1469.76004568 0 5040
0.07050000 0.07048030 31680.31280070 0 647.48396341 0 5851.52306973 0 -1904.88563548 0 3647.45627440 0 5475
0.07150000 0.07148790 31209.77916110 0 1079.50825767 0 8573.51408814 0 -3525.36032616 0 1626.35355101 0 5509
0.07250000 0.07249820 30856.03588260 0 1154.70708699 0 9273.12094899 0 -1039.21277293 0 1875.37892731 0 5916
0.07350000 0.07351270 29425.66307708 0 962.77297576 0 8389.51587633 0 -1080.24564435 0 -1627.25280307 0 5721
0.07450000 0.07449140 28450.87384569 0 1099.14230230 0 8839.46788444 0 -408.34811163 0 -3875.68644684 0 6028
0.07550000 0.07549160 28218.86681460 0 572.88426077 0 8524.52733226 0 478.25147039 0 -4421.67857480 0 6183
0.07650000 0.07648840 26907.75731334 0 417.61378002 0 7146.70456891 0 468.46873206 0 -5347.46980965 0 6330
0.07750000 0.07749960 27356.03446449 0 12.60335482 0 6837.73280226 0 1610.60539934 0 -5110.96651827 0 6583
0.07850000 0.07848650 26790.40491971 0 -48.23925261 0 5459.28056247 0 1659.82820889 0 -4402.46830270 0 6549
0.07950000 0.07947320 26632.24896392 0 243.17236946 0 3643.01621736 0 1963.78664531 0 -3397.84638427 0 6828
0.08050000 0.08048110 26434.41351106 0 317.38202152 0 3030.52439968 0 2468.43565987 0 -1548.03993737 0 7147
0.08150000 0.08149960 25698.71292071 0 157.10383088 0 2625.60243840 0 1710.26500872 0 -845.67574490 0 7386
0.08250000 0.08250610 25838.32180279 0 168.94473236 0 1701.73335482 0 1161.44023678 0 -170.19019646 0 7227
0.08350000 0.08350160 25319.11614553 0 766.56854132 0 2935.46221645 0 -1093.53546571 0 -51.27422831 0 7798
0.08450000 0.08449610 24568.01586368 0 1038.92838446 0 2969.40898165 0 -1617.13621741 0 626.07839222 0 7371
0.08550000 0.08548940 23893.23960030 0 913.86040817 0 5139.57397438 0 -1812.04910109 0 -114.62990802 0 8256
0.08650000 0.08650700 23692.81879777 0 965.95407992 0 5614.70504013 0 -1680.19626801 0 20.19292979 0 8037
0.08750000 0.08749060 22906.42287263 0 555.34547343 0 6583.31191362 0 -1022.56312106 0 -1037.34008051 0 8155
0.08850000 0.08849210 22957.34302044 0 337.94566797 0 7160.78910427 0 -569.01972504 0 -404.89498372 0 8718
0.08950000 0.08949900 22411.60942745 0 265.79642719 0 6632.97310855 0 545.87972145 0 -2279.49156174 0 8571
0.09050000 0.09049190 22484.11162467 0 282.85523873 0 7432.04848771 0 138.18131944 0 -705.72627110 0 8932
0.09150000 0.09150830 21873.74428997 0 678.07539437 0 6537.16904237 0 325.87882941 0 -1404.89025031 0 9285
0.09250000 0.09250820 21372.07404785 0 826.50593914 0 6960.26713588 0 384.13125369 0 47.85617124 0 9204
0.09350000 0.09350330 20636.82308353 0 838.67731576 0 7678.42107044 0 736.72910989 0 1178.08764051 0 9349
0.09450000 0.09448040 20169.54923265 0 178.09687018 0 7453.19215174 0 1708.81496478 0 1434.10470156 0 9564
0.09550000 0.09549270 19901.01008668 0 191.22145398 0 7644.74408085 0 1365.06462477 0 2920.54587293 0 10155
0.09650000 0.09649430 19670.68915321 0 249.98195567 0 6796.92924011 0 1431.44066734 0 2227.25625779 0 9913
0.09750000 0.09749140 19174.52682994 0 454.17287246 0 6836.94595671 0 843.46920516 0 3925.49377023 0 10476
0.09850000 0.09850240 19066.05455039 0 464.91443830 0 6649.23833016 0 178.64878613 0 3570.83999902 0 10575
0.09950000 0.09950330 18422.97692207 0 564.84157517 0 5790.91348099 0 -307.82634433 0 2775.45155329 0 10882
0.10050000 0.10051200 18077.55172510 0 464.93579554 0 6480.19018381 0 -967.22989377 0 1542.09363313 0 10875
0.10150000 0.10150300 17701.10233212 0 453.33656805 0 6195.45326015 0 -974.37782357 0 1077.20280020 0 11118
0.10250000 0.10250800 17503.82891179 0 234.20570237 0 6885.07842314 0 -1105.81362851 0 -579.85683641 0 11575
0.10350000 0.10349800 17147.38787711 0 -25.83112779 0 6637.96395747 0 -698.15232064 0 -1708.81496478 0 11364
0.10450000 0.10450100 17344.09926490 0 3.69640931 0 6405.14759953 0 -327.03661643 0 -3291.32997794 0 12093
0.10550000 0.10551000 17416.82627513 0 -88.98099119 0 6064.43223523 0 -108.73081452 0 -3886.07280812 0 12067
0.10650000 0.10649700 17043.52426436 0 143.52287666 0 5414.94743599 0 374.76891570 0 -3985.91226791 0 12054
0.10750000 0.10749900 17065.89315931 0 271.50892589 0 5622.61845824 0 144.66942304 0 -3930.24856549 0 12807
0.10850000 0.10850100 16546.12546951 0 304.84307563 0 4445.98086168 0 450.73772960 0 -4638.69057781 0 12736
0.10950000 0.10950300 16702.14570166 0 382.24282437 0 5625.24877052 0 626.51452947 0 -3460.53549339 0 12933
0.11050000 0.11050200 16162.36965356 0 347.90938077 0 4970.94173212 0 407.86813584 0 -2395.85477810 0 13428
0.11150000 0.11150900 16006.12460839 0 380.74332156 0 5724.13277500 0 734.43152088 0 -1147.90649330 0 13453
0.11250000 0.11250000 15877.64397054 0 308.23437995 0 5390.76879627 0 504.12407618 0 -656.36632561 0 13668
0.11350000 0.11349100 15490.62836587 0 290.46515928 0 5236.06372026 0 1026.97732461 0 372.33868701 0 13791
0.11450000 0.11448600 15276.26915643 0 216.52640690 0 4723.29895586 0 373.25367598 0 549.43176708 0 14205
0.11550000 0.11549300 14931.06877248 0 96.89013785 0 4347.67013038 0 239.42136431 0 91.75473416 0 14776
0.11650000 0.11649800 15003.90818922 0 -37.05716567 0 3949.68365060 0 54.40980783 0 -91.40121570 0 14553
0.11750000 0.11747300 15084.84087448 0 -61.75152645 0 3760.96436548 0 -2.42025823 0 -1332.54542221 0 14568
0.11850000 0.11849100 14892.62574698 0 -26.18352219 0 3687.87765443 0 -233.12659990 0 -1150.97519095 0 16015
0.11950000 0.11950300 15032.57184858 0 156.34171476 0 3817.57228256 0 -61.22018089 0 -2249.10808281 0 15270
0.12050000 0.12050700 14889.14114526 0 357.62917146 0 4500.03715104 0 -444.28447201 0 -1036.55435903 0 15999
0.12150000 0.12150000 14701.98431059 0 429.00842767 0 4497.10334120 0 -69.98991178 0 -1045.47606351 0 15670
0.12250000 0.12250700 14574.40292479 0 302.77367183 0 5183.92958217 0 236.62693854 0 878.17246616 0 16887
0.12350000 0.12352200 14450.41854723 0 265.60870832 0 5374.99816329 0 489.66297901 0 943.21986381 0 16407
0.12450000 0.12449800 14177.04592145 0 111.59796730 0 5206.65817794 0 476.90708856 0 1727.55312954 0 16306
0.12550000 0.12549900 14169.96431149 0 79.82694245 0 5419.57858409 0 542.66377127 0 1429.70960713 0 17523
0.12650000 0.12650100 13984.38116792 0 209.75616297 0 4804.91732082 0 -13.31140341 0 1218.64390835 0 17154
0.12750000 0.12750600 13665.48390668 0 226.34848751 0 4886.53568578 0 56.30610561 0 1128.99971877 0 18007
0.12850000 0.12850300 13476.41616139 0 118.60797432 0 4726.16532180 0 -193.75959291 0 658.73023446 0 17496
0.12950000 0.12949900 13727.53229872 0 59.64648979 0 4885.70387762 0 143.68923829 0 594.32917423 0 18405
0.13050000 0.13049000 13488.21884465 0 29.05089978 0 4542.25703519 0 511.97229852 0 545.05353362 0 18100
0.13150000 0.13148800 13392.44850042 0 114.36462867 0 4715.89136703 0 437.95036533 0 887.58538709 0 19059
0.13250000 0.13249300 13247.89373202 0 197.86580262 0 4725.38971690 0 630.37794112 0 977.78374075 0 18957
0.13350000 0.13349100 12975.98239084 0 319.81674647 0 4418.64359910 0 514.34070363 0 1292.92212838 0 19468
0.13450000 0.13450700 12830.30355737 0 280.89262112 0 4176.96960838 0 412.81514623 0 1180.15592025 0 19953
0.13550000 0.13551000 12489.82424673 0 254.13987238 0 4202.10370342 0 140.15292957 0 1098.18122666 0 19956
0.13650000 0.13649900 12408.55434194 0 275.91188878 0 4027.04180893 0 -169.52362587 0 983.97284304 0 19723
0.13750000 0.13749600 11937.90829583 0 353.47687508 0 4200.64241882 0 -129.84300472 0 516.38425393 0 20946
0.13850000 0.13851100 11813.36188574 0 356.82771306 0 4244.27862496 0 -93.01829571 0 978.80551590 0 20955
0.13950000 0.13949800 11334.17294507 0 452.06300232 0 4207.37556861 0 278.75240122 0 620.36814165 0 20506
0.14050000 0.14048300 11157.60480339 0 375.95368028 0 4543.35861896 0 133.27252726 0 1225.91660937 0 21447
0.14150000 0.14148400 10747.62454928 0 183.17764431 0 3905.17067371 0 438.67426323 0 774.32121812 0 21771
0.14250000 0.14249400 10840.31495521 0 17.05206716 0 4110.30130890 0 645.47188693 0 1061.99307570 0 22470
0.14350000 0.14350900 10879.18512543 0 -203.26918343 0 3747.25077159 0 358.15073766 0 1261.80800716 0 22519
0.14450000 0.14449900 10961.15195057 0 -225.91572246 0 3422.36224351 0 515.70644269 0 1006.54069751 0 22218
0.14550000 0.14550500 11076.03140104 0 24.03588346 0 3085.96328908 0 139.33123801 0 1009.47675548 0 23559
0.14650000 0.14650700 10986.78063423 0 133.94022192 0 3169.91970939 0 -121.76434904 0 897.10284606 0 23044
0.14750000 0.14750500 10910.74887269 0 262.02856106 0 3353.92916186 0 -205.25990267 0 1365.32315974 0 23649
0.14850000 0.14849900 10805.34529078 0 275.52858259 0 3492.68375448 0 -292.23443770 0 1055.28465534 0 23640
0.14950000 0.14949500 10520.42851670 0 138.74335197 0 3594.78258507 0 -286.90861739 0 1378.33983328 0 24457
0.15050000 0.15050000 10538.48100178 0 141.49618734 0 3766.86570711 0 -247.68773886 0 924.34119091 0 24591
0.15150000 0.15149900 10441.19316970 0 78.48582041 0 3803.71256021 0 95.69739240 0 1205.93073237 0 25020
0.15250000 0.15250500 10353.04398667 0 95.16784535 0 3648.76018988 0 231.32247546 0 761.93402102 0 25297
0.15350000 0.15350100 10388.29466736 0 -8.47738404 0 3563.61226060 0 381.51105801 0 888.93089298 0 25452
0.15450000 0.15450400 10371.18639695 0 69.93887922 0 3282.01147848 0 292.93585431 0 451.52907141 0 26061
0.15550000 0.15549900 10206.81436131 0 170.73199582 0 3276.08765555 0 298.55505561 0 421.42323656 0 26128
0.15650000 0.15649500 10016.01555580 0 225.02321479 0 2985.22457723 0 -153.03246718 0 591.82250912 0 26331
0.15750000 0.15749700 9848.18139974 0 213.95004975 0 3088.86337697 0 123.67188747 0 961.12060010 0 27345
0.15850000 0.15849900 9814.51565080 0 87.28961047 0 3051.81419216 0 344.28989124 0 1112.12300576 0 26980
0.15950000 0.15949700 9673.06330200 0 54.40115253 0 3187.38768063 0 304.96672279 0 847.21796218 0 27777
0.16050000 0.16050000 9736.15707455 0 94.43326882 0 3103.04907819 0 161.09426189 0 1003.91375744 0 28224
0.16150000 0.16150500 9494.78658141 0 169.82375124 0 2902.15616833 0 232.60840590 0 744.96625874 0 28075
0.16250000 0.16249700 9364.88962156 0 309.13925234 0 3018.19340583 0 -161.23364596 0 600.97239881 0 28590
0.16350000 0.16349900 9066.05692188 0 307.74990791 0 3003.71544768 0 -250.06176429 0 775.62962987 0 29163
0.16450000 0.16449100 8805.95950461 0 318.53980854 0 3073.44120417 0 -60.17952144 0 289.32872949 0 28996
0.16550000 0.16550500 8648.15200900 0 190.06141882 0 3434.60331216 0 -338.04458569 0 584.26204744 0 30777
0.16650000 0.16650700 8482.76831479 0 187.73910038 0 3249.68336698 0 -28.78325989 0 112.80555041 0 29211
0.16750000 0.16749900 8472.34823157 0 106.81282229 0 3689.94593416 0 -185.82032130 0 771.72125561 0 30922
0.16850000 0.16850800 8413.45846239 0 92.17164990 0 3596.69349570 0 -85.30158898 0 416.97980732 0 30867
0.16950000 0.16949900 8494.90821758 0 -2.99624041 0 3830.88121303 0 56.73156424 0 719.93108143 0 30852
0.17050000 0.17049200 8480.86864482 0 34.37705732 0 3446.11373850 0 159.37893858 0 326.87137887 0 31257
0.17150000 0.17149500 8395.05751714 0 92.21942266 0 3361.95498648 0 323.17657697 0 263.99230274 0 32608
0.17250000 0.17250900 8266.19469716 0 198.03216425 0 3193.48011333 0 380.28245488 0 399.66133674 0 32361
0.17350000 0.17350400 8061.70477906 0 211.97281929 0 2758.88283411 0 472.08035314 0 29.35507179 0 32508
0.17450000 0.17449800 7841.79268816 0 121.49569749 0 2456.17210993 0 650.86177895 0 307.58129815 0 32791
0.17550000 0.17549800 7782.62190271 0 -66.89592266 0 2102.23774036 0 519.81152834 0 229.67572013 0 33633
0.17650000 0.17650100 7885.67618861 0 -136.44801109 0 1684.14173642 0 674.44691231 0 547.08247108 0 33984
0.17750000 0.17750300 8023.75634219 0 -68.69881063 0 1749.35999196 0 264.93651740 0 574.54675301 0 34069
