### header ###
fiducial parameters:
Omega_m = 0.31
Omega_nu = 0
Omega_de = 0.69
Omega_k = 0
H_0 = 100
w_de = -1
zeff = 0
beta = 0
fgrowth = 0
b_1 = 2
gamma = 0.55
Lx = 3500 Ly = 3500 Lz = 3500
nx = 700 ny = 700 nz = 700
xoffset = 857.220397 yoffset = 15.9954215 zoffset = 262.898189
bins = 400 dk = 0.001
kx_ny = 0.628318531 ky_ny = 0.628318531 kz_ny = 0.628318531
############################
A(data) = 3.10457743 (not used)
A(ran) = 3.10308556 (used)
Ngal = 189183
weighted Ngal = 0
Nran = 9360983
weighted Nran = 0
SN(data) = 3449.31922
SN(ran) = 69.6836397
SN(data+ran) = 3519.00286
############################
13 columns: k_central k_mean P_0(k) sigma^{lin}_{P_0(k)} P^img_1(k) sigma^{lin}_{P_1(k)} P_2(k) sigma^{lin}_{P_2(k)} P^img_3(k) sigma^{lin}_{P_3(k)} P_4(k) sigma^{lin}_{P_4(k)} N_modes
### header ###
0.00050000 0 0 0 0 0 0 0 0 0 0 0 0
0.00150000 0.00179520 6634.85029722 0 -13716.51646100 0 -16387.18266818 0 13409.08466351 0 10214.45800381 0 3
0.00250000 0.00253879 12575.25319228 0 -12093.14168243 0 11497.04997417 0 -34567.36153445 0 -3347.12856817 0 6
0.00350000 0.00331552 22494.45302334 0 -8772.27127437 0 -1858.03460323 0 5459.40420963 0 -5406.26965363 0 7
0.00450000 0.00420575 34073.89696736 0 -10610.64597947 0 16574.56431586 0 -26074.26306164 0 3041.48403414 0 24
0.00550000 0.00557378 44891.67441785 0 -9971.22156264 0 7264.32673816 0 -2370.84433023 0 13888.83563671 0 45
0.00650000 0.00659388 59688.19260108 0 -12423.05478138 0 9066.66391701 0 18967.13682395 0 8542.73718644 0 40
0.00750000 0.00754703 59367.15961621 0 -13006.21974131 0 -27729.56128828 0 29895.52227764 0 -10799.65752151 0 57
0.00850000 0.00846663 75127.56359962 0 -17571.38522269 0 -46028.77864580 0 24610.16830392 0 -13920.08464574 0 75
0.00950000 0.00948925 77863.87520707 0 -5476.32138898 0 -72617.18907187 0 -1382.67872447 0 -17030.48510951 0 112
0.01050000 0.01054430 68083.16019302 0 -164.36191905 0 -61109.01085348 0 -27980.11539308 0 -14869.69481949 0 105
0.01150000 0.01145670 73538.36039928 0 5310.20705248 0 -65391.02434295 0 -42404.34322410 0 1642.54008807 0 144
0.01250000 0.01249090 65104.38774931 0 5577.88066834 0 -33630.22848301 0 -44036.48571024 0 -8253.58268704 0 169
0.01350000 0.01339930 67595.76557732 0 1353.32938541 0 -22155.21018428 0 -31414.02178489 0 4522.48473055 0 180
0.01450000 0.01448870 65946.20008255 0 -171.30751714 0 6785.81223654 0 -19023.00285809 0 5639.45695304 0 267
0.01550000 0.01550050 75740.29147097 0 -3112.91836954 0 3630.05574707 0 3012.11221378 0 -7108.48635642 0 238
0.01650000 0.01653350 77744.61190281 0 -4732.62869597 0 20746.41942816 0 4530.24077956 0 2726.06013398 0 315
0.01750000 0.01747870 83318.40097428 0 132.48568171 0 9879.73390634 0 8841.16522270 0 5915.08894961 0 297
0.01850000 0.01844180 79183.86482241 0 4373.66975552 0 23309.96223387 0 -6156.58308992 0 9589.72511748 0 388
0.01950000 0.01947590 78577.20690246 0 6043.26608990 0 29322.58630988 0 1809.49747337 0 11620.47231919 0 399
0.02050000 0.02045430 70079.27494983 0 3976.08793917 0 28538.43851488 0 5905.02856721 0 19699.57762558 0 462
0.02150000 0.02154770 71749.97286797 0 2069.49372478 0 30285.46045149 0 8089.19941075 0 22346.75087273 0 571
0.02250000 0.02255340 73284.54650577 0 -1464.12847966 0 25422.86735178 0 3602.85337230 0 14755.15258854 0 510
0.02350000 0.02348930 71326.64996145 0 1834.06953587 0 27080.18889555 0 -817.99789061 0 5106.27916692 0 555
0.02450000 0.02439640 71833.37849640 0 35.37050603 0 28252.13914077 0 -6406.93486300 0 -7233.98822183 0 592
0.02550000 0.02547300 70685.82046327 0 -542.47155615 0 23566.13666403 0 -13430.89152592 0 -9202.67579086 0 837
0.02650000 0.02652900 75133.40873800 0 461.43995316 0 36330.34519510 0 -9871.70808172 0 -33156.43505470 0 723
0.02750000 0.02749970 73030.28298623 0 1893.44265303 0 26689.68868916 0 -13095.69532113 0 -32848.55363118 0 826
0.02850000 0.02848090 71804.49002402 0 3351.98452928 0 42700.08474483 0 -6747.14439802 0 -48366.94640435 0 831
0.02950000 0.02946900 69692.03453215 0 3568.71551603 0 33217.13456864 0 -148.14840444 0 -40222.64532372 0 996
0.03050000 0.03053250 65822.66533102 0 3004.76082820 0 33002.32573318 0 9185.60124240 0 -37280.18018187 0 1041
0.03150000 0.03150510 62660.67028039 0 2953.69455193 0 27518.68668057 0 11260.20946326 0 -38366.02704248 0 1036
0.03250000 0.03246190 56769.10801275 0 2394.70823173 0 33453.86267304 0 14767.51730435 0 -28918.03529007 0 1059
0.03350000 0.03345080 55909.53545135 0 3144.22358182 0 16753.06584947 0 9714.51882190 0 -27219.01093208 0 1302
0.03450000 0.03451200 53030.24276661 0 1256.86212084 0 20009.14514672 0 5527.15161159 0 -6941.04562313 0 1339
0.03550000 0.03553350 52391.88621160 0 458.93890837 0 8780.18469248 0 2220.87156818 0 -16135.84171783 0 1365
0.03650000 0.03647120 54763.21388981 0 -1030.94415025 0 20421.90184156 0 -1375.04632262 0 2256.42574644 0 1308
0.03750000 0.03744890 53997.61316852 0 -1065.80028410 0 8926.62789021 0 630.47011446 0 -8406.34313047 0 1579
0.03850000 0.03847530 55816.91248933 0 422.58776797 0 14617.00499106 0 1092.28438129 0 -3891.83926194 0 1662
0.03950000 0.03950240 55202.72333339 0 -712.62578252 0 7813.92711500 0 4622.87498223 0 -6501.16523808 0 1683
0.04050000 0.04050350 54025.93960836 0 773.48266558 0 11269.31439036 0 2718.87735816 0 -12092.13002386 0 1822
0.04150000 0.04152450 54501.08191476 0 1813.35301657 0 5928.07190121 0 3539.60223063 0 -5945.89957327 0 1887
0.04250000 0.04250150 49111.75192179 0 2961.49556354 0 8806.54401845 0 -1448.60514100 0 -12829.62911832 0 1920
0.04350000 0.04349210 47989.26053979 0 4141.71892769 0 8789.79544886 0 -5677.58524032 0 -3703.92930367 0 2005
0.04450000 0.04448520 43771.76838552 0 2481.67714644 0 12479.03322202 0 -4806.77202819 0 -6431.47320355 0 2151
0.04550000 0.04548030 43172.07966902 0 2375.53168158 0 17326.56384976 0 -2003.48862369 0 896.45426051 0 2274
0.04650000 0.04648670 42364.32650750 0 583.89785035 0 17274.18241736 0 -3190.10791811 0 -3914.45545121 0 2311
0.04750000 0.04749250 42394.78867098 0 380.93553669 0 19671.58840526 0 3473.23742872 0 749.91888945 0 2568
0.04850000 0.04851840 42294.74687947 0 675.38550665 0 21334.64268091 0 252.02325784 0 -3662.61991223 0 2493
0.04950000 0.04949480 41518.35513348 0 607.71116893 0 18932.40321319 0 4200.72110338 0 -1037.19057986 0 2644
0.05050000 0.05050630 40628.65762812 0 601.97843705 0 17734.37465828 0 2782.54440390 0 -115.86413147 0 2829
0.05150000 0.05149060 40514.22780368 0 932.02754788 0 15632.59778460 0 1605.11996178 0 738.83111157 0 2784
0.05250000 0.05249300 39900.26346076 0 -35.24303705 0 16571.97896619 0 2985.57303740 0 3001.72585251 0 3055
0.05350000 0.05348950 39641.27886791 0 1028.73985864 0 13617.48632806 0 -118.40339447 0 2076.10322741 0 3009
0.05450000 0.05448610 38653.22566866 0 1939.18086086 0 15883.26429591 0 -302.69723540 0 4479.53420411 0 3336
0.05550000 0.05550870 37330.65070365 0 2318.17064090 0 16511.16704574 0 -45.33286996 0 5855.24372512 0 3349
0.05650000 0.05647670 36098.33816401 0 1295.15901788 0 18688.59349884 0 1197.62389148 0 6423.43613827 0 3324
0.05750000 0.05747970 35129.61888402 0 -70.58015835 0 16386.84544865 0 2820.16686190 0 5037.05923972 0 3639
0.05850000 0.05849280 35608.92023118 0 -771.24914828 0 16841.19255120 0 2548.88499716 0 1603.16408856 0 3846
0.05950000 0.05951020 36000.65690916 0 -409.56547410 0 17237.87511550 0 790.29305875 0 1609.24528060 0 3787
0.06050000 0.06049470 35935.46113492 0 317.35391989 0 14807.87124047 0 571.07114380 0 -877.92179965 0 3930
0.06150000 0.06148310 36514.91668010 0 852.13125061 0 18256.61529125 0 -1899.75989874 0 2881.42840838 0 4083
0.06250000 0.06249100 35089.37735440 0 1417.40109458 0 17351.18087487 0 -577.77731603 0 1005.13449210 0 4303
0.06350000 0.06350600 35031.93762916 0 1285.76183386 0 19903.70784286 0 444.24962600 0 5156.15393421 0 4470
0.06450000 0.06451750 33903.15148276 0 1158.19168872 0 19872.23402081 0 686.35638176 0 4264.23078001 0 4479
0.06550000 0.06550280 33984.75860706 0 969.15541725 0 21577.55314321 0 781.81198777 0 7081.50879467 0 4636
0.06650000 0.06648880 33349.77424727 0 584.00014027 0 19778.37458721 0 2626.49044980 0 7182.42735693 0 4653
0.06750000 0.06749660 32701.86313914 0 423.44205743 0 19402.03760073 0 1496.43410986 0 5842.76660281 0 5220
0.06850000 0.06852730 33118.21684221 0 -41.66043696 0 19352.12911149 0 1501.88582547 0 5832.59381390 0 5029
0.06950000 0.06949320 32134.09787071 0 237.59138637 0 17108.15800606 0 1442.93985304 0 2884.86804751 0 5040
0.07050000 0.07048030 31394.46305261 0 840.50841776 0 15338.20514196 0 1143.51139886 0 2313.98911883 0 5475
0.07150000 0.07148790 31020.14938327 0 833.75278667 0 15051.00651578 0 968.68218585 0 1451.26917523 0 5509
0.07250000 0.07249820 29685.65932849 0 901.25064618 0 14308.89875452 0 1222.64558001 0 1627.78111366 0 5916
0.07350000 0.07351270 29041.57004160 0 387.67318274 0 10791.77782535 0 2712.16668968 0 -1575.90551053 0 5721
0.07450000 0.07449140 28381.63143719 0 204.52926038 0 11249.98047110 0 1342.47091680 0 -1312.18860373 0 6028
0.07550000 0.07549160 27900.98121193 0 228.00086317 0 7534.78803540 0 1088.05789661 0 -3672.89386700 0 6183
0.07650000 0.07648840 27756.42644353 0 260.35258004 0 7747.76464480 0 448.35471164 0 -4779.01886153 0 6330
0.07750000 0.07749960 27132.79514097 0 665.15763855 0 7533.54032316 0 -894.27469834 0 -6291.14491982 0 6583
0.07850000 0.07848650 26737.01182874 0 607.07607216 0 6554.59205100 0 -1510.17018506 0 -8149.48302062 0 6549
0.07950000 0.07947320 26252.87700175 0 425.72390953 0 7602.18697718 0 -769.67096092 0 -6905.71625789 0 6828
0.08050000 0.08048110 26287.72301902 0 454.84281524 0 7934.66294450 0 -909.40124202 0 -7786.88210934 0 7147
0.08150000 0.08149960 25516.16475284 0 643.61717956 0 8596.83843841 0 446.14704784 0 -5467.94710419 0 7386
0.08250000 0.08250610 25334.17861751 0 927.45709929 0 9196.39226710 0 1795.72767623 0 -5664.44491961 0 7227
0.08350000 0.08350160 24122.66128172 0 1167.21793126 0 9098.03657320 0 1116.41356215 0 -3326.19847651 0 7798
0.08450000 0.08449610 23166.98115657 0 1180.76291539 0 9107.32135071 0 1310.24397116 0 -3019.78957823 0 7371
0.08550000 0.08548940 22085.18093022 0 919.38518800 0 8989.10342697 0 847.27641356 0 -1297.17109436 0 8256
0.08650000 0.08650700 21653.42753564 0 670.57563220 0 10072.42114117 0 1162.28328558 0 474.80958314 0 8037
0.08750000 0.08749060 21443.00255396 0 -153.19995288 0 10454.89552294 0 832.81306827 0 1821.60365421 0 8155
0.08850000 0.08849210 21616.22098173 0 -229.70606988 0 10465.54041918 0 702.12926287 0 2882.44006695 0 8718
0.08950000 0.08949900 22142.62065546 0 -280.28000565 0 10241.01966148 0 812.56978037 0 3144.14489727 0 8571
0.09050000 0.09049190 22380.24801191 0 -240.14189002 0 11719.39004562 0 608.38448390 0 5973.43916756 0 8932
0.09150000 0.09150830 22832.34698431 0 155.89321279 0 10643.74969587 0 353.70506029 0 4862.55937777 0 9285
0.09250000 0.09250820 22535.48139851 0 311.01194475 0 12147.09680594 0 782.66515316 0 6068.70368250 0 9204
0.09350000 0.09350330 22163.64067232 0 451.24468294 0 9272.49147255 0 1355.44262775 0 4936.41045307 0 9349
0.09450000 0.09448040 21096.34088542 0 762.61857665 0 9373.64608848 0 813.41058104 0 4518.26948653 0 9564
0.09550000 0.09549270 20520.59475498 0 759.72860535 0 7800.67438779 0 1183.64052197 0 3226.52762647 0 10155
0.09650000 0.09649430 19598.52417551 0 702.11465002 0 6725.20264780 0 934.79049983 0 1801.13442923 0 9913
0.09750000 0.09749140 18858.66454440 0 530.31479238 0 4840.59514624 0 600.54300595 0 1356.06086354 0 10476
0.09850000 0.09850240 18232.44789217 0 447.72635927 0 4010.40564585 0 79.90506497 0 140.31367088 0 10575
0.09950000 0.09950330 17901.97276068 0 60.48054607 0 3767.65255266 0 565.04390688 0 -351.07249989 0 10882
0.10050000 0.10051200 17603.64589028 0 122.74228566 0 3798.11471615 0 -121.28212513 0 -1044.50599536 0 10875
0.10150000 0.10150300 17801.25653013 0 249.87516949 0 3695.06043024 0 -219.24439625 0 -773.26459696 0 11118
0.10250000 0.10250800 17446.50159306 0 445.53443237 0 4243.88520218 0 195.80539134 0 400.19301952 0 11575
0.10350000 0.10349800 16976.52998600 0 375.05667636 0 4397.14023425 0 -110.27022164 0 -886.29046412 0 11364
0.10450000 0.10450100 16943.81969237 0 586.81030296 0 5669.46949049 0 222.58624171 0 636.24106455 0 12093
0.10550000 0.10551000 16319.28913776 0 402.06458787 0 4800.84820525 0 58.34605890 0 -148.12479907 0 12067
0.10650000 0.10649700 16503.29859023 0 276.23899171 0 5983.31969955 0 -63.39625846 0 1877.76194526 0 12054
0.10750000 0.10749900 16124.82588011 0 -97.15125817 0 5397.73799972 0 -215.76991111 0 -172.47204856 0 12807
0.10850000 0.10850100 16571.30452715 0 -119.14190523 0 6342.53717496 0 -94.17417182 0 827.10056957 0 12736
0.10950000 0.10950300 16563.09885212 0 -121.61597245 0 5857.14339510 0 119.95572834 0 -335.24678773 0 12933
0.11050000 0.11050200 16528.14042834 0 147.82804589 0 5982.47665075 0 143.27108609 0 219.08028275 0 13428
0.11150000 0.11150900 16613.56937390 0 163.57282537 0 6251.61155120 0 -282.55848556 0 130.31398799 0 13453
0.11250000 0.11250000 16484.63911001 0 312.04496055 0 6346.28031166 0 223.13253734 0 95.92366670 0 13668
0.11350000 0.11349100 16121.90331092 0 425.56541635 0 6562.48298782 0 -17.10242527 0 453.61083992 0 13791
0.11450000 0.11448600 15870.44995407 0 377.78028603 0 6754.69811531 0 36.97960518 0 568.41610210 0 14205
0.11550000 0.11549300 15458.14288526 0 383.28483269 0 6289.07664009 0 241.35363217 0 1429.90069819 0 14776
0.11650000 0.11649800 15281.21504275 0 300.30634899 0 7036.10780637 0 746.06109812 0 1102.38747816 0 14553
0.11750000 0.11747300 15065.50695523 0 241.54472323 0 6353.08090535 0 818.82407843 0 1305.29808483 0 14568
0.11850000 0.11849100 14828.44163131 0 134.73268779 0 6239.66273947 0 997.77411401 0 1503.05485315 0 16015
0.11950000 0.11950300 14619.14071470 0 46.57878369 0 5539.38143958 0 855.95531999 0 1641.07880347 0 15270
0.12050000 0.12050700 14480.20627166 0 1.83578936 0 4988.47714726 0 660.27132768 0 1088.09499076 0 15999
0.12150000 0.12150000 14474.69835280 0 234.19333765 0 5307.03718897 0 99.30440482 0 647.02646892 0 15670
0.12250000 0.12250700 14108.81517151 0 290.99459393 0 4651.86462047 0 -175.65877304 0 163.27270000 0 16887
0.12350000 0.12352200 14006.18803034 0 223.31800807 0 4570.50479047 0 -569.52218213 0 416.67406162 0 16407
0.12450000 0.12449800 13802.17021957 0 8.76640365 0 4241.13124276 0 20.24744694 0 -313.27356368 0 16306
0.12550000 0.12549900 13914.57672688 0 123.13121217 0 4694.74770300 0 -133.75025492 0 -441.64291909 0 17523
0.12650000 0.12650100 13829.26018783 0 162.24418046 0 3999.27740163 0 334.91069227 0 -467.56048748 0 17154
0.12750000 0.12750600 13508.67682898 0 295.95846529 0 4354.21218911 0 -67.22347523 0 -157.34325674 0 18007
0.12850000 0.12850300 13377.38602845 0 219.38378032 0 3985.46264188 0 165.41741616 0 -241.65712974 0 17496
0.12950000 0.12949900 13233.73051210 0 273.27595618 0 4378.26718167 0 -42.04295630 0 -433.26188991 0 18405
0.13050000 0.13049000 13198.77208833 0 199.70926934 0 4003.11046353 0 -162.62523852 0 -557.37890715 0 18100
0.13150000 0.13148800 13014.98744888 0 -71.31979316 0 4495.87811027 0 34.53914750 0 12.91393400 0 19059
0.13250000 0.13249300 13174.15506323 0 -185.36619901 0 4425.53411800 0 -144.67054710 0 -223.99581931 0 18957
0.13350000 0.13349100 13610.51712461 0 -208.57027431 0 4365.11562032 0 335.48171733 0 -277.43949321 0 19468
0.13450000 0.13450700 13516.54528449 0 -21.63724100 0 4698.98542833 0 513.61006133 0 512.56355675 0 19953
0.13550000 0.13551000 13551.27889525 0 216.68377601 0 4544.70749705 0 575.45949385 0 937.33650722 0 19956
0.13650000 0.13649900 13420.55012725 0 319.55146711 0 4542.53805146 0 373.38631566 0 1715.42446741 0 19723
0.13750000 0.13749600 13033.30970957 0 358.74649214 0 4647.01990000 0 185.34371771 0 1629.65830233 0 20946
0.13850000 0.13851100 12713.17597675 0 413.32996803 0 4807.77244610 0 233.00070461 0 1820.19857287 0 20955
0.13950000 0.13949800 12558.16740317 0 255.70232283 0 4846.82246674 0 -328.48778444 0 1896.32025962 0 20506
0.14050000 0.14048300 12240.61902002 0 246.56142565 0 5145.29546560 0 -51.14181344 0 1427.42775503 0 21447
0.14150000 0.14148400 12168.79126185 0 90.37213412 0 4848.86826518 0 -93.03954054 0 1320.00085599 0 21771
0.14250000 0.14249400 11873.38696064 0 140.55309674 0 4238.16371096 0 317.76645177 0 779.43234201 0 22470
0.14350000 0.14350900 11885.75167644 0 169.89344328 0 4292.78203286 0 475.13218981 0 875.18020494 0 22519
0.14450000 0.14449900 11637.78292132 0 172.40235652 0 3717.50800975 0 370.84705266 0 710.75309011 0 22218
0.14550000 0.14550500 11441.52115955 0 223.04373619 0 3636.17066106 0 594.72596920 0 799.91168358 0 23559
0.14650000 0.14650700 11154.70471550 0 252.00752093 0 3473.02385635 0 120.41659502 0 1152.17794058 0 23044
0.14750000 0.14750500 10925.81134467 0 258.43380096 0 3001.10761672 0 484.83736765 0 1372.07879083 0 23649
0.14850000 0.14849900 10778.21035992 0 219.22191495 0 3085.12024028 0 285.41923117 0 1136.68832387 0 23640
0.14950000 0.14949500 10642.07483892 0 121.91272563 0 2267.63267522 0 397.16703634 0 1377.93516986 0 24457
0.15050000 0.15050000 10540.53804086 0 -11.42286168 0 2563.95870979 0 464.13321307 0 1158.39402043 0 24591
0.15150000 0.15149900 10440.45128675 0 124.50369563 0 1701.68839221 0 154.27118689 0 668.65460499 0 25020
0.15250000 0.15250500 10361.59812188 0 50.43140432 0 1944.23915369 0 129.38663430 0 489.55282064 0 25297
0.15350000 0.15350100 10288.81490839 0 79.50939407 0 1725.32748070 0 -76.32446809 0 567.07846466 0 25452
0.15450000 0.15450400 10289.21957182 0 109.17931649 0 1979.14137421 0 -172.69124125 0 821.52408274 0 26061
0.15550000 0.15549900 10296.54847610 0 95.37658423 0 2273.53401685 0 28.55867169 0 695.61755390 0 26128
0.15650000 0.15649500 10241.37936231 0 195.59519117 0 2404.75737348 0 -20.09670982 0 942.05083614 0 26331
0.15750000 0.15749700 10065.60930683 0 104.72880564 0 2621.58952608 0 42.29339800 0 797.40951473 0 27345
0.15850000 0.15849900 9920.75104086 0 191.57216228 0 2462.07345156 0 -114.72432949 0 954.37620966 0 26980
0.15950000 0.15949700 9929.49626713 0 94.61300683 0 2823.61774167 0 48.07727484 0 756.13159711 0 27777
0.16050000 0.16050000 9747.80238871 0 111.17745456 0 2603.21106214 0 49.47988323 0 445.43101839 0 28224
0.16150000 0.16150500 9709.25819735 0 155.58521896 0 2495.39074033 0 -21.86744953 0 366.28110033 0 28075
0.16250000 0.16249700 9481.42144769 0 149.96714173 0 2521.86247280 0 -86.56177834 0 28.49729773 0 28590
0.16350000 0.16349900 9424.18405416 0 212.93501899 0 2576.07613127 0 -43.20613884 0 332.23878959 0 29163
0.16450000 0.16449100 9287.28416891 0 188.92498903 0 2378.88139550 0 63.52327782 0 -4.54275162 0 28996
0.16550000 0.16550500 9283.92321434 0 55.93932318 0 2539.33044404 0 203.77726084 0 226.23158474 0 30777
0.16650000 0.16650700 9160.45590671 0 143.54086170 0 2448.10132270 0 113.57216279 0 152.60419839 0 29211
0.16750000 0.16749900 9069.74385531 0 164.56425077 0 2544.78215964 0 74.24550974 0 299.25984441 0 30922
0.16850000 0.16850800 8914.52170937 0 159.06195223 0 2597.15235140 0 -150.81805899 0 302.55560321 0 30867
0.16950000 0.16949900 8850.15774328 0 128.39633297 0 2541.03902295 0 121.79469880 0 665.03399139 0 30852
0.17050000 0.17049200 8762.57059279 0 89.52222852 0 2826.95621494 0 111.81131485 0 431.83432726 0 31257
0.17150000 0.17149500 8663.27068423 0 39.97591304 0 2303.29925999 0 95.08488935 0 266.60575404 0 32608
0.17250000 0.17250900 8665.83355260 0 125.68846021 0 2753.99315105 0 -69.61739661 0 725.85153217 0 32361
0.17350000 0.17350400 8569.69226690 0 115.68540513 0 2622.58994400 0 57.45051626 0 506.40368015 0 32508
0.17450000 0.17449800 8426.75615220 0 122.30952060 0 2740.41444496 0 -8.31447329 0 774.09640511 0 32791
0.17550000 0.17549800 8494.91945823 0 117.33665672 0 2689.87647928 0 -2.00589412 0 838.47161185 0 33633
0.17650000 0.17650100 8421.48428701 0 126.77992740 0 2870.48001457 0 140.05063965 0 1146.75994692 0 33984
0.17750000 0.17750300 8229.90987660 0 185.03347575 0 2800.37207596 0 162.06208191 0 727.43871206 0 34069
