### header ###
fiducial parameters:
Omega_m = 0.31
Omega_nu = 0
Omega_de = 0.69
Omega_k = 0
H_0 = 100
w_de = -1
zeff = 0
beta = 0
fgrowth = 0
b_1 = 2
gamma = 0.55
Lx = 3500 Ly = 3500 Lz = 3500
nx = 700 ny = 700 nz = 700
xoffset = 857.220397 yoffset = 15.9954215 zoffset = 262.898189
bins = 400 dk = 0.001
kx_ny = 0.628318531 ky_ny = 0.628318531 kz_ny = 0.628318531
############################
A(data) = 3.08578343 (not used)
A(ran) = 3.08353904 (used)
Ngal = 188622
weighted Ngal = 0
Nran = 9360983
weighted Nran = 0
SN(data) = 3446.20805
SN(ran) = 69.2446984
SN(data+ran) = 3515.45274
############################
13 columns: k_central k_mean P_0(k) sigma^{lin}_{P_0(k)} P^img_1(k) sigma^{lin}_{P_1(k)} P_2(k) sigma^{lin}_{P_2(k)} P^img_3(k) sigma^{lin}_{P_3(k)} P_4(k) sigma^{lin}_{P_4(k)} N_modes
### header ###
0.00050000 0 0 0 0 0 0 0 0 0 0 0 0
0.00150000 0.00179520 -786.81182922 0 -1867.47674984 0 2934.79901805 0 1405.20498853 0 3706.46969074 0 3
0.00250000 0.00253879 5358.03602134 0 -6252.52204391 0 -3169.21154840 0 7563.32804760 0 2925.03089257 0 6
0.00350000 0.00331552 9529.35158240 0 -9175.10247462 0 493.42634888 0 -14132.30813154 0 8920.37808840 0 7
0.00450000 0.00420575 17997.74310491 0 -9187.36602456 0 -5367.90531268 0 -12946.53188593 0 -4041.95815245 0 24
0.00550000 0.00557378 30964.39575565 0 -9469.55132051 0 -2339.98874397 0 -20982.13587399 0 -9271.00770665 0 45
0.00650000 0.00659388 42077.80232036 0 -13046.23645791 0 -13409.08466351 0 -9295.72589761 0 -27197.99091521 0 40
0.00750000 0.00754703 47360.79575742 0 -12139.11594392 0 -4127.61191102 0 -19411.92937338 0 -2117.17656518 0 57
0.00850000 0.00846663 60640.16331149 0 -8706.70455866 0 -16004.10129126 0 4371.66891969 0 -15867.30257187 0 75
0.00950000 0.00948925 72514.11230467 0 -21907.46624217 0 -27643.79512320 0 16746.20905252 0 6599.97055800 0 112
0.01050000 0.01054430 80253.97477200 0 -6624.49765790 0 -26509.38865143 0 -24255.97539939 0 -34376.72009805 0 105
0.01150000 0.01145670 87676.73848221 0 -6124.01892475 0 -29094.73831956 0 -11250.65491014 0 -926.14081909 0 144
0.01250000 0.01249090 78320.02081373 0 4411.59571109 0 -10787.77615369 0 -41007.24274474 0 -22374.29046702 0 169
0.01350000 0.01339930 88395.35328344 0 4969.52541012 0 -5064.11548602 0 -40733.87011897 0 -16000.84150255 0 180
0.01450000 0.01448870 79536.37162933 0 2090.51374165 0 18371.94436775 0 -35097.24580991 0 -10120.83462387 0 267
0.01550000 0.01550050 87428.65732058 0 -814.43572839 0 28537.98888885 0 -11429.38125676 0 -30777.46373399 0 238
0.01650000 0.01653350 88059.59504611 0 1447.18881901 0 30342.78777022 0 -2217.83659248 0 -6944.56394681 0 315
0.01750000 0.01747870 87649.31129443 0 3071.23803663 0 28704.80014570 0 4337.26128781 0 -22509.29068230 0 297
0.01850000 0.01844180 91340.17896195 0 2104.32850140 0 43681.84317968 0 9232.93562263 0 -3429.56750063 0 388
0.01950000 0.01947590 86059.43365503 0 5502.05123850 0 34554.77200563 0 5266.46968048 0 -27603.21637407 0 399
0.02050000 0.02045430 84396.37937938 0 4894.42662259 0 38969.31276721 0 185.00200193 0 -13085.46632896 0 462
0.02150000 0.02154770 80603.33419672 0 5592.62840209 0 48678.31242960 0 -4803.29866711 0 -13555.55034253 0 571
0.02250000 0.02255340 74409.62323743 0 4958.83555128 0 48486.09730210 0 -7644.01343855 0 -11468.38631480 0 510
0.02350000 0.02348930 75778.17246393 0 1940.55222025 0 48306.69651643 0 1000.30326042 0 -15581.22801076 0 555
0.02450000 0.02439640 77297.68362975 0 16.67145873 0 55767.67843913 0 10442.24979087 0 -31896.69532728 0 592
0.02550000 0.02547300 74615.10233280 0 -896.89601809 0 40429.81051669 0 8424.93516678 0 -27599.95658535 0 837
0.02650000 0.02652900 72904.94973058 0 1807.17065867 0 32978.49555363 0 13172.35655911 0 -33551.31911488 0 723
0.02750000 0.02749970 67802.03151824 0 5254.50962811 0 37416.52927524 0 -2806.08232653 0 -24854.20283129 0 826
0.02850000 0.02848090 64052.26284088 0 6855.88645320 0 33866.16974185 0 3498.61881807 0 -26072.01493149 0 831
0.02950000 0.02946900 60432.99811852 0 7156.29284398 0 37834.11944989 0 -5623.23669403 0 -12823.67157344 0 996
0.03050000 0.03053250 57004.15001954 0 2959.13502689 0 32032.93201413 0 1952.18629375 0 -13898.05297030 0 1041
0.03150000 0.03150510 57109.25010387 0 -968.60912162 0 44124.94963149 0 4042.37405653 0 -10396.18560417 0 1036
0.03250000 0.03246190 58641.46320501 0 -951.82345788 0 31793.95577959 0 4055.76167155 0 -8519.86246221 0 1059
0.03350000 0.03345080 58196.22102956 0 -277.95319095 0 33184.19946200 0 15076.41038643 0 -5334.66670847 0 1302
0.03450000 0.03451200 57925.88337948 0 1690.52642604 0 22852.58015563 0 13217.65638156 0 287.01652763 0 1339
0.03550000 0.03553350 55046.14106871 0 2739.95357828 0 17130.86412054 0 16142.13648224 0 5778.87474406 0 1365
0.03650000 0.03647120 53225.15565029 0 1987.63930616 0 16162.14484054 0 8562.91415451 0 1791.73724522 0 1308
0.03750000 0.03744890 49897.58581439 0 1803.64109434 0 12935.96567424 0 7004.47661521 0 13228.67221927 0 1579
0.03850000 0.03847530 50163.42720418 0 1999.23965771 0 15196.34812973 0 -39.78336069 0 20497.10179495 0 1662
0.03950000 0.03950240 49002.60520319 0 214.92461417 0 17544.74488045 0 -1291.82054461 0 26832.55735995 0 1683
0.04050000 0.04050350 49645.79523802 0 415.04641540 0 17860.26994647 0 3720.86896432 0 22642.37998696 0 1822
0.04150000 0.04152450 48499.02405044 0 -10.03056096 0 24154.58472980 0 2323.16148983 0 26775.79207376 0 1887
0.04250000 0.04250150 48466.76338284 0 2378.19571581 0 16662.35379807 0 2764.27834646 0 14384.21111442 0 1920
0.04350000 0.04349210 46459.97000784 0 3597.24428758 0 24386.59176089 0 1009.19011889 0 19547.26680818 0 2005
0.04450000 0.04448520 41421.01109815 0 3022.66718482 0 18194.56689921 0 -606.41737003 0 12117.53389452 0 2151
0.04550000 0.04548030 40421.71724817 0 392.40324856 0 18688.70590535 0 2383.72611597 0 13793.62732501 0 2274
0.04650000 0.04648670 39974.00212955 0 -830.63912642 0 15965.88307878 0 2200.15504888 0 8816.23345938 0 2311
0.04750000 0.04749250 39455.69572434 0 -852.62246705 0 11006.46301366 0 4236.12915318 0 6295.29271994 0 2568
0.04850000 0.04851840 40467.91632267 0 162.57240746 0 9175.31604698 0 3336.88833535 0 2829.36171420 0 2493
0.04950000 0.04949480 39442.09453696 0 364.24654255 0 6085.00262606 0 -893.96670451 0 1314.51541843 0 2644
0.05050000 0.05050630 39738.17327721 0 917.29667510 0 6873.84901306 0 -666.04452589 0 3353.97412446 0 2829
0.05150000 0.05149060 39425.57078039 0 12.37044854 0 7050.20358238 0 -506.53407170 0 -2590.99247479 0 2784
0.05250000 0.05249300 39160.62864266 0 616.60814398 0 9641.28598238 0 -3022.19507749 0 1230.10937210 0 3055
0.05350000 0.05348950 39694.33473936 0 800.24553091 0 11009.38558285 0 -2071.92170534 0 70.98425974 0 3009
0.05450000 0.05448610 37882.34184153 0 1208.31375033 0 12521.86010131 0 -1611.87559287 0 -692.81188748 0 3336
0.05550000 0.05550870 37372.80314389 0 1022.72386237 0 11757.60825811 0 1235.40371859 0 -2092.21107991 0 3349
0.05650000 0.05647670 36384.74994464 0 1066.47359908 0 11725.90962305 0 1061.09944396 0 -2331.49081202 0 3324
0.05750000 0.05747970 35727.50909640 0 933.42138857 0 10788.27074232 0 389.22439254 0 -2771.56228814 0 3639
0.05850000 0.05849280 34656.16267523 0 1041.23496599 0 10833.73917453 0 -482.51842141 0 -2888.01542971 0 3846
0.05950000 0.05951020 33484.54964953 0 1634.91892687 0 8691.73201188 0 -2382.77066065 0 -6098.79490451 0 3787
0.06050000 0.06049470 32624.19024258 0 1200.70382978 0 9982.21491905 0 -2257.33623915 0 -8126.63077768 0 3930
0.06150000 0.06148310 31725.38781013 0 619.91851562 0 9714.19284302 0 -1810.36300348 0 -7210.30417074 0 4083
0.06250000 0.06249100 31130.53257345 0 162.91861950 0 10443.08159902 0 872.69377300 0 -9674.51334594 0 4303
0.06350000 0.06350600 31241.70260918 0 204.97326608 0 9384.24602212 0 1561.31514588 0 -8905.43926358 0 4470
0.06450000 0.06451750 30919.32074622 0 339.06973304 0 8672.36437067 0 2170.38980574 0 -8828.84546950 0 4479
0.06550000 0.06550280 30977.43491049 0 552.48585188 0 9063.78631043 0 1316.48253231 0 -7269.36254968 0 4636
0.06650000 0.06648880 30069.19033143 0 478.52349414 0 9244.23247661 0 -55.40483023 0 -6186.77547778 0 4653
0.06750000 0.06749660 30484.86959546 0 -268.54139409 0 9219.08714093 0 91.16797219 0 -4449.08328128 0 5220
0.06850000 0.06852730 31253.73010546 0 -593.92113861 0 10182.09617035 0 -766.61687611 0 -3287.06977131 0 5029
0.06950000 0.06949320 31822.61943896 0 -173.78383250 0 11280.77985410 0 275.41505202 0 -936.83629826 0 5040
0.07050000 0.07048030 31861.17487097 0 430.53265991 0 10314.72460833 0 470.43809407 0 -2179.39356698 0 5475
0.07150000 0.07148790 30970.57811355 0 888.62402321 0 11450.40127363 0 661.91471081 0 -1736.87162900 0 5509
0.07250000 0.07249820 30128.65337380 0 1602.48964951 0 12156.53895255 0 -452.54747436 0 -132.36765488 0 5916
0.07350000 0.07351270 29217.26141253 0 1065.74295678 0 12134.05765109 0 971.18210657 0 133.98518452 0 5721
0.07450000 0.07449140 28058.46272867 0 1030.49002796 0 13362.21114996 0 -204.78891941 0 1307.10782960 0 6028
0.07550000 0.07549160 27693.81601896 0 425.92961343 0 12750.71975019 0 607.21995249 0 983.62550693 0 6183
0.07650000 0.07648840 26928.10289116 0 729.69808285 0 12630.21997436 0 974.94098018 0 451.99555841 0 6330
0.07750000 0.07749960 26624.38050841 0 744.87970573 0 11401.16722343 0 1258.71682821 0 -128.06360971 0 6583
0.07850000 0.07848650 25342.38429254 0 750.47642573 0 10808.13297216 0 1830.86595041 0 -147.06817790 0 6549
0.07950000 0.07947320 25111.83854605 0 748.42275884 0 10043.09428341 0 1610.22321721 0 -354.06026485 0 6828
0.08050000 0.08048110 23475.87423866 0 504.32078757 0 7988.87660297 0 2103.40676804 0 -1717.79624471 0 7147
0.08150000 0.08149960 23344.47103162 0 564.97871111 0 7456.89032583 0 1310.48002482 0 116.31825376 0 7386
0.08250000 0.08250610 22664.86128842 0 180.88679969 0 6706.17222611 0 1303.70191243 0 -63.94468981 0 7227
0.08350000 0.08350160 22571.90110687 0 134.67985673 0 5951.94704336 0 1088.70198590 0 223.43041458 0 7798
0.08450000 0.08449610 22249.29443089 0 15.83380543 0 5587.28909300 0 72.50748032 0 756.21927419 0 7371
0.08550000 0.08548940 22411.38461444 0 270.81425367 0 5014.12831222 0 -777.19095626 0 -1383.93767735 0 8256
0.08650000 0.08650700 22204.66904749 0 376.78436437 0 6916.78829886 0 -1133.67582947 0 68.42768614 0 8037
0.08750000 0.08749060 21742.56589594 0 305.42084508 0 5478.43463132 0 -1656.86067710 0 -2730.06180564 0 8155
0.08850000 0.08849210 22045.72624616 0 179.23442404 0 7800.84299755 0 -796.84410999 0 -1256.76095498 0 8718
0.08950000 0.08949900 21403.77268291 0 316.63451825 0 6426.56103918 0 -482.60497442 0 -3776.01559681 0 8571
0.09050000 0.09049190 21556.98275237 0 514.82067941 0 7787.70267684 0 -281.42093170 0 -2520.64848252 0 8932
0.09150000 0.09150830 20694.82484131 0 436.05856381 0 8075.60946402 0 212.76528517 0 -2986.88819354 0 9285
0.09250000 0.09250820 20698.30944303 0 539.46243395 0 8621.51166677 0 1157.23623341 0 -341.95745621 0 9204
0.09350000 0.09350330 19982.72961750 0 421.83352031 0 8126.69822159 0 2227.20005454 0 1064.70544472 0 9349
0.09450000 0.09448040 20095.47334433 0 408.36722073 0 9113.75100293 0 1600.54501694 0 2450.73163497 0 9564
0.09550000 0.09549270 19531.52989716 0 553.48177354 0 7673.75620038 0 1639.32526196 0 3149.42800311 0 10155
0.09650000 0.09649430 19182.73250497 0 325.28419898 0 8926.24570808 0 802.41834869 0 4584.20714372 0 9913
0.09750000 0.09749140 18634.07634279 0 266.05046589 0 6838.65453562 0 1050.54672106 0 4696.81598274 0 10476
0.09850000 0.09850240 18865.29652833 0 59.96280170 0 6520.83637686 0 880.13058752 0 4847.18216757 0 10575
0.09950000 0.09950330 18269.31722657 0 321.58265270 0 5960.61358507 0 512.58378992 0 3992.45432663 0 10882
0.10050000 0.10051200 17760.00334195 0 611.94889425 0 5643.86328813 0 906.63604194 0 4108.67141454 0 10875
0.10150000 0.10150300 16842.99105532 0 430.60235194 0 4576.77707358 0 735.00929032 0 3201.31484688 0 11118
0.10250000 0.10250800 16905.93869941 0 418.95591372 0 4603.73215404 0 -18.90666212 0 4095.76714750 0 11575
0.10350000 0.10349800 16265.67123377 0 158.03455676 0 4554.28453147 0 516.22238856 0 3039.01109098 0 11364
0.10450000 0.10450100 16276.91188450 0 9.95332645 0 4658.36171659 0 400.19751578 0 3804.69049682 0 12093
0.10550000 0.10551000 16111.67431876 0 64.06473996 0 4207.19571820 0 -421.05229508 0 2383.74859727 0 12067
0.10650000 0.10649700 16219.24734625 0 196.11226111 0 5004.52879650 0 -858.10902867 0 2975.13047288 0 12054
0.10750000 0.10749900 15894.95457267 0 258.42368437 0 4946.59448263 0 -87.46395296 0 716.65330768 0 12807
0.10850000 0.10850100 16175.29640190 0 142.20884459 0 5464.17024554 0 -847.89240122 0 1643.77655965 0 12736
0.10950000 0.10950300 15907.54410148 0 -36.12722664 0 4705.74105942 0 151.63525430 0 44.83311063 0 12933
0.11050000 0.11050200 16031.86569857 0 -30.86154380 0 5303.57506855 0 101.48295534 0 -162.99055966 0 13428
0.11150000 0.11150900 16033.32698316 0 -119.64211419 0 4848.69965542 0 728.11090297 0 234.31024042 0 13453
0.11250000 0.11250000 16333.11513816 0 -28.92938835 0 4880.02734900 0 75.00863751 0 -151.77351430 0 13668
0.11350000 0.11349100 16233.18575316 0 155.42784985 0 5260.45593234 0 -61.48276249 0 390.01348622 0 13791
0.11450000 0.11448600 16133.36877467 0 260.82019111 0 4521.78781021 0 -125.02526182 0 -280.28000565 0 14205
0.11550000 0.11549300 16176.08324745 0 324.05334773 0 5533.76111422 0 -145.44952420 0 875.82541829 0 14776
0.11650000 0.11649800 15800.08348050 0 411.02788276 0 4750.92847536 0 13.91974743 0 -89.30820653 0 14553
0.11750000 0.11747300 15511.42356972 0 437.47488580 0 5476.26518573 0 69.99530729 0 1116.10332019 0 14568
0.11850000 0.11849100 15103.61276120 0 341.87427540 0 4892.52695262 0 378.74360980 0 264.15754031 0 16015
0.11950000 0.11950300 14820.91039532 0 328.86434624 0 5039.06007555 0 426.81874891 0 687.57374424 0 15270
0.12050000 0.12050700 14419.84397724 0 159.95783210 0 4789.16916914 0 647.56602016 0 1265.67479101 0 15999
0.12150000 0.12150000 14428.83649782 0 36.60461707 0 4517.47140033 0 434.30839449 0 869.65317697 0 15670
0.12250000 0.12250700 14418.38269264 0 113.60813287 0 4487.82980435 0 41.82589934 0 1273.89170669 0 16887
0.12350000 0.12352200 14250.67218374 0 343.14671706 0 4405.37963124 0 -212.12906433 0 585.22199901 0 16407
0.12450000 0.12449800 13918.39854813 0 346.67740545 0 4541.09924816 0 -447.58922333 0 979.71151235 0 16306
0.12550000 0.12549900 13673.23995568 0 271.76970898 0 4369.28590174 0 -273.43782155 0 9.68335974 0 17523
0.12650000 0.12650100 13531.60775647 0 132.03268349 0 4721.08454767 0 14.93927445 0 23.09088195 0 17154
0.12750000 0.12750600 13490.91660083 0 38.29993202 0 4287.37527986 0 156.60137379 0 -681.47456715 0 18007
0.12850000 0.12850300 13466.07476271 0 101.40179784 0 4509.67038872 0 146.76580440 0 -617.75581442 0 17496
0.12950000 0.12949900 13373.22698767 0 167.33057491 0 4198.54041714 0 217.73252872 0 -722.32983630 0 18405
0.13050000 0.13049000 13080.52044264 0 138.43760627 0 4094.50819462 0 -5.80416621 0 -943.05799844 0 18100
0.13150000 0.13148800 13151.78616827 0 296.77678466 0 4035.11259616 0 298.41679561 0 -642.07383821 0 19059
0.13250000 0.13249300 12787.02705205 0 298.85855318 0 3945.26607486 0 43.35608912 0 -738.10833773 0 18957
0.13350000 0.13349100 12504.88671871 0 350.03161563 0 4217.46967297 0 66.04005952 0 -546.70028895 0 19468
0.13450000 0.13450700 12336.61417726 0 131.98772088 0 3931.77729399 0 -84.76540994 0 12.53815904 0 19953
0.13550000 0.13551000 12317.16785150 0 64.98647332 0 4213.46800131 0 354.27608535 0 -48.98394572 0 19956
0.13650000 0.13649900 12142.93776517 0 115.18519617 0 3802.20631301 0 210.44858705 0 -171.41879958 0 19723
0.13750000 0.13749600 12078.75364949 0 217.28627489 0 4339.07103257 0 177.35386317 0 28.07026541 0 20946
0.13850000 0.13851100 11841.12629304 0 192.37924100 0 4095.31752147 0 108.25690869 0 165.07345224 0 20955
0.13950000 0.13949800 11741.19690804 0 211.95483425 0 4068.22755321 0 151.69707788 0 86.02548689 0 20506
0.14050000 0.14048300 11645.31415731 0 33.71644427 0 4090.19178474 0 121.99253425 0 583.81579360 0 21447
0.14150000 0.14148400 11563.03259396 0 39.50088314 0 3979.71866936 0 326.26101153 0 280.67118030 0 21771
0.14250000 0.14249400 11709.61067949 0 101.67753100 0 3896.27931898 0 328.08536915 0 614.24311106 0 22470
0.14350000 0.14350900 11561.34649635 0 111.32493190 0 3579.98988871 0 380.21613504 0 649.44320883 0 22519
0.14450000 0.14449900 11450.40127363 0 200.59166042 0 3715.52965522 0 208.86590343 0 1194.15053041 0 22218
0.14550000 0.14550500 11388.35288160 0 123.92705024 0 3571.91910149 0 12.47240124 0 884.52455789 0 23559
0.14650000 0.14650700 11260.77149580 0 159.14176085 0 4022.41066083 0 86.51838942 0 1193.32996290 0 23044
0.14750000 0.14750500 11205.26516249 0 207.12809882 0 3805.84828385 0 -205.78371700 0 1236.57274627 0 23649
0.14850000 0.14849900 10890.68431113 0 316.51199515 0 4090.68637337 0 235.28592891 0 1331.56748559 0 23640
0.14950000 0.14949500 10722.92883962 0 322.99110623 0 4219.07708602 0 189.81412450 0 1693.70753019 0 24457
0.15050000 0.15050000 10383.06776477 0 210.25637192 0 3711.71907463 0 469.81536202 0 1359.55670591 0 24591
0.15150000 0.15149900 10215.34601521 0 172.58108287 0 3973.19909193 0 538.31588757 0 1765.24303145 0 25020
0.15250000 0.15250500 10084.26878704 0 103.27921132 0 3415.60661242 0 81.76539267 0 983.88516596 0 25297
0.15350000 0.15350100 9973.60458059 0 79.23467256 0 3561.38661175 0 67.69625699 0 1324.60952279 0 25452
0.15450000 0.15450400 9830.34248703 0 71.45692910 0 3427.29688918 0 -134.99684308 0 1253.99575490 0 26061
0.15550000 0.15549900 9930.50792569 0 -5.07843608 0 3107.39921003 0 213.12835818 0 873.21646326 0 26128
0.15650000 0.15649500 9919.66069774 0 -64.81853800 0 2870.48001457 0 234.52718498 0 595.88825249 0 26331
0.15750000 0.15749700 9951.07831653 0 51.92731012 0 2465.41192483 0 250.40235601 0 248.50043791 0 27345
0.15850000 0.15849900 9908.81346978 0 122.58266842 0 2400.50840751 0 197.69719286 0 440.00290815 0 26980
0.15950000 0.15949700 9669.63490353 0 295.36271080 0 2432.94892552 0 127.43300921 0 487.93978726 0 27777
0.16050000 0.16050000 9350.89501140 0 309.71702179 0 2431.63376938 0 22.52221743 0 684.53876854 0 28224
0.16150000 0.16150500 9183.36435290 0 276.82575368 0 2594.98290580 0 158.65054442 0 845.98373873 0 28075
0.16250000 0.16249700 8893.87263398 0 265.31757546 0 2936.33898720 0 -72.66282611 0 1014.46985254 0 28590
0.16350000 0.16349900 8836.34298354 0 127.86240207 0 2882.45130760 0 83.35583234 0 1286.12153469 0 29163
0.16450000 0.16449100 8661.12371994 0 84.82183801 0 3123.04619584 0 -289.11066087 0 1120.49054617 0 28996
0.16550000 0.16550500 8736.57096765 0 80.50857551 0 3065.42662020 0 -147.97867061 0 1143.71373058 0 30777
0.16650000 0.16650700 8703.62462036 0 64.04371995 0 3250.91983856 0 4.33748610 0 936.83967046 0 29211
0.16750000 0.16749900 8680.73865547 0 109.53710640 0 3180.62080889 0 4.13376055 0 931.07771289 0 30922
0.16850000 0.16850800 8613.18234457 0 11.45793251 0 2825.48368969 0 93.41542790 0 510.52337864 0 30867
0.16950000 0.16949900 8535.23967241 0 48.25262899 0 3008.31287383 0 544.23521425 0 832.62422534 0 30852
0.17050000 0.17049200 8578.31384601 0 1.61520283 0 2468.49186313 0 433.02808437 0 486.84832007 0 31257
0.17150000 0.17149500 8455.36360831 0 28.78741893 0 2397.65328222 0 552.56453644 0 722.37704703 0 32608
0.17250000 0.17250900 8467.13256963 0 119.26105613 0 1952.23125636 0 335.34795358 0 674.64474777 0 32361
0.17350000 0.17350400 8247.29916328 0 143.61505000 0 2004.34291314 0 322.48190476 0 574.98963465 0 32508
0.17450000 0.17449800 8093.30224827 0 193.66629551 0 1778.66436842 0 -16.31108346 0 754.66806439 0 32791
0.17550000 0.17549800 8014.99987527 0 190.31208533 0 1731.45363535 0 -77.32072696 0 755.26381888 0 33633
0.17650000 0.17650100 7859.03584638 0 89.81111324 0 1563.79932970 0 225.50319057 0 842.80600677 0 33984
0.17750000 0.17750300 7762.29880619 0 60.51224471 0 1555.33511970 0 120.43458006 0 653.99342424 0 34069
0.17850000 0.17849800 7765.42370709 0 -19.95496521 0 1231.04234611 0 222.85152107 0 381.84378127 0 34536
