### header ###
fiducial parameters:
Omega_m = 0.31
Omega_nu = 0
Omega_de = 0.69
Omega_k = 0
H_0 = 100
w_de = -1
zeff = 0
beta = 0
fgrowth = 0
b_1 = 2
gamma = 0.55
Lx = 3500 Ly = 3500 Lz = 3500
nx = 700 ny = 700 nz = 700
xoffset = 857.220397 yoffset = 15.9954215 zoffset = 262.898189
bins = 400 dk = 0.001
kx_ny = 0.628318531 ky_ny = 0.628318531 kz_ny = 0.628318531
############################
A(data) = 3.06380729 (not used)
A(ran) = 3.05891224 (used)
Ngal = 185952
weighted Ngal = 0
Nran = 9360983
weighted Nran = 0
SN(data) = 3464.05824
SN(ran) = 68.6916729
SN(data+ran) = 3532.74991
############################
13 columns: k_central k_mean P_0(k) sigma^{lin}_{P_0(k)} P^img_1(k) sigma^{lin}_{P_1(k)} P_2(k) sigma^{lin}_{P_2(k)} P^img_3(k) sigma^{lin}_{P_3(k)} P_4(k) sigma^{lin}_{P_4(k)} N_modes
### header ###
0.00050000 0 0 0 0 0 0 0 0 0 0 0 0
0.00150000 0.00179520 5885.08765281 0 -8183.78948665 0 1419.45813366 0 -5236.47962433 0 -26585.26304387 0 3
0.00250000 0.00253879 11867.87904178 0 -12886.95643705 0 -17851.50223890 0 19180.48437483 0 2033.96202782 0 6
0.00350000 0.00331552 21108.59319471 0 -17529.90722149 0 -15304.25837675 0 -2965.66584496 0 -4082.42449508 0 7
0.00450000 0.00420575 34343.78499141 0 -23896.38698251 0 -37893.02045972 0 20171.68495629 0 -2641.47423723 0 24
0.00550000 0.00557378 52557.91062290 0 -19435.42233341 0 -47587.07005664 0 11347.32450643 0 -2762.85078382 0 45
0.00650000 0.00659388 73106.49459819 0 -19966.76789346 0 -86342.02361441 0 3311.75424032 0 6119.11800103 0 40
0.00750000 0.00754703 68959.93095004 0 -6576.48883863 0 -62217.78864159 0 -5013.03796910 0 20486.19836374 0 57
0.00850000 0.00846663 68203.21034283 0 -909.87672155 0 -70895.57100591 0 -24645.35154071 0 12940.23712152 0 75
0.00950000 0.00948925 59882.20623270 0 -397.78864433 0 -53372.85780089 0 -12941.58599960 0 23500.26645075 0 112
0.01050000 0.01054430 63920.85963384 0 560.60722204 0 -62746.32403896 0 -9251.16795811 0 34067.48979644 0 105
0.01150000 0.01145670 59785.53663642 0 -4197.27022360 0 -44757.01142209 0 -20438.65041115 0 14672.75861868 0 144
0.01250000 0.01249090 65044.25026789 0 -6286.68238148 0 -41077.04718578 0 -10549.09217607 0 29841.22993461 0 169
0.01350000 0.01339930 63614.43949491 0 -10113.84293911 0 -28925.00449352 0 -9010.86532679 0 16923.58652106 0 180
0.01450000 0.01448870 79783.89075843 0 -7444.37948157 0 -23193.28427928 0 -6187.31502902 0 24407.04974522 0 267
0.01550000 0.01550050 87161.57945921 0 -310.71631564 0 -24706.83790021 0 -20594.10861076 0 -184.33205914 0 238
0.01650000 0.01653350 83984.29712359 0 6894.21707219 0 -1466.18551875 0 -11439.04821639 0 20875.46209855 0 315
0.01750000 0.01747870 76080.54596860 0 14629.25730036 0 5123.83706336 0 -26877.18274335 0 250.68337228 0 297
0.01850000 0.01844180 66261.61274206 0 12802.20193054 0 23029.73281115 0 -19173.17795185 0 23616.71959232 0 388
0.01950000 0.01947590 62390.22022380 0 8006.11976120 0 30766.11067675 0 -7814.44418493 0 706.09271632 0 399
0.02050000 0.02045430 56258.55765655 0 733.48505808 0 31159.53345234 0 -571.61294317 0 4773.28612966 0 462
0.02150000 0.02154770 61162.85357048 0 -5707.83383144 0 38646.03165219 0 10408.43791347 0 636.40180585 0 571
0.02250000 0.02255340 66675.71831499 0 -7125.93184636 0 32772.34201922 0 4019.80282986 0 -6672.28166416 0 510
0.02350000 0.02348930 70202.69729485 0 1340.89722570 0 35293.61997818 0 6448.89621218 0 2743.97773124 0 555
0.02450000 0.02439640 67686.92725475 0 2978.94105347 0 27257.22914457 0 1826.83055680 0 -1007.96151576 0 592
0.02550000 0.02547300 64118.35786718 0 5344.18753964 0 29885.06847246 0 5327.87735543 0 11440.39709448 0 837
0.02650000 0.02652900 60660.05926329 0 3968.66910969 0 25102.50880594 0 8930.70824642 0 6628.93771494 0 723
0.02750000 0.02749970 58151.14602013 0 1597.01545261 0 25585.51956785 0 8200.38068713 0 7301.58949533 0 826
0.02850000 0.02848090 56071.06360236 0 -1250.51115317 0 11298.09045623 0 8882.90175886 0 124.96568637 0 831
0.02950000 0.02946900 56881.62692657 0 -961.19703653 0 14714.23661988 0 1642.52884742 0 6155.16676793 0 996
0.03050000 0.03053250 58956.42623850 0 -1386.77032133 0 9028.19841021 0 -4998.24527274 0 -3974.10958464 0 1041
0.03150000 0.03150510 59244.86133625 0 434.75689645 0 18708.03982460 0 -8105.99294294 0 -4334.82206660 0 1036
0.03250000 0.03246190 62006.91403387 0 603.44534197 0 22821.55595961 0 -8565.88168630 0 -5103.98607417 0 1059
0.03350000 0.03345080 59286.90136999 0 -644.48608186 0 27529.59011178 0 -1325.98088218 0 -5918.39370093 0 1302
0.03450000 0.03451200 62223.63377997 0 582.89743244 0 26688.33981107 0 2395.37143012 0 -80.01083950 0 1339
0.03550000 0.03553350 60112.63957269 0 1141.33071262 0 28776.17827784 0 7315.43797703 0 -6186.32585175 0 1365
0.03650000 0.03647120 61979.14962657 0 2218.35366241 0 24728.98198215 0 6280.85972440 0 3052.81461008 0 1308
0.03750000 0.03744890 57722.98963379 0 1648.12669148 0 23630.88281224 0 8977.54803802 0 709.59080683 0 1579
0.03850000 0.03847530 56916.47294384 0 915.38239228 0 18039.89554515 0 3749.71247410 0 3424.27315413 0 1662
0.03950000 0.03950240 54565.37843694 0 138.04530756 0 11569.43976487 0 2432.53302144 0 -3844.05525568 0 1683
0.04050000 0.04050350 55806.23387114 0 555.33086058 0 13465.06310415 0 2963.95726605 0 -3646.63570689 0 1822
0.04150000 0.04152450 54641.02801636 0 435.00081857 0 9269.52394076 0 -4028.15463336 0 -5011.34063084 0 1887
0.04250000 0.04250150 53156.81249384 0 2477.56306827 0 10439.14737127 0 1499.63769532 0 -7880.69658034 0 1920
0.04350000 0.04349210 52774.51796248 0 1093.91202751 0 9074.80214814 0 848.39036205 0 -1083.04007013 0 2005
0.04450000 0.04448520 50153.19821201 0 2607.43754681 0 7720.39366027 0 3510.70251760 0 -45.60961478 0 2151
0.04550000 0.04548030 49607.01499300 0 1989.21299726 0 4725.87306488 0 5441.59901887 0 -319.16816092 0 2274
0.04650000 0.04648670 46492.90511448 0 2867.81598035 0 3675.89512075 0 3056.60270937 0 -4604.21550202 0 2311
0.04750000 0.04749250 42663.44022345 0 3256.07929725 0 1489.77964463 0 -696.82479979 0 -2517.87204179 0 2568
0.04850000 0.04851840 41361.88527531 0 2766.36910750 0 6163.18135190 0 -4373.38873926 0 -2914.02629550 0 2493
0.04950000 0.04949480 37724.86032479 0 2210.82242642 0 6946.95820542 0 -5796.62373156 0 -1202.32248349 0 2644
0.05050000 0.05050630 38738.76702072 0 690.00509699 0 12682.82621978 0 -3571.05357138 0 -3322.08439834 0 2829
0.05150000 0.05149060 37368.30688360 0 520.43875665 0 15241.53554567 0 -3970.02922843 0 -4794.24994328 0 2784
0.05250000 0.05249300 38514.06641261 0 5.11068550 0 18363.17666018 0 -1337.65991829 0 -3525.80995219 0 3055
0.05350000 0.05348950 38435.26945099 0 -448.84030775 0 16506.78319195 0 1488.62185761 0 -4391.94705361 0 3009
0.05450000 0.05448610 38440.77736984 0 241.59530616 0 16221.04585037 0 349.11325447 0 -5438.19310170 0 3336
0.05550000 0.05550870 38246.76373823 0 172.74969263 0 13018.35964410 0 1413.53431072 0 -6488.05863933 0 3349
0.05650000 0.05647670 37351.22109449 0 673.81518774 0 14143.54878227 0 1055.95572219 0 -9306.89910444 0 3324
0.05750000 0.05747970 35954.45783466 0 1173.74874933 0 10713.39676780 0 -773.48041745 0 -8739.63966530 0 3639
0.05850000 0.05849280 34725.62989674 0 1040.53579752 0 11193.01285319 0 611.43969277 0 -10422.38756103 0 3846
0.05950000 0.05951020 33911.35715779 0 1757.14976292 0 12054.69865693 0 830.46377227 0 -7629.52423976 0 3787
0.06050000 0.06049470 31854.20566751 0 1772.05486579 0 13124.24657398 0 600.23950838 0 -5694.04155299 0 3930
0.06150000 0.06148310 30995.86957769 0 904.57450660 0 13160.89109537 0 4298.45856148 0 -2396.65286431 0 4083
0.06250000 0.06249100 30354.70286000 0 858.96107000 0 12018.27894856 0 3007.68339739 0 -1445.33411164 0 4303
0.06350000 0.06350600 29685.20970246 0 503.84305991 0 11775.03126674 0 3323.01737235 0 1892.92558310 0 4470
0.06450000 0.06451750 29012.00713018 0 761.95088200 0 9971.08667483 0 2825.16895147 0 1364.60375809 0 4479
0.06550000 0.06550280 28439.29597544 0 778.91077582 0 9294.41074148 0 845.42170619 0 2311.57237892 0 4636
0.06650000 0.06648880 27840.50651100 0 -289.82556625 0 7224.28754025 0 214.96283238 0 -669.24811135 0 4653
0.06750000 0.06749660 28485.15783042 0 -1223.91577354 0 7380.20660654 0 750.33254540 0 -596.20411477 0 5220
0.06850000 0.06852730 29701.28383301 0 -1209.50525931 0 6084.83401630 0 571.18579844 0 -2058.10694559 0 5029
0.06950000 0.06949320 30714.74090291 0 -569.08267269 0 5437.63106916 0 532.88103294 0 -1993.12474371 0 5040
0.07050000 0.07048030 30119.21122718 0 720.85955918 0 5062.67668273 0 -445.77835449 0 -1841.56704991 0 5475
0.07150000 0.07148790 29729.27305333 0 1871.25360849 0 5842.93521257 0 317.85750105 0 -1029.72903590 0 5509
0.07250000 0.07249820 27740.01509346 0 1675.35154755 0 7332.75981981 0 -630.29251218 0 8.87281890 0 5916
0.07350000 0.07351270 26551.54109167 0 1178.31245353 0 7784.30800032 0 228.18183764 0 1416.15338234 0 5721
0.07450000 0.07449140 26399.23027427 0 459.83141604 0 8350.76935326 0 687.20055463 0 872.00359704 0 6028
0.07550000 0.07549160 25953.87569231 0 228.25040561 0 8397.19324078 0 139.00076287 0 2063.86215877 0 6183
0.07650000 0.07648840 25855.74481143 0 183.62502221 0 9169.99921918 0 396.75562853 0 2715.13422147 0 6330
0.07750000 0.07749960 25575.29057569 0 424.35255014 0 8003.48944893 0 -207.91719251 0 2280.09855688 0 6583
0.07850000 0.07848650 25796.16936255 0 423.28693645 0 9970.18742277 0 -369.90733426 0 3276.57100353 0 6549
0.07950000 0.07947320 25570.56950238 0 449.55071688 0 9995.50136822 0 -1.17369255 0 3315.17139814 0 6828
0.08050000 0.08048110 24985.83085135 0 322.72695094 0 9218.58131164 0 287.14804325 0 2172.52552938 0 7147
0.08150000 0.08149960 24526.87508201 0 374.27882332 0 10293.91816382 0 950.55663655 0 2102.06913060 0 7386
0.08250000 0.08250610 24133.67711944 0 230.53113365 0 8244.96110793 0 678.19566933 0 385.91064870 0 7227
0.08350000 0.08350160 24083.76863019 0 -146.50389724 0 8158.30693144 0 1542.61070307 0 -85.07756281 0 7798
0.08450000 0.08449610 23840.85816790 0 130.79846004 0 6146.53394817 0 1073.01565780 0 -709.77627756 0 7371
0.08550000 0.08548940 23941.23717892 0 -192.13756701 0 4214.22112491 0 1589.11327514 0 -1977.11805707 0 8256
0.08650000 0.08650700 23405.73257810 0 -199.21580478 0 3557.83456612 0 1341.97632817 0 -2333.42420394 0 8037
0.08750000 0.08749060 23784.65491424 0 251.14199083 0 3108.72560681 0 889.16245038 0 -3759.51432154 0 8155
0.08850000 0.08849210 22891.92243319 0 941.57310848 0 2736.77247413 0 -260.30424524 0 -2008.71552628 0 8718
0.08950000 0.08949900 21995.48053739 0 1600.80355190 0 3709.54962904 0 -1026.43440118 0 -1759.55526218 0 8571
0.09050000 0.09049190 20976.06592260 0 1538.24933058 0 4861.36786879 0 -1353.07085044 0 58.12158311 0 8932
0.09150000 0.09150830 19854.24897964 0 1150.82906249 0 5796.38767790 0 -379.53495161 0 947.02145189 0 9285
0.09250000 0.09250820 19343.58621693 0 477.83893851 0 7132.18164816 0 189.31503961 0 1098.72190196 0 9204
0.09350000 0.09350330 18963.98944175 0 252.35822924 0 6308.73653821 0 214.55929302 0 1625.01591358 0 9349
0.09450000 0.09448040 19129.78904003 0 225.49307399 0 7380.42017891 0 -97.31851905 0 741.84585410 0 9564
0.09550000 0.09549270 18876.31236605 0 118.49331968 0 7286.38089489 0 -3.86327677 0 618.21330890 0 10155
0.09650000 0.09649430 18652.51100999 0 104.32155687 0 6835.52963472 0 294.41849614 0 245.79818547 0 9913
0.09750000 0.09749140 18372.73121330 0 -220.93274199 0 6698.11267954 0 929.85023383 0 -261.05736884 0 10476
0.09850000 0.09850240 18336.87353747 0 8.14762831 0 6271.67611275 0 706.44342462 0 -1753.28297907 0 10575
0.09950000 0.09950330 18399.70877505 0 525.61507631 0 6367.99724887 0 440.95049501 0 -1630.06296575 0 10882
0.10050000 0.10051200 17650.96902986 0 877.59132452 0 6514.04702382 0 -410.33321054 0 -981.94615371 0 10875
0.10150000 0.10150300 16795.33069622 0 874.47541614 0 5703.52866221 0 110.00336859 0 -796.24048705 0 11118
0.10250000 0.10250800 16146.63274253 0 470.27510463 0 5806.65039201 0 507.26696212 0 -77.65401226 0 11575
0.10350000 0.10349800 16072.21963469 0 77.59286312 0 4983.08163490 0 826.16871962 0 -1082.74106882 0 11364
0.10450000 0.10450100 16012.64418582 0 -152.82114295 0 4994.47965475 0 643.15406474 0 -338.14125529 0 12093
0.10550000 0.10551000 16375.15517189 0 -396.86691097 0 4331.29250227 0 229.90840160 0 -1254.49034353 0 12067
0.10650000 0.10649700 16847.37490910 0 -540.86077090 0 4385.98950873 0 -284.99208644 0 -534.57499901 0 12054
0.10750000 0.10749900 17375.23586743 0 -197.09581805 0 4912.65895808 0 -706.34900315 0 -1593.04750290 0 12807
0.10850000 0.10850100 17218.76600925 0 178.69599687 0 4687.74477760 0 92.66387799 0 -1113.83945313 0 12736
0.10950000 0.10950300 17058.24951682 0 533.11708661 0 4718.17321913 0 274.52142028 0 -645.65510953 0 12933
0.11050000 0.11050200 16621.43782941 0 542.46593582 0 4789.83236754 0 1168.56680934 0 -399.91087919 0 13428
0.11150000 0.11150900 16042.65672327 0 401.88586152 0 4010.87775318 0 1146.43396805 0 77.02386138 0 13453
0.11250000 0.11250000 15698.69281090 0 194.36209179 0 3646.73687275 0 1314.88635991 0 279.70111214 0 13668
0.11350000 0.11349100 15428.24275431 0 195.08598970 0 3065.84252427 0 590.81871901 0 801.96085421 0 13791
0.11450000 0.11448600 15314.59977542 0 178.55099247 0 2782.49944130 0 40.93800034 0 270.22636764 0 14205
0.11550000 0.11549300 15106.98495642 0 223.27866580 0 3119.79764778 0 -826.27662987 0 1225.72551831 0 14776
0.11650000 0.11649800 15140.36968909 0 152.63792034 0 3177.30481692 0 -344.65071613 0 825.91355685 0 14553
0.11750000 0.11747300 14953.21285442 0 71.09509256 0 3994.08422099 0 -462.26951318 0 1143.00556958 0 14568
0.11850000 0.11849100 15021.55601087 0 42.49145827 0 3663.81142121 0 191.01575007 0 213.50604405 0 16015
0.11950000 0.11950300 14802.47572812 0 246.73453168 0 4350.71634673 0 69.29119293 0 289.96382626 0 15270
0.12050000 0.12050700 14697.82526981 0 343.54238797 0 3859.47742849 0 28.26214332 0 -66.70044775 0 15999
0.12150000 0.12150000 14332.61652756 0 466.41394111 0 4299.52642330 0 -68.31853942 0 645.77426043 0 15670
0.12250000 0.12250700 14064.52700763 0 227.53999649 0 3608.14771879 0 269.59239494 0 9.92063863 0 16887
0.12350000 0.12352200 13818.35675662 0 122.47925443 0 3911.76893569 0 107.36271492 0 -304.75652262 0 16407
0.12450000 0.12449800 13775.30506432 0 182.22218900 0 3528.04684168 0 -120.67962625 0 -637.16617010 0 16306
0.12550000 0.12549900 13490.46697480 0 334.11148200 0 3758.70499468 0 -354.90780992 0 -902.81197257 0 17523
0.12650000 0.12650100 13317.92298608 0 323.90946740 0 3616.55572554 0 -361.82418231 0 -779.07938558 0 17154
0.12750000 0.12750600 13162.12756695 0 166.26158903 0 3729.95141011 0 12.81321777 0 -1171.61302569 0 18007
0.12850000 0.12850300 13239.91287001 0 -59.22069394 0 3588.79131823 0 288.45420686 0 -872.03844306 0 17496
0.12950000 0.12949900 13156.28242857 0 -122.29715589 0 3452.31857771 0 657.64326354 0 -1268.14773417 0 18405
0.13050000 0.13049000 13409.19707001 0 -52.50339347 0 3424.08206307 0 447.45433552 0 -885.20124507 0 18100
0.13150000 0.13148800 13310.39175009 0 201.75956404 0 3181.76735526 0 229.84995021 0 -1215.45156354 0 19059
0.13250000 0.13249300 13219.45488567 0 342.86120453 0 3112.61487197 0 -132.32606447 0 -493.07676464 0 18957
0.13350000 0.13349100 12881.33611169 0 274.05156108 0 2980.22248766 0 105.15561315 0 -240.24980027 0 19468
0.13450000 0.13450700 12680.24087011 0 87.82342897 0 2720.55221512 0 307.27105619 0 -215.74967794 0 19953
0.13550000 0.13551000 12790.62406029 0 -16.11706983 0 2805.04818667 0 291.04405279 0 -489.22122144 0 19956
0.13650000 0.13649900 12604.59129069 0 36.13576953 0 2349.14987432 0 281.61989122 0 -659.30125952 0 19723
0.13750000 0.13749600 12596.94764819 0 192.28032327 0 2596.73644732 0 -267.18239942 0 -972.58831198 0 20946
0.13850000 0.13851100 12225.55654804 0 433.89811074 0 2868.83887956 0 -394.56819789 0 -461.33316698 0 20955
0.13950000 0.13949800 12120.00683768 0 425.93073750 0 3077.45411648 0 -356.02175841 0 -294.36791321 0 20506
0.14050000 0.14048300 11786.27191747 0 164.79131191 0 3563.66846385 0 201.73595867 0 -121.89361653 0 21447
0.14150000 0.14148400 11744.00707072 0 101.09998637 0 3340.68767530 0 282.24262327 0 -205.02722120 0 21771
0.14250000 0.14249400 11660.37662929 0 -138.12961244 0 3081.69184181 0 692.80739122 0 -168.54681332 0 22470
0.14350000 0.14350900 11674.20262969 0 -76.85457718 0 2788.94033417 0 441.93180381 0 -580.23002602 0 22519
0.14450000 0.14449900 11691.17601229 0 31.77248614 0 2417.08836734 0 84.14706175 0 -704.31332131 0 22218
0.14550000 0.14550500 11554.04007337 0 263.61349281 0 2865.11822417 0 -528.12174142 0 -631.82573694 0 23559
0.14650000 0.14650700 11456.13400550 0 239.24713422 0 2481.83451555 0 -232.16102800 0 -782.86748488 0 23044
0.14750000 0.14750500 11321.35860324 0 169.11109399 0 2978.92981282 0 -216.29597356 0 -154.16102852 0 23649
0.14850000 0.14849900 11263.35684547 0 13.45528374 0 2783.05023318 0 224.00481183 0 -14.08993088 0 23640
0.14950000 0.14949500 11239.09952119 0 -10.90275677 0 3230.96768351 0 599.31552689 0 272.80047666 0 24457
0.15050000 0.15050000 11394.42283299 0 48.51386171 0 2791.39079603 0 654.99496622 0 330.48524808 0 24591
0.15150000 0.15149900 11214.68482780 0 315.26428292 0 2976.54679487 0 343.95267172 0 472.06124403 0 25020
0.15250000 0.15250500 10987.74733019 0 444.23501315 0 2783.26380555 0 23.88166173 0 758.97098549 0 25297
0.15350000 0.15350100 10463.91052483 0 465.12351440 0 2938.71076451 0 -145.04710890 0 732.55096001 0 25452
0.15450000 0.15450400 10188.87428274 0 444.90270780 0 3079.87085639 0 -160.51312024 0 850.61039057 0 26061
0.15550000 0.15549900 9823.87911286 0 276.97975060 0 3212.87023584 0 -201.08400093 0 469.62989128 0 26128
0.15650000 0.15649500 9663.93589361 0 221.66001209 0 3308.13475078 0 -3.36873310 0 908.72792705 0 26331
0.15750000 0.15749700 9686.90054305 0 14.87576477 0 3729.47930278 0 -10.95449749 0 850.86667741 0 27345
0.15850000 0.15849900 9694.40929774 0 -14.31721684 0 3376.43294462 0 173.67030192 0 802.55998089 0 26980
0.15950000 0.15949700 9650.13237451 0 -98.12098911 0 3442.51673027 0 353.32063004 0 616.28890950 0 27777
0.16050000 0.16050000 9744.31778698 0 -21.09858902 0 2972.12921913 0 160.94251310 0 430.61246853 0 28224
0.16150000 0.16150500 9727.16455397 0 135.43073220 0 3073.08150335 0 209.50212426 0 171.19735876 0 28075
0.16250000 0.16249700 9496.09049689 0 213.68589446 0 2545.41163608 0 210.63293372 0 56.30408229 0 28590
0.16350000 0.16349900 9337.21513946 0 152.84137612 0 2226.10971142 0 455.95676373 0 -60.94062591 0 29163
0.16450000 0.16449100 9026.41114675 0 274.18082857 0 1978.05103108 0 155.38850758 0 -215.91828770 0 28996
0.16550000 0.16550500 8918.07375500 0 197.82758441 0 1830.67485935 0 185.82818975 0 -387.16285719 0 30777
0.16650000 0.16650700 8676.54589274 0 113.84418654 0 1704.02644756 0 197.89165612 0 -113.33610913 0 29211
0.16750000 0.16749900 8605.56118338 0 90.40821661 0 1687.41276578 0 127.36219311 0 255.76414641 0 30922
0.16850000 0.16850800 8674.48885366 0 -97.59256612 0 1509.84420619 0 179.58738047 0 140.85996651 0 30867
0.16950000 0.16949900 8769.69716535 0 -99.76796925 0 1348.81064381 0 271.22341336 0 301.94186368 0 30852
0.17050000 0.17049200 8816.89665777 0 -28.58553684 0 1344.83145346 0 29.33416418 0 71.72400696 0 31257
0.17150000 0.17149500 8857.25059390 0 91.57432172 0 1441.80454731 0 -277.02920946 0 2.68461585 0 32608
0.17250000 0.17250900 8661.12371994 0 243.25779840 0 1574.59035440 0 -229.08783409 0 36.10137314 0 32361
0.17350000 0.17350400 8509.63347004 0 308.08937556 0 1753.26049777 0 -189.94114386 0 -62.74902180 0 32508
0.17450000 0.17449800 8260.13598642 0 198.19740182 0 1824.45877950 0 4.62744993 0 218.09897394 0 32791
0.17550000 0.17549800 8176.55050758 0 78.03259737 0 1956.68255405 0 308.41872663 0 225.37617122 0 33633
0.17650000 0.17650100 8067.40378898 0 -27.95516115 0 1795.84008274 0 391.80524594 0 195.55360077 0 33984
0.17750000 0.17750300 8148.22406774 0 30.78949123 0 1637.31318548 0 339.04725174 0 304.52833741 0 34069
0.17850000 0.17849800 7997.88036421 0 86.03661513 0 1500.81796365 0 137.74518219 0 405.41430178 0 34536
