### header ###
fiducial parameters:
Omega_m = 0.31
Omega_nu = 0
Omega_de = 0.69
Omega_k = 0
H_0 = 100
w_de = -1
zeff = 0
beta = 0
fgrowth = 0
b_1 = 2
gamma = 0.55
Lx = 3500 Ly = 3500 Lz = 3500
nx = 700 ny = 700 nz = 700
xoffset = 857.220397 yoffset = 15.9954215 zoffset = 262.898189
bins = 400 dk = 0.001
kx_ny = 0.628318531 ky_ny = 0.628318531 kz_ny = 0.628318531
############################
A(data) = 3.05418896 (not used)
A(ran) = 3.04770677 (used)
Ngal = 186165
weighted Ngal = 0
Nran = 9360983
weighted Nran = 0
SN(data) = 3466.25547
SN(ran) = 68.4400403
SN(data+ran) = 3534.69551
############################
13 columns: k_central k_mean P_0(k) sigma^{lin}_{P_0(k)} P^img_1(k) sigma^{lin}_{P_1(k)} P_2(k) sigma^{lin}_{P_2(k)} P^img_3(k) sigma^{lin}_{P_3(k)} P_4(k) sigma^{lin}_{P_4(k)} N_modes
### header ###
0.00050000 0 0 0 0 0 0 0 0 0 0 0 0
0.00150000 0.00179520 50036.29544441 0 -42209.54274693 0 -15390.92379389 0 76592.22038987 0 -21815.85493871 0 3
0.00250000 0.00253879 90056.15942895 0 -49646.69449008 0 -2705.61339030 0 -32040.01362410 0 39800.89610829 0 6
0.00350000 0.00331552 109418.29271958 0 -21390.39630854 0 7533.91126464 0 -78930.38814842 0 -3783.14216937 0 7
0.00450000 0.00420575 128700.95460956 0 5232.89385675 0 12010.07327353 0 -51254.21995111 0 13672.22829712 0 24
0.00550000 0.00557378 102987.96606241 0 26983.29448625 0 44809.84248053 0 -30985.41577251 0 36980.72924640 0 45
0.00650000 0.00659388 98838.03021904 0 26719.47641360 0 28634.32126562 0 14816.41413503 0 -19565.25184935 0 40
0.00750000 0.00754703 70079.16254332 0 5852.52348765 0 54808.85093178 0 22555.15253728 0 -1783.41916368 0 57
0.00850000 0.00846663 67125.11953122 0 2555.33713068 0 35613.64130449 0 32880.70189227 0 -13953.24456539 0 75
0.00950000 0.00948925 63053.75583645 0 -3638.53119772 0 24905.68501164 0 30064.35685162 0 2609.35969809 0 112
0.01050000 0.01054430 71739.29424978 0 -5778.09913916 0 10893.29214210 0 14922.86309745 0 27812.18007115 0 105
0.01150000 0.01145670 70824.53009329 0 -3946.72735946 0 11016.24237980 0 10579.21712003 0 40287.05425241 0 144
0.01250000 0.01249090 77284.08244236 0 -112.42224422 0 12687.43488658 0 11135.48320275 0 41892.33158330 0 169
0.01350000 0.01339930 72244.67390665 0 1492.65725122 0 24617.36232039 0 4644.67060400 0 48016.46291456 0 180
0.01450000 0.01448870 71688.71132149 0 5612.10844981 0 15004.58262826 0 8674.19659674 0 60410.96644309 0 267
0.01550000 0.01550050 68447.91930924 0 6781.14736649 0 28852.83951583 0 10664.97204445 0 19017.83215875 0 238
0.01650000 0.01653350 65764.43876023 0 -0.57138701 0 14948.71659413 0 12930.12053586 0 45179.88470259 0 315
0.01750000 0.01747870 65055.04129260 0 -4712.15947099 0 7203.58226161 0 13755.29670602 0 12696.42740716 0 297
0.01850000 0.01844180 70534.52130443 0 -5152.08481865 0 -9731.37979799 0 9122.67607961 0 38619.39130996 0 388
0.01950000 0.01947590 75947.34425743 0 -4352.72842321 0 3853.69973401 0 3284.99025093 0 4373.73719943 0 399
0.02050000 0.02045430 80451.81022486 0 -977.96808742 0 -7142.65793464 0 -2086.86053016 0 8585.01327384 0 462
0.02150000 0.02154770 78577.88134150 0 1943.02516341 0 1684.75997221 0 -4242.54756475 0 11031.58586805 0 571
0.02250000 0.02255340 76720.58862122 0 4557.58928278 0 -1659.72704303 0 -8681.24448475 0 5326.25870172 0 510
0.02350000 0.02348930 69387.41289734 0 7000.56486875 0 5856.45771540 0 -5343.37821279 0 6290.24566776 0 555
0.02450000 0.02439640 66808.58280663 0 8381.42260780 0 19213.19466845 0 -4774.55632319 0 -4324.01980125 0 592
0.02550000 0.02547300 58841.32197501 0 6091.64585065 0 16412.58653883 0 -4745.25194674 0 -11660.93866182 0 837
0.02650000 0.02652900 53917.80454833 0 3704.09791343 0 18676.67840906 0 -1739.68179168 0 -17875.78204448 0 723
0.02750000 0.02749970 51328.07102642 0 -165.18698282 0 14182.44143380 0 -3321.38747799 0 -28519.32940864 0 826
0.02850000 0.02848090 52837.01598055 0 -1834.08077652 0 13308.93046549 0 3378.31013329 0 -25837.64736375 0 831
0.02950000 0.02946900 53137.47857459 0 -2053.79053571 0 10511.78445629 0 1669.79866609 0 -31650.52507627 0 996
0.03050000 0.03053250 56283.06227515 0 -1514.37418843 0 8347.71189626 0 1004.80514104 0 -27847.70052746 0 1041
0.03150000 0.03150510 54901.81111332 0 -681.44534146 0 3257.60802575 0 -243.77599240 0 -35796.30187887 0 1036
0.03250000 0.03246190 55439.56384429 0 2741.21253116 0 9188.07418556 0 -5995.51580559 0 -19286.48371122 0 1059
0.03350000 0.03345080 55646.61663076 0 2025.00322919 0 5886.89739758 0 -3832.29753502 0 -31305.09987930 0 1302
0.03450000 0.03451200 50807.62889757 0 3286.41781357 0 12405.74417926 0 -4580.75626394 0 -18619.46349684 0 1339
0.03550000 0.03553350 51934.50413335 0 1273.56572782 0 10489.16826702 0 -527.45404677 0 -26514.67175728 0 1365
0.03650000 0.03647120 49031.38126906 0 512.35560471 0 9800.54352194 0 1373.93349820 0 -18005.04952789 0 1308
0.03750000 0.03744890 48560.39800343 0 939.54417102 0 8874.37010496 0 5131.78420343 0 -17614.09969546 0 1579
0.03850000 0.03847530 48363.01217660 0 101.07851672 0 7539.66647781 0 5957.43248092 0 -12271.64321604 0 1662
0.03950000 0.03950240 46260.56086387 0 1495.34376674 0 2662.37060694 0 8085.66984642 0 -13002.06070054 0 1683
0.04050000 0.04050350 43609.45338897 0 2205.48311732 0 1680.66837535 0 2681.31110342 0 -7793.71642498 0 1822
0.04150000 0.04152450 40590.10219612 0 1844.21984348 0 -1017.97243930 0 1551.00746916 0 -6567.48507739 0 1887
0.04250000 0.04250150 39911.95373752 0 954.99894171 0 2990.81118065 0 -1439.16299439 0 -7612.79815147 0 1920
0.04350000 0.04349210 39670.95418584 0 -465.44499701 0 1704.28498253 0 -3818.25796226 0 -6371.92023597 0 2005
0.04450000 0.04448520 42137.04054972 0 -342.41495070 0 7274.18478885 0 -5867.17005555 0 -8447.29282109 0 2151
0.04550000 0.04548030 41087.83821048 0 -54.05314198 0 7874.77275740 0 -5755.22441492 0 -8633.24690613 0 2274
0.04650000 0.04648670 43260.76840329 0 1217.39619612 0 12697.21425271 0 -4019.04970626 0 -10085.76379359 0 2311
0.04750000 0.04749250 41678.87162592 0 1744.58271540 0 12730.71139189 0 -1028.33631928 0 -7740.77296004 0 2568
0.04850000 0.04851840 41198.44621368 0 1356.04962289 0 15289.98275032 0 793.25609428 0 -4168.41547318 0 2493
0.04950000 0.04949480 40652.93743370 0 538.67558840 0 14646.00586994 0 3723.06089121 0 -3555.11432864 0 2644
0.05050000 0.05050630 41097.95479614 0 543.58100837 0 16902.90372371 0 1983.57019059 0 188.72827764 0 2829
0.05150000 0.05149060 39948.03622636 0 489.16052193 0 19048.06950922 0 1224.29795567 0 1541.67772906 0 2784
0.05250000 0.05249300 39653.75599022 0 1112.80531326 0 18503.57238781 0 -2164.52218606 0 5748.71607814 0 3055
0.05350000 0.05348950 38815.42825871 0 1020.73876345 0 20082.99622202 0 -1012.13292125 0 2857.76683859 0 3009
0.05450000 0.05448610 38885.00788673 0 778.35998393 0 19279.51450777 0 -860.48755037 0 1106.34755942 0 3336
0.05550000 0.05550870 37825.68896184 0 171.97745992 0 20696.62334542 0 1499.48032621 0 -992.93613793 0 3349
0.05650000 0.05647670 38648.05496932 0 476.92619767 0 18104.75409987 0 482.57574873 0 -5043.69122365 0 3324
0.05750000 0.05747970 37378.64828227 0 649.74558233 0 17181.44704883 0 575.26840279 0 -7121.53675192 0 3639
0.05850000 0.05849280 36399.13797757 0 655.73347698 0 16060.86657745 0 844.16050518 0 -8136.65743814 0 3846
0.05950000 0.05951020 36781.43250893 0 721.76218344 0 16213.06498835 0 1154.60592114 0 -4984.46423494 0 3787
0.06050000 0.06049470 35942.20552536 0 274.86875639 0 16132.13230309 0 1633.58128943 0 -6327.19368671 0 3930
0.06150000 0.06148310 36296.06121037 0 309.59787089 0 16998.33684842 0 824.39944120 0 -5947.34961721 0 4083
0.06250000 0.06249100 35648.26250874 0 457.51921418 0 14373.30768321 0 338.90224734 0 -4037.75414908 0 4303
0.06350000 0.06350600 35302.50009226 0 1184.22503581 0 17199.09487047 0 -165.09705761 0 -5356.10262941 0 4470
0.06450000 0.06451750 33637.87212551 0 1310.53622808 0 13421.33697280 0 -775.01926254 0 -4770.55465153 0 4479
0.06550000 0.06550280 32142.75317178 0 1772.75178613 0 15839.31335155 0 178.10811083 0 -5123.79210076 0 4636
0.06650000 0.06648880 31041.28180665 0 2050.50826570 0 14069.02326792 0 418.62206639 0 -5433.57319425 0 4653
0.06750000 0.06749660 29477.81969647 0 921.15334236 0 14929.38267487 0 1371.01092901 0 -5137.51693530 0 5220
0.06850000 0.06852730 28904.09688316 0 585.47716178 0 15617.42290612 0 1252.30965729 0 -1268.74348866 0 5029
0.06950000 0.06949320 28723.45962592 0 -172.77779426 0 14766.39323927 0 1717.81872601 0 -671.29166165 0 5040
0.07050000 0.07048030 29212.42793271 0 -410.42763201 0 15811.09931821 0 3439.30190416 0 2096.02166051 0 5475
0.07150000 0.07148790 29437.91538638 0 -451.02099400 0 13868.49005888 0 2544.53486532 0 778.94112558 0 5509
0.07250000 0.07249820 29477.81969647 0 -356.86930347 0 12772.75142563 0 3761.98726470 0 2000.49861059 0 5916
0.07350000 0.07351270 29823.80692597 0 54.76366352 0 11198.95915743 0 2492.78290936 0 2734.23208706 0 5721
0.07450000 0.07449140 28629.48778581 0 775.67796467 0 10274.59548522 0 1201.49067533 0 119.20260474 0 6028
0.07550000 0.07549160 28353.75462337 0 988.31960268 0 8257.23589853 0 813.28018949 0 1192.23961978 0 6183
0.07650000 0.07648840 26768.82287030 0 870.32761602 0 8426.32900747 0 1208.22382512 0 -82.86596478 0 6330
0.07750000 0.07749960 26284.12601078 0 772.57217287 0 6485.60817747 0 1644.37231414 0 772.76663613 0 6583
0.07850000 0.07848650 25849.45004702 0 -4.18054414 0 5121.20675109 0 2376.97048488 0 331.38337607 0 6549
0.07950000 0.07947320 25839.55827437 0 -151.31377169 0 4467.82144605 0 1731.65596706 0 1240.75426834 0 6828
0.08050000 0.08048110 25756.04023944 0 -175.69699125 0 2450.33821220 0 1770.17767712 0 -77.81913742 0 7147
0.08150000 0.08149960 26137.32311224 0 274.15947133 0 2305.54739013 0 -877.99711201 0 989.78313540 0 7386
0.08250000 0.08250610 25309.33677939 0 485.79731923 0 3037.54980639 0 -817.73261125 0 -44.28602816 0 7227
0.08350000 0.08350160 25312.59656810 0 639.41654838 0 4498.31733148 0 -1702.18298084 0 1266.24806420 0 7798
0.08450000 0.08449610 24502.70768294 0 456.07591463 0 4540.33488391 0 -891.83322900 0 749.32201090 0 7371
0.08550000 0.08548940 24783.83635772 0 663.04102402 0 7366.72906632 0 -898.08977519 0 2160.62168026 0 8256
0.08650000 0.08650700 24355.56756487 0 607.19971932 0 7559.48374505 0 799.46205755 0 3731.89604269 0 8037
0.08750000 0.08749060 23665.84123601 0 688.44152248 0 7921.80364006 0 812.74850671 0 3377.83802596 0 8155
0.08850000 0.08849210 22931.03989773 0 823.87899907 0 6779.09032740 0 734.31911437 0 4818.05764152 0 8718
0.08950000 0.08949900 22596.63053848 0 724.23849879 0 7182.30370977 0 809.09754336 0 4617.60311704 0 8571
0.09050000 0.09049190 21546.41654069 0 479.88473694 0 5971.55073824 0 1108.41021883 0 5114.18134438 0 8932
0.09150000 0.09150830 21345.65851863 0 479.67903303 0 6588.05546823 0 602.99684001 0 3878.42916562 0 9285
0.09250000 0.09250820 21043.50982698 0 202.71726748 0 4657.82216535 0 148.36085274 0 4245.56005914 0 9204
0.09350000 0.09350330 20670.99466176 0 485.71751061 0 6190.86707465 0 607.41778794 0 3985.78862075 0 9349
0.09450000 0.09448040 20504.40821792 0 716.27337368 0 6251.12820322 0 -322.81462802 0 4492.25862074 0 9564
0.09550000 0.09549270 19693.95730022 0 549.02035926 0 6091.80321976 0 483.84706633 0 4490.71865159 0 10155
0.09650000 0.09649430 19462.62470817 0 465.95869475 0 7357.61289857 0 81.67310693 0 4669.82718033 0 9913
0.09750000 0.09749140 19043.46084242 0 184.28147621 0 5738.91423071 0 239.54388740 0 3530.82328241 0 10476
0.09850000 0.09850240 18711.29961332 0 239.57086496 0 5890.53936842 0 321.37694879 0 2632.97630528 0 10575
0.09950000 0.09950330 18414.88365354 0 449.67886030 0 4776.38854926 0 -133.67269443 0 1091.18954191 0 10882
0.10050000 0.10051200 18057.99299283 0 353.35322792 0 4163.50330881 0 234.20120611 0 575.03796945 0 10875
0.10150000 0.10150300 17752.58451247 0 105.29241187 0 4428.13070832 0 26.96823201 0 -613.65072877 0 11118
0.10250000 0.10250800 17662.99652614 0 -302.59269735 0 3434.26609263 0 566.49619895 0 -865.24122156 0 11575
0.10350000 0.10349800 17889.49563837 0 -176.68054819 0 3549.99983256 0 162.01487118 0 -1652.52178592 0 11364
0.10450000 0.10450100 18248.40961621 0 -20.62535762 0 3337.23679552 0 35.72638503 0 -77.82790512 0 12093
0.10550000 0.10551000 17706.61025098 0 344.48435450 0 3191.73781246 0 466.66685575 0 -1050.11395600 0 12067
0.10650000 0.10649700 17933.89620876 0 151.94212406 0 3359.47080267 0 467.79316895 0 165.43315307 0 12054
0.10750000 0.10749900 17203.81594378 0 516.26622710 0 3195.80692803 0 103.49716754 0 -1427.64132739 0 12807
0.10850000 0.10850100 16944.38172491 0 772.50810116 0 3302.87412624 0 -618.68091997 0 -984.46405948 0 12736
0.10950000 0.10950300 16219.80937879 0 694.06859223 0 3876.61942085 0 -778.83771159 0 -1349.65369262 0 12933
0.11050000 0.11050200 15974.42597333 0 455.45318258 0 4231.80150265 0 -983.35011099 0 -1164.48645313 0 13428
0.11150000 0.11150900 15660.36219191 0 178.22388954 0 5182.02991219 0 -406.76430394 0 -1433.65507553 0 13453
0.11250000 0.11250000 15958.68906231 0 48.57175106 0 5519.66533820 0 -312.04271242 0 -1777.11315862 0 13668
0.11350000 0.11349100 15657.88924875 0 179.19170956 0 5818.59920374 0 -227.82438495 0 -545.91793966 0 13791
0.11450000 0.11448600 15945.08787493 0 116.21146758 0 6206.42413526 0 359.90427917 0 -245.75771913 0 14205
0.11550000 0.11549300 15852.12769338 0 -117.99985511 0 6079.67455762 0 790.63027827 0 536.60506053 0 14776
0.11650000 0.11649800 15935.87054133 0 103.90486594 0 5906.05146643 0 1164.67754419 0 141.79181645 0 14553
0.11750000 0.11747300 15859.88374238 0 199.60360723 0 5422.09648985 0 625.52647627 0 520.67930658 0 14568
0.11850000 0.11849100 15256.71042416 0 455.02491379 0 5266.55960569 0 446.76865582 0 528.23302387 0 16015
0.11950000 0.11950300 14927.92139028 0 451.07719725 0 5234.11908768 0 -195.51987881 0 385.12380315 0 15270
0.12050000 0.12050700 14582.27138030 0 292.86616228 0 5298.78655134 0 -338.13113870 0 538.73966010 0 15999
0.12150000 0.12150000 14394.32770008 0 201.79778225 0 5396.78254441 0 -82.83066914 0 133.40966320 0 15670
0.12250000 0.12250700 14227.62884974 0 159.30924655 0 5613.07514577 0 -328.84636120 0 507.18602944 0 16887
0.12350000 0.12352200 14246.28832995 0 43.94757216 0 5475.41089627 0 309.43600552 0 -312.34958219 0 16407
0.12450000 0.12449800 14199.07759688 0 -8.01716932 0 5117.47485504 0 506.03498680 0 -392.48305718 0 16306
0.12550000 0.12549900 14134.78107470 0 -61.62360784 0 4274.45977217 0 1260.33548191 0 -508.10326654 0 17523
0.12650000 0.12650100 14013.38204680 0 -69.51229653 0 3799.04769016 0 984.86085445 0 -734.88789130 0 17154
0.12750000 0.12750600 14119.15657018 0 51.80602350 0 2965.21621893 0 1166.56597351 0 -799.99036813 0 18007
0.12850000 0.12850300 13744.95530735 0 113.33948132 0 2718.98976467 0 744.81675809 0 -515.16913959 0 17496
0.12950000 0.12949900 13777.77800748 0 118.50456033 0 2103.22691763 0 483.65822339 0 398.57211768 0 18405
0.13050000 0.13049000 13609.05584001 0 94.08593272 0 2569.93873598 0 118.22242000 0 11.95611815 0 18100
0.13150000 0.13148800 13759.00612076 0 259.82988978 0 2356.32140948 0 -227.69961373 0 1093.66136100 0 19059
0.13250000 0.13249300 13399.19289086 0 450.11162535 0 3134.09575551 0 -526.50645991 0 834.21927368 0 18957
0.13350000 0.13349100 13027.35216468 0 440.41544003 0 3331.91996773 0 -461.65352552 0 851.02067432 0 19468
0.13450000 0.13450700 12618.19247807 0 485.79282297 0 3271.13052857 0 -143.55772268 0 682.81782491 0 19953
0.13550000 0.13551000 12373.48351166 0 190.91570828 0 3207.89062756 0 157.87381545 0 121.83741327 0 19956
0.13650000 0.13649900 12095.61462559 0 115.78095066 0 2592.09405857 0 310.04524879 0 -167.64980939 0 19723
0.13750000 0.13749600 12067.28818575 0 184.63555671 0 2612.12489817 0 168.85143496 0 -1051.00871180 0 20946
0.13850000 0.13851100 11784.81063288 0 219.46021674 0 2057.92709518 0 172.13145684 0 -835.99979275 0 20955
0.13950000 0.13949800 11581.57966766 0 324.90988531 0 2534.13726340 0 -231.93509092 0 -742.50905249 0 20506
0.14050000 0.14048300 11413.53193923 0 202.69928244 0 2462.57928084 0 -96.80751907 0 -260.54929142 0 21447
0.14150000 0.14148400 11212.15568139 0 151.98483853 0 2833.32966390 0 153.13588117 0 -376.47637054 0 21771
0.14250000 0.14249400 11297.75323670 0 184.98064469 0 3246.03015549 0 -301.36297016 0 -167.36991719 0 22470
0.14350000 0.14350900 11096.15216584 0 146.64440537 0 3475.05841414 0 -284.69308513 0 -170.20593337 0 22519
0.14450000 0.14449900 11166.05777274 0 190.79655738 0 3762.42565007 0 -492.61702203 0 38.17639726 0 22218
0.14550000 0.14550500 11165.60814671 0 -16.99091802 0 3907.87967053 0 -285.57322808 0 -149.23425130 0 23559
0.14650000 0.14650700 11194.35049063 0 -132.93081148 0 3616.07237756 0 54.27739297 0 -706.81661423 0 23044
0.14750000 0.14750500 11500.64698240 0 -197.67920782 0 3943.18655448 0 288.94767143 0 -470.51228236 0 23649
0.14850000 0.14849900 11560.78446381 0 63.25530070 0 3497.97810098 0 365.45603657 0 -1265.39377474 0 23640
0.14950000 0.14949500 11376.88741785 0 165.42416055 0 3193.64872309 0 185.46624080 0 -1031.33757302 0 24457
0.15050000 0.15050000 11165.69807192 0 303.09403038 0 3301.25547253 0 73.19810590 0 -1196.89324919 0 24591
0.15150000 0.15149900 10931.30802287 0 277.53503874 0 2832.32924599 0 185.80008813 0 -1079.25534303 0 25020
0.15250000 0.15250500 10621.14474725 0 234.99592012 0 2839.68063157 0 73.92031771 0 -1072.49071942 0 25297
0.15350000 0.15350100 10603.46320365 0 81.65725761 0 2368.97838221 0 341.41228465 0 -1195.29707678 0 25452
0.15450000 0.15450400 10404.82966459 0 39.67781098 0 2537.07107324 0 455.89156796 0 -1311.73897770 0 26061
0.15550000 0.15549900 10324.34660535 0 128.68858989 0 1942.22707721 0 271.11100685 0 -1292.04535762 0 26128
0.15650000 0.15649500 10143.04614971 0 232.35773939 0 2076.91255426 0 295.99218724 0 -1168.72417845 0 26331
0.15750000 0.15749700 9835.08604164 0 353.30601719 0 1784.01491817 0 -87.78993184 0 -1080.02645167 0 27345
0.15850000 0.15849900 9646.54660692 0 394.68622473 0 2111.93842194 0 -70.31341770 0 -559.05713630 0 26980
0.15950000 0.15949700 9376.05158773 0 175.64078800 0 2106.66655675 0 73.49317298 0 -249.26929842 0 27777
0.16050000 0.16050000 9298.91824242 0 120.81114186 0 2309.20060162 0 191.10455121 0 261.70932658 0 28224
0.16150000 0.16150500 9292.26377719 0 41.62615297 0 2334.41338121 0 199.04831908 0 153.06956133 0 28075
0.16250000 0.16249700 9182.43137889 0 -23.05581112 0 2278.49114382 0 309.80919512 0 272.24181631 0 28590
0.16350000 0.16349900 9187.88309450 0 133.39617442 0 2164.42102020 0 43.78986583 0 365.84046682 0 29163
0.16450000 0.16449100 9071.89081960 0 144.02758188 0 2037.81757102 0 215.04601320 0 337.69500146 0 28996
0.16550000 0.16550500 8859.64485250 0 151.62963397 0 2051.27262995 0 72.01963608 0 416.73363707 0 30777
0.16650000 0.16650700 8774.14846304 0 131.37622948 0 1719.87576510 0 296.30692546 0 193.20318070 0 29211
0.16750000 0.16749900 8708.72787579 0 88.54654004 0 1716.17759100 0 -0.59902439 0 261.36985893 0 30922
0.16850000 0.16850800 8591.80262688 0 107.20590784 0 1866.39764737 0 162.24980078 0 143.41609048 0 30867
0.16950000 0.16949900 8549.43661428 0 86.20117826 0 1750.40537248 0 -16.14427221 0 379.62600088 0 30852
0.17050000 0.17049200 8422.04631954 0 127.39366693 0 1992.39410142 0 -126.89233391 0 216.84564138 0 31257
0.17150000 0.17149500 8487.93901413 0 148.10568997 0 2059.27597327 0 -226.94761419 0 503.45975372 0 32608
0.17250000 0.17250900 8412.84022660 0 132.41486561 0 2253.76171221 0 -105.54712501 0 281.64799285 0 32361
0.17350000 0.17350400 8308.63939432 0 134.14817395 0 2146.98677092 0 -142.79335843 0 309.49670503 0 32508
0.17450000 0.17449800 8298.38792085 0 72.77410856 0 2139.93888291 0 31.79665354 0 233.08163730 0 32791
0.17550000 0.17549800 8190.46643318 0 106.71345493 0 2099.02291425 0 196.43486778 0 -129.22814113 0 33633
0.17650000 0.17650100 8086.15319440 0 109.63714819 0 2152.75322475 0 192.72545304 0 -26.65383101 0 33984
0.17750000 0.17750300 8043.16894601 0 76.78792012 0 1940.77703326 0 201.44032955 0 -47.24872647 0 34069
