### header ###
fiducial parameters:
Omega_m = 0.31
Omega_nu = 0
Omega_de = 0.69
Omega_k = 0
H_0 = 100
w_de = -1
zeff = 0
beta = 0
fgrowth = 0
b_1 = 2
gamma = 0.55
Lx = 3500 Ly = 3500 Lz = 3500
nx = 700 ny = 700 nz = 700
xoffset = 857.220397 yoffset = 15.9954215 zoffset = 262.898189
bins = 400 dk = 0.001
kx_ny = 0.628318531 ky_ny = 0.628318531 kz_ny = 0.628318531
############################
A(data) = 3.07671821 (not used)
A(ran) = 3.08144928 (used)
Ngal = 187776
weighted Ngal = 0
Nran = 9360983
weighted Nran = 0
SN(data) = 3434.35081
SN(ran) = 69.1977702
SN(data+ran) = 3503.54858
############################
13 columns: k_central k_mean P_0(k) sigma^{lin}_{P_0(k)} P^img_1(k) sigma^{lin}_{P_1(k)} P_2(k) sigma^{lin}_{P_2(k)} P^img_3(k) sigma^{lin}_{P_3(k)} P_4(k) sigma^{lin}_{P_4(k)} N_modes
### header ###
0.00050000 0 0 0 0 0 0 0 0 0 0 0 0
0.00150000 0.00179520 6818.41012366 0 -10473.43135600 0 -4030.63881717 0 9105.57904985 0 45111.54154615 0 3
0.00250000 0.00253879 14195.14336912 0 -13741.35829911 0 -2664.56253383 0 -2997.34199872 0 -3706.32356228 0 6
0.00350000 0.00331552 24005.53370110 0 -16609.97236566 0 -4648.82964477 0 8487.48938810 0 -18894.74703324 0 7
0.00450000 0.00420575 37433.39025133 0 -19785.90582320 0 -10687.20605160 0 9096.71017642 0 10720.53458102 0 24
0.00550000 0.00557378 60344.87141679 0 -20618.38841634 0 -25908.80068288 0 10703.49375451 0 21473.23990443 0 45
0.00650000 0.00659388 77025.21025603 0 -17079.26953368 0 -11362.16216539 0 2149.44847343 0 27844.44073875 0 40
0.00750000 0.00754703 85281.58062445 0 -10075.23130385 0 -26226.57387904 0 4668.90544697 0 19611.90054988 0 57
0.00850000 0.00846663 89021.23271614 0 1721.92156353 0 -19412.26659290 0 6265.70732722 0 48928.75412789 0 75
0.00950000 0.00948925 83034.01251079 0 7188.04768230 0 -15276.26915643 0 -11071.59134400 0 33888.87585633 0 112
0.01050000 0.01054430 85488.29619139 0 7998.49860000 0 -6509.24726595 0 -507.54123400 0 27407.85386436 0 105
0.01150000 0.01145670 81386.91995918 0 2092.45837422 0 11294.83066751 0 -18662.85240866 0 -1972.97025695 0 144
0.01250000 0.01249090 80167.30935486 0 1049.94084998 0 14989.96978231 0 -35089.04013488 0 -9401.68027140 0 169
0.01350000 0.01339930 84014.75928707 0 -1807.26058388 0 36511.20726536 0 -33052.79625496 0 -27144.82263726 0 180
0.01450000 0.01448870 93873.70923020 0 -4687.57616784 0 55669.88477777 0 -43723.09636786 0 -34287.69414426 0 267
0.01550000 0.01550050 97624.82678564 0 -464.42434593 0 19882.57541948 0 -1882.23572425 0 -73162.36063232 0 238
0.01650000 0.01653350 105296.45850304 0 -6101.23412572 0 55942.92018403 0 -5326.85445621 0 -53298.66950607 0 315
0.01750000 0.01747870 100441.50904582 0 2221.46732266 0 30843.33394727 0 2941.68953695 0 -84200.90446317 0 297
0.01850000 0.01844180 105283.30694168 0 6878.54760507 0 51783.20497452 0 5373.30082503 0 -48920.54845285 0 388
0.01950000 0.01947590 89776.15481924 0 9665.05995868 0 27178.09496342 0 1393.51471177 0 -59404.81579616 0 399
0.02050000 0.02045430 83326.38183630 0 6046.41347210 0 30365.15666518 0 6886.21372887 0 -38116.59700276 0 462
0.02150000 0.02154770 81312.50685134 0 1177.12094455 0 27647.84175747 0 5129.46862937 0 -31586.34096059 0 571
0.02250000 0.02255340 77024.87303651 0 -2204.72999373 0 16718.66945823 0 14060.48037337 0 -37468.57348812 0 510
0.02350000 0.02348930 79460.94686293 0 1689.43608292 0 14416.02215599 0 -4489.35853285 0 -21163.78478980 0 555
0.02450000 0.02439640 78981.64551576 0 3825.78919825 0 5705.66438585 0 8017.48405909 0 -32525.16010964 0 592
0.02550000 0.02547300 73425.05463991 0 5610.86073758 0 6148.89448482 0 2327.00579238 0 -10601.43988652 0 837
0.02650000 0.02652900 64643.18384981 0 6720.08815171 0 -1229.98572494 0 4708.48377820 0 -21126.24101636 0 723
0.02750000 0.02749970 61384.06957687 0 4121.63188483 0 -370.12090662 0 7268.89044235 0 -997.94159970 0 826
0.02850000 0.02848090 56194.14872786 0 3660.65279836 0 2180.33778164 0 1752.11395139 0 -6366.72705533 0 831
0.02950000 0.02946900 55016.24093776 0 2127.05709717 0 4690.00414840 0 -1124.54842108 0 3311.42826145 0 996
0.03050000 0.03053250 56129.40257965 0 -277.41363972 0 14668.71198442 0 -4757.80775361 0 11456.58363153 0 1041
0.03150000 0.03150510 55768.80250420 0 -1191.00314820 0 10090.84456772 0 -6473.29966492 0 6696.90992991 0 1036
0.03250000 0.03246190 60088.35976711 0 -736.17831800 0 29619.22708267 0 -5793.75736562 0 24018.01082342 0 1059
0.03350000 0.03345080 62185.86519351 0 -850.96222294 0 21327.44866445 0 1912.34942756 0 10224.34977645 0 1302
0.03450000 0.03451200 63375.46326037 0 631.42894197 0 33380.57363027 0 983.50523197 0 14440.52677458 0 1339
0.03550000 0.03553350 64128.92407887 0 1991.34872090 0 31332.18984756 0 -3004.16507371 0 10057.45983505 0 1365
0.03650000 0.03647120 61095.63447911 0 3795.52936648 0 36357.88478939 0 -3041.76505041 0 9164.88472310 0 1308
0.03750000 0.03744890 58445.42625627 0 4407.50411422 0 32165.57169276 0 -2030.14020657 0 2003.64599280 0 1579
0.03850000 0.03847530 55559.50158759 0 5013.51007643 0 36553.02248608 0 1073.08197764 0 6673.06850971 0 1662
0.03950000 0.03950240 49877.57745609 0 2859.09323538 0 29809.86851907 0 4219.31313969 0 -1718.68425612 0 1683
0.04050000 0.04050350 48343.45344432 0 2036.63730269 0 30398.42899134 0 10232.08334415 0 -6827.42512554 0 1822
0.04150000 0.04152450 45610.73884511 0 1344.43803068 0 26245.45817227 0 1302.75769777 0 -6794.14155873 0 1887
0.04250000 0.04250150 44494.54222753 0 1264.84298285 0 27123.91502690 0 1579.92966349 0 -14176.03426288 0 1920
0.04350000 0.04349210 45244.18122478 0 1077.83677290 0 26758.48147163 0 -370.62336371 0 -2310.63940491 0 2005
0.04450000 0.04448520 43729.39113227 0 460.20572971 0 26464.53845502 0 2068.42586296 0 -5481.86302979 0 2151
0.04550000 0.04548030 44346.61526391 0 -172.82837718 0 28355.77794051 0 5186.35756272 0 3415.67405632 0 2274
0.04650000 0.04648670 44612.11943417 0 -426.53885670 0 27528.01642068 0 9621.77221271 0 2128.27108745 0 2311
0.04750000 0.04749250 44671.47007003 0 661.97203813 0 22272.89979743 0 4289.29743114 0 7587.76522229 0 2568
0.04850000 0.04851840 43996.91861967 0 1150.07593889 0 23510.49544291 0 7767.73928114 0 9922.32473196 0 2493
0.04950000 0.04949480 41982.36919566 0 -162.81183332 0 16733.16989768 0 3348.30883649 0 9723.67995224 0 2644
0.05050000 0.05050630 41886.71125794 0 -105.08086282 0 16565.45938877 0 3817.57228256 0 9739.40562261 0 2829
0.05150000 0.05149060 41551.96467917 0 -733.21528247 0 11085.70960132 0 3570.87372097 0 6655.40944741 0 2784
0.05250000 0.05249300 41126.95567503 0 -252.92813023 0 10054.24500894 0 2054.27388369 0 4724.44550224 0 3055
0.05350000 0.05348950 41218.90419801 0 755.14466798 0 7852.25773399 0 -83.60278944 0 -1266.72017153 0 3009
0.05450000 0.05448610 41004.09536254 0 185.15599884 0 9240.50058057 0 -1285.94168428 0 3869.39168243 0 3336
0.05550000 0.05550870 41224.97414940 0 361.84891175 0 8376.12826131 0 -813.53760040 0 2478.24874796 0 3349
0.05650000 0.05647670 41350.64462458 0 442.62422790 0 11834.83152863 0 -299.27558132 0 3779.93858391 0 3324
0.05750000 0.05747970 41200.91915684 0 789.05096684 0 12303.34185110 0 632.08314784 0 5761.42925412 0 3639
0.05850000 0.05849280 40374.16929557 0 2104.49711116 0 15408.68402204 0 -318.00700170 0 4599.56187261 0 3846
0.05950000 0.05951020 39543.93483258 0 929.48378862 0 14070.14733300 0 1632.89560974 0 10307.76664552 0 3787
0.06050000 0.06049470 36647.44395222 0 1783.18311001 0 16203.73524825 0 2147.45887825 0 7972.70130657 0 3930
0.06150000 0.06148310 37401.69161627 0 1163.04764983 0 13385.14207745 0 1231.50321279 0 6141.11595451 0 4083
0.06250000 0.06249100 35257.42508283 0 1190.58724413 0 14457.50015719 0 1918.90272694 0 6609.46890787 0 4303
0.06350000 0.06350600 34055.91192619 0 905.45127736 0 12019.62782665 0 446.17739760 0 6034.93676771 0 4470
0.06450000 0.06451750 33655.96957318 0 477.88839737 0 11594.28160299 0 1430.13675185 0 5635.12930251 0 4479
0.06550000 0.06550280 32721.08465189 0 560.06654674 0 9820.40575178 0 1549.48998131 0 3452.34105901 0 4636
0.06650000 0.06648880 32892.39216903 0 919.84605468 0 10530.28656740 0 2110.26356498 0 3807.84911968 0 4653
0.06750000 0.06749660 31171.22372910 0 778.94674590 0 8064.97580842 0 279.93266954 0 1186.93403264 0 5220
0.06850000 0.06852730 31159.64585884 0 901.01346845 0 9651.15527372 0 -147.53241678 0 2015.26882566 0 5029
0.06950000 0.06949320 30405.84782082 0 530.40246946 0 8434.26490689 0 -1770.20015842 0 -2244.03854933 0 5040
0.07050000 0.07048030 29913.50731881 0 647.53904260 0 9610.70017174 0 -901.79918993 0 874.25622345 0 5475
0.07150000 0.07148790 29322.58630988 0 665.81971288 0 9972.06461144 0 -1039.16556219 0 -1109.38590731 0 5509
0.07250000 0.07249820 28803.83027864 0 1039.70848562 0 10677.35924156 0 528.83777088 0 -1675.83489553 0 5916
0.07350000 0.07351270 28184.58282987 0 1344.39306808 0 11879.34450553 0 128.43342712 0 -919.02661125 0 5721
0.07450000 0.07449140 26709.47223444 0 1507.36002238 0 11340.13048996 0 1021.09621614 0 580.59309904 0 6028
0.07550000 0.07549160 25753.56729628 0 1101.76924237 0 12857.73074515 0 1264.94414871 0 3359.38087746 0 6183
0.07650000 0.07648840 24758.88211310 0 363.22139520 0 10479.73736106 0 1913.73202760 0 1458.58683885 0 6330
0.07750000 0.07749960 25107.79191179 0 -170.10813971 0 12020.18985919 0 2403.14996043 0 4757.09959261 0 6583
0.07850000 0.07848650 24338.81899528 0 -99.91095033 0 9010.48314466 0 1524.52449604 0 1099.86620021 0 6549
0.07950000 0.07947320 24776.19271522 0 239.95417115 0 9592.53528016 0 477.01387475 0 4433.06535399 0 6828
0.08050000 0.08048110 24342.64081653 0 514.09678151 0 9177.30564216 0 -940.69746179 0 2055.18437640 0 7147
0.08150000 0.08149960 24318.13619793 0 605.74293098 0 10373.96283768 0 -901.86326164 0 3443.31481647 0 7386
0.08250000 0.08250610 23977.43207428 0 220.64273320 0 11331.02556287 0 -627.89375731 0 2237.32788085 0 7227
0.08350000 0.08350160 24262.83219634 0 17.18976513 0 11285.61333392 0 -155.68076449 0 3120.01122015 0 7798
0.08450000 0.08449610 24039.70527933 0 247.08861217 0 11650.48485664 0 418.22077516 0 3393.70982480 0 7371
0.08550000 0.08548940 24239.22682980 0 461.72996195 0 12544.11658976 0 661.87424447 0 2726.30742829 0 8256
0.08650000 0.08650700 23219.13777596 0 666.56496802 0 11068.79242197 0 158.28971953 0 2483.88031398 0 8037
0.08750000 0.08749060 22801.21038179 0 671.13092035 0 11690.27676023 0 946.20762878 0 2302.41124858 0 8155
0.08850000 0.08849210 22227.15034895 0 262.96153507 0 10242.39102087 0 1102.73369021 0 2136.62289095 0 8718
0.08950000 0.08949900 21788.31534442 0 411.07059723 0 10358.81044049 0 1093.37584847 0 1266.79885608 0 8571
0.09050000 0.09049190 21204.25113243 0 572.05132855 0 9485.81654212 0 -233.03667469 0 975.42657629 0 8932
0.09150000 0.09150830 20433.59211832 0 699.22805092 0 8813.76051622 0 603.92306963 0 94.84535108 0 9285
0.09250000 0.09250820 20026.11852932 0 338.23005643 0 8311.15730008 0 1144.18583791 0 -45.58466054 0 9204
0.09350000 0.09350330 19586.72149224 0 -148.61039518 0 6778.55077617 0 1179.89738528 0 -717.14564818 0 9349
0.09450000 0.09448040 19752.40868402 0 -15.55998318 0 6281.23066587 0 807.58230364 0 -2630.37971496 0 9564
0.09550000 0.09549270 19689.34863342 0 189.45891994 0 5403.53817550 0 -34.92593829 0 -2867.81598035 0 10155
0.09650000 0.09649430 19393.38229967 0 266.56528770 0 6133.53975592 0 7.14232072 0 -2804.23885981 0 9913
0.09750000 0.09749140 19400.57631614 0 503.82844706 0 6444.80461531 0 -564.08395531 0 -1361.53506044 0 10476
0.09850000 0.09850240 19115.17619408 0 467.81902245 0 8007.16514171 0 -253.50589968 0 -640.71259541 0 10575
0.09950000 0.09950330 18738.95161411 0 669.14469737 0 8984.50600082 0 482.20480725 0 1336.27731825 0 10882
0.10050000 0.10051200 18488.28510281 0 481.37299910 0 9111.30054107 0 515.45690025 0 2941.26239222 0 10875
0.10150000 0.10150300 18164.10473573 0 93.17465316 0 9538.82745097 0 1963.95525507 0 4600.47236532 0 11118
0.10250000 0.10250800 18133.64257225 0 -193.72137470 0 8936.74447587 0 1550.81637810 0 5118.55395751 0 11575
0.10350000 0.10349800 18027.75564236 0 108.54365769 0 7648.97056552 0 1321.12492106 0 3150.41718037 0 11364
0.10450000 0.10450100 17578.46683265 0 124.21818310 0 6094.19747836 0 573.53509444 0 2943.84774189 0 12093
0.10550000 0.10551000 17458.30427633 0 119.94336363 0 5727.02162223 0 367.29613109 0 2417.99886004 0 12067
0.10650000 0.10649700 17052.74159796 0 246.35122549 0 4752.03005913 0 339.75091647 0 1888.55296996 0 12054
0.10750000 0.10749900 16896.38414629 0 189.06662123 0 4859.42323621 0 862.51873596 0 1204.04230305 0 12807
0.10850000 0.10850100 16649.98908227 0 356.25443988 0 3615.02699704 0 740.55879959 0 386.10960822 0 12736
0.10950000 0.10950300 16447.32014959 0 381.87750322 0 4417.42960882 0 446.86757355 0 1329.20694894 0 12933
0.11050000 0.11050200 15730.16663295 0 390.75312104 0 3496.92147981 0 55.24352690 0 -233.23563421 0 13428
0.11150000 0.11150900 15870.44995407 0 368.08297664 0 3904.45127206 0 -202.56102243 0 1504.45993449 0 13453
0.11250000 0.11250000 15143.40466479 0 302.87820988 0 3365.57447602 0 -661.30209535 0 -135.79605335 0 13668
0.11350000 0.11349100 15512.99726083 0 289.23992835 0 3887.36548295 0 -575.31336539 0 525.90620917 0 13791
0.11450000 0.11448600 14893.41259253 0 318.60163212 0 4073.19592083 0 -654.67685581 0 -647.11077380 0 14205
0.11550000 0.11549300 14992.10550595 0 399.64447576 0 4620.82918380 0 -836.86757099 0 75.84955060 0 14776
0.11650000 0.11649800 14593.96165706 0 122.43541589 0 5099.50105453 0 -91.92840221 0 -181.97377062 0 14553
0.11750000 0.11747300 15034.70757222 0 111.54704716 0 6275.48669335 0 52.10423796 0 1093.60290962 0 14568
0.11850000 0.11849100 14906.22693437 0 -62.40910452 0 5913.81875608 0 459.55602010 0 731.29313119 0 16015
0.11950000 0.11950300 15080.11980118 0 31.80272349 0 6920.85741442 0 663.45243183 0 1909.84276245 0 15270
0.12050000 0.12050700 15054.94074354 0 90.17946937 0 6281.93882687 0 143.02828803 0 1908.75241933 0 15999
0.12150000 0.12150000 14999.97396146 0 200.40506562 0 5939.06525762 0 361.12613790 0 1717.27917478 0 15670
0.12250000 0.12250700 14692.20494445 0 199.28324868 0 5885.36866908 0 180.51248602 0 1446.35701086 0 16887
0.12350000 0.12352200 14622.28809690 0 102.46965966 0 5126.98444556 0 195.36813003 0 1017.92185638 0 16407
0.12450000 0.12449800 14475.48519836 0 92.87407816 0 4951.69773806 0 499.58172922 0 1294.07991541 0 16306
0.12550000 0.12549900 14260.45154987 0 109.15492427 0 4229.01382127 0 300.10738948 0 230.16131624 0 17523
0.12650000 0.12650100 14293.72387604 0 298.61800325 0 4892.21221440 0 304.96335059 0 755.15590863 0 17154
0.12750000 0.12750600 13821.61654533 0 383.01955333 0 4412.28139079 0 325.42133492 0 880.54087127 0 18007
0.12850000 0.12850300 13662.89855701 0 358.27775701 0 4417.24975841 0 176.19157988 0 1107.91900239 0 17496
0.12950000 0.12949900 13420.55012725 0 242.15621463 0 4706.13448219 0 253.05964584 0 1294.57450404 0 18405
0.13050000 0.13049000 13231.03275593 0 279.15144432 0 4597.04396685 0 -133.35458401 0 926.85010415 0 18100
0.13150000 0.13148800 12831.65243546 0 296.76329588 0 4418.22769502 0 120.63016738 0 1393.68332153 0 19059
0.13250000 0.13249300 12743.07610770 0 206.03101131 0 4528.75701366 0 -38.78215593 0 847.51246723 0 18957
0.13350000 0.13349100 12522.42213385 0 152.16356488 0 4307.43984142 0 189.49489002 0 860.71461151 0 19468
0.13450000 0.13450700 12528.26727223 0 175.55198686 0 4691.71272731 0 452.68011404 0 729.96785847 0 19953
0.13550000 0.13551000 12128.43732572 0 198.61218183 0 4097.32959795 0 417.90716101 0 248.43861433 0 19956
0.13650000 0.13649900 12029.85681881 0 180.86769059 0 4104.74842744 0 207.69125543 0 851.58495499 0 19723
0.13750000 0.13749600 11918.34956356 0 123.62130454 0 3926.11200602 0 264.40708275 0 377.38124293 0 20946
0.13850000 0.13851100 11875.29787126 0 84.56813652 0 3938.16198360 0 251.38141669 0 873.73353319 0 20955
0.13950000 0.13949800 11767.27521774 0 67.25854606 0 3707.54879321 0 226.56768020 0 403.03802822 0 20506
0.14050000 0.14048300 11663.74882451 0 165.53319486 0 3324.42245369 0 294.40613143 0 840.62194833 0 21447
0.14150000 0.14148400 11717.59154151 0 78.32316820 0 3690.67657646 0 365.15029087 0 893.85204987 0 21771
0.14250000 0.14249400 11383.63180829 0 127.78933784 0 3355.72766598 0 479.06304537 0 861.23617771 0 22470
0.14350000 0.14350900 11491.54205531 0 222.74361082 0 3668.18403435 0 -41.09233447 0 813.50500251 0 22519
0.14450000 0.14449900 11078.58302875 0 314.24475590 0 3600.83005517 0 -311.21540053 0 950.52403866 0 22218
0.14550000 0.14550500 11079.70709382 0 273.14781276 0 4028.61550004 0 -644.82779764 0 1148.64837625 0 23559
0.14650000 0.14650700 10857.10848740 0 188.25279812 0 3937.56622911 0 -394.94588376 0 876.47512790 0 23044
0.14750000 0.14750500 10801.89441101 0 23.32974578 0 4497.82274285 0 -331.50702323 0 397.04451325 0 23649
0.14850000 0.14849900 10908.32089213 0 -120.37950087 0 4174.87884735 0 143.48465845 0 93.59269296 0 23640
0.14950000 0.14949500 10931.15065376 0 -65.82907250 0 4296.90735168 0 440.73579858 0 -464.59295569 0 24457
0.15050000 0.15050000 11025.65080446 0 81.44683263 0 3624.95249163 0 303.28736957 0 -559.28756964 0 24591
0.15150000 0.15149900 10880.37663441 0 172.46305604 0 3756.44562389 0 290.07173650 0 -331.78129511 0 25020
0.15250000 0.15250500 10725.84016816 0 277.15060849 0 3476.99180606 0 250.18765958 0 -159.32498346 0 25297
0.15350000 0.15350100 10475.37598857 0 221.70834689 0 3614.00409782 0 85.09723395 0 246.56592191 0 25452
0.15450000 0.15450400 10228.25028225 0 185.34708990 0 3333.06651410 0 301.62487732 0 242.76433384 0 26061
0.15550000 0.15549900 10124.01572803 0 252.03000223 0 3657.35928769 0 222.87287830 0 819.29281357 0 26128
0.15650000 0.15649500 9944.10911308 0 214.63797758 0 3657.87635763 0 181.21839889 0 621.60686136 0 26331
0.15750000 0.15749700 9719.36354236 0 215.82161810 0 3513.90610306 0 207.25624224 0 777.66980798 0 27345
0.15850000 0.15849900 9547.83121221 0 218.69023217 0 3512.23124610 0 231.37081026 0 1420.32366377 0 26980
0.15950000 0.15949700 9322.43368375 0 161.35504498 0 3043.93449600 0 358.23953880 0 1083.04007013 0 27777
0.16050000 0.16050000 9204.63166409 0 108.81646828 0 3071.72138461 0 280.29012224 0 1403.58633483 0 28224
0.16150000 0.16150500 9104.02784004 0 126.49553894 0 2754.79123725 0 175.46206165 0 820.80468109 0 28075
0.16250000 0.16249700 8958.57381959 0 104.17812616 0 2728.61176169 0 -168.94023610 0 477.66583249 0 28590
0.16350000 0.16349900 8944.51176552 0 92.93916153 0 2734.14216185 0 -457.17749840 0 442.92210514 0 29163
0.16450000 0.16449100 8886.74606141 0 94.48947208 0 2670.53131937 0 -303.77633787 0 20.36850875 0 28996
0.16550000 0.16550500 8787.52483741 0 -51.25096016 0 2557.81007384 0 -20.91671529 0 -437.50860775 0 30777
0.16650000 0.16650700 8817.58233747 0 -62.09223057 0 2187.55427941 0 612.84477411 0 -816.08360779 0 29211
0.16750000 0.16749900 8948.77197215 0 -148.05623110 0 2050.26097138 0 712.06599812 0 -786.53306108 0 30922
0.16850000 0.16850800 8903.95549768 0 -71.30293219 0 1440.60179768 0 826.60710500 0 -1201.13097451 0 30867
0.16950000 0.16949900 8910.11537428 0 54.27424558 0 1370.57254363 0 494.91685916 0 -526.88526984 0 30852
0.17050000 0.17049200 8791.16680825 0 199.18770315 0 1248.18433847 0 -115.82254107 0 -494.43575931 0 31257
0.17150000 0.17149500 8686.01052066 0 307.12043147 0 1673.06969545 0 -504.22411797 0 84.95942357 0 32608
0.17250000 0.17250900 8551.15643384 0 289.06345013 0 2069.65109389 0 -605.27981617 0 448.39068172 0 32361
0.17350000 0.17350400 8426.83483676 0 244.04689209 0 2535.69971385 0 -730.34554434 0 276.70885091 0 32508
0.17450000 0.17449800 8340.41671394 0 221.75780575 0 3055.02901827 0 -510.36713359 0 221.64090298 0 32791
0.17550000 0.17549800 8180.37232883 0 132.06752950 0 3140.33431667 0 -211.77498384 0 -18.59574572 0 33633
0.17650000 0.17650100 8134.52171450 0 96.28381715 0 3228.41605580 0 138.90634141 0 -35.70727593 0 33984
0.17750000 0.17750300 8088.71606277 0 58.93900323 0 3269.63552203 0 186.00804017 0 -212.93839119 0 34069
