### header ###
fiducial parameters:
Omega_m = 0.31
Omega_nu = 0
Omega_de = 0.69
Omega_k = 0
H_0 = 100
w_de = -1
zeff = 0
beta = 0
fgrowth = 0
b_1 = 2
gamma = 0.55
Lx = 3500 Ly = 3500 Lz = 3500
nx = 700 ny = 700 nz = 700
xoffset = 857.220397 yoffset = 15.9954215 zoffset = 262.898189
bins = 400 dk = 0.001
kx_ny = 0.628318531 ky_ny = 0.628318531 kz_ny = 0.628318531
############################
A(data) = 3.10207946 (not used)
A(ran) = 3.10009503 (used)
Ngal = 188969
weighted Ngal = 0
Nran = 9360983
weighted Nran = 0
SN(data) = 3452.9703
SN(ran) = 69.6164837
SN(data+ran) = 3522.58678
############################
13 columns: k_central k_mean P_0(k) sigma^{lin}_{P_0(k)} P^img_1(k) sigma^{lin}_{P_1(k)} P_2(k) sigma^{lin}_{P_2(k)} P^img_3(k) sigma^{lin}_{P_3(k)} P_4(k) sigma^{lin}_{P_4(k)} N_modes
### header ###
0.00050000 0 0 0 0 0 0 0 0 0 0 0 0
0.00150000 0.00179520 47617.08259409 0 -73945.38436224 0 -72020.53533107 0 137944.14170565 0 -34714.83887204 0 3
0.00250000 0.00253879 77945.59473788 0 -69402.13814979 0 -20334.56198538 0 -85816.74800575 0 -25733.33412497 0 6
0.00350000 0.00331552 111463.52912009 0 -56469.31985776 0 -81354.77169808 0 26065.60776057 0 60019.56698463 0 7
0.00450000 0.00420575 124267.64196125 0 -31044.42918885 0 -73745.86281177 0 -27141.11322251 0 14567.65853435 0 24
0.00550000 0.00557378 126577.59568647 0 3017.08058140 0 -96100.48214001 0 -22109.12351628 0 17746.28974806 0 45
0.00650000 0.00659388 91917.27397048 0 6354.18248912 0 -65505.11694787 0 -2445.89815516 0 33259.06219587 0 40
0.00750000 0.00754703 91554.31335837 0 14541.80503767 0 -75280.66126258 0 -18209.51696468 0 34464.62198677 0 57
0.00850000 0.00846663 77705.38203176 0 1158.16920742 0 -70249.23358888 0 -5718.98455696 0 32074.41001533 0 75
0.00950000 0.00948925 78395.89520617 0 -3301.59269206 0 -56004.40654352 0 -2007.53525795 0 54810.87424891 0 112
0.01050000 0.01054430 87116.50444978 0 -13319.60908369 0 -40207.92007126 0 -24382.32031361 0 39000.33696323 0 105
0.01150000 0.01145670 94975.40540835 0 -9133.71439862 0 -47434.64683272 0 -734.09767355 0 38950.65328700 0 144
0.01250000 0.01249090 98575.67343098 0 -2154.01217763 0 -27675.15653874 0 -23450.80758753 0 32312.48699781 0 169
0.01350000 0.01339930 93624.16678398 0 2124.85392963 0 -37558.94832000 0 -20113.00875947 0 40971.72228843 0 180
0.01450000 0.01448870 96534.37125823 0 4187.06371274 0 -20403.12995484 0 -28309.35405299 0 16759.81023991 0 267
0.01550000 0.01550050 97836.60064542 0 6875.43394482 0 -30442.60474871 0 -21633.53158385 0 -18766.37880190 0 238
0.01650000 0.01653350 91878.38131895 0 4596.33580585 0 -4735.27024889 0 -44057.61813361 0 -8876.80932617 0 315
0.01750000 0.01747870 96767.27754138 0 3432.49006982 0 123.26160372 0 -41841.18662248 0 -17512.14699333 0 297
0.01850000 0.01844180 88436.49406512 0 4024.72623488 0 8355.44546396 0 -21144.22605753 0 -11732.76641999 0 388
0.01950000 0.01947590 95330.04793891 0 -464.85486285 0 19498.70719702 0 -14892.06371445 0 -31751.12890031 0 399
0.02050000 0.02045430 91440.10834694 0 -4812.78577633 0 14062.95331653 0 18050.23694383 0 -35016.31312465 0 462
0.02150000 0.02154770 96451.41525584 0 -6136.12510559 0 584.08556922 0 22620.68553105 0 -27980.11539308 0 571
0.02250000 0.02255340 95650.74370427 0 693.69427856 0 -12581.99758272 0 16213.62702089 0 -37419.56425093 0 510
0.02350000 0.02348930 92170.30101843 0 4505.29777558 0 -7929.46976386 0 7390.76157758 0 -16697.98666089 0 555
0.02450000 0.02439640 84798.56986254 0 9314.03691765 0 -27889.06612215 0 -8531.67638612 0 -22334.16134391 0 592
0.02550000 0.02547300 77763.94582207 0 7986.93197040 0 -15347.08525604 0 -7154.89900329 0 -4344.28669451 0 837
0.02650000 0.02652900 69641.11438433 0 3690.30563498 0 -11649.58560458 0 698.97064001 0 -9548.66302036 0 723
0.02750000 0.02749970 70534.63371094 0 -197.34985675 0 -6602.55590767 0 3054.88288981 0 -9110.55865812 0 826
0.02850000 0.02848090 69901.56026177 0 -1141.15086221 0 -11189.75306448 0 3994.30903400 0 -19780.17309133 0 831
0.02950000 0.02946900 67076.55992006 0 4517.34775317 0 -4954.19316253 0 -17072.41273674 0 -12554.34558192 0 996
0.03050000 0.03053250 63312.74042929 0 4687.29515157 0 -2703.06176258 0 -11020.31149536 0 -9925.57328002 0 1041
0.03150000 0.03150510 58872.57098404 0 4093.68762712 0 10372.35542462 0 -14562.60024152 0 -10060.62969855 0 1036
0.03250000 0.03246190 62946.18280896 0 -846.91558868 0 11071.16419927 0 -4416.50787546 0 486.52234120 0 1059
0.03350000 0.03345080 60027.21062713 0 -2391.83062514 0 14906.22693437 0 -1126.62794147 0 -23189.01283201 0 1302
0.03450000 0.03451200 64736.14403136 0 -55.18957177 0 17268.44968549 0 -5923.10353359 0 -11260.99630881 0 1339
0.03550000 0.03553350 62746.21163245 0 3218.10837908 0 16539.71829859 0 -3368.47456391 0 -17844.75784846 0 1365
0.03650000 0.03647120 60852.94882983 0 4560.91651540 0 23990.35882262 0 -4314.03810340 0 -5558.34441736 0 1308
0.03750000 0.03744890 58547.26655189 0 2068.34717841 0 20325.34465178 0 2625.74856686 0 -11365.42195411 0 1579
0.03850000 0.03847530 58056.27492796 0 2920.63579813 0 21193.12288821 0 1246.68933192 0 -11401.95406898 0 1662
0.03950000 0.03950240 55187.32364189 0 1980.06310757 0 22629.34083211 0 955.23162318 0 -8107.72400315 0 1683
0.04050000 0.04050350 53829.79025311 0 1600.81479255 0 20977.07758116 0 -3227.12338096 0 -11121.92697797 0 1822
0.04150000 0.04152450 54610.90307240 0 -405.46600878 0 27038.48608134 0 1432.09262508 0 -2017.02236717 0 1887
0.04250000 0.04250150 56268.56183570 0 212.16053816 0 26376.74897281 0 -2204.20168314 0 -16968.09949795 0 1920
0.04350000 0.04349210 54990.05022156 0 1635.73949437 0 27340.18514696 0 -1717.80748536 0 -7234.52777307 0 2005
0.04450000 0.04448520 52882.65302251 0 3345.77969008 0 25319.22855204 0 1654.12919897 0 -10912.70474591 0 2151
0.04550000 0.04548030 50200.97097762 0 3136.40008891 0 25902.50591847 0 5748.92965051 0 -4344.77004249 0 2274
0.04650000 0.04648670 48460.24380542 0 1520.33173332 0 22785.36106426 0 9043.10351308 0 -7578.32307568 0 2311
0.04750000 0.04749250 45541.83365613 0 1396.62837202 0 17859.59550743 0 8751.01520384 0 -12227.91708469 0 2568
0.04850000 0.04851840 43721.18545723 0 2303.58027625 0 14855.64400608 0 3391.43921335 0 -2754.92612506 0 2493
0.04950000 0.04949480 41191.92663625 0 2276.05192261 0 9744.02553006 0 3349.92749020 0 -6780.79890631 0 2644
0.05050000 0.05050630 39960.40094217 0 2269.24008827 0 11867.87904178 0 433.83853529 0 1361.13039702 0 2829
0.05150000 0.05149060 37087.06580231 0 335.97855409 0 9151.22733246 0 2044.92166228 0 -4371.74760425 0 2784
0.05250000 0.05249300 37875.93467061 0 328.01904931 0 11324.73079846 0 3485.41105346 0 117.41871347 0 3055
0.05350000 0.05348950 36531.55284318 0 45.30409389 0 8656.64994095 0 -313.82772776 0 -4636.24011595 0 3009
0.05450000 0.05448610 36630.24575660 0 778.46227385 0 11244.36014573 0 -1695.21377739 0 -240.27565377 0 3336
0.05550000 0.05550870 36362.60586270 0 220.00538830 0 13196.52395818 0 -1721.38201229 0 -1998.65514387 0 3349
0.05650000 0.05647670 36860.90390960 0 -165.29601713 0 11918.01234404 0 -799.73520536 0 823.82729207 0 3324
0.05750000 0.05747970 38529.57851062 0 -557.52615967 0 14615.99333249 0 98.07096821 0 126.39774527 0 3639
0.05850000 0.05849280 36904.85485396 0 584.66671086 0 13387.83983363 0 827.88966325 0 -74.38511862 0 3846
0.05950000 0.05951020 37571.87506834 0 1723.86619610 0 14951.86397634 0 1912.41687147 0 2619.19526748 0 3787
0.06050000 0.06049470 35366.68420793 0 2308.94206665 0 15893.71810108 0 433.85202407 0 2921.40016238 0 3930
0.06150000 0.06148310 33762.64334862 0 1122.01815060 0 15732.97679563 0 2312.08944886 0 6820.17490582 0 4083
0.06250000 0.06249100 32902.84597421 0 510.29744156 0 13871.30022156 0 1091.02880060 0 4724.77148111 0 4303
0.06350000 0.06350600 33901.57779165 0 125.62101631 0 14818.99948469 0 3254.50560614 0 8415.75155514 0 4470
0.06450000 0.06451750 32997.49225336 0 154.86469325 0 13655.14250801 0 1658.49057145 0 5961.13065501 0 4479
0.06550000 0.06550280 33092.02612601 0 206.71331881 0 10967.90758165 0 1977.24170423 0 6574.96011013 0 4636
0.06650000 0.06648880 32256.95818320 0 256.12272317 0 12390.79411379 0 1983.16552717 0 5896.23837834 0 4653
0.06750000 0.06749660 32302.03319263 0 212.40895654 0 10931.33050418 0 1343.81979489 0 6698.79835923 0 5220
0.06850000 0.06852730 31303.63859471 0 612.10176710 0 12244.21602825 0 1399.33736885 0 5917.47196757 0 5029
0.06950000 0.06949320 30813.54622284 0 712.26495763 0 12208.35835242 0 -214.35471318 0 4907.11731726 0 5040
0.07050000 0.07048030 30256.34716610 0 803.64582775 0 11721.18854974 0 1727.00233766 0 6676.36202037 0 5475
0.07150000 0.07148790 30058.96133927 0 249.24119679 0 12901.56928300 0 -92.05474713 0 6737.18518148 0 5509
0.07250000 0.07249820 30071.55086808 0 -39.87092536 0 11883.61595280 0 1616.74279464 0 6003.90133104 0 5916
0.07350000 0.07351270 29995.90128866 0 155.17043895 0 12323.46261591 0 358.80719166 0 4760.37062197 0 5721
0.07450000 0.07449140 29798.96508786 0 637.69223255 0 10296.57095740 0 622.63425684 0 3268.27540329 0 6028
0.07550000 0.07549160 29300.32982143 0 632.21129126 0 10849.82454573 0 259.07002179 0 3625.86298434 0 6183
0.07650000 0.07648840 28723.23481290 0 517.14412192 0 9462.66080162 0 -142.28303289 0 1616.32689056 0 6330
0.07750000 0.07749960 28297.32655670 0 557.64531057 0 9865.13230104 0 557.23615088 0 971.87115846 0 6583
0.07850000 0.07848650 27797.79203822 0 334.63417226 0 8301.47909980 0 767.58019988 0 -314.18180826 0 6549
0.07950000 0.07947320 27659.53203423 0 504.61641668 0 9836.65973274 0 727.26335790 0 1235.99947308 0 6828
0.08050000 0.08048110 26854.81384840 0 442.46910692 0 7873.97467120 0 207.31581769 0 633.56241748 0 7147
0.08150000 0.08149960 26668.89348531 0 505.95855038 0 9836.73841729 0 670.74649009 0 2474.29203891 0 7386
0.08250000 0.08250610 26178.68870693 0 464.14894998 0 8561.75636748 0 719.62870793 0 2791.53692449 0 7227
0.08350000 0.08350160 25595.07412097 0 532.67870123 0 8227.99896598 0 1337.52503048 0 2098.03373699 0 7798
0.08450000 0.08449610 25424.21622986 0 627.51269925 0 8458.76952548 0 1141.02721505 0 3869.84130846 0 7371
0.08550000 0.08548940 24305.88388864 0 459.95169100 0 7538.92459486 0 1584.57205225 0 2205.33698887 0 8256
0.08650000 0.08650700 23923.36454426 0 1117.99849390 0 6519.33012966 0 -101.32738473 0 2617.41924466 0 8037
0.08750000 0.08749060 23130.67385471 0 821.21833704 0 6242.55158671 0 364.94009070 0 944.07527733 0 8155
0.08850000 0.08849210 22478.49129930 0 822.88757367 0 6421.32289594 0 -1190.17134005 0 2034.06319368 0 8718
0.08950000 0.08949900 21710.41763485 0 587.32737289 0 7616.63121337 0 -1644.63084910 0 1423.65089638 0 8571
0.09050000 0.09049190 21491.22494560 0 275.41954828 0 6466.67892163 0 -296.90717621 0 818.55430282 0 8932
0.09150000 0.09150830 21700.75067522 0 142.44939452 0 9147.03456974 0 -722.85252656 0 874.30231012 0 9285
0.09250000 0.09250820 21709.18116327 0 372.28585595 0 8287.74302461 0 -401.72512021 0 956.89074323 0 9204
0.09350000 0.09350330 21564.17676884 0 334.12946704 0 10068.31830365 0 329.42862691 0 1551.87299927 0 9349
0.09450000 0.09448040 21260.22957307 0 541.77575987 0 9655.33679580 0 464.32992446 0 2398.14787085 0 9564
0.09550000 0.09549270 20677.28942617 0 692.63428520 0 9404.52415604 0 1493.92744475 0 3018.60930990 0 10155
0.09650000 0.09649430 20271.16471525 0 459.56838481 0 8753.09472422 0 2521.63765978 0 3576.52776829 0 9913
0.09750000 0.09749140 19282.54948346 0 324.70193328 0 7847.68278914 0 1976.00523265 0 3745.07008535 0 10476
0.09850000 0.09850240 19265.01406832 0 177.76864318 0 7025.93501745 0 1816.83761830 0 3469.75282699 0 10575
0.09950000 0.09950330 18449.72967080 0 93.38429130 0 5825.84942346 0 1161.99102867 0 4181.83681015 0 10882
0.10050000 0.10051200 18682.07392141 0 -11.42960607 0 5297.21286023 0 257.08829506 0 3825.28336896 0 10875
0.10150000 0.10150300 18778.51870469 0 60.80157906 0 5545.39518772 0 -377.23623853 0 3264.54350725 0 11118
0.10250000 0.10250800 18608.78487865 0 295.23569145 0 5492.91258946 0 -827.40181901 0 2573.80551983 0 11575
0.10350000 0.10349800 17871.96022323 0 756.09113077 0 5900.45362236 0 -1062.30106953 0 1880.47094209 0 11364
0.10450000 0.10450100 17573.85816585 0 727.03966896 0 6227.56779929 0 -619.71730797 0 1222.22967593 0 12093
0.10550000 0.10551000 16945.73060300 0 451.24468294 0 6325.56379236 0 123.99674228 0 983.07808724 0 12067
0.10650000 0.10649700 16524.99304614 0 378.91671582 0 6037.26358241 0 427.09639298 0 438.63492095 0 12054
0.10750000 0.10749900 16342.10765874 0 46.46289258 0 5426.69391600 0 965.92373016 0 -680.79450778 0 12807
0.10850000 0.10850100 16039.73415408 0 263.50670663 0 5159.29007576 0 644.05556493 0 -715.60230684 0 12736
0.10950000 0.10950300 15754.55884504 0 460.45077589 0 5082.31409956 0 370.83356388 0 -187.11974052 0 12933
0.11050000 0.11050200 15480.06215418 0 368.53934706 0 5036.44100392 0 144.22766546 0 206.64812304 0 13428
0.11150000 0.11150900 14890.37761684 0 404.28798858 0 4668.35465509 0 434.67259157 0 668.47700271 0 13453
0.11250000 0.11250000 14829.79050940 0 304.95773027 0 4822.00310993 0 589.93632792 0 930.85065175 0 13668
0.11350000 0.11349100 14613.74520235 0 -123.27059624 0 4088.25839281 0 518.18163398 0 1480.88828990 0 13791
0.11450000 0.11448600 14795.39411816 0 -154.45553356 0 4555.47604045 0 365.03451216 0 1123.81665472 0 14205
0.11550000 0.11549300 14995.81492069 0 0.60005741 0 4380.08816709 0 -803.79532841 0 699.54391320 0 14776
0.11650000 0.11649800 14978.39191206 0 107.65339815 0 5028.50510451 0 -617.56135116 0 429.31754556 0 14553
0.11750000 0.11747300 14946.46846398 0 158.88434995 0 4925.37213405 0 -731.72364811 0 729.87456107 0 14568
0.11850000 0.11849100 14897.57163330 0 -11.81718371 0 5144.20512248 0 437.37371994 0 823.07754067 0 16015
0.11950000 0.11950300 14839.68228204 0 129.01906503 0 4520.07923130 0 480.43890102 0 -373.57178639 0 15270
0.12050000 0.12050700 14860.14026637 0 -18.89800682 0 4236.50009465 0 1219.74549212 0 609.54789125 0 15999
0.12150000 0.12150000 14439.29030300 0 242.39114423 0 3440.76318876 0 813.11720006 0 -684.79617944 0 15670
0.12250000 0.12250700 14282.48322530 0 338.67293807 0 2536.54276265 0 597.52489123 0 15.58077838 0 16887
0.12350000 0.12352200 13719.55143670 0 405.22995511 0 2292.18225641 0 16.25993850 0 -1537.74350130 0 16407
0.12450000 0.12449800 13374.57586576 0 508.19993613 0 1939.85529990 0 -534.17820404 0 -1099.09284344 0 16306
0.12550000 0.12549900 13196.86117771 0 288.45083467 0 2152.30359872 0 -534.10851200 0 -2171.97473750 0 17523
0.12650000 0.12650100 12919.89154369 0 79.11361076 0 1969.87907800 0 -301.30227065 0 -1749.11269765 0 17154
0.12750000 0.12750600 13039.04244144 0 -32.30630464 0 2417.20077384 0 10.61691826 0 -2026.04860971 0 18007
0.12850000 0.12850300 13069.84182445 0 -99.25224820 0 2580.81968588 0 173.10152500 0 -2190.43188600 0 17496
0.12950000 0.12949900 13373.00217466 0 -145.19323736 0 2759.74836422 0 386.09499537 0 -1650.89189156 0 18405
0.13050000 0.13049000 13316.34929498 0 10.98086805 0 2880.31558396 0 72.34359163 0 -1369.75197613 0 18100
0.13150000 0.13148800 13372.44014212 0 176.61984868 0 3365.22601584 0 435.06039402 0 200.45227636 0 19059
0.13250000 0.13249300 13192.47732392 0 198.63803533 0 3303.88578481 0 15.83549153 0 518.58292521 0 18957
0.13350000 0.13349100 13211.58643016 0 183.48001782 0 3774.14964879 0 427.87761821 0 1741.17679823 0 19468
0.13450000 0.13450700 12984.41287889 0 155.15245391 0 3838.56981813 0 292.53343901 0 1879.51548678 0 19953
0.13550000 0.13551000 12959.23382125 0 128.79762421 0 4308.06931786 0 192.80863386 0 2507.65429028 0 19956
0.13650000 0.13649900 12749.25846560 0 144.62895670 0 3902.57408339 0 -97.11011739 0 2645.25109587 0 19723
0.13750000 0.13749600 12602.00594102 0 291.31045621 0 3735.70662329 0 244.54260478 0 2117.99713269 0 20946
0.13850000 0.13851100 12360.66916983 0 238.45916461 0 3226.07800045 0 147.11538864 0 2027.33004389 0 20955
0.13950000 0.13949800 11934.98572664 0 277.81717908 0 2653.01838553 0 796.97337748 0 835.67381388 0 20506
0.14050000 0.14048300 11708.59902092 0 271.40663596 0 1866.64494169 0 419.73151862 0 200.97271848 0 21447
0.14150000 0.14148400 11382.17052369 0 175.13495871 0 1635.62708787 0 420.04176058 0 -302.88158208 0 21771
0.14250000 0.14249400 11221.56410605 0 234.53055718 0 1101.89738579 0 -218.42495281 0 -866.35067379 0 22470
0.14350000 0.14350900 11085.85572977 0 254.85365370 0 1505.51655566 0 -588.09848153 0 -587.98607502 0 22519
0.14450000 0.14449900 10915.03156062 0 171.95273049 0 1968.73253163 0 -780.06519065 0 -649.11835402 0 22218
0.14550000 0.14550500 11002.92220868 0 226.66772199 0 2749.74418507 0 -944.74746825 0 -249.81222185 0 23559
0.14650000 0.14650700 10980.96921780 0 134.08185411 0 3124.85594061 0 -553.89880168 0 -740.46212999 0 23044
0.14750000 0.14750500 11042.37689275 0 42.99728755 0 3995.78155925 0 -373.62349339 0 -2.13186810 0 23649
0.14850000 0.14849900 10994.93010601 0 21.97929400 0 3775.98187486 0 212.72369476 0 -653.68543041 0 23640
0.14950000 0.14949500 10983.35223576 0 94.89199978 0 4069.36285893 0 300.13998736 0 -402.38831861 0 24457
0.15050000 0.15050000 10867.73090234 0 14.67601841 0 3525.29288225 0 372.30271693 0 -514.67005469 0 24591
0.15150000 0.15149900 10725.10952586 0 153.21568979 0 3370.52036234 0 565.22600542 0 -328.34053192 0 25020
0.15250000 0.15250500 10717.62325248 0 203.23208928 0 3372.17273800 0 258.86993820 0 -472.92677414 0 25297
0.15350000 0.15350100 10401.64856043 0 214.33110781 0 3111.78306381 0 17.16953196 0 -171.91563634 0 25452
0.15450000 0.15450400 10330.03437462 0 254.88175533 0 3223.93103616 0 30.72047363 0 430.51355080 0 26061
0.15550000 0.15549900 10126.47743054 0 50.40487638 0 3313.27172817 0 66.23227464 0 319.70996029 0 26128
0.15650000 0.15649500 10299.20126967 0 -88.87161965 0 3438.33520820 0 355.61372279 0 904.35306578 0 26331
0.15750000 0.15749700 10163.38048689 0 -125.82559615 0 3212.83651388 0 777.24603545 0 415.30944662 0 27345
0.15850000 0.15849900 10334.03604628 0 31.13199386 0 2972.78117687 0 319.07149132 0 884.29524862 0 26980
0.15950000 0.15949700 10208.51169957 0 127.83767263 0 2641.93510391 0 343.54688423 0 596.61777072 0 27777
0.16050000 0.16050000 9993.36564458 0 286.35557737 0 2857.46334102 0 73.90817781 0 653.79109253 0 28224
0.16150000 0.16150500 9691.44176594 0 274.84964728 0 2440.39023630 0 -38.27902441 0 295.14689031 0 28075
0.16250000 0.16249700 9551.09100092 0 287.17839301 0 2586.88963728 0 -221.57683127 0 72.33932019 0 28590
0.16350000 0.16349900 9300.36828636 0 330.82134353 0 2729.27496009 0 -298.51234114 0 39.65206989 0 29163
0.16450000 0.16449100 9134.91714825 0 176.90873340 0 2729.31992269 0 -130.76024182 0 57.71163658 0 28996
0.16550000 0.16550500 8951.87439175 0 60.08060372 0 2490.26500359 0 284.60990431 0 5.93650239 0 30777
0.16650000 0.16650700 9030.17676474 0 -55.31130802 0 2268.02609799 0 454.29539555 0 -116.39356612 0 29211
0.16750000 0.16749900 8958.21411876 0 -119.31051499 0 1915.00222113 0 723.71468447 0 -101.70293487 0 30922
0.16850000 0.16850800 9130.52205382 0 -61.88360410 0 1627.50009739 0 423.22511287 0 -98.11851617 0 30867
0.16950000 0.16949900 9086.06528018 0 15.48444601 0 1490.80254385 0 47.75466816 0 -29.70555528 0 30852
0.17050000 0.17049200 8981.22373081 0 221.25197647 0 1292.10156088 0 -382.07309054 0 -371.31016747 0 31257
0.17150000 0.17149500 8818.57151473 0 237.95108719 0 1494.20846102 0 -443.07385393 0 -250.24611096 0 32608
0.17250000 0.17250900 8599.18773441 0 257.53567296 0 1862.56458547 0 -312.93409603 0 -100.94542742 0 32361
0.17350000 0.17350400 8576.48161994 0 154.26556657 0 1772.71806418 0 -122.36797199 0 -524.73268523 0 32508
0.17450000 0.17449800 8419.24739751 0 99.18918815 0 2143.85062937 0 98.19675109 0 -250.89132432 0 32791
0.17550000 0.17549800 8377.51086135 0 155.84937426 0 2046.75388835 0 28.60925461 0 -449.01004158 0 33633
0.17650000 0.17650100 8263.80043855 0 122.01613962 0 2270.40911595 0 180.36635756 0 61.59393253 0 33984
0.17750000 0.17750300 8198.60466431 0 256.31943455 0 2416.35772504 0 -53.98862065 0 253.55423447 0 34069
