### header ###
fiducial parameters:
Omega_m = 0.31
Omega_nu = 0
Omega_de = 0.69
Omega_k = 0
H_0 = 100
w_de = -1
zeff = 0
beta = 0
fgrowth = 0
b_1 = 2
gamma = 0.55
Lx = 3500 Ly = 3500 Lz = 3500
nx = 700 ny = 700 nz = 700
xoffset = 857.220397 yoffset = 15.9954215 zoffset = 262.898189
bins = 400 dk = 0.001
kx_ny = 0.628318531 ky_ny = 0.628318531 kz_ny = 0.628318531
############################
A(data) = 3.08132273 (not used)
A(ran) = 3.08101691 (used)
Ngal = 188061
weighted Ngal = 0
Nran = 9360983
weighted Nran = 0
SN(data) = 3441.06319
SN(ran) = 69.1880609
SN(data+ran) = 3510.25125
############################
13 columns: k_central k_mean P_0(k) sigma^{lin}_{P_0(k)} P^img_1(k) sigma^{lin}_{P_1(k)} P_2(k) sigma^{lin}_{P_2(k)} P^img_3(k) sigma^{lin}_{P_3(k)} P_4(k) sigma^{lin}_{P_4(k)} N_modes
### header ###
0.00050000 0 0 0 0 0 0 0 0 0 0 0 0
0.00150000 0.00179520 52760.35474256 0 -70916.47861627 0 -57941.73269701 0 127086.79716459 0 -37508.47779822 0 3
0.00250000 0.00253879 85757.06015037 0 -63143.90585531 0 -3650.65985986 0 -101856.70697285 0 1312.80683952 0 6
0.00350000 0.00331552 109559.36288626 0 -37682.59547804 0 -67027.43827636 0 9204.57546083 0 36908.22704918 0 7
0.00450000 0.00420575 117967.25722653 0 -15876.96953150 0 -49177.73454158 0 -66378.96513569 0 -946.99897059 0 24
0.00550000 0.00557378 111261.42221995 0 8679.51342454 0 -57292.47271079 0 -73959.88480169 0 -6227.11817326 0 45
0.00650000 0.00659388 97542.88244181 0 2673.94847719 0 -36425.66591330 0 -48180.91363475 0 4346.52358401 0 40
0.00750000 0.00754703 86291.55309263 0 11206.74892839 0 -42591.16283925 0 -68088.78051838 0 -4981.29437144 0 57
0.00850000 0.00846663 89216.37041283 0 -1703.82411585 0 -48229.13602639 0 -24421.10055863 0 -6814.41969265 0 75
0.00950000 0.00948925 88088.93314451 0 -5013.54379839 0 -29292.23655290 0 -25101.49714738 0 -23126.85203346 0 112
0.01050000 0.01054430 104899.88834525 0 -10110.63935366 0 -52133.46365129 0 -8863.62404286 0 -16067.61096789 0 105
0.01150000 0.01145670 106114.77787625 0 -429.36700443 0 -32673.42429279 0 -15434.08789269 0 -27689.09494565 0 144
0.01250000 0.01249090 106089.14919259 0 4581.59931275 0 -20550.71969893 0 -24894.44436091 0 -18849.44721080 0 169
0.01350000 0.01339930 99264.83772729 0 6463.43037357 0 10453.47920095 0 -6804.13449723 0 -23313.22202258 0 180
0.01450000 0.01448870 93495.01170708 0 8467.22249483 0 19081.90386792 0 -11378.79832848 0 -1597.21778432 0 267
0.01550000 0.01550050 91290.15806619 0 4759.76362683 0 22096.42158095 0 -10762.28235783 0 -15789.18004929 0 238
0.01650000 0.01653350 84228.21924445 0 -470.07839324 0 40145.75927272 0 10391.88043494 0 3085.52490370 0 315
0.01750000 0.01747870 85135.78938447 0 1351.15993982 0 29435.55484972 0 6612.80738114 0 -9406.23273495 0 297
0.01850000 0.01844180 88426.48988597 0 1854.56124215 0 44199.92477187 0 6435.40743130 0 -3232.91231609 0 388
0.01950000 0.01947590 83426.87325384 0 6033.53168637 0 26504.10554559 0 2826.83256778 0 -10459.60535560 0 399
0.02050000 0.02045430 77762.03491145 0 5000.01005491 0 34967.64110698 0 -4923.31509497 0 491.53679549 0 462
0.02150000 0.02154770 74403.89050556 0 6834.68658592 0 31976.50394747 0 -3789.94276306 0 -3084.27719147 0 571
0.02250000 0.02255340 70736.85301759 0 4359.22551933 0 34842.53266435 0 -3598.34587135 0 -3115.02037122 0 510
0.02350000 0.02348930 71740.86794088 0 1644.09129787 0 42963.11597194 0 2447.89899099 0 2091.67152867 0 555
0.02450000 0.02439640 70072.53055939 0 -524.17739708 0 34605.46734043 0 2144.51382776 0 -2736.58138306 0 592
0.02550000 0.02547300 71867.88729414 0 36.55605746 0 45612.31253622 0 5562.31236707 0 10958.55536025 0 837
0.02650000 0.02652900 72835.25769605 0 559.67762022 0 34840.05972119 0 5629.25044218 0 810.91628064 0 723
0.02750000 0.02749970 70978.97663434 0 1606.95218785 0 40181.95416807 0 8691.59712407 0 10511.78445629 0 826
0.02850000 0.02848090 70782.15284004 0 1186.41696270 0 35095.33489929 0 13490.57938131 0 7380.09420004 0 831
0.02950000 0.02946900 70544.97510961 0 -2113.44466914 0 30448.22507408 0 14896.44756823 0 14128.26149728 0 996
0.03050000 0.03053250 70753.26436766 0 -293.86658019 0 22735.11535549 0 12907.75164090 0 5073.67003915 0 1041
0.03150000 0.03150510 68730.05964259 0 1023.14988303 0 12452.73009931 0 6534.80850572 0 -5861.30243587 0 1036
0.03250000 0.03246190 64959.83298091 0 2602.52538244 0 13436.73666430 0 -2556.37127054 0 3582.54151643 0 1059
0.03350000 0.03345080 64356.09763014 0 3354.30010333 0 8023.91371130 0 -4198.91135861 0 -5867.85573524 0 1302
0.03450000 0.03451200 61455.22289600 0 3197.25697197 0 13262.16935845 0 -5828.68206745 0 1845.50127766 0 1339
0.03550000 0.03553350 58876.95483783 0 3366.73226304 0 13587.69860362 0 -5015.08376754 0 -4648.42498134 0 1365
0.03650000 0.03647120 58693.05779187 0 2604.09907355 0 21092.85628369 0 748.29911168 0 4051.97357225 0 1308
0.03750000 0.03744890 53174.79753501 0 3287.26086237 0 22460.05663210 0 4004.43686031 0 2140.01756747 0 1579
0.03850000 0.03847530 52361.64886113 0 3382.50289602 0 22478.37889279 0 6872.05050895 0 7307.44587436 0 1662
0.03950000 0.03950240 48889.07463081 0 2673.34148205 0 21780.67170192 0 3756.85028731 0 2146.42473838 0 1683
0.04050000 0.04050350 46880.93237772 0 3167.62661664 0 18467.48989896 0 5745.47877073 0 4757.05463001 0 1822
0.04150000 0.04152450 43615.52334036 0 1973.47608624 0 17335.66877686 0 2890.27480051 0 9153.71151628 0 1887
0.04250000 0.04250150 40886.85537541 0 1619.30566301 0 11841.35110606 0 1028.18344643 0 3620.74848826 0 1920
0.04350000 0.04349210 41563.87976894 0 250.88907619 0 15158.35473026 0 -536.20826556 0 2989.33865540 0 2005
0.04450000 0.04448520 41713.38042366 0 -106.81484560 0 13116.15330546 0 -2447.95519424 0 -1372.87687703 0 2151
0.04550000 0.04548030 42463.69385996 0 428.53969253 0 17600.49850808 0 -3884.13941619 0 961.27122482 0 2274
0.04650000 0.04648670 42311.15822954 0 75.19995339 0 19034.46832183 0 -4901.72180491 0 -2143.36728139 0 2311
0.04750000 0.04749250 43763.56271049 0 178.13284026 0 22453.31224166 0 -2519.18719793 0 -2274.26465915 0 2568
0.04850000 0.04851840 43415.66457037 0 596.03438095 0 23542.08167147 0 -2306.16562592 0 -3390.07909461 0 2493
0.04950000 0.04949480 43326.41380356 0 1298.98083912 0 26417.66494147 0 663.08486256 0 -5409.11353826 0 2644
0.05050000 0.05050630 41769.13405129 0 1178.78456086 0 23478.12236881 0 1988.63972407 0 -4944.95334763 0 2829
0.05150000 0.05149060 40413.51157313 0 182.87976707 0 23030.40725019 0 4291.80409625 0 -7373.64206652 0 2784
0.05250000 0.05249300 39797.29910006 0 196.41800681 0 18960.16762050 0 3255.06763868 0 -9683.17988766 0 3055
0.05350000 0.05348950 39798.19835212 0 210.59696364 0 14494.81911761 0 3226.49390452 0 -9768.96853404 0 3009
0.05450000 0.05448610 38875.79055313 0 1222.04982552 0 15179.26234062 0 -343.58173024 0 -8558.75511373 0 3336
0.05550000 0.05550870 37903.13704538 0 1556.76268234 0 13213.38493428 0 -293.02128326 0 -6341.01968711 0 3349
0.05650000 0.05647670 36729.38829605 0 1525.15397248 0 15250.86528578 0 -899.61962776 0 -7964.95649822 0 3324
0.05750000 0.05747970 35527.65032640 0 673.35432106 0 15736.46139736 0 -389.23788132 0 -4562.11926503 0 3639
0.05850000 0.05849280 36168.03019854 0 -23.06648974 0 17089.61093236 0 576.90166934 0 -6893.68876160 0 3846
0.05950000 0.05951020 36446.57352366 0 -305.22188556 0 18582.03212991 0 55.65752006 0 -2880.32682461 0 3787
0.06050000 0.06049470 36721.18262102 0 219.40738568 0 20788.23464888 0 636.13427836 0 -3720.65539196 0 3930
0.06150000 0.06148310 37313.67732105 0 397.31316480 0 19652.59170553 0 378.57387597 0 -1249.49949461 0 4083
0.06250000 0.06249100 36953.63927813 0 971.60925130 0 22965.54869547 0 1948.19586274 0 -614.05314407 0 4303
0.06350000 0.06350600 36238.17185911 0 573.26419476 0 22009.64375731 0 2773.04605403 0 1554.27849853 0 4470
0.06450000 0.06451750 36027.97169044 0 1102.83822826 0 21846.99154123 0 2868.92880477 0 1853.30228927 0 4479
0.06550000 0.06550280 35011.03001880 0 1215.11434402 0 22740.73568085 0 2058.61277487 0 2706.59132691 0 4636
0.06650000 0.06648880 33023.34575004 0 1530.43707833 0 17844.87025497 0 1617.05753286 0 1882.21324295 0 4653
0.06750000 0.06749660 32320.91748586 0 1291.60697224 0 18676.90322208 0 2146.23364732 0 2011.77298328 0 5220
0.06850000 0.06852730 30691.69756891 0 928.37658452 0 15872.92289723 0 1944.43024475 0 530.29006295 0 5029
0.06950000 0.06949320 30011.63819969 0 811.87173596 0 14736.60551484 0 2504.85536824 0 180.08646536 0 5040
0.07050000 0.07048030 28818.10590507 0 401.40588573 0 10812.76412027 0 3423.91345331 0 -114.46017420 0 5475
0.07150000 0.07148790 27817.12595748 0 519.04379189 0 9957.22695248 0 3879.76680306 0 -39.83203271 0 5509
0.07250000 0.07249820 27744.84857328 0 -489.45727510 0 7073.55041395 0 3633.58531140 0 954.02999762 0 5916
0.07350000 0.07351270 27664.59032706 0 -395.99351241 0 5355.32702451 0 3088.91958023 0 186.91853288 0 5721
0.07450000 0.07449140 27961.23109985 0 -688.23019824 0 4611.65681280 0 2039.29009627 0 933.03246206 0 6028
0.07550000 0.07549160 28060.93567183 0 -98.74754298 0 3576.87622846 0 251.38703701 0 3096.41709426 0 6183
0.07650000 0.07648840 27852.87122680 0 366.51715399 0 3629.56115843 0 -939.02597703 0 1292.95585033 0 6330
0.07750000 0.07749960 28138.04653585 0 633.85130220 0 4045.00436880 0 -1902.86231835 0 2741.83076695 0 6583
0.07850000 0.07848650 27141.00081601 0 921.88286060 0 5067.71249426 0 -2568.63482049 0 158.41561482 0 6549
0.07950000 0.07947320 26718.57716154 0 1108.50913655 0 6235.21144178 0 -2154.42808170 0 1341.50422084 0 6828
0.08050000 0.08048110 25780.76967105 0 1098.80283465 0 7215.54231398 0 -2650.34311065 0 -1625.37561440 0 7147
0.08150000 0.08149960 25534.14979401 0 630.62635951 0 8887.12824354 0 -851.68387272 0 -1154.65088374 0 7386
0.08250000 0.08250610 25029.55698270 0 305.58158638 0 9873.85504601 0 -789.76812036 0 -1320.61909178 0 7227
0.08350000 0.08350160 25165.79366956 0 321.09368439 0 10575.36157683 0 344.46974165 0 -1411.63464075 0 7798
0.08450000 0.08449610 25406.79322123 0 141.92108393 0 11585.06426939 0 905.24669751 0 418.29271533 0 7371
0.08550000 0.08548940 24947.83745188 0 184.26573930 0 11033.53050062 0 1792.70394118 0 726.39108341 0 8256
0.08650000 0.08650700 24648.94854895 0 495.61827577 0 10362.22759832 0 2044.05613218 0 2024.07025518 0 8037
0.08750000 0.08749060 23994.63026990 0 553.56945061 0 9669.21899945 0 1561.18025808 0 1271.07030336 0 8155
0.08850000 0.08849210 23883.90986020 0 578.69342906 0 10210.63618256 0 685.50771263 0 3119.83136974 0 8718
0.08950000 0.08949900 22792.44267422 0 677.78650965 0 9358.94331732 0 -297.29610273 0 1493.66890978 0 8571
0.09050000 0.09049190 22663.40000382 0 658.85950195 0 10348.28919141 0 -1146.26535829 0 2927.34646662 0 8932
0.09150000 0.09150830 21989.41058599 0 503.82057861 0 9772.67794878 0 -917.18539266 0 1427.15797941 0 9285
0.09250000 0.09250820 21444.46383856 0 506.95672016 0 10823.93732709 0 280.71052257 0 2400.89058963 0 9204
0.09350000 0.09350330 21378.70603178 0 475.38285632 0 9794.77706811 0 2115.63659603 0 2132.25027781 0 9349
0.09450000 0.09448040 20452.36400504 0 417.51823449 0 9404.31058367 0 2358.07495100 0 2062.59196523 0 9564
0.09550000 0.09549270 19984.64052812 0 481.82374919 0 8005.73757907 0 3114.91920537 0 2877.87636275 0 10155
0.09650000 0.09649430 19368.87768108 0 325.49102696 0 6741.54655396 0 2310.21226019 0 2206.60718240 0 9913
0.09750000 0.09749140 18916.55389566 0 248.37566668 0 5870.11510604 0 1246.37459370 0 3027.07351990 0 10476
0.09850000 0.09850240 18393.52641715 0 172.35177359 0 5607.10636024 0 277.29336475 0 2273.11811277 0 10575
0.09950000 0.09950330 18664.65091278 0 -94.05783109 0 5551.03799439 0 266.92498852 0 3675.97380530 0 10882
0.10050000 0.10051200 18481.31589936 0 203.34674392 0 4559.45523081 0 -24.11850224 0 2338.78599434 0 10875
0.10150000 0.10150300 18470.74968767 0 545.53575754 0 5254.01503947 0 86.28211095 0 2276.41162344 0 11118
0.10250000 0.10250800 17847.23079162 0 882.74291475 0 5096.39863492 0 -254.33770783 0 1471.92949127 0 11575
0.10350000 0.10349800 17120.97234789 0 903.14357176 0 5628.21630231 0 -276.65939205 0 1230.08689079 0 11364
0.10450000 0.10450100 16342.44487827 0 476.06066756 0 4299.94232738 0 463.33287874 0 1622.05962243 0 12093
0.10550000 0.10551000 16336.93695941 0 22.51030234 0 4605.06979147 0 529.99330977 0 454.36171539 0 12067
0.10650000 0.10649700 16193.95588211 0 -171.43678462 0 4165.42546008 0 641.86588617 0 252.40993623 0 12054
0.10750000 0.10749900 16297.59468185 0 -61.06090087 0 3410.37970983 0 141.11400521 0 -249.42666753 0 12807
0.10850000 0.10850100 16341.43321970 0 86.08281421 0 3711.71907463 0 -467.00744746 0 -481.34714560 0 12736
0.10950000 0.10950300 16346.94113856 0 198.82463013 0 3986.03591507 0 -587.58253566 0 366.43622131 0 12933
0.11050000 0.11050200 16112.68597732 0 161.70800142 0 4234.56670273 0 156.33609443 0 -45.00610424 0 13428
0.11150000 0.11150900 16313.89362541 0 278.27242543 0 4715.26189059 0 -83.83445925 0 1165.43066779 0 13453
0.11250000 0.11250000 15815.48317200 0 321.47137026 0 4806.56969648 0 137.94189358 0 -145.74402925 0 13668
0.11350000 0.11349100 15981.84480282 0 312.60699309 0 5226.03705980 0 245.46433814 0 1446.10971654 0 13791
0.11450000 0.11448600 15317.85956414 0 364.36007312 0 4872.84457319 0 -96.89283561 0 616.53845194 0 14205
0.11550000 0.11549300 15305.71966135 0 329.53428902 0 5176.80300960 0 196.42924746 0 1018.25120744 0 14776
0.11650000 0.11649800 14958.04633424 0 437.84470321 0 5664.11894074 0 -46.07329162 0 1051.38077734 0 14553
0.11750000 0.11747300 14634.09078017 0 394.05112796 0 5372.06435345 0 -163.50762960 0 814.43460432 0 14568
0.11850000 0.11849100 14349.47750366 0 217.45263652 0 5331.53056691 0 732.58355790 0 1411.28618058 0 16015
0.11950000 0.11950300 14112.29977324 0 -53.57608877 0 4171.59657733 0 487.15968610 0 467.26373430 0 15270
0.12050000 0.12050700 14326.88379569 0 -300.10514135 0 4578.09222972 0 1403.31655921 0 1515.20599659 0 15999
0.12150000 0.12150000 14641.17239013 0 -375.79631117 0 2860.04869069 0 661.72137162 0 -652.14658533 0 15670
0.12250000 0.12250700 14674.78193582 0 -200.69844661 0 3085.91832648 0 684.75571310 0 954.58078951 0 16887
0.12350000 0.12352200 14676.46803343 0 83.43946278 0 2096.17902962 0 -171.88416252 0 -301.03586723 0 16407
0.12450000 0.12449800 14470.65171854 0 239.97440433 0 2535.85708296 0 -2.04941792 0 334.73308999 0 16306
0.12550000 0.12549900 14334.97706422 0 344.72040816 0 2426.09212857 0 -468.85428638 0 -260.74150655 0 17523
0.12650000 0.12650100 14002.36620909 0 496.03755204 0 2930.93223420 0 -145.79123998 0 204.37863566 0 17154
0.12750000 0.12750600 13745.51733989 0 368.95187894 0 2855.82220602 0 -40.26153798 0 359.21972354 0 18007
0.12850000 0.12850300 13559.14735077 0 360.20440454 0 3460.74906576 0 -6.33643350 0 228.16160447 0 17496
0.12950000 0.12949900 13119.18828115 0 382.00002631 0 3152.73275443 0 -211.86378498 0 238.28381046 0 18405
0.13050000 0.13049000 13000.37460293 0 350.90501419 0 3392.81057274 0 -274.93844842 0 -121.98691393 0 18100
0.13150000 0.13148800 12684.51231739 0 203.80761060 0 3727.95057428 0 -84.40199970 0 311.92243746 0 19059
0.13250000 0.13249300 12706.65639933 0 -12.78803871 0 3463.05339916 0 69.21205875 0 5.71380262 0 18957
0.13350000 0.13349100 12751.05696971 0 -99.26112831 0 3320.69055765 0 362.08271728 0 -89.35238229 0 19468
0.13450000 0.13450700 12905.16629124 0 6.83434937 0 3279.89823615 0 181.43309532 0 276.25922489 0 19953
0.13550000 0.13551000 12692.15595988 0 158.25037725 0 2995.97063933 0 432.02317019 0 415.94229526 0 19956
0.13650000 0.13649900 12769.82885644 0 204.29545484 0 3595.88416884 0 269.71379396 0 1385.01677982 0 19723
0.13750000 0.13749600 12421.14387076 0 228.98329604 0 3249.23374095 0 436.02259372 0 1304.25270432 0 20946
0.13850000 0.13851100 12320.31523370 0 314.92706340 0 3841.43618406 0 578.36969832 0 2501.65178279 0 20955
0.13950000 0.13949800 11960.50200380 0 275.80735073 0 3264.46482269 0 357.13121063 0 2488.90488486 0 20506
0.14050000 0.14048300 11837.07965878 0 237.47223547 0 3689.39514228 0 217.30425993 0 2482.36282613 0 21447
0.14150000 0.14148400 11637.78292132 0 286.12964029 0 3750.17334078 0 -118.79119693 0 2650.64660822 0 21771
0.14250000 0.14249400 11391.83748332 0 103.21716293 0 3310.89995086 0 -356.41068492 0 2166.61294710 0 22470
0.14350000 0.14350900 11534.81856062 0 68.15622442 0 4113.02154637 0 -272.80047666 0 2611.99001036 0 22519
0.14450000 0.14449900 11468.04909528 0 -57.99523819 0 3602.61731863 0 -387.13700370 0 1574.72524221 0 22218
0.14550000 0.14550500 11438.93580989 0 48.27286216 0 3854.64394867 0 28.45199791 0 1812.81346534 0 23559
0.14650000 0.14650700 11371.49190550 0 157.64338211 0 3913.75853087 0 259.33979741 0 952.36862944 0 23044
0.14750000 0.14750500 11260.54668278 0 202.81056488 0 3535.10597034 0 515.83458611 0 1625.81399978 0 23649
0.14850000 0.14849900 10908.32089213 0 193.97878560 0 3186.15120905 0 689.38798527 0 955.48116563 0 23640
0.14950000 0.14949500 10692.43295419 0 134.99684308 0 2617.16070970 0 547.43992377 0 975.53111434 0 24457
0.15050000 0.15050000 10452.73731800 0 172.85647881 0 2366.89886182 0 186.19463497 0 505.89223054 0 24591
0.15150000 0.15149900 10367.44326026 0 115.60334838 0 1862.58706678 0 17.45785465 0 334.45094965 0 25020
0.15250000 0.15250500 10164.29097959 0 200.27579814 0 2186.09299481 0 -650.42002138 0 175.38899742 0 25297
0.15350000 0.15350100 10166.11196501 0 149.18366837 0 2032.90540665 0 -554.86999390 0 -211.62435912 0 25452
0.15450000 0.15450400 10197.42841795 0 166.16154724 0 2841.87255846 0 -468.96669289 0 28.67883424 0 26061
0.15550000 0.15549900 10046.34283147 0 135.82865124 0 2830.67687033 0 -375.11625180 0 -366.59471449 0 26128
0.15650000 0.15649500 10117.81088882 0 134.79788357 0 3500.01265876 0 -194.46550578 0 18.82314409 0 26331
0.15750000 0.15749700 10175.99249701 0 98.04286659 0 3753.29824168 0 19.90494431 0 -7.60587391 0 27345
0.15850000 0.15849900 9972.71656919 0 220.96421581 0 3817.62848581 0 221.71621534 0 634.80226125 0 26980
0.15950000 0.15949700 9847.81045826 0 157.32639576 0 3677.70486551 0 377.43519805 0 852.95631438 0 27777
0.16050000 0.16050000 9585.18389458 0 228.75286270 0 3493.87526346 0 738.96712345 0 1017.08217977 0 28224
0.16150000 0.16150500 9442.67492462 0 195.75031215 0 3078.44329374 0 810.40258291 0 1289.50497056 0 28075
0.16250000 0.16249700 9154.92550655 0 130.47248116 0 2676.21908864 0 809.95183281 0 1305.57910110 0 28590
0.16350000 0.16349900 9152.23899103 0 26.71048389 0 2365.94340651 0 710.13148213 0 1859.23735286 0 29163
0.16450000 0.16449100 8946.45639810 0 160.89417830 0 2021.39498030 0 238.55808233 0 1465.06145367 0 28996
0.16550000 0.16550500 8886.17278823 0 56.37872021 0 1971.68882277 0 82.80593971 0 1770.33504623 0 30777
0.16650000 0.16650700 8811.99573405 0 99.78460542 0 1999.14973251 0 -151.75328113 0 1391.81737351 0 29211
0.16750000 0.16749900 8856.66608006 0 -24.77405699 0 1853.79687790 0 -91.98764044 0 1659.34486091 0 30922
0.16850000 0.16850800 8909.66574825 0 -63.61533875 0 1973.01521956 0 -84.55509737 0 613.13478290 0 30867
0.16950000 0.16949900 8951.34608117 0 -34.48867698 0 1723.22547901 0 -16.82073457 0 659.90488246 0 30852
0.17050000 0.17049200 8937.68869053 0 23.44833464 0 1719.52730492 0 -18.22087002 0 -25.17748395 0 31257
0.17150000 0.17149500 8831.17228420 0 152.05453057 0 1438.11761387 0 -190.90783982 0 -275.86805024 0 32608
0.17250000 0.17250900 8798.02360519 0 198.52562882 0 1748.20220494 0 -236.37627203 0 -447.40824885 0 32361
0.17350000 0.17350400 8441.14418514 0 211.41191082 0 1871.62454996 0 -25.05484845 0 -587.93886429 0 32508
0.17450000 0.17449800 8412.10958430 0 285.10561701 0 1946.90318791 0 -222.26475910 0 87.08581747 0 32791
0.17550000 0.17549800 8142.82855539 0 142.49997745 0 1998.25048045 0 201.31668240 0 -5.97006697 0 33633
0.17650000 0.17650100 8088.19899283 0 197.54432001 0 2052.23932591 0 127.30374172 0 524.58093644 0 33984
0.17750000 0.17750300 7982.85161418 0 138.17682318 0 2110.10619587 0 177.30552837 0 602.89792228 0 34069
