### header ###
fiducial parameters:
Omega_m = 0.31
Omega_nu = 0
Omega_de = 0.69
Omega_k = 0
H_0 = 100
w_de = -1
zeff = 0
beta = 0
fgrowth = 0
b_1 = 2
gamma = 0.55
Lx = 3500 Ly = 3500 Lz = 3500
nx = 700 ny = 700 nz = 700
xoffset = 857.220397 yoffset = 15.9954215 zoffset = 262.898189
bins = 400 dk = 0.001
kx_ny = 0.628318531 ky_ny = 0.628318531 kz_ny = 0.628318531
############################
A(data) = 3.06382638 (not used)
A(ran) = 3.06532566 (used)
Ngal = 187438
weighted Ngal = 0
Nran = 9360983
weighted Nran = 0
SN(data) = 3438.50581
SN(ran) = 68.8356942
SN(data+ran) = 3507.3415
############################
13 columns: k_central k_mean P_0(k) sigma^{lin}_{P_0(k)} P^img_1(k) sigma^{lin}_{P_1(k)} P_2(k) sigma^{lin}_{P_2(k)} P^img_3(k) sigma^{lin}_{P_3(k)} P_4(k) sigma^{lin}_{P_4(k)} N_modes
### header ###
0.00050000 0 0 0 0 0 0 0 0 0 0 0 0
0.00150000 0.00179520 247.11221754 0 -5871.92485081 0 -926.36788024 0 -331.74307689 0 19066.72898943 0 3
0.00250000 0.00253879 10761.20325536 0 -20610.18274130 0 -26631.01249234 0 12343.69578722 0 16241.50383470 0 6
0.00350000 0.00331552 30969.22923546 0 -48664.93605523 0 -57278.53430388 0 37161.92853618 0 -20758.89655047 0 7
0.00450000 0.00420575 60072.84766910 0 -64890.14094637 0 -76559.84731577 0 22453.42464817 0 -8042.89917039 0 24
0.00550000 0.00557378 129434.96910229 0 -64493.00875605 0 -124299.11578330 0 2527.52776077 0 -25467.49273518 0 45
0.00650000 0.00659388 135319.44975996 0 -30185.86828602 0 -75328.54643469 0 -80125.49413414 0 -21712.77817150 0 40
0.00750000 0.00754703 146760.18407397 0 25354.07456930 0 -111212.52538927 0 -96167.13919885 0 -1566.10366310 0 57
0.00850000 0.00846663 121633.95749498 0 37108.19822568 0 -68802.56183980 0 -95746.96367452 0 15971.27859113 0 75
0.00950000 0.00948925 84781.14685391 0 40728.02498059 0 -41705.06234212 0 -92523.59467090 0 32943.76194287 0 112
0.01050000 0.01054430 62986.31193206 0 15398.67984289 0 9271.91819936 0 -31980.10095570 0 10110.00987721 0 105
0.01150000 0.01145670 61835.26929721 0 3276.86326045 0 31807.55696698 0 -20951.56130400 0 -1817.80431426 0 144
0.01250000 0.01249090 63798.78616690 0 -4313.86949364 0 42955.69714245 0 6263.22314340 0 -4553.36279811 0 169
0.01350000 0.01339930 69870.98569178 0 -4499.83481933 0 52450.22518889 0 24561.38387975 0 -2849.22394404 0 180
0.01450000 0.01448870 70669.97114574 0 -7020.37089534 0 36627.99762646 0 21129.27599206 0 -5324.43771630 0 267
0.01550000 0.01550050 78506.05358333 0 -8209.96896220 0 21059.69636403 0 12787.36427158 0 -50176.57876553 0 238
0.01650000 0.01653350 79093.60239704 0 -4115.95535621 0 12066.95096623 0 1646.75533209 0 -25175.57303569 0 315
0.01750000 0.01747870 84867.47505152 0 2906.24776520 0 8638.53001197 0 -17448.30009718 0 -37586.26310127 0 297
0.01850000 0.01844180 77026.22191459 0 4584.96026731 0 4164.88590885 0 -17727.74267435 0 -37241.06271732 0 388
0.01950000 0.01947590 80869.51280603 0 2544.56858728 0 7341.86474690 0 -20096.37259639 0 -49716.27411810 0 399
0.02050000 0.02045430 77743.93746377 0 1166.63341742 0 10678.74184160 0 -12398.88738231 0 -44189.02134066 0 462
0.02150000 0.02154770 83460.70761254 0 616.11692754 0 19271.42123924 0 -4361.49613078 0 -44233.08469152 0 571
0.02250000 0.02255340 79203.87318071 0 2698.28448602 0 6376.19168325 0 209.48751141 0 -36414.20044955 0 510
0.02350000 0.02348930 81942.99495084 0 2495.28957447 0 11947.91247499 0 11403.19054056 0 -27512.05469664 0 555
0.02450000 0.02439640 77926.14841212 0 3111.44584429 0 11046.31112050 0 4172.37218223 0 -34383.91411452 0 592
0.02550000 0.02547300 75524.35857043 0 2843.43500891 0 6539.82183594 0 10194.95547479 0 -18826.74109632 0 837
0.02650000 0.02652900 70587.01514335 0 2529.13517382 0 4088.37079932 0 5432.10066901 0 -23958.99740708 0 723
0.02750000 0.02749970 61776.03106786 0 4537.42355537 0 3059.50279726 0 -5893.81039778 0 -8081.92670973 0 826
0.02850000 0.02848090 64523.13370001 0 1381.46473419 0 11855.28951296 0 -376.28190729 0 -19913.93683502 0 831
0.02950000 0.02946900 61004.58520819 0 2905.10121882 0 7896.12999379 0 -5689.21931383 0 -12167.10516424 0 996
0.03050000 0.03053250 58821.42602322 0 2832.35172729 0 12215.55236889 0 -6381.03640372 0 -13255.53737452 0 1041
0.03150000 0.03150510 59304.99881767 0 2540.87041319 0 16715.85929555 0 -6639.90859005 0 -9431.67032755 0 1036
0.03250000 0.03246190 54812.33553350 0 3075.13854243 0 15463.98802364 0 -1140.92604920 0 -11178.65854221 0 1059
0.03350000 0.03345080 53906.45149109 0 2227.80704968 0 18580.34603230 0 -1140.72371748 0 -9919.70566034 0 1302
0.03450000 0.03451200 51021.53848098 0 794.91409026 0 15645.41212644 0 848.93890581 0 -11522.11662530 0 1339
0.03550000 0.03553350 51242.30486134 0 2114.16407079 0 14458.28700274 0 869.18331777 0 -9837.28920918 0 1365
0.03650000 0.03647120 48604.57376081 0 1715.80664953 0 14616.55536503 0 1665.22372124 0 -13095.02088208 0 1308
0.03750000 0.03744890 48611.65537077 0 1043.12676751 0 14175.69704336 0 1833.78851960 0 -8397.31688794 0 1579
0.03850000 0.03847530 46512.12662723 0 1277.42127102 0 17193.81176463 0 6055.72073091 0 -9334.76467760 0 1662
0.03950000 0.03950240 47183.98032142 0 1162.29452624 0 12905.72832377 0 5363.46525564 0 -3461.58087391 0 1683
0.04050000 0.04050350 43259.86915123 0 -119.22733417 0 8671.53256252 0 10242.75072170 0 -4321.14219466 0 1822
0.04150000 0.04152450 44275.57435129 0 1089.64170430 0 6209.15561339 0 5477.71522967 0 -138.26112806 0 1887
0.04250000 0.04250150 41183.49614821 0 473.21565886 0 57.87249029 0 476.03144187 0 -4340.57727977 0 1920
0.04350000 0.04349210 41319.17080253 0 1401.83279331 0 3045.75548142 0 -1153.54929997 0 -98.22170534 0 2005
0.04450000 0.04448520 39407.69814572 0 956.12525492 0 1373.00052419 0 -6428.94405713 0 -4263.91604179 0 2151
0.04550000 0.04548030 39600.92493179 0 566.68166969 0 2551.94245416 0 -2949.38938270 0 -2138.88226174 0 2274
0.04650000 0.04648670 39812.36157204 0 -676.59050441 0 4569.95399859 0 -2602.90756457 0 -3553.04604891 0 2311
0.04750000 0.04749250 39848.44406089 0 -945.31736924 0 3163.22028156 0 1408.25120488 0 -5185.55947652 0 2568
0.04850000 0.04851840 41937.63140575 0 -209.00416343 0 5105.52604332 0 1411.44354969 0 -3025.66843856 0 2493
0.04950000 0.04949480 40074.49354709 0 908.71668639 0 2279.49156174 0 1124.64958694 0 -4784.08839501 0 2644
0.05050000 0.05050630 40342.24584750 0 460.54070110 0 5545.20409666 0 1906.67289894 0 1055.69718722 0 2829
0.05150000 0.05149060 39532.01974281 0 197.71517790 0 3873.48327930 0 -841.71903584 0 -1049.58114916 0 2784
0.05250000 0.05249300 39992.54920326 0 393.52281738 0 5166.09066946 0 14.43546848 0 3803.04936182 0 3055
0.05350000 0.05348950 39005.84488209 0 414.60578189 0 4933.94875056 0 1113.43928596 0 1723.10183186 0 3009
0.05450000 0.05448610 39143.20563402 0 1827.80849341 0 6352.36150370 0 -1052.42053753 0 5309.03802480 0 3336
0.05550000 0.05550870 36971.62431930 0 1908.93226974 0 7673.05928004 0 -51.79635654 0 4080.26629014 0 3349
0.05650000 0.05647670 36195.90701236 0 1637.29070417 0 8261.02399782 0 -89.99770805 0 1985.18884430 0 3324
0.05750000 0.05747970 35126.13428229 0 700.35211599 0 7482.36164039 0 320.30571477 0 5089.20461846 0 3639
0.05850000 0.05849280 34408.75595264 0 115.91808660 0 8053.57778858 0 -555.94347605 0 -1014.34732944 0 3846
0.05950000 0.05951020 35077.01263859 0 333.99682737 0 10132.36753152 0 -1685.05222913 0 4612.82584048 0 3787
0.06050000 0.06049470 34684.93874110 0 1043.01323694 0 11665.77214164 0 -2737.77289204 0 -566.17022008 0 3930
0.06150000 0.06148310 34043.32239737 0 1780.13689366 0 13253.62646390 0 -1691.06597727 0 3159.67947658 0 4083
0.06250000 0.06249100 33237.70495948 0 1350.95760810 0 15214.89520344 0 -187.60758477 0 797.26338627 0 4303
0.06350000 0.06350600 31907.26153896 0 669.28408143 0 14376.23025240 0 1957.36823374 0 2454.96936030 0 4470
0.06450000 0.06451750 32097.00372330 0 528.90858698 0 14035.75094176 0 3327.96325867 0 2250.96279018 0 4479
0.06550000 0.06550280 31524.51738157 0 358.75436060 0 11772.44591707 0 4271.42479648 0 828.83162978 0 4636
0.06650000 0.06648880 30177.32539146 0 341.22793798 0 8434.05133453 0 1919.54344403 0 1402.73204537 0 4653
0.06750000 0.06749660 29976.56736941 0 598.43650801 0 7792.50243470 0 1011.94632645 0 -914.16390574 0 5220
0.06850000 0.06852730 29389.69299474 0 335.65032709 0 6387.67962830 0 271.70338914 0 -113.49347824 0 5029
0.06950000 0.06949320 28517.64331103 0 807.44966396 0 8663.02338992 0 -1732.17303700 0 -454.11217295 0 5040
0.07050000 0.07048030 29018.41430110 0 454.34148222 0 8771.25961580 0 -1675.18293779 0 1188.21546682 0 5475
0.07150000 0.07148790 28450.19940665 0 551.78331121 0 10769.45389300 0 -479.21704229 0 1183.21337725 0 5509
0.07250000 0.07249820 28676.81092538 0 256.75444774 0 12324.92390050 0 381.42562906 0 4100.01611348 0 5916
0.07350000 0.07351270 28568.90067837 0 189.14418172 0 14656.79689465 0 1527.79552540 0 5193.07947186 0 5721
0.07450000 0.07449140 29027.29441517 0 64.40016098 0 15181.73528378 0 2169.07464961 0 7118.47929492 0 6028
0.07550000 0.07549160 28550.46601117 0 179.80882129 0 14340.26017006 0 1919.44227817 0 6775.68441023 0 6183
0.07650000 0.07648840 28368.59228234 0 481.25160007 0 13863.65657907 0 1834.40675539 0 7843.16404755 0 6330
0.07750000 0.07749960 27424.49002744 0 757.31523763 0 12143.05017168 0 490.92418003 0 6174.97279451 0 6583
0.07850000 0.07848650 26350.10863057 0 1092.55303284 0 11367.67008425 0 275.59265430 0 5449.15273616 0 6549
0.07950000 0.07947320 25722.65550677 0 747.77529736 0 11163.32629461 0 145.58328794 0 4931.64441716 0 6828
0.08050000 0.08048110 24923.33283329 0 239.84064058 0 9764.43855179 0 444.55537169 0 2965.41855064 0 7147
0.08150000 0.08149960 25089.35724459 0 120.56609568 0 8684.36938565 0 766.66296278 0 3020.12679775 0 7386
0.08250000 0.08250610 24654.00684178 0 -28.78539561 0 8566.06153671 0 429.20513906 0 538.37546302 0 7227
0.08350000 0.08350160 25001.79257539 0 431.98270385 0 8286.70888474 0 -162.35209070 0 852.94956999 0 7798
0.08450000 0.08449610 24321.95801918 0 603.00470846 0 8103.75605345 0 -554.02582103 0 283.24079305 0 7371
0.08550000 0.08548940 23870.19626630 0 344.96882654 0 7457.25002665 0 -683.39222217 0 -1674.63214590 0 8256
0.08650000 0.08650700 22949.81178445 0 719.68491118 0 7612.47217260 0 370.38281378 0 -2281.63852603 0 8037
0.08750000 0.08749060 22645.75218218 0 519.11348393 0 7444.88531085 0 188.24380560 0 -4513.27863760 0 8155
0.08850000 0.08849210 21620.60483551 0 746.02512804 0 7070.80769517 0 88.08083988 0 -4344.39910102 0 8718
0.08950000 0.08949900 21142.98958595 0 1072.02760461 0 7493.18638704 0 -224.16892533 0 -4913.06362150 0 8571
0.09050000 0.09049190 19856.60951630 0 984.48204452 0 7291.98997961 0 -612.37491491 0 -4753.88476650 0 8932
0.09150000 0.09150830 19422.72039808 0 847.34048527 0 7834.12656436 0 -626.34591971 0 -4223.30357070 0 9285
0.09250000 0.09250820 19029.52243551 0 614.49490164 0 8808.03902500 0 -280.96905754 0 -3684.95508524 0 9204
0.09350000 0.09350330 18769.07655807 0 218.96337998 0 9318.84791616 0 537.35930820 0 -2126.54002724 0 9349
0.09450000 0.09448040 18668.36032752 0 106.86947517 0 8473.39361208 0 949.06275406 0 -3023.86993445 0 9564
0.09550000 0.09549270 18473.89706988 0 153.81594054 0 7840.37636617 0 817.67753206 0 -2175.52678313 0 10155
0.09650000 0.09649430 18520.65817692 0 125.71993404 0 7642.03508402 0 724.47118026 0 -2159.11543306 0 9913
0.09750000 0.09749140 18190.18304543 0 155.81902450 0 6184.02151835 0 1045.38276611 0 -1951.97272139 0 10476
0.09850000 0.09850240 18008.87134914 0 40.92024011 0 5589.57094510 0 985.80506911 0 -3022.34120595 0 10575
0.09950000 0.09950330 17960.64895750 0 -12.60391685 0 5210.33387073 0 1119.23159328 0 -1432.98063649 0 10882
0.10050000 0.10051200 17764.83682177 0 -123.98887382 0 4223.56210566 0 1850.15490707 0 -2365.10035770 0 10875
0.10150000 0.10150300 17939.96616015 0 103.37678017 0 3877.85589243 0 1397.76367775 0 -1469.23173510 0 11118
0.10250000 0.10250800 17302.84607672 0 248.54202831 0 3471.02302052 0 454.53482141 0 -1393.60463698 0 11575
0.10350000 0.10349800 17469.76974008 0 516.35615230 0 3777.36447490 0 -181.08126295 0 -892.10862494 0 11364
0.10450000 0.10450100 16942.80803381 0 340.78168415 0 4038.54099463 0 -816.41633105 0 -580.10075853 0 12093
0.10550000 0.10551000 16912.68308985 0 415.15994597 0 4608.26213628 0 -630.93547740 0 78.05507868 0 12067
0.10650000 0.10649700 16472.94883325 0 314.00870224 0 5482.72855990 0 -365.59204844 0 510.45481067 0 12054
0.10750000 0.10749900 16416.07114055 0 403.72145978 0 5581.53387982 0 -80.21957838 0 -83.00478682 0 12807
0.10850000 0.10850100 15860.22096191 0 399.29713966 0 5154.99614718 0 420.38572449 0 175.65090458 0 12736
0.10950000 0.10950300 15757.36900772 0 228.89337084 0 5606.75790006 0 909.98125960 0 464.00057339 0 12933
0.11050000 0.11050200 15553.12638394 0 75.16926641 0 4270.03095578 0 645.19986318 0 654.21374100 0 13428
0.11150000 0.11150900 15330.33668645 0 187.57835907 0 5012.43097396 0 620.61206377 0 725.97630340 0 13453
0.11250000 0.11250000 14971.64752162 0 265.26811660 0 4157.08489724 0 -331.06301752 0 133.73564207 0 13668
0.11350000 0.11349100 14967.03885482 0 312.35407845 0 4882.20803525 0 -576.03613923 0 1006.10793246 0 13791
0.11450000 0.11448600 14873.85386026 0 326.13061998 0 5355.90029770 0 -698.19053885 0 921.52428384 0 14205
0.11550000 0.11549300 14721.31822984 0 137.75642284 0 5641.68260188 0 -282.99237467 0 946.54822050 0 14776
0.11650000 0.11649800 14838.67062347 0 10.88644659 0 6360.57841938 0 87.10841118 0 1199.45611755 0 14553
0.11750000 0.11747300 14824.28259054 0 34.15629094 0 6256.61364077 0 239.98002465 0 1675.27286299 0 14568
0.11850000 0.11849100 14828.77885083 0 -39.95309452 0 5883.94110644 0 1000.59888953 0 1592.99129964 0 16015
0.11950000 0.11950300 14754.81536902 0 145.48661835 0 5415.20597096 0 886.10836558 0 1075.53918389 0 15270
0.12050000 0.12050700 14604.07824272 0 127.16323359 0 4929.60985938 0 1112.23204007 0 1224.42160283 0 15999
0.12150000 0.12150000 14055.08486102 0 178.10249051 0 3138.59201581 0 699.11114815 0 115.75172497 0 15670
0.12250000 0.12250700 13911.76656420 0 163.38173431 0 3134.03955226 0 428.18336391 0 440.66161028 0 16887
0.12350000 0.12352200 13736.30000629 0 141.50180766 0 2343.94545303 0 293.96549792 0 -650.90786562 0 16407
0.12450000 0.12449800 13529.69684585 0 242.59684814 0 2250.09726008 0 -399.20721445 0 -822.39972943 0 16306
0.12550000 0.12549900 13522.16560986 0 322.14356117 0 2475.22501292 0 -762.21054103 0 -1201.20965907 0 17523
0.12650000 0.12650100 13119.41309417 0 269.30238615 0 3257.70919160 0 -1069.84354617 0 -741.13769310 0 17154
0.12750000 0.12750600 13280.49161914 0 264.87244569 0 3559.59934828 0 -497.67643892 0 -332.62321985 0 18007
0.12850000 0.12850300 13210.91199112 0 66.66076825 0 4376.23262389 0 66.98697193 0 -125.71880997 0 17496
0.12950000 0.12949900 13251.49074026 0 53.57608877 0 3962.88017456 0 590.99182503 0 75.78604092 0 18405
0.13050000 0.13049000 12916.29453546 0 127.58475799 0 3877.29385989 0 1118.56502270 0 136.95046818 0 18100
0.13150000 0.13148800 13026.90253865 0 237.34521612 0 3802.83578945 0 504.69959750 0 729.71381976 0 19059
0.13250000 0.13249300 12437.10559480 0 256.68025944 0 3100.66606024 0 592.98029614 0 -36.51188170 0 18957
0.13350000 0.13349100 12506.23559679 0 212.74842419 0 3094.23640802 0 611.42845212 0 1046.11565654 0 19468
0.13450000 0.13450700 12028.95756676 0 84.23069219 0 2247.41074455 0 352.84065425 0 573.54858322 0 19953
0.13550000 0.13551000 12094.60296702 0 145.37308777 0 2649.34269274 0 495.70145659 0 1579.71609113 0 19956
0.13650000 0.13649900 11936.10979172 0 186.20025529 0 2434.02802799 0 400.80788311 0 1467.42199033 0 19723
0.13750000 0.13749600 11889.79831071 0 193.61121632 0 2335.53744628 0 356.36122606 0 1489.72344138 0 20946
0.13850000 0.13851100 11576.97100086 0 147.99890378 0 2356.99584853 0 48.32501878 0 1966.96774946 0 20955
0.13950000 0.13949800 11539.42722742 0 127.57239328 0 2591.99289271 0 -190.79768144 0 1830.36012113 0 20506
0.14050000 0.14048300 11510.87597456 0 27.87658900 0 2492.27708008 0 -231.41689692 0 1792.56905337 0 21447
0.14150000 0.14148400 11547.74530896 0 68.38620814 0 2818.34587648 0 -334.97363991 0 1219.27338479 0 21771
0.14250000 0.14249400 11342.49102661 0 61.68014832 0 2801.85584186 0 -323.71275601 0 824.75801795 0 22470
0.14350000 0.14350900 11543.47386168 0 88.52282226 0 2742.13426452 0 -65.51186134 0 751.11714282 0 22519
0.14450000 0.14449900 11265.49256911 0 130.17460392 0 2716.70791257 0 360.75070017 0 819.11408722 0 22218
0.14550000 0.14550500 11242.67404812 0 157.61977675 0 2584.37173151 0 553.56607842 0 1161.35031157 0 23559
0.14650000 0.14650700 11196.95832160 0 -22.34854938 0 2348.08201250 0 510.60993165 0 701.69424969 0 23044
0.14750000 0.14750500 11232.38885270 0 98.38121017 0 2243.90366152 0 68.88405656 0 1502.88624338 0 23649
0.14850000 0.14849900 11189.50577017 0 204.78779534 0 2481.56473993 0 -209.97647972 0 1131.78740015 0 23640
0.14950000 0.14949500 10893.12353234 0 253.26984601 0 2725.21708517 0 -607.97195202 0 1396.95435090 0 24457
0.15050000 0.15050000 10817.67628463 0 230.98750407 0 2878.70817091 0 -473.20554228 0 895.26837186 0 24591
0.15150000 0.15149900 10450.50042851 0 207.15620045 0 2773.81041828 0 -346.94493294 0 455.11146680 0 25020
0.15250000 0.15250500 10517.15748734 0 176.60298770 0 2921.91723232 0 168.96608959 0 148.99594950 0 25297
0.15350000 0.15350100 10220.32562349 0 194.79036058 0 2773.51816136 0 136.79871940 0 -246.41754532 0 25452
0.15450000 0.15450400 10135.18893485 0 191.65084683 0 2767.14471240 0 311.08051272 0 -48.11470620 0 26061
0.15550000 0.15549900 9912.45544062 0 158.36728002 0 2713.87526859 0 -58.56941063 0 8.92558251 0 26128
0.15650000 0.15649500 9934.05997132 0 207.84750047 0 2700.42020966 0 9.85860148 0 425.46425049 0 26331
0.15750000 0.15749700 9712.42806086 0 86.57459268 0 3220.55884094 0 29.17016309 0 343.69975708 0 27345
0.15850000 0.15849900 9800.79081626 0 78.68410549 0 3156.43092852 0 9.49900183 0 736.43572890 0 26980
0.15950000 0.15949700 9800.71213170 0 -10.16766317 0 3570.13183802 0 218.18215475 0 494.73476062 0 27777
0.16050000 0.16050000 9724.25322543 0 10.11326967 0 3019.50856196 0 87.95404534 0 722.97729778 0 28224
0.16150000 0.16150500 9822.54147542 0 23.60278119 0 3135.92798158 0 346.82465798 0 817.91021353 0 28075
0.16250000 0.16249700 9666.24022701 0 112.30556627 0 2634.87597525 0 262.69850384 0 290.33476773 0 28590
0.16350000 0.16349900 9595.76134692 0 107.86371072 0 2570.43332461 0 267.88044383 0 638.55214234 0 29163
0.16450000 0.16449100 9407.31183742 0 213.54089007 0 2287.33753595 0 1.68365839 0 100.98443248 0 28996
0.16550000 0.16550500 9238.31989433 0 261.48114137 0 2187.70040787 0 -14.58339545 0 -0.04696501 0 30777
0.16650000 0.16650700 8989.45188714 0 149.34778187 0 2176.59464495 0 -91.63524604 0 -148.55306787 0 29211
0.16750000 0.16749900 8921.51339413 0 106.98480424 0 2226.01978621 0 -39.81831912 0 107.54312736 0 30922
0.16850000 0.16850800 8868.78350155 0 85.46176826 0 2166.81527881 0 -81.06521254 0 -242.63956261 0 30867
0.16950000 0.16949900 8774.19342564 0 181.41286215 0 2416.13291202 0 -71.96545614 0 -181.85012346 0 30852
0.17050000 0.17049200 8645.67906584 0 244.55272137 0 2510.26212124 0 -296.86783394 0 -364.80070663 0 31257
0.17150000 0.17149500 8491.98564839 0 195.68961264 0 2761.55810899 0 -51.04772920 0 99.12264350 0 32608
0.17250000 0.17250900 8382.76024524 0 179.79196031 0 2978.92981282 0 -18.95567136 0 -15.25997021 0 32361
0.17350000 0.17350400 8328.78264043 0 10.51876490 0 2934.84398066 0 291.67352923 0 215.24384865 0 32508
0.17450000 0.17449800 8368.42841556 0 -5.33285696 0 2905.12370012 0 460.34174158 0 386.83238206 0 32791
0.17550000 0.17549800 8405.30899061 0 -2.39930566 0 2455.10424811 0 581.49347516 0 498.93089554 0 33633
0.17650000 0.17650100 8235.96858734 0 38.13716739 0 2202.48186358 0 573.56994046 0 926.70397569 0 33984
0.17750000 0.17750300 8203.35945957 0 71.02854790 0 1969.71046824 0 501.55109123 0 643.51488963 0 34069
