### header ###
fiducial parameters:
Omega_m = 0.31
Omega_nu = 0
Omega_de = 0.69
Omega_k = 0
H_0 = 100
w_de = -1
zeff = 0
beta = 0
fgrowth = 0
b_1 = 2
gamma = 0.55
Lx = 3500 Ly = 3500 Lz = 3500
nx = 700 ny = 700 nz = 700
xoffset = 857.220397 yoffset = 15.9954215 zoffset = 262.898189
bins = 400 dk = 0.001
kx_ny = 0.628318531 ky_ny = 0.628318531 kz_ny = 0.628318531
############################
A(data) = 3.05579782 (not used)
A(ran) = 3.05810155 (used)
Ngal = 186753
weighted Ngal = 0
Nran = 9360983
weighted Nran = 0
SN(data) = 3437.48799
SN(ran) = 68.673468
SN(data+ran) = 3506.16146
############################
13 columns: k_central k_mean P_0(k) sigma^{lin}_{P_0(k)} P^img_1(k) sigma^{lin}_{P_1(k)} P_2(k) sigma^{lin}_{P_2(k)} P^img_3(k) sigma^{lin}_{P_3(k)} P_4(k) sigma^{lin}_{P_4(k)} N_modes
### header ###
0.00050000 0 0 0 0 0 0 0 0 0 0 0 0
0.00150000 0.00179520 39510.66250642 0 -56737.74659721 0 -40027.17040751 0 95526.98413972 0 15252.77619640 0 3
0.00250000 0.00253879 69898.30047306 0 -59149.42821155 0 -13740.00942103 0 -61261.20926438 0 8579.42667043 0 6
0.00350000 0.00331552 96157.13501970 0 -37980.24790939 0 -43992.08513985 0 -20541.50236534 0 7367.30233950 0 7
0.00450000 0.00420575 117632.28583475 0 -15745.11669842 0 -30846.70614249 0 -55495.20506541 0 11805.49343022 0 24
0.00550000 0.00557378 109523.95483646 0 17852.96352350 0 -26418.00216099 0 -52890.29666501 0 41202.38044143 0 45
0.00650000 0.00659388 99909.60145322 0 24974.70260713 0 1315.47087375 0 -2203.84198232 0 24566.32976607 0 40
0.00750000 0.00754703 69077.17093716 0 22612.81707553 0 3250.85239466 0 -9358.11150917 0 12947.20632497 0 57
0.00850000 0.00846663 62331.20680746 0 13608.60621398 0 21948.26980432 0 17511.13533477 0 22456.00999784 0 75
0.00950000 0.00948925 45097.94035877 0 7046.06702291 0 21386.23726777 0 20443.59629747 0 17762.81350463 0 112
0.01050000 0.01054430 44478.13087746 0 -4341.53273508 0 11395.77171108 0 26720.82529168 0 20881.75686296 0 105
0.01150000 0.01145670 46867.10637732 0 -10933.44374651 0 398.87673932 0 26307.95619033 0 14637.01334936 0 144
0.01250000 0.01249090 55745.30954418 0 -11524.36475544 0 -16757.44970325 0 11847.08383793 0 2500.05561038 0 169
0.01350000 0.01339930 59833.53421504 0 -6477.82964716 0 -23364.92901595 0 -7678.62340215 0 -5047.29947253 0 180
0.01450000 0.01448870 65037.39347095 0 107.55313154 0 -28915.22512739 0 -26981.38357563 0 -12666.97690225 0 267
0.01550000 0.01550050 62817.02773206 0 -3570.82875836 0 -11495.02665703 0 -33287.27622921 0 -40575.15213064 0 238
0.01650000 0.01653350 70284.52923218 0 2438.31071592 0 -3346.22931611 0 -39420.84970708 0 -14668.14995188 0 315
0.01750000 0.01747870 72171.49727039 0 -1145.62464120 0 14821.92205388 0 -23836.02468808 0 -32600.24765653 0 297
0.01850000 0.01844180 71829.33186214 0 122.37246825 0 31848.81015516 0 -15930.36262247 0 -14411.52589570 0 388
0.01950000 0.01947590 84566.78764447 0 2886.75647683 0 53277.53708269 0 -3940.69113002 0 -17146.71343807 0 399
0.02050000 0.02045430 78435.23748372 0 4287.11674490 0 54722.52273416 0 7645.29487273 0 -18284.15488554 0 462
0.02150000 0.02154770 75176.79764982 0 7404.14919260 0 59792.50583987 0 15290.99440889 0 -8364.64031626 0 571
0.02250000 0.02255340 65396.64466831 0 4939.31054096 0 47636.52891985 0 16596.25877177 0 -4422.56658620 0 510
0.02350000 0.02348930 67554.51238914 0 2642.30604538 0 50356.76639675 0 22328.20379903 0 7916.19455535 0 555
0.02450000 0.02439640 59950.99901518 0 -300.12200232 0 31562.17356152 0 23390.78251263 0 -1754.29463763 0 592
0.02550000 0.02547300 62641.11154812 0 -2502.78708851 0 24791.81721974 0 14610.59782014 0 5418.26342796 0 837
0.02650000 0.02652900 63442.12031921 0 -2959.13502689 0 15712.51881130 0 11114.63179565 0 5744.03996744 0 723
0.02750000 0.02749970 64962.75555010 0 -268.47957051 0 23333.34278739 0 -789.45900246 0 12185.20261192 0 826
0.02850000 0.02848090 63077.13638997 0 909.12022576 0 13573.76019672 0 864.59151195 0 8142.64870497 0 831
0.02950000 0.02946900 64379.47818366 0 1592.12576954 0 25710.74041700 0 -1464.01607316 0 19198.35700949 0 996
0.03050000 0.03053250 63135.92499329 0 1790.92791837 0 21936.24230804 0 1222.00486292 0 9724.84897992 0 1041
0.03150000 0.03150510 62992.49428997 0 1507.36002238 0 22788.17122694 0 269.20234436 0 1912.65292513 0 1036
0.03250000 0.03246190 58296.48763408 0 840.78830996 0 16811.96685930 0 4677.81928300 0 -6928.29872520 0 1059
0.03350000 0.03345080 58131.13766183 0 1579.06413339 0 9834.33291804 0 -1241.24885697 0 -13267.22765128 0 1302
0.03450000 0.03451200 56047.68304884 0 1695.60720017 0 5596.70875831 0 257.20632190 0 -15721.96095792 0 1339
0.03550000 0.03553350 55276.68681520 0 0.72876961 0 4241.74947855 0 4212.27649233 0 -19383.60293354 0 1365
0.03650000 0.03647120 53334.18996238 0 2550.85211103 0 3318.52111206 0 948.75925649 0 -11828.98639025 0 1308
0.03750000 0.03744890 52606.69504707 0 2435.77032885 0 2153.56255160 0 904.49020172 0 -9496.45019771 0 1579
0.03850000 0.03847530 50221.42896195 0 3743.19289667 0 8512.70216769 0 -1736.54565013 0 107.52862693 0 1662
0.03950000 0.03950240 47766.92046833 0 4023.06261857 0 14786.62641059 0 -891.13068833 0 8427.39686929 0 1683
0.04050000 0.04050350 45376.25887087 0 2692.94517693 0 16501.61249262 0 -30.59738851 0 11034.78945350 0 1822
0.04150000 0.04152450 44578.73470150 0 1968.93486334 0 19320.76769595 0 3291.81332592 0 10928.57654475 0 1887
0.04250000 0.04250150 43096.20527659 0 1213.55189357 0 17802.26818870 0 2775.58644110 0 11348.11135198 0 1920
0.04350000 0.04349210 41714.05486271 0 1054.66079923 0 15877.98119006 0 5579.11713992 0 7966.08056329 0 2005
0.04450000 0.04448520 39328.56396458 0 347.38669052 0 10963.64737503 0 7064.91759419 0 6458.93411328 0 2151
0.04550000 0.04548030 40069.54766076 0 -253.60481740 0 7492.55691060 0 6150.62554503 0 4540.48101237 0 2274
0.04650000 0.04648670 39522.46518969 0 372.35442392 0 5796.24154944 0 3596.06401926 0 5434.16894874 0 2311
0.04750000 0.04749250 38982.46432857 0 1337.62619634 0 7570.47710147 0 -1247.41997422 0 4748.99508343 0 2568
0.04850000 0.04851840 38691.21906813 0 1487.81253075 0 7335.77231420 0 -4190.35722340 0 7739.09810308 0 2493
0.04950000 0.04949480 37808.04114020 0 1740.42367463 0 12786.91464555 0 -5459.39296898 0 6872.60130083 0 2644
0.05050000 0.05050630 36861.24112912 0 987.98125909 0 15577.40618951 0 -2412.01883386 0 8226.48147813 0 2829
0.05150000 0.05149060 37041.65357336 0 244.57295454 0 15668.00583441 0 1542.63318437 0 4384.17976396 0 2784
0.05250000 0.05249300 37596.60449995 0 -108.69529406 0 16303.43982023 0 2806.36334280 0 6114.67794399 0 3055
0.05350000 0.05348950 37584.35219065 0 -208.71865090 0 16039.05971504 0 3889.87214806 0 3243.78202535 0 3009
0.05450000 0.05448610 36963.53105078 0 360.06277235 0 14507.97067897 0 2271.49945907 0 1884.21407878 0 3336
0.05550000 0.05550870 36916.54513072 0 738.47028668 0 18730.63353257 0 289.62323454 0 4243.28944770 0 3349
0.05650000 0.05647670 36626.42393535 0 1373.88853560 0 14861.82636398 0 -2286.39332129 0 2410.83856553 0 3324
0.05750000 0.05747970 35689.29088391 0 1138.13836781 0 19760.83917207 0 -2135.02671854 0 3366.59737523 0 3639
0.05850000 0.05849280 35469.19894260 0 616.54856853 0 18112.73496189 0 173.30385671 0 2627.07496364 0 3846
0.05950000 0.05951020 35222.91628508 0 -155.36602627 0 19852.00084950 0 2574.25514586 0 5020.04089451 0 3787
0.06050000 0.06049470 35418.39120129 0 -667.87337977 0 16165.85425528 0 3785.23293041 0 1342.83061763 0 3930
0.06150000 0.06148310 35859.92396201 0 -211.32648187 0 15593.36791355 0 4142.84299276 0 3261.33992179 0 4083
0.06250000 0.06249100 35299.57752307 0 34.29927201 0 12698.11350477 0 3306.39244992 0 2018.33752330 0 4303
0.06350000 0.06350600 34728.32765292 0 699.65407158 0 12794.89550757 0 -650.34470902 0 4119.72097421 0 4470
0.06450000 0.06451750 33751.62751090 0 887.89900124 0 11024.61666459 0 -49.32195209 0 1914.21537558 0 4479
0.06550000 0.06550280 33093.71222362 0 977.09131666 0 11007.62080069 0 -1824.07659737 0 1880.22364777 0 4636
0.06650000 0.06648880 32859.23224937 0 911.60553363 0 12771.73976706 0 -1470.72674164 0 158.05366586 0 4653
0.06750000 0.06749660 31831.83677256 0 522.42722776 0 10803.91772814 0 -243.75238704 0 -138.10263488 0 5220
0.06850000 0.06852730 30754.87002602 0 695.89519797 0 11848.43271602 0 1275.97122708 0 -1800.06656741 0 5029
0.06950000 0.06949320 30349.53216066 0 529.89551611 0 9676.77271674 0 2881.76562790 0 -2218.11760875 0 5040
0.07050000 0.07048030 29198.71433882 0 125.92563794 0 8647.94967729 0 3552.75379199 0 -2625.82725141 0 5475
0.07150000 0.07148790 28921.18267227 0 285.41473491 0 5478.32222481 0 2304.85046979 0 -3279.70714508 0 5509
0.07250000 0.07249820 28769.99591994 0 248.97704150 0 5595.44980543 0 1363.04130764 0 -3025.15136863 0 5916
0.07350000 0.07351270 27973.48340914 0 262.99300889 0 4893.14518841 0 -354.42671007 0 -1562.43921096 0 5721
0.07450000 0.07449140 27626.14730156 0 1196.05020038 0 5737.68899978 0 -2056.07238781 0 -2357.63656562 0 6028
0.07550000 0.07549160 27265.43481960 0 694.36646948 0 7474.94281090 0 -746.53320545 0 929.45681106 0 6183
0.07650000 0.07648840 27109.86421348 0 435.76855502 0 8747.47439886 0 8.93745264 0 1740.09769576 0 6330
0.07750000 0.07749960 27237.44559928 0 292.63572894 0 10281.24995045 0 1493.46657807 0 2999.35407520 0 6583
0.07850000 0.07848650 26860.77139328 0 687.48943936 0 9449.72281263 0 1519.45496256 0 2178.11213279 0 6549
0.07950000 0.07947320 26142.60621808 0 1017.58126466 0 10067.35160769 0 302.15880823 0 4714.02541901 0 6828
0.08050000 0.08048110 25380.37769201 0 1120.42422633 0 10161.87423969 0 33.21320034 0 3401.34222664 0 7147
0.08150000 0.08149960 24502.14565040 0 727.41735482 0 10595.97693027 0 -480.70530445 0 5189.65107339 0 7386
0.08250000 0.08250610 24035.43383205 0 394.13768097 0 9745.34068620 0 -164.82390980 0 3185.99383994 0 7227
0.08350000 0.08350160 23874.80493310 0 148.69919633 0 9877.12607537 0 582.81200349 0 4398.43290908 0 7798
0.08450000 0.08449610 23354.70002378 0 404.60609900 0 9121.55201453 0 1157.10134560 0 3983.58545321 0 7371
0.08550000 0.08548940 23032.99259986 0 338.96519499 0 9012.83244066 0 1584.09994492 0 2390.90889178 0 8256
0.08650000 0.08650700 22372.04233688 0 640.56983914 0 7687.52599753 0 445.65695547 0 1617.79941581 0 8037
0.08750000 0.08749060 22399.01989863 0 824.48262201 0 8080.67899749 0 60.43693235 0 1947.92608713 0 8155
0.08850000 0.08849210 21434.57206591 0 475.77178284 0 7890.70075949 0 522.45420533 0 2680.73783023 0 8718
0.08950000 0.08949900 21281.47440296 0 267.21162511 0 8442.53802583 0 -18.33754798 0 2819.78467977 0 8571
0.09050000 0.09049190 20957.63125540 0 30.39292107 0 7468.85037821 0 584.48910858 0 940.05449657 0 8932
0.09150000 0.09150830 21090.04612101 0 -118.90360343 0 6994.42747345 0 1253.15270609 0 1352.34020814 0 9285
0.09250000 0.09250820 20694.26280877 0 88.63590321 0 6258.04120342 0 1396.23494925 0 876.25031489 0 9204
0.09350000 0.09350330 20610.63236733 0 139.63361151 0 5377.79708532 0 918.93781010 0 918.23077317 0 9349
0.09450000 0.09448040 20114.24523105 0 482.40826303 0 5575.16043086 0 1465.03897237 0 1118.07155813 0 9564
0.09550000 0.09549270 19583.01207750 0 551.95529317 0 4197.80977484 0 612.81892062 0 1609.07667084 0 10155
0.09650000 0.09649430 19488.36579835 0 239.32806691 0 4060.39281965 0 537.02883306 0 1156.52807241 0 9913
0.09750000 0.09749140 19166.20874840 0 99.91578381 0 3865.15395710 0 656.20895650 0 1814.76933857 0 10476
0.09850000 0.09850240 19140.35525172 0 22.58617673 0 3896.41420679 0 107.87832357 0 1100.42373648 0 10575
0.09950000 0.09950330 18870.80444719 0 278.04311616 0 4422.38673579 0 -1016.24362722 0 1984.07601988 0 10882
0.10050000 0.10051200 19081.11702236 0 250.21238901 0 5069.44355447 0 -606.11274839 0 1823.37967703 0 10875
0.10150000 0.10150300 18788.41047733 0 362.89878852 0 5212.80681389 0 -1096.99196581 0 1743.27879992 0 11118
0.10250000 0.10250800 18570.67907267 0 495.39458682 0 6229.73724488 0 58.48634222 0 2582.15732332 0 11575
0.10350000 0.10349800 18380.82448182 0 393.75549885 0 6343.33526116 0 -23.38920882 0 2040.15562637 0 11364
0.10450000 0.10450100 17697.73013690 0 533.63528061 0 5736.19399323 0 814.36491229 0 1927.31073369 0 12093
0.10550000 0.10551000 17397.49235588 0 626.13122328 0 5828.35608857 0 279.99449312 0 1643.54050598 0 12067
0.10650000 0.10649700 16604.23963379 0 554.16408104 0 5152.54568533 0 670.90723140 0 1183.42694961 0 12054
0.10750000 0.10749900 16105.94158689 0 577.41311894 0 5230.82557702 0 102.77034706 0 1181.94318371 0 12807
0.10850000 0.10850100 15729.71700692 0 381.88087541 0 4685.57533201 0 -404.56450859 0 989.90790662 0 12736
0.10950000 0.10950300 15542.56017225 0 320.57211820 0 5074.10842452 0 -140.89930878 0 624.22705704 0 12933
0.11050000 0.11050200 15481.41103227 0 193.07391322 0 5413.56483595 0 -650.13450885 0 278.24319974 0 13428
0.11150000 0.11150900 15339.44161354 0 -8.40054295 0 5583.95061973 0 -397.07036675 0 237.86565825 0 13453
0.11250000 0.11250000 15317.74715763 0 1.56232680 0 5411.69888793 0 -23.62413842 0 -590.43766095 0 13668
0.11350000 0.11349100 15497.70997583 0 -32.46738316 0 5173.88044041 0 316.71657500 0 -483.25580810 0 13791
0.11450000 0.11448600 15464.66246268 0 -84.49484748 0 4720.53375578 0 718.34839781 0 -819.81213163 0 14205
0.11550000 0.11549300 15293.24253904 0 16.66078011 0 4248.43766573 0 842.12707146 0 -1524.89543752 0 14776
0.11650000 0.11649800 15143.17985178 0 202.70715089 0 3642.97125476 0 476.39676302 0 -1257.60400378 0 14553
0.11750000 0.11747300 14868.79556743 0 355.16409676 0 3674.45631745 0 507.83124279 0 -1365.55921340 0 14568
0.11850000 0.11849100 14641.17239013 0 383.57034522 0 4337.84580164 0 -159.60712379 0 163.99434977 0 16015
0.11950000 0.11950300 14466.71749079 0 215.72494850 0 4232.09375957 0 682.40754116 0 513.86072784 0 15270
0.12050000 0.12050700 14311.48410419 0 312.96556985 0 4748.47801350 0 -165.04535062 0 1142.87068177 0 15999
0.12150000 0.12150000 14051.71266580 0 228.63595993 0 4839.19006490 0 276.20976602 0 921.00271764 0 15670
0.12250000 0.12250700 13996.29625769 0 261.87456414 0 5106.38033277 0 -137.00667143 0 1797.06531367 0 16887
0.12350000 0.12352200 13828.36093577 0 116.72516532 0 4689.43087521 0 -221.93315990 0 1129.24701309 0 16407
0.12450000 0.12449800 13800.14690244 0 160.95487782 0 5146.17223636 0 -203.61989173 0 749.94024669 0 16306
0.12550000 0.12549900 13652.78197135 0 -24.57127565 0 4339.95904398 0 -92.08183710 0 -184.87385851 0 17523
0.12650000 0.12650100 13554.53868397 0 116.58240906 0 4331.39366813 0 -70.26317200 0 -493.99062954 0 17154
0.12750000 0.12750600 13427.29451769 0 253.93192034 0 3833.61269115 0 131.24021761 0 -957.80798033 0 18007
0.12850000 0.12850300 12990.14561076 0 248.29923026 0 3818.37036876 0 278.36797096 0 -1244.28383267 0 17496
0.12950000 0.12949900 12895.49933161 0 285.67439394 0 3472.33817666 0 -18.79965113 0 -1684.31034618 0 18405
0.13050000 0.13049000 12652.36405630 0 248.31721530 0 3530.09264012 0 111.38091034 0 -1264.73057635 0 18100
0.13150000 0.13148800 12413.50022826 0 186.19238684 0 3311.15848583 0 279.16830529 0 -1685.65922427 0 19059
0.13250000 0.13249300 12218.58734459 0 257.22205881 0 3466.31318787 0 -97.89617609 0 -1445.46899945 0 18957
0.13350000 0.13349100 12073.92016968 0 233.93030643 0 3431.44468930 0 151.44303917 0 -1066.43538087 0 19468
0.13450000 0.13450700 11919.69844165 0 197.50722586 0 3535.57807767 0 212.61128825 0 -584.89826827 0 19953
0.13550000 0.13551000 11783.01212876 0 187.49742639 0 3512.05139569 0 511.20568614 0 -512.58941024 0 19956
0.13650000 0.13649900 11897.89157923 0 -62.87795206 0 3515.31118440 0 470.23801049 0 100.36451059 0 19723
0.13750000 0.13749600 11830.44767485 0 -34.63997614 0 3394.28309798 0 522.02256434 0 -551.01332664 0 20946
0.13850000 0.13851100 12008.83680195 0 -110.47154169 0 3366.20395246 0 122.50960419 0 360.04478730 0 20955
0.13950000 0.13949800 11990.96416728 0 32.13072568 0 3243.78202535 0 47.73319852 0 -158.85962052 0 20506
0.14050000 0.14048300 12041.20987605 0 75.75389266 0 3360.21268562 0 145.62712648 0 625.90303807 0 21447
0.14150000 0.14148400 11826.28863408 0 213.63868373 0 2704.45560327 0 330.47737962 0 -228.58200481 0 21771
0.14250000 0.14249400 11613.95274177 0 281.23208877 0 3152.55290401 0 226.71268459 0 474.27340410 0 22470
0.14350000 0.14350900 11342.15380709 0 371.02353087 0 2787.49029022 0 125.28492085 0 -17.84026159 0 22519
0.14450000 0.14449900 11072.06345133 0 283.48134298 0 3142.99835089 0 -197.51734245 0 130.74787711 0 22218
0.14550000 0.14550500 10865.84247302 0 205.41165146 0 3263.99271536 0 -454.62811881 0 408.49873635 0 23559
0.14650000 0.14650700 10789.38356674 0 129.98463692 0 3293.46570158 0 -298.83157562 0 -154.55782349 0 23044
0.14750000 0.14750500 10815.49559839 0 67.45154803 0 3970.08543168 0 -375.61196450 0 312.00786641 0 23649
0.14850000 0.14849900 10795.34111163 0 45.28543441 0 3589.64560769 0 -151.74316454 0 -298.84056814 0 23640
0.14950000 0.14949500 10905.64561726 0 61.71465711 0 3760.54846140 0 236.95853773 0 207.50016436 0 24457
0.15050000 0.15050000 10835.29038433 0 -32.89497752 0 3390.18026047 0 457.40680768 0 -113.83294589 0 24591
0.15150000 0.15149900 10792.58715220 0 149.36464285 0 3420.88971826 0 350.65996801 0 383.28146050 0 25020
0.15250000 0.15250500 10796.51013931 0 131.32002623 0 3127.98084152 0 460.72729590 0 37.24376047 0 25297
0.15350000 0.15350100 10399.27678313 0 367.10728816 0 3055.45616300 0 -81.14490875 0 340.39275763 0 25452
0.15450000 0.15450400 10251.33857886 0 314.83376600 0 3264.99313328 0 -43.67835858 0 629.53264419 0 26061
0.15550000 0.15549900 10079.58143569 0 215.79464054 0 3382.15443584 0 69.39078509 0 617.96039426 0 26128
0.15650000 0.15649500 9808.43445875 0 105.55791604 0 3020.37409207 0 110.06575420 0 652.14883346 0 26331
0.15750000 0.15749700 9883.00493570 0 1.94933117 0 3258.54099976 0 256.81177506 0 398.01233328 0 27345
0.15850000 0.15849900 9715.71033087 0 -39.75199928 0 2741.48230678 0 512.31176617 0 410.48608339 0 26980
0.15950000 0.15949700 9794.59721770 0 96.73445484 0 2930.29151711 0 244.22337030 0 331.18554062 0 27777
0.16050000 0.16050000 9677.18862082 0 182.16148949 0 2624.30976356 0 116.04623002 0 334.77468040 0 28224
0.16150000 0.16150500 9453.92681600 0 314.93493186 0 2683.81776853 0 -77.94312179 0 42.51585048 0 28075
0.16250000 0.16249700 9262.61094056 0 281.16127267 0 2707.61422613 0 -132.91844676 0 115.66067570 0 28590
0.16350000 0.16349900 8956.56174310 0 161.38427067 0 3097.02408940 0 -96.48423796 0 330.93599817 0 29163
0.16450000 0.16449100 9026.46735000 0 102.77079669 0 2943.30819066 0 247.03128485 0 306.14361892 0 28996
0.16550000 0.16550500 8919.80481521 0 43.27616809 0 2934.16954161 0 265.11861595 0 388.91190245 0 30777
0.16650000 0.16650700 8849.73059856 0 70.62186116 0 2673.84731133 0 238.48839030 0 188.35508804 0 29211
0.16750000 0.16749900 8890.92758349 0 130.70965890 0 2909.17033439 0 232.00253483 0 735.97373816 0 30922
0.16850000 0.16850800 8743.51768980 0 167.76333996 0 2582.03367616 0 49.68401345 0 384.87426070 0 30867
0.16950000 0.16949900 8606.55036064 0 191.03373511 0 2510.19467734 0 211.32086155 0 827.13541558 0 30852
0.17050000 0.17049200 8419.98928046 0 127.10815440 0 2513.91533273 0 64.78391680 0 580.27611269 0 31257
0.17150000 0.17149500 8358.27810795 0 70.22068234 0 2103.80019081 0 256.49254057 0 587.96584185 0 32608
0.17250000 0.17250900 8287.74302461 0 74.90364984 0 2273.77007052 0 130.00374603 0 797.46234578 0 32361
0.17350000 0.17350400 8310.34797323 0 -26.40530023 0 2102.78853225 0 30.94528665 0 559.78890266 0 32508
0.17450000 0.17449800 8306.16645116 0 44.62392212 0 2127.40555735 0 -119.61288849 0 767.50039126 0 32791
0.17550000 0.17549800 8312.73099119 0 59.47619393 0 2446.13420882 0 -66.38211252 0 519.89470915 0 33633
0.17650000 0.17650100 8254.06603502 0 108.45654264 0 2615.00250476 0 -93.73376313 0 1117.08912526 0 33984
0.17750000 0.17750300 8107.44298689 0 165.83556836 0 2938.32858238 0 11.71680470 0 850.22708438 0 34069
0.17850000 0.17849800 8169.77239519 0 112.71337707 0 2622.73607246 0 300.71663275 0 1186.24835294 0 34536
