### header ###
fiducial parameters:
Omega_m = 0.31
Omega_nu = 0
Omega_de = 0.69
Omega_k = 0
H_0 = 100
w_de = -1
zeff = 0
beta = 0
fgrowth = 0
b_1 = 2
gamma = 0.55
Lx = 3500 Ly = 3500 Lz = 3500
nx = 700 ny = 700 nz = 700
xoffset = 857.220397 yoffset = 15.9954215 zoffset = 262.898189
bins = 400 dk = 0.001
kx_ny = 0.628318531 ky_ny = 0.628318531 kz_ny = 0.628318531
############################
A(data) = 3.08813467 (not used)
A(ran) = 3.08870941 (used)
Ngal = 188098
weighted Ngal = 0
Nran = 9360983
weighted Nran = 0
SN(data) = 3443.63252
SN(ran) = 69.3608055
SN(data+ran) = 3512.99332
############################
13 columns: k_central k_mean P_0(k) sigma^{lin}_{P_0(k)} P^img_1(k) sigma^{lin}_{P_1(k)} P_2(k) sigma^{lin}_{P_2(k)} P^img_3(k) sigma^{lin}_{P_3(k)} P_4(k) sigma^{lin}_{P_4(k)} N_modes
### header ###
0.00050000 0 0 0 0 0 0 0 0 0 0 0 0
0.00150000 0.00179520 21550.35076844 0 -29336.86193631 0 3831.03858214 0 44203.18456058 0 -25523.80839534 0 3
0.00250000 0.00253879 40441.16357393 0 -30462.16348099 0 6714.23177268 0 -33097.08441884 0 13428.53098927 0 6
0.00350000 0.00331552 48889.41185033 0 -12701.26088698 0 -1239.29298374 0 -9654.23521202 0 30360.54799838 0 7
0.00450000 0.00420575 53813.71612256 0 5110.64053940 0 6311.44553504 0 -27480.80568761 0 6303.10497220 0 24
0.00550000 0.00557378 39933.64819343 0 10677.32551961 0 10443.35137464 0 -14991.99309944 0 24733.47824244 0 45
0.00650000 0.00659388 40442.51245202 0 4654.44997013 0 2485.62261484 0 7368.30275742 0 -23813.65579313 0 40
0.00750000 0.00754703 37309.63068678 0 -9267.90528705 0 1061.20510608 0 4738.13661483 0 -10597.24712380 0 57
0.00850000 0.00846663 50324.73054217 0 -11169.64354032 0 -4094.99154260 0 6127.15506631 0 -18604.17621185 0 75
0.00950000 0.00948925 53947.59227277 0 -6741.25429704 0 -15754.78365805 0 -4799.37568001 0 -8322.07197194 0 112
0.01050000 0.01054430 57567.30662116 0 -458.24536022 0 -14956.36023663 0 -3162.95050594 0 -2237.10306783 0 105
0.01150000 0.01145670 59061.41391632 0 2238.85660935 0 -23953.26467521 0 -6289.22276854 0 2754.24044536 0 144
0.01250000 0.01249090 50926.77979532 0 5519.23819347 0 -14614.75686091 0 -5655.82334050 0 -1043.62472834 0 169
0.01350000 0.01339930 52200.34552314 0 399.58377625 0 -13258.90956974 0 -6345.17872788 0 -838.01861362 0 180
0.01450000 0.01448870 50596.41707034 0 -2751.70005830 0 -9581.60936765 0 -4547.41649387 0 4114.39290576 0 267
0.01550000 0.01550050 56358.82426107 0 -7381.20702446 0 -10809.23455594 0 -6315.36852214 0 -17708.40875510 0 238
0.01650000 0.01653350 61348.43671405 0 -7036.83844866 0 -1140.15044430 0 -4736.79897739 0 -1885.38310646 0 315
0.01750000 0.01747870 71040.23818082 0 -2602.32305073 0 804.65074193 0 -7039.89590566 0 -17666.48112787 0 297
0.01850000 0.01844180 68767.60341603 0 767.09010751 0 18892.94852913 0 -7130.36066274 0 2563.95870979 0 388
0.01950000 0.01947590 68966.67534047 0 5835.19040422 0 14367.79976435 0 -6219.27219905 0 -2960.92229035 0 399
0.02050000 0.02045430 65397.88113989 0 5770.68030967 0 22879.55771738 0 6.66382869 0 9602.69682842 0 462
0.02150000 0.02154770 61149.36478961 0 4263.27532470 0 31616.01627852 0 5583.07384897 0 20033.53735880 0 571
0.02250000 0.02255340 60050.36636764 0 2323.04908332 0 26625.95419951 0 5561.36815241 0 6900.87153742 0 510
0.02350000 0.02348930 61106.08828429 0 -1527.34589937 0 23348.51766588 0 10197.75439682 0 12468.91663637 0 555
0.02450000 0.02439640 61851.00620823 0 -1881.10041853 0 25572.03078698 0 -1442.23169204 0 -3147.58453639 0 592
0.02550000 0.02547300 67505.05352592 0 -3990.85815423 0 18948.58975025 0 2669.31732909 0 456.17595642 0 837
0.02650000 0.02652900 66937.62547702 0 -2033.73721481 0 20537.00610504 0 -4187.53582007 0 -13649.29736963 0 723
0.02750000 0.02749970 68964.65202334 0 -1305.36552874 0 8457.98267993 0 8466.93023791 0 -1446.93028405 0 826
0.02850000 0.02848090 66336.02584990 0 1786.09443855 0 14091.61697589 0 8525.06688349 0 -9145.53956319 0 831
0.02950000 0.02946900 67616.56078117 0 1766.60315018 0 15692.39804649 0 8609.92255586 0 383.82438393 0 996
0.03050000 0.03053250 63064.09723512 0 4903.25053341 0 14767.74211736 0 3149.74274133 0 11435.78842768 0 1041
0.03150000 0.03150510 59364.79907955 0 3099.23849760 0 23346.26953573 0 3385.21189284 0 18234.02158328 0 1036
0.03250000 0.03246190 59249.80722258 0 1558.34761409 0 20689.65414197 0 -6432.72091578 0 31967.39902037 0 1059
0.03350000 0.03345080 57410.94916949 0 464.93804367 0 26505.11720416 0 3316.35166647 0 25837.75977026 0 1302
0.03450000 0.03451200 58226.12116050 0 163.51212586 0 22848.19630184 0 254.82105581 0 25654.87438286 0 1339
0.03550000 0.03553350 58408.21970235 0 67.75841779 0 20686.84397929 0 4841.88782107 0 17926.36497277 0 1365
0.03650000 0.03647120 59012.51708564 0 -519.84974655 0 18097.56008340 0 5767.74649983 0 19815.01910859 0 1308
0.03750000 0.03744890 59078.49970544 0 1382.15041388 0 10270.32403794 0 9826.54314708 0 14102.52040710 0 1579
0.03850000 0.03847530 54395.75701741 0 2419.97721457 0 2439.09756147 0 7168.89361345 0 7859.85641388 0 1662
0.03950000 0.03950240 52635.02148691 0 2955.65042516 0 5285.37645501 0 2560.01324138 0 8029.09565129 0 1683
0.04050000 0.04050350 48780.15272522 0 3247.33407098 0 808.46132253 0 -3856.30756498 0 3782.18671406 0 1822
0.04150000 0.04152450 49473.70087533 0 2012.13268410 0 12227.69227168 0 -889.24450713 0 13585.11325395 0 1887
0.04250000 0.04250150 45798.23289931 0 1776.86586430 0 8113.73775129 0 -4773.48846137 0 8432.07298000 0 1920
0.04350000 0.04349210 45958.86179825 0 2825.64105880 0 11337.99476632 0 -423.24084978 0 10878.99403437 0 2005
0.04450000 0.04448520 43381.38058564 0 2097.40426055 0 13564.99248915 0 293.61591368 0 10237.14163698 0 2151
0.04550000 0.04548030 42191.78251878 0 2181.00098003 0 12730.59898538 0 4054.22170240 0 10814.03431380 0 2274
0.04650000 0.04648670 39324.40492381 0 1224.96115406 0 11665.09770259 0 3177.02380066 0 10301.07845834 0 2311
0.04750000 0.04749250 38555.99403984 0 1337.05292315 0 9533.36449471 0 4027.64880407 0 9391.61988900 0 2568
0.04850000 0.04851840 36590.56625952 0 1605.72695692 0 10874.44157083 0 1605.07499918 0 12444.52442428 0 2493
0.04950000 0.04949480 36179.72047530 0 1487.47531123 0 9778.39944000 0 55.31749038 0 9644.15234832 0 2644
0.05050000 0.05050630 35096.23415134 0 1621.85729072 0 16114.03485541 0 -296.26870725 0 17768.65864301 0 2829
0.05150000 0.05149060 33653.83384954 0 1035.18187557 0 13721.79956684 0 -696.95069508 0 10347.58103041 0 2784
0.05250000 0.05249300 34893.34040565 0 202.04957282 0 21396.24144692 0 211.07356723 0 20612.88049748 0 3055
0.05350000 0.05348950 35944.56606201 0 -717.96284349 0 18561.01211304 0 1777.50658139 0 15418.91301421 0 3009
0.05450000 0.05448610 36266.83551847 0 -233.00744900 0 20910.42052233 0 1379.08171623 0 20794.52941329 0 3336
0.05550000 0.05550870 37392.02465664 0 -279.60331848 0 23508.13490626 0 1424.25789152 0 17039.47763009 0 3349
0.05650000 0.05647670 36440.72838528 0 415.96927282 0 20417.29317476 0 1239.07941138 0 17500.56912308 0 3324
0.05750000 0.05747970 37429.11880405 0 453.05105552 0 21765.15960391 0 2717.00016949 0 16531.96224959 0 3639
0.05850000 0.05849280 35783.82475656 0 -51.10325801 0 19534.11524682 0 1287.29056236 0 12363.47933251 0 3846
0.05950000 0.05951020 37439.90982876 0 -164.98240297 0 18808.98086817 0 2586.85591533 0 12267.59658177 0 3787
0.06050000 0.06049470 36116.32320518 0 498.02152690 0 17116.70090062 0 690.40301603 0 6893.62131770 0 3930
0.06150000 0.06148310 35622.85863809 0 742.79344095 0 15815.14595248 0 -358.65094661 0 5407.93326993 0 4083
0.06250000 0.06249100 34867.37450246 0 891.03289466 0 17082.30450938 0 -1552.13153424 0 1992.82124615 0 4303
0.06350000 0.06350600 34073.89696736 0 516.99574533 0 13779.91373112 0 -507.70085124 0 851.84798622 0 4470
0.06450000 0.06451750 33674.74145990 0 626.89895972 0 15596.62770226 0 -164.92957192 0 -1651.11670457 0 4479
0.06550000 0.06550280 32709.28196862 0 19.05863572 0 12616.28156745 0 178.66789524 0 -2567.00492613 0 4636
0.06650000 0.06648880 32524.71048362 0 454.87204094 0 11932.51278348 0 942.48247713 0 -5372.55894208 0 4653
0.06750000 0.06749660 32344.41044589 0 258.69121186 0 10938.04117266 0 1486.38496811 0 -4938.88339623 0 5220
0.06850000 0.06852730 31364.78773468 0 320.07078517 0 10549.40691429 0 2013.09938006 0 -2095.60575643 0 5029
0.06950000 0.06949320 31410.76199617 0 674.18163296 0 9561.45488089 0 2105.34015996 0 -3666.03707006 0 5040
0.07050000 0.07048030 31113.78400386 0 214.96395645 0 9656.01123484 0 1809.36258556 0 868.33015238 0 5475
0.07150000 0.07148790 30402.13840608 0 355.87225775 0 7876.94220300 0 3143.56038343 0 1277.55615883 0 5509
0.07250000 0.07249820 30088.97387672 0 500.25054794 0 8963.46350265 0 2419.24657228 0 4352.15515003 0 5916
0.07350000 0.07351270 29790.53459981 0 644.13424949 0 7959.77455823 0 1354.46469113 0 3964.75736323 0 5721
0.07450000 0.07449140 29552.57002383 0 390.94870836 0 7618.83438091 0 -312.95208107 0 3602.67352189 0 6028
0.07550000 0.07549160 28773.03089564 0 883.27122534 0 7293.35009834 0 -1360.47843927 0 3073.30631636 0 6183
0.07650000 0.07648840 28356.78959907 0 764.35525719 0 8189.51097787 0 -2424.40603096 0 -516.67426272 0 6330
0.07750000 0.07749960 26832.55735995 0 1055.66571340 0 9448.50882235 0 -3369.67731353 0 -461.43995316 0 6583
0.07850000 0.07848650 26692.04922581 0 1384.26365622 0 9959.43012002 0 -1453.48358342 0 -2884.35097757 0 6549
0.07950000 0.07947320 25474.34953212 0 660.91204477 0 10577.08139639 0 123.08175331 0 -881.89199749 0 6828
0.08050000 0.08048110 25147.92103490 0 275.10705819 0 10328.95527215 0 1948.45439771 0 -2520.16513454 0 7147
0.08150000 0.08149960 25021.57612068 0 58.50410245 0 10023.09716576 0 2754.21796406 0 -1857.86599347 0 7386
0.08250000 0.08250610 24671.99188295 0 341.14363310 0 10318.04060029 0 1870.99507352 0 -472.34450843 0 7227
0.08350000 0.08350160 24198.42326765 0 983.95036174 0 9185.84853672 0 1099.39858914 0 31.52114519 0 7798
0.08450000 0.08449610 23548.82606190 0 766.41454440 0 10512.56006119 0 297.87724437 0 2840.37755191 0 7371
0.08550000 0.08548940 22866.51856253 0 832.79508323 0 9156.51043831 0 -619.64087155 0 -41.42696864 0 8256
0.08650000 0.08650700 22521.31817858 0 458.88045699 0 10513.04340917 0 63.63680839 0 1259.95329979 0 8037
0.08750000 0.08749060 22071.91696236 0 595.86801931 0 9503.12714425 0 130.04308831 0 -732.98934539 0 8155
0.08850000 0.08849210 21336.66599805 0 551.00433412 0 8823.89958318 0 -0.66931106 0 325.75855444 0 8718
0.08950000 0.08949900 21136.13278900 0 438.55398827 0 8108.78062432 0 423.47802751 0 -1421.77370771 0 8571
0.09050000 0.09049190 20840.61608129 0 134.48314535 0 8504.02438533 0 1081.97670457 0 -33.91000828 0 8932
0.09150000 0.09150830 21016.86948475 0 -85.84552407 0 7564.27226226 0 1212.39410654 0 405.43678309 0 9285
0.09250000 0.09250820 21238.53511716 0 -83.15979539 0 8098.01208092 0 1988.31374520 0 2130.82271517 0 9204
0.09350000 0.09350330 21004.84198847 0 123.23350209 0 7278.77097435 0 1290.28057546 0 3404.65821861 0 9349
0.09450000 0.09448040 20791.83165711 0 491.54016769 0 7282.37922323 0 1840.80268566 0 4808.68293881 0 9564
0.09550000 0.09549270 20290.49863451 0 393.60375006 0 7378.11584551 0 1573.35388282 0 6096.82779063 0 10155
0.09650000 0.09649430 20041.74303384 0 466.72193494 0 7006.02782501 0 738.01054407 0 5727.88715234 0 9913
0.09750000 0.09749140 19621.56750951 0 268.96966289 0 7150.12172673 0 -449.59005916 0 5489.83265116 0 10476
0.09850000 0.09850240 19466.10930990 0 284.04787178 0 6921.39696566 0 -1036.15531593 0 3022.59974091 0 10575
0.09950000 0.09950330 18964.55147428 0 293.23597968 0 7113.16246713 0 -1039.50727798 0 2181.56301257 0 10882
0.10050000 0.10051200 18939.37241665 0 288.83189273 0 7254.79466634 0 -1429.61968192 0 141.85251596 0 10875
0.10150000 0.10150300 18802.34888424 0 108.34660908 0 6785.43005441 0 -434.69282474 0 -1471.67095630 0 11118
0.10250000 0.10250800 18831.68698264 0 52.31567460 0 6745.18852480 0 -24.96840784 0 -2385.78315505 0 11575
0.10350000 0.10349800 18696.57436086 0 103.72355425 0 5788.03587440 0 384.37967207 0 -3738.47182337 0 11364
0.10450000 0.10450100 18626.09548077 0 129.75532765 0 6020.52625347 0 691.08644759 0 -3812.59267429 0 12093
0.10550000 0.10551000 18424.66301967 0 341.93834711 0 5799.86103897 0 252.63137705 0 -3112.96333214 0 12067
0.10650000 0.10649700 17849.92854780 0 521.79550319 0 5808.60626524 0 863.79904607 0 -1550.90630331 0 12054
0.10750000 0.10749900 17654.34122508 0 468.31698328 0 5805.57128954 0 912.69475269 0 -895.96978847 0 12807
0.10850000 0.10850100 16991.59245798 0 404.00922044 0 6056.61998297 0 1065.76431402 0 279.97313589 0 12736
0.10950000 0.10950300 16948.31595267 0 483.42891412 0 6358.46517705 0 890.11565757 0 1755.02527993 0 12933
0.11050000 0.11050200 16248.81025768 0 427.64718487 0 6803.60618665 0 712.72694838 0 2169.87273581 0 13428
0.11150000 0.11150900 16113.24800986 0 547.05436945 0 6506.39214067 0 -111.03233776 0 3617.83715972 0 13453
0.11250000 0.11250000 15548.63012364 0 488.96268647 0 6972.06981915 0 -88.70211064 0 3059.25550295 0 13668
0.11350000 0.11349100 15440.49506361 0 347.93635834 0 6883.90939547 0 -236.34817040 0 4180.35304425 0 13791
0.11450000 0.11448600 15225.12419561 0 -37.13933483 0 6677.71089846 0 483.46038794 0 3648.01830693 0 14205
0.11550000 0.11549300 15234.11671619 0 36.77749828 0 6526.34429571 0 337.29371022 0 4062.67467175 0 14776
0.11650000 0.11649800 15095.40708617 0 138.95692434 0 6359.39815106 0 808.05441097 0 3102.85798713 0 14553
0.11750000 0.11747300 14883.18360037 0 264.00466746 0 6130.90944365 0 474.85791794 0 3559.95904911 0 14568
0.11850000 0.11849100 14672.08417964 0 187.93131551 0 5496.20610012 0 854.71210402 0 3624.86256643 0 16015
0.11950000 0.11950300 14514.60266290 0 96.09857123 0 5132.14390425 0 1146.90607538 0 3054.30961662 0 15270
0.12050000 0.12050700 14306.76303088 0 30.31018988 0 4469.39513715 0 807.74416901 0 2924.16536246 0 15999
0.12150000 0.12150000 14145.79691242 0 141.80418117 0 3971.81649189 0 429.40859483 0 2113.41094719 0 15670
0.12250000 0.12250700 14092.74104097 0 56.03925256 0 3514.64798601 0 53.22751619 0 2030.66851716 0 16887
0.12350000 0.12352200 13797.22433325 0 190.05242630 0 3427.85892172 0 -545.47505802 0 1228.64808750 0 16407
0.12450000 0.12449800 13918.28614162 0 65.67102895 0 3462.86230809 0 -942.43526639 0 745.16746639 0 16306
0.12550000 0.12549900 13662.33652448 0 216.58598235 0 3593.68100130 0 -548.24363030 0 -127.63646499 0 17523
0.12650000 0.12650100 13698.86863935 0 222.44011325 0 3549.77501955 0 -509.31838088 0 -335.14449780 0 17154
0.12750000 0.12750600 13384.13041888 0 195.15905393 0 3709.58335099 0 417.11581920 0 -193.40101615 0 18007
0.12850000 0.12850300 13139.08423295 0 195.46704776 0 3079.21889864 0 890.22806407 0 -757.26915097 0 17496
0.12950000 0.12949900 13077.48546694 0 216.06104396 0 3181.18284143 0 1184.38240492 0 51.42159324 0 18405
0.13050000 0.13049000 12930.57016189 0 235.96374014 0 2995.45356940 0 498.50712301 0 165.93223796 0 18100
0.13150000 0.13148800 12745.32423784 0 109.68345967 0 3094.04531696 0 73.83983465 0 809.69891817 0 19059
0.13250000 0.13249300 12899.09633984 0 91.73877244 0 3380.60322604 0 -637.67649564 0 1176.17672989 0 18957
0.13350000 0.13349100 13107.83522392 0 54.09372073 0 4061.79790099 0 -700.43866900 0 1685.32200475 0 19468
0.13450000 0.13450700 13084.56707690 0 121.91047750 0 4245.34648678 0 -832.39266793 0 1085.59282191 0 19953
0.13550000 0.13551000 12896.96061620 0 182.98880138 0 4673.66024223 0 -357.47742268 0 672.01780769 0 19956
0.13650000 0.13649900 12720.70721274 0 226.05623059 0 4441.12490056 0 -4.56259137 0 374.39909829 0 19723
0.13750000 0.13749600 12614.03343730 0 201.72359395 0 4555.92566648 0 299.98149419 0 -695.28145844 0 20946
0.13850000 0.13851100 12334.70326664 0 249.78524428 0 4023.30991289 0 268.01420757 0 -759.59596567 0 20955
0.13950000 0.13949800 12072.45888508 0 213.48131462 0 3980.85397508 0 261.23272299 0 -1047.35662438 0 20506
0.14050000 0.14048300 11742.65819264 0 293.08085870 0 3699.81522550 0 222.37379341 0 -711.53881160 0 21447
0.14150000 0.14148400 11632.83703500 0 231.16735448 0 4139.32466908 0 314.18967671 0 -144.30410189 0 21771
0.14250000 0.14249400 11468.83594083 0 229.70494582 0 4320.49023692 0 202.03608404 0 243.76924801 0 22470
0.14350000 0.14350900 11433.42789103 0 209.38971775 0 4332.31540148 0 370.45250582 0 495.02814161 0 22519
0.14450000 0.14449900 11242.22442209 0 50.62541795 0 4755.03131287 0 42.93074290 0 913.92110768 0 22218
0.14550000 0.14550500 11166.48491747 0 114.93565372 0 4474.10496981 0 -79.76455684 0 834.48567710 0 23559
0.14650000 0.14650700 11176.06195189 0 35.14782874 0 4378.16601582 0 112.55375983 0 483.95048031 0 23044
0.14750000 0.14750500 11029.39394115 0 81.20875565 0 3556.02482135 0 51.98272652 0 592.32384214 0 23649
0.14850000 0.14849900 10962.47834735 0 19.55502286 0 3521.23500734 0 272.04960119 0 -224.62079949 0 23640
0.14950000 0.14949500 10948.18023962 0 37.96181324 0 2833.76804928 0 640.65526809 0 -96.93453842 0 24457
0.15050000 0.15050000 10662.72391431 0 204.74170867 0 2855.05784177 0 446.49663208 0 -504.64676644 0 24591
0.15150000 0.15149900 10655.83339541 0 206.76277768 0 2445.36984457 0 462.18408424 0 -53.52449418 0 25020
0.15250000 0.15250500 10420.30804064 0 255.76414641 0 2798.75342226 0 148.74528299 0 233.74371163 0 25297
0.15350000 0.15350100 10216.22278597 0 336.09882905 0 2705.75951876 0 -40.60325376 0 617.63553946 0 25452
0.15450000 0.15450400 10043.27413382 0 113.32599254 0 2943.61168823 0 222.55926415 0 1037.82118037 0 26061
0.15550000 0.15549900 10002.57173753 0 133.46474239 0 3119.22437460 0 265.38839156 0 1170.44399802 0 26128
0.15650000 0.15649500 9867.95370437 0 -16.79341979 0 2755.58932345 0 329.75797797 0 1248.06069131 0 26331
0.15750000 0.15749700 9965.70240313 0 -46.38252192 0 2948.59129650 0 343.41312048 0 1334.74858975 0 27345
0.15850000 0.15849900 9971.31148784 0 63.45527188 0 2817.92997240 0 148.53620689 0 1381.58838135 0 26980
0.15950000 0.15949700 9834.79378472 0 173.16672077 0 2859.72271182 0 -111.87044068 0 1047.99734147 0 27777
0.16050000 0.16050000 9686.10245685 0 233.70436935 0 2921.49008759 0 -364.22968157 0 1505.47159305 0 28224
0.16150000 0.16150500 9549.01148053 0 232.09246003 0 3223.51513208 0 -389.11535822 0 1295.91214147 0 28075
0.16250000 0.16249700 9583.20554006 0 137.76878755 0 3183.01506749 0 -126.06614608 0 1354.77942935 0 28590
0.16350000 0.16349900 9413.59536118 0 111.64765098 0 3625.27847051 0 -98.96988305 0 1378.75573736 0 29163
0.16450000 0.16449100 9386.13445144 0 37.17215753 0 3441.96593838 0 33.14811697 0 957.60677268 0 28996
0.16550000 0.16550500 9259.99186894 0 117.10060306 0 3605.25887155 0 178.51951865 0 1102.41782792 0 30777
0.16650000 0.16650700 9113.58239317 0 137.68673080 0 3199.77487773 0 91.46877201 0 578.82044842 0 29211
0.16750000 0.16749900 9091.26970146 0 133.28489198 0 3407.94048862 0 121.92059409 0 899.02499733 0 30922
0.16850000 0.16850800 9032.54854205 0 110.56427706 0 3175.64120062 0 46.69175223 0 552.76799222 0 30867
0.16950000 0.16949900 8889.38761434 0 158.67414978 0 3107.74767020 0 160.88293765 0 782.17393673 0 30852
0.17050000 0.17049200 8863.88257783 0 110.22806920 0 2977.42356562 0 133.77948061 0 859.94687507 0 31257
0.17150000 0.17149500 8733.24373503 0 69.66752991 0 2539.76882941 0 527.45404677 0 932.83912286 0 32608
0.17250000 0.17250900 8645.67906584 0 36.51401743 0 2339.73020901 0 609.77720053 0 903.12558672 0 32361
0.17350000 0.17350400 8594.54534566 0 50.24323582 0 1998.54273737 0 458.52862462 0 454.17062433 0 32508
0.17450000 0.17449800 8402.58875313 0 113.02699123 0 1878.78484448 0 359.44790875 0 587.81072087 0 32791
0.17550000 0.17549800 8325.14066959 0 253.89819839 0 1383.78030824 0 -127.41277604 0 91.50912594 0 33633
0.17650000 0.17650100 8007.73841490 0 210.31931957 0 1439.66882367 0 -195.45805524 0 222.91671684 0 33984
0.17750000 0.17750300 7986.68467608 0 141.66704523 0 1600.69114539 0 -432.53237167 0 -131.64488104 0 34069
