### header ###
fiducial parameters:
Omega_m = 0.31
Omega_nu = 0
Omega_de = 0.69
Omega_k = 0
H_0 = 100
w_de = -1
zeff = 0
beta = 0
fgrowth = 0
b_1 = 2
gamma = 0.55
Lx = 3500 Ly = 3500 Lz = 3500
nx = 700 ny = 700 nz = 700
xoffset = 857.220397 yoffset = 15.9954215 zoffset = 262.898189
bins = 400 dk = 0.001
kx_ny = 0.628318531 ky_ny = 0.628318531 kz_ny = 0.628318531
############################
A(data) = 3.09817491 (not used)
A(ran) = 3.0979332 (used)
Ngal = 189357
weighted Ngal = 0
Nran = 9360983
weighted Nran = 0
SN(data) = 3446.19021
SN(ran) = 69.5679372
SN(data+ran) = 3515.75814
############################
13 columns: k_central k_mean P_0(k) sigma^{lin}_{P_0(k)} P^img_1(k) sigma^{lin}_{P_1(k)} P_2(k) sigma^{lin}_{P_2(k)} P^img_3(k) sigma^{lin}_{P_3(k)} P_4(k) sigma^{lin}_{P_4(k)} N_modes
### header ###
0.00050000 0 0 0 0 0 0 0 0 0 0 0 0
0.00150000 0.00179520 8331.05325188 0 -14441.53843315 0 -9324.70429520 0 28264.27904356 0 -11139.51859636 0 3
0.00250000 0.00253879 17117.60015268 0 -14771.67634512 0 -423.77702882 0 -21629.14773007 0 2176.41479453 0 6
0.00350000 0.00331552 21467.39476605 0 -6141.74543095 0 -5778.63869039 0 -9879.26179901 0 7545.36548773 0 7
0.00450000 0.00420575 25743.45071062 0 -927.97529329 0 -3562.98278415 0 -15468.03465790 0 5947.21472940 0 24
0.00550000 0.00557378 25540.89418445 0 254.50182133 0 1510.33879482 0 -6845.09542849 0 16040.52099963 0 45
0.00650000 0.00659388 36092.26821262 0 -8822.74179615 0 10970.22315570 0 -8588.03700889 0 -21083.75135660 0 40
0.00750000 0.00754703 38637.37635113 0 -9426.00503958 0 17709.42041366 0 7840.18527511 0 17405.24840488 0 57
0.00850000 0.00846663 53115.44689915 0 -5780.42595386 0 14415.12290393 0 21979.40640684 0 9695.92678559 0 75
0.00950000 0.00948925 53714.01155058 0 53.54472735 0 18625.42104173 0 23519.15074397 0 43691.95976533 0 112
0.01050000 0.01054430 56689.74901859 0 6289.87472629 0 18082.72242444 0 34783.06962198 0 29434.09356513 0 105
0.01150000 0.01145670 52406.04943152 0 3951.95426205 0 17324.09090660 0 34042.19833230 0 55442.48641348 0 144
0.01250000 0.01249090 48152.92441443 0 -2216.45399244 0 11795.03962504 0 35396.92155840 0 49265.52402379 0 169
0.01350000 0.01339930 58919.78171711 0 -7013.73891141 0 21759.98890457 0 29593.37358599 0 66217.43698469 0 180
0.01450000 0.01448870 59153.25003280 0 -7452.57391595 0 7147.06426973 0 22428.47040355 0 51905.27844145 0 267
0.01550000 0.01550050 67574.63315395 0 -6970.55233130 0 3406.26563166 0 4811.21208523 0 49063.30471714 0 238
0.01650000 0.01653350 66745.97238206 0 248.64881449 0 686.52611559 0 -830.42105779 0 36817.40259127 0 315
0.01750000 0.01747870 61824.81549203 0 5123.27503082 0 11012.24070814 0 -12788.03871062 0 22142.62065546 0 297
0.01850000 0.01844180 58151.14602013 0 -79.62202539 0 3357.52617009 0 -5267.51506100 0 740.57790870 0 388
0.01950000 0.01947590 65254.78765609 0 -1897.19703038 0 7285.76265910 0 -21991.77112265 0 -14265.39743619 0 399
0.02050000 0.02045430 63526.31279318 0 -3183.93680085 0 1975.82538224 0 -10682.21520268 0 -21188.73903443 0 462
0.02150000 0.02154770 71025.51292836 0 -4767.01384655 0 9181.79066180 0 -7209.66345365 0 -17926.25256626 0 571
0.02250000 0.02255340 73872.32013249 0 -3915.80432930 0 -721.70598018 0 -19.15665420 0 -19898.53714352 0 510
0.02350000 0.02348930 75342.26002859 0 -460.54856955 0 -5502.03999785 0 13173.25581117 0 -13931.66251599 0 555
0.02450000 0.02439640 71232.90293435 0 541.02038814 0 -8128.01337772 0 7359.05170187 0 -26612.91504467 0 592
0.02550000 0.02547300 72000.52697277 0 2536.73385372 0 -12650.79036519 0 7066.40136009 0 -16987.88304324 0 837
0.02650000 0.02652900 65720.03818984 0 5287.19744043 0 -8404.74695807 0 -10257.79071237 0 -18753.45205356 0 723
0.02750000 0.02749970 61260.64723184 0 3687.54043490 0 -16776.22158998 0 -11038.18413002 0 -15425.88221766 0 826
0.02850000 0.02848090 60290.57907376 0 1123.62893585 0 -4965.99584579 0 -10686.05950523 0 -20571.85212231 0 831
0.02950000 0.02946900 63218.65618267 0 1434.39695848 0 -6830.79732076 0 -8037.31256697 0 -15713.75528288 0 996
0.03050000 0.03053250 62376.61903642 0 215.70246720 0 663.21075784 0 -5895.42905149 0 -18399.82118156 0 1041
0.03150000 0.03150510 62183.16743734 0 1360.52340188 0 9588.08398247 0 -3268.82619518 0 -21250.67501995 0 1036
0.03250000 0.03246190 62302.99277413 0 2479.84492037 0 7438.39945538 0 -3200.68537044 0 -8989.27203673 0 1059
0.03350000 0.03345080 63014.52596540 0 1024.09971802 0 23043.10918552 0 -1593.64325739 0 -3831.64557728 0 1302
0.03450000 0.03451200 61992.30118792 0 2054.03783003 0 25676.11921274 0 -3577.49446425 0 4445.73356736 0 1339
0.03550000 0.03553350 61470.39777448 0 1149.39025920 0 33115.40667953 0 532.11779276 0 4469.72111602 0 1365
0.03650000 0.03647120 59613.55468023 0 3548.29125365 0 29804.36060021 0 3170.04335655 0 9701.86184917 0 1308
0.03750000 0.03744890 56987.51385646 0 3130.43130338 0 31394.57545912 0 3482.58965013 0 8867.82804623 0 1579
0.03850000 0.03847530 54525.58653336 0 3213.88189440 0 28747.06499245 0 2677.03965614 0 4810.18918601 0 1662
0.03950000 0.03950240 51465.31937184 0 3966.99425273 0 23586.25742884 0 3034.94197542 0 -2641.28314617 0 1683
0.04050000 0.04050350 48351.32189984 0 2494.67133868 0 23487.22729590 0 1165.39694584 0 -6393.49104473 0 1822
0.04150000 0.04152450 45244.74325731 0 1620.91307606 0 20362.88842522 0 -307.20136415 0 -8880.78851653 0 1887
0.04250000 0.04250150 44684.95885091 0 820.87886939 0 18012.58076388 0 -1135.60922140 0 -13503.50612965 0 1920
0.04350000 0.04349210 43679.14542350 0 437.31302043 0 17196.62192731 0 -922.42241183 0 -10337.39700085 0 2005
0.04450000 0.04448520 45380.97994417 0 71.03754042 0 18621.03718795 0 893.58339832 0 -14191.99598692 0 2151
0.04550000 0.04548030 44217.68500002 0 78.36442138 0 18823.48130761 0 757.77160805 0 -12016.48044444 0 2274
0.04650000 0.04648670 44110.22437903 0 404.85339331 0 18755.70018370 0 -837.94217720 0 -11787.05876302 0 2311
0.04750000 0.04749250 44864.13482356 0 978.36825458 0 20973.25575991 0 1914.17041298 0 -6769.31096127 0 2568
0.04850000 0.04851840 43641.37683704 0 678.58234772 0 19066.95380244 0 2249.06312021 0 -4104.09646969 0 2493
0.04950000 0.04949480 43331.58450290 0 580.79992701 0 18270.89091767 0 4923.16896651 0 -4127.24096955 0 2644
0.05050000 0.05050630 42441.77459103 0 383.19378342 0 16533.19872117 0 5469.64444245 0 -2390.25693404 0 2829
0.05150000 0.05149060 40669.79840980 0 897.99984999 0 14241.45485014 0 4632.89040203 0 -933.65969037 0 2784
0.05250000 0.05249300 39992.88642278 0 1576.25397071 0 9979.13498075 0 4453.59078222 0 1065.86547987 0 3055
0.05350000 0.05348950 38109.85261232 0 640.24273621 0 11396.33374362 0 4407.93125895 0 3743.28282188 0 3009
0.05450000 0.05448610 37315.02619913 0 1109.44660682 0 8649.00629845 0 1503.45951657 0 5959.79301757 0 3336
0.05550000 0.05550870 36589.32978794 0 674.92801217 0 9723.64623029 0 1456.76585343 0 5028.03299718 0 3349
0.05650000 0.05647670 36986.23716525 0 1527.69435955 0 13197.53561675 0 -3443.60707339 0 6489.42999871 0 3324
0.05750000 0.05747970 36103.62126986 0 825.74719522 0 13341.52835261 0 -2795.10021077 0 6721.96534039 0 3639
0.05850000 0.05849280 35978.06320119 0 886.59171356 0 16671.79594468 0 -1458.64304211 0 7603.64826177 0 3846
0.05950000 0.05951020 35635.56057342 0 220.20209969 0 17045.88480101 0 174.15364991 0 6992.65145064 0 3787
0.06050000 0.06049470 35935.34872841 0 791.36654089 0 17910.96528127 0 2786.89453573 0 4933.72393755 0 3930
0.06150000 0.06148310 35061.61294709 0 490.89383027 0 14476.60926343 0 2713.67293687 0 3334.21306048 0 4083
0.06250000 0.06249100 33777.48100758 0 371.24272356 0 13691.78702939 0 2264.14807349 0 1803.28139352 0 4303
0.06350000 0.06350600 33484.66205604 0 93.55402512 0 12000.29390739 0 1945.19460900 0 2996.93733529 0 4470
0.06450000 0.06451750 33231.07297555 0 -498.73193602 0 9569.43574291 0 2838.20810632 0 519.24275141 0 4479
0.06550000 0.06550280 34362.44447163 0 -465.07855180 0 7158.64213998 0 3512.08511764 0 1983.54770929 0 4636
0.06650000 0.06648880 33468.36311248 0 1015.12967873 0 6882.32446371 0 -111.15384919 0 -1683.10759655 0 4653
0.06750000 0.06749660 32961.18495150 0 1430.75498764 0 5706.04656797 0 228.60223798 0 1128.10046671 0 5220
0.06850000 0.06852730 31387.83106868 0 1648.56507686 0 7031.67898998 0 46.76414202 0 3416.40469862 0 5029
0.06950000 0.06949320 30673.37530822 0 892.45371292 0 5446.43249869 0 -224.59831819 0 2663.39350615 0 5040
0.07050000 0.07048030 30652.24288485 0 -710.95429776 0 6887.76493867 0 2119.66074899 0 3214.52261149 0 5475
0.07150000 0.07148790 30673.15049521 0 -0.89789756 0 7230.48113881 0 -1240.45077077 0 2626.15323028 0 5509
0.07250000 0.07249820 31404.69204478 0 376.90576340 0 8016.92202655 0 -575.69667158 0 4653.83173434 0 5916
0.07350000 0.07351270 30874.92017583 0 780.93746515 0 11411.73343512 0 -1965.60763073 0 5553.39853104 0 5721
0.07450000 0.07449140 29992.41668694 0 868.43581450 0 9773.38610977 0 -165.81083893 0 5169.37293947 0 6028
0.07550000 0.07549160 29706.00490631 0 844.01212859 0 13581.85346524 0 2626.14198963 0 7748.50652774 0 6183
0.07650000 0.07648840 28267.98845830 0 1097.53039298 0 10018.08383554 0 1975.43195946 0 5679.77716721 0 6330
0.07750000 0.07749960 27619.62772413 0 677.84833323 0 11651.27170219 0 3222.58215807 0 8686.94349467 0 6583
0.07850000 0.07848650 26787.70716353 0 517.18346420 0 8961.02428144 0 1422.35822155 0 6331.65622505 0 6549
0.07950000 0.07947320 26563.79340097 0 328.33940785 0 8951.59337548 0 625.42755854 0 8334.22311538 0 6828
0.08050000 0.08048110 26339.09279286 0 231.09653838 0 8432.99471336 0 396.00138086 0 5711.52076488 0 7147
0.08150000 0.08149960 25632.73030092 0 198.44919240 0 8481.21710499 0 -1079.72295410 0 4814.86529672 0 7386
0.08250000 0.08250610 25885.75734888 0 367.53668102 0 8378.21902234 0 -1330.85932460 0 2856.80014263 0 7227
0.08350000 0.08350160 25364.19115496 0 824.29939941 0 8803.01445412 0 -1340.88598505 0 -196.78782422 0 7798
0.08450000 0.08449610 24454.59769781 0 1280.62485648 0 9370.70103799 0 -2073.87757857 0 -771.00410209 0 7371
0.08550000 0.08548940 23337.72664118 0 1568.29558999 0 9225.92145657 0 -1712.63678602 0 -4160.64818352 0 8256
0.08650000 0.08650700 21787.64090537 0 1268.94582037 0 10255.00303099 0 -512.09144942 0 -2489.66924911 0 8037
0.08750000 0.08749060 20734.27952537 0 827.70531658 0 9286.87950549 0 1257.61524443 0 -4083.44739430 0 8155
0.08850000 0.08849210 20186.07298922 0 279.94053800 0 9730.78404350 0 2517.14139949 0 -2615.04746736 0 8718
0.08950000 0.08949900 19862.79187420 0 173.34544712 0 7723.42863596 0 2421.91060650 0 -2922.60291201 0 8571
0.09050000 0.09049190 19810.18562878 0 -29.58269497 0 7499.58231731 0 2752.03727782 0 -466.69270924 0 8932
0.09150000 0.09150830 19550.86381641 0 129.31581820 0 5982.66774181 0 1395.88648908 0 -442.03409374 0 9285
0.09250000 0.09250820 19631.45928215 0 163.19963577 0 6083.92352359 0 121.10901911 0 26.20589108 0 9204
0.09350000 0.09350330 19343.69862344 0 239.58435375 0 5402.67264539 0 -1094.63367729 0 -151.34524551 0 9349
0.09450000 0.09448040 19286.48371122 0 424.43011063 0 6376.80991904 0 -1504.53861904 0 -232.40495012 0 9564
0.09550000 0.09549270 18744.23471996 0 377.95001985 0 5081.56097596 0 -444.31144957 0 -1416.96270920 0 10155
0.09650000 0.09649430 18182.65180944 0 231.21344115 0 5207.44502350 0 993.55549779 0 -2971.05011666 0 9913
0.09750000 0.09749140 18361.49056257 0 161.93169037 0 4631.56400525 0 716.55776215 0 -2446.05552427 0 10476
0.09850000 0.09850240 17899.05019149 0 195.22987003 0 4081.69385279 0 1101.50508708 0 -3695.65618473 0 10575
0.09950000 0.09950330 17930.52401354 0 -143.15755551 0 3112.65983457 0 1074.62307086 0 -3001.20878257 0 10882
0.10050000 0.10051200 17838.35067755 0 -317.46745047 0 3608.96828629 0 77.97976632 0 -3162.02877258 0 10875
0.10150000 0.10150300 18458.27256536 0 86.35034170 0 3298.65888222 0 390.66094770 0 -2006.41119288 0 11118
0.10250000 0.10250800 18131.95647464 0 182.75611991 0 4410.06698259 0 -83.10831321 0 -1194.47650928 0 11575
0.10350000 0.10349800 18038.99629309 0 708.36669996 0 3914.09575039 0 -250.88570399 0 74.93838345 0 11364
0.10450000 0.10450100 17423.45825907 0 448.31312123 0 4901.83421142 0 759.98826438 0 323.88923423 0 12093
0.10550000 0.10551000 17287.44638522 0 342.39808972 0 5025.78486703 0 443.03113946 0 156.20008256 0 12067
0.10650000 0.10649700 17100.73917658 0 142.88553177 0 4605.63182401 0 33.13136840 0 1307.64738084 0 12054
0.10750000 0.10749900 16902.45409768 0 295.95734123 0 5527.43262785 0 -268.34805490 0 1527.61567499 0 12807
0.10850000 0.10850100 16672.69519674 0 238.64238721 0 5138.46114996 0 -361.14299888 0 1033.49465390 0 12736
0.10950000 0.10950300 16543.54011984 0 347.35521669 0 5624.75418188 0 -370.12315475 0 1494.06233256 0 12933
0.11050000 0.11050200 16469.68904454 0 354.98087415 0 6210.47076952 0 17.66220968 0 1161.35031157 0 13428
0.11150000 0.11150900 16251.50801385 0 315.31149366 0 6594.56380500 0 -160.81099749 0 1464.35329268 0 13453
0.11250000 0.11250000 16081.09974877 0 248.51954701 0 6662.24376305 0 63.36905609 0 1283.46874112 0 13668
0.11350000 0.11349100 15910.57907718 0 172.00556155 0 6693.52649404 0 326.71063756 0 2292.08109056 0 13791
0.11450000 0.11448600 15653.61780147 0 194.50934431 0 6155.60515331 0 890.87889775 0 985.95119757 0 14205
0.11550000 0.11549300 15336.63145086 0 180.24945480 0 5473.98333363 0 1214.47362693 0 1568.93630708 0 14776
0.11650000 0.11649800 14984.12464393 0 258.37984583 0 5133.71759535 0 667.30123065 0 1078.16612397 0 14553
0.11750000 0.11747300 14833.27511112 0 246.99756290 0 4269.23286958 0 654.61952849 0 850.80372976 0 14568
0.11850000 0.11849100 14599.01994989 0 120.21875957 0 4320.69256863 0 415.43871411 0 1321.64199100 0 16015
0.11950000 0.11950300 14406.80482239 0 -3.76897895 0 3850.11396643 0 -295.82919781 0 799.88807821 0 15270
0.12050000 0.12050700 14643.53292678 0 89.67049270 0 4602.09101903 0 127.87701491 0 1614.11248237 0 15999
0.12150000 0.12150000 14715.47309146 0 50.47052178 0 4096.46406785 0 -33.81255184 0 1200.73755174 0 15670
0.12250000 0.12250700 14646.68030899 0 129.22701706 0 5080.33574503 0 157.43543007 0 2605.93129962 0 16887
0.12350000 0.12352200 14790.44823184 0 218.31029817 0 5336.74622885 0 292.30525380 0 3263.58805193 0 16407
0.12450000 0.12449800 14345.09364988 0 192.73107337 0 4657.46246453 0 630.15312811 0 2411.94014930 0 16306
0.12550000 0.12549900 14358.80724377 0 323.51154836 0 5102.98565625 0 104.29289321 0 2923.03005674 0 17523
0.12650000 0.12650100 13886.47510005 0 270.69622684 0 4460.29021006 0 -68.42442635 0 2390.65035682 0 17154
0.12750000 0.12750600 13741.69551864 0 394.95375221 0 4763.85522370 0 -90.25691745 0 2521.81751020 0 18007
0.12850000 0.12850300 13316.79892101 0 343.81890797 0 4551.14838992 0 -244.70109796 0 1558.14528238 0 17496
0.12950000 0.12949900 13207.09016987 0 232.83771518 0 4597.72964655 0 -241.44355738 0 1223.76964508 0 18405
0.13050000 0.13049000 12920.90320226 0 261.54408901 0 4308.90112601 0 -64.99029514 0 338.15362001 0 18100
0.13150000 0.13148800 12954.40034144 0 255.92601178 0 4293.07428978 0 245.41600334 0 116.27104303 0 19059
0.13250000 0.13249300 12516.57699547 0 207.00557573 0 4195.69653250 0 130.03409579 0 -51.98800963 0 18957
0.13350000 0.13349100 12403.83326863 0 85.52730125 0 4307.72085769 0 244.89106496 0 70.27340099 0 19468
0.13450000 0.13450700 12518.26309308 0 4.26346642 0 3866.12065307 0 484.71934082 0 496.96715386 0 19953
0.13550000 0.13551000 12526.13154859 0 -93.90765600 0 4306.20336984 0 634.47628238 0 1018.43218192 0 19956
0.13650000 0.13649900 12719.58314767 0 5.65555356 0 4106.85042912 0 457.95197924 0 1701.55350440 0 19723
0.13750000 0.13749600 12626.06093359 0 104.54996689 0 4253.11377643 0 534.27037737 0 2065.22227750 0 20946
0.13850000 0.13851100 12608.86273797 0 262.74009425 0 4188.99710466 0 65.64371417 0 2938.53091410 0 20955
0.13950000 0.13949800 12307.16367235 0 171.24456950 0 4672.59238041 0 110.62227882 0 2932.49468465 0 20506
0.14050000 0.14048300 12301.43094047 0 148.73853860 0 4412.20270623 0 94.46305655 0 3058.87332082 0 21447
0.14150000 0.14148400 12123.71625242 0 40.24568866 0 4251.45016013 0 163.04339072 0 2184.95768909 0 21771
0.14250000 0.14249400 12149.34493608 0 95.87769244 0 4272.81863717 0 -229.65885915 0 1664.97642693 0 22470
0.14350000 0.14350900 11939.14476741 0 63.20303168 0 3605.74221954 0 -206.47501702 0 718.52375196 0 22519
0.14450000 0.14449900 11894.51938401 0 249.66609339 0 3831.79170574 0 -20.15527361 0 261.35524608 0 22218
0.14550000 0.14550500 11553.02841481 0 191.34060487 0 3258.66464691 0 -81.06712345 0 -82.11317840 0 23559
0.14650000 0.14650700 11444.21891573 0 313.79850207 0 3597.30049084 0 463.43404460 0 79.06561318 0 23044
0.14750000 0.14750500 11093.09470885 0 255.24482834 0 3455.97178920 0 487.50027781 0 445.82781336 0 23649
0.14850000 0.14849900 10955.74519756 0 291.20367003 0 3330.93079046 0 702.29225231 0 862.95150101 0 23640
0.14950000 0.14949500 10565.35739768 0 285.09437636 0 3269.93901960 0 486.97421536 0 1126.62794147 0 24457
0.15050000 0.15050000 10353.41492814 0 298.44939349 0 3417.19154417 0 251.98728776 0 1776.12398135 0 24591
0.15150000 0.15149900 10180.99458658 0 196.47308600 0 3502.49684257 0 246.66259151 0 2242.17260131 0 25020
0.15250000 0.15250500 10028.59384397 0 44.69102880 0 3244.87236847 0 181.58934036 0 2325.56698908 0 25297
0.15350000 0.15350100 10121.93620764 0 -69.72081060 0 2993.98104415 0 237.19571547 0 2163.97139418 0 25452
0.15450000 0.15450400 10216.21154532 0 -125.00615271 0 3186.42098467 0 342.22498370 0 2304.86171044 0 26061
0.15550000 0.15549900 10243.34647619 0 -12.52422064 0 2713.23455149 0 3.74725077 0 1779.24888226 0 26128
0.15650000 0.15649500 10283.54304320 0 85.59631884 0 3041.03440811 0 -79.02256148 0 1692.57222447 0 26331
0.15750000 0.15749700 10143.63066355 0 250.43382983 0 2704.10714310 0 -324.30738644 0 1273.44208066 0 27345
0.15850000 0.15849900 9995.02926089 0 311.26823159 0 2997.87030930 0 -265.34455303 0 1251.73638410 0 26980
0.15950000 0.15949700 9689.10371059 0 333.13017319 0 3133.29766931 0 -234.26078156 0 760.25804000 0 27777
0.16050000 0.16050000 9515.23332509 0 269.61824843 0 3051.89287672 0 -140.79814293 0 643.44182540 0 28224
0.16150000 0.16150500 9272.70504491 0 104.83851439 0 2942.00427517 0 75.26593601 0 277.22142459 0 28075
0.16250000 0.16249700 9312.47446720 0 4.25061835 0 2876.07785863 0 8.91829857 0 95.05892344 0 28590
0.16350000 0.16349900 9348.05112676 0 24.61500178 0 2758.68050240 0 261.91278236 0 333.97771826 0 29163
0.16450000 0.16449100 9169.71820292 0 16.79622995 0 2547.77217273 0 443.69096565 0 164.45072019 0 28996
0.16550000 0.16550500 9231.59798519 0 -3.57096365 0 2255.47029113 0 376.35946778 0 310.22285107 0 30777
0.16650000 0.16650700 9228.43936233 0 69.16810780 0 2206.28120353 0 467.89770700 0 278.14877827 0 29211
0.16750000 0.16749900 9081.99616461 0 134.01665834 0 2033.52364244 0 259.24762407 0 432.45930744 0 30922
0.16850000 0.16850800 8873.49333420 0 278.22071844 0 2013.40287763 0 -178.43408970 0 622.21385650 0 30867
0.16950000 0.16949900 8647.15159108 0 272.33623778 0 1967.01271207 0 -70.32848018 0 644.57151080 0 30852
0.17050000 0.17049200 8585.24932751 0 139.62124679 0 2113.37722524 0 -116.67795459 0 485.25664393 0 31257
0.17150000 0.17149500 8473.50601859 0 23.93764017 0 2063.91836202 0 113.71941532 0 465.26402254 0 32608
0.17250000 0.17250900 8520.13223782 0 -13.06422150 0 2236.19257512 0 -151.04287200 0 428.57791075 0 32361
0.17350000 0.17350400 8513.47777259 0 74.08881507 0 2148.56046202 0 147.65044361 0 198.82350606 0 32508
0.17450000 0.17449800 8446.12379341 0 59.95043698 0 2250.62557066 0 1.09742810 0 324.36583782 0 32791
0.17550000 0.17549800 8483.33034733 0 104.20532854 0 2032.56818713 0 -1.64105632 0 492.60016105 0 33633
0.17650000 0.17650100 8365.42716181 0 58.95676346 0 2303.72640471 0 121.08991000 0 491.66156671 0 33984
0.17750000 0.17750300 8414.90850633 0 97.46239938 0 2175.85276200 0 -34.92369016 0 468.22818213 0 34069
0.17850000 0.17849800 8319.61026943 0 170.90172965 0 2476.16922758 0 -71.67600939 0 674.97072664 0 34536
