### header ###
fiducial parameters:
Omega_m = 0.31
Omega_nu = 0
Omega_de = 0.69
Omega_k = 0
H_0 = 100
w_de = -1
zeff = 0
beta = 0
fgrowth = 0
b_1 = 2
gamma = 0.55
Lx = 3500 Ly = 3500 Lz = 3500
nx = 700 ny = 700 nz = 700
xoffset = 857.220397 yoffset = 15.9954215 zoffset = 262.898189
bins = 400 dk = 0.001
kx_ny = 0.628318531 ky_ny = 0.628318531 kz_ny = 0.628318531
############################
A(data) = 3.05530784 (not used)
A(ran) = 3.05267897 (used)
Ngal = 186100
weighted Ngal = 0
Nran = 9360983
weighted Nran = 0
SN(data) = 3450.93607
SN(ran) = 68.5516972
SN(data+ran) = 3519.48777
############################
13 columns: k_central k_mean P_0(k) sigma^{lin}_{P_0(k)} P^img_1(k) sigma^{lin}_{P_1(k)} P_2(k) sigma^{lin}_{P_2(k)} P^img_3(k) sigma^{lin}_{P_3(k)} P_4(k) sigma^{lin}_{P_4(k)} N_modes
### header ###
0.00050000 0 0 0 0 0 0 0 0 0 0 0 0
0.00150000 0.00179520 48406.73830794 0 -54423.40901821 0 -44144.95798979 0 115930.45131408 0 -61958.57923573 0 3
0.00250000 0.00253879 89530.32178775 0 -60895.77570912 0 -22092.59975970 0 -57683.64735623 0 51519.61171487 0 6
0.00350000 0.00331552 109172.45968810 0 -35890.16131247 0 -40747.24649334 0 -38765.74458248 0 29844.37731681 0 7
0.00450000 0.00420575 121104.52284555 0 -3480.84734926 0 -38917.38096084 0 -40847.62550436 0 29868.20749636 0 24
0.00550000 0.00557378 111072.01725513 0 11907.44613235 0 -4808.64921686 0 -7452.40530619 0 68008.40986566 0 45
0.00650000 0.00659388 86581.67428800 0 17997.74310491 0 -5057.10131997 0 38046.79256172 0 808.55911619 0 40
0.00750000 0.00754703 99555.97058123 0 1297.15985371 0 50099.46790152 0 41765.42463655 0 84638.39058962 0 57
0.00850000 0.00846663 93218.49169909 0 -910.34770482 0 33127.65898883 0 73768.11930022 0 56148.51168590 0 75
0.00950000 0.00948925 108128.54045471 0 -1054.69901744 0 64587.99225472 0 65710.70844974 0 117220.87801799 0 112
0.01050000 0.01054430 107752.09106173 0 -1283.26640940 0 56446.61374328 0 44277.48526191 0 56102.20020488 0 105
0.01150000 0.01145670 106020.91844265 0 11914.97736834 0 50936.55916146 0 40287.50387844 0 67809.45034772 0 144
0.01250000 0.01249090 94690.56731883 0 14224.70628055 0 49911.74903431 0 11397.34540218 0 51452.16781049 0 169
0.01350000 0.01339930 75281.11088861 0 18525.60406324 0 35726.49743783 0 -2020.07982417 0 48623.68286705 0 180
0.01450000 0.01448870 63037.68170591 0 12624.26242947 0 30532.19273504 0 5947.05736029 0 13996.18385119 0 267
0.01550000 0.01550050 48805.21937635 0 8978.91939741 0 26263.78043296 0 8337.50538540 0 -12036.03917672 0 238
0.01650000 0.01653350 44985.30903844 0 881.28275422 0 8682.21118071 0 7727.83497105 0 -13127.61876920 0 315
0.01750000 0.01747870 46521.23155432 0 -3368.72185822 0 8399.37392702 0 7057.58868991 0 -15628.32633733 0 297
0.01850000 0.01844180 50234.24330378 0 -4515.90894987 0 -8759.98524312 0 3470.29237823 0 -8589.04866745 0 388
0.01950000 0.01947590 51569.63261063 0 -4128.53364438 0 5115.66511028 0 4431.61531004 0 -11610.24332703 0 399
0.02050000 0.02045430 61013.35291576 0 -3208.03675602 0 2035.46827502 0 2371.51876927 0 2500.28042340 0 462
0.02150000 0.02154770 59221.70559575 0 -1822.90756970 0 6270.05745905 0 2163.62293400 0 -1979.32122462 0 571
0.02250000 0.02255340 64409.49072112 0 271.82816037 0 6433.94614671 0 63.76382774 0 4318.51188239 0 510
0.02350000 0.02348930 61311.56737965 0 -2762.96319033 0 596.43117592 0 -858.75199390 0 -8060.14232861 0 555
0.02450000 0.02439640 68688.24442187 0 -4000.86233338 0 6957.99652444 0 -758.45953588 0 -17436.49741391 0 592
0.02550000 0.02547300 67985.25412515 0 -3157.02668300 0 -2824.83173195 0 -6125.61509716 0 -17431.77634061 0 837
0.02650000 0.02652900 73957.18704551 0 -992.35274816 0 3048.14974002 0 -11202.91586649 0 -33445.65699801 0 723
0.02750000 0.02749970 66885.80607715 0 2485.45400508 0 -2423.94516428 0 -13237.21511383 0 -26208.92605739 0 826
0.02850000 0.02848090 69571.19753679 0 4730.09954955 0 9098.73349355 0 -8858.29597441 0 -37778.81544830 0 831
0.02950000 0.02946900 64648.35454915 0 3125.60906421 0 9674.42342074 0 -6531.55995765 0 -23085.48643877 0 996
0.03050000 0.03053250 63927.82883729 0 3311.11352323 0 15677.89760705 0 -464.69299748 0 -24278.68151387 0 1041
0.03150000 0.03150510 62666.96504480 0 2218.03892419 0 19151.25868293 0 971.05283909 0 -23411.57771648 0 1036
0.03250000 0.03246190 58451.15898814 0 1332.24192464 0 17664.68262375 0 701.81227652 0 -14854.40753450 0 1059
0.03350000 0.03345080 59293.42094741 0 2245.39866807 0 18130.04556402 0 2398.37268387 0 -18371.83196124 0 1302
0.03450000 0.03451200 58730.71397182 0 125.42880118 0 23403.93407398 0 4451.44381793 0 -11717.59154151 0 1339
0.03550000 0.03553350 55553.43163620 0 834.55649320 0 18851.58293444 0 337.25211982 0 -14037.77425889 0 1365
0.03650000 0.03647120 56714.25363719 0 -18.66970921 0 21734.58503392 0 2313.50577085 0 -10515.65124014 0 1308
0.03750000 0.03744890 55856.59198641 0 712.15255113 0 16148.99327919 0 1187.70963754 0 -8048.49701445 0 1579
0.03850000 0.03847530 55810.50531841 0 337.68600894 0 19991.38491856 0 596.62339104 0 -10184.25437529 0 1662
0.03950000 0.03950240 55808.03237525 0 1099.13893010 0 20466.07759893 0 -2165.12918120 0 -3357.86338962 0 1683
0.04050000 0.04050350 54667.78076510 0 1065.19328896 0 17878.92942669 0 -2786.44490971 0 -10610.67970142 0 1822
0.04150000 0.04152450 53804.83600848 0 3077.37543192 0 23071.54803187 0 845.84210653 0 2884.17112716 0 1887
0.04250000 0.04250150 51470.60247769 0 1413.60175463 0 20982.36068700 0 1015.12855467 0 -3669.20693356 0 1920
0.04350000 0.04349210 49949.29280775 0 2110.07247392 0 19529.16936050 0 5659.37538614 0 2657.76194014 0 2005
0.04450000 0.04448520 48990.24048739 0 1347.57417223 0 20561.17350411 0 6616.98890321 0 -2016.71886960 0 2151
0.04550000 0.04548030 47344.83403338 0 2442.14377782 0 17608.02974407 0 4152.71228411 0 5948.02405626 0 2274
0.04650000 0.04648670 45155.82971003 0 1300.45336437 0 16923.13689503 0 5726.85301247 0 5333.16046127 0 2311
0.04750000 0.04749250 44773.75999168 0 1019.15158357 0 14178.16998652 0 1950.78121241 0 8466.84031271 0 2568
0.04850000 0.04851840 42316.32892887 0 2161.20619410 0 14770.77709306 0 3892.00787170 0 6704.66597891 0 2493
0.04950000 0.04949480 40593.36198483 0 2995.21751573 0 14404.33187923 0 -1049.87453014 0 4462.16739873 0 2644
0.05050000 0.05050630 38226.19334739 0 2527.23550385 0 14889.47836478 0 -82.68431587 0 6448.82876827 0 2829
0.05150000 0.05149060 37313.45250803 0 870.16013032 0 14373.42008972 0 1094.59096282 0 4777.45641108 0 2784
0.05250000 0.05249300 36878.66413776 0 -584.53407118 0 13199.89615340 0 888.15303995 0 3178.72113892 0 3055
0.05350000 0.05348950 38584.54529269 0 -1384.79196680 0 12935.85326773 0 296.39123034 0 -2324.04950124 0 3009
0.05450000 0.05448610 38745.84863068 0 310.82422588 0 13830.60906592 0 -1155.64006100 0 1011.72263750 0 3336
0.05550000 0.05550870 37504.20635094 0 2719.70916632 0 15981.84480282 0 -2237.23795564 0 -2905.48340095 0 3349
0.05650000 0.05647670 35496.62613038 0 2883.89011089 0 16952.13777392 0 -2060.04033752 0 1339.50338501 0 3324
0.05750000 0.05747970 32911.16405575 0 2477.38321786 0 20244.97399905 0 -513.82812995 0 2745.29288738 0 3639
0.05850000 0.05849280 31854.31807402 0 678.70262268 0 19405.40979595 0 2960.67499604 0 2277.53568851 0 3846
0.05950000 0.05951020 30594.80315961 0 -611.98711246 0 18105.87816494 0 6258.95169613 0 3019.47484001 0 3787
0.06050000 0.06049470 31321.17400985 0 -873.56604749 0 14539.44450102 0 4648.59359110 0 -47.79018862 0 3930
0.06150000 0.06148310 31858.25230178 0 -866.50017444 0 10191.93173974 0 6250.62237393 0 2859.10447603 0 4083
0.06250000 0.06249100 31114.90806893 0 -777.45960781 0 6423.55978543 0 4541.63879940 0 365.33238941 0 4303
0.06350000 0.06350600 31617.02793709 0 -662.26317099 0 883.83663007 0 1904.49221270 0 -2678.11875861 0 4470
0.06450000 0.06451750 31581.28266776 0 -704.21889984 0 878.46135089 0 1855.68530723 0 -1482.15848344 0 4479
0.06550000 0.06550280 31694.25120761 0 -396.49821762 0 -803.76947491 0 219.97616261 0 -1109.55901333 0 4636
0.06650000 0.06648880 32142.41595225 0 418.42872720 0 -2157.04715333 0 -1274.62234899 0 -2408.44430692 0 4653
0.06750000 0.06749660 31787.77342169 0 616.26305600 0 2294.20557354 0 -2358.96296241 0 -85.45389980 0 5220
0.06850000 0.06852730 31992.91529753 0 1254.92872891 0 3947.50296436 0 -3199.32525171 0 -352.32358432 0 5029
0.06950000 0.06949320 31039.03367650 0 1369.78569808 0 6415.24170389 0 -2867.93962751 0 -806.27389189 0 5040
0.07050000 0.07048030 30719.23716320 0 1195.99399713 0 7872.06376058 0 -2472.06639006 0 -202.67005674 0 5475
0.07150000 0.07148790 29322.81112289 0 691.63948761 0 8091.60491001 0 -601.35682907 0 -2387.10955184 0 5509
0.07250000 0.07249820 29481.07948519 0 542.43558607 0 9986.07046225 0 -504.66137928 0 -1685.70418687 0 5916
0.07350000 0.07351270 28995.25856059 0 104.39990420 0 8181.73244757 0 2340.43837000 0 -3415.89886934 0 5721
0.07450000 0.07449140 28160.30302429 0 270.33765008 0 8658.27983531 0 1473.97528970 0 -1861.12578218 0 6028
0.07550000 0.07549160 28468.74648035 0 286.53655185 0 6494.96039887 0 3299.23215540 0 -658.42673689 0 6183
0.07650000 0.07648840 27446.97132890 0 417.49125693 0 5790.77859318 0 2950.23243151 0 -1439.93859929 0 6330
0.07750000 0.07749960 27223.84441189 0 1006.26979783 0 4716.97046950 0 1408.61090570 0 701.79653961 0 6583
0.07850000 0.07848650 26105.39966416 0 892.81228968 0 4839.25750880 0 732.47227545 0 899.08232465 0 6549
0.07950000 0.07947320 24974.02816809 0 1253.56861017 0 4596.43697171 0 -303.01197363 0 3669.97129781 0 6828
0.08050000 0.08048110 24321.84561267 0 365.85845186 0 3903.63070456 0 159.26990427 0 1200.74879239 0 7147
0.08150000 0.08149960 23972.03656193 0 72.19825002 0 3890.45666190 0 -71.70130085 0 1047.47689934 0 7386
0.08250000 0.08250610 24389.96395610 0 -294.32744687 0 3476.96932476 0 306.53816576 0 162.61961819 0 7227
0.08350000 0.08350160 24478.98990989 0 -249.60539387 0 3583.39580588 0 -464.43221438 0 55.44866877 0 7798
0.08450000 0.08449610 24759.66895865 0 401.21029841 0 4474.97049991 0 -942.06320085 0 -8.57629053 0 7371
0.08550000 0.08548940 24607.24573473 0 783.66781921 0 4264.26450196 0 -1166.74582392 0 -467.00295120 0 8256
0.08650000 0.08650700 23648.19341437 0 1086.14698599 0 6073.42475581 0 -1069.78284665 0 1508.97867608 0 8037
0.08750000 0.08749060 22956.33136187 0 1217.80085954 0 7189.37407908 0 -114.72770169 0 1612.58375387 0 8155
0.08850000 0.08849210 22341.35536038 0 855.45061478 0 6372.87569128 0 5.84502597 0 2297.58900941 0 8718
0.08950000 0.08949900 21498.64377508 0 529.46387512 0 7257.69475423 0 767.16429580 0 2391.88682840 0 8571
0.09050000 0.09049190 21302.38201332 0 193.64606234 0 6719.93078260 0 1343.12287454 0 2377.42011091 0 8932
0.09150000 0.09150830 20752.15216003 0 4.18280351 0 5942.37000894 0 1231.81795101 0 1551.89548057 0 9285
0.09250000 0.09250820 20991.46561410 0 -131.47851941 0 5529.86060841 0 618.21892923 0 90.62347507 0 9204
0.09350000 0.09350330 20767.55185154 0 195.36138564 0 4632.84543943 0 304.52721334 0 798.81234794 0 9349
0.09450000 0.09448040 20334.11235935 0 467.58521691 0 4303.42692911 0 185.64833934 0 -685.65271703 0 9564
0.09550000 0.09549270 19885.83520820 0 672.00993924 0 3973.03048217 0 -774.47633910 0 -489.77088926 0 10155
0.09650000 0.09649430 19342.68696487 0 807.91839909 0 4159.99622578 0 -210.37439876 0 -1773.87585121 0 9913
0.09750000 0.09749140 18644.75496099 0 630.81183024 0 4573.48356292 0 -341.53480775 0 -668.70856012 0 10476
0.09850000 0.09850240 18153.87574357 0 277.95206689 0 4782.08755918 0 -626.97989241 0 -2166.25324627 0 10575
0.09950000 0.09950330 17825.08670968 0 228.52692562 0 5175.79135104 0 -221.59032006 0 -1734.81458992 0 10882
0.10050000 0.10051200 17742.58033332 0 343.27148828 0 5325.70790984 0 -555.26004448 0 -2220.01727872 0 10875
0.10150000 0.10150300 17376.24752600 0 505.86862517 0 5604.23999430 0 -210.81278413 0 -1947.70127411 0 11118
0.10250000 0.10250800 16824.89360764 0 584.05859166 0 5609.83783836 0 364.89625216 0 -1098.95683156 0 11575
0.10350000 0.10349800 16681.80012383 0 410.99416081 0 5825.23118767 0 179.12876192 0 -2092.14363600 0 11364
0.10450000 0.10450100 16349.63889473 0 223.21459409 0 5581.36527006 0 187.46932476 0 -1812.62237428 0 12093
0.10550000 0.10551000 16196.42882527 0 190.08277606 0 5854.89526495 0 -274.15609913 0 -1570.56620144 0 12067
0.10650000 0.10649700 16178.44378410 0 -94.91594237 0 5754.66238238 0 676.11052862 0 -1291.75310070 0 12054
0.10750000 0.10749900 16522.18288345 0 -221.10809614 0 5864.14632050 0 -7.46949110 0 -1222.51069220 0 12807
0.10850000 0.10850100 16693.04077457 0 -175.36651612 0 5328.72040423 0 548.78992592 0 -1489.72344138 0 12736
0.10950000 0.10950300 16670.33466009 0 54.69295982 0 5413.04776602 0 740.25867421 0 -946.15030146 0 12933
0.11050000 0.11050200 16686.63360365 0 365.26944176 0 5588.93022800 0 85.82000779 0 -744.43232783 0 13428
0.11150000 0.11150900 16332.89032514 0 390.87789226 0 5841.70998164 0 386.27934205 0 243.31849792 0 13453
0.11250000 0.11250000 15960.93719246 0 519.52601581 0 6556.77273724 0 308.13658629 0 720.95510471 0 13668
0.11350000 0.11349100 15855.38748209 0 254.19719970 0 6474.51365519 0 193.20430476 0 2172.71662044 0 13791
0.11450000 0.11448600 15457.01882019 0 297.90534600 0 6505.99871789 0 395.95641826 0 2185.48599967 0 14205
0.11550000 0.11549300 15351.35670331 0 200.53433311 0 7009.27637307 0 697.64986355 0 3463.35689673 0 14776
0.11650000 0.11649800 15114.29137940 0 200.47250953 0 6380.00226385 0 627.80383211 0 2698.57674294 0 14553
0.11750000 0.11747300 15140.59450211 0 138.52415928 0 6546.70111419 0 804.34387216 0 3226.67375493 0 14568
0.11850000 0.11849100 14896.89719426 0 108.32794960 0 6052.21364788 0 101.90717749 0 2556.53988030 0 16015
0.11950000 0.11950300 14774.93613383 0 147.10189986 0 5881.40071937 0 -289.48272641 0 2476.00061782 0 15270
0.12050000 0.12050700 14784.49068695 0 96.26459564 0 5414.29547825 0 -292.86728634 0 1663.97600901 0 15999
0.12150000 0.12150000 14581.25972173 0 138.05879634 0 5697.23389780 0 -438.16730988 0 997.29301415 0 15670
0.12250000 0.12250700 14572.15479464 0 286.27689282 0 5182.88420165 0 -438.62030811 0 35.06116332 0 16887
0.12350000 0.12352200 14165.80527072 0 347.25517490 0 5449.15273616 0 -130.58825987 0 -439.31160813 0 16407
0.12450000 0.12449800 13934.13545915 0 360.77992586 0 5812.37188323 0 -253.77679936 0 -714.42316257 0 16306
0.12550000 0.12549900 13565.55452168 0 259.11723252 0 4986.64492119 0 46.89104896 0 -1948.19586274 0 17523
0.12650000 0.12650100 13533.18144758 0 168.77275040 0 5687.11731214 0 -405.25580861 0 -1575.51208776 0 17154
0.12750000 0.12750600 13246.32004092 0 224.10485362 0 5137.87663612 0 -219.17133202 0 -2348.82389545 0 18007
0.12850000 0.12850300 13283.63900135 0 222.19506706 0 5695.59276279 0 202.15073868 0 -2209.70960200 0 17496
0.12950000 0.12949900 12820.07456520 0 262.86374141 0 5222.04662880 0 -76.32278199 0 -2637.14658670 0 18405
0.13050000 0.13049000 12995.65352962 0 188.95983505 0 5582.16335626 0 422.27078162 0 -2464.71500448 0 18100
0.13150000 0.13148800 12398.43775628 0 172.55747750 0 5143.26090782 0 643.04503043 0 -2607.41506551 0 19059
0.13250000 0.13249300 12651.12758472 0 16.48407708 0 4630.52986538 0 618.88549982 0 -2126.69739635 0 18957
0.13350000 0.13349100 12435.08227767 0 -92.63847412 0 4429.26601404 0 826.18220840 0 -1883.29234542 0 19468
0.13450000 0.13450700 12667.98856081 0 -86.67070024 0 4062.79831891 0 784.63788737 0 -1130.43852206 0 19953
0.13550000 0.13551000 12686.64804103 0 -53.93028167 0 3729.13084261 0 568.07101412 0 -1269.33924315 0 19956
0.13650000 0.13649900 12629.54553531 0 6.63032031 0 3680.69487861 0 502.26936881 0 -852.65394087 0 19723
0.13750000 0.13749600 12624.93686851 0 117.31529948 0 3439.75153019 0 358.91735004 0 -85.41365827 0 20946
0.13850000 0.13851100 12457.00154659 0 181.82539403 0 3431.61329906 0 371.75754537 0 295.08057047 0 20955
0.13950000 0.13949800 12417.54686253 0 244.01204607 0 3708.09958509 0 428.12154033 0 1120.80416032 0 20506
0.14050000 0.14048300 12204.98615720 0 204.33704525 0 3688.75442518 0 405.41654991 0 1192.91405883 0 21447
0.14150000 0.14148400 12041.09746955 0 314.36278273 0 4022.62423320 0 208.39829236 0 2124.51671011 0 21771
0.14250000 0.14249400 11803.80733261 0 237.90612459 0 3561.36413045 0 208.86927562 0 1931.22248014 0 22470
0.14350000 0.14350900 11666.22176767 0 172.30793506 0 4095.55357514 0 101.23599824 0 2390.96509504 0 22519
0.14450000 0.14449900 11518.85683658 0 197.06996455 0 3786.25582962 0 -11.38644197 0 2241.95902895 0 22218
0.14550000 0.14550500 11419.82670364 0 199.86551439 0 4114.92121635 0 -63.57813219 0 2143.69326026 0 23559
0.14650000 0.14650700 11066.28575685 0 306.49994755 0 3737.01053877 0 67.48369629 0 1840.56663199 0 23044
0.14750000 0.14750500 10837.96565920 0 327.83470263 0 3762.51557528 0 285.81265394 0 1863.09289606 0 23649
0.14850000 0.14849900 10554.29659736 0 193.96754495 0 3635.33885291 0 47.08337650 0 1466.97236430 0 23640
0.14950000 0.14949500 10429.68274335 0 158.58534864 0 3692.28398951 0 163.97299254 0 1273.40835871 0 24457
0.15050000 0.15050000 10254.35107325 0 117.80876405 0 3789.06599231 0 -276.63016636 0 1157.31491796 0 24591
0.15150000 0.15149900 10246.58378360 0 57.29033699 0 3770.66504706 0 -191.66545968 0 946.05700406 0 25020
0.15250000 0.15250500 10224.02379758 0 31.75225297 0 3656.33638848 0 -55.33480098 0 877.99936014 0 25297
0.15350000 0.15350100 10245.10001770 0 -4.47292470 0 3702.04087435 0 373.58415111 0 590.19486289 0 25452
0.15450000 0.15450400 10143.48453509 0 -18.54100375 0 3230.90023961 0 688.34822507 0 328.78790982 0 26061
0.15550000 0.15549900 10189.09909576 0 28.81417168 0 2860.54327932 0 415.82426843 0 94.22666566 0 26128
0.15650000 0.15649500 10035.37195636 0 75.49074902 0 2184.65419152 0 336.93400940 0 -206.95611687 0 26331
0.15750000 0.15749700 9978.52798561 0 110.04462178 0 2183.18166627 0 142.20996866 0 -481.14593795 0 27345
0.15850000 0.15849900 9801.81371547 0 135.54538684 0 2011.61561417 0 -274.50231118 0 -227.53887242 0 26980
0.15950000 0.15949700 9755.34486535 0 58.81187147 0 1946.13882366 0 -25.18366630 0 -491.35020069 0 27777
0.16050000 0.16050000 9838.79545638 0 52.04218957 0 2075.88965505 0 218.06862418 0 251.21955132 0 28224
0.16150000 0.16150500 9728.32234099 0 98.47203463 0 1914.01304387 0 165.77599292 0 -138.34543294 0 28075
0.16250000 0.16249700 9808.71547502 0 149.50177879 0 2079.07075920 0 138.32519977 0 252.58191819 0 28590
0.16350000 0.16349900 9488.36816984 0 256.71622952 0 2067.22311333 0 232.96248640 0 348.22973932 0 29163
0.16450000 0.16449100 9329.35792460 0 239.94742676 0 2001.61143502 0 -96.41162335 0 485.36118198 0 28996
0.16550000 0.16550500 9122.33886009 0 137.45966966 0 1856.91053816 0 45.29038030 0 213.78930845 0 30777
0.16650000 0.16650700 9113.20021104 0 109.20550720 0 1835.89052129 0 149.08362658 0 -51.54906222 0 29211
0.16750000 0.16749900 8897.59328937 0 97.10899332 0 1446.58182387 0 374.65875732 0 -139.16262824 0 30922
0.16850000 0.16850800 8716.56260935 0 163.48290017 0 1453.69715579 0 392.58309898 0 -24.39659594 0 30867
0.16950000 0.16949900 8686.86481012 0 212.10545897 0 1292.62987146 0 107.94790320 0 203.49736864 0 30852
0.17050000 0.17049200 8466.94147856 0 208.66694391 0 1507.73096385 0 309.78446569 0 264.05525039 0 31257
0.17150000 0.17149500 8276.83959340 0 220.14702050 0 1627.71366975 0 -243.53319435 0 555.61524905 0 32608
0.17250000 0.17250900 8265.34040770 0 157.22522990 0 1937.21374698 0 -321.11953789 0 1139.18374833 0 32361
0.17350000 0.17350400 8180.05759061 0 97.45048429 0 2432.07215476 0 -299.94777224 0 1273.77930019 0 32508
0.17450000 0.17449800 8185.67791597 0 81.11680712 0 2415.31234452 0 -205.05307470 0 1475.81875642 0 32791
0.17550000 0.17549800 8172.47015136 0 44.10842587 0 2569.15189042 0 116.79710549 0 915.04742089 0 33633
0.17650000 0.17650100 8151.71991011 0 11.01361207 0 2353.44380290 0 137.00217517 0 1120.88172081 0 33984
0.17750000 0.17750300 8084.21980248 0 101.58445841 0 2200.67211881 0 121.52941944 0 533.62066776 0 34069
