### header ###
fiducial parameters:
Omega_m = 0.31
Omega_nu = 0
Omega_de = 0.69
Omega_k = 0
H_0 = 100
w_de = -1
zeff = 0
beta = 0
fgrowth = 0
b_1 = 2
gamma = 0.55
Lx = 3500 Ly = 3500 Lz = 3500
nx = 700 ny = 700 nz = 700
xoffset = 857.220397 yoffset = 15.9954215 zoffset = 262.898189
bins = 400 dk = 0.001
kx_ny = 0.628318531 ky_ny = 0.628318531 kz_ny = 0.628318531
############################
A(data) = 3.04254994 (not used)
A(ran) = 3.03954588 (used)
Ngal = 185490
weighted Ngal = 0
Nran = 9360983
weighted Nran = 0
SN(data) = 3450.67642
SN(ran) = 68.2567773
SN(data+ran) = 3518.9332
############################
13 columns: k_central k_mean P_0(k) sigma^{lin}_{P_0(k)} P^img_1(k) sigma^{lin}_{P_1(k)} P_2(k) sigma^{lin}_{P_2(k)} P^img_3(k) sigma^{lin}_{P_3(k)} P_4(k) sigma^{lin}_{P_4(k)} N_modes
### header ###
0.00050000 0 0 0 0 0 0 0 0 0 0 0 0
0.00150000 0.00179520 14825.96868815 0 -21158.27687094 0 -8250.60391460 0 39762.79030232 0 20424.59959773 0 3
0.00250000 0.00253879 25199.96524778 0 -19186.21710670 0 -604.72902429 0 -15802.33161064 0 -16463.50668664 0 6
0.00350000 0.00331552 40206.57119317 0 -14275.51402185 0 -9094.46204627 0 12052.11330726 0 9985.15996955 0 7
0.00450000 0.00420575 50479.73911575 0 -9718.23947729 0 -10138.83090569 0 2088.54662777 0 -8399.10415140 0 24
0.00550000 0.00557378 55937.41226517 0 2667.58626888 0 -21312.27378596 0 1847.01876551 0 12606.38979481 0 45
0.00650000 0.00659388 53262.36220421 0 -2006.23134247 0 -16035.23789379 0 -7030.19522408 0 -18953.76044958 0 40
0.00750000 0.00754703 49022.61356149 0 -1705.60013867 0 -29324.72203352 0 335.85490693 0 18302.13992671 0 57
0.00850000 0.00846663 54581.22775447 0 -9483.42228352 0 -36477.59771968 0 899.73765459 0 -7021.59612627 0 75
0.00950000 0.00948925 56818.67928248 0 -9975.09958714 0 -44081.89793919 0 -4478.02795691 0 1336.54709387 0 112
0.01050000 0.01054430 68134.86718638 0 -11024.89768086 0 -43704.54929415 0 -17502.70484672 0 -11813.24947923 0 105
0.01150000 0.01145670 65384.50476552 0 -839.40795805 0 -41316.36063985 0 -29829.53965785 0 -11714.44415930 0 144
0.01250000 0.01249090 66493.50736664 0 839.04151284 0 -34253.52256604 0 -24039.36805980 0 -4518.41561499 0 169
0.01350000 0.01339930 62120.33219975 0 -922.05147036 0 -30824.67446706 0 -11426.34628107 0 1753.47407013 0 180
0.01450000 0.01448870 68674.86804750 0 -4336.60933006 0 -28515.50758739 0 -10516.15706943 0 -5521.83478379 0 267
0.01550000 0.01550050 62568.27213138 0 -6910.98812308 0 -12734.98283917 0 -8932.65287900 0 -16395.72556273 0 238
0.01650000 0.01653350 78384.76696194 0 -1678.29659804 0 -24819.35681403 0 -19269.51032862 0 -15067.08064633 0 315
0.01750000 0.01747870 77012.62072721 0 -178.23175799 0 -6945.74421514 0 -20793.74256774 0 -17407.94616106 0 297
0.01850000 0.01844180 76728.45707673 0 7426.40568105 0 -1418.89610112 0 -30300.29811046 0 -15305.60725484 0 388
0.01950000 0.01947590 71857.09626944 0 4602.90034588 0 12284.56996438 0 -15400.70316002 0 -13765.52569819 0 399
0.02050000 0.02045430 68726.46263435 0 3639.32928392 0 18654.98395315 0 -9223.45975406 0 -16617.72841467 0 462
0.02150000 0.02154770 71247.62818681 0 -278.83558203 0 27382.11277419 0 4564.40111713 0 -1236.07815763 0 571
0.02250000 0.02255340 71600.92183928 0 -2931.50550739 0 29943.51985626 0 10757.30274956 0 -10564.50310822 0 510
0.02350000 0.02348930 74509.44021593 0 -1101.99068319 0 33339.54525511 0 12951.59017876 0 16212.39054931 0 555
0.02450000 0.02439640 73564.88833500 0 2260.75339697 0 32641.16362519 0 9992.25282016 0 2103.04706721 0 592
0.02550000 0.02547300 72449.14134344 0 6204.06359861 0 35098.48228149 0 7359.18658968 0 28119.49946214 0 837
0.02650000 0.02652900 65212.18558982 0 4395.57778380 0 34738.66905159 0 13939.98059753 0 24111.64544401 0 723
0.02750000 0.02749970 61752.76292085 0 1931.41357120 0 26957.66580258 0 15348.77135365 0 31900.06752249 0 826
0.02850000 0.02848090 62890.99121387 0 -2644.53169423 0 28052.95480981 0 9704.76193706 0 21628.81051054 0 831
0.02950000 0.02946900 62927.18610922 0 -2180.07924667 0 13477.87744598 0 8506.20507157 0 13980.33453366 0 996
0.03050000 0.03053250 64119.81915178 0 -382.56543104 0 15930.02540295 0 -1629.78194949 0 7096.91972682 0 1041
0.03150000 0.03150510 62677.53125648 0 1334.90595886 0 6385.37529490 0 -2709.64878391 0 2186.71123060 0 1036
0.03250000 0.03246190 61231.19672693 0 892.87186512 0 10478.97299681 0 -6032.05916112 0 -4388.40624863 0 1059
0.03350000 0.03345080 60330.59579036 0 3646.32096867 0 7256.70557696 0 -2429.30695468 0 -7419.20042393 0 1302
0.03450000 0.03451200 55594.34760486 0 3766.55096889 0 8900.34724880 0 -1616.25944666 0 -8341.59698226 0 1339
0.03550000 0.03553350 54294.59116083 0 2623.92758144 0 6586.86395925 0 779.36377404 0 -6723.31421847 0 1365
0.03650000 0.03647120 51858.51733441 0 2349.34096538 0 10255.99220826 0 4215.45759649 0 -2479.86740167 0 1308
0.03750000 0.03744890 51974.18363043 0 822.39410911 0 6267.92173541 0 5629.64386495 0 -442.05095471 0 1579
0.03850000 0.03847530 50288.87286634 0 771.50543512 0 5208.96251134 0 3825.04731530 0 3901.18024270 0 1662
0.03950000 0.03950240 48924.25786760 0 2229.23461232 0 4209.19655403 0 1945.27329355 0 5255.94843140 0 1683
0.04050000 0.04050350 47772.31598068 0 2480.68796917 0 4677.59446999 0 2607.42630616 0 6473.07485190 0 1822
0.04150000 0.04152450 45567.46233980 0 3352.65896833 0 6655.12843114 0 569.67280685 0 12346.95557594 0 1887
0.04250000 0.04250150 43484.45735284 0 2956.52719592 0 3717.53049105 0 691.18648938 0 7080.15991658 0 1920
0.04350000 0.04349210 39774.03095305 0 952.25509887 0 8377.20736378 0 2055.17313575 0 12942.82247119 0 2005
0.04450000 0.04448520 40907.76298577 0 -298.00089153 0 6202.55735141 0 283.63196770 0 5437.57486591 0 2151
0.04550000 0.04548030 41852.98930574 0 -732.50374928 0 9885.42167561 0 895.16270974 0 11069.99517159 0 2274
0.04650000 0.04648670 42151.76580217 0 -253.55760667 0 9275.14426612 0 -2875.32473504 0 10840.56224952 0 2311
0.04750000 0.04749250 44012.54312418 0 264.86570130 0 9300.09851075 0 -199.61822007 0 11599.90192835 0 2568
0.04850000 0.04851840 43056.18855999 0 96.40285564 0 9417.19236941 0 1590.03500850 0 11112.24877769 0 2493
0.04950000 0.04949480 41904.02186006 0 1291.56200964 0 7441.41194977 0 2942.27405079 0 6240.60695413 0 2644
0.05050000 0.05050630 40512.99133210 0 1275.80261732 0 7166.60052070 0 938.78542710 0 5121.31915759 0 2829
0.05150000 0.05149060 39134.55033296 0 2957.67374229 0 6347.11211981 0 90.73543195 0 449.10895931 0 2784
0.05250000 0.05249300 36060.23235803 0 1388.25408723 0 5825.92810802 0 -534.28386616 0 667.84640221 0 3055
0.05350000 0.05348950 34000.49551809 0 697.49811477 0 3781.18629614 0 -330.47513149 0 -3582.19305625 0 3009
0.05450000 0.05448610 35257.20026981 0 -716.83765435 0 5771.72569019 0 -517.97593007 0 -3450.12665082 0 3336
0.05550000 0.05550870 34846.91651813 0 -200.21285050 0 4663.46497202 0 -2331.26599900 0 -4515.43684254 0 3349
0.05650000 0.05647670 36093.50468420 0 266.03585305 0 8609.24811682 0 -1783.71142060 0 -5628.86826005 0 3324
0.05750000 0.05747970 35309.35688920 0 916.23330954 0 8320.62192800 0 -3335.43829141 0 -4339.10475453 0 3639
0.05850000 0.05849280 36059.10829296 0 250.49902561 0 11480.52621759 0 -1074.40163004 0 -3809.37784818 0 3846
0.05950000 0.05951020 35343.64087393 0 -23.32974578 0 11028.56213300 0 -64.22649293 0 -2257.49360826 0 3787
0.06050000 0.06049470 36237.60982657 0 -179.28500696 0 11330.01390430 0 2216.54391764 0 -3483.57882739 0 3930
0.06150000 0.06148310 36237.60982657 0 -246.66596371 0 11664.42326355 0 1795.63775102 0 -2451.18126100 0 4083
0.06250000 0.06249100 35467.73765800 0 449.50238208 0 8604.52704351 0 1074.23639247 0 -3298.68136352 0 4303
0.06350000 0.06350600 35994.47455126 0 795.65709728 0 8300.01781521 0 969.04301074 0 -4136.80676332 0 4470
0.06450000 0.06451750 34704.38506686 0 1049.18997451 0 7569.44296160 0 162.34197412 0 -3159.71319853 0 4479
0.06550000 0.06550280 34053.66379604 0 912.57335366 0 8214.71251681 0 -969.32964733 0 -4625.20179693 0 4636
0.06650000 0.06648880 33536.48145591 0 1087.43853676 0 9175.73195106 0 360.77093334 0 104.64135338 0 4653
0.06750000 0.06749660 31725.27540363 0 1347.55169093 0 9819.22548345 0 -289.29388347 0 -1975.73545703 0 5220
0.06850000 0.06852730 31795.86669022 0 1280.52369062 0 9976.20117091 0 232.05761402 0 2713.11090434 0 5029
0.06950000 0.06949320 30454.18261897 0 1036.18566568 0 12197.79214074 0 1134.76617260 0 805.28808682 0 5040
0.07050000 0.07048030 30844.45801235 0 319.49976012 0 9846.77631840 0 1276.18479944 0 3873.01117197 0 5475
0.07150000 0.07148790 29697.23719874 0 -126.43034316 0 11336.53348173 0 1450.66218009 0 1908.08922094 0 5509
0.07250000 0.07249820 30302.20902108 0 60.25281049 0 9410.89760500 0 982.61160024 0 2468.61551029 0 5916
0.07350000 0.07351270 28814.50889684 0 413.14786949 0 8465.53639722 0 1054.28198930 0 -826.71726338 0 5721
0.07450000 0.07449140 29313.70619580 0 812.62036330 0 7630.18743815 0 566.49057863 0 615.53915809 0 6028
0.07550000 0.07549160 27538.80744538 0 944.71374630 0 7714.79581620 0 865.81561881 0 384.26501743 0 6183
0.07650000 0.07648840 27702.13410050 0 766.92374588 0 7019.91002866 0 1601.12953077 0 -1378.45223979 0 6330
0.07750000 0.07749960 26285.25007586 0 397.89992677 0 6790.00499926 0 251.21842725 0 400.62803270 0 6583
0.07850000 0.07848650 26376.07453376 0 708.57352793 0 6900.24206098 0 746.37920854 0 -417.47776815 0 6549
0.07950000 0.07947320 25611.48547104 0 702.79133720 0 7836.49834167 0 -35.22415276 0 1649.98139885 0 6828
0.08050000 0.08048110 25132.63374990 0 846.79081745 0 7888.85729277 0 26.86200786 0 2298.15104195 0 7147
0.08150000 0.08149960 23940.67514639 0 777.20556910 0 7647.43059637 0 569.00511220 0 2237.02438328 0 7386
0.08250000 0.08250610 23824.55922434 0 433.07866730 0 7955.98645894 0 1093.44329238 0 2842.95166093 0 7227
0.08350000 0.08350160 23184.29175870 0 537.89211504 0 6488.81176292 0 1915.33944066 0 3201.13499647 0 7798
0.08450000 0.08449610 22656.88042640 0 587.24756427 0 6365.54678701 0 1074.17007263 0 2193.28701128 0 7371
0.08550000 0.08548940 22156.44665586 0 411.61576879 0 4177.95878565 0 935.36602115 0 1305.20815963 0 8256
0.08650000 0.08650700 21434.90928543 0 340.34554690 0 4356.06689648 0 100.86449473 0 1349.57500806 0 8037
0.08750000 0.08749060 21262.14048370 0 50.85101781 0 3534.28540284 0 -874.21126085 0 -188.47423894 0 8155
0.08850000 0.08849210 20989.77951649 0 11.84562255 0 4169.83179517 0 26.79726172 0 -337.12397640 0 8718
0.08950000 0.08949900 21244.15544253 0 -79.14744511 0 4161.54743558 0 -619.45202861 0 -2049.42916323 0 8571
0.09050000 0.09049190 21230.10462912 0 288.22152539 0 4151.66690359 0 -765.36916388 0 -2510.21715864 0 8932
0.09150000 0.09150830 20970.22078422 0 304.98133563 0 4446.14947144 0 -116.23057669 0 -2512.90367417 0 9285
0.09250000 0.09250820 20650.31186441 0 588.33790739 0 5014.43180979 0 124.65994067 0 -1624.46512169 0 9204
0.09350000 0.09350330 20087.15526279 0 555.62986189 0 4971.29019229 0 107.01785176 0 -1165.09344827 0 9349
0.09450000 0.09448040 19708.23292665 0 599.57293780 0 5779.76275546 0 -441.61931372 0 -1573.70234299 0 9564
0.09550000 0.09549270 19625.16451774 0 516.94066614 0 6059.65495867 0 -476.06403976 0 -250.46080739 0 10155
0.09650000 0.09649430 19402.15000724 0 506.58015836 0 6938.43779216 0 -713.30809002 0 -647.93358944 0 9913
0.09750000 0.09749140 19051.77892396 0 287.58980082 0 7206.78584706 0 -1000.39318563 0 -561.16251018 0 10476
0.09850000 0.09850240 18969.60976711 0 358.44411864 0 8188.13961848 0 -281.14665982 0 -776.23999720 0 10575
0.09950000 0.09950330 18449.95448382 0 325.10547264 0 7512.07068027 0 234.04383700 0 -1353.31814476 0 10882
0.10050000 0.10051200 18538.53081158 0 364.30724206 0 7377.73366338 0 988.25890316 0 -755.73367808 0 10875
0.10150000 0.10150300 17668.72925802 0 440.68746378 0 6892.01390464 0 1547.14068531 0 -1370.42641517 0 11118
0.10250000 0.10250800 17634.55767979 0 455.87470698 0 6576.84853945 0 957.27292536 0 306.84166333 0 11575
0.10350000 0.10349800 17132.88743767 0 289.06682233 0 6228.37712614 0 1236.84252188 0 -96.54538710 0 11364
0.10450000 0.10450100 16814.32739595 0 435.06489028 0 5747.08618379 0 432.15580987 0 1176.53643071 0 12093
0.10550000 0.10551000 16436.30431187 0 271.51567028 0 5616.99813288 0 731.57414746 0 888.13955117 0 12067
0.10650000 0.10649700 16256.00427414 0 159.25416736 0 6077.25781771 0 -93.18847916 0 1857.12411052 0 12054
0.10750000 0.10749900 15959.13868834 0 191.95996473 0 4647.22223171 0 641.18470274 0 1400.68624694 0 12807
0.10850000 0.10850100 15984.87977851 0 237.37444181 0 5337.16213293 0 177.81135765 0 1300.57701153 0 12736
0.10950000 0.10950300 15558.97152232 0 40.19679183 0 4359.67514536 0 553.33676914 0 428.12491252 0 12933
0.11050000 0.11050200 15531.20711501 0 84.04522145 0 4110.88582274 0 308.60419736 0 695.26796966 0 13428
0.11150000 0.11150900 15393.84636308 0 -38.76034907 0 3758.05303694 0 462.29536668 0 232.10707288 0 13453
0.11250000 0.11250000 15120.36133079 0 30.81759286 0 3211.37522929 0 34.42471768 0 -491.89087599 0 13668
0.11350000 0.11349100 15534.46690372 0 102.24934290 0 3237.32989183 0 209.14129937 0 121.34619684 0 13791
0.11450000 0.11448600 15093.83339507 0 20.83196078 0 3265.06057718 0 -139.60213769 0 -674.19961800 0 14205
0.11550000 0.11549300 15434.08789269 0 141.73673726 0 3737.39272090 0 -483.48961363 0 -301.93849148 0 14776
0.11650000 0.11649800 15197.13497529 0 108.42282069 0 3524.57348061 0 -375.37591084 0 -1059.02779203 0 14553
0.11750000 0.11747300 15346.97284953 0 190.76508356 0 4840.69631210 0 -151.17551168 0 -313.98959313 0 14568
0.11850000 0.11849100 15159.02916931 0 181.55224622 0 4187.81683634 0 -450.21503934 0 -295.69880626 0 16015
0.11950000 0.11950300 15248.72956214 0 258.38546616 0 4922.01117948 0 534.54240112 0 213.11037314 0 15270
0.12050000 0.12050700 15117.21394859 0 264.86345317 0 4943.21104676 0 69.21880314 0 638.64543974 0 15999
0.12150000 0.12150000 14807.42161444 0 345.19813582 0 5186.66106029 0 433.68004211 0 1594.69987855 0 15670
0.12250000 0.12250700 14653.76191895 0 255.30665192 0 4955.63196582 0 654.48576475 0 1325.98088218 0 16887
0.12350000 0.12352200 14474.24872678 0 236.83264245 0 4458.42426204 0 425.78348497 0 1213.59685617 0 16407
0.12450000 0.12449800 14032.94077908 0 234.84979166 0 4627.80962790 0 354.94490407 0 1016.73933992 0 16306
0.12550000 0.12549900 13861.29604241 0 308.61993427 0 4348.40077268 0 -70.46876350 0 372.71412474 0 17523
0.12650000 0.12650100 13467.53604731 0 407.95693698 0 4135.77262345 0 -86.25636986 0 -25.44197646 0 17154
0.12750000 0.12750600 13012.62691222 0 374.94539391 0 3548.44862276 0 -104.48668202 0 -586.33482343 0 18007
0.12850000 0.12850300 12670.68631699 0 262.70187604 0 3325.73760983 0 257.13775393 0 -1022.39900756 0 17496
0.12950000 0.12949900 12477.45953092 0 167.43736109 0 2741.74084175 0 499.69301166 0 -1150.45812102 0 18405
0.13050000 0.13049000 12344.81985230 0 97.40990554 0 2615.19359582 0 561.41542482 0 -991.09829154 0 18100
0.13150000 0.13148800 12202.06358801 0 210.04954395 0 2295.98159636 0 380.99061588 0 -843.85475948 0 19059
0.13250000 0.13249300 12039.41137194 0 70.95402239 0 2037.44662955 0 411.02113837 0 -448.46936628 0 18957
0.13350000 0.13349100 12021.08911124 0 132.36653081 0 2181.74286298 0 -1.50692164 0 -178.16656222 0 19468
0.13450000 0.13450700 11852.59175679 0 162.34422225 0 2230.85326602 0 44.20127365 0 -284.50986252 0 19953
0.13550000 0.13551000 11991.86341934 0 86.76635818 0 2810.62354943 0 -347.59576662 0 34.03714004 0 19956
0.13650000 0.13649900 11796.27609662 0 151.93425561 0 2817.00823904 0 -259.63655058 0 258.75078731 0 19723
0.13750000 0.13749600 11860.34780579 0 91.25205226 0 3174.32604448 0 -131.24921013 0 763.19859423 0 20946
0.13850000 0.13851100 11857.87486263 0 -41.05411626 0 3463.30069347 0 233.98088936 0 1018.87281543 0 20955
0.13950000 0.13949800 12014.00750128 0 -50.81369885 0 3146.60659978 0 406.28545222 0 925.21683760 0 20506
0.14050000 0.14048300 11971.63024803 0 -30.87840478 0 3228.86568183 0 393.30025249 0 1261.40334373 0 21447
0.14150000 0.14148400 11952.07151576 0 167.90497216 0 3088.32382574 0 276.96288962 0 904.10689553 0 21771
0.14250000 0.14249400 11657.11684057 0 304.95210994 0 2939.23907509 0 22.80413295 0 995.70133801 0 22470
0.14350000 0.14350900 11476.59198983 0 365.13005769 0 2995.67838241 0 -156.59575346 0 784.63226704 0 22519
0.14450000 0.14449900 11018.36686279 0 279.18853847 0 2974.51223709 0 -24.10984694 0 518.40307480 0 22218
0.14550000 0.14550500 10962.26477499 0 247.55285105 0 2979.25579169 0 78.73558767 0 586.24714635 0 23559
0.14650000 0.14650700 10689.71271671 0 146.25772699 0 2785.34332593 0 250.41247259 0 90.98812178 0 23044
0.14750000 0.14750500 10575.28289227 0 134.00092143 0 2631.82975890 0 173.70739607 0 -273.45693066 0 23649
0.14850000 0.14849900 10672.85174062 0 101.67843025 0 2672.59959910 0 -317.91033210 0 -220.22682912 0 23640
0.14950000 0.14949500 10381.51655497 0 17.68041953 0 2158.21618100 0 -249.12092183 0 -679.74800320 0 24457
0.15050000 0.15050000 10538.79574000 0 -16.66302824 0 2677.80402039 0 -395.10325287 0 -708.96919884 0 24591
0.15150000 0.15149900 10461.83100444 0 44.84333962 0 2187.34070705 0 -152.28721204 0 -1247.52114008 0 25020
0.15250000 0.15250500 10506.16413093 0 68.10092042 0 2535.18264392 0 22.93677263 0 -1207.45946087 0 25297
0.15350000 0.15350100 10310.67797406 0 211.52094513 0 2227.97565944 0 106.00349543 0 -1548.14110323 0 25452
0.15450000 0.15450400 10210.84975492 0 142.97433291 0 2399.06960421 0 609.18931450 0 -785.49217682 0 26061
0.15550000 0.15549900 10011.15959469 0 138.15771407 0 1966.67549254 0 564.23120783 0 -901.22029642 0 26128
0.15650000 0.15649500 9913.19732357 0 175.72396881 0 2084.09533008 0 648.10557139 0 52.33231076 0 26331
0.15750000 0.15749700 9774.88111632 0 170.82192103 0 1780.00200586 0 491.71327371 0 184.23426548 0 27345
0.15850000 0.15849900 9553.55270343 0 155.53576010 0 1579.61492527 0 414.15053553 0 912.98588554 0 26980
0.15950000 0.15949700 9457.68119334 0 183.04163244 0 1744.02068287 0 4.09793659 0 1102.49089215 0 27777
0.16050000 0.16050000 9340.75594444 0 132.66665619 0 1798.65024542 0 -145.45177233 0 1158.88860906 0 28224
0.16150000 0.16150500 9331.77466450 0 271.63144898 0 2001.29669680 0 -483.30863916 0 864.45325195 0 28075
0.16250000 0.16249700 9101.77970990 0 217.50434351 0 2052.94748691 0 -333.71019077 0 737.99593122 0 28590
0.16350000 0.16349900 8906.86682622 0 194.15076756 0 2545.73761495 0 -607.57290892 0 538.87342385 0 29163
0.16450000 0.16449100 8938.57670193 0 92.86868265 0 2590.23935120 0 -250.94303131 0 291.45658467 0 28996
0.16550000 0.16550500 8871.24520406 0 39.78144978 0 2655.49132869 0 33.50264710 0 186.49251221 0 30777
0.16650000 0.16650700 8834.31966640 0 2.70146559 0 2388.86309335 0 228.06943114 0 40.43914026 0 29211
0.16750000 0.16749900 8815.95244311 0 0.46913193 0 2330.00704612 0 433.65868488 0 -42.68367339 0 30922
0.16850000 0.16850800 8870.62696827 0 79.21106720 0 2003.83708386 0 377.33515626 0 21.81720382 0 30867
0.16950000 0.16949900 8689.88854516 0 126.49778707 0 1896.78112630 0 28.52270160 0 -63.47247008 0 30852
0.17050000 0.17049200 8635.65240539 0 114.78727713 0 1902.98596550 0 68.38980514 0 -500.23368696 0 31257
0.17150000 0.17149500 8468.16670949 0 173.63545591 0 2023.37333483 0 -243.40842312 0 -273.61317570 0 32608
0.17250000 0.17250900 8363.57245444 0 114.87607828 0 1878.71740057 0 -149.24324382 0 -221.81625713 0 32361
0.17350000 0.17350400 8390.13411212 0 84.28610860 0 1960.59430050 0 263.02897898 0 -406.85535321 0 32508
0.17450000 0.17449800 8262.78877999 0 29.72196663 0 1781.12607093 0 330.82359166 0 26.31863481 0 32791
0.17550000 0.17549800 8231.57349291 0 23.00747632 0 1485.89037948 0 479.82516149 0 -249.41655094 0 33633
0.17650000 0.17650100 8258.02274408 0 29.73680429 0 1552.54743831 0 350.06533759 0 375.24102303 0 33984
0.17750000 0.17750300 8130.13786071 0 101.74227715 0 1235.25759013 0 121.71489018 0 350.82970183 0 34069
0.17850000 0.17849800 8070.67481834 0 126.30219974 0 1370.43765582 0 96.53549532 0 467.60207789 0 34536
