### header ###
fiducial parameters:
Omega_m = 0.31
Omega_nu = 0
Omega_de = 0.69
Omega_k = 0
H_0 = 100
w_de = -1
zeff = 0
beta = 0
fgrowth = 0
b_1 = 2
gamma = 0.55
Lx = 3500 Ly = 3500 Lz = 3500
nx = 700 ny = 700 nz = 700
xoffset = 857.220397 yoffset = 15.9954215 zoffset = 262.898189
bins = 400 dk = 0.001
kx_ny = 0.628318531 ky_ny = 0.628318531 kz_ny = 0.628318531
############################
A(data) = 3.14334669 (not used)
A(ran) = 3.14134988 (used)
Ngal = 191596
weighted Ngal = 0
Nran = 9360983
weighted Nran = 0
SN(data) = 3448.14015
SN(ran) = 70.5429126
SN(data+ran) = 3518.68306
############################
13 columns: k_central k_mean P_0(k) sigma^{lin}_{P_0(k)} P^img_1(k) sigma^{lin}_{P_1(k)} P_2(k) sigma^{lin}_{P_2(k)} P^img_3(k) sigma^{lin}_{P_3(k)} P_4(k) sigma^{lin}_{P_4(k)} N_modes
### header ###
0.00050000 0 0 0 0 0 0 0 0 0 0 0 0
0.00150000 0.00179520 -1081.40230731 0 -1187.81080339 0 -465.02122448 0 4629.76550113 0 -5135.96572550 0 3
0.00250000 0.00253879 2300.11815583 0 -2555.11231766 0 4220.67325842 0 5111.53979146 0 17150.87247884 0 6
0.00350000 0.00331552 5536.99842163 0 -1915.98015775 0 8318.41876046 0 -4796.94769945 0 -25354.07456930 0 7
0.00450000 0.00420575 12628.75868976 0 -1304.38759213 0 15752.98515393 0 -2350.89217518 0 2763.92988629 0 24
0.00550000 0.00557378 18827.19072235 0 -1622.94763384 0 24218.54403246 0 -1110.37845677 0 10677.08946594 0 45
0.00650000 0.00659388 34987.53705878 0 -946.29867805 0 42020.13778211 0 -3525.85491479 0 2725.74539576 0 40
0.00750000 0.00754703 38374.23271752 0 -8334.03202432 0 43579.10363199 0 2064.10945308 0 -15747.58964158 0 57
0.00850000 0.00846663 53296.42137592 0 -8448.83279024 0 63617.02484458 0 2940.18328975 0 7579.25604969 0 75
0.00950000 0.00948925 60273.60569115 0 -1195.97151583 0 64531.67659456 0 5479.64862160 0 -3595.58067127 0 112
0.01050000 0.01054430 65123.49685555 0 -3778.56722452 0 58191.05033022 0 25210.75627248 0 -4531.60089829 0 105
0.01150000 0.01145670 68747.70746423 0 -1111.85098201 0 52002.39766377 0 25886.09456840 0 13309.38009152 0 144
0.01250000 0.01249090 74542.48772908 0 -5836.79781727 0 30164.62345614 0 39799.21001068 0 -10182.21981751 0 169
0.01350000 0.01339930 77225.85587158 0 -5881.53560718 0 29424.87623153 0 20332.31385523 0 1608.48091635 0 180
0.01450000 0.01448870 81480.89179929 0 4254.02426914 0 24732.69139689 0 -11674.20262969 0 -4360.39454701 0 267
0.01550000 0.01550050 73223.73458532 0 10112.78631794 0 32976.92186252 0 -10987.72484889 0 -7174.09803474 0 238
0.01650000 0.01653350 67279.11644623 0 9822.84497299 0 44730.82070589 0 -18233.45955074 0 14829.22847686 0 315
0.01750000 0.01747870 59841.51507706 0 4808.34571929 0 46085.09430596 0 9511.40026319 0 8332.70562753 0 297
0.01850000 0.01844180 62957.87308572 0 -185.52694032 0 56013.96109665 0 11117.85786241 0 11411.17140258 0 388
0.01950000 0.01947590 61143.74446424 0 -3343.59900384 0 35974.12897343 0 23235.99875206 0 -14993.00475801 0 399
0.02050000 0.02045430 64253.80770849 0 -1720.71881390 0 34820.61339542 0 15919.90881729 0 -3689.29397642 0 462
0.02150000 0.02154770 65590.88311294 0 -1661.34569674 0 23052.55133213 0 5823.75866243 0 -3546.16677066 0 571
0.02250000 0.02255340 68195.90391985 0 -535.50122863 0 23929.20968264 0 -1350.56418533 0 1888.82274558 0 510
0.02350000 0.02348930 71867.77488764 0 180.79013010 0 28705.92421078 0 -1974.12804398 0 6319.69617268 0 555
0.02450000 0.02439640 71717.82460688 0 2772.70883451 0 30805.11573479 0 -5613.77206612 0 7177.44774866 0 592
0.02550000 0.02547300 70605.56221705 0 2913.68907598 0 41083.11713718 0 2210.63133536 0 19844.58202001 0 837
0.02650000 0.02652900 68878.32382573 0 3759.01973290 0 44597.39418171 0 6964.48237991 0 20260.71091007 0 723
0.02750000 0.02749970 68082.03612795 0 2040.40292069 0 50028.20217589 0 14354.19857697 0 26806.02942422 0 826
0.02850000 0.02848090 64085.42276054 0 1688.86280973 0 36045.39469907 0 14958.38355376 0 13579.71774160 0 831
0.02950000 0.02946900 60707.71962239 0 900.24685607 0 28514.94555486 0 20493.39238021 0 12281.42258217 0 996
0.03050000 0.03053250 59356.70581103 0 -46.78527444 0 16442.03704374 0 9399.36469735 0 9796.13718685 0 1041
0.03150000 0.03150510 58765.11036306 0 -497.51569761 0 5692.22056757 0 10920.37086971 0 -617.23312416 0 1036
0.03250000 0.03246190 56310.26464991 0 2346.81181897 0 1354.83563261 0 1224.50028738 0 -2729.12883163 0 1059
0.03350000 0.03345080 53658.59514247 0 3414.66239776 0 2342.54037169 0 -4380.30173946 0 -1210.12349510 0 1302
0.03450000 0.03451200 50033.03565570 0 5057.70831511 0 7582.67320751 0 -4825.48771166 0 3132.76935873 0 1339
0.03550000 0.03553350 47941.03814816 0 4320.27666455 0 17137.04647844 0 -4284.83489280 0 3533.09389386 0 1365
0.03650000 0.03647120 46422.87586043 0 1219.31834739 0 18122.96395406 0 -2114.45632771 0 8394.07958053 0 1308
0.03750000 0.03744890 47732.18685757 0 -393.15749623 0 24999.88166477 0 1489.22885275 0 11340.80492900 0 1579
0.03850000 0.03847530 47971.16309211 0 -1152.94230483 0 24585.88849835 0 6442.69137297 0 13446.06640441 0 1662
0.03950000 0.03950240 50168.14827749 0 -1211.87703661 0 22324.04475826 0 2601.88466535 0 7330.18571079 0 1683
0.04050000 0.04050350 50797.73712493 0 -401.05742556 0 22753.99964872 0 1584.12242622 0 4353.40286226 0 1822
0.04150000 0.04152450 50247.39486514 0 43.40824574 0 22674.30343503 0 -1223.56731337 0 9317.55524133 0 1887
0.04250000 0.04250150 50565.84250035 0 896.24855660 0 21910.16399834 0 -532.13240561 0 863.59896249 0 1920
0.04350000 0.04349210 47968.91496197 0 1239.81005368 0 21126.12860985 0 608.96112929 0 6711.35416610 0 2005
0.04450000 0.04448520 48786.67230265 0 1678.30783869 0 23055.47390132 0 2340.97792124 0 730.65129004 0 2151
0.04550000 0.04548030 47938.11557897 0 2183.90106792 0 23048.61710438 0 84.49046363 0 4598.32540103 0 2274
0.04650000 0.04648670 45186.74149954 0 1993.01233721 0 22330.00230314 0 2615.44089013 0 1275.71269211 0 2311
0.04750000 0.04749250 43126.89225309 0 670.76447514 0 20782.72673002 0 -1042.76144636 0 -1130.76450093 0 2568
0.04850000 0.04851840 43800.65685790 0 208.69841773 0 18565.28356032 0 1202.27752089 0 1595.48672411 0 2493
0.04950000 0.04949480 42885.10585586 0 -31.32016235 0 18577.19865009 0 2186.82363711 0 -5228.29643060 0 2644
0.05050000 0.05050630 41576.13207824 0 250.89357245 0 15499.84569947 0 2833.23973870 0 -609.03644165 0 2829
0.05150000 0.05149060 42421.76623273 0 647.89649529 0 13356.81563761 0 4649.51532446 0 -7948.16296603 0 2784
0.05250000 0.05249300 40534.68578801 0 1728.89076698 0 14278.99862358 0 3292.24047065 0 -1345.78690877 0 3055
0.05350000 0.05348950 38028.24548802 0 1932.09925090 0 11856.18876502 0 3748.50972447 0 -1085.68611931 0 3009
0.05450000 0.05448610 37065.25893989 0 737.60700471 0 10920.78677379 0 2666.87810788 0 2137.51090235 0 3336
0.05550000 0.05550870 35938.38370411 0 935.95278312 0 9207.83524955 0 1098.42065252 0 301.02912284 0 3349
0.05650000 0.05647670 35640.05683371 0 564.04236490 0 10552.56553714 0 876.14128058 0 -493.27347603 0 3324
0.05750000 0.05747970 35431.65516916 0 704.23463675 0 10325.33578262 0 -3227.74161675 0 2023.99157062 0 3639
0.05850000 0.05849280 34239.58415914 0 1169.63467116 0 13100.52880094 0 -2626.72650347 0 450.09364031 0 3846
0.05950000 0.05951020 34504.52629687 0 1069.26690079 0 14537.64599690 0 -1807.85633837 0 5447.60152636 0 3787
0.06050000 0.06049470 33229.94891048 0 1028.97591231 0 16749.01921521 0 -189.77028597 0 2387.73902828 0 3930
0.06150000 0.06148310 33546.48563506 0 531.89185568 0 18543.36429139 0 1379.50886096 0 5946.95619444 0 4083
0.06250000 0.06249100 33443.52127437 0 201.91131282 0 19496.45906687 0 1208.19010317 0 4157.65817043 0 4303
0.06350000 0.06350600 33222.53008100 0 399.41179429 0 18378.57635168 0 801.44715647 0 3638.01412778 0 4470
0.06450000 0.06451750 33270.41525311 0 145.88790958 0 19350.21820086 0 501.76241546 0 4135.81758606 0 4479
0.06550000 0.06550280 32786.61764565 0 243.38369369 0 18681.62429539 0 1360.95054660 0 1500.00863680 0 4636
0.06650000 0.06648880 33342.46782430 0 -344.40342181 0 15895.85382472 0 559.55622119 0 -775.55431751 0 4653
0.06750000 0.06749660 31908.04838451 0 367.38942849 0 16265.78364028 0 1027.26283713 0 -2587.49663242 0 5220
0.06850000 0.06852730 31900.51714852 0 1026.20509190 0 14640.04832506 0 938.74608482 0 -2045.28136311 0 5029
0.06950000 0.06949320 30791.40214090 0 1121.11889854 0 12343.35856770 0 1490.49904628 0 -1207.09976005 0 5040
0.07050000 0.07048030 30398.42899134 0 880.45769046 0 13312.97709976 0 2699.40855110 0 1315.99918433 0 5475
0.07150000 0.07148790 29226.92837216 0 413.16922672 0 10233.05004012 0 3671.20776939 0 51.64842957 0 5509
0.07250000 0.07249820 28392.87208792 0 494.28850679 0 9224.47141263 0 3833.62393180 0 2835.69020056 0 5916
0.07350000 0.07351270 28289.45810119 0 480.20397142 0 7996.89118695 0 1524.38960823 0 847.61588122 0 5721
0.07450000 0.07449140 27688.75772613 0 768.99539781 0 6468.80340462 0 591.79440749 0 2692.78780781 0 6028
0.07550000 0.07549160 26796.02524507 0 881.89087343 0 7352.68949355 0 -327.49411092 0 2859.88008093 0 6183
0.07650000 0.07648840 25883.62162524 0 639.10855455 0 6023.56122917 0 -1063.99166340 0 1814.99415158 0 6330
0.07750000 0.07749960 26070.77845991 0 603.09126147 0 8636.85515501 0 -382.27654632 0 3761.88609884 0 6583
0.07850000 0.07848650 25434.44522203 0 902.02063075 0 9116.05533633 0 -547.39496117 0 2195.16419995 0 6549
0.07950000 0.07947320 24716.72967285 0 697.73304437 0 10563.19919274 0 29.33225327 0 4451.73607485 0 6828
0.08050000 0.08048110 24089.50136207 0 818.14851533 0 11014.92722366 0 -245.29910058 0 4358.69720875 0 7147
0.08150000 0.08149960 24419.07724150 0 502.29747043 0 12244.77806079 0 1088.10735548 0 7518.07318776 0 7386
0.08250000 0.08250610 23056.26074687 0 385.69482821 0 10935.71435796 0 2068.92045159 0 5493.15988378 0 7227
0.08350000 0.08350160 23336.60257610 0 362.86731470 0 10792.04760097 0 1087.40931107 0 6673.91155851 0 7798
0.08450000 0.08449610 21946.24648719 0 401.81841762 0 9669.43257181 0 1323.45173577 0 4093.91244013 0 7371
0.08550000 0.08548940 22204.55664099 0 296.73519426 0 8982.08926091 0 512.61413968 0 2932.39351880 0 8256
0.08650000 0.08650700 21599.58481864 0 623.86398403 0 7851.74066406 0 -994.76611587 0 894.10608857 0 8037
0.08750000 0.08749060 21493.13585622 0 283.71177632 0 8340.42795459 0 -733.89084558 0 386.38725229 0 8155
0.08850000 0.08849210 21170.19196072 0 274.93282810 0 8586.64316820 0 -1184.30372037 0 -364.24429442 0 8718
0.08950000 0.08949900 21285.18381770 0 173.79057689 0 8171.17747653 0 -228.81805848 0 -1585.20152869 0 8571
0.09050000 0.09049190 21031.70714371 0 275.91413691 0 9225.20205492 0 408.13341520 0 -950.93657054 0 8932
0.09150000 0.09150830 21024.62553375 0 254.71426963 0 8614.96960804 0 658.21990892 0 -1187.84452535 0 9285
0.09250000 0.09250820 20888.83847292 0 237.05183514 0 8861.42087532 0 1259.95329979 0 -1063.61060534 0 9204
0.09350000 0.09350330 20625.91965232 0 432.74369591 0 8489.38905807 0 803.57388759 0 -162.83431462 0 9349
0.09450000 0.09448040 19940.57717726 0 705.49358963 0 8090.84054576 0 296.71720922 0 -829.76010753 0 9564
0.09550000 0.09549270 19412.15418639 0 620.29620148 0 7987.53896554 0 839.85421189 0 1076.16641220 0 10155
0.09650000 0.09649430 18505.03367240 0 440.99882980 0 8142.34520741 0 1067.66735619 0 1227.40037527 0 9913
0.09750000 0.09749140 18631.82821265 0 71.19727007 0 6355.45268265 0 1572.21857709 0 2241.75669723 0 10476
0.09850000 0.09850240 18316.86517916 0 -148.16414135 0 6643.98894627 0 1562.24811989 0 1237.46075767 0 10575
0.09950000 0.09950330 18519.19689232 0 53.63746272 0 5789.48591835 0 249.77737583 0 1480.64099559 0 10882
0.10050000 0.10051200 18284.26729204 0 154.50049617 0 5856.26662434 0 -71.04124984 0 1395.36941914 0 10875
0.10150000 0.10150300 18008.30931660 0 646.90619396 0 5442.66688069 0 -1023.59051654 0 593.46589225 0 11118
0.10250000 0.10250800 17571.94725522 0 413.45136706 0 6404.65301090 0 -490.30144797 0 1564.87843217 0 11575
0.10350000 0.10349800 17224.94836716 0 208.39492016 0 6247.62112019 0 605.88905944 0 -85.75301352 0 11364
0.10450000 0.10450100 17137.83332399 0 164.47207743 0 5787.68741423 0 313.67597897 0 598.39154540 0 12093
0.10550000 0.10551000 16994.06540114 0 135.66341367 0 5750.31225055 0 1164.55389703 0 296.21812432 0 12067
0.10650000 0.10649700 17046.44683355 0 102.18470916 0 5951.69974905 0 538.79811149 0 1880.38101688 0 12054
0.10750000 0.10749900 16914.36918746 0 246.01175783 0 5200.62194850 0 511.82617006 0 1747.11186182 0 12807
0.10850000 0.10850100 16839.61886010 0 34.19181139 0 5512.07789896 0 995.37086288 0 2682.92975712 0 12736
0.10950000 0.10950300 16543.42771334 0 181.46681727 0 4540.15503350 0 1217.98070996 0 2134.22863234 0 12933
0.11050000 0.11050200 16255.77946113 0 235.18139085 0 3904.24894035 0 1068.66665004 0 2113.93925777 0 13428
0.11150000 0.11150900 15969.03046098 0 363.29333537 0 3129.10490659 0 714.13765005 0 1704.85825572 0 13453
0.11250000 0.11250000 15396.54411925 0 433.45410503 0 2054.04907068 0 294.92994575 0 763.94946970 0 13668
0.11350000 0.11349100 15052.46780038 0 405.45589219 0 1572.58951857 0 -72.52355445 0 -166.53586090 0 13791
0.11450000 0.11448600 14535.06064723 0 386.70536271 0 1335.05208732 0 -835.13988297 0 -924.33669465 0 14205
0.11550000 0.11549300 14161.64622995 0 321.91874815 0 1429.18129654 0 -909.00219892 0 -1537.45124438 0 14776
0.11650000 0.11649800 14153.66536793 0 263.68093672 0 2023.10355921 0 -1061.55693845 0 -1682.35447296 0 14553
0.11750000 0.11747300 13908.28196247 0 21.40579600 0 2502.39366573 0 -182.52681063 0 -1909.93268765 0 14568
0.11850000 0.11849100 14241.79206966 0 -102.33769442 0 2993.05931079 0 -383.05889561 0 -1251.66894020 0 16015
0.11950000 0.11950300 14353.52413792 0 -142.32574736 0 3439.42555132 0 -17.98391710 0 -1021.66499307 0 15270
0.12050000 0.12050700 14527.86663076 0 -33.93642381 0 4009.00056451 0 -81.36016721 0 -305.65352655 0 15999
0.12150000 0.12150000 14736.83032785 0 86.08753528 0 4019.20707537 0 313.42418840 0 -556.47515883 0 15670
0.12250000 0.12250700 14496.16799570 0 87.96753412 0 3911.24062510 0 -43.41487772 0 -96.70770209 0 16887
0.12350000 0.12352200 14532.70011058 0 104.47386768 0 4084.69510653 0 54.39845477 0 -833.12668242 0 16407
0.12450000 0.12449800 14310.58485213 0 88.08589817 0 4047.40986806 0 121.51031034 0 -578.34047263 0 16306
0.12550000 0.12549900 14333.29096661 0 97.13361035 0 3639.49789368 0 -57.73198215 0 -1392.64918167 0 17523
0.12650000 0.12650100 14337.22519436 0 36.37890481 0 3958.78857769 0 27.76002345 0 -1457.09183231 0 17154
0.12750000 0.12750600 14229.87697988 0 54.46106520 0 3728.32151576 0 -166.92928368 0 -1306.54579707 0 18007
0.12850000 0.12850300 14319.24015319 0 77.84937477 0 4144.24807410 0 47.40171173 0 -1442.78248393 0 17496
0.12950000 0.12949900 14407.36685493 0 39.49290228 0 4135.61525434 0 47.82728276 0 -944.19218010 0 18405
0.13050000 0.13049000 14237.63302889 0 218.83636063 0 4622.27922774 0 -129.15395283 0 -1263.19060720 0 18100
0.13150000 0.13148800 14139.83936753 0 361.32397336 0 4562.25415284 0 156.56652777 0 -57.79897643 0 19059
0.13250000 0.13249300 13808.68979699 0 354.37387901 0 4691.78017121 0 99.77999675 0 -765.80305300 0 18957
0.13350000 0.13349100 13562.18232646 0 441.94079633 0 4622.63892856 0 251.55452271 0 -157.33651235 0 19468
0.13450000 0.13450700 13068.04332033 0 301.42254561 0 4023.83822347 0 339.94088347 0 -70.95975512 0 19953
0.13550000 0.13551000 12797.81807676 0 334.86910186 0 4082.94156502 0 660.69847241 0 -61.44690481 0 19956
0.13650000 0.13649900 12541.64364660 0 157.06224047 0 3247.15422057 0 565.95327552 0 23.32738524 0 19723
0.13750000 0.13749600 12352.68830781 0 199.02021745 0 3322.24176745 0 492.81260935 0 82.68319180 0 20946
0.13850000 0.13851100 12273.66653317 0 81.36230293 0 2837.52242663 0 337.34204502 0 635.49468534 0 20955
0.13950000 0.13949800 12172.27586358 0 -28.69962945 0 3204.92309577 0 436.98816562 0 961.12060010 0 20506
0.14050000 0.14048300 12208.69557194 0 70.35916715 0 2741.85324826 0 569.88413109 0 1306.25354015 0 21447
0.14150000 0.14148400 12147.88365149 0 67.09229683 0 2736.55890176 0 445.43214245 0 1415.08552052 0 21771
0.14250000 0.14249400 12015.69359889 0 187.93019144 0 2590.00329753 0 477.02511540 0 1663.38025452 0 22470
0.14350000 0.14350900 11827.63751216 0 264.01141185 0 2693.68705987 0 323.76221487 0 1755.90205069 0 22519
0.14450000 0.14449900 11490.53039674 0 372.45109352 0 2366.79769597 0 -38.18808754 0 1367.38019882 0 22218
0.14550000 0.14550500 11333.27369301 0 448.01299586 0 2852.83219292 0 -562.60468567 0 1581.78437087 0 23559
0.14650000 0.14650700 10902.08233097 0 397.29068350 0 2752.92528923 0 -410.13649916 0 1609.20031800 0 23044
0.14750000 0.14750500 10734.72028224 0 198.46380524 0 3023.98234095 0 -178.16543815 0 1734.11766957 0 23649
0.14850000 0.14849900 10654.02365064 0 23.95146617 0 2964.45185468 0 196.80918145 0 1399.13503714 0 23640
0.14950000 0.14949500 10756.98801134 0 -82.54189682 0 2700.27408120 0 294.97378429 0 895.19867983 0 24457
0.15050000 0.15050000 10744.72446139 0 -49.28823014 0 2781.49902338 0 189.98610646 0 865.84596857 0 24591
0.15150000 0.15149900 10868.25921292 0 160.97960725 0 2602.08699707 0 -110.22312331 0 983.73229311 0 25020
0.15250000 0.15250500 10641.38915922 0 171.34123909 0 2763.61514807 0 -58.46150039 0 749.10169414 0 25297
0.15350000 0.15350100 10507.98511635 0 183.43955147 0 2874.56037079 0 -398.64068565 0 741.09273050 0 25452
0.15450000 0.15450400 10477.46674961 0 201.28408451 0 3360.71851490 0 -277.03707792 0 729.12143747 0 26061
0.15550000 0.15549900 10365.12768620 0 176.21518525 0 3752.36526767 0 -43.07844505 0 874.58557452 0 26128
0.15650000 0.15649500 10229.57667904 0 160.14779909 0 3796.02395511 0 -147.74936134 0 1113.19873604 0 26331
0.15750000 0.15749700 10161.33468845 0 267.69384903 0 3949.20030262 0 230.66602146 0 963.78238620 0 27345
0.15850000 0.15849900 9872.67477768 0 233.54924837 0 3890.27681149 0 369.42735847 0 1427.02309160 0 26980
0.15950000 0.15949700 9583.21678071 0 310.84895531 0 3438.18907974 0 443.96860973 0 1165.67796211 0 27777
0.16050000 0.16050000 9323.06316019 0 194.28340723 0 3292.86994709 0 661.49880674 0 1031.25664034 0 28224
0.16150000 0.16150500 9089.44871605 0 151.31152355 0 2659.09957757 0 412.73533761 0 653.07955934 0 28075
0.16250000 0.16249700 9020.11638234 0 95.61657213 0 2423.34940979 0 245.00909179 0 433.90148293 0 28590
0.16350000 0.16349900 8879.34971323 0 75.66880093 0 2160.18329488 0 -313.76140792 0 458.53649307 0 29163
0.16450000 0.16449100 8886.12782562 0 29.00649921 0 2190.52181120 0 -225.10189934 0 69.91302573 0 28996
0.16550000 0.16550500 8837.55697382 0 106.00192174 0 2322.44208818 0 -268.88423394 0 102.16256508 0 30777
0.16650000 0.16650700 8837.93915594 0 41.00128520 0 2230.78582212 0 -123.24137055 0 -488.78396013 0 29211
0.16750000 0.16749900 8664.72072818 0 164.20005368 0 2607.22397445 0 -52.39492119 0 209.49425580 0 30922
0.16850000 0.16850800 8649.96175377 0 152.60757058 0 2518.29918652 0 167.41038353 0 -166.55497001 0 30867
0.16950000 0.16949900 8478.12592604 0 203.08820895 0 2763.31165050 0 145.58441201 0 465.54728694 0 30852
0.17050000 0.17049200 8463.91774352 0 127.23404969 0 2716.49434021 0 106.56350465 0 280.47446891 0 31257
0.17150000 0.17149500 8451.95769114 0 -14.72839984 0 2866.60199007 0 36.57674026 0 644.77271845 0 32608
0.17250000 0.17250900 8593.94959117 0 -75.77221492 0 2832.79011267 0 121.54740448 0 757.17023324 0 32361
0.17350000 0.17350400 8642.01461370 0 -117.49290177 0 2627.16488885 0 175.49690767 0 979.87450178 0 32508
0.17450000 0.17449800 8788.70510574 0 -104.61032918 0 2729.65714221 0 188.32698641 0 936.06631369 0 32791
0.17550000 0.17549800 8940.51009386 0 -10.82037404 0 2288.64145143 0 260.92810135 0 808.68613554 0 33633
0.17650000 0.17650100 8820.57235056 0 30.95540324 0 2364.44839996 0 502.20304897 0 1015.55007907 0 33984
0.17750000 0.17750300 8659.22404997 0 126.40336560 0 1928.47976136 0 346.65042789 0 768.54015145 0 34069
0.17850000 0.17849800 8576.30176953 0 169.80464214 0 1732.06063049 0 406.97562817 0 618.75173607 0 34536
