### header ###
fiducial parameters:
Omega_m = 0.31
Omega_nu = 0
Omega_de = 0.69
Omega_k = 0
H_0 = 100
w_de = -1
zeff = 0
beta = 0
fgrowth = 0
b_1 = 2
gamma = 0.55
Lx = 3500 Ly = 3500 Lz = 3500
nx = 700 ny = 700 nz = 700
xoffset = 857.220397 yoffset = 15.9954215 zoffset = 262.898189
bins = 400 dk = 0.001
kx_ny = 0.628318531 ky_ny = 0.628318531 kz_ny = 0.628318531
############################
A(data) = 3.05181645 (not used)
A(ran) = 3.05044509 (used)
Ngal = 186130
weighted Ngal = 0
Nran = 9360983
weighted Nran = 0
SN(data) = 3450.42923
SN(ran) = 68.5015325
SN(data+ran) = 3518.93076
############################
13 columns: k_central k_mean P_0(k) sigma^{lin}_{P_0(k)} P^img_1(k) sigma^{lin}_{P_1(k)} P_2(k) sigma^{lin}_{P_2(k)} P^img_3(k) sigma^{lin}_{P_3(k)} P_4(k) sigma^{lin}_{P_4(k)} N_modes
### header ###
0.00050000 0 0 0 0 0 0 0 0 0 0 0 0
0.00150000 0.00179520 15304.03356374 0 -20225.52767329 0 17648.60849321 0 -15514.45854542 0 -29389.46818173 0 3
0.00250000 0.00253879 25082.16322812 0 -12463.52112402 0 9635.28347489 0 5157.79506922 0 23738.34343323 0 6
0.00350000 0.00331552 38623.66275724 0 -4263.67998812 0 22827.62591100 0 1487.19429496 0 -21418.27312235 0 7
0.00450000 0.00420575 41492.50163680 0 9184.75819359 0 30495.88543318 0 11761.20526634 0 12344.93225880 0 24
0.00550000 0.00557378 37170.47143073 0 18799.76353457 0 47808.39846953 0 23651.00357705 0 12160.58558682 0 45
0.00650000 0.00659388 24251.47913910 0 8280.81878376 0 53775.83512960 0 33326.84331978 0 38455.83984182 0 40
0.00750000 0.00754703 33617.75136070 0 -12783.65485683 0 58656.63808350 0 50320.00946886 0 5676.31504679 0 57
0.00850000 0.00846663 52249.46716684 0 -30428.55393530 0 57896.20806155 0 48724.96113013 0 24647.48726435 0 75
0.00950000 0.00948925 86531.54098574 0 -35235.39340739 0 37782.18764351 0 54988.13931094 0 25015.05654325 0 112
0.01050000 0.01054430 110476.82479892 0 -26781.18758611 0 38245.07764062 0 26405.18781916 0 29967.79966184 0 105
0.01150000 0.01145670 132920.69489397 0 -11260.43427628 0 20337.70936758 0 29208.83092448 0 45802.39194008 0 144
0.01250000 0.01249090 134293.17834822 0 2455.73372455 0 6444.01776976 0 23861.65337175 0 43659.92391075 0 169
0.01350000 0.01339930 139456.00922897 0 14030.69264893 0 11408.02402038 0 12460.37374181 0 77472.70056163 0 180
0.01450000 0.01448870 115976.53798207 0 13578.81848954 0 3929.69777360 0 12721.38165178 0 54381.81861051 0 267
0.01550000 0.01550050 98280.94356881 0 19253.09897855 0 11703.31591508 0 20104.91549094 0 21037.66468860 0 238
0.01650000 0.01653350 94969.67267648 0 8316.28303682 0 3307.94365972 0 -3472.34941731 0 47999.82675148 0 315
0.01750000 0.01747870 83407.87655410 0 7018.89837010 0 19948.22081975 0 -8668.47510552 0 28293.72954847 0 297
0.01850000 0.01844180 81696.15026079 0 5145.07065259 0 17945.36167251 0 -19063.01957469 0 42826.31725254 0 388
0.01950000 0.01947590 77841.16909259 0 -505.88098989 0 25597.09743811 0 -725.10740109 0 7888.67744236 0 399
0.02050000 0.02045430 78927.69039225 0 -1776.01157485 0 25119.70700156 0 7322.66571545 0 5375.54895518 0 462
0.02150000 0.02154770 80403.36302021 0 -2415.05380955 0 22451.40133104 0 12827.04376866 0 -4221.60623244 0 571
0.02250000 0.02255340 73873.33179106 0 -132.29683878 0 2533.15932678 0 4848.01397572 0 -15000.53599400 0 510
0.02350000 0.02348930 73876.81639279 0 3881.75639823 0 2941.95931257 0 8147.80816366 0 -3671.92717104 0 555
0.02450000 0.02439640 71690.28501259 0 4340.74588953 0 153.48771354 0 3091.53865185 0 -13313.65153880 0 592
0.02550000 0.02547300 65595.94140577 0 2021.55234941 0 -1865.84685549 0 -716.60722101 0 -7396.02220212 0 837
0.02650000 0.02652900 70233.72149087 0 -483.31650761 0 -576.52510754 0 -7962.77581198 0 -12490.27387276 0 723
0.02750000 0.02749970 64465.35675525 0 557.33731674 0 7234.02194379 0 -11160.48240998 0 -3444.39391894 0 826
0.02850000 0.02848090 71268.64820367 0 1346.02296243 0 9994.07380557 0 -13070.85348301 0 -15700.94094105 0 831
0.02950000 0.02946900 69357.06314036 0 3530.02519621 0 25328.44588564 0 -10081.14388614 0 -3768.43939822 0 996
0.03050000 0.03053250 67922.08166804 0 2168.71494878 0 28084.54103837 0 -2102.82225420 0 -5215.65069853 0 1041
0.03150000 0.03150510 69090.54731153 0 22.06449813 0 31227.98901529 0 3982.93349546 0 -5380.95570818 0 1036
0.03250000 0.03246190 68371.48288427 0 961.36564629 0 31238.66763348 0 7587.46172472 0 -3169.09914189 0 1059
0.03350000 0.03345080 66868.49547503 0 1814.87050442 0 27511.15544458 0 5450.13067278 0 -9947.91969367 0 1302
0.03450000 0.03451200 64571.13127863 0 3982.12416861 0 29314.60544786 0 8637.47339080 0 5992.42462664 0 1339
0.03550000 0.03553350 58035.03009808 0 5501.89386939 0 21311.93656644 0 6787.23979918 0 1159.55180746 0 1365
0.03650000 0.03647120 56094.55656239 0 4843.36034632 0 27221.48387524 0 8915.67949640 0 13996.74588372 0 1308
0.03750000 0.03744890 51673.27141037 0 3273.90696931 0 26105.73688368 0 5316.82779576 0 13420.77494027 0 1579
0.03850000 0.03847530 49715.37486604 0 2885.17154508 0 27196.75444363 0 3909.81306246 0 21021.47815155 0 1662
0.03950000 0.03950240 48937.18461594 0 912.60595155 0 27197.09166315 0 -746.09706820 0 24167.96110417 0 1683
0.04050000 0.04050350 48710.91031672 0 669.90231722 0 31184.71250997 0 2154.05714023 0 24933.78663847 0 1822
0.04150000 0.04152450 49548.67601570 0 827.08932892 0 28944.67563230 0 1699.73251899 0 23840.40854187 0 1887
0.04250000 0.04250150 48001.62525560 0 1672.37277511 0 25940.16209842 0 5140.29337603 0 14538.99487499 0 1920
0.04350000 0.04349210 45415.26392890 0 2507.76669678 0 23909.08891783 0 4120.54154171 0 10027.41357564 0 2005
0.04450000 0.04448520 41730.91583880 0 3419.85557840 0 18257.62694981 0 3175.73112582 0 3535.43194921 0 2151
0.04550000 0.04548030 40286.71703289 0 2536.81253827 0 19420.80948746 0 3552.25920336 0 6109.76577962 0 2274
0.04650000 0.04648670 35228.64901696 0 1885.12457149 0 11708.26180140 0 2238.64303698 0 3549.40407807 0 2311
0.04750000 0.04749250 36400.93648169 0 146.80065042 0 14666.57626078 0 4535.70373581 0 3765.37070057 0 2568
0.04850000 0.04851840 36844.94218556 0 -761.68447857 0 13915.81319846 0 2443.87483803 0 3402.34264456 0 2493
0.04950000 0.04949480 37060.87508611 0 -555.66920417 0 12880.99889216 0 2134.07126323 0 4617.51319183 0 2644
0.05050000 0.05050630 37427.76992597 0 -53.39904852 0 9838.71677182 0 777.32022374 0 5004.32646479 0 2829
0.05150000 0.05149060 38161.89682521 0 211.41303488 0 11845.84736635 0 305.60294362 0 6571.05960432 0 2784
0.05250000 0.05249300 38040.27298430 0 213.33406209 0 12971.93575658 0 -1860.45134314 0 4766.60918313 0 3055
0.05350000 0.05348950 37754.87286224 0 458.46455291 0 10606.18344113 0 1850.14366642 0 931.96347617 0 3009
0.05450000 0.05448610 36898.89730907 0 385.43067291 0 12764.54575059 0 -729.37772431 0 2984.32532517 0 3336
0.05550000 0.05550870 36096.65206640 0 954.78761748 0 11391.38785729 0 820.34606254 0 875.33532592 0 3349
0.05650000 0.05647670 35959.17890796 0 1479.28087685 0 12515.11571087 0 1323.21568210 0 3607.39459519 0 3324
0.05750000 0.05747970 33592.90952258 0 1813.97125236 0 11368.79414932 0 1964.57349086 0 4808.66045751 0 3639
0.05850000 0.05849280 32930.61038151 0 1216.12600259 0 11843.03720366 0 2314.70852048 0 4501.20617872 0 3846
0.05950000 0.05951020 31389.17994677 0 891.39709175 0 11564.71869157 0 777.10552731 0 6544.29561493 0 3787
0.06050000 0.06049470 31026.33174117 0 1142.75827526 0 12568.28398883 0 658.58185787 0 4946.16733790 0 3930
0.06150000 0.06148310 30077.17119345 0 1178.34617548 0 12733.63396108 0 -1951.88279618 0 4338.53148134 0 4083
0.06250000 0.06249100 29257.50294215 0 843.02295133 0 14142.42471720 0 -1300.67817738 0 4134.46870797 0 4303
0.06350000 0.06350600 28928.60150176 0 -28.01878323 0 12979.91661860 0 -548.48530429 0 3625.72809653 0 4470
0.06450000 0.06451750 29475.23434680 0 -1198.27584923 0 14367.35013832 0 2173.24493103 0 1649.73410453 0 4479
0.06550000 0.06550280 31110.63662166 0 -1608.30106594 0 11093.76914789 0 3705.24445981 0 620.15119709 0 4636
0.06650000 0.06648880 31601.74065209 0 -1128.64001795 0 11159.96534004 0 2206.12383442 0 -1564.15903052 0 4653
0.06750000 0.06749660 32768.29538496 0 -128.55032989 0 9816.31415492 0 313.42306433 0 -722.02184247 0 5220
0.06850000 0.06852730 32117.91133366 0 885.40357678 0 9347.39916902 0 -783.97356491 0 -2734.64799114 0 5029
0.06950000 0.06949320 31367.48549086 0 1544.94875842 0 10433.16734508 0 -1699.53018727 0 -1176.68255917 0 5040
0.07050000 0.07048030 30451.82208231 0 1085.33765914 0 10175.47542707 0 -1594.85724767 0 -1858.72028292 0 5475
0.07150000 0.07148790 30141.01808960 0 514.55540006 0 10848.79040586 0 1097.44271591 0 -1581.96422128 0 5509
0.07250000 0.07249820 29076.30365236 0 304.76439107 0 9875.86712249 0 1267.22600081 0 -499.14221977 0 5916
0.07350000 0.07351270 29197.25305423 0 154.17002104 0 10381.95494035 0 2921.07418351 0 -188.89463927 0 5721
0.07450000 0.07449140 28837.21501131 0 550.89754794 0 8264.36247109 0 2696.75575752 0 344.69343060 0 6028
0.07550000 0.07549160 28044.74913478 0 661.29085470 0 8421.16954879 0 1996.38453243 0 2992.84573843 0 6183
0.07650000 0.07648840 27576.91325136 0 1084.01126235 0 7872.26609229 0 803.60760954 0 2009.85083200 0 6330
0.07750000 0.07749960 26391.92385129 0 1019.66078504 0 8925.66119424 0 -594.74957457 0 3116.02078914 0 6583
0.07850000 0.07848650 26138.67199032 0 1181.19006011 0 9199.50592735 0 -1958.61594597 0 1863.64368794 0 6549
0.07950000 0.07947320 24890.62253966 0 750.47417760 0 9362.68645402 0 -1294.84427966 0 2781.52150469 0 6828
0.08050000 0.08048110 24570.26399383 0 694.69244835 0 9759.14420530 0 -386.78741946 0 -85.77077374 0 7147
0.08150000 0.08149960 23930.67096724 0 212.49326142 0 10234.12914259 0 511.19556955 0 221.65551583 0 7386
0.08250000 0.08250610 23326.93561647 0 318.58589521 0 8783.80418202 0 1505.50531500 0 -2250.38951700 0 7227
0.08350000 0.08350160 23111.67715498 0 418.95928592 0 8825.01240760 0 907.38129709 0 -907.18570977 0 7798
0.08450000 0.08449610 22753.99964872 0 780.86552498 0 8859.86966552 0 -350.74539695 0 -503.04497371 0 7371
0.08550000 0.08548940 22162.29179424 0 501.42182374 0 8615.16069910 0 51.93236841 0 -1663.51514233 0 8256
0.08650000 0.08650700 22387.55443489 0 261.04275599 0 9976.86436931 0 -858.14050250 0 1772.43704791 0 8037
0.08750000 0.08749060 22254.24031722 0 -328.63166477 0 9773.13881546 0 -445.39055204 0 -1364.88477436 0 8155
0.08850000 0.08849210 22931.15230424 0 -367.10504003 0 10678.22477167 0 711.51633030 0 117.24448338 0 8718
0.08950000 0.08949900 23246.34015073 0 -304.28891155 0 9540.33369817 0 -77.11344936 0 -2194.75953653 0 8571
0.09050000 0.09049190 23190.24930359 0 233.44471032 0 9326.33418955 0 623.78529947 0 -1055.19697827 0 8932
0.09150000 0.09150830 22850.33202548 0 441.58334364 0 9231.95768601 0 802.13283616 0 -2116.07498141 0 9285
0.09250000 0.09250820 22351.69675905 0 400.29306131 0 8820.01031802 0 805.09699576 0 -722.03982751 0 9204
0.09350000 0.09350330 22125.31005333 0 389.41548360 0 8166.33275607 0 1455.37201274 0 -680.75404144 0 9349
0.09450000 0.09448040 21643.98538903 0 485.40389645 0 8950.69412342 0 726.32813576 0 274.58549199 0 9564
0.09550000 0.09549270 21465.03422939 0 337.46906438 0 8622.68069444 0 592.91959663 0 1849.58163388 0 10155
0.09650000 0.09649430 21008.21418369 0 446.43368443 0 9679.87513634 0 278.56580642 0 2510.74546923 0 9913
0.09750000 0.09749140 20865.79513892 0 496.18592863 0 8442.44810062 0 466.33076029 0 3182.64412602 0 10476
0.09850000 0.09850240 20027.80462693 0 627.80383211 0 9066.59647311 0 163.26707967 0 1386.11836359 0 10575
0.09950000 0.09950330 19249.83918984 0 830.05686071 0 8350.78059391 0 -86.29155309 0 1593.74442324 0 10882
0.10050000 0.10051200 18754.91333815 0 801.74503371 0 7943.37444882 0 187.34680167 0 -747.62692077 0 10875
0.10150000 0.10150300 17819.80360384 0 676.24766456 0 6988.57109442 0 -442.07456008 0 -1802.89921139 0 11118
0.10250000 0.10250800 17250.57705082 0 503.51595697 0 7136.17207917 0 -174.97758960 0 -2419.65123570 0 11575
0.10350000 0.10349800 16723.27812503 0 357.26497438 0 6139.50854146 0 -42.12748600 0 -2913.01463694 0 11364
0.10450000 0.10450100 16473.73567880 0 447.43522641 0 6348.04509382 0 617.14544708 0 -3432.42262591 0 12093
0.10550000 0.10551000 16363.35248863 0 310.26781367 0 6283.74857164 0 424.38514802 0 -3314.36207129 0 12067
0.10650000 0.10649700 15853.58897798 0 343.12535982 0 6561.77482682 0 449.01228971 0 -2374.80103929 0 12054
0.10750000 0.10749900 15959.58831437 0 154.15878039 0 6862.58588103 0 169.05713886 0 -1623.17244686 0 12807
0.10850000 0.10850100 15811.66135075 0 81.44649541 0 6946.16011922 0 172.66313962 0 -258.28317624 0 12736
0.10950000 0.10950300 16133.14396166 0 -30.72901653 0 7125.86440245 0 540.46959625 0 130.21057400 0 12933
0.11050000 0.11050200 16058.95566683 0 -90.47037741 0 7160.13714653 0 417.67560360 0 509.42853926 0 13428
0.11150000 0.11150900 16253.19411146 0 130.06444554 0 7586.21401249 0 506.20472063 0 833.82360277 0 13453
0.11250000 0.11250000 16094.58852965 0 79.98161380 0 6970.19263048 0 592.81168638 0 642.76513823 0 13668
0.11350000 0.11349100 15735.44973879 0 214.55254863 0 6608.24367694 0 872.72075056 0 802.10023828 0 13791
0.11450000 0.11448600 15555.48692059 0 362.39295924 0 5811.51759378 0 796.24835551 0 632.30009240 0 14205
0.11550000 0.11549300 15117.66357462 0 226.89703127 0 5401.07647299 0 913.27027401 0 247.55285105 0 14776
0.11650000 0.11649800 14668.37476490 0 339.11919190 0 4641.79299741 0 702.13151100 0 -6.93063678 0 14553
0.11750000 0.11747300 14524.38202904 0 186.94213824 0 4233.68993197 0 475.53123291 0 -774.68204301 0 14568
0.11850000 0.11849100 14090.83013034 0 118.40227041 0 3902.63028664 0 221.38124395 0 -486.73366543 0 16015
0.11950000 0.11950300 14151.08001826 0 115.57299862 0 3578.35999435 0 -265.63568588 0 -1218.84624006 0 15270
0.12050000 0.12050700 14211.21749967 0 1.90265999 0 3808.54604002 0 -242.43498277 0 -159.85779031 0 15999
0.12150000 0.12150000 14148.83188811 0 -4.00973121 0 3969.81565606 0 86.66665361 0 -323.30921665 0 15670
0.12250000 0.12250700 14297.43329078 0 124.32609335 0 4062.15760182 0 34.31017545 0 450.06329055 0 16887
0.12350000 0.12352200 14160.85938440 0 70.09984534 0 3932.74398995 0 626.88097468 0 282.36065010 0 16407
0.12450000 0.12449800 14015.96739647 0 304.13941089 0 4401.01825875 0 473.06166195 0 1469.37786356 0 16306
0.12550000 0.12549900 13847.47004202 0 289.17248445 0 4259.91437013 0 438.92942600 0 1135.58674010 0 17523
0.12650000 0.12650100 13309.49249803 0 309.37980226 0 3925.80850845 0 443.14467003 0 2146.63831075 0 17154
0.12750000 0.12750600 13287.68563561 0 184.03643003 0 3893.95250428 0 302.76130711 0 1977.24170423 0 18007
0.12850000 0.12850300 13179.55057558 0 149.51639163 0 3923.56037830 0 168.19160876 0 2301.62440303 0 17496
0.12950000 0.12949900 12963.05564250 0 231.17409887 0 4235.80317431 0 -174.16039430 0 2123.37016373 0 18405
0.13050000 0.13049000 12987.11063507 0 135.03056504 0 4032.77454081 0 -155.26823261 0 2051.36255515 0 18100
0.13150000 0.13148800 12953.61349589 0 -94.68820678 0 4366.74551467 0 70.26193552 0 2458.27411161 0 19059
0.13250000 0.13249300 13176.85281940 0 -45.20472654 0 3883.13899827 0 100.50794129 0 1755.03652058 0 18957
0.13350000 0.13349100 13059.72523879 0 -25.95320125 0 4422.46542035 0 342.56220322 0 1393.44726787 0 19468
0.13450000 0.13450700 13041.06575857 0 173.49157558 0 3792.89905421 0 206.43342661 0 1799.27972186 0 19953
0.13550000 0.13551000 12849.30025710 0 347.24843051 0 3842.67265564 0 295.64934740 0 1556.09948394 0 19956
0.13650000 0.13649900 12621.33986028 0 436.50594171 0 3373.37548762 0 -53.87351638 0 1210.94406260 0 19723
0.13750000 0.13749600 12053.46218535 0 390.71490282 0 3442.19075140 0 176.50856623 0 571.87822252 0 20946
0.13850000 0.13851100 11734.56492411 0 356.99407470 0 3298.25421879 0 -324.33323993 0 505.65280468 0 20955
0.13950000 0.13949800 11427.80756566 0 347.76437638 0 2884.28353367 0 -53.45693787 0 -78.51156150 0 20506
0.14050000 0.14048300 11186.00992779 0 247.42470763 0 3267.10637561 0 -273.63790513 0 -208.53318017 0 21447
0.14150000 0.14148400 10897.26009181 0 274.07516645 0 2774.36121017 0 15.43127773 0 -847.46862869 0 21771
0.14250000 0.14249400 10711.68818889 0 223.36746694 0 3525.83243349 0 -295.45488414 0 -1110.35822360 0 22470
0.14350000 0.14350900 10670.85090479 0 148.80036218 0 2932.89934808 0 -131.51336542 0 -1216.69927577 0 22519
0.14450000 0.14449900 10446.34138774 0 35.35105970 0 3041.22549917 0 119.35547759 0 -1534.31510283 0 22218
0.14550000 0.14550500 10657.20475480 0 -74.25360301 0 2983.15629750 0 -112.82353545 0 -1045.28722058 0 23559
0.14650000 0.14650700 10540.39191240 0 -97.35066731 0 2720.47353057 0 343.59072276 0 -1880.62831120 0 23044
0.14750000 0.14750500 10858.76086306 0 -138.72199474 0 2494.78374519 0 460.77001037 0 -1485.17097783 0 23649
0.14850000 0.14849900 10601.49608978 0 33.11574390 0 2124.41554425 0 310.48138604 0 -1868.90431249 0 23640
0.14950000 0.14949500 10718.96088992 0 320.06291672 0 2199.27827812 0 57.47378441 0 -1481.29295333 0 24457
0.15050000 0.15050000 10290.83822552 0 383.59732278 0 2184.06967768 0 175.54636653 0 -1268.31634393 0 24591
0.15150000 0.15149900 10077.79417222 0 316.00616587 0 2453.23830009 0 56.86622724 0 -605.67211488 0 25020
0.15250000 0.15250500 9977.06670102 0 115.94731229 0 2770.78668324 0 104.89775262 0 -438.25835916 0 25297
0.15350000 0.15350100 9946.31228062 0 30.03265822 0 2924.01923400 0 -2.44842730 0 -290.76191246 0 25452
0.15450000 0.15450400 10090.73216121 0 93.34955769 0 3468.65124322 0 -274.79344403 0 246.43328224 0 26061
0.15550000 0.15549900 9926.87719551 0 137.03589713 0 3370.79013796 0 -350.91625485 0 186.61615937 0 26128
0.15650000 0.15649500 9947.38014244 0 215.05950198 0 3762.21207771 0 -17.14896157 0 660.00380019 0 26331
0.15750000 0.15749700 9887.20893908 0 52.07265173 0 3813.75046131 0 63.97402791 0 235.53097509 0 27345
0.15850000 0.15849900 9820.21466072 0 -45.31915637 0 3321.00529587 0 452.32266135 0 312.91498692 0 26980
0.15950000 0.15949700 9860.39998708 0 -9.86098450 0 3283.00065575 0 369.68027311 0 -25.32462406 0 27777
0.16050000 0.16050000 9755.16501494 0 113.35634230 0 2914.79065975 0 320.69913755 0 -81.53878115 0 28224
0.16150000 0.16150500 9563.95030535 0 264.59929788 0 2777.30626066 0 27.80521087 0 -220.14926863 0 28075
0.16250000 0.16249700 9416.59661492 0 272.23732005 0 2791.35707407 0 -97.34785715 0 -320.45296730 0 28590
0.16350000 0.16349900 9181.99299351 0 187.69301371 0 2848.81928061 0 -77.45437830 0 -192.52536946 0 29163
0.16450000 0.16449100 9114.83010540 0 156.56652777 0 2930.11166670 0 -182.68530381 0 -523.46024357 0 28996
0.16550000 0.16550500 8978.53721528 0 70.23462074 0 3145.89843878 0 -173.45897769 0 -375.79518711 0 30777
0.16650000 0.16650700 9025.79291096 0 -39.98692888 0 3152.36181295 0 81.84812386 0 -787.80437868 0 29211
0.16750000 0.16749900 9045.55397494 0 72.72442488 0 3121.04536001 0 55.79398156 0 -365.13230582 0 30922
0.16850000 0.16850800 9012.28164878 0 -12.25017357 0 2604.69482804 0 399.37807234 0 -943.64588448 0 30867
0.16950000 0.16949900 8893.91759658 0 14.15973532 0 2681.00760585 0 524.95637418 0 -695.78728773 0 30852
0.17050000 0.17049200 8871.25644471 0 -6.70124882 0 1935.87610954 0 486.19748639 0 -1181.83077721 0 31257
0.17150000 0.17149500 8716.92231017 0 88.65220215 0 1884.18035683 0 291.42960711 0 -1274.90336526 0 32608
0.17250000 0.17250900 8706.28865458 0 178.81514776 0 1591.88971587 0 74.01766175 0 -1152.31282839 0 32361
0.17350000 0.17350400 8456.99350267 0 222.84140448 0 1912.12461455 0 -82.32158007 0 -930.70339922 0 32508
0.17450000 0.17449800 8285.05650909 0 262.88622271 0 1716.24503491 0 -121.18545553 0 -664.51017707 0 32791
0.17550000 0.17549800 8166.88354795 0 139.08057149 0 2186.40773303 0 160.21749113 0 -150.27401149 0 33633
0.17650000 0.17650100 8127.05792241 0 101.24397910 0 2204.66254982 0 399.62649072 0 426.37699133 0 33984
0.17750000 0.17750300 8152.38310851 0 -45.00025910 0 2217.70170467 0 381.03782661 0 719.11163799 0 34069
