### header ###
fiducial parameters:
Omega_m = 0.31
Omega_nu = 0
Omega_de = 0.69
Omega_k = 0
H_0 = 100
w_de = -1
zeff = 0
beta = 0
fgrowth = 0
b_1 = 2
gamma = 0.55
Lx = 3500 Ly = 3500 Lz = 3500
nx = 700 ny = 700 nz = 700
xoffset = 857.220397 yoffset = 15.9954215 zoffset = 262.898189
bins = 400 dk = 0.001
kx_ny = 0.628318531 ky_ny = 0.628318531 kz_ny = 0.628318531
############################
A(data) = 3.04218373 (not used)
A(ran) = 3.04453609 (used)
Ngal = 186339
weighted Ngal = 0
Nran = 9360983
weighted Nran = 0
SN(data) = 3434.34891
SN(ran) = 68.3688387
SN(data+ran) = 3502.71775
############################
13 columns: k_central k_mean P_0(k) sigma^{lin}_{P_0(k)} P^img_1(k) sigma^{lin}_{P_1(k)} P_2(k) sigma^{lin}_{P_2(k)} P^img_3(k) sigma^{lin}_{P_3(k)} P_4(k) sigma^{lin}_{P_4(k)} N_modes
### header ###
0.00050000 0 0 0 0 0 0 0 0 0 0 0 0
0.00150000 0.00179520 2543.30963439 0 -6927.32078859 0 -4843.76500975 0 8382.85017045 0 6886.19124757 0 3
0.00250000 0.00253879 4287.95979370 0 -4496.40642086 0 7437.32035291 0 -13452.92320136 0 -1545.79180722 0 6
0.00350000 0.00331552 10706.56245216 0 -5609.81535706 0 1545.10612753 0 4952.51830557 0 3314.90162252 0 7
0.00450000 0.00420575 15957.11537121 0 -10080.62681620 0 9660.33888537 0 -5431.56111777 0 -1724.46195059 0 24
0.00550000 0.00557378 34009.82525819 0 -15984.43015248 0 -946.15142552 0 8061.16522783 0 -3263.48688608 0 45
0.00650000 0.00659388 46854.62925500 0 -23636.39073110 0 -6231.26597338 0 4175.67693355 0 -11462.31636341 0 40
0.00750000 0.00754703 64592.37610851 0 -15277.16840849 0 -19587.28352478 0 -20286.56440676 0 -26164.63789351 0 57
0.00850000 0.00846663 82919.91990587 0 -18711.52442633 0 -24300.37596978 0 -29848.31154457 0 -41819.94179259 0 75
0.00950000 0.00948925 93465.33638915 0 -9272.87365467 0 -26432.61500694 0 -36576.29063309 0 -37542.42456342 0 112
0.01050000 0.01054430 105471.13821540 0 -4468.79938266 0 -73.01173591 0 -75909.12604495 0 -32513.46983288 0 105
0.01150000 0.01145670 109269.69131692 0 1121.18072212 0 15939.13033004 0 -49713.46395542 0 -37317.16192277 0 144
0.01250000 0.01249090 111675.52779288 0 4619.89620979 0 34822.41189954 0 -29983.98619889 0 -39046.42363123 0 169
0.01350000 0.01339930 110380.26760914 0 11993.54951695 0 18987.36999527 0 -9055.19845327 0 -37318.28598785 0 180
0.01450000 0.01448870 96864.62157671 0 12383.37528430 0 52835.66710246 0 1240.78799029 0 -38815.99029124 0 267
0.01550000 0.01550050 92835.74754170 0 12095.83943860 0 48427.08388576 0 19181.49603339 0 -51512.75491793 0 238
0.01650000 0.01653350 75315.05765382 0 9964.69074456 0 45136.15857125 0 9784.10969057 0 -36230.30340359 0 315
0.01750000 0.01747870 72065.04830796 0 7290.37132590 0 39185.02085474 0 -128.14791459 0 -34210.02124771 0 297
0.01850000 0.01844180 62689.33393975 0 5160.54902865 0 49193.13423308 0 1801.32552029 0 -19074.37263193 0 388
0.01950000 0.01947590 60323.62658691 0 5478.02996789 0 44587.27759606 0 5787.76609878 0 -17959.74970544 0 399
0.02050000 0.02045430 55078.62654932 0 5370.10848022 0 48963.26292563 0 8586.48579909 0 1660.68249835 0 462
0.02150000 0.02154770 51484.09125856 0 3817.08893458 0 45774.73993928 0 13843.42340775 0 11153.51320652 0 571
0.02250000 0.02255340 51019.40275734 0 1879.13330465 0 47467.69434587 0 16248.24822514 0 17064.88150075 0 510
0.02350000 0.02348930 49950.64168584 0 -398.84751363 0 41820.27901212 0 15297.85120584 0 15241.87276519 0 555
0.02450000 0.02439640 50539.53937764 0 -1232.55983395 0 29711.51282517 0 15210.39894315 0 15319.88288127 0 592
0.02550000 0.02547300 50604.39793236 0 -2609.33721679 0 25637.00174820 0 11698.03280924 0 17402.77546172 0 837
0.02650000 0.02652900 55125.27524985 0 -5232.72524699 0 5493.56454720 0 10490.76443943 0 3255.64091187 0 723
0.02750000 0.02749970 59257.22605206 0 -5525.39807007 0 5984.39880202 0 7120.42392750 0 -2499.94320387 0 826
0.02850000 0.02848090 62540.73253709 0 -3051.33084418 0 -2647.47674472 0 3826.64348770 0 -8821.07817984 0 831
0.02950000 0.02946900 60465.14637961 0 -1030.70360032 0 -2900.11036990 0 -3097.19269916 0 -11886.65092850 0 996
0.03050000 0.03053250 62771.95272262 0 1895.21867585 0 -2006.02901075 0 -7753.36248886 0 -7111.04922479 0 1041
0.03150000 0.03150510 59564.54544304 0 2449.33779428 0 4762.62999277 0 -4121.99158566 0 -12556.59371207 0 1036
0.03250000 0.03246190 61451.96310728 0 173.56463981 0 1798.47039501 0 916.25691491 0 2340.70814562 0 1059
0.03350000 0.03345080 58961.82175085 0 -325.19989410 0 5113.48442404 0 5463.30471543 0 -7495.45699849 0 1302
0.03450000 0.03451200 61056.40460806 0 866.79917575 0 2087.97335458 0 2782.37579414 0 -1055.15089160 0 1339
0.03550000 0.03553350 57932.96498944 0 2189.72372500 0 1267.07987235 0 4825.58887751 0 -6672.04561049 0 1365
0.03650000 0.03647120 53258.99000899 0 5229.04955420 0 -1136.90189623 0 -2935.90060182 0 -4206.27398484 0 1308
0.03750000 0.03744890 48389.31529931 0 5671.79630519 0 1064.57617724 0 -1843.68029225 0 -1874.53587850 0 1579
0.03850000 0.03847530 44124.38759895 0 3107.11819376 0 2193.86028447 0 -1503.62812633 0 177.65848480 0 1662
0.03950000 0.03950240 42366.91185716 0 2936.18161809 0 5266.07625771 0 -1692.65090902 0 1278.11819137 0 1683
0.04050000 0.04050350 42673.44440260 0 -415.44883069 0 8855.48581173 0 1148.22123152 0 5514.44967626 0 1822
0.04150000 0.04152450 40405.08108508 0 332.39503464 0 7736.40034691 0 253.42384293 0 9209.03799917 0 1887
0.04250000 0.04250150 44947.87767151 0 -705.12377222 0 12944.50856879 0 -1093.49949563 0 8956.64042766 0 1920
0.04350000 0.04349210 43826.39794808 0 -719.34544353 0 10142.96746516 0 1572.37594620 0 8880.75479457 0 2005
0.04450000 0.04448520 45334.89327617 0 747.31555474 0 10827.77038899 0 -2553.51614526 0 4453.51209767 0 2151
0.04550000 0.04548030 44127.53498116 0 -1000.00763131 0 10775.05173706 0 -1916.49722768 0 3043.87829275 0 2274
0.04650000 0.04648670 43970.27827743 0 -223.32250433 0 10256.49803754 0 173.85127640 0 -286.54329624 0 2311
0.04750000 0.04749250 43781.21053214 0 -225.40876911 0 7113.87062812 0 -302.69611134 0 -5959.81549887 0 2568
0.04850000 0.04851840 43783.68347530 0 508.25051906 0 8440.31237698 0 3287.04729001 0 -5767.42052096 0 2493
0.04950000 0.04949480 42680.63841907 0 1735.23049399 0 7338.59371754 0 -50.37936010 0 -6462.58732477 0 2644
0.05050000 0.05050630 41223.85008433 0 2814.56901783 0 8809.45534699 0 -400.97649288 0 -1202.90699733 0 2829
0.05150000 0.05149060 39378.13523430 0 3407.90676667 0 13214.73381237 0 -1487.89121531 0 931.54869616 0 2784
0.05250000 0.05249300 37308.61902822 0 2917.11747445 0 15342.81380876 0 -2201.09926354 0 6427.83123271 0 3055
0.05350000 0.05348950 36112.95100996 0 1154.27994226 0 17074.21124085 0 2368.28146186 0 9014.31620656 0 3009
0.05450000 0.05448610 36072.82188685 0 -552.35770847 0 18893.62296817 0 1333.50087752 0 12498.59195430 0 3336
0.05550000 0.05550870 37441.70833287 0 -1481.74257936 0 19169.46853711 0 4322.01896542 0 9848.96824529 0 3349
0.05650000 0.05647670 37495.21383035 0 -1369.42599726 0 19748.13723674 0 2905.92178633 0 12461.27299387 0 3324
0.05750000 0.05747970 39547.41943431 0 -311.31993858 0 16845.35159197 0 2261.60768642 0 10781.16665106 0 3639
0.05850000 0.05849280 38869.72060174 0 1357.47718553 0 17718.18812123 0 421.37602582 0 11710.28511853 0 3846
0.05950000 0.05951020 37917.41267181 0 2282.83003500 0 19747.91242373 0 -1141.10589961 0 14554.28215998 0 3787
0.06050000 0.06049470 35673.44156638 0 1903.30070372 0 18501.99869670 0 -876.08844952 0 8902.11203096 0 3930
0.06150000 0.06148310 35062.51219915 0 1559.20190355 0 20935.82439298 0 328.17079809 0 12211.50573463 0 4083
0.06250000 0.06249100 33854.25465208 0 768.28836088 0 18423.98858063 0 338.23342863 0 5057.50598339 0 4303
0.06350000 0.06350600 34058.04764983 0 730.68950825 0 20046.80132666 0 115.85738708 0 5871.50894673 0 4470
0.06450000 0.06451750 32282.81167988 0 370.51432939 0 16444.62239341 0 2155.37229637 0 205.62522382 0 4479
0.06550000 0.06550280 32013.82290789 0 183.21361439 0 13358.50173522 0 4326.95361109 0 989.80674077 0 4636
0.06650000 0.06648880 31240.91576363 0 81.89960604 0 12528.94171127 0 3901.75351589 0 -3053.89371255 0 4653
0.06750000 0.06749660 30841.31063014 0 307.50373766 0 9015.44027163 0 3264.44234139 0 -4321.78291175 0 5220
0.06850000 0.06852730 29784.57705492 0 954.59090609 0 9108.05199301 0 533.24523003 0 -5194.66440361 0 5029
0.06950000 0.06949320 28846.76956444 0 1610.59415869 0 6784.83429992 0 -3041.96738212 0 -6900.87153742 0 5040
0.07050000 0.07048030 27356.59649703 0 1709.83786399 0 10104.80545593 0 -4031.65047573 0 -4884.65849710 0 5475
0.07150000 0.07148790 27304.77709716 0 845.91629483 0 12023.00002187 0 -2819.60482936 0 -4659.68811337 0 5509
0.07250000 0.07249820 26785.12181386 0 11.54740809 0 11983.43293130 0 -1103.18893656 0 -4310.91320249 0 5916
0.07350000 0.07351270 27267.12091721 0 -224.46118225 0 12198.01695375 0 1851.82976403 0 -5374.98692264 0 5721
0.07450000 0.07449140 27386.49662797 0 -310.83996279 0 11630.70131136 0 2230.48232455 0 -5401.44741446 0 6028
0.07550000 0.07549160 27175.50961375 0 -89.65239525 0 8466.48061188 0 2830.54198252 0 -5245.62951403 0 6183
0.07650000 0.07648840 27259.25246170 0 -31.34702751 0 8882.27228242 0 2856.03577838 0 -4194.40385767 0 6330
0.07750000 0.07749960 27027.69505664 0 -1.94836447 0 5062.51931362 0 2474.87655274 0 -3790.14509478 0 6583
0.07850000 0.07848650 26517.03229393 0 -223.75751752 0 5140.76548336 0 1406.34029426 0 -2517.26504665 0 6549
0.07950000 0.07947320 26991.61256779 0 57.56595774 0 4256.80070987 0 666.14681582 0 -2950.53592908 0 6828
0.08050000 0.08048110 26312.67726364 0 814.73023344 0 4480.41097487 0 310.48588230 0 -1930.28950613 0 7147
0.08150000 0.08149960 25965.22874955 0 859.58942237 0 5155.99656510 0 -556.02553280 0 -73.51115802 0 7386
0.08250000 0.08250610 25065.97669107 0 1204.32331932 0 5694.80591724 0 -863.02906150 0 475.59193243 0 7227
0.08350000 0.08350160 24105.80030563 0 1123.85712106 0 6810.40678034 0 -608.07986227 0 536.89282119 0 7798
0.08450000 0.08449610 23328.28449456 0 1012.99283103 0 7476.31417029 0 249.73690949 0 1196.12888494 0 7371
0.08550000 0.08548940 23097.73874807 0 477.16337540 0 7743.31334711 0 205.89275131 0 1388.02927421 0 8256
0.08650000 0.08650700 22578.19587128 0 -177.57867618 0 7707.32078347 0 647.50981690 0 1766.43454042 0 8037
0.08750000 0.08749060 22875.62348963 0 -238.34001371 0 7915.75616997 0 684.73772806 0 1095.81844188 0 8155
0.08850000 0.08849210 22835.38196001 0 220.78886166 0 6700.16971862 0 351.09498119 0 -136.71216639 0 8718
0.08950000 0.08949900 22677.90044327 0 547.24770864 0 7875.07625497 0 -744.44356848 0 395.61357841 0 8571
0.09050000 0.09049190 22123.17432969 0 1107.81896060 0 7886.02464879 0 -1019.42360731 0 -285.26635832 0 8932
0.09150000 0.09150830 21053.85122565 0 891.43643403 0 8406.12955811 0 129.77668488 0 134.18077184 0 9285
0.09250000 0.09250820 20274.42450397 0 580.98652181 0 7540.57697052 0 404.02945361 0 -1087.08108406 0 9204
0.09350000 0.09350330 20258.01315390 0 117.27595721 0 7082.46424998 0 1233.70638033 0 655.57273567 0 9349
0.09450000 0.09448040 19474.20257843 0 298.09418893 0 6381.53099235 0 1152.79617637 0 -1935.93231280 0 9564
0.09550000 0.09549270 19840.53538575 0 383.41972050 0 6000.82139274 0 782.39088128 0 110.78639232 0 10155
0.09650000 0.09649430 18880.13418729 0 650.80669976 0 6209.97618089 0 -254.63670914 0 -1508.23679313 0 9913
0.09750000 0.09749140 18970.73383219 0 718.66426010 0 7099.39266998 0 -987.89470608 0 94.88244523 0 10476
0.09850000 0.09850240 18534.14695779 0 514.53291876 0 7411.82655705 0 -992.71806931 0 -189.10933570 0 10575
0.09950000 0.09950330 18034.05040677 0 406.57321287 0 9767.30491773 0 -409.83075346 0 755.59092181 0 10882
0.10050000 0.10051200 18110.14961222 0 274.31009605 0 9466.33649441 0 9.48722162 0 840.70625321 0 10875
0.10150000 0.10150300 17931.08604608 0 203.30740164 0 9880.37462343 0 305.68050411 0 640.32254483 0 11118
0.10250000 0.10250800 17861.84363757 0 155.28958985 0 9360.98911575 0 675.20340811 0 1398.24702573 0 11575
0.10350000 0.10349800 17475.95209798 0 302.12396222 0 9058.80670215 0 925.03586313 0 907.83429531 0 11364
0.10450000 0.10450100 17237.31308296 0 156.23717671 0 8692.99096476 0 869.41375111 0 1615.03421573 0 12093
0.10550000 0.10551000 16913.46993540 0 234.38892498 0 8051.95913488 0 972.97386630 0 1972.58807483 0 12067
0.10650000 0.10649700 16615.92991055 0 96.64587851 0 7420.24580445 0 1230.04192819 0 1600.87099581 0 12054
0.10750000 0.10749900 16634.92661029 0 -6.53603374 0 7609.63952861 0 1367.51508663 0 1735.08436553 0 12807
0.10850000 0.10850100 16540.16792462 0 -45.60635499 0 6232.10902218 0 804.03475427 0 2064.76141082 0 12736
0.10950000 0.10950300 16699.89757151 0 137.61591470 0 7073.16823183 0 445.42314993 0 2354.21940780 0 12933
0.11050000 0.11050200 16434.28099474 0 361.01260733 0 6508.97749034 0 38.62782180 0 1741.88495923 0 13428
0.11150000 0.11150900 16183.95170296 0 452.95101373 0 6479.63939193 0 -436.08666543 0 2623.27562369 0 13453
0.11250000 0.11250000 15772.99351223 0 558.27253888 0 6783.26060882 0 -391.78388871 0 2004.82626113 0 13668
0.11350000 0.11349100 15435.09955126 0 308.17817670 0 6509.48331962 0 139.79772501 0 2360.57037546 0 13791
0.11450000 0.11448600 15192.52630849 0 187.54688525 0 6286.09786764 0 434.09819432 0 1728.30625314 0 14205
0.11550000 0.11549300 15165.54874673 0 90.32245044 0 6750.39294609 0 150.63708451 0 1899.52384508 0 14776
0.11650000 0.11649800 15068.09230489 0 64.14185083 0 6355.18290703 0 -83.43047026 0 896.92861597 0 14553
0.11750000 0.11747300 15227.03510623 0 113.03823188 0 6619.34943986 0 242.13373333 0 1306.08493039 0 14568
0.11850000 0.11849100 14787.07603662 0 123.59882324 0 6152.71630607 0 252.27729655 0 1149.79492262 0 16015
0.11950000 0.11950300 14913.75817036 0 144.83690873 0 5868.51893364 0 785.79455033 0 1080.16021541 0 15270
0.12050000 0.12050700 14692.99179000 0 79.48466464 0 5669.32336203 0 619.83196261 0 953.87712477 0 15999
0.12150000 0.12150000 14551.13477778 0 137.98798024 0 4325.78458341 0 595.69716142 0 301.11117959 0 15670
0.12250000 0.12250700 14322.38753540 0 229.29466207 0 4740.13745066 0 208.58713529 0 581.45413288 0 16887
0.12350000 0.12352200 14093.97751255 0 241.34239152 0 4575.03477272 0 -99.62914722 0 622.71968578 0 16407
0.12450000 0.12449800 13971.00479355 0 144.59860694 0 4787.87649431 0 73.91346091 0 851.38037515 0 16306
0.12550000 0.12549900 13947.28702051 0 174.51335073 0 5098.19713904 0 144.31197034 0 574.39500422 0 17523
0.12650000 0.12650100 13814.75974839 0 193.75172445 0 5209.46834063 0 334.05078249 0 1301.84720506 0 17154
0.12750000 0.12750600 13762.26590947 0 311.77068867 0 5289.36688602 0 280.57113851 0 1642.97847344 0 18007
0.12850000 0.12850300 13373.67661370 0 371.73843626 0 5095.56682677 0 502.30309076 0 1512.29466805 0 17496
0.12950000 0.12949900 13132.33984251 0 328.19440346 0 5281.89185329 0 451.79772296 0 2254.06520978 0 18405
0.13050000 0.13049000 12781.06950717 0 243.72091321 0 4673.27806011 0 647.59187365 0 1827.66236495 0 18100
0.13150000 0.13148800 12577.83854195 0 115.01883454 0 4802.95020694 0 756.62955794 0 2587.19313485 0 19059
0.13250000 0.13249300 12499.60361286 0 -123.12334372 0 4085.18969516 0 732.58917822 0 2166.48929994 0 18957
0.13350000 0.13349100 12618.30488458 0 -226.83520769 0 3397.29559238 0 665.12504066 0 1679.15088750 0 19468
0.13450000 0.13450700 12756.78970159 0 -165.58377779 0 3222.25617920 0 439.40153333 0 2022.12562260 0 19953
0.13550000 0.13551000 12646.40651141 0 106.76785968 0 2960.78740254 0 -91.96886856 0 1604.33311623 0 19956
0.13650000 0.13649900 12631.45644594 0 165.66583454 0 3161.60162785 0 137.28431551 0 1589.25940360 0 19723
0.13750000 0.13749600 12374.83238975 0 372.52752994 0 2801.78839795 0 -180.39783139 0 1328.86972942 0 20946
0.13850000 0.13851100 12048.96592506 0 477.13639784 0 2835.58903470 0 50.75895688 0 1233.35792016 0 20955
0.13950000 0.13949800 11841.57591907 0 385.03500201 0 3052.24133689 0 -115.66292383 0 1032.14352768 0 20506
0.14050000 0.14048300 11337.65754680 0 427.99002471 0 2970.39815892 0 -258.10444989 0 804.39557916 0 21447
0.14150000 0.14148400 11181.23265123 0 312.39004853 0 3293.74671785 0 -400.25259497 0 695.72096789 0 21771
0.14250000 0.14249400 11012.30815204 0 98.89457069 0 3497.66336276 0 -96.98399729 0 868.44031076 0 22470
0.14350000 0.14350900 11042.70287162 0 97.55299903 0 3873.51700125 0 -229.32163963 0 942.12952069 0 22519
0.14450000 0.14449900 11021.51424499 0 55.21879746 0 4044.64466798 0 -0.81097923 0 947.61046199 0 22218
0.14550000 0.14550500 11010.28483491 0 169.87995450 0 4427.65860099 0 -81.34903897 0 1667.70790505 0 23559
0.14650000 0.14650700 10849.45360425 0 187.39850866 0 4495.03506147 0 80.93257286 0 1354.03754640 0 23044
0.14750000 0.14750500 10840.41612106 0 105.11301108 0 4787.68540325 0 -74.59441954 0 1907.24617213 0 23649
0.14850000 0.14849900 10738.20488397 0 50.42286142 0 4775.97264519 0 160.34226235 0 1848.18779319 0 23640
0.14950000 0.14949500 10725.42426409 0 19.67911964 0 4697.70399415 0 368.34151161 0 1598.30812744 0 24457
0.15050000 0.15050000 10639.68058031 0 102.58712446 0 4424.64610659 0 300.85152055 0 1622.74530213 0 24591
0.15150000 0.15149900 10457.32350350 0 145.23595183 0 3979.48261569 0 398.66204289 0 1203.43530791 0 25020
0.15250000 0.15250500 10392.61107724 0 123.53699966 0 3542.37867136 0 609.82778346 0 1268.72100736 0 25297
0.15350000 0.15350100 10221.37100401 0 145.05834955 0 3085.78343867 0 729.24058837 0 1212.88869518 0 25452
0.15450000 0.15450400 10095.09353369 0 69.86334205 0 2960.93353100 0 633.42977780 0 1216.89036684 0 26061
0.15550000 0.15549900 9942.19820245 0 98.46877484 0 2321.37422636 0 446.84396818 0 1159.84406438 0 26128
0.15650000 0.15649500 9834.18678958 0 130.54104913 0 2208.19211415 0 332.42426033 0 1353.64412363 0 26331
0.15750000 0.15749700 9735.62876397 0 135.19243041 0 1986.60516629 0 84.08456373 0 1106.25313795 0 27345
0.15850000 0.15849900 9452.64538182 0 118.31346927 0 2079.28433157 0 67.55822180 0 1297.91297730 0 26980
0.15950000 0.15949700 9462.41350730 0 50.33720766 0 1962.90987455 0 -179.51993656 0 884.20082715 0 27777
0.16050000 0.16050000 9421.04791261 0 28.81372205 0 2180.71996376 0 -217.12440952 0 892.12323779 0 28224
0.16150000 0.16150500 9464.16704881 0 86.18847633 0 2032.59066843 0 -217.56504303 0 516.06164726 0 28075
0.16250000 0.16249700 9416.40552386 0 124.04395301 0 2395.88850006 0 -239.71362123 0 566.05556545 0 28590
0.16350000 0.16349900 9333.71929708 0 190.61783103 0 2377.85849628 0 -156.04046532 0 483.28615785 0 29163
0.16450000 0.16449100 9268.02893421 0 233.25923958 0 2695.49680464 0 -35.60644729 0 639.57728968 0 28996
0.16550000 0.16550500 8964.84610269 0 253.90269465 0 2605.78517116 0 129.04267039 0 445.27926960 0 30777
0.16650000 0.16650700 8872.15569677 0 177.08071536 0 2748.68756390 0 23.33772664 0 860.06715003 0 29211
0.16750000 0.16749900 8750.94775993 0 122.22746385 0 2747.79955249 0 113.82844963 0 913.88738573 0 30922
0.16850000 0.16850800 8709.90814411 0 66.66751264 0 2832.00326712 0 12.58019908 0 708.68031412 0 30867
0.16950000 0.16949900 8670.89184543 0 71.27494297 0 2858.56492480 0 19.59874899 0 784.19837792 0 30852
0.17050000 0.17049200 8594.34301395 0 6.21271890 0 2872.53705365 0 12.99891332 0 666.17491744 0 31257
0.17150000 0.17149500 8678.05213994 0 86.66058366 0 2905.61828876 0 105.23845675 0 838.77398535 0 32608
0.17250000 0.17250900 8588.13817475 0 24.99639706 0 2949.76032418 0 188.17298950 0 832.06781313 0 32361
0.17350000 0.17350400 8594.34301395 0 55.58928931 0 2968.48724829 0 404.45435021 0 1166.22875399 0 32508
0.17450000 0.17449800 8562.82422930 0 109.02138534 0 2797.59563523 0 442.09591731 0 1300.61073348 0 32791
0.17550000 0.17549800 8397.89016112 0 107.42487572 0 2651.43345378 0 286.96032438 0 1121.75511937 0 33633
0.17650000 0.17650100 8369.84473755 0 224.65789364 0 2675.08378291 0 -5.72670688 0 1533.57321988 0 33984
0.17750000 0.17750300 8121.60620681 0 238.48501810 0 2505.59725119 0 4.79543021 0 1274.03783515 0 34069
