### header ###
fiducial parameters:
Omega_m = 0.31
Omega_nu = 0
Omega_de = 0.69
Omega_k = 0
H_0 = 100
w_de = -1
zeff = 0
beta = 0
fgrowth = 0
b_1 = 2
gamma = 0.55
Lx = 3500 Ly = 3500 Lz = 3500
nx = 700 ny = 700 nz = 700
xoffset = 857.220397 yoffset = 15.9954215 zoffset = 262.898189
bins = 400 dk = 0.001
kx_ny = 0.628318531 ky_ny = 0.628318531 kz_ny = 0.628318531
############################
A(data) = 3.03214695 (not used)
A(ran) = 3.03475383 (used)
Ngal = 185806
weighted Ngal = 0
Nran = 9360983
weighted Nran = 0
SN(data) = 3438.7395
SN(ran) = 68.1491659
SN(data+ran) = 3506.88867
############################
13 columns: k_central k_mean P_0(k) sigma^{lin}_{P_0(k)} P^img_1(k) sigma^{lin}_{P_1(k)} P_2(k) sigma^{lin}_{P_2(k)} P^img_3(k) sigma^{lin}_{P_3(k)} P_4(k) sigma^{lin}_{P_4(k)} N_modes
### header ###
0.00050000 0 0 0 0 0 0 0 0 0 0 0 0
0.00150000 0.00179520 19082.91552648 0 -31648.72657215 0 -12113.26244724 0 50592.59524909 0 -16861.98775505 0 3
0.00250000 0.00253879 36594.05086125 0 -35601.05177567 0 -1512.95786644 0 -32207.94894602 0 4087.33665945 0 6
0.00350000 0.00331552 51532.20124369 0 -30666.63091778 0 -23185.07860425 0 9690.13785046 0 8865.41130633 0 7
0.00450000 0.00420575 65929.78873248 0 -21914.99747815 0 -25094.64035043 0 -23194.29593785 0 6223.10526094 0 24
0.00550000 0.00557378 77634.00389962 0 -10666.05114692 0 -46669.15851794 0 -29437.57816686 0 5758.86638576 0 45
0.00650000 0.00659388 75004.25366110 0 1753.80004900 0 -32457.49139224 0 -38369.51164421 0 -10992.17614658 0 40
0.00750000 0.00754703 68796.94151444 0 11596.19251361 0 -44018.95029510 0 -48742.94617130 0 -21843.05731348 0 57
0.00850000 0.00846663 60247.52738146 0 16633.12810617 0 -29314.38063484 0 -45884.22387740 0 6614.30238768 0 75
0.00950000 0.00948925 45218.77735412 0 15735.89936482 0 -16075.25461039 0 -44120.22855818 0 8160.77987460 0 112
0.01050000 0.01054430 38377.82972575 0 4355.32501353 0 2172.52552938 0 -12249.61154060 0 -75.03156844 0 105
0.01150000 0.01145670 44534.10931810 0 -5281.31858010 0 6995.45037267 0 1459.05894618 0 8191.50057305 0 144
0.01250000 0.01249090 49967.72747495 0 -11396.78336964 0 14916.68073955 0 7740.79544134 0 1921.85901808 0 169
0.01350000 0.01339930 68173.64743140 0 -13222.71467439 0 22499.84853569 0 8615.79017554 0 -8982.19042677 0 180
0.01450000 0.01448870 73832.07860288 0 -6430.79876450 0 19429.91441455 0 -818.76113079 0 -2215.53225908 0 267
0.01550000 0.01550050 80549.15426019 0 311.60882330 0 14185.36400299 0 -6598.11585063 0 -32092.17024349 0 238
0.01650000 0.01653350 72793.55488184 0 4678.14526187 0 23150.45740000 0 -14048.45287709 0 -10076.53521934 0 315
0.01750000 0.01747870 76492.96544392 0 7928.45810530 0 26108.43463986 0 -7723.17010100 0 -34264.31359074 0 297
0.01850000 0.01844180 69099.31501910 0 4947.29140298 0 24909.95645892 0 -9492.41480410 0 -29234.45960815 0 388
0.01950000 0.01947590 62850.18765171 0 4211.09622400 0 21122.41919511 0 10120.71097671 0 -29617.42857855 0 399
0.02050000 0.02045430 64468.61654396 0 3208.76739832 0 23678.99279737 0 7625.60125265 0 -19654.83983567 0 462
0.02150000 0.02154770 61562.57111048 0 1116.62488638 0 11585.96352145 0 23043.55881155 0 -9768.64255516 0 571
0.02250000 0.02255340 61693.52469149 0 -623.14795457 0 18791.44545303 0 16165.51703576 0 -2460.99434909 0 510
0.02350000 0.02348930 61187.92022161 0 -980.64785855 0 5989.62570461 0 14921.62662587 0 10311.56598547 0 555
0.02450000 0.02439640 62284.10848090 0 -443.86744387 0 6007.37469212 0 11081.05597191 0 18692.97735262 0 592
0.02550000 0.02547300 60641.39978307 0 691.13253426 0 2203.87570427 0 4581.08224281 0 23048.50469787 0 837
0.02650000 0.02652900 58776.23860728 0 463.23620914 0 8116.09828795 0 -2364.96546990 0 17072.07551721 0 723
0.02750000 0.02749970 59449.77839908 0 1248.83629621 0 9121.68690234 0 -10030.99934323 0 18655.54598569 0 826
0.02850000 0.02848090 57693.20190935 0 -240.40042499 0 14892.85056000 0 -7280.45707196 0 7815.80430367 0 831
0.02950000 0.02946900 59857.92642712 0 1959.67256714 0 17508.77479811 0 -10552.59925910 0 9066.92245198 0 996
0.03050000 0.03053250 58795.79733955 0 1604.34435688 0 24311.84143352 0 -4776.05132974 0 2693.85566963 0 1041
0.03150000 0.03150510 59808.91718994 0 2587.37298526 0 25826.40671302 0 -137.49451568 0 3446.82189950 0 1036
0.03250000 0.03246190 57560.78704374 0 2850.51661887 0 29697.68682477 0 -1786.91500605 0 6993.56194335 0 1059
0.03350000 0.03345080 57516.61128636 0 2447.64045602 0 35259.33599345 0 2438.91771106 0 4193.78562188 0 1302
0.03450000 0.03451200 56151.77147461 0 219.01958323 0 35354.88152466 0 7601.81603570 0 15092.59692349 0 1339
0.03550000 0.03553350 55472.16173141 0 1212.78752932 0 35537.99172507 0 7891.53256764 0 10941.87423456 0 1365
0.03650000 0.03647120 54920.80781306 0 2647.19572845 0 30556.36013411 0 10316.24209618 0 18805.83348596 0 1308
0.03750000 0.03744890 49810.92039726 0 3110.13068816 0 27612.20889465 0 5322.96519106 0 9074.77966684 0 1579
0.03850000 0.03847530 48053.21984245 0 4469.02419568 0 24836.10538362 0 5058.22538504 0 16391.56652196 0 1662
0.03950000 0.03950240 44688.55585914 0 2356.98460788 0 23349.41691794 0 1552.45751311 0 10253.58670900 0 1683
0.04050000 0.04050350 43418.13751353 0 701.13671341 0 22296.95478999 0 482.02608091 0 9257.06929975 0 1822
0.04150000 0.04152450 42379.27657297 0 1059.94390507 0 20842.52699191 0 -3234.14878767 0 4602.03481578 0 1887
0.04250000 0.04250150 42858.80273315 0 226.90040346 0 23717.77304239 0 -1946.85822531 0 2572.49036369 0 1920
0.04350000 0.04349210 42393.43979289 0 -283.65107681 0 24076.23739420 0 333.52696816 0 3149.54040962 0 2005
0.04450000 0.04448520 43941.16499204 0 -422.12015690 0 23072.11006440 0 2026.57692029 0 265.31420327 0 2151
0.04550000 0.04548030 43827.97163918 0 -130.32073238 0 24259.12278160 0 3450.55379554 0 -574.88172440 0 2274
0.04650000 0.04648670 45479.89767060 0 33.13957408 0 23948.99322793 0 1020.40041986 0 2316.88920672 0 2311
0.04750000 0.04749250 43633.73319455 0 1112.90085879 0 23110.55308990 0 1048.27048929 0 1794.80594287 0 2568
0.04850000 0.04851840 44233.53431755 0 1479.31459880 0 25044.61945468 0 2025.01446984 0 4129.43289644 0 2493
0.04950000 0.04949480 41628.62591715 0 2031.54528791 0 23470.47872631 0 2288.29299126 0 2823.92123924 0 2644
0.05050000 0.05050630 40448.13277738 0 1566.82306474 0 26461.95310535 0 3189.30983190 0 8321.70103047 0 2829
0.05150000 0.05149060 38564.08730836 0 1252.57943291 0 24493.04072331 0 3481.33069724 0 4522.13627038 0 2784
0.05250000 0.05249300 37757.34580540 0 538.88241637 0 25330.58160927 0 4401.89502951 0 8797.70886697 0 3055
0.05350000 0.05348950 37193.62717124 0 784.35125077 0 21273.71835395 0 3056.97365085 0 4577.82245410 0 3009
0.05450000 0.05448610 36144.76205153 0 687.44335269 0 21033.39324132 0 1860.51878704 0 7286.78555832 0 3336
0.05550000 0.05550870 35337.57092254 0 686.16753883 0 18990.40497097 0 844.86192179 0 4449.79144227 0 3349
0.05650000 0.05647670 36015.71938114 0 697.59928063 0 18967.13682395 0 1391.44643204 0 3884.19561944 0 3324
0.05750000 0.05747970 34105.03356989 0 251.94906955 0 15770.52056907 0 921.11849635 0 2408.73656384 0 3639
0.05850000 0.05849280 35269.90220514 0 734.80471048 0 16875.02690990 0 353.91413640 0 2504.75420239 0 3846
0.05950000 0.05951020 33590.99861196 0 479.82178930 0 15718.36394968 0 2518.55772148 0 4348.01859056 0 3787
0.06050000 0.06049470 33693.73815964 0 527.74630369 0 15599.10064543 0 3759.90774431 0 6727.69807226 0 3930
0.06150000 0.06148310 32750.98478283 0 283.15761224 0 13170.33324198 0 3172.05543303 0 5246.66365390 0 4083
0.06250000 0.06249100 32554.16098853 0 75.58640696 0 13350.29606018 0 3440.33604403 0 7439.62468631 0 4303
0.06350000 0.06350600 32038.21511998 0 -20.41954130 0 12850.31191567 0 2079.45294133 0 7712.50272345 0 4470
0.06450000 0.06451750 32012.02440378 0 179.29624761 0 12840.98217556 0 -551.96203756 0 7840.01666534 0 4479
0.06550000 0.06550280 32109.03121958 0 307.88929198 0 12855.59502151 0 -525.99163811 0 7147.18791689 0 4636
0.06650000 0.06648880 31205.17049430 0 799.07537916 0 12496.79345018 0 -258.57768129 0 7072.43758953 0 4653
0.06750000 0.06749660 31130.42016694 0 569.43787725 0 13140.43311104 0 1102.60554679 0 5601.27246251 0 5220
0.06850000 0.06852730 30553.21275191 0 148.73629047 0 10553.08260708 0 2067.84134912 0 3894.37964901 0 5029
0.06950000 0.06949320 30515.89379148 0 221.69373404 0 8997.00560443 0 1813.65651414 0 1186.49564726 0 5040
0.07050000 0.07048030 29483.77724136 0 303.12325607 0 6530.01998850 0 831.38325750 0 -293.28656261 0 5475
0.07150000 0.07148790 28657.47700613 0 939.83755201 0 6618.80988863 0 -224.23074891 0 -3333.98824746 0 5509
0.07250000 0.07249820 28722.44796735 0 788.27198975 0 6076.61710062 0 -1514.03696891 0 -687.24439317 0 5916
0.07350000 0.07351270 27184.38972783 0 933.01222888 0 6775.89798259 0 -865.55146352 0 -3393.17027356 0 5721
0.07450000 0.07449140 27304.21506462 0 407.48482965 0 8055.81467808 0 -1126.09963088 0 -1115.41426830 0 6028
0.07550000 0.07549160 27307.92447936 0 150.53367052 0 8506.50856914 0 231.23704651 0 -1742.31210395 0 6183
0.07650000 0.07648840 26979.36025850 0 110.55742026 0 8663.15827772 0 843.37815589 0 -762.80517145 0 6330
0.07750000 0.07749960 26923.94385039 0 248.61958880 0 7939.65379342 0 -530.61379369 0 -988.11165064 0 6583
0.07850000 0.07848650 26821.65392874 0 479.53627677 0 9313.60977292 0 -376.35497151 0 -992.90578817 0 6549
0.07950000 0.07947320 26606.73268676 0 567.89678404 0 9342.94787133 0 -888.14067523 0 -642.20872602 0 6828
0.08050000 0.08048110 25986.92320546 0 436.99603408 0 9802.72420818 0 -759.65329299 0 -1936.03347865 0 7147
0.08150000 0.08149960 25572.36800650 0 472.06461623 0 8190.75869010 0 -151.47114080 0 -3105.53326201 0 7386
0.08250000 0.08250610 25244.14100515 0 369.17556789 0 9324.87290496 0 1084.21584219 0 -3890.68147492 0 7227
0.08350000 0.08350160 25357.10954500 0 412.90169924 0 7685.49143975 0 261.80374805 0 -4878.76839612 0 7798
0.08450000 0.08449610 24334.09792197 0 464.65815146 0 8484.72418802 0 653.40553821 0 -4358.33750793 0 7371
0.08550000 0.08548940 24092.42393126 0 711.96932852 0 7586.40510355 0 -195.68961264 0 -4383.92122899 0 8256
0.08650000 0.08650700 23273.87974502 0 804.02800988 0 8438.88481434 0 -453.00834104 0 -3595.60315258 0 8037
0.08750000 0.08749060 23059.18331606 0 1037.58287857 0 8020.06940875 0 1024.54821998 0 -2591.82428295 0 8155
0.08850000 0.08849210 21828.10724800 0 647.12201445 0 8451.91272854 0 1420.31242311 0 -947.93868899 0 8718
0.08950000 0.08949900 21592.05358265 0 616.56767764 0 7353.07167568 0 2023.23844702 0 -391.12743471 0 8571
0.09050000 0.09049190 20856.57780532 0 620.24786669 0 7309.72772646 0 2560.97993734 0 916.25466677 0 8932
0.09150000 0.09150830 19768.48281456 0 1029.92911949 0 6532.92007639 0 1459.85703239 0 1168.42068088 0 9285
0.09250000 0.09250820 18592.82315461 0 811.63905449 0 5895.12555392 0 1336.71570363 0 3513.98478762 0 9204
0.09350000 0.09350330 18042.03126879 0 499.01407636 0 5942.21263983 0 544.95573996 0 3965.46552423 0 9349
0.09450000 0.09448040 18077.32691209 0 -31.64636604 0 5657.26214380 0 503.39905421 0 3188.80400262 0 9564
0.09550000 0.09549270 18085.19536760 0 -38.80250151 0 6182.75132482 0 -333.49661841 0 2734.42317812 0 10155
0.09650000 0.09649430 18478.84295620 0 -155.39075571 0 5900.09392154 0 -1417.09759701 0 1783.08194416 0 9913
0.09750000 0.09749140 18279.43381223 0 204.15944297 0 7463.37618130 0 -1471.59227175 0 1638.63958226 0 10476
0.09850000 0.09850240 18252.34384397 0 565.33503973 0 8532.36206582 0 -1374.39436488 0 680.16503134 0 10575
0.09950000 0.09950330 17900.96110212 0 529.64372553 0 8480.83492287 0 132.27435748 0 135.59034944 0 10882
0.10050000 0.10051200 17403.89952679 0 441.43609112 0 8748.03643139 0 795.89989533 0 122.01613962 0 10875
0.10150000 0.10150300 17127.49192532 0 277.62721208 0 7744.92076016 0 1029.43677899 0 -142.64835404 0 11118
0.10250000 0.10250800 17144.80252744 0 -30.68090654 0 8055.45497725 0 1101.68493749 0 1406.45270076 0 11575
0.10350000 0.10349800 16832.31243712 0 15.12294668 0 7327.04956924 0 662.50484498 0 1214.22633261 0 11364
0.10450000 0.10450100 17378.49565614 0 -160.09496804 0 7337.14367359 0 583.43923180 0 2654.55835468 0 12093
0.10550000 0.10551000 17275.53129545 0 76.67337789 0 7944.74580821 0 106.52989511 0 3414.42634409 0 12067
0.10650000 0.10649700 17333.75786623 0 270.44443626 0 7726.67718402 0 105.26846928 0 3440.76318876 0 12054
0.10750000 0.10749900 17212.47124484 0 461.27246746 0 8628.70568323 0 -222.39402658 0 4045.74625175 0 12807
0.10850000 0.10850100 16714.17319794 0 561.86167866 0 8207.17004017 0 -40.31358219 0 3062.13310953 0 12736
0.10950000 0.10950300 16474.41011785 0 531.80193047 0 8586.84549991 0 -46.37622716 0 3533.52103859 0 12933
0.11050000 0.11050200 15654.06742750 0 441.54737356 0 7849.21151764 0 394.43893041 0 2036.37876773 0 13428
0.11150000 0.11150900 15401.26519256 0 323.88361390 0 7478.53981914 0 617.49952758 0 1497.98531967 0 13453
0.11250000 0.11250000 15026.61430370 0 91.27385912 0 6242.39421760 0 532.62362204 0 52.71336882 0 13668
0.11350000 0.11349100 14806.97198841 0 -151.37671933 0 5821.75782659 0 827.28379217 0 9.25975582 0 13791
0.11450000 0.11448600 15039.09142601 0 -245.67341425 0 5136.96614341 0 648.65973547 0 -836.29991813 0 14205
0.11550000 0.11549300 15057.07646718 0 -100.21489753 0 4527.03719410 0 119.57691841 0 -752.36035879 0 14776
0.11650000 0.11649800 15140.48209560 0 215.27981873 0 5005.04586643 0 -98.77260963 0 -1150.40191776 0 14553
0.11750000 0.11747300 14953.77488696 0 344.49447108 0 4763.04589685 0 -231.17185074 0 -546.27876455 0 14568
0.11850000 0.11849100 14672.87102519 0 298.14701999 0 4960.87010906 0 377.29918618 0 -291.98939152 0 16015
0.11950000 0.11950300 14412.08792823 0 188.89126708 0 4920.13399081 0 764.78914631 0 -76.77656706 0 15270
0.12050000 0.12050700 14187.38732012 0 141.75472230 0 4649.07693908 0 819.68960854 0 217.25367700 0 15999
0.12150000 0.12150000 13949.42274415 0 248.38241107 0 4387.61940308 0 704.32793415 0 27.51171748 0 15670
0.12250000 0.12250700 13780.25095064 0 392.89109281 0 4226.47343420 0 -50.10834802 0 669.09636257 0 16887
0.12350000 0.12352200 13487.88162513 0 350.81733712 0 4160.91795914 0 -37.04468855 0 548.79891844 0 16407
0.12450000 0.12449800 13145.26659085 0 178.25423929 0 4496.75488103 0 -419.61798805 0 554.02244884 0 16306
0.12550000 0.12549900 13384.69245142 0 -67.53944992 0 4173.18150909 0 47.38271503 0 883.72422356 0 17523
0.12650000 0.12650100 13373.78902021 0 -201.63928907 0 4550.91233625 0 -18.65813134 0 222.67054659 0 17154
0.12750000 0.12750600 13777.89041399 0 -81.72155413 0 4320.60264342 0 141.28823530 0 173.69952762 0 18007
0.12850000 0.12850300 13636.59543430 0 38.93008290 0 4122.96952227 0 95.29621358 0 -97.02401400 0 17496
0.12950000 0.12949900 13692.91109446 0 204.47305712 0 4143.49495051 0 112.07299720 0 216.85350984 0 18405
0.13050000 0.13049000 13408.97225700 0 334.42846835 0 3962.43054853 0 -67.57407112 0 -85.22728828 0 18100
0.13150000 0.13148800 13284.42584690 0 295.00413404 0 3977.92016524 0 195.07812124 0 -259.50728310 0 19059
0.13250000 0.13249300 12873.91728220 0 472.62777283 0 4215.49131844 0 -345.48814461 0 -693.56388701 0 18957
0.13350000 0.13349100 12663.71711353 0 416.76735902 0 4281.06927480 0 -204.38875224 0 -639.34798041 0 19468
0.13450000 0.13450700 12178.23340846 0 300.32883030 0 4698.99666898 0 -440.79874622 0 -487.96788888 0 19953
0.13550000 0.13551000 12123.37903290 0 124.47896619 0 4577.50771588 0 281.77051594 0 -695.68949407 0 19956
0.13650000 0.13649900 12015.35637937 0 -24.56396923 0 4797.17251247 0 397.34126643 0 -404.03507394 0 19723
0.13750000 0.13749600 12014.90675334 0 -68.89338630 0 4375.55818485 0 622.96248384 0 -851.93453923 0 20946
0.13850000 0.13851100 12171.26420501 0 107.33101629 0 4552.35113954 0 376.22570403 0 -255.49549486 0 20955
0.13950000 0.13949800 11853.49100884 0 385.51947406 0 3982.55131334 0 99.61992988 0 -512.31513837 0 20506
0.14050000 0.14048300 11475.13070524 0 502.37390686 0 4317.55642708 0 71.31293637 0 307.14516090 0 21447
0.14150000 0.14148400 11131.40284654 0 378.94818964 0 4549.51849556 0 -218.29680939 0 185.71465918 0 21771
0.14250000 0.14249400 10907.35419617 0 230.68625463 0 4502.90351698 0 -32.45052219 0 132.03493162 0 22470
0.14350000 0.14350900 10865.46029089 0 11.64171715 0 4813.16795846 0 252.88204356 0 312.96894204 0 22519
0.14450000 0.14449900 10959.78059118 0 1.24086667 0 4565.96356758 0 -70.33173997 0 551.21565835 0 22218
0.14550000 0.14550500 10814.52890243 0 21.17311453 0 4694.57909324 0 368.14142803 0 574.48942569 0 23559
0.14650000 0.14650700 10869.27087149 0 122.56018712 0 4645.56985606 0 3.02923172 0 381.39752743 0 23044
0.14750000 0.14750500 10874.64390254 0 151.36547868 0 4599.88785149 0 287.55045854 0 962.29974436 0 23649
0.14850000 0.14849900 10650.40416111 0 201.44032955 0 4495.02382082 0 27.34794120 0 583.77532726 0 23640
0.14950000 0.14949500 10462.28063047 0 143.35876316 0 4247.74074538 0 341.77086141 0 906.89008065 0 24457
0.15050000 0.15050000 10441.26061361 0 79.17723284 0 4310.58722362 0 358.98366988 0 753.74633103 0 24591
0.15150000 0.15149900 10321.48023942 0 2.64535226 0 3922.44755388 0 318.43864269 0 994.95495880 0 25020
0.15250000 0.15250500 10420.92627643 0 35.57463625 0 4342.20717413 0 108.04446039 0 849.46609233 0 25297
0.15350000 0.15350100 10396.32049198 0 82.74332928 0 3716.46262924 0 -146.97825270 0 547.39046491 0 25452
0.15450000 0.15450400 10155.74808504 0 191.95771660 0 4107.72719988 0 -88.40221008 0 634.56508352 0 26061
0.15550000 0.15549900 10046.44399733 0 198.32666930 0 3760.21124188 0 -96.72624917 0 340.08813600 0 26128
0.15650000 0.15649500 9932.50876152 0 103.28011057 0 3849.22595502 0 88.22921647 0 470.56398936 0 26331
0.15750000 0.15749700 9805.41072371 0 113.46987287 0 3401.53331771 0 289.53892966 0 -162.47461380 0 27345
0.15850000 0.15849900 9701.95177438 0 176.36918216 0 3501.21540839 0 336.46077801 0 103.19254591 0 26980
0.15950000 0.15949700 9423.01502649 0 249.16700849 0 3161.93884737 0 160.20287828 0 -301.42029748 0 27777
0.16050000 0.16050000 9167.95342075 0 223.40680921 0 2750.46358672 0 175.87346947 0 1.87959417 0 28224
0.16150000 0.16150500 9016.80039037 0 134.12232046 0 2903.37015861 0 456.16134357 0 -205.90061976 0 28075
0.16250000 0.16249700 8941.67912154 0 48.10852384 0 2494.77250454 0 180.44504212 0 -282.00769367 0 28590
0.16350000 0.16349900 8937.57628402 0 -34.30005886 0 2431.20662465 0 401.84202298 0 -383.52875481 0 29163
0.16450000 0.16449100 9018.82370750 0 -49.12546552 0 2483.88031398 0 50.86585547 0 -347.69918061 0 28996
0.16550000 0.16550500 9027.46776792 0 -23.46654450 0 2225.98606426 0 263.50895476 0 -384.28525061 0 30777
0.16650000 0.16650700 9109.25474263 0 -13.74023423 0 2043.28052728 0 192.56021548 0 -551.21903055 0 29211
0.16750000 0.16749900 9108.79387595 0 71.41500148 0 1996.00235030 0 152.94479011 0 -289.11740526 0 30922
0.16850000 0.16850800 9053.56855891 0 167.36317280 0 1881.21282504 0 100.21658362 0 -486.75727080 0 30867
0.16950000 0.16949900 8876.26977493 0 176.20506866 0 2192.25287141 0 -58.22454747 0 188.53381439 0 30852
0.17050000 0.17049200 8668.62123398 0 295.25030430 0 2129.67616880 0 0.82547068 0 -80.79352601 0 31257
0.17150000 0.17149500 8624.55788311 0 230.18379754 0 2265.65432069 0 -5.47407326 0 277.05618702 0 32608
0.17250000 0.17250900 8205.98977184 0 185.27964600 0 2464.88361424 0 -36.86573739 0 50.80178376 0 32361
0.17350000 0.17350400 8329.26598841 0 118.91372002 0 2358.97420306 0 121.39340757 0 471.05408173 0 32508
0.17450000 0.17449800 8102.29476885 0 -16.53409797 0 2204.10051728 0 232.20037028 0 101.35795930 0 32791
0.17550000 0.17549800 8252.16636505 0 -61.24985621 0 2062.05241400 0 366.26536342 0 70.35073666 0 33633
0.17650000 0.17650100 8193.80490645 0 -82.67374965 0 1902.64874598 0 87.23913995 0 27.24104261 0 33984
0.17750000 0.17750300 8343.35052378 0 11.32518042 0 1903.43559153 0 196.19206973 0 -137.80250951 0 34069
0.17850000 0.17849800 8217.19670062 0 83.53748126 0 1648.69996467 0 -21.59418931 0 -89.06518366 0 34536
