### header ###
fiducial parameters:
Omega_m = 0.31
Omega_nu = 0
Omega_de = 0.69
Omega_k = 0
H_0 = 100
w_de = -1
zeff = 0
beta = 0
fgrowth = 0
b_1 = 2
gamma = 0.55
Lx = 3500 Ly = 3500 Lz = 3500
nx = 700 ny = 700 nz = 700
xoffset = 857.220397 yoffset = 15.9954215 zoffset = 262.898189
bins = 400 dk = 0.001
kx_ny = 0.628318531 ky_ny = 0.628318531 kz_ny = 0.628318531
############################
A(data) = 3.10434937 (not used)
A(ran) = 3.10476097 (used)
Ngal = 189718
weighted Ngal = 0
Nran = 9360983
weighted Nran = 0
SN(data) = 3444.24051
SN(ran) = 69.7212632
SN(data+ran) = 3513.96178
############################
13 columns: k_central k_mean P_0(k) sigma^{lin}_{P_0(k)} P^img_1(k) sigma^{lin}_{P_1(k)} P_2(k) sigma^{lin}_{P_2(k)} P^img_3(k) sigma^{lin}_{P_3(k)} P_4(k) sigma^{lin}_{P_4(k)} N_modes
### header ###
0.00050000 0 0 0 0 0 0 0 0 0 0 0 0
0.00150000 0.00179520 37802.53322134 0 -57518.18497747 0 -43430.50222933 0 113663.21206164 0 -71004.26809848 0 3
0.00250000 0.00253879 70919.51359197 0 -67203.69167983 0 -17093.43275360 0 -50153.98505757 0 52006.33189153 0 6
0.00350000 0.00331552 93893.38036898 0 -46100.49399746 0 -36207.48488261 0 -50060.35043698 0 -38990.78241011 0 7
0.00450000 0.00420575 115909.09407769 0 -24599.48968573 0 -48623.12083451 0 -51098.53693849 0 15451.96052736 0 24
0.00550000 0.00557378 106691.98529129 0 8767.67384822 0 -46069.91942747 0 -65847.84438865 0 13344.56332831 0 45
0.00650000 0.00659388 105720.56825512 0 15662.38550904 0 -70054.77033123 0 -27716.40972693 0 20777.55603069 0 40
0.00750000 0.00754703 81108.26422755 0 10273.84236162 0 -33716.66908713 0 -29892.71211495 0 -9919.30099691 0 57
0.00850000 0.00846663 72974.75417162 0 10645.21098047 0 -48333.78648470 0 -19932.59631524 0 1478.21301503 0 75
0.00950000 0.00948925 62959.33437031 0 6979.34252017 0 -25605.52792615 0 -3368.95791189 0 12284.34515136 0 112
0.01050000 0.01054430 60334.75483113 0 -3236.71165604 0 -49806.76135649 0 11218.42796450 0 18511.89046935 0 105
0.01150000 0.01145670 59848.93390654 0 -8628.75064584 0 -35006.30894550 0 17496.63489532 0 30373.02512069 0 144
0.01250000 0.01249090 73610.97500300 0 -14688.38312320 0 -56216.18040330 0 19433.17420326 0 25182.76705216 0 169
0.01350000 0.01339930 76112.24460366 0 -14022.14975437 0 -46836.41940082 0 3287.35078758 0 29392.72797044 0 180
0.01450000 0.01448870 88293.28817480 0 2746.69796872 0 -39791.79118120 0 -30253.87422294 0 22967.12238658 0 267
0.01550000 0.01550050 88032.16785832 0 3922.31266607 0 -28944.78803881 0 -30490.26510781 0 12475.77343331 0 238
0.01650000 0.01653350 80401.78932911 0 8510.79125707 0 -4626.02236444 0 -36559.99168953 0 22726.12283490 0 315
0.01750000 0.01747870 81629.38079544 0 4296.36780045 0 -1189.91280508 0 -18611.03300879 0 8236.35076947 0 297
0.01850000 0.01844180 74097.02074061 0 782.56960763 0 21254.04721517 0 2647.49922602 0 -1714.24419908 0 388
0.01950000 0.01947590 83151.25249791 0 956.69740404 0 19022.66563856 0 -7634.59377324 0 -27825.66885203 0 399
0.02050000 0.02045430 80758.45517681 0 2197.05262928 0 26565.14227906 0 -13800.03449593 0 -36724.77962925 0 462
0.02150000 0.02154770 78048.89631810 0 1169.48854270 0 32957.25072374 0 -19888.75777739 0 -25082.61285415 0 571
0.02250000 0.02255340 80968.65534548 0 -5265.95261055 0 40610.22296092 0 -11806.95471482 0 -30445.52731790 0 510
0.02350000 0.02348930 87189.45627302 0 -4416.40670960 0 49968.85154003 0 -6580.50175094 0 -22743.09621751 0 555
0.02450000 0.02439640 95890.95641039 0 -4609.61101437 0 49172.11421621 0 -10296.59343870 0 -46901.72758157 0 592
0.02550000 0.02547300 95903.43353270 0 -510.31430254 0 52935.14686143 0 7003.04905257 0 -12767.58072629 0 837
0.02650000 0.02652900 97601.89585815 0 4566.06473344 0 47544.80520989 0 15818.18092817 0 -24453.02400671 0 723
0.02750000 0.02749970 89730.74259028 0 4124.20599385 0 42056.44508397 0 23241.16945140 0 4492.62956221 0 826
0.02850000 0.02848090 90457.45066004 0 4712.30559945 0 36573.48047041 0 23947.30713032 0 -5547.51967071 0 831
0.02950000 0.02946900 79815.81420650 0 4982.64324953 0 21714.01464308 0 20925.93262034 0 11431.74179342 0 996
0.03050000 0.03053250 74288.78624208 0 4728.86307797 0 11839.44019543 0 22158.91959902 0 6932.05310255 0 1041
0.03150000 0.03150510 68251.54514097 0 3047.48654163 0 48.96775919 0 6578.62456226 0 4971.52624595 0 1036
0.03250000 0.03246190 64456.47664117 0 3076.48742052 0 -5703.02283292 0 417.41819270 0 10080.04230237 0 1059
0.03350000 0.03345080 60663.54386501 0 3477.75617031 0 1885.54047557 0 -5102.60347413 0 1356.11706679 0 1302
0.03450000 0.03451200 56092.08361923 0 4692.60073871 0 -4544.40399948 0 -8223.67131544 0 1434.21710807 0 1339
0.03550000 0.03553350 54149.81157942 0 4788.71954312 0 7906.31402336 0 -10386.03529656 0 1533.24724101 0 1365
0.03650000 0.03647120 48347.50007859 0 5460.10112998 0 13156.50724158 0 -7422.62882240 0 -989.90678256 0 1308
0.03750000 0.03744890 48480.47697674 0 3358.05448068 0 21706.25859408 0 -5781.85351650 0 1826.25728361 0 1579
0.03850000 0.03847530 44960.91682635 0 2659.88642313 0 24821.15531815 0 -5767.02709819 0 -1502.86376208 0 1662
0.03950000 0.03950240 48108.07421802 0 296.88357085 0 32411.96675678 0 -2810.75843724 0 3767.50642420 0 1683
0.04050000 0.04050350 45701.33849001 0 -751.77359682 0 29679.47697059 0 -3922.35762867 0 -5639.72672866 0 1822
0.04150000 0.04152450 48340.30606212 0 511.50581151 0 32267.07476886 0 339.27880914 0 -5168.28259635 0 1887
0.04250000 0.04250150 47366.97811532 0 -424.17607192 0 27834.32415309 0 -2302.05154775 0 -14246.17592344 0 1920
0.04350000 0.04349210 47300.77068252 0 2002.98279441 0 28762.57709046 0 7026.86799146 0 -7930.63879154 0 2005
0.04450000 0.04448520 45613.88622732 0 1463.27419021 0 24441.89576248 0 4088.78670340 0 -15255.02432655 0 2151
0.04550000 0.04548030 42527.09113008 0 1360.30982951 0 18296.18238182 0 8379.18571831 0 -11974.44041071 0 2274
0.04650000 0.04648670 43958.13837464 0 -127.85678174 0 18461.19513455 0 7638.12333757 0 -6814.19487963 0 2311
0.04750000 0.04749250 42890.27655520 0 -1112.10389666 0 13183.03517731 0 5109.57267758 0 -2667.18160545 0 2568
0.04850000 0.04851840 45544.08178628 0 -1922.99432380 0 14023.72344548 0 4913.94039226 0 -296.15405261 0 2493
0.04950000 0.04949480 46216.38510650 0 -684.18693617 0 14493.91986555 0 182.83368040 0 5465.32803257 0 2644
0.05050000 0.05050630 45650.86796822 0 2132.35144367 0 13063.88427956 0 -717.08157647 0 1938.78743808 0 2829
0.05150000 0.05149060 44301.09062845 0 2319.89046046 0 17666.59353438 0 -3437.82937892 0 3732.34566872 0 2784
0.05250000 0.05249300 41793.07663735 0 2970.96019145 0 17800.91931061 0 -5041.69038782 0 -4621.04275616 0 3055
0.05350000 0.05348950 40693.51618284 0 1350.28316906 0 21154.90467573 0 -4116.22513183 0 -8063.12110105 0 3009
0.05450000 0.05448610 38258.67882800 0 878.60298309 0 19962.38403967 0 -3532.72295239 0 -11861.47187086 0 3336
0.05550000 0.05550870 37935.51011949 0 369.32619261 0 20629.74147357 0 -2571.27637341 0 -14677.03006596 0 3349
0.05650000 0.05647670 38061.63022069 0 820.83727898 0 21780.22207589 0 -1989.94363956 0 -15648.44710213 0 3324
0.05750000 0.05747970 37803.09525387 0 1032.73366184 0 22860.89823717 0 184.58272565 0 -15025.82745815 0 3639
0.05850000 0.05849280 37202.50728532 0 1228.16473952 0 22414.41959013 0 1598.48797785 0 -13083.55541834 0 3846
0.05950000 0.05951020 35765.83971539 0 887.52918383 0 22660.47743463 0 4571.17922952 0 -7710.96275430 0 3787
0.06050000 0.06049470 35836.76822150 0 1571.34180634 0 22351.35953953 0 5318.21039580 0 -5592.54971754 0 3930
0.06150000 0.06148310 34087.04852872 0 556.67973867 0 19062.79476167 0 5142.12560210 0 -2610.28143145 0 4083
0.06250000 0.06249100 32971.30153716 0 699.49670247 0 17679.96990875 0 5836.51680100 0 -367.28264231 0 4303
0.06350000 0.06350600 31716.50769606 0 187.52890021 0 12895.16211209 0 6109.61965116 0 1230.46907292 0 4470
0.06450000 0.06451750 30771.39378260 0 -366.94767092 0 9345.33088929 0 5020.36687338 0 638.64768787 0 4479
0.06550000 0.06550280 30569.39928896 0 307.63862547 0 5227.14988423 0 2695.50804529 0 -2268.41952077 0 4636
0.06650000 0.06648880 30278.60365455 0 583.43248741 0 5166.63022069 0 -24.58959791 0 -1440.83785135 0 4653
0.06750000 0.06749660 29170.16308597 0 869.38227729 0 3865.85087745 0 -1052.48573331 0 -1571.78019171 0 5220
0.06850000 0.06852730 29275.15076379 0 163.99434977 0 4579.76708668 0 -712.00417454 0 -206.16027880 0 5029
0.06950000 0.06949320 29367.99853883 0 -435.48753875 0 6588.92099833 0 -849.67741656 0 -602.73605691 0 5040
0.07050000 0.07048030 30272.87092268 0 -395.88672622 0 6383.93649160 0 -678.48455406 0 -445.54342489 0 5475
0.07150000 0.07148790 31077.02707597 0 -509.03286835 0 9413.57287987 0 -1140.98225245 0 761.90254720 0 5509
0.07250000 0.07249820 31392.32732898 0 -188.13477128 0 9828.46529836 0 -1240.77674964 0 746.08357942 0 5916
0.07350000 0.07351270 31692.67751651 0 874.53499159 0 11913.96570978 0 -2195.59134468 0 1167.99353616 0 5721
0.07450000 0.07449140 31436.16586683 0 1263.51658607 0 12484.65354739 0 -1292.33761454 0 563.00597690 0 6028
0.07550000 0.07549160 30188.34122918 0 1340.90846635 0 14898.02125933 0 -366.77006864 0 2296.86960777 0 6183
0.07650000 0.07648840 29155.99986604 0 925.45513940 0 12252.42170329 0 1689.34615771 0 1575.41092190 0 6330
0.07750000 0.07749960 28121.97240530 0 427.48307136 0 11998.04577725 0 3741.11337629 0 1877.64953876 0 6583
0.07850000 0.07848650 28246.74362841 0 437.32201295 0 10930.57738058 0 2466.80576552 0 1523.49035617 0 6549
0.07950000 0.07947320 27217.54964749 0 202.30473560 0 10328.28083311 0 1984.67177437 0 4196.96672603 0 6828
0.08050000 0.08048110 27022.86157682 0 643.01468068 0 8759.37824798 0 1218.99236852 0 2696.32861280 0 7147
0.08150000 0.08149960 26179.70036549 0 575.15599628 0 9667.17320102 0 280.49470208 0 5622.24751677 0 7386
0.08250000 0.08250610 25798.41749270 0 388.30041105 0 8141.35603014 0 620.69074832 0 5003.39349078 0 7227
0.08350000 0.08350160 25695.11591248 0 209.44592101 0 8751.94817785 0 1358.44388149 0 4674.87423251 0 7798
0.08450000 0.08449610 26071.34049245 0 282.28533774 0 8082.94960894 0 1201.20965907 0 4342.93781643 0 7371
0.08550000 0.08548940 25077.44215481 0 254.01172896 0 6201.63561805 0 1559.15694094 0 2168.84983659 0 8256
0.08650000 0.08650700 24658.84032159 0 467.60545008 0 6495.64607857 0 545.58296827 0 2520.64848252 0 8037
0.08750000 0.08749060 24311.39180749 0 545.76843901 0 4188.14281521 0 435.25710541 0 -219.58611203 0 8155
0.08850000 0.08849210 23631.55725128 0 798.23345442 0 4519.40479225 0 -49.15536565 0 535.81484278 0 8718
0.08950000 0.08949900 22534.58214645 0 963.06635674 0 4585.80331612 0 -1236.55026496 0 -1565.20441104 0 8571
0.09050000 0.09049190 21585.30919221 0 1077.23877028 0 4143.65231962 0 -612.02982694 0 -1705.21795654 0 8932
0.09150000 0.09150830 20719.66667942 0 718.71147083 0 4553.45272332 0 -233.54362804 0 -1579.63740658 0 9285
0.09250000 0.09250820 20106.03955602 0 370.67394664 0 3884.39795116 0 263.78547477 0 -2610.11282169 0 9204
0.09350000 0.09350330 20047.81298523 0 187.43560281 0 4816.58511628 0 -137.96549894 0 -1883.77569340 0 9349
0.09450000 0.09448040 19806.47621404 0 497.46399062 0 5045.42228386 0 -117.95264438 0 -2375.32934987 0 9564
0.09550000 0.09549270 19394.28155173 0 483.58965542 0 5635.80374155 0 -884.43800488 0 -920.74418268 0 10155
0.09650000 0.09649430 19170.48019568 0 478.66512634 0 7010.64773246 0 -685.29414027 0 -1388.36649374 0 9913
0.09750000 0.09749140 19147.54926818 0 346.32782122 0 7692.87654728 0 -756.98701063 0 319.66724581 0 10476
0.09850000 0.09850240 18838.09415356 0 275.10368599 0 8404.82564262 0 -54.05302958 0 -481.69672984 0 10575
0.09950000 0.09950330 18581.58250388 0 231.76310897 0 8962.98015467 0 720.91463837 0 1030.18653039 0 10882
0.10050000 0.10051200 18443.32249989 0 279.84162027 0 7609.31354974 0 1137.18291250 0 1163.90193929 0 10875
0.10150000 0.10150300 18060.80315551 0 500.34047314 0 8176.30321326 0 1327.76814565 0 603.75558393 0 11118
0.10250000 0.10250800 17429.97783649 0 516.69224776 0 6699.88870235 0 1268.63108215 0 613.27191884 0 11575
0.10350000 0.10349800 16952.81221296 0 519.20902946 0 6098.05302156 0 271.06267205 0 460.67109265 0 11364
0.10450000 0.10450100 16656.28384668 0 264.45991381 0 5138.31502150 0 295.82020529 0 1015.02514068 0 12093
0.10550000 0.10551000 16222.50713497 0 197.29140537 0 5318.69374378 0 214.23106602 0 499.38839003 0 12067
0.10650000 0.10649700 16402.58235968 0 -11.45006405 0 5339.83740781 0 384.92709176 0 309.09878600 0 12054
0.10750000 0.10749900 16160.79596245 0 78.39915499 0 5154.14185773 0 -120.61667860 0 -797.97154726 0 12807
0.10850000 0.10850100 16353.23590297 0 319.39184987 0 5725.25684007 0 -541.86793320 0 -565.50252543 0 12736
0.10950000 0.10950300 15775.91608142 0 340.20391470 0 5879.19755183 0 -400.83935694 0 -218.41371216 0 12933
0.11050000 0.11050200 15891.58237745 0 252.99220194 0 5678.49573303 0 135.59821790 0 -564.44702833 0 13428
0.11150000 0.11150900 15427.68072178 0 62.19463290 0 5430.49325595 0 970.10974849 0 360.08075739 0 13453
0.11250000 0.11250000 15521.09052935 0 -81.25472991 0 4649.87502529 0 1505.35918655 0 -76.95787876 0 13668
0.11350000 0.11349100 15448.58833214 0 -68.31112059 0 3906.33970138 0 1612.76360428 0 605.15729308 0 13791
0.11450000 0.11448600 15487.25617065 0 168.35909445 0 3310.88871021 0 898.70913505 0 136.75263273 0 14205
0.11550000 0.11549300 15272.89696121 0 123.55948097 0 2568.57861724 0 277.44736167 0 814.05354626 0 14776
0.11650000 0.11649800 15115.30303796 0 219.31521235 0 2826.40542305 0 -348.52536843 0 738.72207726 0 14553
0.11750000 0.11747300 15083.26718338 0 52.64839786 0 2922.29941444 0 -766.70680132 0 662.19685115 0 14568
0.11850000 0.11849100 15184.99507250 0 -109.30970803 0 3099.01368458 0 -639.37720610 0 191.10342714 0 16015
0.11950000 0.11950300 15220.85274833 0 -23.26837183 0 3637.83427737 0 -107.92339858 0 266.17298898 0 15270
0.12050000 0.12050700 15158.80435629 0 156.18546971 0 3311.37205819 0 -89.01561239 0 -388.77139431 0 15999
0.12150000 0.12150000 14991.31866040 0 278.08021030 0 3525.00062533 0 -151.51947559 0 -835.63334754 0 15670
0.12250000 0.12250700 14679.39060262 0 436.29798967 0 4267.05218334 0 -201.30544175 0 -259.90407807 0 16887
0.12350000 0.12352200 14376.11784589 0 345.86133421 0 3917.95129359 0 -271.48082426 0 -995.96998956 0 16407
0.12450000 0.12449800 14225.26831308 0 331.36651509 0 5101.40072450 0 -34.98854872 0 438.11447883 0 16306
0.12550000 0.12549900 13899.62666141 0 293.66649661 0 4808.21083148 0 -33.71273486 0 87.70911156 0 17523
0.12650000 0.12650100 13728.20673776 0 333.97996639 0 5518.30521946 0 -55.03995871 0 749.33437561 0 17154
0.12750000 0.12750600 13650.98346724 0 310.37797205 0 5376.98775847 0 387.03358971 0 941.65291710 0 18007
0.12850000 0.12850300 13339.95466151 0 222.60759895 0 5148.93743644 0 479.81392084 0 861.22381299 0 17496
0.12950000 0.12949900 13351.64493827 0 19.69159676 0 5061.86735588 0 -23.40404648 0 959.94932430 0 18405
0.13050000 0.13049000 13296.45334318 0 82.54066035 0 5034.86731282 0 42.35241142 0 228.31110513 0 18100
0.13150000 0.13148800 13038.81762843 0 97.74172955 0 4951.92255108 0 62.50060341 0 149.25785667 0 19059
0.13250000 0.13249300 13036.68190479 0 290.55396042 0 4598.34788234 0 92.69096796 0 -446.66074558 0 18957
0.13350000 0.13349100 12757.35173412 0 197.39144716 0 4710.56329858 0 176.36131371 0 -746.83557896 0 19468
0.13450000 0.13450700 12565.92345217 0 323.79593683 0 4162.27807788 0 361.43413173 0 -552.50271286 0 19953
0.13550000 0.13551000 12324.13705495 0 125.36135728 0 4091.16972135 0 399.31849689 0 -630.22057201 0 19956
0.13650000 0.13649900 12175.42324578 0 184.69738029 0 3761.39151021 0 307.67684368 0 -1197.17426545 0 19723
0.13750000 0.13749600 12135.63134219 0 180.37197789 0 4188.64864449 0 237.88926362 0 -458.07562639 0 20946
0.13850000 0.13851100 11930.48946635 0 239.34267975 0 3515.53599742 0 83.43575337 0 -736.49755248 0 20955
0.13950000 0.13949800 11691.06360578 0 102.14952592 0 3579.77631635 0 214.34909285 0 -439.29362309 0 20506
0.14050000 0.14048300 11682.85793075 0 -96.92060002 0 2907.48423678 0 613.53157787 0 -334.09012477 0 21447
0.14150000 0.14148400 11731.30513540 0 -82.08181699 0 3201.19119973 0 580.10188260 0 -245.46096595 0 21771
0.14250000 0.14249400 11873.38696064 0 -69.80522789 0 2776.17095494 0 189.46004401 0 227.22975453 0 22470
0.14350000 0.14350900 11787.95801508 0 59.93335119 0 3211.68996751 0 189.36562254 0 203.45240604 0 22519
0.14450000 0.14449900 11862.14630991 0 226.69919581 0 3164.74901006 0 -134.32352811 0 950.92532989 0 22218
0.14550000 0.14550500 11702.07944350 0 169.18753041 0 3444.12414332 0 261.58455536 0 1401.82155266 0 23559
0.14650000 0.14650700 11548.19493499 0 135.31832569 0 3525.70878633 0 -64.79751798 0 1484.19304122 0 23044
0.14750000 0.14750500 11550.10584562 0 87.78644723 0 3414.60619451 0 423.38473011 0 1687.03058366 0 23649
0.14850000 0.14849900 11303.26115556 0 44.50825582 0 3038.38161454 0 194.09681243 0 711.21620492 0 23640
0.14950000 0.14949500 11385.65512542 0 102.53137083 0 2730.71376338 0 358.58912303 0 857.61106785 0 24457
0.15050000 0.15050000 11089.96980794 0 170.58474330 0 2289.33837178 0 44.90021731 0 330.26043506 0 24591
0.15150000 0.15149900 11022.87436373 0 247.20439088 0 1810.35176283 0 -11.82943602 0 -63.27665794 0 25020
0.15250000 0.15250500 10672.40211459 0 302.46342987 0 1947.45397979 0 154.50499243 0 -7.55938258 0 25297
0.15350000 0.15350100 10450.68027892 0 282.32468002 0 1682.15214124 0 87.35817844 0 -271.28523694 0 25452
0.15450000 0.15450400 10229.54295709 0 250.72945895 0 1974.78000172 0 114.46017420 0 -82.88024041 0 26061
0.15550000 0.15549900 10056.06599436 0 218.00005621 0 2000.06022522 0 -123.63479333 0 171.97521179 0 26128
0.15650000 0.15649500 9941.33267235 0 108.92179318 0 2248.74838199 0 -8.59705201 0 386.08150659 0 26331
0.15750000 0.15749700 9931.73315662 0 4.59643697 0 2365.24648616 0 -15.00188487 0 731.50333136 0 27345
0.15850000 0.15849900 9984.01342317 0 -103.38026477 0 2162.43142503 0 245.67004205 0 681.52177789 0 26980
0.15950000 0.15949700 10126.25261752 0 -76.55085480 0 2372.75524085 0 305.51751467 0 547.32414507 0 27777
0.16050000 0.16050000 10107.09854868 0 108.54680507 0 1969.46317393 0 54.89742726 0 329.27800219 0 28224
0.16150000 0.16150500 10041.77912728 0 249.30077224 0 2209.34990118 0 154.59266950 0 244.25034786 0 28075
0.16250000 0.16249700 9628.74141617 0 310.66798084 0 1901.56964351 0 -170.75447712 0 -135.75895920 0 28590
0.16350000 0.16349900 9544.40281373 0 312.89812594 0 2059.17480741 0 -132.00120966 0 339.36086589 0 29163
0.16450000 0.16449100 9206.21659584 0 213.58248047 0 1846.94008096 0 -125.04212280 0 -49.32442503 0 28996
0.16550000 0.16550500 9229.05759813 0 205.47347504 0 2096.07786376 0 -233.42784934 0 15.05685165 0 30777
0.16650000 0.16650700 8965.27324742 0 122.60177752 0 1990.26961843 0 -201.07388434 0 -90.34223399 0 29211
0.16750000 0.16749900 8942.48844839 0 122.01838775 0 2266.94699552 0 -44.08043665 0 -213.72411267 0 30922
0.16850000 0.16850800 8881.76645314 0 27.06647530 0 2208.12467025 0 17.44391624 0 -215.54509809 0 30867
0.16950000 0.16949900 8871.44753577 0 19.46802022 0 2346.24978643 0 109.88511694 0 -373.21545777 0 30852
0.17050000 0.17049200 8903.23609604 0 38.86499953 0 2342.54037169 0 220.69331613 0 -322.08173759 0 31257
0.17150000 0.17149500 8845.70644560 0 41.01803377 0 2217.80287053 0 112.10109883 0 -276.69873433 0 32608
0.17250000 0.17250900 8803.80129967 0 52.36389699 0 2116.17614727 0 240.44988385 0 -130.39941694 0 32361
0.17350000 0.17350400 8799.24883612 0 72.37360417 0 1774.02197967 0 358.30923083 0 -172.34615327 0 32508
0.17450000 0.17449800 8648.25317485 0 42.44447235 0 1707.29747693 0 206.91902272 0 -617.76817913 0 32791
0.17550000 0.17549800 8602.73978005 0 95.89297973 0 1457.68758679 0 51.06447777 0 -398.63618939 0 33633
0.17650000 0.17650100 8408.55753867 0 195.99985460 0 1579.15405859 0 -138.34655700 0 -566.47708985 0 33984
0.17750000 0.17750300 8350.00498901 0 165.83332023 0 1398.33695094 0 -59.62794271 0 -565.75094381 0 34069
