### header ###
fiducial parameters:
Omega_m = 0.31
Omega_nu = 0
Omega_de = 0.69
Omega_k = 0
H_0 = 100
w_de = -1
zeff = 0
beta = 0
fgrowth = 0
b_1 = 2
gamma = 0.55
Lx = 3500 Ly = 3500 Lz = 3500
nx = 700 ny = 700 nz = 700
xoffset = 857.220397 yoffset = 15.9954215 zoffset = 262.898189
bins = 400 dk = 0.001
kx_ny = 0.628318531 ky_ny = 0.628318531 kz_ny = 0.628318531
############################
A(data) = 3.0564748 (not used)
A(ran) = 3.05125577 (used)
Ngal = 186374
weighted Ngal = 0
Nran = 9360983
weighted Nran = 0
SN(data) = 3454.96131
SN(ran) = 68.5197374
SN(data+ran) = 3523.48105
############################
13 columns: k_central k_mean P_0(k) sigma^{lin}_{P_0(k)} P^img_1(k) sigma^{lin}_{P_1(k)} P_2(k) sigma^{lin}_{P_2(k)} P^img_3(k) sigma^{lin}_{P_3(k)} P_4(k) sigma^{lin}_{P_4(k)} N_modes
### header ###
0.00050000 0 0 0 0 0 0 0 0 0 0 0 0
0.00150000 0.00179520 12537.03497980 0 -13902.77404361 0 -27523.96978641 0 29868.43230938 0 42451.10433114 0 3
0.00250000 0.00253879 28800.34567692 0 -21503.47725489 0 2410.88352813 0 -19917.64624977 0 -3508.64547852 0 6
0.00350000 0.00331552 38962.90559630 0 -15858.87208382 0 -6205.10897912 0 -4000.42394800 0 -11167.66518579 0 7
0.00450000 0.00420575 60189.63803019 0 -12773.42586467 0 11296.51676512 0 -15782.43565885 0 22875.73589613 0 24
0.00550000 0.00557378 62093.91667053 0 -1549.27640895 0 18833.93511279 0 8513.91615797 0 38702.79693838 0 45
0.00650000 0.00659388 81246.86145107 0 2180.71996376 0 5786.93429063 0 76493.75228947 0 22616.97611631 0 40
0.00750000 0.00754703 67441.20662977 0 -14014.95573791 0 -18930.04267654 0 76918.64888710 0 15022.23044991 0 57
0.00850000 0.00846663 84292.74057964 0 -20023.42077314 0 -25311.80972255 0 57413.64692567 0 37306.59571109 0 75
0.00950000 0.00948925 92825.29373652 0 -15275.14509136 0 -41311.18994051 0 36054.27481315 0 38135.14407647 0 112
0.01050000 0.01054430 104984.75525827 0 -7592.18279803 0 -48341.20531418 0 -453.35342902 0 47055.72449658 0 105
0.01150000 0.01145670 96236.94363989 0 11183.49202202 0 -33395.97332177 0 -17397.71716889 0 60867.89889530 0 144
0.01250000 0.01249090 91097.26849965 0 15759.72954437 0 -9809.90698400 0 -22539.41562626 0 70070.50724226 0 169
0.01350000 0.01339930 81554.29324856 0 11091.59970230 0 15785.24582153 0 -20011.05605734 0 66270.94248217 0 180
0.01450000 0.01448870 79442.17497621 0 6752.46122582 0 39370.94121783 0 7181.68547398 0 70298.46763908 0 267
0.01550000 0.01550050 73407.63163127 0 2885.36263614 0 19215.66761161 0 12175.08602626 0 29643.05726222 0 238
0.01650000 0.01653350 79354.04827448 0 -328.32591907 0 60084.42553935 0 23673.48487851 0 69094.25672627 0 315
0.01750000 0.01747870 80232.72994212 0 3305.25714419 0 38695.49051541 0 23823.88478529 0 27532.06305494 0 297
0.01850000 0.01844180 80546.79372354 0 1656.90563970 0 56215.61837076 0 25078.79103290 0 64662.40536256 0 388
0.01950000 0.01947590 73096.71523205 0 449.13706093 0 27141.67525505 0 16477.89471957 0 23237.34763015 0 399
0.02050000 0.02045430 77477.64644795 0 1458.27210063 0 37182.49892702 0 9427.72485914 0 27470.80150845 0 462
0.02150000 0.02154770 74214.82276027 0 2960.13544480 0 29123.96401146 0 189.03402334 0 8498.41530061 0 571
0.02250000 0.02255340 70697.39833352 0 2687.76323694 0 30403.71209718 0 -3345.04904778 0 -916.69867248 0 510
0.02350000 0.02348930 70979.65107338 0 1400.98974451 0 22253.90309769 0 -12842.21864714 0 -157.79063464 0 555
0.02450000 0.02439640 69781.73492498 0 57.66858488 0 30977.21009748 0 -4180.02706538 0 -27599.50695932 0 592
0.02550000 0.02547300 69834.67838992 0 -2025.11563570 0 20557.01446334 0 593.73341974 0 -15599.43786495 0 837
0.02650000 0.02652900 73519.58851255 0 -2009.30004012 0 19619.88141190 0 5158.42454566 0 -32551.01360633 0 723
0.02750000 0.02749970 74367.80801672 0 1230.16557535 0 20977.18998767 0 -234.34283831 0 -15917.54828063 0 826
0.02850000 0.02848090 71605.53050608 0 2106.20569007 0 22550.54387049 0 1750.36040988 0 -31175.83239590 0 831
0.02950000 0.02946900 68944.19403901 0 3161.91636607 0 23114.59972417 0 -2064.16565633 0 -14564.39874564 0 996
0.03050000 0.03053250 67150.74821488 0 2330.52411606 0 25790.66144369 0 -1732.26296220 0 -18325.40807372 0 1041
0.03150000 0.03150510 67090.94795299 0 2302.36628598 0 32234.70169476 0 653.77085936 0 -7996.53148612 0 1036
0.03250000 0.03246190 64479.40756866 0 960.43829260 0 28540.46183202 0 1249.39832875 0 -1951.39944820 0 1059
0.03350000 0.03345080 63681.54617978 0 3148.31517869 0 28014.51178431 0 9582.65474817 0 -9334.12396051 0 1302
0.03450000 0.03451200 60789.43915320 0 2847.86382530 0 25171.97602746 0 2758.29832027 0 -3233.09216650 0 1339
0.03550000 0.03553350 55358.96837855 0 4308.13676176 0 18673.41862035 0 7777.95703266 0 -12767.24350677 0 1365
0.03650000 0.03647120 55956.85859093 0 2729.28620074 0 23007.70113571 0 502.47057646 0 1625.17328269 0 1308
0.03750000 0.03744890 50922.05872201 0 2145.81774324 0 14666.91348030 0 789.32636279 0 -7106.69909296 0 1579
0.03850000 0.03847530 50001.78664667 0 2096.59493369 0 19725.43112227 0 2252.28918697 0 1364.08668816 0 1662
0.03950000 0.03950240 48636.27239587 0 131.01990086 0 15040.88993012 0 2242.72339320 0 -487.61493245 0 1683
0.04050000 0.04050350 47892.36613049 0 903.16268087 0 15322.80545046 0 2240.47526305 0 -2013.07689876 0 1822
0.04150000 0.04152450 48964.61180372 0 777.05606845 0 15410.25771314 0 1169.66839311 0 1252.88293048 0 1887
0.04250000 0.04250150 45825.32286757 0 1278.48913284 0 12807.03541035 0 1543.57739903 0 -7120.95223808 0 1920
0.04350000 0.04349210 43991.18588779 0 2002.36455862 0 10473.01545192 0 -1786.72391499 0 -358.57563425 0 2005
0.04450000 0.04448520 43276.28050130 0 2225.42403172 0 9416.06830434 0 -625.00715820 0 -5377.50482840 0 2151
0.04550000 0.04548030 41757.10655501 0 732.36661334 0 10199.03583100 0 -921.66479197 0 -2902.95425453 0 2274
0.04650000 0.04648670 40644.95657168 0 132.48230952 0 6550.07330941 0 2841.96248367 0 -7518.48909184 0 2311
0.04750000 0.04749250 40563.12463436 0 -251.97492305 0 5637.79333673 0 1848.87347288 0 -10345.01816205 0 2568
0.04850000 0.04851840 40092.81580778 0 112.83814830 0 5255.27399236 0 1889.13748380 0 -9540.10888515 0 2493
0.04950000 0.04949480 40103.26961296 0 389.54475108 0 3171.14494032 0 -793.38648583 0 -9032.03147211 0 2644
0.05050000 0.05050630 40413.96119916 0 919.75500541 0 5809.80901487 0 -1134.20414006 0 -7015.12151145 0 2829
0.05150000 0.05149060 39113.19309657 0 962.34133477 0 7771.08899506 0 -1442.34409855 0 -7651.74700625 0 2784
0.05250000 0.05249300 38593.20059376 0 1181.19006011 0 6085.10379192 0 -2760.95111385 0 -4744.48758249 0 3055
0.05350000 0.05348950 38102.65859586 0 824.34323794 0 9430.50129988 0 -428.70155790 0 -4831.32160939 0 3009
0.05450000 0.05448610 38044.31961856 0 308.50190744 0 8845.77388950 0 770.75231152 0 -1780.59776034 0 3336
0.05550000 0.05550870 37618.07414284 0 -930.68316605 0 7443.19921324 0 3091.40376404 0 -5826.61378771 0 3349
0.05650000 0.05647670 39283.15173562 0 -514.04282638 0 8777.47569566 0 173.60735428 0 -1777.00075211 0 3324
0.05750000 0.05747970 38217.76285934 0 502.42448979 0 7704.16216061 0 -976.51129908 0 -3450.68868335 0 3639
0.05850000 0.05849280 37644.60207857 0 1424.04431916 0 8337.65151386 0 -247.63827999 0 -4774.81485816 0 3846
0.05950000 0.05951020 36315.84475566 0 1664.38067244 0 10203.68946041 0 -1842.01667594 0 -729.73405294 0 3787
0.06050000 0.06049470 34518.91432980 0 2076.55285344 0 8820.28009364 0 -775.13953750 0 -2587.81137064 0 3930
0.06150000 0.06148310 32951.06836584 0 824.54219746 0 8667.12622743 0 2432.21828322 0 -2013.21178657 0 4083
0.06250000 0.06249100 32348.56948666 0 1008.03008373 0 8107.34182103 0 882.70469654 0 -4469.68739407 0 4303
0.06350000 0.06350600 31174.37111130 0 967.44571427 0 6806.05664850 0 1729.96986945 0 -3189.16370344 0 4470
0.06450000 0.06451750 30193.28711550 0 1367.17786711 0 7047.28101319 0 -733.32206865 0 -5055.07800284 0 4479
0.06550000 0.06550280 28438.17191036 0 1128.59505534 0 7722.39449610 0 196.54165397 0 -6131.15673797 0 4636
0.06650000 0.06648880 28806.41562831 0 1110.62799922 0 8391.62911867 0 -1818.90589804 0 -3916.11906752 0 4653
0.06750000 0.06749660 27222.49553381 0 629.93618355 0 7748.09062367 0 -1016.32568397 0 -5824.63543318 0 5220
0.06850000 0.06852730 27579.38619452 0 293.92727970 0 9457.35521447 0 89.84416076 0 -3990.73450707 0 5029
0.06950000 0.06949320 27380.42667658 0 350.28902653 0 9153.61035042 0 -1074.96029038 0 -6375.25870924 0 5040
0.07050000 0.07048030 27365.02698508 0 764.32603149 0 10005.82028559 0 25.99276834 0 -4323.61513782 0 5475
0.07150000 0.07148790 26994.19791746 0 652.37589460 0 9393.02497034 0 -427.15934062 0 -4479.20822524 0 5509
0.07250000 0.07249820 26096.63195659 0 106.46514896 0 10176.27351327 0 279.29420058 0 -2326.39879724 0 5916
0.07350000 0.07351270 26582.67769420 0 -180.11456699 0 10088.02316438 0 724.17779928 0 -3573.69512430 0 5721
0.07450000 0.07449140 26944.17702171 0 -610.61350494 0 10065.63178813 0 2054.80219428 0 -3836.04067171 0 6028
0.07550000 0.07549160 26868.86466181 0 54.97037908 0 8249.43488692 0 1398.98890868 0 -4482.89515868 0 6183
0.07650000 0.07648840 26848.06945796 0 592.87350996 0 8702.28698292 0 59.13919922 0 -4300.20086235 0 6330
0.07750000 0.07749960 25789.76219163 0 594.80577782 0 6892.49725263 0 491.68966834 0 -5195.03534509 0 6583
0.07850000 0.07848650 25238.07105376 0 483.08382614 0 6621.02429682 0 471.60487361 0 -5286.53424204 0 6549
0.07950000 0.07947320 24918.38694697 0 441.55411795 0 5196.42918578 0 -197.29028130 0 -5422.42246873 0 6828
0.08050000 0.08048110 24733.47824244 0 115.55276545 0 5977.47456117 0 490.57347172 0 -5602.91359751 0 7147
0.08150000 0.08149960 24633.32404443 0 271.57412166 0 5265.85144469 0 -158.24700506 0 -4439.43880295 0 7386
0.08250000 0.08250610 24548.45713141 0 262.11961033 0 5926.35208165 0 233.57060560 0 -3259.36156726 0 7227
0.08350000 0.08350160 24121.19999713 0 384.57750752 0 8064.60486695 0 803.12426156 0 -1974.90364888 0 7798
0.08450000 0.08449610 24227.98617907 0 382.34061803 0 7072.31394237 0 907.22617611 0 -765.45908909 0 7371
0.08550000 0.08548940 23856.70748543 0 298.67308244 0 7654.24243071 0 844.50784129 0 -349.45834245 0 8256
0.08650000 0.08650700 23375.27041462 0 406.57883320 0 7909.04550148 0 91.74371832 0 822.40197756 0 8037
0.08750000 0.08749060 23535.78690706 0 466.88942063 0 7706.11803384 0 784.94925339 0 332.98629286 0 8155
0.08850000 0.08849210 22574.82367606 0 583.94281295 0 7326.03791067 0 530.29118702 0 1770.61606249 0 8718
0.08950000 0.08949900 21837.09976859 0 812.69342753 0 7039.16526336 0 1289.59489576 0 1829.53955363 0 8571
0.09050000 0.09049190 20936.38642551 0 808.42760057 0 6721.24593874 0 1338.42428254 0 1039.39487147 0 8932
0.09150000 0.09150830 20332.98829428 0 564.14690295 0 7149.48100964 0 171.37158885 0 1937.58468845 0 9285
0.09250000 0.09250820 19767.92078203 0 665.17337546 0 6597.32900508 0 -46.09880790 0 1098.43751350 0 9204
0.09350000 0.09350330 19868.97423210 0 350.78923549 0 7466.30999114 0 -748.52617283 0 2916.19574109 0 9349
0.09450000 0.09448040 19258.60689741 0 484.63616001 0 7787.11816300 0 -1068.63405215 0 1465.25254474 0 9564
0.09550000 0.09549270 19330.09743606 0 304.34848700 0 8708.77283839 0 -51.49488228 0 3228.10131758 0 10155
0.09650000 0.09649430 18640.82073323 0 448.21982383 0 7736.68136317 0 562.86434470 0 1225.57938985 0 9913
0.09750000 0.09749140 18615.64167559 0 284.55594919 0 8519.18802316 0 1174.26581926 0 2622.92716352 0 10476
0.09850000 0.09850240 18503.79720082 0 57.39172766 0 7713.33453161 0 518.15915268 0 1796.90794455 0 10575
0.09950000 0.09950330 18451.41576841 0 78.18951686 0 7825.74103892 0 187.15009028 0 3496.86527655 0 10882
0.10050000 0.10051200 18551.12034040 0 53.08408548 0 8035.70515392 0 70.75629934 0 3048.50944085 0 10875
0.10150000 0.10150300 18306.18656097 0 240.39255653 0 8629.00918080 0 -465.11339782 0 3975.88560746 0 11118
0.10250000 0.10250800 18477.83129763 0 587.55218590 0 9011.00021459 0 135.91857644 0 3752.47767418 0 11575
0.10350000 0.10349800 17834.86607582 0 575.46061791 0 9135.09699866 0 5.98777100 0 3379.09697885 0 11364
0.10450000 0.10450100 17084.88985905 0 626.52239792 0 8516.05188161 0 964.17243678 0 2834.52117288 0 12093
0.10550000 0.10551000 16769.13998001 0 369.25762464 0 8281.52694476 0 620.41085612 0 2302.87211526 0 12067
0.10650000 0.10649700 16349.41408172 0 192.88731841 0 7014.62692282 0 1194.60015644 0 2010.27797673 0 12054
0.10750000 0.10749900 16171.58698716 0 198.99099176 0 6662.06391264 0 713.91845736 0 1308.09700687 0 12807
0.10850000 0.10850100 15945.76231397 0 -13.33905541 0 5844.65503213 0 23.00860039 0 943.20637503 0 12736
0.10950000 0.10950300 16085.25878954 0 -47.14913430 0 5605.99353581 0 -157.84234163 0 439.41502212 0 12933
0.11050000 0.11050200 16058.50604080 0 54.11226781 0 5941.80797640 0 -115.90797001 0 398.11237507 0 13428
0.11150000 0.11150900 15970.71655859 0 193.65393079 0 5926.07106538 0 38.23586031 0 547.68384589 0 13453
0.11250000 0.11250000 15739.60877956 0 274.62258614 0 6965.56148238 0 71.18985124 0 -145.16288761 0 13668
0.11350000 0.11349100 15593.59272657 0 354.37387901 0 5728.25809381 0 477.56916289 0 667.80256367 0 13791
0.11450000 0.11448600 15238.27575696 0 196.58886470 0 6222.19476824 0 772.89140735 0 245.70601213 0 14205
0.11550000 0.11549300 15232.65543160 0 -67.47751393 0 4955.27226500 0 756.13159711 0 470.16045000 0 14776
0.11650000 0.11649800 14961.64334247 0 -48.26623017 0 4379.08774918 0 702.86889769 0 -323.98140756 0 14553
0.11750000 0.11747300 15075.84835390 0 47.25681974 0 4292.64714506 0 433.27200649 0 -373.08731435 0 14568
0.11850000 0.11849100 14884.19525893 0 328.98799340 0 3292.83622514 0 231.63946181 0 -954.59765048 0 16015
0.11950000 0.11950300 14433.10794510 0 480.76375583 0 3582.87873595 0 -155.10411911 0 -649.33417452 0 15270
0.12050000 0.12050700 14112.41217974 0 482.56450808 0 3751.80323513 0 -305.81651598 0 -592.25752230 0 15999
0.12150000 0.12150000 13707.63634692 0 340.31407308 0 3462.25531295 0 310.62526637 0 -106.63094856 0 15670
0.12250000 0.12250700 13655.03010150 0 31.66592477 0 3801.23961705 0 660.26233516 0 660.90642444 0 16887
0.12350000 0.12352200 13685.49226498 0 -170.03057922 0 3429.50005672 0 1059.38524473 0 811.04554813 0 16407
0.12450000 0.12449800 13897.04131174 0 -202.62959040 0 3390.56244259 0 740.89377098 0 1951.24207909 0 16306
0.12550000 0.12549900 13877.48257947 0 -190.18619004 0 3252.24623535 0 775.39357620 0 1427.68628999 0 17523
0.12650000 0.12650100 14143.21156275 0 -5.93567058 0 2790.17680575 0 257.21643848 0 2469.13258022 0 17154
0.12750000 0.12750600 13975.16383432 0 58.76926940 0 2822.13397578 0 322.54597647 0 1394.94227441 0 18007
0.12850000 0.12850300 14057.78261719 0 173.23866094 0 2449.71997641 0 -96.21727250 0 1959.70628909 0 17496
0.12950000 0.12949900 13579.38052208 0 265.02531854 0 2655.19907177 0 203.45353010 0 1073.65412677 0 18405
0.13050000 0.13049000 13653.68122341 0 214.05796000 0 2141.86103419 0 120.02654444 0 1666.20165785 0 18100
0.13150000 0.13148800 13243.28506522 0 149.93566791 0 1970.78957071 0 368.63264446 0 777.88562847 0 19059
0.13250000 0.13249300 13373.45180069 0 89.70837370 0 1687.37904383 0 151.74766080 0 961.42634580 0 18957
0.13350000 0.13349100 13164.03847757 0 -26.75803185 0 1483.75465584 0 683.59905014 0 714.04210451 0 19468
0.13450000 0.13450700 13353.21862937 0 48.76014437 0 1500.39081892 0 270.16679219 0 1050.10271535 0 19953
0.13550000 0.13551000 13027.12735167 0 371.22024226 0 1127.58339678 0 17.12816636 0 744.38624116 0 19956
0.13650000 0.13649900 12645.50725935 0 531.34218786 0 1751.87789773 0 -446.72032103 0 1215.55272940 0 19723
0.13750000 0.13749600 12245.78971936 0 517.48246551 0 1691.27954964 0 -544.57917816 0 711.10717061 0 20946
0.13850000 0.13851100 11928.69096224 0 431.59602547 0 2187.17209728 0 -665.98719857 0 1042.30282781 0 20955
0.13950000 0.13949800 11744.68150977 0 138.87149539 0 2443.25660224 0 -171.15801649 0 1269.11443013 0 20506
0.14050000 0.14048300 11678.13685744 0 112.14549940 0 2962.39481560 0 86.13688174 0 1153.77411298 0 21447
0.14150000 0.14148400 11704.55238666 0 141.72100035 0 2837.35381687 0 165.60063876 0 1198.47818094 0 21771
0.14250000 0.14249400 11349.23541705 0 177.58317244 0 2713.13338564 0 94.11954226 0 592.41713954 0 22470
0.14350000 0.14350900 11359.68922223 0 271.49993337 0 2985.10093007 0 -53.74492334 0 855.41014843 0 22519
0.14450000 0.14449900 11045.34442454 0 167.45984240 0 2657.12122305 0 5.95587003 0 666.12096232 0 22218
0.14550000 0.14550500 11037.52093163 0 42.47156232 0 2895.27689008 0 -155.91906629 0 437.69857475 0 23559
0.14650000 0.14650700 11107.98857106 0 -22.22546425 0 2561.94663331 0 -361.89724654 0 -102.70447685 0 23044
0.14750000 0.14750500 11058.37233874 0 87.40336586 0 2615.30600233 0 -37.67630071 0 -258.96098748 0 23649
0.14850000 0.14849900 10938.86174017 0 55.72496397 0 2636.01128097 0 -44.91145796 0 -597.99025417 0 23640
0.14950000 0.14949500 10852.69091166 0 141.28373904 0 2466.25497363 0 247.13919510 0 -418.13534622 0 24457
0.15050000 0.15050000 10834.87448025 0 120.58070852 0 2122.93177836 0 701.72347538 0 -382.00227444 0 24591
0.15150000 0.15149900 10656.09193038 0 29.47118771 0 1970.17133492 0 669.11434761 0 -177.96085831 0 25020
0.15250000 0.15250500 10426.42295464 0 51.89774721 0 1563.38342562 0 601.30849427 0 23.99833968 0 25297
0.15350000 0.15350100 10455.12033596 0 76.13315221 0 1334.20903851 0 496.58721986 0 336.42930418 0 25452
0.15450000 0.15450400 10232.93763361 0 140.66550325 0 1231.84043231 0 -24.01115403 0 -19.90370784 0 26061
0.15550000 0.15549900 10190.93132183 0 245.83527962 0 1082.20488978 0 -171.85830903 0 -84.26036751 0 26128
0.15650000 0.15649500 9915.27684395 0 295.24805617 0 1785.90334749 0 -474.46786736 0 206.85719914 0 26331
0.15750000 0.15749700 9752.48974006 0 322.28406930 0 1628.92766003 0 -622.36897748 0 -211.64122009 0 27345
0.15850000 0.15849900 9548.73046426 0 238.19950558 0 2123.20155397 0 -317.77544430 0 455.05413948 0 26980
0.15950000 0.15949700 9474.58713204 0 162.29476338 0 2242.12763871 0 -48.19575129 0 221.96126153 0 27777
0.16050000 0.16050000 9381.43585943 0 68.55470549 0 2567.61192127 0 -0.31708639 0 278.21172592 0 28224
0.16150000 0.16150500 9426.48838756 0 50.80931500 0 2569.56779450 0 170.18907239 0 100.90664717 0 28075
0.16250000 0.16249700 9307.69719064 0 63.06803146 0 2546.14227838 0 -48.29253330 0 -89.62035940 0 28590
0.16350000 0.16349900 9308.60768335 0 94.48980930 0 2577.52617522 0 -152.64803693 0 388.10482372 0 29163
0.16450000 0.16449100 9309.38328825 0 174.97196928 0 2695.87898677 0 -165.21508444 0 100.08731614 0 28996
0.16550000 0.16550500 9143.10034199 0 128.65486794 0 2923.28859170 0 -119.53757613 0 402.73453065 0 30777
0.16650000 0.16650700 9103.17355059 0 154.40045438 0 2791.52568384 0 -10.53075867 0 152.42209985 0 29211
0.16750000 0.16749900 8924.25611290 0 92.31642948 0 2985.61800001 0 271.93382248 0 713.50142921 0 30922
0.16850000 0.16850800 8870.80681868 0 42.49505528 0 2757.08433000 0 355.61821905 0 371.68672927 0 30867
0.16950000 0.16949900 8865.05160550 0 -4.09110228 0 2576.34590689 0 439.61173350 0 465.60573832 0 30852
0.17050000 0.17049200 8833.16187938 0 93.83515380 0 2474.84283079 0 211.31074496 0 224.08012419 0 31257
0.17150000 0.17149500 8762.08724481 0 152.33442277 0 2064.93002058 0 -22.02032238 0 52.29847640 0 32608
0.17250000 0.17250900 8567.64646846 0 225.96518132 0 2175.38065467 0 59.84308877 0 486.95960251 0 32361
0.17350000 0.17350400 8360.59368200 0 250.14044885 0 2003.07271961 0 11.87878247 0 -225.27050910 0 32508
0.17450000 0.17449800 8180.04634996 0 176.18933175 0 1984.09850118 0 183.04275650 0 235.09821004 0 32791
0.17550000 0.17549800 8053.93748941 0 136.34572117 0 2065.84051329 0 106.23168064 0 -191.78798277 0 33633
0.17650000 0.17650100 8050.17187141 0 22.17229597 0 1951.96148074 0 130.16111514 0 370.37044907 0 33984
0.17750000 0.17750300 8003.54565218 0 28.68737714 0 1891.52050176 0 165.09368542 0 177.05710999 0 34069
0.17850000 0.17849800 8085.44503340 0 39.19367616 0 1912.37190886 0 52.74236970 0 683.79576153 0 34536
