### header ###
fiducial parameters:
Omega_m = 0.31
Omega_nu = 0
Omega_de = 0.69
Omega_k = 0
H_0 = 100
w_de = -1
zeff = 0
beta = 0
fgrowth = 0
b_1 = 2
gamma = 0.55
Lx = 3500 Ly = 3500 Lz = 3500
nx = 700 ny = 700 nz = 700
xoffset = 857.220397 yoffset = 15.9954215 zoffset = 262.898189
bins = 400 dk = 0.001
kx_ny = 0.628318531 ky_ny = 0.628318531 kz_ny = 0.628318531
############################
A(data) = 3.06205092 (not used)
A(ran) = 3.05914644 (used)
Ngal = 186760
weighted Ngal = 0
Nran = 9360983
weighted Nran = 0
SN(data) = 3456.24014
SN(ran) = 68.6969321
SN(data+ran) = 3524.93707
############################
13 columns: k_central k_mean P_0(k) sigma^{lin}_{P_0(k)} P^img_1(k) sigma^{lin}_{P_1(k)} P_2(k) sigma^{lin}_{P_2(k)} P^img_3(k) sigma^{lin}_{P_3(k)} P_4(k) sigma^{lin}_{P_4(k)} N_modes
### header ###
0.00050000 0 0 0 0 0 0 0 0 0 0 0 0
0.00150000 0.00179520 1283.40129721 0 -7682.34405754 0 -12163.73296902 0 14568.67019292 0 -49508.54689259 0 3
0.00250000 0.00253879 11896.87992067 0 -22076.18840964 0 5036.39604132 0 9994.38854380 0 34819.26451733 0 6
0.00350000 0.00331552 29345.06761134 0 -29189.49700522 0 7569.22938923 0 -14341.94626767 0 -88373.99604705 0 7
0.00450000 0.00420575 62773.30160071 0 -35947.93825723 0 10349.44697844 0 -7953.76081009 0 -18980.85041784 0 24
0.00550000 0.00557378 95848.46675062 0 -14570.35629053 0 17864.65380026 0 -28915.11272088 0 -32611.37590075 0 45
0.00650000 0.00659388 127535.29912875 0 3564.84873218 0 36882.93558504 0 -31402.10669511 0 -6145.31995789 0 40
0.00750000 0.00754703 116566.67214545 0 9521.62925535 0 55854.79348229 0 -7304.17484500 0 -34144.48825395 0 57
0.00850000 0.00846663 111365.62305222 0 11805.71824324 0 38284.08269865 0 23644.14678010 0 -4329.79749572 0 75
0.00950000 0.00948925 111286.71368409 0 9235.68958206 0 53814.72778113 0 45089.06024469 0 -10320.64843126 0 112
0.01050000 0.01054430 102064.54660486 0 -1372.25864124 0 28571.37362153 0 44258.82578170 0 -21481.44557946 0 105
0.01150000 0.01145670 107206.80709477 0 -915.92194351 0 11421.17558173 0 37498.13639954 0 -3374.58947790 0 144
0.01250000 0.01249090 110047.31953449 0 -2846.84092608 0 22480.40220992 0 -11726.13443606 0 -11580.23078957 0 169
0.01350000 0.01339930 108301.30925645 0 2464.69252318 0 -3433.42304383 0 -1706.69048179 0 -8380.41094924 0 180
0.01450000 0.01448870 112645.93317048 0 2814.09691050 0 38889.27933401 0 -36074.05835843 0 -1668.18001238 0 267
0.01550000 0.01550050 116684.69897813 0 5539.68493715 0 32315.85919303 0 -19920.45641245 0 -38169.42806120 0 238
0.01650000 0.01653350 109640.52038454 0 3021.07101241 0 48770.03613957 0 7093.76110396 0 -37189.13091095 0 315
0.01750000 0.01747870 104831.54518880 0 3602.69600319 0 30976.76047145 0 -4707.24730662 0 -42124.90064693 0 297
0.01850000 0.01844180 92832.48775299 0 6859.32609232 0 31503.94699073 0 18548.98461676 0 -63117.71513911 0 388
0.01950000 0.01947590 93790.41600829 0 3346.45412912 0 18883.28156950 0 27224.06922491 0 -45457.75358866 0 399
0.02050000 0.02045430 86908.10278522 0 -658.85612975 0 11934.19888109 0 5392.24132151 0 -37723.28663368 0 462
0.02150000 0.02154770 84421.78325004 0 2662.69658581 0 16513.97720842 0 -5707.01326393 0 -30849.06667915 0 571
0.02250000 0.02255340 79780.96818924 0 6949.35246402 0 17232.47960315 0 -9212.08421552 0 -25626.66034953 0 510
0.02350000 0.02348930 72974.52935861 0 8061.60361320 0 22273.91145600 0 -13470.23380348 0 3524.47231475 0 555
0.02450000 0.02439640 70331.40274572 0 7244.49823027 0 34525.20909421 0 -5676.30380614 0 -3633.03451951 0 592
0.02550000 0.02547300 70612.41901400 0 878.72438211 0 29151.05397972 0 10690.64569072 0 5679.14769077 0 837
0.02650000 0.02652900 66452.36658497 0 -1055.79160869 0 25389.14539958 0 10149.56572714 0 -12339.76155947 0 723
0.02750000 0.02749970 71989.73594807 0 -3670.57829295 0 18067.99717198 0 4666.67979813 0 -11233.50167713 0 826
0.02850000 0.02848090 71133.31076887 0 -2008.00736528 0 16998.56166143 0 -464.93129927 0 -16720.80518187 0 831
0.02950000 0.02946900 71672.41237793 0 2093.17777587 0 11120.48817468 0 -195.51875475 0 -15550.20381475 0 996
0.03050000 0.03053250 68228.16458745 0 3966.83688362 0 14615.76851948 0 -209.65724524 0 -10239.54713624 0 1041
0.03150000 0.03150510 61716.79283851 0 6204.56942789 0 9658.37177149 0 1638.08879038 0 -17006.65492996 0 1036
0.03250000 0.03246190 61778.95363705 0 3602.63979993 0 16586.36699913 0 10133.17685837 0 -4996.10954910 0 1059
0.03350000 0.03345080 53133.09472080 0 1563.11365000 0 8937.57628402 0 4594.00899115 0 -13615.68782394 0 1302
0.03450000 0.03451200 57088.45490002 0 306.57076365 0 7434.21793330 0 4187.81683634 0 -1819.61405903 0 1339
0.03550000 0.03553350 54565.71565646 0 -2433.47723610 0 4922.86546894 0 2512.26295708 0 -10180.29766624 0 1365
0.03650000 0.03647120 55211.71585397 0 -388.05311673 0 -764.83972923 0 -549.50258318 0 -6033.32935465 0 1308
0.03750000 0.03744890 55263.64766035 0 131.95287487 0 -492.87443293 0 -1385.51136845 0 -11747.37926594 0 1579
0.03850000 0.03847530 53632.96645881 0 513.34478197 0 -6141.74543095 0 -1999.26213901 0 -12007.15070434 0 1662
0.03950000 0.03950240 52310.16668078 0 1115.91784945 0 -5075.58094977 0 -1574.30933813 0 -19259.16892994 0 1683
0.04050000 0.04050350 53320.70118150 0 1529.85256449 0 -2931.64039520 0 -6164.54147064 0 -17115.80164856 0 1822
0.04150000 0.04152450 51845.47817957 0 1863.75609445 0 248.63082945 0 -7750.45116032 0 -17647.37202163 0 1887
0.04250000 0.04250150 50727.93268389 0 2739.56015551 0 1475.99860684 0 -5651.65305908 0 -12744.20017277 0 1920
0.04350000 0.04349210 48571.63865416 0 1847.80561106 0 3879.14856727 0 -5943.48283336 0 -7101.09000824 0 2005
0.04450000 0.04448520 48299.27768695 0 15.84178629 0 7468.10849526 0 -2006.60228394 0 -10504.10709184 0 2151
0.04550000 0.04548030 49344.09617240 0 781.26569215 0 11023.68369058 0 1261.13356811 0 -6971.21552970 0 2274
0.04650000 0.04648670 47924.06476555 0 98.22575197 0 8271.08438023 0 -130.62085775 0 -6829.12246380 0 2311
0.04750000 0.04749250 46457.94669071 0 1364.34522312 0 8630.68403776 0 1557.24603032 0 -4368.21803992 0 2568
0.04850000 0.04851840 45651.54240727 0 1416.72665553 0 10735.30479608 0 2620.10576019 0 -1816.32054837 0 2493
0.04950000 0.04949480 44115.61989138 0 1988.06645089 0 7575.25437803 0 3741.59672427 0 -1554.17733267 0 2644
0.05050000 0.05050630 41339.17916083 0 2877.38177412 0 6216.70933068 0 2411.00717529 0 -967.95379168 0 2829
0.05150000 0.05149060 39484.24697720 0 2510.82415378 0 6522.49999316 0 2600.68191573 0 -527.56982547 0 2784
0.05250000 0.05249300 36545.15403057 0 2096.96587517 0 2766.21173839 0 2248.55729093 0 -820.97666305 0 3055
0.05350000 0.05348950 35321.94641802 0 1108.76205119 0 2326.28639073 0 1867.43178724 0 -89.92082199 0 3009
0.05450000 0.05448610 34154.38002659 0 -107.20028752 0 260.59200590 0 -655.75820641 0 -1333.10745474 0 3336
0.05550000 0.05550870 34634.46821932 0 -287.85620424 0 1044.75104154 0 -508.58998671 0 -2415.77321120 0 3349
0.05650000 0.05647670 34407.06985503 0 -521.53247197 0 1889.57586918 0 -2572.77137996 0 -2728.29702347 0 3324
0.05750000 0.05747970 36166.68132046 0 149.84574270 0 2172.25575376 0 -2838.29803153 0 -3232.26035835 0 3639
0.05850000 0.05849280 35259.33599345 0 -410.70640015 0 4848.60973021 0 -1182.87615772 0 -4734.95551067 0 3846
0.05950000 0.05951020 35830.36105059 0 770.55222793 0 6448.15432923 0 -2183.64253295 0 -2897.71611129 0 3787
0.06050000 0.06049470 36535.48707094 0 297.38490387 0 8043.74221919 0 -2075.22645665 0 -5554.70244653 0 3930
0.06150000 0.06148310 36036.85180451 0 256.48129992 0 10588.65926664 0 -1691.90902608 0 -5278.48593612 0 4083
0.06250000 0.06249100 35296.99217340 0 655.42323502 0 10035.48436287 0 -1123.89871147 0 -5828.81695525 0 4303
0.06350000 0.06350600 34503.85185782 0 609.21741612 0 10869.97903249 0 -327.70318702 0 -5118.47527296 0 4470
0.06450000 0.06451750 34847.92817670 0 485.92209045 0 11783.23694178 0 734.75300349 0 -4106.01862097 0 4479
0.06550000 0.06550280 34126.72802580 0 302.38474531 0 12395.29037408 0 2290.08025473 0 -2274.81545103 0 4636
0.06650000 0.06648880 34366.71591890 0 497.62135973 0 10696.73812342 0 4011.29365726 0 -514.99940576 0 4653
0.06750000 0.06749660 34165.84549034 0 373.01312605 0 12318.51672959 0 1089.26514250 0 2997.02726050 0 5220
0.06850000 0.06852730 33454.98673811 0 463.84657648 0 12222.85879187 0 2051.27262995 0 5900.11640284 0 5029
0.06950000 0.06949320 34220.69986591 0 789.41741206 0 15355.06611806 0 1330.64575223 0 7320.49626986 0 5040
0.07050000 0.07048030 33183.52502296 0 791.69139570 0 15620.23306880 0 -192.48377905 0 10464.03417199 0 5475
0.07150000 0.07148790 32566.75051735 0 663.99647933 0 14060.81759289 0 1535.40544595 0 8647.56749516 0 5509
0.07250000 0.07249820 31990.55476088 0 678.85661960 0 14695.57713967 0 915.41723830 0 8420.03424306 0 5916
0.07350000 0.07351270 31119.51673573 0 770.82425168 0 13662.44893098 0 1066.33533907 0 6777.83137452 0 5721
0.07450000 0.07449140 30694.28291858 0 829.26664296 0 11925.99320606 0 961.92205850 0 3720.29569113 0 6028
0.07550000 0.07549160 29561.78735743 0 1387.77073925 0 11584.50223685 0 -42.76820309 0 4116.48366680 0 6183
0.07650000 0.07648840 27909.74891950 0 1160.33865301 0 11042.68039032 0 -230.83125902 0 1376.40644136 0 6330
0.07750000 0.07749960 27064.56439104 0 877.19003329 0 10046.48895993 0 423.03626994 0 2866.81556243 0 6583
0.07850000 0.07848650 26254.90031888 0 741.10172302 0 10603.51940691 0 877.93641250 0 2038.09858729 0 6549
0.07950000 0.07947320 26134.28813654 0 325.04702125 0 9495.20248548 0 2004.39911640 0 3998.05217070 0 6828
0.08050000 0.08048110 26181.38646310 0 -98.16932391 0 9162.98505313 0 2025.85751864 0 4329.65136726 0 7147
0.08150000 0.08149960 26125.52042897 0 -226.33050247 0 8579.49411433 0 1782.28385795 0 4329.28042579 0 7386
0.08250000 0.08250610 25724.67882390 0 439.77472294 0 8204.35987749 0 269.46987184 0 3451.57669476 0 7227
0.08350000 0.08350160 25084.52376477 0 892.40200592 0 8811.34377631 0 -1322.11409833 0 1890.21658627 0 7798
0.08450000 0.08449610 24781.70063408 0 1253.36627846 0 8466.26703952 0 -2436.24243618 0 1088.48841354 0 7371
0.08550000 0.08548940 23883.34782766 0 764.43956207 0 9400.46628112 0 -2366.67404881 0 161.85975020 0 8256
0.08650000 0.08650700 23188.56320598 0 636.25567739 0 10368.90454485 0 -585.23998405 0 -688.83944151 0 8037
0.08750000 0.08749060 22824.81574832 0 560.31833731 0 9077.97201165 0 -184.53214273 0 -2235.76543039 0 8155
0.08850000 0.08849210 22096.75880048 0 652.24887525 0 10086.49443589 0 1597.84726076 0 -1371.38187048 0 8718
0.08950000 0.08949900 21881.61274548 0 779.00856948 0 9240.27576755 0 1320.81018284 0 -1107.81109214 0 8571
0.09050000 0.09049190 20858.26390293 0 591.79215936 0 8944.65789398 0 2245.54479653 0 464.54349682 0 8932
0.09150000 0.09150830 20358.72938445 0 442.05769910 0 8100.38385823 0 1768.51406081 0 1708.36533875 0 9285
0.09250000 0.09250820 19998.01690249 0 259.97377011 0 7764.01862575 0 1398.13461922 0 3172.62870622 0 9204
0.09350000 0.09350330 19874.70696397 0 204.24712004 0 8056.61276428 0 651.14729148 0 4338.27294637 0 9349
0.09450000 0.09448040 19629.09874550 0 256.86685424 0 8343.08074816 0 280.80831624 0 4294.24331746 0 9564
0.09550000 0.09549270 19315.59699661 0 298.44826943 0 7642.57463525 0 -131.96861178 0 4526.12670139 0 10155
0.09650000 0.09649430 19055.03871267 0 250.47429617 0 7780.01407174 0 602.01553120 0 4880.03858965 0 9913
0.09750000 0.09749140 19026.93708584 0 100.33371121 0 7892.85896443 0 844.49547657 0 4303.50561366 0 10476
0.09850000 0.09850240 18918.23999327 0 44.28659019 0 7593.29562245 0 1043.25940719 0 3767.75371852 0 10575
0.09950000 0.09950330 18898.11922846 0 206.79987182 0 7110.56587681 0 777.12688455 0 4146.81094247 0 10882
0.10050000 0.10051200 18585.51673164 0 304.57667221 0 7003.61108510 0 267.37461455 0 4246.87521528 0 10875
0.10150000 0.10150300 18430.39575155 0 436.94432708 0 6788.64488052 0 227.01505810 0 4381.76302405 0 11118
0.10250000 0.10250800 17802.38059521 0 189.44880336 0 6735.04945784 0 1184.56225533 0 3834.88288469 0 11575
0.10350000 0.10349800 17668.05481897 0 -59.21293789 0 6019.95298028 0 356.55793745 0 2940.54299058 0 11364
0.10450000 0.10450100 17689.29964885 0 70.18482466 0 5797.08459824 0 254.82555207 0 1919.50972208 0 12093
0.10550000 0.10551000 17475.95209798 0 196.84290341 0 5531.02963609 0 -618.47184387 0 1071.23064247 0 12067
0.10650000 0.10649700 17217.75435069 0 260.35258004 0 5097.60138455 0 -717.80097812 0 755.79437759 0 12054
0.10750000 0.10749900 17114.34036396 0 368.14255209 0 5046.60255219 0 -285.95653427 0 205.38692203 0 12807
0.10850000 0.10850100 16703.38217324 0 342.45316891 0 4880.34208722 0 -255.70681909 0 -246.77612208 0 12736
0.10950000 0.10950300 16437.76559646 0 464.82788529 0 4799.64545563 0 221.38911241 0 -1444.73835715 0 12933
0.11050000 0.11050200 16275.11338039 0 261.95212464 0 5338.61217688 0 -123.83150471 0 -804.52372257 0 13428
0.11150000 0.11150900 15819.75461927 0 395.34267873 0 4965.14155634 0 -223.61138906 0 -1607.13203826 0 13453
0.11250000 0.11250000 15876.51990547 0 377.95676424 0 6018.97504367 0 -169.94402621 0 -1198.64679070 0 13668
0.11350000 0.11349100 15305.94447436 0 320.17419916 0 5433.01116171 0 -785.66415878 0 -1661.82904472 0 13791
0.11450000 0.11448600 15184.43303996 0 269.30463428 0 5914.06605040 0 -568.23849982 0 -2001.02692118 0 14205
0.11550000 0.11549300 14965.01553769 0 56.81204730 0 5250.81145402 0 193.24139891 0 -1865.56583922 0 14776
0.11650000 0.11649800 14931.63080502 0 -127.68704791 0 4938.83843363 0 892.98651976 0 -2752.04851847 0 14553
0.11750000 0.11747300 15076.07316691 0 -191.38669154 0 5090.28372093 0 848.71184466 0 -2133.13828922 0 14568
0.11850000 0.11849100 15188.47967422 0 -68.05370969 0 4409.34758094 0 535.38544993 0 -2148.44805552 0 16015
0.11950000 0.11950300 15296.95195378 0 204.29095858 0 4947.22395907 0 396.81970024 0 -1146.87235343 0 15270
0.12050000 0.12050700 15006.83075841 0 492.84970350 0 4577.58640044 0 42.10230694 0 -186.11707448 0 15999
0.12150000 0.12150000 14869.69481949 0 358.20019652 0 5102.91821235 0 69.86840034 0 -514.18221045 0 15670
0.12250000 0.12250700 14222.23333739 0 509.48586658 0 5437.46245940 0 -202.39915706 0 926.72870513 0 16887
0.12350000 0.12352200 14342.05867418 0 415.86810696 0 5482.25645257 0 -185.48872210 0 99.79393516 0 16407
0.12450000 0.12449800 13629.73863736 0 278.25893665 0 5604.00394063 0 317.09426086 0 651.10008075 0 16306
0.12550000 0.12549900 13569.93837547 0 132.89371733 0 5060.11381436 0 171.31763373 0 27.17865700 0 17523
0.12650000 0.12650100 13566.67858676 0 -53.54787473 0 5132.11018230 0 206.50761490 0 -530.76554248 0 17154
0.12750000 0.12750600 13669.41813444 0 -60.79595873 0 4867.48278279 0 229.10357100 0 -195.39061133 0 18007
0.12850000 0.12850300 13695.49644413 0 36.67419670 0 4778.55799485 0 -26.74600435 0 -343.63568537 0 17496
0.12950000 0.12949900 13562.85676551 0 137.87894593 0 5013.67868619 0 -164.47095337 0 -165.41516803 0 18405
0.13050000 0.13049000 13617.71114107 0 235.91652941 0 5235.72650073 0 615.74036574 0 -241.07823623 0 18100
0.13150000 0.13148800 13119.18828115 0 291.24975670 0 4882.21927590 0 358.24066286 0 220.87878686 0 19059
0.13250000 0.13249300 12964.74174011 0 371.04376404 0 4964.88302137 0 527.14830107 0 206.33226075 0 18957
0.13350000 0.13349100 12692.38077290 0 243.35896426 0 4448.30767638 0 551.41461787 0 165.45001404 0 19468
0.13450000 0.13450700 12253.65817487 0 190.86962161 0 4096.19429223 0 656.57427765 0 -339.75766086 0 19953
0.13550000 0.13551000 12216.67643396 0 -28.37443742 0 3340.09192081 0 313.12968335 0 -393.97356747 0 19956
0.13650000 0.13649900 12145.29830182 0 4.90149699 0 3434.33353654 0 -153.23367483 0 -1068.35078775 0 19723
0.13750000 0.13749600 12292.55082640 0 185.82594162 0 3035.98735593 0 -474.80733501 0 -1261.35838113 0 20946
0.13850000 0.13851100 11912.27961217 0 233.26373584 0 3433.92887311 0 -502.56837012 0 -1456.83329734 0 20955
0.13950000 0.13949800 11886.42611549 0 320.23152648 0 3538.79290378 0 -444.02930924 0 -1102.56620451 0 20506
0.14050000 0.14048300 11663.41160498 0 161.12685977 0 3826.56480315 0 -81.82249518 0 -1234.20096896 0 21447
0.14150000 0.14148400 11678.81129649 0 2.52534707 0 4175.94670917 0 705.42951792 0 -423.89505565 0 21771
0.14250000 0.14249400 11760.19360778 0 -88.35376288 0 3649.08616875 0 857.35702914 0 -493.30944611 0 22470
0.14350000 0.14350900 11880.58097711 0 -123.72359447 0 3732.70536954 0 860.07277036 0 241.31653802 0 22519
0.14450000 0.14449900 11878.44525347 0 23.35233949 0 3287.64304450 0 638.19806184 0 294.60733907 0 22218
0.14550000 0.14550500 11741.42172106 0 35.29631773 0 3192.29984500 0 538.72279913 0 945.68044226 0 23559
0.14650000 0.14650700 11672.29171906 0 74.65905328 0 2821.05487331 0 228.21893179 0 683.46416233 0 23044
0.14750000 0.14750500 11582.47891972 0 105.36525129 0 2426.90145542 0 274.76309427 0 651.90378727 0 23649
0.14850000 0.14849900 11501.32142144 0 137.66762170 0 2501.98900231 0 145.06509394 0 424.20979387 0 23640
0.14950000 0.14949500 11090.40819332 0 342.25533346 0 1716.50356988 0 317.69001535 0 -207.83738389 0 24457
0.15050000 0.15050000 10825.67962796 0 288.91956980 0 1666.79741234 0 277.62271582 0 49.47920879 0 24591
0.15150000 0.15149900 10393.67893906 0 312.88800936 0 1092.63284146 0 185.18747266 0 -641.47021527 0 25020
0.15250000 0.15250500 10284.85819933 0 268.77407556 0 875.33420185 0 137.40121828 0 -649.64666461 0 25297
0.15350000 0.15350100 9925.62948327 0 253.42159480 0 796.44956315 0 -234.12814188 0 -652.83563722 0 25452
0.15450000 0.15450400 9736.79779164 0 197.68033189 0 548.96640414 0 -122.48487476 0 -587.37683175 0 26061
0.15550000 0.15549900 9808.87284413 0 24.38456844 0 970.87636087 0 21.27630370 0 -489.20211233 0 26128
0.15650000 0.15649500 9711.70865921 0 31.56992961 0 568.67238894 0 91.10749749 0 -633.10492299 0 26331
0.15750000 0.15749700 9838.40203360 0 11.46377765 0 1069.89974942 0 -71.25100038 0 -868.54822101 0 27345
0.15850000 0.15849900 9799.16092190 0 13.28858489 0 1124.75075279 0 -139.85505233 0 -567.68658387 0 26980
0.15950000 0.15949700 9913.91672521 0 -22.04538903 0 1442.42278310 0 -448.38056514 0 -716.98153468 0 27777
0.16050000 0.16050000 9885.18562194 0 48.28500206 0 1556.85260754 0 -301.36859049 0 -862.79525596 0 28224
0.16150000 0.16150500 9942.59162523 0 122.88616599 0 1706.16217120 0 -392.36278222 0 -674.80211688 0 28075
0.16250000 0.16249700 9831.70260577 0 91.96066288 0 2033.79341806 0 -228.15148789 0 -1106.40938300 0 28590
0.16350000 0.16349900 9809.47983927 0 255.09420362 0 2008.90661734 0 7.00267811 0 -808.79629392 0 29163
0.16450000 0.16449100 9473.89021170 0 285.76319508 0 2199.31200007 0 -27.23328656 0 -957.29315853 0 28996
0.16550000 0.16550500 9321.25341542 0 234.21019863 0 1737.50110544 0 288.93081045 0 -727.95240979 0 30777
0.16650000 0.16650700 9071.36250902 0 324.68732043 0 2255.23423746 0 194.16088414 0 -707.89908889 0 29211
0.16750000 0.16749900 8850.75349777 0 283.52967778 0 1632.64831542 0 370.30637736 0 -487.91056156 0 30922
0.16850000 0.16850800 8475.81035199 0 330.25481474 0 2024.41871535 0 114.34102330 0 -426.38935605 0 30867
0.16950000 0.16949900 8344.12612868 0 169.30443318 0 1597.95966727 0 40.19634220 0 -377.25871983 0 30852
0.17050000 0.17049200 8184.68873871 0 -15.72364706 0 1597.19530302 0 220.12004294 0 -512.33986780 0 31257
0.17150000 0.17149500 8266.73424839 0 -137.90592349 0 1435.16132273 0 -64.88699356 0 -785.72485829 0 32608
0.17250000 0.17250900 8433.19704507 0 -91.57668225 0 1562.56285812 0 -133.35683214 0 -973.07165996 0 32361
0.17350000 0.17350400 8494.99814279 0 45.51361962 0 1687.50269099 0 -291.99163965 0 -1012.31951605 0 32508
0.17450000 0.17449800 8444.26908604 0 164.95767354 0 1831.58535206 0 -426.85921525 0 -948.06570834 0 32791
0.17550000 0.17549800 8394.10206183 0 204.51464753 0 2061.07447738 0 -230.37938486 0 -898.32020853 0 33633
0.17650000 0.17650100 8238.87991588 0 178.00469685 0 2219.79246571 0 119.36671824 0 -358.35082124 0 33984
0.17750000 0.17750300 8152.84397519 0 115.88324058 0 2309.57154309 0 241.04676241 0 -352.42924643 0 34069
