### header ###
fiducial parameters:
Omega_m = 0.31
Omega_nu = 0
Omega_de = 0.69
Omega_k = 0
H_0 = 100
w_de = -1
zeff = 0
beta = 0
fgrowth = 0
b_1 = 2
gamma = 0.55
Lx = 3500 Ly = 3500 Lz = 3500
nx = 700 ny = 700 nz = 700
xoffset = 857.220397 yoffset = 15.9954215 zoffset = 262.898189
bins = 400 dk = 0.001
kx_ny = 0.628318531 ky_ny = 0.628318531 kz_ny = 0.628318531
############################
A(data) = 3.11240657 (not used)
A(ran) = 3.10737318 (used)
Ngal = 189528
weighted Ngal = 0
Nran = 9360983
weighted Nran = 0
SN(data) = 3457.55411
SN(ran) = 69.7799235
SN(data+ran) = 3527.33403
############################
13 columns: k_central k_mean P_0(k) sigma^{lin}_{P_0(k)} P^img_1(k) sigma^{lin}_{P_1(k)} P_2(k) sigma^{lin}_{P_2(k)} P^img_3(k) sigma^{lin}_{P_3(k)} P_4(k) sigma^{lin}_{P_4(k)} N_modes
### header ###
0.00050000 0 0 0 0 0 0 0 0 0 0 0 0
0.00150000 0.00179520 22001.77530180 0 -31175.71998939 0 -22524.46556079 0 51372.80881633 0 -14100.83430949 0 3
0.00250000 0.00253879 36600.79525169 0 -29179.60523258 0 -2006.96198476 0 -33576.61057902 0 12468.91663637 0 6
0.00350000 0.00331552 50263.35658918 0 -17566.21452335 0 -15407.11033094 0 -8457.19583438 0 -7742.51526090 0 7
0.00450000 0.00420575 58023.00260180 0 -4393.95913009 0 -9958.54210861 0 -23232.85136986 0 19567.72479251 0 24
0.00550000 0.00557378 55097.17362303 0 7766.45784696 0 -10009.59714423 0 -7464.03937969 0 34842.64507085 0 45
0.00650000 0.00659388 51042.55849785 0 1840.43174419 0 -17575.43185695 0 23527.35641901 0 14821.24761484 0 40
0.00750000 0.00754703 58775.22694871 0 -13865.90470921 0 -19630.78484311 0 33349.88665378 0 609.98178037 0 57
0.00850000 0.00846663 68541.55392983 0 -20360.97751460 0 -19935.85610395 0 10643.15394139 0 12508.93335297 0 75
0.00950000 0.00948925 89440.62139492 0 -15240.29907409 0 -22481.30146198 0 6499.73767543 0 12530.62780888 0 112
0.01050000 0.01054430 94501.83679305 0 -3416.83184335 0 -4558.75831046 0 -36621.36564253 0 101.28781764 0 105
0.01150000 0.01145670 94480.02993063 0 11989.27806968 0 6320.68534994 0 -37062.67359022 0 22961.50206121 0 144
0.01250000 0.01249090 87379.87289640 0 12212.62979970 0 32341.48787670 0 -25027.87088509 0 18673.86824638 0 169
0.01350000 0.01339930 70910.52107138 0 12479.25803504 0 41264.99086600 0 -21446.59956219 0 12952.93905684 0 180
0.01450000 0.01448870 74767.75036972 0 3914.59033902 0 51132.82092322 0 6009.10575233 0 4605.64306466 0 267
0.01550000 0.01550050 71288.09452944 0 -2624.42217007 0 40647.87914087 0 25123.64122932 0 -14529.44032186 0 238
0.01650000 0.01653350 74434.57748206 0 -395.46520182 0 42082.74820668 0 10722.37804774 0 7632.27819918 0 315
0.01750000 0.01747870 73630.98336130 0 -1287.72894774 0 28067.45524926 0 29255.25481200 0 -1431.77788686 0 297
0.01850000 0.01844180 75511.99385462 0 -631.00629350 0 38759.44981807 0 12076.50551935 0 15363.49660610 0 388
0.01950000 0.01947590 73298.37250617 0 2622.20776187 0 13489.11809671 0 9827.81334061 0 253.31031235 0 399
0.02050000 0.02045430 71645.09759665 0 3441.05544568 0 28214.59536732 0 -1685.92899989 0 12384.83656890 0 462
0.02150000 0.02154770 70169.87459472 0 4199.78812937 0 27324.56064244 0 -6936.54936284 0 11083.02308579 0 571
0.02250000 0.02255340 65689.68843287 0 3934.71110383 0 35736.27680397 0 -4531.92687717 0 14528.76588282 0 510
0.02350000 0.02348930 69080.88035190 0 -3316.18305670 0 31528.00198330 0 8515.81582794 0 13789.35587774 0 555
0.02450000 0.02439640 66526.21766027 0 -2407.69118332 0 25566.52286812 0 18301.01586163 0 6663.73876960 0 592
0.02550000 0.02547300 73296.68640856 0 -1115.06018780 0 16862.21256807 0 21990.98427710 0 8812.88374546 0 837
0.02650000 0.02652900 65627.07800830 0 2309.53782114 0 7371.16912335 0 14312.72057577 0 -896.82969825 0 723
0.02750000 0.02749970 64683.65019244 0 6590.42724553 0 7942.29534635 0 5421.43329146 0 6768.68148482 0 826
0.02850000 0.02848090 57866.08311759 0 3549.84246345 0 7112.67911914 0 -3650.34512164 0 5014.38684719 0 831
0.02950000 0.02946900 55418.76864044 0 3015.65301876 0 7450.42695166 0 -7577.42382362 0 15327.41411726 0 996
0.03050000 0.03053250 56042.28753649 0 -2424.93434155 0 12400.57347992 0 -3323.37707317 0 10748.43387613 0 1041
0.03150000 0.03150510 61360.91383636 0 -3736.16748997 0 11737.82471282 0 -519.79803956 0 6372.63963762 0 1036
0.03250000 0.03246190 62247.80117904 0 -1591.68738416 0 13984.71838744 0 563.27800065 0 9142.17860863 0 1059
0.03350000 0.03345080 66496.99196837 0 232.73430119 0 18195.69096428 0 367.71203517 0 8006.92908805 0 1302
0.03450000 0.03451200 63334.32247870 0 3994.28655270 0 27115.82175837 0 -4214.76067614 0 12903.59260013 0 1339
0.03550000 0.03553350 63457.40760420 0 5979.57656286 0 27510.93063156 0 345.18352297 0 14544.61520035 0 1365
0.03650000 0.03647120 57996.47466607 0 4931.11610658 0 33297.05559534 0 -3148.09036567 0 18195.01652524 0 1308
0.03750000 0.03744890 55477.89446328 0 3431.15243238 0 33705.65324941 0 1639.83109124 0 18023.59660159 0 1579
0.03850000 0.03847530 53044.74320605 0 399.36683169 0 36747.93536976 0 6093.33194826 0 18405.55391343 0 1662
0.03950000 0.03950240 52990.00123699 0 -920.33277486 0 30951.35660080 0 6478.88626833 0 13555.32552952 0 1683
0.04050000 0.04050350 53782.12989401 0 -835.29612802 0 29840.10586953 0 6690.60392485 0 15273.57140026 0 1822
0.04150000 0.04152450 53494.81886132 0 280.64307867 0 25779.64560598 0 5429.91998276 0 16012.08215328 0 1887
0.04250000 0.04250150 51409.34093120 0 2474.98895925 0 24551.94173314 0 4045.63384524 0 14853.73309545 0 1920
0.04350000 0.04349210 49445.82406151 0 3109.48997106 0 19353.70280259 0 3576.43784308 0 14734.91941723 0 2005
0.04450000 0.04448520 46856.65257214 0 3258.41735260 0 21959.51045505 0 2625.40010668 0 10669.16480718 0 2151
0.04550000 0.04548030 43372.50047156 0 2631.38013287 0 17453.24598350 0 512.78274944 0 12006.70107831 0 2274
0.04650000 0.04648670 41139.20798433 0 2170.15375208 0 18801.00000615 0 151.73529609 0 6053.01173408 0 2311
0.04750000 0.04749250 40060.10551415 0 1368.90892732 0 19447.00020366 0 -458.88158105 0 6333.21867551 0 2568
0.04850000 0.04851840 38853.19684516 0 925.25505582 0 18091.04050598 0 -1510.85586475 0 2528.34832827 0 2493
0.04950000 0.04949480 38714.59962165 0 688.33698442 0 23760.71232818 0 -1127.65084068 0 1916.69955939 0 2644
0.05050000 0.05050630 38894.11281382 0 149.41522578 0 23551.74863109 0 786.57802368 0 994.33110269 0 2829
0.05150000 0.05149060 39231.10752274 0 162.83656275 0 24358.37772755 0 -12.68923339 0 1680.88194771 0 2784
0.05250000 0.05249300 39384.54240522 0 -131.72693779 0 24715.04357524 0 3345.77969008 0 2497.88616479 0 3055
0.05350000 0.05348950 38609.83675684 0 71.45794076 0 24806.43006569 0 2862.79140947 0 3210.01511055 0 3009
0.05450000 0.05448610 39541.68670244 0 979.82953918 0 23253.30935419 0 4419.26183489 0 3865.50241728 0 3336
0.05550000 0.05550870 38498.55431460 0 908.93025876 0 20169.09960662 0 2287.09024163 0 2767.15595305 0 3349
0.05650000 0.05647670 37163.83944680 0 1209.07811458 0 20377.16405165 0 2523.32375739 0 3031.82831516 0 3324
0.05750000 0.05747970 37110.67116885 0 746.89178221 0 18644.64255448 0 1386.66915548 0 2569.02824327 0 3639
0.05850000 0.05849280 35668.49568006 0 50.08485506 0 19539.51075917 0 -893.46986774 0 341.79446678 0 3846
0.05950000 0.05951020 35964.12479428 0 1141.31947197 0 17045.43517498 0 -2116.97423347 0 3426.63369079 0 3787
0.06050000 0.06049470 35231.45917964 0 1341.26816717 0 21551.25002050 0 -54.96059972 0 411.41568521 0 3930
0.06150000 0.06148310 34113.68887095 0 1151.11007876 0 18643.96811544 0 -345.60279924 0 2347.32888890 0 4083
0.06250000 0.06249100 33278.84574116 0 1053.22424406 0 21635.44249448 0 3009.45942021 0 1153.33572760 0 4303
0.06350000 0.06350600 32390.27230087 0 696.97317638 0 17310.15249970 0 2416.53757545 0 2587.03576574 0 4470
0.06450000 0.06451750 31423.68874451 0 291.76233037 0 17358.37489133 0 4380.07692644 0 1108.24160907 0 4479
0.06550000 0.06550280 31101.98132059 0 -165.48823226 0 14841.81800568 0 2641.01337055 0 623.01981116 0 4636
0.06650000 0.06648880 30369.54051896 0 -51.77735984 0 11562.02093539 0 1817.97292402 0 -2219.43276488 0 4653
0.06750000 0.06749660 30806.91423891 0 -51.16013570 0 11295.61751307 0 376.65060063 0 -2378.27440036 0 5220
0.06850000 0.06852730 30808.48793001 0 42.62376073 0 9858.78133338 0 -828.83162978 0 -2253.71674961 0 5029
0.06950000 0.06949320 30222.62521391 0 198.86846867 0 8593.09530172 0 600.81278157 0 -2561.53072923 0 5040
0.07050000 0.07048030 30946.29830797 0 -553.23672735 0 8673.22990078 0 2224.14259754 0 -1829.71940404 0 5475
0.07150000 0.07148790 31356.58205965 0 -350.71055094 0 8215.57804692 0 2989.60843102 0 -994.37269310 0 5509
0.07250000 0.07249820 32211.99558028 0 389.56498425 0 7854.35973568 0 2280.55942356 0 550.28605654 0 5916
0.07350000 0.07351270 30311.31394818 0 974.97245400 0 7737.90659410 0 940.04775218 0 575.38193336 0 5721
0.07450000 0.07449140 29886.86697657 0 1456.52979977 0 7984.40282398 0 -1171.92776391 0 2900.21153575 0 6028
0.07550000 0.07549160 28666.24471370 0 874.98012136 0 8455.36360831 0 -876.36384546 0 3667.19485708 0 6183
0.07650000 0.07648840 27927.62155416 0 717.95609910 0 9134.22022791 0 -410.36918063 0 2291.37292956 0 6330
0.07750000 0.07749960 27541.61760806 0 409.89257704 0 10298.51558997 0 -1002.83015871 0 1039.34878480 0 6583
0.07850000 0.07848650 26574.13479964 0 525.61620038 0 9413.83141484 0 509.66122073 0 78.24965434 0 6549
0.07950000 0.07947320 26097.98083468 0 870.85705067 0 8874.85345294 0 -202.85552748 0 383.07688065 0 6828
0.08050000 0.08048110 25050.57699956 0 864.66794838 0 8434.70329227 0 282.47530474 0 -1561.23646133 0 7147
0.08150000 0.08149960 24665.24749251 0 585.20176584 0 9538.13053062 0 705.10353905 0 -914.04700297 0 7386
0.08250000 0.08250610 23813.43098011 0 604.33110525 0 8204.58469050 0 373.36495842 0 -2030.00531876 0 7227
0.08350000 0.08350160 23668.53899219 0 452.91504364 0 9083.30008010 0 -799.10123266 0 -1051.86412532 0 7798
0.08450000 0.08449610 23831.19120827 0 323.55201471 0 9772.72291138 0 -444.74871089 0 -78.54236089 0 7371
0.08550000 0.08548940 23604.57968953 0 276.53462083 0 9406.87345204 0 -634.69210287 0 -1731.57728251 0 8256
0.08650000 0.08650700 23560.29152565 0 496.83001792 0 10887.89662975 0 -221.96238559 0 -568.05078095 0 8037
0.08750000 0.08749060 22896.86831951 0 747.50327361 0 9923.26894662 0 85.16636395 0 -2161.95931769 0 8155
0.08850000 0.08849210 22344.05311656 0 975.38386182 0 10716.46546545 0 89.60698303 0 -311.89995616 0 8718
0.08950000 0.08949900 21511.12089739 0 768.42437275 0 10192.40384707 0 531.95705145 0 -1968.83369749 0 8571
0.09050000 0.09049190 21207.28610813 0 356.77937827 0 10357.24799004 0 357.59769764 0 -1249.90415803 0 8932
0.09150000 0.09150830 21376.68271465 0 211.06907097 0 9768.66503647 0 1403.79990719 0 -2633.17863699 0 9285
0.09250000 0.09250820 20608.49664369 0 326.25763934 0 9229.90064693 0 18.98287373 0 -1634.78403906 0 9204
0.09350000 0.09350330 20337.37214806 0 391.28817601 0 7743.08853409 0 1160.94564815 0 -2260.51734330 0 9349
0.09450000 0.09448040 19716.32619517 0 101.39044478 0 8109.45506337 0 1495.07399113 0 -2419.28029423 0 9564
0.09550000 0.09549270 19979.46982879 0 -0.73697528 0 6869.65625034 0 1703.62178414 0 -658.24463835 0 10155
0.09650000 0.09649430 19415.63878812 0 302.62192304 0 5627.95776734 0 1537.83342651 0 -2424.33858706 0 9913
0.09750000 0.09749140 19016.14606114 0 326.33407576 0 5636.38825539 0 1001.64314599 0 -666.86846559 0 10476
0.09850000 0.09850240 18364.52553826 0 413.12089193 0 4503.64539993 0 741.14780969 0 -1543.61112098 0 10575
0.09950000 0.09950330 18494.35505421 0 235.83672079 0 4909.56777912 0 572.69766596 0 267.61741260 0 10882
0.10050000 0.10051200 18505.82051795 0 -42.32127482 0 4461.15574016 0 -328.06963223 0 97.34347330 0 10875
0.10150000 0.10150300 18419.71713335 0 136.77511403 0 5037.63251290 0 514.15523289 0 64.40668056 0 11118
0.10250000 0.10250800 18716.24549964 0 147.65831207 0 5187.15564893 0 -340.75021032 0 586.70688897 0 11575
0.10350000 0.10349800 18295.17072325 0 218.43731753 0 5089.65424449 0 -108.31783301 0 370.47498712 0 11364
0.10450000 0.10450100 18273.36386084 0 343.17369462 0 5868.97980032 0 -169.02004472 0 1047.23185316 0 12093
0.10550000 0.10551000 17992.79721859 0 475.71333146 0 5509.49254929 0 -275.49261251 0 163.74143513 0 12067
0.10650000 0.10649700 17622.30537050 0 610.68544511 0 6395.97522854 0 -552.62973221 0 690.12649602 0 12054
0.10750000 0.10749900 17094.55681868 0 660.88956347 0 6942.00107845 0 -439.88263319 0 561.23669848 0 12807
0.10850000 0.10850100 16635.60104933 0 719.97941623 0 7735.61350135 0 82.87855431 0 1450.90947440 0 12736
0.10950000 0.10950300 16204.63450030 0 405.98757497 0 7374.58628118 0 662.52507815 0 2067.79638652 0 12933
0.11050000 0.11050200 15945.98712698 0 151.74091641 0 7914.13751626 0 1489.84708854 0 1898.14124504 0 13428
0.11150000 0.11150900 15793.11427704 0 -131.01877679 0 6757.66564711 0 1566.72189889 0 2529.55107790 0 13453
0.11250000 0.11250000 15837.73966044 0 -277.25514654 0 6106.59591612 0 969.74892360 0 1409.06053173 0 13668
0.11350000 0.11349100 15981.61998980 0 -163.86620636 0 5904.42157207 0 199.63058479 0 2061.34425300 0 13791
0.11450000 0.11448600 16329.63053643 0 -203.78850149 0 5409.41703583 0 -142.44939452 0 801.59216086 0 14205
0.11550000 0.11549300 16218.46050070 0 -44.30311395 0 5288.99594455 0 -659.67444912 0 283.75336673 0 14776
0.11650000 0.11649800 16404.49327030 0 1.69446065 0 5337.55555571 0 -795.61213467 0 -707.05716415 0 14553
0.11750000 0.11747300 16243.07752580 0 111.49297963 0 5451.24349720 0 -491.52443077 0 -1101.87827669 0 14568
0.11850000 0.11849100 16318.27747919 0 163.78639774 0 5523.64452856 0 1.36426654 0 -1570.37511037 0 16015
0.11950000 0.11950300 16216.54959008 0 167.16646141 0 5366.51147199 0 24.79159241 0 -2383.17532408 0 15270
0.12050000 0.12050700 15891.91959697 0 279.10198546 0 5202.81387539 0 672.17292867 0 -1763.65809969 0 15999
0.12150000 0.12150000 15611.01573520 0 310.54096148 0 4737.20364082 0 556.58306908 0 -2278.85084465 0 15670
0.12250000 0.12250700 15203.20492668 0 330.69207605 0 4199.58579765 0 499.29958888 0 -1927.14212392 0 16887
0.12350000 0.12352200 15032.68425509 0 259.81190474 0 4067.64303937 0 723.19424234 0 -1201.15345581 0 16407
0.12450000 0.12449800 14952.20119586 0 120.63129145 0 3512.14132090 0 818.63523550 0 -1035.78999478 0 16306
0.12550000 0.12549900 14651.28897579 0 114.24098151 0 2993.91360025 0 805.57022716 0 -402.47149942 0 17523
0.12650000 0.12650100 14534.16139517 0 264.11257771 0 3064.97699417 0 310.07447448 0 -28.60678167 0 17154
0.12750000 0.12750600 14216.16338599 0 375.84014971 0 3281.39324269 0 327.65148003 0 443.38072369 0 18007
0.12850000 0.12850300 14063.62775557 0 432.24798321 0 3546.48150888 0 -207.80253787 0 970.75720997 0 17496
0.12950000 0.12949900 13591.18320535 0 388.67809691 0 3888.64691713 0 -294.81753924 0 1339.96425169 0 18405
0.13050000 0.13049000 13475.74172234 0 329.46459699 0 3809.18675712 0 -346.18281682 0 930.99003582 0 18100
0.13150000 0.13148800 12990.25801727 0 362.11081891 0 4621.60478870 0 -134.71582682 0 1662.02013578 0 19059
0.13250000 0.13249300 12839.40848446 0 372.08352424 0 4197.42759271 0 -48.12516001 0 838.77960568 0 18957
0.13350000 0.13349100 12341.67247009 0 300.69527551 0 4253.36107075 0 468.88463614 0 712.17952869 0 19468
0.13450000 0.13450700 12276.58910236 0 168.90651414 0 3948.78439854 0 309.57651365 0 806.19970360 0 19953
0.13550000 0.13551000 12133.38321205 0 34.12526674 0 3540.11930057 0 461.48941202 0 669.61568063 0 19956
0.13650000 0.13649900 12031.88013595 0 -24.93232535 0 3984.94557195 0 310.92988800 0 538.00564561 0 19723
0.13750000 0.13749600 12116.29742294 0 14.49234617 0 3469.94391805 0 422.46524488 0 984.18866353 0 20946
0.13850000 0.13851100 12233.20019054 0 86.32864724 0 3986.85648257 0 112.50767317 0 1590.36098737 0 20955
0.13950000 0.13949800 12202.06358801 0 248.59710750 0 4001.94143585 0 -591.08512243 0 1425.51684440 0 20506
0.14050000 0.14048300 11970.73099597 0 369.22839895 0 4930.02576345 0 -21.43771945 0 1774.77510327 0 21447
0.14150000 0.14148400 11828.87398374 0 219.89972619 0 4611.66805345 0 -554.24164153 0 1290.46042587 0 21771
0.14250000 0.14249400 11669.25674336 0 104.82468839 0 4938.04034743 0 -1.09737190 0 1736.12974605 0 22470
0.14350000 0.14350900 11693.98617497 0 -0.24148402 0 4464.47173213 0 238.48389404 0 884.87076993 0 22519
0.14450000 0.14449900 11506.49212078 0 124.68579417 0 5125.25338535 0 638.54877014 0 1436.22918455 0 22218
0.14550000 0.14550500 11270.21364241 0 233.22551763 0 3908.02579899 0 534.55251771 0 664.64169268 0 23559
0.14650000 0.14650700 11105.02103927 0 285.23713262 0 3936.70069901 0 743.90626538 0 1082.68711369 0 23044
0.14750000 0.14750500 10800.54553292 0 55.43911422 0 3423.43010533 0 763.58639668 0 1205.80708521 0 23649
0.14850000 0.14849900 10761.28193992 0 -1.93854014 0 2972.98350859 0 615.86401290 0 676.27576619 0 23640
0.14950000 0.14949500 10716.72400042 0 -103.30933627 0 2835.94873552 0 290.63376904 0 917.90479430 0 24457
0.15050000 0.15050000 10787.15791790 0 85.46705136 0 2382.41095983 0 -360.61693643 0 234.27876660 0 24591
0.15150000 0.15149900 10721.22026071 0 141.29273156 0 2669.50842015 0 -358.91285378 0 614.71971466 0 25020
0.15250000 0.15250500 10610.02774368 0 199.98578935 0 2744.32619142 0 -503.07869566 0 307.15752561 0 25297
0.15350000 0.15350100 10715.25147517 0 123.94053902 0 3082.13022718 0 -276.43233091 0 505.91246371 0 25452
0.15450000 0.15450400 10533.31030244 0 135.91520425 0 3360.49370189 0 -110.65094248 0 692.45106259 0 26061
0.15550000 0.15549900 10590.27792035 0 87.34929833 0 3434.62579346 0 -181.00482653 0 640.69910663 0 26128
0.15650000 0.15649500 10463.64074921 0 196.90472698 0 3641.52121081 0 270.37699236 0 1084.70368643 0 26331
0.15750000 0.15749700 10278.21497475 0 304.64524018 0 3767.60759006 0 201.22113687 0 1047.56232829 0 27345
0.15850000 0.15849900 9952.75317349 0 298.87316603 0 3552.42781312 0 351.71658918 0 841.66170852 0 26980
0.15950000 0.15949700 9699.51255317 0 259.91307059 0 3636.86758141 0 133.56028792 0 837.81515784 0 27777
0.16050000 0.16050000 9508.81491352 0 151.11818436 0 3112.53618741 0 287.73817741 0 748.40589786 0 28224
0.16150000 0.16150500 9359.38170270 0 37.12562123 0 3050.12809455 0 306.22567567 0 695.97163440 0 28075
0.16250000 0.16249700 9390.73187759 0 -0.47721845 0 2835.29677778 0 389.65490946 0 872.66117511 0 28590
0.16350000 0.16349900 9339.91289563 0 25.95612382 0 2644.08206820 0 391.31402951 0 779.89770495 0 29163
0.16450000 0.16449100 9404.62532189 0 28.76729816 0 2750.66591843 0 233.63467731 0 1099.50200312 0 28996
0.16550000 0.16550500 9309.39452890 0 143.98711554 0 2477.06847964 0 -30.78432053 0 808.44670968 0 30777
0.16650000 0.16650700 9277.62844993 0 62.35121517 0 2583.58488596 0 -77.71347530 0 741.75592889 0 29211
0.16750000 0.16749900 9259.81201853 0 170.62296151 0 2395.76485290 0 -223.07071376 0 512.83445643 0 30922
0.16850000 0.16850800 9049.99403198 0 161.19879994 0 2491.46775322 0 -220.73153434 0 -23.17979550 0 30867
0.16950000 0.16949900 8864.23103800 0 250.71484610 0 2454.69958468 0 -138.15434187 0 -102.80384420 0 30852
0.17050000 0.17049200 8587.31760724 0 280.34857362 0 2370.37222290 0 -59.49406656 0 -572.74824889 0 31257
0.17150000 0.17149500 8485.40986771 0 196.91371951 0 2268.02609799 0 222.88187082 0 -641.67591917 0 32608
0.17250000 0.17250900 8223.10928291 0 86.46724446 0 2124.07832473 0 344.91824362 0 -572.73700824 0 32361
0.17350000 0.17350400 8289.29423441 0 -78.44985033 0 1869.72487999 0 271.35942523 0 -632.83739550 0 32508
0.17450000 0.17449800 8284.53943915 0 -109.58926302 0 1821.78350462 0 267.46116756 0 -551.30783169 0 32791
0.17550000 0.17549800 8428.29612135 0 -49.57587839 0 1547.88256826 0 -166.50213895 0 -792.67720077 0 33633
0.17650000 0.17650100 8461.86070443 0 23.01905419 0 1878.36894040 0 -96.24627338 0 -269.91050535 0 33984
0.17750000 0.17750300 8521.31250615 0 125.48950070 0 1832.13614395 0 -371.93851984 0 -366.56661286 0 34069
