### header ###
fiducial parameters:
Omega_m = 0.31
Omega_nu = 0
Omega_de = 0.69
Omega_k = 0
H_0 = 100
w_de = -1
zeff = 0
beta = 0
fgrowth = 0
b_1 = 2
gamma = 0.55
Lx = 3500 Ly = 3500 Lz = 3500
nx = 700 ny = 700 nz = 700
xoffset = 857.220397 yoffset = 15.9954215 zoffset = 262.898189
bins = 400 dk = 0.001
kx_ny = 0.628318531 ky_ny = 0.628318531 kz_ny = 0.628318531
############################
A(data) = 3.1322442 (not used)
A(ran) = 3.13050472 (used)
Ngal = 190992
weighted Ngal = 0
Nran = 9360983
weighted Nran = 0
SN(data) = 3453.39982
SN(ran) = 70.299371
SN(data+ran) = 3523.69919
############################
13 columns: k_central k_mean P_0(k) sigma^{lin}_{P_0(k)} P^img_1(k) sigma^{lin}_{P_1(k)} P_2(k) sigma^{lin}_{P_2(k)} P^img_3(k) sigma^{lin}_{P_3(k)} P_4(k) sigma^{lin}_{P_4(k)} N_modes
### header ###
0.00050000 0 0 0 0 0 0 0 0 0 0 0 0
0.00150000 0.00179520 15010.20295363 0 -8517.70425727 0 11301.01302542 0 5080.20085722 0 -89625.19287992 0 3
0.00250000 0.00253879 35006.53375851 0 -15658.22646827 0 4741.07042467 0 5197.06990287 0 86349.21763088 0 6
0.00350000 0.00331552 35164.24008827 0 -6234.44707753 0 6263.74021334 0 -9715.73281217 0 -6222.72307882 0 7
0.00450000 0.00420575 39991.76235771 0 2504.39450156 0 1043.54491972 0 1151.27868852 0 26031.66099537 0 24
0.00550000 0.00557378 48677.52558405 0 -16217.22402912 0 -12693.61724448 0 35754.03703212 0 17383.10432294 0 45
0.00650000 0.00659388 45099.28923685 0 -9627.28013157 0 -8377.54458330 0 23580.41229046 0 5011.85770078 0 40
0.00750000 0.00754703 67342.62612286 0 -14582.27138030 0 -24206.17931665 0 12452.95491233 0 -6069.47928740 0 57
0.00850000 0.00846663 70235.29518197 0 -5033.38354693 0 -27344.56900075 0 12080.66456012 0 9808.10847988 0 75
0.00950000 0.00948925 75378.34251743 0 3906.27225748 0 -19815.80595414 0 -24607.02092172 0 22335.95984803 0 112
0.01050000 0.01054430 71330.47178269 0 -4159.01828917 0 -19982.39239798 0 -16861.87534855 0 8026.34169186 0 105
0.01150000 0.01145670 76634.37283011 0 -1541.57656320 0 3895.73976774 0 -22273.23701695 0 34986.07577418 0 144
0.01250000 0.01249090 82614.28661249 0 -6234.05365476 0 759.40150241 0 -13637.49468636 0 5322.65045284 0 169
0.01350000 0.01339930 93277.50511543 0 -9831.43283015 0 22924.40791380 0 5720.55824806 0 9656.02247549 0 180
0.01450000 0.01448870 98306.90947200 0 -1008.38866049 0 25195.69380050 0 -16403.03198571 0 -1040.66956126 0 267
0.01550000 0.01550050 97857.50825577 0 -2957.44892928 0 39557.53601997 0 13056.46545008 0 -7577.46878622 0 238
0.01650000 0.01653350 100585.50178168 0 7453.69798102 0 38646.93090425 0 -6531.00916577 0 -2314.30385705 0 315
0.01750000 0.01747870 99308.22663912 0 5767.89262829 0 25813.59237118 0 3226.06675979 0 -13871.18781506 0 297
0.01850000 0.01844180 94959.78090383 0 3159.37597901 0 39571.58683338 0 14194.69374310 0 -6104.98850306 0 388
0.01950000 0.01947590 91326.35296155 0 2778.84622981 0 14733.34572612 0 10238.47927442 0 -20169.88645217 0 399
0.02050000 0.02045430 91095.35758903 0 -2259.50568474 0 8410.46844929 0 21968.05334961 0 -15246.70624501 0 462
0.02150000 0.02154770 87640.31877384 0 653.64833627 0 -3751.02763023 0 2463.55721746 0 -16961.57992053 0 571
0.02250000 0.02255340 86641.81176941 0 982.88812024 0 -15136.43546134 0 4027.89609839 0 -21849.91411042 0 510
0.02350000 0.02348930 81864.08558271 0 2917.92680131 0 -1241.88957406 0 -11678.47407696 0 -13978.98565557 0 555
0.02450000 0.02439640 78277.53115397 0 5000.52712484 0 -7034.27558030 0 -9043.57562041 0 -10371.70346688 0 592
0.02550000 0.02547300 72858.97546909 0 4172.31597898 0 9116.90962578 0 -7768.87458687 0 -2613.23772259 0 837
0.02650000 0.02652900 66887.71698778 0 3852.66559414 0 7855.77605767 0 -3993.75824212 0 -11109.92196299 0 723
0.02750000 0.02749970 69630.43576614 0 418.72210818 0 20663.80064529 0 1343.23528105 0 -982.85102610 0 826
0.02850000 0.02848090 65523.10198904 0 -1299.63279687 0 17978.85881168 0 -562.96101430 0 -14316.99202305 0 831
0.02950000 0.02946900 72973.51770004 0 -1556.23437175 0 25061.81765030 0 -3145.13407453 0 -5126.98444556 0 996
0.03050000 0.03053250 69543.43312948 0 1950.53391810 0 24330.16369422 0 -4278.38275928 0 -9104.29761566 0 1041
0.03150000 0.03150510 69725.30685831 0 5148.78006733 0 27879.51156903 0 -1655.25326404 0 -7538.71102250 0 1036
0.03250000 0.03246190 64832.02678209 0 4630.46242147 0 35480.77681285 0 -2667.81108189 0 -45.81194649 0 1059
0.03350000 0.03345080 62837.82293591 0 6395.57056511 0 31672.55675170 0 -35.98177262 0 -2806.85793143 0 1302
0.03450000 0.03451200 59517.10989696 0 4580.07058425 0 44545.23756232 0 2481.53101798 0 9919.42464407 0 1339
0.03550000 0.03553350 55748.90655241 0 3731.28904755 0 36038.31308911 0 4857.54604754 0 2339.66276510 0 1365
0.03650000 0.03647120 53680.73922441 0 3743.63128205 0 40629.89409970 0 5338.31991996 0 7792.18769648 0 1308
0.03750000 0.03744890 50793.01605162 0 3149.14698684 0 37034.79677641 0 6147.28707176 0 3553.99026357 0 1579
0.03850000 0.03847530 49193.24663959 0 1963.96649572 0 29732.75765505 0 6550.57913869 0 -153.83280151 0 1662
0.03950000 0.03950240 45400.76348946 0 1430.11427055 0 25271.90541246 0 6841.06003488 0 -7126.33650978 0 1683
0.04050000 0.04050350 44071.21932100 0 587.77250266 0 16377.96533458 0 3597.46910060 0 -13969.43110245 0 1822
0.04150000 0.04152450 43122.62080581 0 164.31583239 0 10820.59885382 0 2089.85054326 0 -16333.11513816 0 1887
0.04250000 0.04250150 42713.34871269 0 1378.27238938 0 12212.96701922 0 1066.02509711 0 -21630.04698212 0 1920
0.04350000 0.04349210 40444.98539518 0 1866.01546525 0 10364.47572846 0 -1117.37238965 0 -19635.61832292 0 2005
0.04450000 0.04448520 39220.65371756 0 1721.06727407 0 13612.99006777 0 -2180.86609222 0 -18037.75982151 0 2151
0.04550000 0.04548030 37884.92719120 0 1824.09907867 0 14494.36949158 0 -2139.52297884 0 -13939.64337801 0 2274
0.04650000 0.04648670 37625.83019185 0 58.20622521 0 17130.41449451 0 -970.65154786 0 -13792.27844693 0 2311
0.04750000 0.04749250 38888.38008195 0 -937.11394234 0 16170.01329605 0 239.29209683 0 -13791.94122740 0 2568
0.04850000 0.04851840 40143.39873607 0 -1225.17472642 0 17766.29810636 0 713.17769847 0 -14361.50499994 0 2493
0.04950000 0.04949480 41485.98205938 0 -267.68822870 0 15475.11626786 0 138.98615003 0 -15579.65431966 0 2644
0.05050000 0.05050630 40653.72427925 0 852.24927745 0 15387.55159867 0 1064.98421286 0 -13082.76857279 0 2829
0.05150000 0.05149060 41100.31533280 0 915.95004514 0 14082.17482928 0 778.78038427 0 -11069.35445450 0 2784
0.05250000 0.05249300 40020.53842358 0 1057.18432531 0 15604.60856428 0 3318.03776408 0 -5908.80542586 0 3055
0.05350000 0.05348950 39499.53426220 0 70.44796829 0 13055.11657199 0 5347.33492184 0 -5106.40281407 0 3009
0.05450000 0.05448610 39645.77512821 0 -494.34583411 0 14905.55249532 0 4871.31584469 0 -598.66469322 0 3336
0.05550000 0.05550870 39315.18759021 0 781.26794028 0 10962.70316037 0 2944.70203135 0 -1323.78895529 0 3349
0.05650000 0.05647670 39547.08221479 0 894.62653070 0 14349.81472318 0 1836.57620098 0 151.29353851 0 3324
0.05750000 0.05747970 36989.72176698 0 1287.12195260 0 10568.99936851 0 -533.57120890 0 -1983.68259710 0 3639
0.05850000 0.05849280 36251.77304649 0 1746.60603253 0 10317.59097426 0 -762.92095015 0 -1956.48022233 0 3846
0.05950000 0.05951020 34350.64178836 0 757.54791910 0 10013.98099802 0 51.80422499 0 -1440.37698467 0 3787
0.06050000 0.06049470 34271.84482673 0 199.43836966 0 8829.00283861 0 1179.61636901 0 -3704.81731508 0 3930
0.06150000 0.06148310 34527.45722436 0 -153.00773775 0 8815.84003660 0 413.01073355 0 -2905.10121882 0 4083
0.06250000 0.06249100 34393.35626114 0 -88.39670216 0 8122.58414342 0 609.92557712 0 -1239.50655611 0 4303
0.06350000 0.06350600 34429.66356300 0 990.70262063 0 13403.12711862 0 -927.78982256 0 1395.97641428 0 4470
0.06450000 0.06451750 34290.95393298 0 1742.31210395 0 12733.63396108 0 133.85704110 0 4916.46953867 0 4479
0.06550000 0.06550280 32125.55497616 0 1550.82761875 0 15632.37297159 0 424.32557257 0 7953.58095968 0 4636
0.06650000 0.06648880 32644.76063342 0 1197.19674675 0 16189.00999579 0 1734.02774437 0 10235.55670523 0 4653
0.06750000 0.06749660 30002.08364657 0 691.31575687 0 15525.81160266 0 2595.45501314 0 9018.29539692 0 5220
0.06850000 0.06852730 30275.34386584 0 802.60269536 0 14340.14776355 0 3477.34026624 0 8644.12785604 0 5029
0.06950000 0.06949320 28462.22690293 0 486.68533063 0 10942.63859881 0 1112.11850950 0 5916.14557078 0 5040
0.07050000 0.07048030 28930.51241238 0 449.66199932 0 11568.54051281 0 1030.04152599 0 5768.61202994 0 5475
0.07150000 0.07148790 27329.84374829 0 72.03672187 0 8519.89618416 0 168.75026910 0 2966.30656205 0 5509
0.07250000 0.07249820 27724.05336942 0 68.89878181 0 9358.45996934 0 182.36269713 0 1632.47970566 0 5916
0.07350000 0.07351270 27685.49793742 0 218.92178957 0 8391.33686175 0 85.46143104 0 976.55288949 0 5721
0.07450000 0.07449140 27652.45042427 0 181.75795012 0 9163.22110679 0 -361.93434069 0 845.00467805 0 6028
0.07550000 0.07549160 27408.07867738 0 564.74040931 0 10579.47565499 0 259.58371953 0 1545.24101534 0 6183
0.07650000 0.07648840 27345.80547233 0 17.09916549 0 10433.43712070 0 -399.38032047 0 1269.35048380 0 6330
0.07750000 0.07749960 27142.46210060 0 -130.52643629 0 9677.51459969 0 1978.90532054 0 689.69822723 0 6583
0.07850000 0.07848650 27950.32766864 0 -416.28288698 0 9952.64076698 0 369.36328676 0 1199.28750779 0 6549
0.07950000 0.07947320 27846.12683636 0 -476.50804546 0 9001.38945822 0 829.99391307 0 1330.52210508 0 6828
0.08050000 0.08048110 28327.11428114 0 262.34217522 0 8202.03306279 0 -237.86453418 0 -1156.47186916 0 7147
0.08150000 0.08149960 27608.94910594 0 598.46910589 0 9167.70612644 0 12.60414166 0 774.78545700 0 7386
0.08250000 0.08250610 27500.81404591 0 769.42928693 0 7875.54836231 0 123.76630894 0 279.05027846 0 7227
0.08350000 0.08350160 26833.00698598 0 447.17107112 0 8237.33994673 0 1259.80717133 0 -124.39353725 0 7798
0.08450000 0.08449610 26118.88844504 0 392.30545490 0 6955.52358127 0 1898.30985480 0 942.13738915 0 7371
0.08550000 0.08548940 25401.51011539 0 763.35259114 0 6151.44611253 0 1166.48728896 0 -508.03919483 0 8256
0.08650000 0.08650700 24852.74154670 0 657.16328775 0 5031.87729973 0 739.91358624 0 1936.88776811 0 8037
0.08750000 0.08749060 23880.98729101 0 762.22627794 0 4748.55669805 0 -87.22216657 0 -236.07277446 0 8155
0.08850000 0.08849210 23520.61202857 0 709.40083983 0 5295.95390735 0 -980.60402001 0 1608.68324806 0 8718
0.08950000 0.08949900 22536.26824406 0 819.51313032 0 5416.37499863 0 -719.41513556 0 -279.74157848 0 8571
0.09050000 0.09049190 22335.62262851 0 619.32950552 0 6061.21740912 0 -510.68636808 0 1620.51965328 0 8932
0.09150000 0.09150830 21435.47131797 0 656.10329439 0 5968.79677881 0 564.77750346 0 -109.86342249 0 9285
0.09250000 0.09250820 21378.36881226 0 533.70609671 0 6585.36895270 0 613.77100373 0 1185.50646999 0 9204
0.09350000 0.09350330 20520.70716148 0 520.31398543 0 6728.66476822 0 684.89397310 0 99.35004186 0 9349
0.09450000 0.09448040 20228.45024248 0 524.18863773 0 5981.09405071 0 711.02736199 0 1228.72677206 0 9564
0.09550000 0.09549270 19568.51163806 0 287.32114927 0 5609.59054405 0 540.06718096 0 595.26214824 0 10155
0.09650000 0.09649430 19404.96016992 0 262.47369083 0 5601.90193895 0 471.72852077 0 231.27976099 0 9913
0.09750000 0.09749140 19072.68653432 0 393.76111917 0 5828.85067721 0 405.93024765 0 1446.99772795 0 10476
0.09850000 0.09850240 18409.15092167 0 702.90486777 0 5519.33935933 0 400.51899839 0 486.37508867 0 10575
0.09950000 0.09950330 17907.03105351 0 811.16245090 0 5427.93038758 0 -87.53431944 0 1615.03421573 0 10882
0.10050000 0.10051200 17376.47233901 0 538.17200724 0 5797.27568930 0 -70.31881322 0 1147.33322011 0 10875
0.10150000 0.10150300 17109.84410367 0 383.86035401 0 6244.82219816 0 178.36327360 0 871.60118175 0 11118
0.10250000 0.10250800 17222.92505002 0 -146.91980131 0 6180.78421094 0 116.47112661 0 1516.59983728 0 11575
0.10350000 0.10349800 16960.56826196 0 -39.01427537 0 5382.69800904 0 -204.38987631 0 -678.54862577 0 11364
0.10450000 0.10450100 17636.69340343 0 -193.17957533 0 6153.09848819 0 385.22272088 0 1357.21865056 0 12093
0.10550000 0.10551000 17538.22530303 0 -337.44208681 0 5543.92266248 0 358.52617539 0 -518.32776244 0 12067
0.10650000 0.10649700 17992.34759256 0 -46.24100213 0 5657.30710640 0 536.22400247 0 770.09360938 0 12054
0.10750000 0.10749900 17780.68613930 0 112.55151170 0 5132.63849288 0 967.24225849 0 -63.97537679 0 12807
0.10850000 0.10850100 17600.61091459 0 444.31257364 0 5266.63829024 0 258.83396812 0 737.28664616 0 12736
0.10950000 0.10950300 17191.33882147 0 424.34018542 0 5424.62563627 0 567.87542680 0 1050.03077519 0 12933
0.11050000 0.11050200 16868.95695851 0 320.04268355 0 4905.33005380 0 339.22260589 0 822.42670699 0 13428
0.11150000 0.11150900 16518.81068824 0 236.62244228 0 5211.53662036 0 532.25380463 0 1751.28214324 0 13453
0.11250000 0.11250000 16299.28077946 0 277.88237485 0 4479.44427890 0 353.31388565 0 995.03589149 0 13668
0.11350000 0.11349100 15996.45764877 0 406.72046540 0 4800.31989467 0 -80.34895827 0 1275.00453111 0 13791
0.11450000 0.11448600 15555.26210757 0 350.64760329 0 4076.69176321 0 58.02266538 0 113.79809987 0 14205
0.11550000 0.11549300 15340.34086560 0 223.40568515 0 4235.66828650 0 182.63696901 0 975.00280376 0 14776
0.11650000 0.11649800 15097.54280981 0 124.57113953 0 3413.78562700 0 290.11332691 0 -274.94519281 0 14553
0.11750000 0.11747300 15189.71614580 0 -130.58601174 0 3578.16890329 0 564.38295662 0 608.26083675 0 14568
0.11850000 0.11849100 14991.43106691 0 228.13912317 0 3001.38863298 0 -18.99377717 0 118.58212082 0 16015
0.11950000 0.11950300 15224.56216307 0 244.56845828 0 3039.59560482 0 470.83826123 0 -307.65773457 0 15270
0.12050000 0.12050700 14568.67019292 0 363.21689894 0 3161.97256933 0 -5.55544433 0 844.61013121 0 15999
0.12150000 0.12150000 14407.36685493 0 505.72811704 0 3198.70701592 0 -232.49712346 0 -332.85252912 0 15670
0.12250000 0.12250700 13998.09476181 0 415.50728208 0 4068.18259061 0 -63.02082073 0 1241.33878218 0 16887
0.12350000 0.12352200 13692.46146843 0 434.95922817 0 3544.93029908 0 16.17664528 0 128.42668273 0 16407
0.12450000 0.12449800 13454.49689246 0 139.46275362 0 3962.67784285 0 46.02338313 0 808.49279635 0 16306
0.12550000 0.12549900 13351.75734478 0 28.60037450 0 3262.52019012 0 425.55192757 0 100.05584232 0 17523
0.12650000 0.12650100 13253.96368342 0 -52.97269063 0 3550.92156592 0 478.13119543 0 67.26596488 0 17154
0.12750000 0.12750600 13367.60666231 0 -202.12938144 0 2481.14883585 0 320.77669804 0 -299.99947923 0 18007
0.12850000 0.12850300 13515.87084545 0 -98.60489912 0 2470.67254937 0 349.94169043 0 -144.34906449 0 17496
0.12950000 0.12949900 13493.72676351 0 -103.69713872 0 1924.34320189 0 528.76021039 0 -85.07014398 0 18405
0.13050000 0.13049000 13636.59543430 0 -0.66556905 0 2084.35386505 0 865.60092239 0 536.36001435 0 18100
0.13150000 0.13148800 13602.42385608 0 52.44943834 0 1362.26570274 0 188.18872641 0 226.44403304 0 19059
0.13250000 0.13249300 13567.01580628 0 244.77416219 0 1993.47320389 0 114.06675142 0 911.00303475 0 18957
0.13350000 0.13349100 13350.97049923 0 284.95386823 0 1911.82111698 0 -393.50370827 0 1033.34627731 0 19468
0.13450000 0.13450700 13241.26174809 0 304.69357497 0 2302.22015752 0 -469.11506948 0 1286.46999486 0 19953
0.13550000 0.13551000 13068.60535286 0 242.71037871 0 2581.10070215 0 -358.24066286 0 1388.02927421 0 19956
0.13650000 0.13649900 13016.78595300 0 129.30232942 0 2628.15406611 0 -45.30510555 0 1174.22085666 0 19723
0.13750000 0.13749600 12655.84865802 0 201.90119623 0 2754.51022098 0 -31.81092916 0 643.47667142 0 20946
0.13850000 0.13851100 12775.56158831 0 177.58204838 0 2981.49268119 0 269.32037119 0 932.50639960 0 20955
0.13950000 0.13949800 12508.48372694 0 235.66811103 0 2812.74803242 0 -44.48082863 0 221.14069403 0 20506
0.14050000 0.14048300 12360.21954380 0 179.58176014 0 3051.26340028 0 -16.98990636 0 1175.60345670 0 21447
0.14150000 0.14148400 12251.63485774 0 137.80700577 0 3165.77190927 0 -186.16990554 0 414.83396710 0 21771
0.14250000 0.14249400 12152.94194432 0 153.93284331 0 3354.82841392 0 165.36233697 0 1021.08947175 0 22470
0.14350000 0.14350900 11986.80512651 0 209.18963417 0 3046.22758875 0 162.78710389 0 575.11890213 0 22519
0.14450000 0.14449900 11939.14476741 0 152.45806993 0 3090.99910061 0 308.52326468 0 798.08282971 0 22218
0.14550000 0.14550500 11618.44900206 0 262.00832789 0 2629.98629218 0 499.95491882 0 1057.76771509 0 23559
0.14650000 0.14650700 11471.87091653 0 223.86093150 0 2158.04757124 0 350.25418052 0 902.84232232 0 23044
0.14750000 0.14750500 11246.38346286 0 124.10802472 0 2122.40346777 0 437.86156418 0 967.12085946 0 23649
0.14850000 0.14849900 11211.82970252 0 167.49244028 0 2075.90089570 0 -148.43391697 0 490.32392928 0 23640
0.14950000 0.14949500 10956.71189353 0 243.50396866 0 2184.87900453 0 -341.77985393 0 578.50233800 0 24457
0.15050000 0.15050000 10800.25327600 0 348.22636713 0 2955.86399752 0 -971.30800186 0 252.38857899 0 24591
0.15150000 0.15149900 10723.65948192 0 321.50396814 0 3217.41145873 0 -862.34000961 0 613.02462453 0 25020
0.15250000 0.15250500 10466.65324361 0 227.79178706 0 4006.28032703 0 -352.94856450 0 486.63137551 0 25297
0.15350000 0.15350100 10408.70768909 0 112.04500798 0 4056.37990734 0 151.61052486 0 212.49550955 0 25452
0.15450000 0.15450400 10188.88552339 0 5.90183622 0 4083.43615365 0 302.08799214 0 -35.67973633 0 26061
0.15550000 0.15549900 10369.00571071 0 41.03815453 0 3616.03865560 0 550.64350923 0 -375.50405425 0 26128
0.15650000 0.15649500 10064.54144501 0 -32.92499006 0 3338.59691426 0 402.35010040 0 -657.99397184 0 26331
0.15750000 0.15749700 10156.32135823 0 84.45291985 0 3175.51755346 0 175.17879725 0 -899.86467394 0 27345
0.15850000 0.15849900 9978.60667017 0 101.31074857 0 2628.95215231 0 179.12651379 0 -918.26786732 0 26980
0.15950000 0.15949700 9768.49642671 0 295.78311114 0 2626.81642867 0 -2.64441929 0 -1002.59860130 0 27777
0.16050000 0.16050000 9639.03785224 0 194.25642967 0 2561.28343491 0 44.75420126 0 -622.55669635 0 28224
0.16150000 0.16150500 9543.68341209 0 219.00834258 0 2632.40303209 0 88.48078223 0 -633.71866252 0 28075
0.16250000 0.16249700 9330.72928399 0 98.64986173 0 2579.39212324 0 266.59226526 0 -579.88831024 0 28590
0.16350000 0.16349900 9308.38287033 0 45.82914469 0 2568.81467090 0 190.10638142 0 -85.54292575 0 29163
0.16450000 0.16449100 9297.72673344 0 62.29726004 0 2262.76547345 0 372.51741336 0 -19.20858600 0 28996
0.16550000 0.16550500 9210.40935856 0 137.49676381 0 2391.75194059 0 80.32872510 0 113.67670084 0 30777
0.16650000 0.16650700 9022.99398892 0 210.72173486 0 2048.99077785 0 200.34099391 0 198.35364686 0 29211
0.16750000 0.16749900 8977.50307542 0 208.11502796 0 2273.41036969 0 22.61304189 0 419.72477423 0 30922
0.16850000 0.16850800 8718.30491021 0 202.33733348 0 2081.16152024 0 8.04579926 0 296.36874904 0 30867
0.16950000 0.16949900 8660.34811504 0 70.45426306 0 2033.27634813 0 317.54613502 0 564.03786864 0 30852
0.17050000 0.17049200 8437.70454601 0 75.26694767 0 2146.52590424 0 4.85025087 0 177.31002463 0 31257
0.17150000 0.17149500 8593.82594402 0 29.85471872 0 1920.94852537 0 161.64505377 0 238.05674931 0 32608
0.17250000 0.17250900 8389.94302106 0 75.60371756 0 2087.22023098 0 -76.89953978 0 142.80010282 0 32361
0.17350000 0.17350400 8412.09834365 0 99.64701985 0 1743.66098204 0 61.76490282 0 -50.03719470 0 32508
0.17450000 0.17449800 8184.92479237 0 34.04444646 0 1742.15473484 0 133.96270322 0 -404.17670614 0 32791
0.17550000 0.17549800 8212.22833300 0 98.79509093 0 1566.95795255 0 267.42070122 0 -412.47230638 0 33633
0.17650000 0.17650100 8130.49756153 0 17.21280846 0 1424.20168827 0 100.71859109 0 -565.81276739 0 33984
0.17750000 0.17750300 8109.64615443 0 46.11364556 0 1445.26666774 0 111.15812064 0 -642.26717740 0 34069
0.17850000 0.17849800 8183.81196795 0 66.76170929 0 1187.83328470 0 -135.05079821 0 -505.33469426 0 34536
