### header ###
fiducial parameters:
Omega_m = 0.31
Omega_nu = 0
Omega_de = 0.69
Omega_k = 0
H_0 = 100
w_de = -1
zeff = 0
beta = 0
fgrowth = 0
b_1 = 2
gamma = 0.55
Lx = 3500 Ly = 3500 Lz = 3500
nx = 700 ny = 700 nz = 700
xoffset = 857.220397 yoffset = 15.9954215 zoffset = 262.898189
bins = 400 dk = 0.001
kx_ny = 0.628318531 ky_ny = 0.628318531 kz_ny = 0.628318531
############################
A(data) = 3.05232897 (not used)
A(ran) = 3.05208447 (used)
Ngal = 186537
weighted Ngal = 0
Nran = 9360983
weighted Nran = 0
SN(data) = 3442.52867
SN(ran) = 68.5383469
SN(data+ran) = 3511.06701
############################
13 columns: k_central k_mean P_0(k) sigma^{lin}_{P_0(k)} P^img_1(k) sigma^{lin}_{P_1(k)} P_2(k) sigma^{lin}_{P_2(k)} P^img_3(k) sigma^{lin}_{P_3(k)} P_4(k) sigma^{lin}_{P_4(k)} N_modes
### header ###
0.00050000 0 0 0 0 0 0 0 0 0 0 0 0
0.00150000 0.00179520 35037.55795453 0 -57293.25955634 0 -50574.72261443 0 78008.20516245 0 -6407.68798660 0 3
0.00250000 0.00253879 68102.83133180 0 -70747.86885531 0 -47702.17432012 0 -19040.87549275 0 14370.49752053 0 6
0.00350000 0.00331552 95652.42980188 0 -61181.17583118 0 -77842.06834465 0 -31934.01428770 0 -22345.06477512 0 7
0.00450000 0.00420575 123264.97591605 0 -43902.04752750 0 -104425.30807139 0 -18433.99275978 0 18578.54752818 0 24
0.00550000 0.00557378 123094.11802494 0 -4992.66990998 0 -126809.15309153 0 -35173.90704790 0 25477.49691433 0 45
0.00650000 0.00659388 117817.75657181 0 9911.97209264 0 -114801.88998069 0 -40327.74540805 0 9250.45979712 0 40
0.00750000 0.00754703 86371.69893234 0 16295.00933218 0 -90041.09695697 0 -49454.81658210 0 26065.49535407 0 57
0.00850000 0.00846663 82756.70565725 0 8625.18735955 0 -79368.43630741 0 -50961.85062560 0 29886.30494404 0 75
0.00950000 0.00948925 75721.06995822 0 -1156.94397649 0 -33351.01071885 0 -59053.77027383 0 37629.87682611 0 112
0.01050000 0.01054430 93606.18174281 0 -8268.35290210 0 -1311.64905250 0 -63829.69795641 0 8370.57537985 0 105
0.01150000 0.01145670 105557.69122603 0 -5601.87945765 0 39205.02921304 0 -65900.90026010 0 15360.01200438 0 144
0.01250000 0.01249090 111195.21478714 0 6417.04020801 0 64901.15678409 0 -43495.69800357 0 -3064.59481204 0 169
0.01350000 0.01339930 114904.17990234 0 8860.64527042 0 79307.96160648 0 -25455.91486492 0 -21017.54392379 0 180
0.01450000 0.01448870 105275.77570569 0 12903.59260013 0 88273.50462952 0 8418.04464788 0 -21554.39740270 0 267
0.01550000 0.01550050 91873.32302612 0 12862.56422497 0 79966.66373931 0 35434.12811232 0 -42726.61268056 0 238
0.01650000 0.01653350 84246.54150514 0 4754.27818928 0 56789.56599708 0 40042.12047298 0 -38162.79607727 0 315
0.01750000 0.01747870 78449.62551666 0 3225.95435329 0 41114.36614621 0 35444.69432401 0 -36525.03326576 0 297
0.01850000 0.01844180 76022.99383685 0 1551.24352283 0 35126.80872133 0 17445.37752799 0 -28490.21612325 0 388
0.01950000 0.01947590 67866.10322740 0 858.71377568 0 21441.65367587 0 11833.70746356 0 -12851.32357423 0 399
0.02050000 0.02045430 67824.40041319 0 3213.90437570 0 21815.29290617 0 1963.03352171 0 -2575.34548898 0 462
0.02150000 0.02154770 65513.09780988 0 3309.66347928 0 21610.71306287 0 7766.01946158 0 16472.72402024 0 571
0.02250000 0.02255340 64113.29957435 0 3850.24885424 0 24550.36804204 0 4052.28831047 0 20254.64095868 0 510
0.02350000 0.02348930 59927.39364864 0 2255.86371390 0 12475.88583982 0 15432.40179509 0 24677.94942783 0 555
0.02450000 0.02439640 57813.70168518 0 866.29784273 0 19507.81212411 0 5121.29667629 0 17771.13158618 0 592
0.02550000 0.02547300 56626.01452895 0 107.16611594 0 5811.38270597 0 4124.21723450 0 13435.05056670 0 837
0.02650000 0.02652900 57084.29585925 0 1264.34839422 0 10120.18266613 0 -7315.93256566 0 2291.12563524 0 723
0.02750000 0.02749970 55279.83419740 0 1053.21412748 0 1627.07295266 0 -10380.98824439 0 1273.85798474 0 826
0.02850000 0.02848090 54484.89537771 0 2391.24611131 0 17176.83838203 0 -10867.35996087 0 -10020.87151692 0 831
0.02950000 0.02946900 54673.06387095 0 1114.51614030 0 15178.13827555 0 -6456.56233598 0 -8076.96958275 0 996
0.03050000 0.03053250 56036.32999160 0 542.62442900 0 28227.85933519 0 557.27324503 0 -6179.40161090 0 1041
0.03150000 0.03150510 55158.99720205 0 -68.71499717 0 22846.73501725 0 3905.99124121 0 -10689.69023541 0 1036
0.03250000 0.03246190 56906.35635818 0 899.39031848 0 28246.74362841 0 6296.19197200 0 4192.34681858 0 1059
0.03350000 0.03345080 55915.60540275 0 967.29958581 0 22811.77659347 0 8790.31251879 0 3751.24120260 0 1302
0.03450000 0.03451200 54872.92264094 0 2687.70703368 0 25476.14803624 0 7730.00441664 0 13821.39173232 0 1339
0.03550000 0.03553350 53191.43369809 0 2231.02187579 0 18171.52356521 0 7903.26780701 0 17335.66877686 0 1365
0.03650000 0.03647120 50987.14208975 0 1849.71652169 0 21632.29511227 0 8639.83392746 0 23577.48972127 0 1308
0.03750000 0.03744890 48814.21189694 0 2735.88446272 0 17757.98002482 0 2619.38635854 0 25449.05806798 0 1579
0.03850000 0.03847530 47467.80675238 0 3093.70809744 0 21850.70095597 0 1971.29540000 0 22915.64020623 0 1662
0.03950000 0.03950240 45462.47466197 0 2144.08668303 0 22300.21457871 0 -1608.27858464 0 21285.85825674 0 1683
0.04050000 0.04050350 43065.85551962 0 1811.85801003 0 25738.95445033 0 2704.03969920 0 17843.40897038 0 1822
0.04150000 0.04152450 41704.72512260 0 7.81233094 0 22919.23721446 0 1067.29641471 0 14827.42997274 0 1887
0.04250000 0.04250150 42293.28559488 0 -353.20485133 0 20711.91063042 0 3432.77108609 0 6445.10811288 0 1920
0.04350000 0.04349210 42119.28032156 0 554.07527990 0 18946.22921359 0 3802.64469839 0 6152.36784589 0 2005
0.04450000 0.04448520 40791.87187674 0 888.64650451 0 13643.56463776 0 -455.87807918 0 1253.07402154 0 2151
0.04550000 0.04548030 38844.54154410 0 1574.74772351 0 16065.36283775 0 -1196.48858576 0 -713.36766547 0 2274
0.04650000 0.04648670 38404.58247449 0 2196.17585852 0 13595.79187215 0 -2573.35589380 0 -2379.37598413 0 2311
0.04750000 0.04749250 35653.09598856 0 1353.72280818 0 14499.98981695 0 -1459.92447629 0 -4792.09173833 0 2568
0.04850000 0.04851840 35259.22358694 0 1063.26102110 0 15251.53972482 0 -2410.07420128 0 -1305.44421329 0 2493
0.04950000 0.04949480 34853.99812809 0 -507.32091725 0 15456.00716162 0 1636.76239359 0 -4864.32415993 0 2644
0.05050000 0.05050630 35347.01306915 0 372.30608912 0 15971.16618462 0 2373.93550918 0 -1502.70639297 0 2829
0.05150000 0.05149060 34934.14396780 0 71.95680084 0 15762.20248753 0 3318.31878034 0 -2682.13167092 0 2784
0.05250000 0.05249300 34322.20294201 0 187.96054120 0 14973.33361923 0 2397.05752773 0 1694.44941314 0 3055
0.05350000 0.05348950 35554.96510768 0 467.56161155 0 13773.61896671 0 1244.60981154 0 -1752.48489287 0 3009
0.05450000 0.05448610 34584.55973007 0 -59.57792182 0 15477.70161753 0 -698.66601838 0 1259.02032578 0 3336
0.05550000 0.05550870 35716.26844567 0 259.76356994 0 15400.70316002 0 -1220.26256205 0 -604.95383730 0 3349
0.05650000 0.05647670 35054.08171110 0 243.62311955 0 18925.20919673 0 -2029.22971386 0 273.27820431 0 3324
0.05750000 0.05747970 35660.29000503 0 811.89534132 0 16514.42683445 0 -1289.87591203 0 -918.02057300 0 3639
0.05850000 0.05849280 35078.58632970 0 523.50857836 0 19390.79695000 0 2031.33171555 0 -73.90660412 0 3846
0.05950000 0.05951020 34267.46097295 0 729.73630107 0 16404.71808332 0 4019.08342822 0 2571.88336855 0 3787
0.06050000 0.06049470 33809.29204915 0 520.33871486 0 14718.73288017 0 6067.65830199 0 2315.84382620 0 3930
0.06150000 0.06148310 32546.40493953 0 108.14461459 0 11896.43029464 0 6581.35604039 0 4287.73498069 0 4083
0.06250000 0.06249100 32562.92869610 0 235.04425492 0 11197.30678177 0 3793.61845585 0 5581.52263917 0 4303
0.06350000 0.06350600 31522.49406444 0 946.42682147 0 9513.94065025 0 1264.87670481 0 8135.53337306 0 4470
0.06450000 0.06451750 30451.82208231 0 1377.69911619 0 12309.86142852 0 -810.14517200 0 8999.23125328 0 4479
0.06550000 0.06550280 30402.02599958 0 1212.45030980 0 12166.99275773 0 -1288.63944045 0 7785.29717759 0 4636
0.06650000 0.06648880 29104.85490522 0 546.38892293 0 13301.28682300 0 -715.57195708 0 7822.99832014 0 4653
0.06750000 0.06749660 29303.92682966 0 741.83910971 0 13164.37569709 0 -909.91156757 0 5259.57916159 0 5220
0.06850000 0.06852730 28887.01109405 0 610.48311340 0 13006.33214782 0 477.41179378 0 5306.35150928 0 5029
0.06950000 0.06949320 27822.40906332 0 481.11446413 0 11652.73298679 0 1195.15094832 0 1998.25048045 0 5040
0.07050000 0.07048030 27459.22363820 0 445.42202587 0 10220.60663976 0 2198.15421305 0 1527.95289451 0 5475
0.07150000 0.07148790 26863.46914946 0 -199.10901859 0 7200.78333957 0 2441.37941357 0 -1091.63129948 0 5509
0.07250000 0.07249820 26374.72565568 0 -92.83125128 0 5952.17185638 0 2211.40694026 0 -1510.55236718 0 5916
0.07350000 0.07351270 26842.56153910 0 -220.52807856 0 3981.59585803 0 1242.60897571 0 -2271.71303143 0 5721
0.07450000 0.07449140 26468.36027626 0 -574.53214016 0 2800.03485644 0 1944.81242687 0 -231.52143498 0 6028
0.07550000 0.07549160 27365.02698508 0 25.48311724 0 2091.18818069 0 1353.48675452 0 379.91263747 0 6183
0.07650000 0.07648840 26645.73774480 0 -53.12095482 0 1251.00574180 0 291.01819930 0 -960.88342237 0 6330
0.07750000 0.07749960 27312.87036568 0 394.97960571 0 2128.52962242 0 31.26317225 0 1469.46778876 0 6583
0.07850000 0.07848650 26286.14932792 0 212.30779068 0 2378.65658249 0 -929.25223122 0 -2.91880357 0 6549
0.07950000 0.07947320 26492.75248835 0 382.44852828 0 2418.57213323 0 -1004.59269274 0 110.31585868 0 6828
0.08050000 0.08048110 26477.80242288 0 171.65485325 0 3059.96366394 0 -1320.10202185 0 -1627.52257869 0 7147
0.08150000 0.08149960 25964.77912352 0 672.50003161 0 3773.49769104 0 -815.24168305 0 -2116.86182696 0 7386
0.08250000 0.08250610 25578.10073837 0 914.64275746 0 3588.02695398 0 -1021.82123812 0 -2520.17637519 0 7227
0.08350000 0.08350160 24714.93116874 0 817.23127823 0 4108.85126495 0 -50.03539619 0 -2272.53359894 0 7798
0.08450000 0.08449610 23750.37092951 0 740.45538560 0 4060.04435948 0 483.40868095 0 -2130.09207287 0 7371
0.08550000 0.08548940 23979.56779792 0 638.62408250 0 4283.08135128 0 410.48495933 0 -1319.71983972 0 8256
0.08650000 0.08650700 23210.81969442 0 602.28081056 0 5101.05226433 0 282.12572050 0 382.91838748 0 8037
0.08750000 0.08749060 23014.67033917 0 587.77812298 0 6118.63465305 0 -96.27167725 0 1594.44134359 0 8155
0.08850000 0.08849210 22492.65451922 0 265.29059790 0 6749.14523385 0 -153.13363304 0 2503.69758122 0 8718
0.08950000 0.08949900 22268.29113063 0 110.29348979 0 7472.63847750 0 789.75800377 0 3407.95172927 0 8571
0.09050000 0.09049190 22381.14726397 0 237.13838815 0 7207.11182594 0 1065.88571305 0 2263.76589137 0 8932
0.09150000 0.09150830 22091.81291415 0 13.10019158 0 6800.80726461 0 812.32248605 0 2585.79929416 0 9285
0.09250000 0.09250820 21475.03840854 0 363.61706611 0 5882.69339421 0 538.67671246 0 748.55652258 0 9204
0.09350000 0.09350330 21397.25310549 0 484.73058147 0 5847.99350540 0 417.74304751 0 2337.81929838 0 9349
0.09450000 0.09448040 20680.21199536 0 627.87577227 0 5022.15413685 0 -406.34390360 0 488.64570012 0 9564
0.09550000 0.09549270 20808.24300718 0 286.53655185 0 6023.66239502 0 -122.79399265 0 1833.12532121 0 10155
0.09650000 0.09649430 19892.91681816 0 346.26712170 0 5530.47884420 0 33.30290073 0 432.21313719 0 9913
0.09750000 0.09749140 20091.65152308 0 376.78324031 0 6385.86988353 0 157.40732845 0 1881.59500716 0 10476
0.09850000 0.09850240 19340.88846076 0 376.09980874 0 6647.41734474 0 522.21365540 0 927.80331134 0 10575
0.09950000 0.09950330 19540.63482425 0 546.37206195 0 6967.15765478 0 17.09939030 0 1218.22800427 0 10882
0.10050000 0.10051200 18781.10405435 0 411.79337107 0 6697.06729902 0 243.90413582 0 1482.58562816 0 10875
0.10150000 0.10150300 18548.53499073 0 550.51761394 0 6298.30521434 0 393.05071005 0 2107.18362668 0 11118
0.10250000 0.10250800 18071.25696069 0 404.22953720 0 6512.73186768 0 161.87323898 0 2008.14225309 0 11575
0.10350000 0.10349800 17733.36299972 0 370.51432939 0 6289.53750677 0 396.73876755 0 1439.11803179 0 11364
0.10450000 0.10450100 17601.95979267 0 253.06301804 0 5810.50593521 0 467.96065465 0 2018.48365176 0 12093
0.10550000 0.10551000 17269.57375056 0 295.02998754 0 5247.41677749 0 111.51860831 0 1503.99906781 0 12067
0.10650000 0.10649700 17180.88501629 0 275.70506080 0 6279.17362679 0 -402.67945146 0 1300.13862615 0 12054
0.10750000 0.10749900 16764.30650020 0 538.54519685 0 6175.56854900 0 -553.83472997 0 438.53600323 0 12807
0.10850000 0.10850100 16607.04979647 0 547.12518555 0 6799.99793776 0 -632.79580510 0 763.59538920 0 12736
0.10950000 0.10950300 15857.52320573 0 485.49044946 0 6279.56704957 0 -290.98335328 0 -763.20533862 0 12933
0.11050000 0.11050200 15684.30477797 0 271.32120702 0 6655.93775799 0 176.45798331 0 309.19770372 0 13428
0.11150000 0.11150900 15330.22427994 0 70.54441308 0 5763.43008995 0 644.16684738 0 -2017.52819645 0 13453
0.11250000 0.11250000 15444.76651089 0 36.74490039 0 5946.97867574 0 904.01809439 0 -1046.46299265 0 13668
0.11350000 0.11349100 15217.36814660 0 -136.91000184 0 5158.79548713 0 746.51971667 0 -863.85075307 0 13791
0.11450000 0.11448600 15420.71151832 0 -120.77854397 0 5149.61187548 0 833.78426049 0 -650.15361796 0 14205
0.11550000 0.11549300 15311.11517370 0 -80.81881747 0 4143.25889684 0 1027.64839145 0 -306.31560088 0 14776
0.11650000 0.11649800 15306.61891341 0 19.70744608 0 4290.61258727 0 821.90401673 0 -491.71214964 0 14553
0.11750000 0.11747300 15221.75200039 0 211.67719018 0 3781.57971892 0 238.83572641 0 20.94313082 0 14568
0.11850000 0.11849100 15111.25640370 0 224.52188177 0 3877.43998835 0 -132.15071032 0 -443.93488777 0 16015
0.11950000 0.11950300 14898.80810488 0 303.55040080 0 3845.08939555 0 -664.86650570 0 -289.97169471 0 15270
0.12050000 0.12050700 14895.43590967 0 280.75548518 0 4240.61417282 0 -556.51450111 0 152.55361546 0 15999
0.12150000 0.12150000 14671.85936663 0 312.27764202 0 4967.81683121 0 -470.41336464 0 -50.44635438 0 15670
0.12250000 0.12250700 14329.35673885 0 403.09647960 0 4668.80428112 0 48.49036875 0 -74.71323321 0 16887
0.12350000 0.12352200 14025.63435610 0 408.68645521 0 4856.69175809 0 645.08520854 0 -52.64165347 0 16407
0.12450000 0.12449800 13693.02350097 0 229.37334662 0 4566.03101148 0 720.36272242 0 514.92746560 0 16306
0.12550000 0.12549900 13483.38536484 0 217.82020580 0 4359.85499578 0 929.90756115 0 235.39159102 0 17523
0.12650000 0.12650100 13168.87195739 0 172.09773489 0 3291.59975356 0 503.80484170 0 -505.31670922 0 17154
0.12750000 0.12750600 12931.35700744 0 279.60669067 0 3475.65416863 0 114.61079892 0 62.18665204 0 18007
0.12850000 0.12850300 12800.85305245 0 145.96547007 0 2883.42924421 0 -20.54397531 0 -464.36139828 0 17496
0.12950000 0.12949900 12666.63968272 0 131.95849519 0 3289.77876814 0 -105.07985116 0 -101.95562470 0 18405
0.13050000 0.13049000 12783.99207636 0 -63.69829475 0 3293.57810808 0 -284.93813131 0 -602.78551577 0 18100
0.13150000 0.13148800 12784.21688937 0 -123.99449415 0 3920.50292130 0 -31.34264365 0 579.07673525 0 19059
0.13250000 0.13249300 13078.60953202 0 -18.82561703 0 4164.77350234 0 -157.67598000 0 293.10671220 0 18957
0.13350000 0.13349100 13195.73711263 0 -18.57495052 0 4273.68416727 0 -83.38134862 0 834.17768327 0 19468
0.13450000 0.13450700 13241.26174809 0 285.89920695 0 4481.88350011 0 -41.81848051 0 1126.88647643 0 19953
0.13550000 0.13551000 12890.55344529 0 339.47664460 0 4550.23789721 0 101.43619423 0 1615.09041898 0 19956
0.13650000 0.13649900 12595.93598963 0 383.64790571 0 4503.85897229 0 375.68165654 0 1768.15435998 0 19723
0.13750000 0.13749600 12437.55522083 0 243.42640817 0 4221.11164380 0 631.06362082 0 1365.77278577 0 20946
0.13850000 0.13851100 12111.01431709 0 96.71523333 0 3879.51950874 0 631.25021562 0 1848.28895905 0 20955
0.13950000 0.13949800 12083.47472280 0 74.56957770 0 3522.65132933 0 702.55753166 0 1209.77503492 0 20506
0.14050000 0.14048300 11890.80996927 0 95.24068477 0 3105.88172218 0 427.16046469 0 1517.49908933 0 21447
0.14150000 0.14148400 11667.57064575 0 274.69227817 0 2748.93485822 0 99.64555857 0 1101.74226481 0 21771
0.14250000 0.14249400 11481.76268917 0 315.24404975 0 2828.97953207 0 189.11158383 0 919.37844361 0 22470
0.14350000 0.14350900 11070.13005940 0 311.96290380 0 2571.01783845 0 -40.83098934 0 659.74863742 0 22519
0.14450000 0.14449900 10720.75939403 0 306.47184592 0 2467.53640782 0 69.55310009 0 643.31480605 0 22218
0.14550000 0.14550500 10561.98520246 0 165.66133828 0 2388.85185270 0 -20.22181826 0 571.59720626 0 23559
0.14650000 0.14650700 10474.72403083 0 139.02886450 0 2395.96718461 0 97.68473945 0 232.68147013 0 23044
0.14750000 0.14750500 10358.43949902 0 83.94147024 0 2764.40199362 0 -36.59663621 0 781.73442728 0 23649
0.14850000 0.14849900 10327.16800869 0 134.24147135 0 2605.24561992 0 119.26667645 0 672.67313763 0 23640
0.14950000 0.14949500 10318.33285721 0 160.45691699 0 2885.10410117 0 167.45197394 0 929.52200683 0 24457
0.15050000 0.15050000 10168.87716509 0 217.47511782 0 3242.80408873 0 361.32846962 0 1475.32416779 0 24591
0.15150000 0.15149900 10088.14681154 0 138.36679017 0 2980.71707629 0 353.35884825 0 2111.03916988 0 25020
0.15250000 0.15250500 9929.87844925 0 73.01027463 0 2935.51841970 0 597.76431709 0 2352.25229392 0 25297
0.15350000 0.15350100 10044.17338588 0 12.51432887 0 2715.61756945 0 265.46482799 0 2394.67450978 0 25452
0.15450000 0.15450400 10103.54650304 0 47.12305599 0 2584.04575264 0 72.62674362 0 2309.44789594 0 26061
0.15550000 0.15549900 10099.96073546 0 -3.56579295 0 2578.69520290 0 -63.39828178 0 1914.36150404 0 26128
0.15650000 0.15649500 9980.29276778 0 127.13738009 0 2217.07222823 0 -231.79121059 0 1642.19162789 0 26331
0.15750000 0.15749700 9931.92424768 0 123.36501771 0 2100.24814518 0 -17.96447078 0 1108.01005166 0 27345
0.15850000 0.15849900 9750.32029447 0 78.27843041 0 1595.59913061 0 214.50871009 0 651.11581766 0 26980
0.15950000 0.15949700 9684.74233811 0 90.63021946 0 1568.55412495 0 186.03276960 0 287.61453025 0 27777
0.16050000 0.16050000 9490.84111300 0 113.55642588 0 1206.95363159 0 251.08241538 0 -49.80260232 0 28224
0.16150000 0.16150500 9314.53150628 0 122.43991215 0 1184.06766670 0 -17.62860013 0 -408.95735489 0 28075
0.16250000 0.16249700 9363.70935323 0 79.02188705 0 1144.50057613 0 41.48609447 0 -43.75872923 0 28590
0.16350000 0.16349900 9206.03674543 0 67.25730958 0 1576.81600324 0 -121.01909390 0 173.13524695 0 29163
0.16450000 0.16449100 9314.81252255 0 48.85793803 0 1776.64105129 0 -445.69629774 0 17.87027413 0 28996
0.16550000 0.16550500 9323.54650817 0 155.60320400 0 2300.73639162 0 -602.53822146 0 336.29778857 0 30777
0.16650000 0.16650700 9200.66371438 0 252.99220194 0 2878.70817091 0 -680.02677134 0 284.26032008 0 29211
0.16750000 0.16749900 9114.23435091 0 231.63608961 0 3212.40936916 0 -383.78166945 0 390.19670882 0 30922
0.16850000 0.16850800 8935.67661405 0 141.22303952 0 3194.12083042 0 176.80981567 0 43.58978225 0 30867
0.16950000 0.16949900 8763.54852940 0 153.20782133 0 3091.47120794 0 212.94738371 0 -299.43070230 0 30852
0.17050000 0.17049200 8685.30235966 0 168.37707949 0 2756.99440479 0 245.25188984 0 -888.19463036 0 31257
0.17150000 0.17149500 8426.20536031 0 224.13969964 0 2597.17483270 0 250.07412901 0 -658.28622876 0 32608
0.17250000 0.17250900 8280.81878376 0 160.20962267 0 2189.65628110 0 184.02631344 0 -353.25993052 0 32361
0.17350000 0.17350400 8149.33689216 0 36.21209355 0 2129.01297040 0 396.87140723 0 -385.50935747 0 32508
0.17450000 0.17449800 8166.23159021 0 5.84055219 0 2022.11438195 0 283.91635616 0 203.72442978 0 32791
0.17550000 0.17549800 8164.69162106 0 11.03292351 0 1783.25055392 0 335.11976837 0 -79.22005972 0 33633
0.17650000 0.17650100 8140.83896021 0 34.22497131 0 1671.67585476 0 383.03866244 0 592.33620686 0 33984
0.17750000 0.17750300 8138.69199592 0 27.05051358 0 1355.56627490 0 423.71520524 0 468.41702507 0 34069
