### header ###
fiducial parameters:
Omega_m = 0.31
Omega_nu = 0
Omega_de = 0.69
Omega_k = 0
H_0 = 100
w_de = -1
zeff = 0
beta = 0
fgrowth = 0
b_1 = 2
gamma = 0.55
Lx = 3500 Ly = 3500 Lz = 3500
nx = 700 ny = 700 nz = 700
xoffset = 857.220397 yoffset = 15.9954215 zoffset = 262.898189
bins = 400 dk = 0.001
kx_ny = 0.628318531 ky_ny = 0.628318531 kz_ny = 0.628318531
############################
A(data) = 3.06431379 (not used)
A(ran) = 3.05750705 (used)
Ngal = 186501
weighted Ngal = 0
Nran = 9360983
weighted Nran = 0
SN(data) = 3461.33057
SN(ran) = 68.6601177
SN(data+ran) = 3529.99069
############################
13 columns: k_central k_mean P_0(k) sigma^{lin}_{P_0(k)} P^img_1(k) sigma^{lin}_{P_1(k)} P_2(k) sigma^{lin}_{P_2(k)} P^img_3(k) sigma^{lin}_{P_3(k)} P_4(k) sigma^{lin}_{P_4(k)} N_modes
### header ###
0.00050000 0 0 0 0 0 0 0 0 0 0 0 0
0.00150000 0.00179520 22252.10459358 0 -29825.83024310 0 7916.43060901 0 -67917.13578172 0 -121747.48806736 0 3
0.00250000 0.00253879 38224.61965629 0 -34820.16376939 0 -48372.22951020 0 37088.07746088 0 37608.29477671 0 6
0.00350000 0.00331552 61256.15097155 0 -42494.83046248 0 -40774.44886810 0 -6691.14347608 0 -12582.89683478 0 7
0.00450000 0.00420575 82723.88295712 0 -39472.44429393 0 -72222.97945073 0 9217.87315065 0 2742.25791168 0 24
0.00550000 0.00557378 110604.18137170 0 -20085.80638470 0 -70660.07937310 0 -5693.79425867 0 4044.17256065 0 45
0.00650000 0.00659388 99868.68548456 0 5230.97170548 0 -81531.58713408 0 -33489.15831633 0 38271.04354381 0 40
0.00750000 0.00754703 95387.37525764 0 22162.40420074 0 -21076.22012061 0 -44181.82732419 0 44641.68234559 0 57
0.00850000 0.00846663 74055.76755242 0 23454.29218926 0 -15795.25000068 0 -23668.87621171 0 56285.87243783 0 75
0.00950000 0.00948925 62880.31259567 0 13077.82268646 0 33096.07276027 0 -6903.46812774 0 67695.91977534 0 112
0.01050000 0.01054430 62156.30228209 0 -2636.30353789 0 42312.39470112 0 13195.51229962 0 62017.92987159 0 105
0.01150000 0.01145670 69635.38165246 0 -11497.27478718 0 44065.59899563 0 27974.27025470 0 39316.53646829 0 144
0.01250000 0.01249090 81381.29963381 0 -9404.80517230 0 48042.09159823 0 18295.05831675 0 37239.03940019 0 169
0.01350000 0.01339930 94241.61572863 0 -5836.89898313 0 39091.94826669 0 14631.73024352 0 38595.78594342 0 180
0.01450000 0.01448870 87024.10630077 0 3157.26273667 0 31409.52552459 0 6671.82079748 0 26524.22631040 0 267
0.01550000 0.01550050 88685.36207230 0 2027.40872844 0 23544.89183415 0 3498.94479694 0 23106.05682961 0 238
0.01650000 0.01653350 82053.37814102 0 -1419.76163123 0 14731.32240899 0 9454.69118025 0 16367.62393590 0 315
0.01750000 0.01747870 86291.77790564 0 4644.78301051 0 15752.53552790 0 4491.51673779 0 6504.39130484 0 297
0.01850000 0.01844180 81360.50442996 0 -669.11547167 0 12192.17181537 0 8575.77345894 0 -4097.37456056 0 388
0.01950000 0.01947590 82973.98743588 0 1999.62183984 0 2291.92372145 0 -3176.63037788 0 -18437.92698754 0 399
0.02050000 0.02045430 81983.01166744 0 5027.53840855 0 -639.00626463 0 -2860.14985655 0 -15548.29290412 0 462
0.02150000 0.02154770 80749.91228225 0 4610.02691844 0 5254.39722160 0 -2589.84592842 0 -9443.36060431 0 571
0.02250000 0.02255340 73574.89251415 0 3103.44250097 0 3884.21810074 0 -1119.06073539 0 -9671.11866942 0 510
0.02350000 0.02348930 75339.56227241 0 3757.91814913 0 5600.42941370 0 2537.99280660 0 -2024.58732511 0 555
0.02450000 0.02439640 70034.19994040 0 4990.33185463 0 10946.13444119 0 654.13505644 0 -12426.98900914 0 592
0.02550000 0.02547300 66392.00429054 0 2365.39261462 0 11882.15466821 0 6783.01331451 0 5804.81816594 0 837
0.02650000 0.02652900 65988.01530327 0 -1291.38215923 0 13763.27756804 0 7628.18660232 0 -3334.56152065 0 723
0.02750000 0.02749970 66228.67763542 0 -3882.00369255 0 -30.03119693 0 5456.36923393 0 9882.87004789 0 826
0.02850000 0.02848090 69053.67797713 0 -1400.14669570 0 7417.90774909 0 6926.29788937 0 -9709.44928842 0 831
0.02950000 0.02946900 70123.78792672 0 817.94505955 0 -4829.77039958 0 365.18513688 0 4778.88397373 0 996
0.03050000 0.03053250 66050.85054086 0 3506.09385080 0 -2843.55865607 0 -7217.20593029 0 -4023.55720721 0 1041
0.03150000 0.03150510 65076.17371597 0 5181.76013658 0 1136.13753198 0 -5124.27544874 0 -5321.07676174 0 1036
0.03250000 0.03246190 57148.81719445 0 5559.34483528 0 7657.61462593 0 -9360.59569298 0 -8096.06744835 0 1059
0.03350000 0.03345080 56156.04292189 0 4786.96600160 0 13027.35216468 0 -7573.15237634 0 -11376.66260484 0 1302
0.03450000 0.03451200 48630.42725749 0 4559.48895276 0 15015.82327899 0 -8643.72319261 0 -11186.47079447 0 1339
0.03550000 0.03553350 47883.48601641 0 3739.43851933 0 19223.87328665 0 -4459.68321492 0 -14093.75269953 0 1365
0.03650000 0.03647120 45784.63171192 0 1405.76702107 0 16959.78141641 0 -1114.33741396 0 -9354.98660826 0 1308
0.03750000 0.03744890 44149.34184358 0 811.54013676 0 16618.51526022 0 3754.41106610 0 -14929.49508138 0 1579
0.03850000 0.03847530 44423.61372141 0 -882.59791036 0 12220.83547473 0 7303.24187099 0 -12566.03585868 0 1662
0.03950000 0.03950240 44286.59018900 0 -424.85500722 0 9014.43985372 0 6411.72338021 0 -13494.40120255 0 1683
0.04050000 0.04050350 43901.93512099 0 341.69779718 0 8691.87814034 0 2038.55945397 0 -12129.56139080 0 1822
0.04150000 0.04152450 43952.51804928 0 1739.24340630 0 8008.58146371 0 -2421.86564390 0 -6427.53897579 0 1887
0.04250000 0.04250150 42697.16217564 0 833.63026358 0 14972.32196067 0 -2602.07575642 0 -4753.32273396 0 1920
0.04350000 0.04349210 42916.35486489 0 2703.33153820 0 15657.88924875 0 -2230.94319123 0 2633.13367439 0 2005
0.04450000 0.04448520 42150.64173710 0 1692.36989276 0 20018.69969984 0 282.27072490 0 1287.40296887 0 2151
0.04550000 0.04548030 39797.29910006 0 1713.14261531 0 19027.27430536 0 2561.00241864 0 5264.15410643 0 2274
0.04650000 0.04648670 39688.48960098 0 515.32088837 0 18986.80796273 0 4203.16032459 0 3769.96812671 0 2311
0.04750000 0.04749250 38307.68806519 0 666.44918932 0 18799.20150203 0 3865.77219290 0 3349.74763979 0 2568
0.04850000 0.04851840 38829.36666561 0 -14.84653908 0 18888.90189486 0 3578.86582364 0 4887.63726955 0 2493
0.04950000 0.04949480 38053.76176518 0 642.27392179 0 20141.33519931 0 -354.31542763 0 5537.04338423 0 2644
0.05050000 0.05050630 38536.66012058 0 1204.97527706 0 20727.98476096 0 556.14355963 0 8811.91704950 0 2829
0.05150000 0.05149060 35924.33289070 0 1126.02094633 0 23678.99279737 0 1565.57535251 0 12712.83875723 0 2784
0.05250000 0.05249300 36958.80997747 0 573.28555200 0 21181.99464399 0 5129.13140985 0 13629.40141783 0 3055
0.05350000 0.05348950 35499.66110608 0 -202.52392829 0 19128.21534893 0 5694.46869772 0 12638.20083638 0 3009
0.05450000 0.05448610 36005.82760850 0 -1062.58320986 0 16553.43189249 0 7551.14318221 0 11720.85133022 0 3336
0.05550000 0.05550870 35400.96819266 0 -315.26091073 0 11871.70086303 0 3584.46366770 0 9574.62892355 0 3349
0.05650000 0.05647670 35576.43475057 0 452.59243697 0 7937.56303239 0 4117.76510098 0 6625.56551972 0 3324
0.05750000 0.05747970 34036.35319392 0 916.49634077 0 5305.65458893 0 908.86506298 0 5848.16211516 0 3639
0.05850000 0.05849280 33655.40754065 0 873.98307564 0 5269.53837813 0 -417.02027366 0 3498.39400505 0 3846
0.05950000 0.05951020 33218.70825975 0 578.67656809 0 5667.05275058 0 -2669.18244128 0 4716.19486460 0 3787
0.06050000 0.06049470 32588.78219278 0 644.60298462 0 6282.37721225 0 -897.94814299 0 2614.42923157 0 3930
0.06150000 0.06148310 33067.63391392 0 560.73424139 0 9522.16880659 0 -2078.17150715 0 4950.67483885 0 4083
0.06250000 0.06249100 33720.37850187 0 787.74705136 0 10965.47960110 0 -1077.33543988 0 6436.12683295 0 4303
0.06350000 0.06350600 31734.38033072 0 167.72062549 0 11756.59659954 0 773.42983452 0 3147.74190550 0 4470
0.06450000 0.06451750 32827.08398828 0 217.88652564 0 12892.80157543 0 -628.52773001 0 6679.45319932 0 4479
0.06550000 0.06550280 32267.97402092 0 -258.55632405 0 13472.03230760 0 953.47133728 0 -22.40812483 0 4636
0.06650000 0.06648880 33065.49819028 0 232.22060345 0 13604.44717321 0 -2798.13518647 0 799.60818601 0 4653
0.06750000 0.06749660 32973.54966730 0 -278.13528949 0 14354.08617046 0 -1110.58865694 0 -1757.66683285 0 5220
0.06850000 0.06852730 33016.26414008 0 -67.92095760 0 14895.99794220 0 -1241.12520981 0 -1289.41504535 0 5029
0.06950000 0.06949320 33065.94781631 0 322.61004817 0 13199.33412087 0 566.52767278 0 -4774.67997035 0 5040
0.07050000 0.07048030 33205.33188538 0 113.33610913 0 15300.21174249 0 1216.14848389 0 -2615.26103972 0 5475
0.07150000 0.07148790 33073.59145881 0 327.48624246 0 11124.79334391 0 3149.59661287 0 -2564.75679599 0 5509
0.07250000 0.07249820 32104.75977231 0 359.76939136 0 10088.42782781 0 3957.65327197 0 -602.29092714 0 5916
0.07350000 0.07351270 31796.42872275 0 442.82431148 0 6417.84953486 0 4252.60794715 0 -1379.59878617 0 5721
0.07450000 0.07449140 30886.38563957 0 1133.36109125 0 6897.39817634 0 2750.56475257 0 114.32978265 0 6028
0.07550000 0.07549160 29123.17716591 0 1843.66905160 0 5910.33415436 0 754.38929625 0 2848.62818955 0 6183
0.07650000 0.07648840 27736.53049174 0 1680.91566966 0 5894.88950025 0 -790.09747143 0 3935.74524370 0 6330
0.07750000 0.07749960 26575.25886472 0 1242.78882612 0 8912.61079875 0 -1378.81194062 0 3585.61021408 0 6583
0.07850000 0.07848650 26003.89658806 0 807.95099698 0 8728.15172025 0 -986.07372066 0 3030.89534115 0 6549
0.07950000 0.07947320 25690.39483917 0 288.47893630 0 11264.93053657 0 -618.11214305 0 4035.22500266 0 6828
0.08050000 0.08048110 24987.96657499 0 627.48459763 0 10719.03957447 0 -1316.70734533 0 1448.27916213 0 7147
0.08150000 0.08149960 24818.23274896 0 608.96450148 0 10677.56157327 0 -879.43703937 0 125.98858559 0 7386
0.08250000 0.08250610 23928.98486963 0 209.92477273 0 9683.61827304 0 -56.27643029 0 -2002.08354235 0 7227
0.08350000 0.08350160 23879.63841292 0 276.04677659 0 8951.67206004 0 -423.38697824 0 -4009.18041492 0 7798
0.08450000 0.08449610 23721.03283110 0 164.64068719 0 7993.40658522 0 -667.15285406 0 -6071.90726796 0 7371
0.08550000 0.08548940 23321.76491714 0 298.66184179 0 8285.47241316 0 -704.34929139 0 -7585.34848238 0 8256
0.08650000 0.08650700 23103.80869946 0 452.05400980 0 6852.27820431 0 38.45033192 0 -7194.05018979 0 8037
0.08750000 0.08749060 22874.04979852 0 250.92617033 0 8347.03745722 0 526.56940756 0 -5880.20921040 0 8155
0.08850000 0.08849210 22525.36481285 0 107.33652420 0 7406.20623168 0 1826.96544461 0 -4890.23385987 0 8718
0.08950000 0.08949900 22799.97391021 0 19.64933192 0 7354.19574075 0 2451.83321875 0 -2931.21325047 0 8571
0.09050000 0.09049190 22380.81004445 0 356.44215874 0 6716.30005242 0 1755.20513034 0 -1870.99507352 0 8932
0.09150000 0.09150830 22029.09008307 0 788.39676097 0 6653.73459045 0 715.97999270 0 -961.69724549 0 9285
0.09250000 0.09250820 21128.82636603 0 1194.31914017 0 7189.08182216 0 -145.48437022 0 -56.66614365 0 9204
0.09350000 0.09350330 20184.27448510 0 1286.87465829 0 7238.68681384 0 -715.62029188 0 414.64737229 0 9349
0.09450000 0.09448040 19106.97051905 0 913.70753532 0 7315.13447946 0 -795.29402426 0 -670.89374262 0 9564
0.09550000 0.09549270 18553.81809657 0 786.43301929 0 7812.29722064 0 217.67182921 0 -461.57371690 0 10155
0.09650000 0.09649430 18149.94151581 0 510.47841604 0 7318.87761615 0 112.58860585 0 -1496.22053750 0 9913
0.09750000 0.09749140 17481.68482985 0 376.06046647 0 7521.24305126 0 327.28166262 0 -1210.95530325 0 10476
0.09850000 0.09850240 17497.53414738 0 490.76006652 0 8004.34373838 0 272.99381585 0 -1000.70792385 0 10575
0.09950000 0.09950330 17124.34454311 0 159.07319288 0 7356.46635220 0 369.78930742 0 -151.78025869 0 10882
0.10050000 0.10051200 16850.18507178 0 -15.13148958 0 8375.63367268 0 581.56429126 0 1312.21108503 0 10875
0.10150000 0.10150300 17292.61708456 0 -125.91102510 0 7841.00584261 0 1155.47145124 0 1626.03881279 0 11118
0.10250000 0.10250800 17163.68682067 0 -141.23877643 0 8019.72094858 0 1066.57588900 0 1982.76086374 0 11575
0.10350000 0.10349800 17347.35905362 0 204.94404039 0 7607.69489604 0 803.67055718 0 1981.34454175 0 11364
0.10450000 0.10450100 17070.61423262 0 253.05177739 0 7139.66792155 0 262.65241718 0 2201.22291070 0 12093
0.10550000 0.10551000 16677.41627005 0 389.38063758 0 6628.74662387 0 1010.25348445 0 1118.45936058 0 12067
0.10650000 0.10649700 16268.03177043 0 343.21303690 0 5869.96897758 0 460.53508077 0 923.73531984 0 12054
0.10750000 0.10749900 16061.99064253 0 314.55612193 0 5466.95792692 0 424.96628967 0 -276.99661157 0 12807
0.10850000 0.10850100 15695.88264822 0 272.63186689 0 5504.89512314 0 -493.98500922 0 307.67684368 0 12736
0.10950000 0.10950300 15715.44138049 0 201.58645801 0 5904.29792491 0 -794.54202472 0 78.73862265 0 12933
0.11050000 0.11050200 15976.44929047 0 -213.13060632 0 6075.84149572 0 -625.08247056 0 489.10319461 0 13428
0.11150000 0.11150900 16070.98316311 0 -233.72123032 0 7161.07012054 0 -92.20638351 0 871.65401280 0 13453
0.11250000 0.11250000 16503.18618372 0 -58.01142473 0 6982.20888611 0 287.28293106 0 1289.58365511 0 13668
0.11350000 0.11349100 16404.26845729 0 189.01041798 0 7401.99098766 0 666.69086331 0 734.75075536 0 13791
0.11450000 0.11448600 16114.37207493 0 453.18032300 0 7191.25126775 0 391.46353016 0 889.45583137 0 14205
0.11550000 0.11549300 15839.87538408 0 305.64678216 0 6422.13222279 0 426.21849816 0 592.92634102 0 14776
0.11650000 0.11649800 15214.55798392 0 167.34406369 0 6127.30119476 0 392.61682093 0 149.28258610 0 14553
0.11750000 0.11747300 15536.71503387 0 -161.07740091 0 5642.49192874 0 580.84264148 0 783.91061726 0 14568
0.11850000 0.11849100 15209.83691061 0 -30.14124290 0 5214.79640907 0 1033.39348804 0 -84.55610903 0 16015
0.11950000 0.11950300 15392.94711102 0 154.47351861 0 4616.20927635 0 195.82899671 0 -279.05477472 0 15270
0.12050000 0.12050700 15064.94492269 0 341.26952839 0 4926.05781375 0 86.83234080 0 713.20467604 0 15999
0.12150000 0.12150000 14620.93921881 0 696.01996920 0 5037.50886574 0 465.65407312 0 437.44790824 0 15670
0.12250000 0.12250700 14015.85498997 0 545.55374258 0 4987.35308218 0 48.23801614 0 1495.91703993 0 16887
0.12350000 0.12352200 13785.08443046 0 304.96110246 0 5093.85824786 0 134.26395266 0 981.55160687 0 16407
0.12450000 0.12449800 13669.98016697 0 107.45859767 0 5073.67003915 0 206.30191100 0 947.91957988 0 16306
0.12550000 0.12549900 13580.39218065 0 86.71858541 0 4663.85839480 0 126.09312364 0 477.55679818 0 17523
0.12650000 0.12650100 13450.11303867 0 -4.82037322 0 3921.03123189 0 -32.06856488 0 357.98662416 0 17154
0.12750000 0.12750600 13489.79253576 0 141.73111694 0 4275.53887464 0 226.05398246 0 -254.72663435 0 18007
0.12850000 0.12850300 13120.08753321 0 260.01311238 0 3630.34800399 0 161.29884173 0 -560.97254319 0 17496
0.12950000 0.12949900 13183.93442936 0 191.03148698 0 3693.80147736 0 305.71310200 0 41.88435072 0 18405
0.13050000 0.13049000 12830.86558990 0 58.41822388 0 3502.29451086 0 509.12953795 0 -203.74466295 0 18100
0.13150000 0.13148800 13042.18982365 0 -104.58436328 0 3435.72737723 0 721.51376506 0 563.19931610 0 19059
0.13250000 0.13249300 12925.51186906 0 43.02100532 0 3228.07883628 0 472.22535753 0 -239.74959131 0 18957
0.13350000 0.13349100 12739.81631898 0 284.09620658 0 2962.09131803 0 232.08234345 0 592.51605727 0 19468
0.13450000 0.13450700 12722.16849734 0 426.49501817 0 3349.62399263 0 -277.66767842 0 624.14612436 0 19953
0.13550000 0.13551000 12250.96041869 0 355.94532198 0 3151.20402593 0 31.82037131 0 816.21062714 0 19956
0.13650000 0.13649900 12204.98615720 0 352.53378449 0 3711.64039007 0 -343.70425334 0 1450.70714269 0 19723
0.13750000 0.13749600 11837.30447179 0 81.18234012 0 3426.79105990 0 104.46161537 0 712.26495763 0 20946
0.13850000 0.13851100 12061.33064086 0 71.13331077 0 3670.84806857 0 128.04337654 0 1502.90872469 0 20955
0.13950000 0.13949800 11978.14982545 0 -2.43460130 0 4100.83668098 0 250.17417080 0 1196.54478901 0 20506
0.14050000 0.14048300 11932.73759650 0 -49.94266082 0 3507.84739232 0 413.78296625 0 1519.73597883 0 21447
0.14150000 0.14148400 11986.24309398 0 -34.71742422 0 3652.57077048 0 441.20902997 0 1039.25436333 0 21771
0.14250000 0.14249400 11914.75255533 0 65.15665678 0 2799.37165805 0 225.58861952 0 834.18330359 0 22470
0.14350000 0.14350900 11736.36342823 0 161.79230630 0 2962.76575707 0 169.53823872 0 775.03724758 0 22519
0.14450000 0.14449900 11653.29501933 0 134.75404503 0 2308.00909264 0 102.61050501 0 573.94987445 0 22218
0.14550000 0.14550500 11413.64434574 0 298.34597951 0 2699.45351370 0 -270.36125545 0 281.59853398 0 23559
0.14650000 0.14650700 11267.51588624 0 360.81364781 0 2807.92579325 0 -282.43259027 0 -101.47845908 0 23044
0.14750000 0.14750500 10944.00995820 0 293.34726213 0 3216.59089123 0 -163.64588960 0 334.96689552 0 23649
0.14850000 0.14849900 10740.75651168 0 333.74953305 0 3318.41994620 0 -415.72984696 0 -187.04892442 0 23640
0.14950000 0.14949500 10613.97321209 0 162.48473038 0 3577.19096668 0 -115.63707033 0 -186.39584262 0 24457
0.15050000 0.15050000 10477.07332683 0 54.16588571 0 3495.88733994 0 -195.74131963 0 -463.27667549 0 24591
0.15150000 0.15149900 10587.46775766 0 118.06167869 0 3402.29768195 0 1.68475997 0 -435.41897078 0 25020
0.15250000 0.15250500 10408.69644844 0 102.61938512 0 3403.86013241 0 118.93620132 0 -534.99315122 0 25297
0.15350000 0.15350100 10272.01013555 0 125.22871760 0 3316.63268273 0 278.13191730 0 -567.31901459 0 25452
0.15450000 0.15450400 10139.68519514 0 120.14119908 0 2860.31846631 0 364.75574403 0 -814.50879262 0 26061
0.15550000 0.15549900 9997.62585121 0 159.81395177 0 2904.04459765 0 441.68563356 0 -685.91462419 0 26128
0.15650000 0.15649500 9869.31382311 0 147.86738817 0 2604.82971584 0 282.25723612 0 -649.27459907 0 26331
0.15750000 0.15749700 9707.62830300 0 234.62497864 0 2581.59529078 0 32.84844122 0 -857.02542994 0 27345
0.15850000 0.15849900 9485.64793236 0 157.75354049 0 2683.23325469 0 41.14055686 0 -786.66457669 0 26980
0.15950000 0.15949700 9388.21397183 0 172.51701116 0 2590.39672031 0 -177.48425472 0 -833.57855658 0 27777
0.16050000 0.16050000 9267.00603499 0 144.82566808 0 2497.91988674 0 -80.74103217 0 -965.08967388 0 28224
0.16150000 0.16150500 9183.69033177 0 80.41673939 0 2569.50035060 0 61.20747895 0 -1103.49693039 0 28075
0.16250000 0.16249700 9098.73349355 0 36.47546200 0 2209.92317436 0 144.79869052 0 -1287.96500141 0 28590
0.16350000 0.16349900 9112.16607117 0 46.23133517 0 2400.90183028 0 60.35318950 0 -891.47465224 0 29163
0.16450000 0.16449100 9095.50742679 0 12.91685657 0 2240.58766956 0 63.59802814 0 -999.39389178 0 28996
0.16550000 0.16550500 9153.09328049 0 8.85659864 0 2667.57502823 0 -37.70181699 0 -452.62053859 0 30777
0.16650000 0.16650700 9183.04961468 0 89.43994696 0 2769.50524905 0 -12.50657282 0 -257.60986126 0 29211
0.16750000 0.16749900 9123.18190889 0 101.04063573 0 3061.78464936 0 21.66871482 0 -22.99342551 0 30922
0.16850000 0.16850800 9069.63144881 0 115.46396431 0 3134.01707096 0 91.39379687 0 424.06141728 0 30867
0.16950000 0.16949900 9087.43663957 0 67.63454582 0 3278.11097268 0 288.97352493 0 852.19307419 0 30852
0.17050000 0.17049200 8943.28653459 0 57.69668651 0 3131.44296194 0 684.15096609 0 891.34763289 0 31257
0.17150000 0.17149500 8870.59324631 0 -5.16591082 0 2841.81635521 0 439.00586243 0 762.72873503 0 32608
0.17250000 0.17250900 8859.38631754 0 80.85388830 0 2380.08414513 0 399.18360908 0 705.69254915 0 32361
0.17350000 0.17350400 8765.84162215 0 38.38243839 0 2211.03599879 0 414.04150122 0 719.56351215 0 32508
0.17450000 0.17449800 8677.95097409 0 59.26340841 0 1845.49003701 0 101.95517507 0 576.25758005 0 32791
0.17550000 0.17549800 8659.86476706 0 91.75619545 0 1901.81693783 0 3.44764247 0 328.53274704 0 33633
0.17650000 0.17650100 8574.26721174 0 93.64203942 0 1699.81120354 0 -34.02376367 0 544.42180905 0 33984
0.17750000 0.17750300 8448.63045852 0 276.33341318 0 1910.67457060 0 -314.89221738 0 463.93762575 0 34069
