### header ###
fiducial parameters:
Omega_m = 0.31
Omega_nu = 0
Omega_de = 0.69
Omega_k = 0
H_0 = 100
w_de = -1
zeff = 0
beta = 0
fgrowth = 0
b_1 = 2
gamma = 0.55
Lx = 3500 Ly = 3500 Lz = 3500
nx = 700 ny = 700 nz = 700
xoffset = 857.220397 yoffset = 15.9954215 zoffset = 262.898189
bins = 400 dk = 0.001
kx_ny = 0.628318531 ky_ny = 0.628318531 kz_ny = 0.628318531
############################
A(data) = 3.07046378 (not used)
A(ran) = 3.07177511 (used)
Ngal = 187053
weighted Ngal = 0
Nran = 9360983
weighted Nran = 0
SN(data) = 3443.90166
SN(ran) = 68.9805246
SN(data+ran) = 3512.88219
############################
13 columns: k_central k_mean P_0(k) sigma^{lin}_{P_0(k)} P^img_1(k) sigma^{lin}_{P_1(k)} P_2(k) sigma^{lin}_{P_2(k)} P^img_3(k) sigma^{lin}_{P_3(k)} P_4(k) sigma^{lin}_{P_4(k)} N_modes
### header ###
0.00050000 0 0 0 0 0 0 0 0 0 0 0 0
0.00150000 0.00179520 220.47412344 0 -4543.86444824 0 4102.99488592 0 -18483.00199697 0 -6551.54583465 0 3
0.00250000 0.00253879 8278.01986173 0 -12346.95557594 0 -12986.32378951 0 20377.27645816 0 32706.24699292 0 6
0.00350000 0.00331552 13656.49138610 0 -16157.19895422 0 -4771.71243856 0 -20035.56067593 0 -20509.91613678 0 7
0.00450000 0.00420575 27104.24388812 0 -19813.44541749 0 -21549.33910988 0 1157.57345293 0 9971.40141305 0 24
0.00550000 0.00557378 51263.32487821 0 -32493.57388109 0 -45371.08817153 0 16022.42355195 0 18335.97428541 0 45
0.00650000 0.00659388 74423.56164434 0 -27078.16557842 0 -54650.58256948 0 -2183.46268254 0 -19292.66606912 0 40
0.00750000 0.00754703 99021.92726500 0 -30382.24245429 0 -60362.06961241 0 -14866.77225030 0 -18040.56998420 0 57
0.00850000 0.00846663 113397.93270438 0 -13255.53737452 0 -60504.71347018 0 -28082.40531473 0 -16994.62743368 0 75
0.00950000 0.00948925 121056.18804741 0 10399.71516850 0 -41139.54520385 0 -61561.89667143 0 -18849.89683683 0 112
0.01050000 0.01054430 101497.45577548 0 19593.12866316 0 -14544.50279384 0 -56637.47999269 0 -8628.17737265 0 105
0.01150000 0.01145670 89748.72763145 0 22779.06629985 0 14181.76699475 0 -44988.45642065 0 -637.10209839 0 144
0.01250000 0.01249090 79309.76011060 0 9890.44624649 0 19836.60115799 0 -9805.02854158 0 -14588.11651868 0 169
0.01350000 0.01339930 69064.69381485 0 2634.20153620 0 26468.02305674 0 13780.58817017 0 -15184.88266599 0 180
0.01450000 0.01448870 69038.72791166 0 -1566.32847611 0 19205.32621294 0 17457.40502427 0 -27980.78983212 0 267
0.01550000 0.01550050 59347.03885140 0 166.83036595 0 3682.58330793 0 16592.99898306 0 -28839.12592194 0 238
0.01650000 0.01653350 60998.51525680 0 -914.41007599 0 -17357.13841975 0 14618.57868216 0 -14570.58110354 0 315
0.01750000 0.01747870 55967.08758310 0 -110.04023792 0 -25342.27188603 0 3933.04748752 0 -14611.15985268 0 297
0.01850000 0.01844180 58635.39325362 0 -4242.31151108 0 -39176.25314717 0 783.41602863 0 -10616.78337477 0 388
0.01950000 0.01947590 60843.39427671 0 -4718.67904841 0 -33531.53556959 0 -6111.36195203 0 -7885.12539673 0 399
0.02050000 0.02045430 66117.17038017 0 -2737.46939447 0 -28816.75702698 0 -14066.88754428 0 -2319.06989296 0 462
0.02150000 0.02154770 69542.75869044 0 -1406.56510727 0 -10860.27835091 0 -19408.33236514 0 11918.01234404 0 571
0.02250000 0.02255340 74391.63819627 0 -950.49593703 0 3202.97846319 0 -9950.58372790 0 4784.20080152 0 510
0.02350000 0.02348930 78346.43634295 0 -1523.34422771 0 16237.79441996 0 -5340.19710863 0 22650.13603596 0 555
0.02450000 0.02439640 81439.30139158 0 107.39992147 0 15601.23636906 0 8394.02337727 0 11965.33548362 0 592
0.02550000 0.02547300 80215.30693348 0 204.97551421 0 20451.35234647 0 8411.91849324 0 15645.41212644 0 837
0.02650000 0.02652900 77610.06131356 0 2985.98894148 0 9680.85307296 0 5659.99362193 0 -598.56802362 0 723
0.02750000 0.02749970 73627.61116608 0 4642.35502995 0 15548.63012364 0 5349.78538370 0 3937.73483887 0 826
0.02850000 0.02848090 68915.75519266 0 5682.14894452 0 1239.66392522 0 -3373.88131691 0 -8615.22814301 0 831
0.02950000 0.02946900 62023.99982298 0 5119.07102745 0 5918.44990418 0 -1172.52351840 0 -1657.07424946 0 996
0.03050000 0.03053250 59446.96823640 0 3385.11072699 0 511.14161443 0 -3079.12897344 0 -3697.94927748 0 1041
0.03150000 0.03150510 55805.55943209 0 129.66315431 0 1679.79160459 0 5764.46422982 0 -6435.26130284 0 1036
0.03250000 0.03246190 56886.46040639 0 -853.37559065 0 2330.70396647 0 2785.38828854 0 -410.02634078 0 1059
0.03350000 0.03345080 57379.58775395 0 -1774.98867563 0 4396.90418059 0 -572.79321149 0 -1397.49390213 0 1302
0.03450000 0.03451200 58410.69264551 0 -299.56109385 0 8825.16977671 0 -4765.63124651 0 -1164.02558645 0 1339
0.03550000 0.03553350 60021.92752129 0 -1030.46979479 0 13789.69309726 0 -8816.23345938 0 -6661.22086384 0 1365
0.03650000 0.03647120 59138.63718685 0 1130.34859686 0 13155.04595699 0 -9065.31503893 0 -7927.80614755 0 1308
0.03750000 0.03744890 60973.89823170 0 1977.89366197 0 20441.79779335 0 -10484.82937584 0 -13722.69881890 0 1579
0.03850000 0.03847530 57080.81125752 0 2775.01316791 0 21577.77795623 0 -7481.69844199 0 -13761.02943789 0 1662
0.03950000 0.03950240 56872.29718646 0 2826.46162631 0 21977.38308971 0 229.08558596 0 -11113.40656472 0 1683
0.04050000 0.04050350 54352.14329258 0 2605.97626222 0 20830.94912166 0 4583.34161361 0 -17330.61048403 0 1822
0.04150000 0.04152450 52200.90755568 0 2663.96677934 0 18630.81655408 0 6822.65908963 0 -7313.62823226 0 1887
0.04250000 0.04250150 48772.28426971 0 2380.97215654 0 17989.42502337 0 4385.14645992 0 -11426.68350059 0 1920
0.04350000 0.04349210 46457.27225166 0 2862.47667125 0 21159.51334253 0 3027.20840771 0 -3879.05864206 0 2005
0.04450000 0.04448520 45187.19112557 0 1550.19814231 0 17590.15710941 0 2291.37292956 0 -3797.05809498 0 2151
0.04550000 0.04548030 41867.93937122 0 1466.35412851 0 18223.79259111 0 3038.19052348 0 -3246.59218803 0 2274
0.04650000 0.04648670 42577.78646488 0 218.37886614 0 13672.79032966 0 2672.23989828 0 -5397.72675907 0 2311
0.04750000 0.04749250 40215.33890075 0 499.95379476 0 13058.26395419 0 2762.60348950 0 -6982.42245847 0 2568
0.04850000 0.04851840 39786.39566885 0 671.01289352 0 8123.75317110 0 2335.86342515 0 -8887.56662892 0 2493
0.04950000 0.04949480 38992.58091423 0 991.19833333 0 9259.73333397 0 -684.25213195 0 -8079.13902834 0 2644
0.05050000 0.05050630 38412.00130397 0 811.05678878 0 6458.30463684 0 -314.69775413 0 -6343.41394572 0 2829
0.05150000 0.05149060 37347.06205372 0 1449.43694916 0 10115.20305785 0 -1805.23726675 0 -4463.29146380 0 2784
0.05250000 0.05249300 37163.83944680 0 898.50343114 0 7727.40782632 0 -1256.83963953 0 -3595.54694932 0 3055
0.05350000 0.05348950 36573.59287692 0 1174.88405505 0 9354.75055460 0 -548.21328054 0 -5023.88519706 0 3009
0.05450000 0.05448610 36266.83551847 0 358.10352692 0 9066.13560643 0 562.91717576 0 -3142.99835089 0 3336
0.05550000 0.05550870 35961.31463160 0 -643.11247434 0 10643.35627310 0 1633.10918210 0 -2740.50437017 0 3349
0.05650000 0.05647670 36521.66107054 0 -430.95418431 0 8678.17578710 0 2043.61774680 0 -2776.03606713 0 3324
0.05750000 0.05747970 36774.35089897 0 -573.57668485 0 7390.95266864 0 2652.28774323 0 -3442.48300832 0 3639
0.05850000 0.05849280 36554.48377068 0 -755.74267060 0 9354.43581638 0 3570.12059737 0 708.08343556 0 3846
0.05950000 0.05951020 37543.88584802 0 212.15042157 0 7626.02839738 0 1272.18312778 0 1897.37688079 0 3787
0.06050000 0.06049470 37324.13112623 0 422.09205527 0 11106.79706209 0 3175.30398109 0 5681.93537215 0 3930
0.06150000 0.06148310 35974.80341248 0 2134.83562748 0 9786.48146788 0 -528.99401592 0 7378.32941787 0 4083
0.06250000 0.06249100 34866.58765691 0 2162.22909331 0 9675.90718663 0 2.79390870 0 6529.37927141 0 4303
0.06350000 0.06350600 33225.11543066 0 1177.12094455 0 10988.16323427 0 1192.56559865 0 10349.15472152 0 4470
0.06450000 0.06451750 32322.04155094 0 440.32776295 0 8897.36847636 0 1704.07141017 0 7193.48815725 0 4479
0.06550000 0.06550280 32588.89459929 0 -208.05095625 0 7520.56861222 0 557.21928991 0 4736.37183266 0 4636
0.06650000 0.06648880 32159.50174137 0 -87.73226730 0 7426.79910382 0 -840.11049872 0 1664.42563504 0 4653
0.06750000 0.06749660 32429.38976542 0 692.54323593 0 7692.76414077 0 -1915.66541953 0 27.05669594 0 5220
0.06850000 0.06852730 31786.76176313 0 1163.36238805 0 8561.73388618 0 -2714.74079869 0 -1386.88272784 0 5029
0.06950000 0.06949320 30332.89599758 0 1664.27950658 0 8208.51891826 0 -2185.51972163 0 -3538.03978018 0 5040
0.07050000 0.07048030 29333.60214759 0 1578.78311712 0 9881.80218607 0 -846.76271583 0 -4131.14147535 0 5475
0.07150000 0.07148790 28032.38441897 0 1170.44399802 0 7599.93884703 0 959.88075633 0 -7176.53725595 0 5509
0.07250000 0.07249820 27567.92073077 0 406.39111433 0 8326.95041436 0 2518.51275888 0 -5816.82318092 0 5916
0.07350000 0.07351270 26113.26811967 0 318.01149796 0 4531.44352918 0 1595.35183630 0 -6339.65956837 0 5721
0.07450000 0.07449140 26911.80394760 0 5.34358054 0 5455.21144691 0 1994.78836002 0 -5562.94184351 0 6028
0.07550000 0.07549160 25986.02395340 0 369.11037212 0 4991.11870018 0 469.89404657 0 -4613.45531692 0 6183
0.07650000 0.07648840 26775.45485424 0 228.40440253 0 5303.67623440 0 -391.96373912 0 -3106.33134821 0 6330
0.07750000 0.07749960 25813.14274516 0 295.73590041 0 7062.14115346 0 -960.93850156 0 -1540.41877618 0 6583
0.07850000 0.07848650 26376.63656630 0 626.19192279 0 7943.40817077 0 -1648.36274514 0 -558.58165678 0 6549
0.07950000 0.07947320 25911.49843905 0 335.13325715 0 10662.65647040 0 -110.75188352 0 168.06458940 0 6828
0.08050000 0.08048110 25764.24591448 0 523.16461445 0 10205.73525884 0 -399.43764779 0 -1144.54553873 0 7147
0.08150000 0.08149960 25773.91287410 0 95.90826701 0 10008.09089704 0 -182.01198883 0 -1366.95305409 0 7386
0.08250000 0.08250610 25450.51935257 0 192.84572801 0 9365.08071262 0 559.70234965 0 -3089.68394448 0 7227
0.08350000 0.08350160 25452.76748272 0 202.85665155 0 8219.25373971 0 775.49699019 0 -3276.12137750 0 7798
0.08450000 0.08449610 24464.15225093 0 451.96633272 0 6845.35396346 0 909.08537974 0 -3169.14410449 0 7371
0.08550000 0.08548940 24525.97582995 0 649.82426689 0 7051.81099544 0 1282.07490042 0 -3703.51339959 0 8256
0.08650000 0.08650700 23192.04780770 0 949.74056530 0 6383.10468345 0 944.74746825 0 -3102.05990093 0 8037
0.08750000 0.08749060 23033.55463240 0 870.77386985 0 6416.25336246 0 1024.97424065 0 -1739.98528925 0 8155
0.08850000 0.08849210 21608.12771320 0 768.99202561 0 6798.18819299 0 549.07881065 0 402.04997502 0 8718
0.08950000 0.08949900 21567.43655755 0 606.51516369 0 7455.51896644 0 449.86882730 0 -560.56338350 0 8571
0.09050000 0.09049190 20780.36619337 0 318.45213147 0 6981.78174138 0 431.70730791 0 457.47537565 0 8932
0.09150000 0.09150830 20793.29294171 0 167.59248207 0 7700.86864995 0 366.37889399 0 624.29562501 0 9285
0.09250000 0.09250820 20764.29206282 0 103.32248783 0 7186.88989527 0 -350.63186638 0 119.88491224 0 9204
0.09350000 0.09350330 20738.43856614 0 141.01171529 0 7191.57724663 0 279.90569198 0 591.56959448 0 9349
0.09450000 0.09448040 20503.17174634 0 362.66610705 0 6840.34063323 0 -35.53461953 0 -503.35071941 0 9564
0.09550000 0.09549270 20298.02987050 0 -34.38874759 0 5486.40425269 0 1013.05240648 0 -298.75064293 0 10155
0.09650000 0.09649430 20014.99028510 0 272.49023470 0 6588.04422758 0 181.39600117 0 -1276.91544174 0 9913
0.09750000 0.09749140 19929.67374605 0 212.49888174 0 4017.90315989 0 505.28523540 0 -1660.23287232 0 10476
0.09850000 0.09850240 19013.78552449 0 457.55855646 0 5267.17784148 0 12.08257547 0 -2245.76960954 0 10575
0.09950000 0.09950330 19180.70918784 0 511.50805964 0 4456.76064573 0 -666.24236135 0 -1768.95244619 0 10882
0.10050000 0.10051200 18333.50134225 0 318.10367130 0 5517.58581781 0 -53.42883624 0 -2050.40709984 0 10875
0.10150000 0.10150300 18480.52905381 0 111.22163032 0 4883.77048570 0 218.10459426 0 -1478.96613863 0 11118
0.10250000 0.10250800 18405.66631994 0 61.11384433 0 5496.26230338 0 460.98358274 0 -1146.11922983 0 11575
0.10350000 0.10349800 18436.01607691 0 137.34613909 0 5489.09076821 0 979.58674112 0 -691.39444142 0 11364
0.10450000 0.10450100 18132.51850718 0 277.13037532 0 5191.68563117 0 473.64280359 0 -194.01587975 0 12093
0.10550000 0.10551000 18005.04952789 0 462.12226066 0 5158.41330501 0 304.62837920 0 -256.38350626 0 12067
0.10650000 0.10649700 17572.84650728 0 441.73734056 0 5535.45845248 0 -324.23432221 0 38.34714275 0 12054
0.10750000 0.10749900 17350.39402931 0 375.00496936 0 5330.08052297 0 -817.44934685 0 -1033.30693503 0 12807
0.10850000 0.10850100 17036.66746741 0 292.62336422 0 5990.82845424 0 -873.18836163 0 -433.43387186 0 12736
0.10950000 0.10950300 16985.52250659 0 104.56334326 0 5580.60090581 0 65.32436728 0 -1215.97987413 0 12933
0.11050000 0.11050200 16747.78274363 0 -108.39528110 0 4762.98969359 0 592.04394994 0 -1546.43252432 0 13428
0.11150000 0.11150900 16860.18925094 0 107.67408095 0 4469.88972578 0 1313.35763141 0 -386.90769442 0 13453
0.11250000 0.11250000 16559.83906340 0 132.88247668 0 3545.13263079 0 1559.11197834 0 -1275.04949372 0 13668
0.11350000 0.11349100 16190.80849991 0 620.40411173 0 3499.18085061 0 1076.43169156 0 -68.17814369 0 13791
0.11450000 0.11448600 15583.58854742 0 586.49444067 0 2748.99106147 0 454.85517996 0 -1227.15308095 0 14205
0.11550000 0.11549300 15038.07976744 0 422.63497870 0 2883.89011089 0 45.28700810 0 64.23953208 0 14776
0.11650000 0.11649800 14980.07800967 0 109.05623136 0 2815.55819510 0 -499.20853961 0 -680.67310875 0 14553
0.11750000 0.11747300 14578.56196556 0 -221.23286736 0 3238.88110163 0 -283.65782120 0 -1039.68038400 0 14568
0.11850000 0.11849100 15344.16268685 0 -160.49625927 0 3320.08356251 0 -585.48165804 0 -1814.67941336 0 16015
0.11950000 0.11950300 15207.25156094 0 98.56578166 0 3765.55055098 0 -468.15174571 0 -1996.13723811 0 15270
0.12050000 0.12050700 15067.19305284 0 473.02794000 0 3752.72496849 0 -403.54835376 0 -1285.57074280 0 15999
0.12150000 0.12150000 14851.03533928 0 464.91219017 0 4251.55132598 0 512.73329057 0 -476.69801246 0 15670
0.12250000 0.12250700 14398.26192783 0 268.32220140 0 4496.48510541 0 813.91079000 0 3.32402903 0 16887
0.12350000 0.12352200 14237.74543540 0 364.33309556 0 4392.28427313 0 808.33317911 0 156.50920045 0 16407
0.12450000 0.12449800 13976.73752542 0 273.65251798 0 4383.49408426 0 418.32756134 0 1325.69986591 0 16306
0.12550000 0.12549900 13804.75556924 0 327.38507661 0 4094.63184178 0 41.10301309 0 1569.86928109 0 17523
0.12650000 0.12650100 13583.53956285 0 1.07482540 0 4166.80806012 0 304.68570652 0 2413.50259975 0 17154
0.12750000 0.12750600 13664.35984161 0 -70.52541638 0 3831.64557728 0 450.68602260 0 1666.11173265 0 18007
0.12850000 0.12850300 13637.60709287 0 -33.48320077 0 3647.84969717 0 181.98950753 0 1333.19737995 0 17496
0.12950000 0.12949900 13654.46806896 0 82.39205895 0 3735.74034524 0 201.69549233 0 1257.95246396 0 18405
0.13050000 0.13049000 13316.12448196 0 301.61026448 0 3703.99674757 0 -13.57241132 0 395.30446052 0 18100
0.13150000 0.13148800 13073.10161316 0 294.79843014 0 3633.01203821 0 -268.46383360 0 876.11205488 0 19059
0.13250000 0.13249300 12822.88472789 0 255.52921681 0 3709.26861277 0 -186.42282018 0 -455.19914387 0 18957
0.13350000 0.13349100 12897.07302271 0 149.68275326 0 3739.52844454 0 -87.21261201 0 243.84006411 0 19468
0.13450000 0.13450700 12671.81038206 0 26.54771927 0 3317.94783887 0 -27.97235934 0 -897.29056493 0 19953
0.13550000 0.13551000 12694.74130955 0 53.75841212 0 3788.82993864 0 187.17931597 0 -285.07077099 0 19956
0.13650000 0.13649900 12621.11504726 0 150.56289622 0 3428.44343556 0 169.14706407 0 -587.88940543 0 19723
0.13750000 0.13749600 12563.22569600 0 193.87537161 0 3894.94168154 0 -28.60149857 0 -992.62589597 0 20946
0.13850000 0.13851100 12439.01650542 0 236.57523154 0 3659.79850890 0 -129.42035626 0 150.34145540 0 20955
0.13950000 0.13949800 12221.62232028 0 177.28866739 0 3971.24321870 0 -122.70631557 0 -389.09737318 0 20506
0.14050000 0.14048300 12200.15267739 0 139.25704971 0 3649.72688585 0 284.78188627 0 523.61424048 0 21447
0.14150000 0.14148400 12062.00507990 0 186.97923239 0 3661.95671384 0 365.01652712 0 -11.58101764 0 21771
0.14250000 0.14249400 11751.87552624 0 267.81187586 0 3047.44157903 0 373.24018720 0 180.45965497 0 22470
0.14350000 0.14350900 11572.47474057 0 322.52686736 0 2903.81978464 0 621.71814380 0 -109.06646035 0 22519
0.14450000 0.14449900 11099.13093829 0 393.73751381 0 2460.91566454 0 4.59167094 0 -389.77068816 0 22218
0.14550000 0.14550500 10873.67720658 0 286.54779250 0 1952.66964173 0 292.15800128 0 -425.97570010 0 23559
0.14650000 0.14650700 10570.04474903 0 227.55573340 0 2357.76021278 0 -138.89847295 0 -918.18805870 0 23044
0.14750000 0.14750500 10428.17649616 0 151.96460536 0 2031.34295620 0 -93.50895011 0 -627.01249030 0 23649
0.14850000 0.14849900 10432.70647840 0 143.01704738 0 2480.85657893 0 -76.57906883 0 -1179.26790884 0 23640
0.14950000 0.14949500 10307.38446340 0 173.69840355 0 2510.65554402 0 -57.13735173 0 -542.02080605 0 24457
0.15050000 0.15050000 10215.75067864 0 126.20777828 0 2680.06339119 0 73.84579220 0 -552.14413610 0 24591
0.15150000 0.15149900 10171.90090014 0 -10.04064382 0 2966.94727914 0 169.83724002 0 -377.41159268 0 25020
0.15250000 0.15250500 10279.46268698 0 45.15515527 0 2909.02420593 0 208.39379610 0 38.54441617 0 25297
0.15350000 0.15350100 10137.56071216 0 33.02683035 0 2839.70311287 0 140.79589480 0 2.40059833 0 25452
0.15450000 0.15450400 10230.40848719 0 173.20044272 0 2960.04551959 0 -62.27579040 0 455.67125120 0 26061
0.15550000 0.15549900 10092.77795964 0 207.30120485 0 3141.49210369 0 -5.66149987 0 680.78439120 0 26128
0.15650000 0.15649500 9890.77222536 0 185.13801380 0 3155.92509923 0 187.86949193 0 811.02419089 0 26331
0.15750000 0.15749700 9784.72792636 0 167.59473020 0 2990.88986520 0 313.34775197 0 915.25649699 0 27345
0.15850000 0.15849900 9608.32839444 0 72.70565299 0 3269.88281634 0 471.70041915 0 1292.11280153 0 26980
0.15950000 0.15949700 9525.85574003 0 73.43427197 0 2629.55914745 0 563.11613528 0 904.17883569 0 27777
0.16050000 0.16050000 9431.60288365 0 11.34451434 0 2666.61957291 0 539.99748892 0 1452.94403219 0 28224
0.16150000 0.16150500 9389.74270032 0 59.73900034 0 1967.94568608 0 532.43253098 0 1104.56142002 0 28075
0.16250000 0.16249700 9195.54921830 0 46.39769680 0 1685.69294622 0 540.69328520 0 1030.85759724 0 28590
0.16350000 0.16349900 9188.88351241 0 -4.57125791 0 1143.92730294 0 372.36791270 0 1118.50657131 0 29163
0.16450000 0.16449100 9066.97865523 0 58.48814073 0 860.13684207 0 146.66913480 0 563.06442829 0 28996
0.16550000 0.16550500 9076.08358233 0 105.58882783 0 683.09097273 0 13.30038757 0 431.40493440 0 30777
0.16650000 0.16650700 8894.68196083 0 151.78700308 0 571.75569943 0 -193.62470510 0 -97.55277421 0 29211
0.16750000 0.16749900 8860.90380538 0 181.60395321 0 827.04549038 0 -552.50271286 0 136.30637889 0 30922
0.16850000 0.16850800 8723.25079653 0 202.25977299 0 927.52679133 0 -552.10591789 0 -353.66234582 0 30867
0.16950000 0.16949900 8632.21276626 0 179.40078567 0 1446.10971654 0 -470.57635407 0 -121.01347357 0 30852
0.17050000 0.17049200 8577.90918258 0 190.74260225 0 1726.06936365 0 -300.53003794 0 -292.46711917 0 31257
0.17150000 0.17149500 8473.14631777 0 153.94858022 0 1869.16284745 0 8.86781681 0 -380.05539374 0 32608
0.17250000 0.17250900 8340.63028630 0 69.01984362 0 1935.14546724 0 232.97035486 0 -22.11024758 0 32361
0.17350000 0.17350400 8303.31132587 0 11.95836628 0 1732.29668415 0 330.90227622 0 -160.21074674 0 32508
0.17450000 0.17449800 8304.58151941 0 -76.79005584 0 1629.43348931 0 284.03775519 0 -170.14186166 0 32791
0.17550000 0.17549800 8373.71152140 0 -23.88121210 0 1265.28136823 0 160.27594251 0 -479.48119758 0 33633
0.17650000 0.17650100 8384.96341278 0 40.83548560 0 1235.89830722 0 -158.40212604 0 -378.59073695 0 33984
0.17750000 0.17750300 8263.13724016 0 87.78419910 0 1175.82826972 0 -113.30351124 0 -552.97369613 0 34069
