### header ###
fiducial parameters:
Omega_m = 0.31
Omega_nu = 0
Omega_de = 0.69
Omega_k = 0
H_0 = 100
w_de = -1
zeff = 0
beta = 0
fgrowth = 0
b_1 = 2
gamma = 0.55
Lx = 3500 Ly = 3500 Lz = 3500
nx = 700 ny = 700 nz = 700
xoffset = 857.220397 yoffset = 15.9954215 zoffset = 262.898189
bins = 400 dk = 0.001
kx_ny = 0.628318531 ky_ny = 0.628318531 kz_ny = 0.628318531
############################
A(data) = 3.0740152 (not used)
A(ran) = 3.0729461 (used)
Ngal = 187253
weighted Ngal = 0
Nran = 9360983
weighted Nran = 0
SN(data) = 3447.84294
SN(ran) = 69.0068206
SN(data+ran) = 3516.84976
############################
13 columns: k_central k_mean P_0(k) sigma^{lin}_{P_0(k)} P^img_1(k) sigma^{lin}_{P_1(k)} P_2(k) sigma^{lin}_{P_2(k)} P^img_3(k) sigma^{lin}_{P_3(k)} P_4(k) sigma^{lin}_{P_4(k)} N_modes
### header ###
0.00050000 0 0 0 0 0 0 0 0 0 0 0 0
0.00150000 0.00179520 19187.22876527 0 -31085.12034450 0 -34018.93018529 0 40124.28962982 0 -18978.82710071 0 3
0.00250000 0.00253879 33844.25047293 0 -29546.83729196 0 -4063.55144251 0 -45685.03954645 0 -898.15497097 0 6
0.00350000 0.00331552 51491.62249455 0 -22142.50824895 0 -30580.97715921 0 -1491.61187070 0 -8099.49584682 0 7
0.00450000 0.00420575 64686.79757465 0 -14263.48652557 0 -14238.08265492 0 -49476.17381849 0 1145.15253387 0 24
0.00550000 0.00557378 72920.91145462 0 -256.23850187 0 -11028.24739478 0 -55640.88389888 0 2660.31356785 0 45
0.00650000 0.00659388 69125.73054832 0 5657.09353404 0 22759.73238059 0 -39621.72013564 0 10208.14075810 0 40
0.00750000 0.00754703 72975.54101717 0 -5814.55256948 0 -8702.90521871 0 -3181.04795362 0 222.02758137 0 57
0.00850000 0.00846663 70008.79606974 0 -4276.60673646 0 20423.02590663 0 -15624.50451608 0 -25218.39991498 0 75
0.00950000 0.00948925 85480.31532937 0 -2882.18153198 0 10611.99485756 0 -22511.20159293 0 -39936.57076262 0 112
0.01050000 0.01054430 66239.24384711 0 9866.27884741 0 3038.01067306 0 -6060.99259610 0 -25016.96745388 0 105
0.01150000 0.01145670 69496.89683546 0 10855.04020766 0 4775.34316875 0 -13752.03691731 0 -28963.55992553 0 144
0.01250000 0.01249090 60935.23039318 0 -2323.71228171 0 -7702.70087601 0 8953.77406172 0 -23014.22071314 0 169
0.01350000 0.01339930 65965.98362784 0 -8118.25649289 0 -8369.68736844 0 9361.61859220 0 -24347.69910936 0 180
0.01450000 0.01448870 75960.27100577 0 -12770.05366945 0 -37753.18676463 0 20244.86159254 0 -38310.49822787 0 267
0.01550000 0.01550050 74128.71937567 0 -4938.45625150 0 -36673.63466842 0 -7764.22095747 0 -39337.89370468 0 238
0.01650000 0.01653350 78194.23793205 0 6591.30401629 0 -37996.99647898 0 -26958.56505464 0 -40314.93106622 0 315
0.01750000 0.01747870 69950.56949896 0 10595.10015951 0 -27415.38510035 0 -35377.47523263 0 -38179.54464686 0 297
0.01850000 0.01844180 60569.12239887 0 12387.75913809 0 -8034.19890672 0 -39377.46079526 0 -28149.17478007 0 388
0.01950000 0.01947590 59438.76256136 0 4480.97300740 0 11186.49327577 0 -33659.45417491 0 -45262.95311150 0 399
0.02050000 0.02045430 56866.56445459 0 -1185.18049112 0 21638.36506367 0 -22707.01372866 0 -38371.31014833 0 462
0.02150000 0.02154770 65652.81909847 0 -3861.81548384 0 31229.33789338 0 -3882.74557550 0 -43219.17799559 0 571
0.02250000 0.02255340 64648.24214264 0 -4882.41036696 0 33486.23574714 0 11457.59529010 0 -32745.58927048 0 510
0.02350000 0.02348930 72973.40529354 0 -1895.35356366 0 23410.56605791 0 16330.97941452 0 -30689.67425178 0 555
0.02450000 0.02439640 72148.45393639 0 -2250.13098203 0 23084.02515418 0 17335.21915083 0 -35296.43014086 0 592
0.02550000 0.02547300 71878.00387980 0 -212.40333621 0 11974.44041071 0 13725.95860761 0 -12419.45777315 0 837
0.02650000 0.02652900 70793.73071029 0 -2178.70788728 0 10105.21011935 0 5042.31986426 0 -17399.85289253 0 723
0.02750000 0.02749970 69623.69137570 0 2531.87789260 0 6848.40017981 0 4261.88148400 0 11525.71363353 0 826
0.02850000 0.02848090 67614.08783801 0 2129.06917366 0 5336.56637844 0 1021.47502607 0 -3661.46212521 0 831
0.02950000 0.02946900 64714.89920148 0 4708.39385299 0 10093.69969300 0 950.71063346 0 9082.40082804 0 996
0.03050000 0.03053250 60972.32454059 0 4520.25908171 0 7740.60435028 0 -4630.58606863 0 11806.61749530 0 1041
0.03150000 0.03150510 56076.90874074 0 4094.81169219 0 17358.82451736 0 -4680.79805545 0 2198.54763582 0 1036
0.03250000 0.03246190 58194.75974497 0 3875.43915252 0 14843.72891630 0 -11779.97715306 0 14682.42557831 0 1059
0.03350000 0.03345080 51291.76372456 0 1281.27681422 0 23760.26270215 0 -4240.81650453 0 -4384.23596721 0 1302
0.03450000 0.03451200 54446.90197824 0 2766.03188798 0 22868.65428617 0 -7657.96308611 0 9065.14642917 0 1339
0.03550000 0.03553350 50562.91993116 0 1053.79414505 0 23113.47565909 0 4290.10675799 0 -4246.22325754 0 1365
0.03650000 0.03647120 52105.47443097 0 123.28408502 0 24812.61242359 0 -154.43754852 0 -1670.41690188 0 1308
0.03750000 0.03744890 50738.83611510 0 -457.44165369 0 21145.23771610 0 8389.85309585 0 -5161.71805632 0 1579
0.03850000 0.03847530 52210.34970229 0 -521.17614334 0 22099.11933713 0 2767.90907665 0 2113.69196346 0 1662
0.03950000 0.03950240 50717.14165919 0 -358.50257002 0 14429.96056290 0 4520.64126383 0 106.53203083 0 1683
0.04050000 0.04050350 51378.42914169 0 495.26082308 0 16216.88680960 0 4896.14644215 0 3621.92875659 0 1822
0.04150000 0.04152450 51578.17550518 0 -392.37964320 0 9003.35657210 0 5078.35739050 0 5970.40419186 0 1887
0.04250000 0.04250150 50379.36010472 0 379.47874835 0 9688.42927155 0 6654.75748967 0 3445.84396289 0 1920
0.04350000 0.04349210 47977.68266954 0 426.14206173 0 6052.47218285 0 4373.50114576 0 3333.43745558 0 2005
0.04450000 0.04448520 47929.23546489 0 1043.29312914 0 3972.03006426 0 2048.81092744 0 1914.57507641 0 2151
0.04550000 0.04548030 46836.86902685 0 2318.93500515 0 2693.21495254 0 -4147.97997015 0 1331.27522867 0 2274
0.04650000 0.04648670 44633.13945104 0 2634.89845655 0 4606.48611346 0 -2601.78349950 0 419.96195196 0 2311
0.04750000 0.04749250 41715.29133429 0 2386.07541197 0 7438.99520987 0 -4371.07316521 0 -1716.89699265 0 2568
0.04850000 0.04851840 41797.79771065 0 1486.95824130 0 10417.27306495 0 -3705.79525169 0 -995.34500938 0 2493
0.04950000 0.04949480 40302.22913090 0 653.49658748 0 13416.50349299 0 -2208.55181497 0 -3124.20398287 0 2644
0.05050000 0.05050630 40550.19788602 0 868.67299223 0 16315.69212953 0 -729.34063016 0 -212.21336922 0 2829
0.05150000 0.05149060 40418.23264644 0 328.72945843 0 16670.10984707 0 204.97326608 0 1172.09637367 0 2784
0.05250000 0.05249300 40231.41303129 0 663.07249784 0 20137.06375203 0 2642.20487953 0 4383.39291841 0 3055
0.05350000 0.05348950 39729.63038266 0 1199.47859885 0 17112.20464032 0 3531.73377512 0 1619.78901099 0 3009
0.05450000 0.05448610 39141.40712991 0 1104.40292684 0 13658.51470323 0 4018.84737455 0 4187.60326397 0 3336
0.05550000 0.05550870 37226.56227788 0 1998.04814874 0 14136.01754628 0 2265.30586052 0 3045.41826190 0 3349
0.05650000 0.05647670 35892.52184913 0 1270.14857000 0 9852.01446164 0 1573.17403241 0 1384.94933591 0 3324
0.05750000 0.05747970 34015.33317705 0 1385.66873756 0 10419.43126989 0 1120.69175381 0 -133.60075426 0 3639
0.05850000 0.05849280 33481.96429987 0 741.13881717 0 9275.93111167 0 -80.68269319 0 187.33218882 0 3846
0.05950000 0.05951020 33335.83584036 0 119.66684362 0 10612.87162832 0 -1533.33716621 0 17.13614723 0 3787
0.06050000 0.06049470 33258.94978936 0 -354.61105674 0 10225.58624803 0 490.76568685 0 840.07902490 0 3930
0.06150000 0.06148310 34529.48054149 0 -234.46760953 0 12691.25670783 0 251.61072596 0 4738.64244411 0 4083
0.06250000 0.06249100 33905.73683243 0 413.37605470 0 12740.94038406 0 903.96413927 0 5077.60426690 0 4303
0.06350000 0.06350600 34975.05993646 0 886.61644299 0 14804.72385827 0 2084.58991871 0 8577.47079720 0 4470
0.06450000 0.06451750 32834.72763078 0 893.95771198 0 15265.70294474 0 1181.16757881 0 8589.14983331 0 4479
0.06550000 0.06550280 32487.16671017 0 1109.32183560 0 12897.85986826 0 1612.24653435 0 8219.14133320 0 4636
0.06650000 0.06648880 31359.27981583 0 226.16976116 0 13343.21445022 0 2341.48375052 0 7480.06854764 0 4653
0.06750000 0.06749660 30158.66591125 0 371.97673806 0 8722.46395098 0 1310.99709476 0 4506.27571220 0 5220
0.06850000 0.06852730 30092.57088495 0 768.96167586 0 9670.07328890 0 1194.83621010 0 4991.59080751 0 5029
0.06950000 0.06949320 29471.18771254 0 350.13952588 0 6674.99066098 0 367.49509061 0 -739.44597517 0 5040
0.07050000 0.07048030 28495.83644861 0 768.30746998 0 8389.38098852 0 -547.41182214 0 1804.97873178 0 5475
0.07150000 0.07148790 28278.10504395 0 633.19372413 0 8737.71751402 0 -430.36967047 0 -682.92123890 0 5509
0.07250000 0.07249820 27438.42843435 0 703.08022192 0 8845.09945046 0 -647.02084860 0 -730.40287165 0 5916
0.07350000 0.07351270 27010.72167404 0 465.15161603 0 9038.52856823 0 259.87372831 0 -1198.18592402 0 5721
0.07450000 0.07449140 27025.22211348 0 190.86175315 0 9351.82798541 0 1229.73843062 0 -688.89339663 0 6028
0.07550000 0.07549160 26427.89393363 0 338.71115628 0 8279.15516745 0 713.12037115 0 -1206.38035840 0 6183
0.07650000 0.07648840 26276.70718130 0 606.27011750 0 7273.71268152 0 1424.17920697 0 -1305.66902631 0 6330
0.07750000 0.07749960 24864.43182346 0 937.32639064 0 7552.51454160 0 682.24792392 0 -512.50735349 0 6583
0.07850000 0.07848650 24873.08712452 0 754.12401689 0 6192.31711859 0 389.46719059 0 91.13413783 0 6549
0.07950000 0.07947320 23839.73410282 0 58.60302018 0 6116.00434078 0 507.70759563 0 -596.78638048 0 6828
0.08050000 0.08048110 24376.02554920 0 -182.70328885 0 5745.63613984 0 419.02110949 0 964.59058898 0 7147
0.08150000 0.08149960 24575.99672570 0 -173.77371591 0 7158.02390419 0 -352.91147035 0 2082.25186336 0 7386
0.08250000 0.08250610 24894.66917393 0 183.73405652 0 7015.94207895 0 -369.23626741 0 2008.02984658 0 7227
0.08350000 0.08350160 24535.41797656 0 327.99769207 0 7848.76189161 0 -384.80456867 0 2826.64147672 0 7798
0.08450000 0.08449610 24548.68194443 0 405.84931497 0 8918.63578754 0 49.77731085 0 2883.98003610 0 7371
0.08550000 0.08548940 23988.56031850 0 610.02112265 0 8578.56114032 0 630.02723282 0 856.72193237 0 8256
0.08650000 0.08650700 23528.48048408 0 824.77263080 0 9370.53242823 0 -837.48131052 0 2350.85845323 0 8037
0.08750000 0.08749060 22652.60897912 0 1085.34777572 0 8496.11096721 0 539.40735476 0 495.78576147 0 8155
0.08850000 0.08849210 21177.94800972 0 900.26596518 0 8528.39411611 0 213.31158079 0 710.47207384 0 8718
0.08950000 0.08949900 20895.35805035 0 619.79486846 0 7690.96563665 0 65.81693260 0 -893.52157474 0 8571
0.09050000 0.09049190 20216.31033969 0 391.46465423 0 7278.64732719 0 366.77681303 0 -1803.85466671 0 8932
0.09150000 0.09150830 19902.13415176 0 237.29013693 0 6583.13206321 0 -260.51669354 0 -3219.91812384 0 9285
0.09250000 0.09250820 19886.39724073 0 207.40012257 0 7655.61379010 0 -414.82834677 0 -2647.47674472 0 9204
0.09350000 0.09350330 19848.17902825 0 328.33266346 0 7550.25517080 0 40.64416973 0 -2324.28555490 0 9349
0.09450000 0.09448040 19758.14141589 0 206.62114548 0 8775.26128746 0 208.77035790 0 -1836.64364489 0 9564
0.09550000 0.09549270 19458.46566740 0 381.56388906 0 8340.95626517 0 837.90058679 0 -520.21731583 0 10155
0.09650000 0.09649430 19320.20566341 0 236.39875333 0 7817.35551347 0 1195.55561175 0 -816.58943707 0 9913
0.09750000 0.09749140 18864.39727627 0 524.17402489 0 8326.18605011 0 1076.10683676 0 967.93693071 0 10476
0.09850000 0.09850240 18189.73341940 0 607.57290892 0 7222.57896134 0 1251.27551742 0 733.31307613 0 10575
0.09950000 0.09950330 17653.89159905 0 312.99367147 0 6246.23852015 0 1339.14368419 0 917.90479430 0 10882
0.10050000 0.10051200 17182.00908136 0 284.90328530 0 5503.08537837 0 228.63033961 0 119.13066458 0 10875
0.10150000 0.10150300 17123.55769756 0 75.98185306 0 4713.36222061 0 460.13828580 0 -1044.90616252 0 11118
0.10250000 0.10250800 16974.50666887 0 -114.89855958 0 4605.92408093 0 302.75568679 0 -701.08388235 0 11575
0.10350000 0.10349800 16870.98027564 0 -31.85195754 0 3564.02816467 0 -423.77028443 0 -1718.63929351 0 11364
0.10450000 0.10450100 17478.98707368 0 32.29787415 0 4505.21909103 0 -360.87771952 0 -1435.73459592 0 12093
0.10550000 0.10551000 17190.21475640 0 120.54024218 0 3761.72872973 0 -252.08732955 0 -2078.80098359 0 12067
0.10650000 0.10649700 17200.21893555 0 170.90060558 0 4671.95166332 0 -34.38604984 0 -845.57120685 0 12054
0.10750000 0.10749900 17222.36301749 0 64.00741264 0 3882.89170396 0 478.02103705 0 -1203.31166075 0 12807
0.10850000 0.10850100 17033.40767870 0 -16.02084986 0 4498.17120302 0 528.51179200 0 -1419.76163123 0 12736
0.10950000 0.10950300 17042.06297976 0 294.64892948 0 3720.68911391 0 151.09345493 0 -2263.78837267 0 12933
0.11050000 0.11050200 16505.65912688 0 177.08745975 0 3679.25607532 0 249.71330412 0 -1934.81948837 0 13428
0.11150000 0.11150900 16285.67959207 0 302.40835068 0 3804.58933097 0 250.52937536 0 -1944.57637321 0 13453
0.11250000 0.11250000 16105.82918038 0 278.63774658 0 3072.05860413 0 215.81374964 0 -2932.03381797 0 13668
0.11350000 0.11349100 15876.07027944 0 210.88472430 0 3318.89205353 0 58.63055977 0 -2478.72085529 0 13791
0.11450000 0.11448600 15761.64045500 0 197.42854131 0 3011.84243816 0 272.84543926 0 -2538.01528790 0 14205
0.11550000 0.11549300 15492.20205697 0 172.28882595 0 3111.94043292 0 108.76835829 0 -1382.99346269 0 14776
0.11650000 0.11649800 15403.06369668 0 247.31792145 0 3043.30501956 0 127.35432465 0 -806.68529971 0 14553
0.11750000 0.11747300 15275.70712390 0 348.30729981 0 3837.99654494 0 684.13073292 0 -13.64626239 0 14568
0.11850000 0.11849100 14880.93547022 0 325.09085979 0 3523.55058139 0 577.71212025 0 833.80561773 0 16015
0.11950000 0.11950300 14711.31405069 0 230.98525594 0 3556.53065063 0 717.04897859 0 1762.28674030 0 15270
0.12050000 0.12050700 14512.46693926 0 9.11925892 0 3478.11587114 0 531.16570964 0 2171.16541064 0 15999
0.12150000 0.12150000 14716.48475003 0 -213.12498599 0 3342.40749486 0 498.43630691 0 1927.11964262 0 15670
0.12250000 0.12250700 14764.36992214 0 -132.48792984 0 2836.65689652 0 81.29676994 0 1521.34339188 0 16887
0.12350000 0.12352200 14871.94294964 0 78.26370515 0 3268.10679353 0 -448.64247230 0 1018.81661217 0 16407
0.12450000 0.12449800 14365.21441468 0 491.98080119 0 2877.26936761 0 -378.55139467 0 984.85073786 0 16306
0.12550000 0.12549900 14063.85256859 0 569.96169158 0 3373.75766975 0 -7.98666219 0 582.79514251 0 17523
0.12650000 0.12650100 13733.48984360 0 465.71589670 0 2656.14328643 0 123.56060503 0 416.81906602 0 17154
0.12750000 0.12750600 13353.55584890 0 303.36605412 0 3142.33515250 0 605.41357992 0 790.74156071 0 18007
0.12850000 0.12850300 13164.03847757 0 237.73077044 0 2941.85814671 0 -275.03736615 0 671.21747336 0 17496
0.12950000 0.12949900 12909.43773851 0 296.27432758 0 3497.75328796 0 -397.39859375 0 1083.99215324 0 18405
0.13050000 0.13049000 12803.77562164 0 392.49767003 0 3807.53438146 0 -610.67645259 0 1337.35642072 0 18100
0.13150000 0.13148800 12702.60976506 0 327.65260409 0 4332.10182912 0 -448.59526157 0 1572.66820312 0 19059
0.13250000 0.13249300 12557.38055762 0 -45.81273334 0 4312.56557815 0 6.44887373 0 1258.85171601 0 18957
0.13350000 0.13349100 12775.11196228 0 -175.40698246 0 4254.81111469 0 429.31866963 0 841.47960998 0 19468
0.13450000 0.13450700 12779.72062908 0 -121.82729669 0 3974.61541392 0 708.28913947 0 403.55959441 0 19953
0.13550000 0.13551000 12827.26858167 0 100.66553521 0 3712.17994131 0 241.56046014 0 745.09215403 0 19956
0.13650000 0.13649900 12603.80444514 0 309.69116829 0 3434.65951541 0 -3.70477235 0 384.47184541 0 19723
0.13750000 0.13749600 12288.61659864 0 509.31950495 0 3531.11553933 0 -450.98165172 0 -183.88243311 0 20946
0.13850000 0.13851100 11957.35462160 0 444.05403867 0 3917.94005294 0 -912.95103953 0 99.80551303 0 20955
0.13950000 0.13949800 11616.20087191 0 269.54855640 0 4296.13174678 0 -532.96196563 0 -332.48383578 0 20506
0.14050000 0.14048300 11461.41711135 0 99.97727017 0 4480.34353096 0 -415.32743166 0 -149.18704057 0 21447
0.14150000 0.14148400 11477.04161586 0 -102.83059695 0 4249.23575193 0 298.80010180 0 -948.57715795 0 21771
0.14250000 0.14249400 11673.41578413 0 -119.38020702 0 4431.49166288 0 731.56065868 0 -730.53438727 0 22470
0.14350000 0.14350900 11609.79370100 0 37.12876862 0 3595.05236069 0 1159.07970013 0 -935.57846945 0 22519
0.14450000 0.14449900 11466.25059116 0 213.87473739 0 3393.97960041 0 820.42249897 0 -177.20548658 0 22218
0.14550000 0.14550500 11187.10027091 0 279.77530043 0 3059.78381353 0 416.46498552 0 185.32123641 0 23559
0.14650000 0.14650700 10922.02324537 0 313.47926759 0 2853.20313440 0 437.97284663 0 527.65413035 0 23044
0.14750000 0.14750500 10862.62764691 0 197.81184750 0 3275.36825390 0 321.55567514 0 1405.90190888 0 23649
0.14850000 0.14849900 10503.65746581 0 161.33143962 0 2959.10130493 0 -100.86516917 0 1333.11869539 0 23640
0.14950000 0.14949500 10606.63306716 0 211.83793148 0 3620.25389963 0 21.13523354 0 1609.89723834 0 24457
0.15050000 0.15050000 10341.56728227 0 164.63057061 0 3471.33775874 0 -159.60712379 0 1329.88138798 0 24591
0.15150000 0.15149900 10214.25567209 0 284.00852950 0 3499.61923598 0 -224.86696974 0 1099.81449321 0 25020
0.15250000 0.15250500 9919.55953188 0 272.34747843 0 3549.42655937 0 -262.23089277 0 597.15057756 0 25297
0.15350000 0.15350100 9779.54598637 0 213.03618485 0 3663.46296104 0 -575.51682117 0 409.73970419 0 25452
0.15450000 0.15450400 9751.45560020 0 87.79476531 0 3855.21722186 0 89.85764954 0 335.34795358 0 26061
0.15550000 0.15549900 9665.72315707 0 -34.49025067 0 3506.61092074 0 152.57609676 0 -150.90348793 0 26128
0.15650000 0.15649500 9881.27387549 0 -178.21040075 0 3395.71066063 0 411.51572700 0 -138.98615003 0 26331
0.15750000 0.15749700 9905.98082580 0 -124.24628472 0 3081.45578814 0 436.35531699 0 -500.02123866 0 27345
0.15850000 0.15849900 10070.34162078 0 -11.91778753 0 2971.49974269 0 303.60997624 0 -251.67142548 0 26980
0.15950000 0.15949700 9948.59413272 0 191.41591723 0 2910.44052792 0 138.99739068 0 -176.32309550 0 27777
0.16050000 0.16050000 9794.91195592 0 329.64107521 0 2888.27396468 0 -131.16602931 0 260.90899225 0 28224
0.16150000 0.16150500 9457.84980310 0 410.50182031 0 3166.42386702 0 -47.31999220 0 287.09521219 0 28075
0.16250000 0.16249700 9247.99809461 0 275.98944927 0 3066.24718770 0 -56.68210538 0 302.91867622 0 28590
0.16350000 0.16349900 9005.68338680 0 176.28824948 0 3430.48923399 0 -18.06619867 0 376.36846030 0 29163
0.16450000 0.16449100 8939.95930197 0 104.28210218 0 3317.27339983 0 66.47720842 0 431.19473424 0 28996
0.16550000 0.16550500 8835.15147456 0 77.25609322 0 3205.53009091 0 124.97917515 0 280.66331184 0 30777
0.16650000 0.16650700 8887.07204029 0 83.11292188 0 3199.97720945 0 202.27663397 0 304.94199336 0 29211
0.16750000 0.16749900 8723.43064694 0 50.88878640 0 3107.98372387 0 224.19253070 0 547.63775922 0 30922
0.16850000 0.16850800 8711.61672303 0 -18.71961769 0 2816.98575774 0 261.19900104 0 224.29706875 0 30867
0.16950000 0.16949900 8676.72574316 0 105.36974755 0 2878.37095138 0 141.56363124 0 540.02671461 0 30852
0.17050000 0.17049200 8701.75867233 0 83.15664801 0 2487.06141814 0 65.31132813 0 369.48243766 0 31257
0.17150000 0.17149500 8520.12099717 0 115.91021814 0 2752.25085018 0 204.01781077 0 531.32645095 0 32608
0.17250000 0.17250900 8599.89589541 0 54.55942089 0 2260.68595306 0 212.79113866 0 797.08465992 0 32361
0.17350000 0.17350400 8398.18241804 0 42.59610873 0 2207.02308647 0 394.39396781 0 156.50807639 0 32508
0.17450000 0.17449800 8383.31103713 0 93.40497409 0 1965.24792990 0 197.82870848 0 359.96160649 0 32791
0.17550000 0.17549800 8241.33037774 0 140.03490274 0 1820.42338588 0 171.44128088 0 -171.91563634 0 33633
0.17650000 0.17650100 8045.34963225 0 194.64985245 0 1945.07096184 0 157.85133415 0 240.82869378 0 33984
0.17750000 0.17750300 7847.60410459 0 175.08549985 0 1745.92035284 0 62.88267313 0 96.27089041 0 34069
