### header ###
fiducial parameters:
Omega_m = 0.31
Omega_nu = 0
Omega_de = 0.69
Omega_k = 0
H_0 = 100
w_de = -1
zeff = 0
beta = 0
fgrowth = 0
b_1 = 2
gamma = 0.55
Lx = 3500 Ly = 3500 Lz = 3500
nx = 700 ny = 700 nz = 700
xoffset = 857.220397 yoffset = 15.9954215 zoffset = 262.898189
bins = 400 dk = 0.001
kx_ny = 0.628318531 ky_ny = 0.628318531 kz_ny = 0.628318531
############################
A(data) = 3.10155373 (not used)
A(ran) = 3.10141014 (used)
Ngal = 189473
weighted Ngal = 0
Nran = 9360983
weighted Nran = 0
SN(data) = 3450.43794
SN(ran) = 69.6460161
SN(data+ran) = 3520.08396
############################
13 columns: k_central k_mean P_0(k) sigma^{lin}_{P_0(k)} P^img_1(k) sigma^{lin}_{P_1(k)} P_2(k) sigma^{lin}_{P_2(k)} P^img_3(k) sigma^{lin}_{P_3(k)} P_4(k) sigma^{lin}_{P_4(k)} N_modes
### header ###
0.00050000 0 0 0 0 0 0 0 0 0 0 0 0
0.00150000 0.00179520 55.55759068 0 -5571.01263074 0 -7250.53445971 0 16629.75591095 0 -1408.44229594 0 3
0.00250000 0.00253879 3570.51402014 0 -6817.67948136 0 -1077.49842932 0 -7092.74944540 0 -2625.27645952 0 6
0.00350000 0.00331552 9323.88372769 0 -9773.06013090 0 -11422.86167934 0 1580.40177083 0 6206.72763283 0 7
0.00450000 0.00420575 16571.07971413 0 -12269.05786637 0 -9843.85374921 0 -3192.53589866 0 -1536.41710451 0 24
0.00550000 0.00557378 38363.44169281 0 -25027.98329160 0 -23247.68902882 0 8976.45769490 0 14904.20361724 0 45
0.00650000 0.00659388 56460.10252416 0 -32159.27692835 0 -14650.50213024 0 10697.04162099 0 3578.68597323 0 40
0.00750000 0.00754703 83459.13392143 0 -25250.32336305 0 -22354.50692174 0 -4342.97153838 0 7282.77264601 0 57
0.00850000 0.00846663 104385.51616780 0 -15468.03465790 0 -14912.18447925 0 -378.66492524 0 2969.77992313 0 75
0.00950000 0.00948925 104700.02957525 0 8451.85652528 0 23273.20530598 0 -35095.67211881 0 32517.85368667 0 112
0.01050000 0.01054430 109183.36311931 0 13629.62623085 0 19596.27604537 0 -21827.77002848 0 4665.36464199 0 105
0.01150000 0.01145670 96282.91790138 0 13330.62492140 0 62250.04930919 0 -15036.28126332 0 41382.79288567 0 144
0.01250000 0.01249090 93294.70331105 0 8632.96588986 0 64281.57211580 0 12628.30906373 0 13311.29100215 0 169
0.01350000 0.01339930 96980.40027924 0 -1715.84037148 0 80953.59287350 0 31908.61041705 0 24516.64608984 0 180
0.01450000 0.01448870 94726.42499466 0 3249.34614746 0 69345.26045709 0 26541.08728649 0 22961.72687422 0 267
0.01550000 0.01550050 93100.80208594 0 2639.61952986 0 34815.89232211 0 36666.77787148 0 -23596.93604703 0 238
0.01650000 0.01653350 88024.63662233 0 7132.22661077 0 46619.25002870 0 18094.07548168 0 17591.05636146 0 315
0.01750000 0.01747870 86523.89734324 0 6732.94745615 0 20379.29977529 0 9949.12244330 0 -21863.40289130 0 297
0.01850000 0.01844180 76102.24042451 0 6478.41416100 0 41197.43455511 0 5524.53253997 0 6115.95937818 0 388
0.01950000 0.01947590 70189.43332699 0 6159.20216154 0 18108.12629509 0 2140.64704391 0 -18704.44281637 0 399
0.02050000 0.02045430 66320.85097141 0 4863.91949651 0 28116.46448644 0 -2632.92010202 0 -7475.07769871 0 462
0.02150000 0.02154770 64259.65284687 0 2616.34014219 0 33892.24805155 0 4721.80394931 0 -6337.68121385 0 571
0.02250000 0.02255340 60802.81552757 0 329.82991814 0 38057.35877341 0 2168.84983659 0 -8766.94320592 0 510
0.02350000 0.02348930 64473.67483679 0 734.82606772 0 39820.11762104 0 2276.58023320 0 13033.19730306 0 555
0.02450000 0.02439640 60513.70599077 0 1516.86961289 0 43797.73428871 0 2603.01997108 0 -1399.51721926 0 592
0.02550000 0.02547300 68461.74530964 0 530.09110343 0 62167.76774583 0 -261.16190689 0 35764.49083730 0 837
0.02650000 0.02652900 67302.49699975 0 -2501.82039255 0 47214.33007840 0 12605.82776227 0 14120.95507430 0 723
0.02750000 0.02749970 75879.67554003 0 -226.87679809 0 68545.48815758 0 5265.34561541 0 45339.16472345 0 826
0.02850000 0.02848090 73754.29329982 0 -1283.65983218 0 46587.21417411 0 12978.79255352 0 11904.63596967 0 831
0.02950000 0.02946900 75854.83370192 0 3212.10587159 0 60989.18551669 0 9191.36769622 0 31544.75055289 0 996
0.03050000 0.03053250 70202.02285581 0 3690.29439433 0 37031.87420722 0 14914.76982892 0 14383.98630141 0 1041
0.03150000 0.03150510 64081.26371977 0 2614.12573400 0 28325.87780956 0 11576.07174880 0 6033.12702294 0 1036
0.03250000 0.03246190 65202.06900416 0 2590.09322274 0 26419.57585209 0 11576.74618785 0 4796.72288644 0 1059
0.03350000 0.03345080 57644.64229819 0 2164.91560884 0 21791.79994614 0 5887.03228539 0 798.84044956 0 1302
0.03450000 0.03451200 56680.86890452 0 4496.85604689 0 20402.45551579 0 -3751.48849691 0 4973.15614031 0 1339
0.03550000 0.03553350 52345.91195011 0 2877.01083264 0 24918.49935348 0 -2798.53984989 0 7578.98627407 0 1365
0.03650000 0.03647120 53314.85604312 0 2234.28166450 0 32093.85634110 0 -563.41288846 0 9215.97348067 0 1308
0.03750000 0.03744890 53822.93345616 0 1007.76817657 0 35616.22665416 0 3073.48616677 0 13228.89703229 0 1579
0.03850000 0.03847530 53494.81886132 0 1475.38037105 0 37885.71403675 0 3587.64477186 0 12930.12053586 0 1662
0.03950000 0.03950240 52513.95967854 0 2702.66833981 0 37307.83218267 0 1374.85523156 0 15386.53994010 0 1683
0.04050000 0.04050350 49946.59505158 0 2443.42521200 0 34695.50495278 0 5630.76793002 0 10434.35885406 0 1822
0.04150000 0.04152450 46865.08306018 0 1515.43080960 0 27539.59429093 0 7954.04182636 0 6823.40097258 0 1887
0.04250000 0.04250150 45219.78901269 0 818.58914883 0 23400.22465924 0 7021.73101408 0 7319.31600153 0 1920
0.04350000 0.04349210 42823.95671589 0 915.72410806 0 18206.36958248 0 6130.16756070 0 1008.93158392 0 2005
0.04450000 0.04448520 41474.51659563 0 2077.41838355 0 17078.93231416 0 4774.08421586 0 3919.62615055 0 2151
0.04550000 0.04548030 39933.31097390 0 2286.26967413 0 14376.00543939 0 2036.58109944 0 4612.92700633 0 2274
0.04650000 0.04648670 36941.38696884 0 954.06596770 0 14297.88291681 0 1635.72825372 0 8861.29722816 0 2311
0.04750000 0.04749250 38788.67550997 0 -579.44205640 0 13890.63414082 0 5066.90316741 0 8993.53224336 0 2568
0.04850000 0.04851840 38029.14474007 0 -2197.43481140 0 12822.43510186 0 6062.30775224 0 8921.89557625 0 2493
0.04950000 0.04949480 40445.99705374 0 -1616.94512635 0 9933.79019570 0 5040.72369185 0 7767.05360145 0 2644
0.05050000 0.05050630 40510.18116942 0 197.59153074 0 8296.74678585 0 3134.71399130 0 8552.60647778 0 2829
0.05150000 0.05149060 39597.44033006 0 1207.53814543 0 4920.24639732 0 -172.81938466 0 5843.92438984 0 2784
0.05250000 0.05249300 38154.92762175 0 2084.39882765 0 6459.38373931 0 -1531.85340032 0 7510.99157780 0 3055
0.05350000 0.05348950 36354.96222020 0 2174.43644001 0 8067.29138247 0 -3510.64631435 0 3732.43559392 0 3009
0.05450000 0.05448610 35248.43256224 0 1021.33226981 0 9316.58854537 0 -4016.54304115 0 6308.16326503 0 3336
0.05550000 0.05550870 34770.92971919 0 1078.94285293 0 11525.37641401 0 -3308.33708249 0 5346.73916735 0 3349
0.05650000 0.05647670 35180.20181230 0 856.17338862 0 14170.30153101 0 -1576.38885851 0 3815.07685810 0 3324
0.05750000 0.05747970 34366.37869938 0 428.63748619 0 16561.63756752 0 -289.20395827 0 5591.06595164 0 3639
0.05850000 0.05849280 34632.78212171 0 432.26259606 0 16327.49481279 0 2195.27660646 0 3062.06566563 0 3846
0.05950000 0.05951020 33975.99089949 0 11.94386584 0 14965.35275721 0 1833.42881878 0 4898.28216579 0 3787
0.06050000 0.06049470 34339.85076366 0 250.48890902 0 13112.55629722 0 2487.27499050 0 2710.10965059 0 3930
0.06150000 0.06148310 33935.86177638 0 920.52498999 0 13829.26018783 0 888.56332370 0 6848.16412614 0 4083
0.06250000 0.06249100 32818.87831325 0 1075.30762649 0 11526.27566607 0 -253.40248569 0 3852.99157301 0 4303
0.06350000 0.06350600 32471.20498614 0 1061.05897762 0 14772.35078416 0 213.13285445 0 6443.24216486 0 4470
0.06450000 0.06451750 31462.69380255 0 620.00731676 0 14286.86707909 0 -316.47040475 0 3389.67443118 0 4479
0.06550000 0.06550280 32192.32444150 0 -272.18673713 0 17216.63028562 0 112.27274357 0 5345.42401122 0 4636
0.06650000 0.06648880 32413.42804138 0 -76.41428089 0 17968.06778698 0 -184.33992760 0 6326.10334359 0 4653
0.06750000 0.06749660 32546.40493953 0 139.91013152 0 17592.40523955 0 1701.16008163 0 5686.01572837 0 5220
0.06850000 0.06852730 32460.41396143 0 -131.77077632 0 16498.91473644 0 3425.71195743 0 8435.08547439 0 5029
0.06950000 0.06949320 32464.01096967 0 149.21963845 0 14237.74543540 0 4187.97420545 0 7488.72384870 0 5040
0.07050000 0.07048030 31482.92697387 0 591.16155885 0 11737.71230632 0 4610.66763554 0 8542.84959295 0 5475
0.07150000 0.07148790 29947.67889703 0 603.08114489 0 8342.49623432 0 3935.75648435 0 4726.95216735 0 5509
0.07250000 0.07249820 29515.70068944 0 911.91689966 0 6864.06964693 0 2492.26583942 0 5886.58265936 0 5916
0.07350000 0.07351270 27695.05249054 0 835.66931762 0 3745.55343333 0 921.16795521 0 3292.18426739 0 5721
0.07450000 0.07449140 27663.57866849 0 555.17124334 0 5699.23473363 0 -270.24210455 0 4290.70251248 0 6028
0.07550000 0.07549160 26511.97400110 0 573.85994925 0 5486.56162180 0 -1476.38078896 0 2514.05022054 0 6183
0.07650000 0.07648840 26699.35564879 0 700.04412216 0 5846.07135413 0 -678.76107407 0 3488.31114135 0 6330
0.07750000 0.07749960 25664.31652948 0 1034.15785229 0 6729.65394549 0 -1700.67673365 0 2430.79072058 0 6583
0.07850000 0.07848650 25657.01010650 0 1037.43225385 0 7455.85618596 0 -842.47553164 0 2892.97255668 0 6549
0.07950000 0.07947320 24224.72639036 0 197.74215546 0 7311.00916064 0 951.67395723 0 2274.56815672 0 6828
0.08050000 0.08048110 24692.78708680 0 -14.21076787 0 6727.57442510 0 701.30419911 0 1985.53730447 0 7147
0.08150000 0.08149960 24720.77630712 0 -396.14076493 0 6004.51956683 0 1103.78693918 0 597.46194359 0 7386
0.08250000 0.08250610 24828.34933461 0 275.26555136 0 5377.03272107 0 497.14700427 0 193.26612834 0 7227
0.08350000 0.08350160 24373.77741905 0 421.55587623 0 6004.55328878 0 14.18671288 0 1128.33652038 0 7798
0.08450000 0.08449610 23755.76644186 0 851.44444686 0 5503.11910032 0 -469.99970869 0 1236.11187959 0 7371
0.08550000 0.08548940 23228.35510956 0 977.72416530 0 5562.13251666 0 44.80219884 0 60.28417190 0 8256
0.08650000 0.08650700 22368.22051563 0 888.68809492 0 7260.48243561 0 -371.59005967 0 1503.80797674 0 8037
0.08750000 0.08749060 21721.77069209 0 824.94686089 0 6609.59255503 0 -321.04872179 0 -546.03147023 0 8155
0.08850000 0.08849210 21190.08791251 0 384.54490964 0 6987.80673017 0 55.37167031 0 936.13150946 0 8718
0.08950000 0.08949900 21100.38751968 0 -70.68390955 0 7563.85635819 0 -419.07056836 0 -569.80657060 0 8571
0.09050000 0.09049190 21631.39586021 0 -316.80650020 0 6251.36425688 0 922.96308713 0 -689.85334821 0 8932
0.09150000 0.09150830 21238.64752367 0 89.86933981 0 7232.12227381 0 585.28719478 0 -2072.07907445 0 9285
0.09250000 0.09250820 21419.50959393 0 533.83761232 0 5832.27907568 0 449.97448941 0 -1131.61879039 0 9204
0.09350000 0.09350330 20570.84046374 0 808.44108935 0 6500.15357951 0 -139.11316938 0 -1138.19457107 0 9349
0.09450000 0.09448040 20120.65240197 0 740.05409437 0 6029.70986512 0 105.75024357 0 -681.60608277 0 9564
0.09550000 0.09549270 19182.62009847 0 647.75598715 0 6662.76083299 0 373.67857258 0 -152.19728683 0 10155
0.09650000 0.09649430 19066.95380244 0 298.14814405 0 5945.21389357 0 265.52215531 0 -111.37158060 0 9913
0.09750000 0.09749140 18706.35372699 0 1.37459670 0 6452.65058952 0 573.44067298 0 325.87545721 0 10476
0.09850000 0.09850240 18839.55543816 0 67.72604472 0 6353.27199641 0 375.53890027 0 382.65423218 0 10575
0.09950000 0.09950330 18527.40256736 0 68.76928951 0 5867.20377750 0 380.93553669 0 494.59312842 0 10882
0.10050000 0.10051200 18664.42609977 0 215.35850329 0 5854.26578851 0 359.55694306 0 1270.32842041 0 10875
0.10150000 0.10150300 18292.69778009 0 453.79518660 0 6034.38597582 0 322.38748329 0 1234.63935434 0 11118
0.10250000 0.10250800 17755.50708166 0 512.84457302 0 5984.02786055 0 815.60250793 0 1934.53847211 0 11575
0.10350000 0.10349800 17385.46485959 0 411.10094699 0 5633.40948295 0 456.63569904 0 1344.07832986 0 11364
0.10450000 0.10450100 17145.81418601 0 361.26552197 0 5125.71425203 0 58.15092121 0 1882.47177792 0 12093
0.10550000 0.10551000 16683.71103446 0 349.07616032 0 5715.84841541 0 261.75541325 0 1283.42377851 0 12067
0.10650000 0.10649700 16404.38086379 0 550.09608954 0 5193.58530114 0 62.87783965 0 1702.27290605 0 12054
0.10750000 0.10749900 15891.58237745 0 442.11615049 0 5358.33951891 0 94.42697406 0 1020.27564864 0 12807
0.10850000 0.10850100 15837.40244092 0 187.64805111 0 5715.23017962 0 -268.62007865 0 1987.30208664 0 12736
0.10950000 0.10950300 15734.21326721 0 126.85074350 0 5347.94191698 0 200.37921213 0 1300.86926845 0 12933
0.11050000 0.11050200 15839.87538408 0 -25.06698835 0 6138.75541786 0 293.95200914 0 2011.52568896 0 13428
0.11150000 0.11150900 15610.22888965 0 98.20012329 0 5016.00550090 0 -68.86910649 0 1504.85335726 0 13453
0.11250000 0.11250000 15935.42091530 0 104.02828829 0 6566.02379280 0 195.45131085 0 2668.05837621 0 13668
0.11350000 0.11349100 15665.75770426 0 226.89815533 0 5530.95095153 0 169.66525807 0 1978.44445386 0 13791
0.11450000 0.11448600 15352.25595537 0 379.75077210 0 6063.10583844 0 442.61298725 0 1612.58375387 0 14205
0.11550000 0.11549300 14883.97044592 0 340.08588787 0 6024.29187147 0 184.58272565 0 2189.46519003 0 14776
0.11650000 0.11649800 14464.13214112 0 374.80600984 0 5085.61885087 0 930.93945289 0 1523.72640984 0 14553
0.11750000 0.11747300 14510.33121562 0 125.27480427 0 5758.73149795 0 150.99566127 0 1433.80120399 0 14568
0.11850000 0.11849100 14286.64226608 0 -48.21497281 0 4862.52565582 0 587.40718151 0 1114.53412534 0 16015
0.11950000 0.11950300 14599.46957592 0 -182.40203941 0 4998.24527274 0 -99.01866748 0 1061.76489049 0 15270
0.12050000 0.12050700 14716.59715654 0 -160.42431910 0 4903.90249116 0 203.82671971 0 1223.58979467 0 15999
0.12150000 0.12150000 15004.58262826 0 -135.29584439 0 5071.57927811 0 -379.96996479 0 949.04139683 0 15670
0.12250000 0.12250700 15058.53775177 0 117.52549965 0 4982.74441538 0 -36.46388413 0 1008.40889366 0 16887
0.12350000 0.12352200 15063.03401206 0 346.66953700 0 5589.26744753 0 -321.09818065 0 414.20449066 0 16407
0.12450000 0.12449800 14831.70142002 0 380.13070610 0 6155.58267200 0 -423.65562979 0 840.02169758 0 16306
0.12550000 0.12549900 14593.73684405 0 275.98158081 0 6275.08202993 0 -365.75616194 0 508.55851289 0 17523
0.12650000 0.12650100 14305.86377883 0 324.29164952 0 6110.70999429 0 -202.82967399 0 17.29216746 0 17154
0.12750000 0.12750600 14235.27249223 0 84.42403138 0 6719.05401185 0 4.14461902 0 449.69684534 0 18007
0.12850000 0.12850300 14029.56858386 0 94.34019624 0 6294.25858007 0 395.38876540 0 611.24298138 0 17496
0.12950000 0.12949900 14227.85366275 0 170.35655809 0 6576.01673130 0 787.51324582 0 919.71229094 0 18405
0.13050000 0.13049000 13799.58486990 0 29.87652558 0 5931.97240701 0 759.93093706 0 928.95997430 0 18100
0.13150000 0.13148800 13798.68561784 0 164.79018785 0 5504.77147598 0 728.42226900 0 1407.85778210 0 19059
0.13250000 0.13249300 13665.03428065 0 146.41846829 0 5532.99674997 0 592.66106166 0 1059.49989937 0 18957
0.13350000 0.13349100 13434.71334717 0 252.01651345 0 5403.87539502 0 112.78419317 0 1358.99467338 0 19468
0.13450000 0.13450700 13198.43486881 0 282.45282344 0 5205.66900068 0 -175.71834849 0 1231.49197214 0 19953
0.13550000 0.13551000 12954.62515445 0 403.10996838 0 5610.68088717 0 -83.09133983 0 1775.82048378 0 19956
0.13650000 0.13649900 12748.35921354 0 240.96695379 0 5420.55652070 0 85.14421987 0 1722.00024808 0 19723
0.13750000 0.13749600 12623.58799042 0 141.52541303 0 5264.63745441 0 380.00481081 0 1117.62755243 0 20946
0.13850000 0.13851100 12500.61527143 0 156.13151459 0 5023.43557103 0 626.79442167 0 1576.25397071 0 20955
0.13950000 0.13949800 12398.77497581 0 -38.68593596 0 4834.19921597 0 675.55748861 0 1302.82514167 0 20506
0.14050000 0.14048300 12379.77827607 0 127.73313458 0 4764.57462535 0 188.38206560 0 1862.59830743 0 21447
0.14150000 0.14148400 12176.32249784 0 151.88030048 0 4313.02644483 0 468.06631676 0 1254.00699555 0 21771
0.14250000 0.14249400 11971.29302851 0 138.56125343 0 3912.81431620 0 418.28709500 0 1341.80771841 0 22470
0.14350000 0.14350900 11770.87222597 0 80.14179308 0 3229.23662330 0 566.68616595 0 789.30612961 0 22519
0.14450000 0.14449900 11743.55744470 0 107.31044589 0 3152.47421946 0 431.28578351 0 422.46636894 0 22218
0.14550000 0.14550500 11442.30800511 0 213.99164016 0 2587.26057875 0 -133.82444321 0 -283.33858672 0 23559
0.14650000 0.14650700 11324.95561147 0 370.85154892 0 2894.01793720 0 -203.65024149 0 14.42771243 0 23044
0.14750000 0.14750500 11021.66037345 0 333.07734214 0 3184.75736836 0 -629.89009688 0 486.72242478 0 23649
0.14850000 0.14849900 10857.42322562 0 209.18064165 0 3141.88552647 0 -102.51271135 0 390.83517779 0 23640
0.14950000 0.14949500 10903.35252451 0 132.12485682 0 3870.13356538 0 -70.70639085 0 867.37132488 0 24457
0.15050000 0.15050000 10671.98621051 0 115.66517196 0 3503.60966699 0 282.44495498 0 840.03743449 0 24591
0.15150000 0.15149900 10653.00075143 0 157.24995934 0 3938.88138525 0 492.94749716 0 1382.48763340 0 25020
0.15250000 0.15250500 10552.17211437 0 75.80301430 0 3538.81538508 0 175.58008848 0 1243.27217410 0 25297
0.15350000 0.15350100 10512.26780427 0 137.50800446 0 3462.90727070 0 584.76338046 0 1420.57095808 0 25452
0.15450000 0.15450400 10318.46774502 0 136.78073435 0 3226.80864274 0 575.18859417 0 1483.08021680 0 26061
0.15550000 0.15549900 10241.52549077 0 150.25490239 0 3004.32244282 0 169.01554846 0 1240.43953012 0 26128
0.15650000 0.15649500 10021.88317548 0 187.09163890 0 2823.19059695 0 195.96051232 0 1422.25705569 0 26331
0.15750000 0.15749700 9966.10706656 0 113.42378620 0 2580.29137530 0 294.27236768 0 697.70606681 0 27345
0.15850000 0.15849900 9802.30830410 0 59.65806766 0 2495.64927529 0 102.79406484 0 1028.18681862 0 26980
0.15950000 0.15949700 9801.33036749 0 -27.19664204 0 2078.85718684 0 306.70565146 0 240.41616190 0 27777
0.16050000 0.16050000 9615.12898813 0 100.74118479 0 1858.95633659 0 -50.35148329 0 46.86620713 0 28224
0.16150000 0.16150500 9576.61851873 0 191.35072146 0 1635.66080982 0 -35.81765912 0 -514.49245241 0 28075
0.16250000 0.16249700 9175.10247462 0 233.47955633 0 1635.52592201 0 -238.93352007 0 -591.75056895 0 28590
0.16350000 0.16349900 9057.67139643 0 273.21975293 0 1640.10086686 0 -175.22713205 0 -460.31476402 0 29163
0.16450000 0.16449100 9035.24629822 0 203.34786798 0 1853.77439660 0 -223.82271329 0 -674.87293298 0 28996
0.16550000 0.16550500 8794.21302460 0 196.30672437 0 2278.35625601 0 -265.66715970 0 -463.41830769 0 30777
0.16650000 0.16650700 8851.22560510 0 169.72595758 0 2294.49783046 0 -131.47851941 0 -481.19876901 0 29211
0.16750000 0.16749900 8631.18986705 0 95.93636864 0 2761.97401306 0 -178.04853538 0 79.47870709 0 30922
0.16850000 0.16850800 8653.14285792 0 172.99698695 0 2769.81998727 0 118.52366944 0 23.36133201 0 30867
0.16950000 0.16949900 8615.56536253 0 129.06290356 0 2897.83975845 0 125.30402996 0 260.29300459 0 30852
0.17050000 0.17049200 8381.84975253 0 179.88413365 0 2730.71376338 0 73.76744486 0 -82.64193861 0 31257
0.17150000 0.17149500 8342.57491888 0 165.48823226 0 2857.22728736 0 114.72320543 0 91.40211495 0 32608
0.17250000 0.17250900 8074.75517456 0 63.79192937 0 2495.69423790 0 96.46063259 0 -14.30294121 0 32361
0.17350000 0.17350400 8158.65539162 0 -14.24033079 0 2509.87993912 0 64.24402834 0 -246.90651363 0 32508
0.17450000 0.17449800 8215.47688106 0 -93.38260520 0 2252.30042762 0 301.69007310 0 -414.91152759 0 32791
0.17550000 0.17549800 8235.40655481 0 -23.38887160 0 2033.43371724 0 159.60150347 0 -575.96195094 0 33633
0.17650000 0.17650100 8204.92191002 0 8.36180767 0 1931.09883298 0 197.45214668 0 -495.92177334 0 33984
0.17750000 0.17750300 8172.02052533 0 52.62164511 0 1948.10593754 0 92.82787909 0 -374.38673357 0 34069
0.17850000 0.17849800 8158.28445014 0 32.17883566 0 1874.86185737 0 373.56953826 0 -173.12962662 0 34536
