### header ###
fiducial parameters:
Omega_m = 0.31
Omega_nu = 0
Omega_de = 0.69
Omega_k = 0
H_0 = 100
w_de = -1
zeff = 0
beta = 0
fgrowth = 0
b_1 = 2
gamma = 0.55
Lx = 3500 Ly = 3500 Lz = 3500
nx = 700 ny = 700 nz = 700
xoffset = 857.220397 yoffset = 15.9954215 zoffset = 262.898189
bins = 400 dk = 0.001
kx_ny = 0.628318531 ky_ny = 0.628318531 kz_ny = 0.628318531
############################
A(data) = 3.08144512 (not used)
A(ran) = 3.07730578 (used)
Ngal = 187900
weighted Ngal = 0
Nran = 9360983
weighted Nran = 0
SN(data) = 3457.58044
SN(ran) = 69.1047227
SN(data+ran) = 3526.68516
############################
13 columns: k_central k_mean P_0(k) sigma^{lin}_{P_0(k)} P^img_1(k) sigma^{lin}_{P_1(k)} P_2(k) sigma^{lin}_{P_2(k)} P^img_3(k) sigma^{lin}_{P_3(k)} P_4(k) sigma^{lin}_{P_4(k)} N_modes
### header ###
0.00050000 0 0 0 0 0 0 0 0 0 0 0 0
0.00150000 0.00179520 13458.20630720 0 -23832.09046033 0 1949.91568231 0 41037.48009521 0 -72627.41806404 0 3
0.00250000 0.00253879 30649.88234819 0 -37430.46768214 0 -6117.69043839 0 14494.93152412 0 72221.63057265 0 6
0.00350000 0.00331552 40186.00080234 0 -28125.56941353 0 14385.78480552 0 -44796.57851267 0 -44299.29212433 0 7
0.00450000 0.00420575 59741.47328555 0 -23537.92263070 0 -4136.22224948 0 -4221.30273487 0 15470.05797503 0 24
0.00550000 0.00557378 70360.62843762 0 -7782.40833035 0 -6805.30352491 0 10029.16711716 0 26702.39062448 0 45
0.00650000 0.00659388 89584.27691126 0 -1435.95940893 0 -31796.65353577 0 18874.62626844 0 43224.12388191 0 40
0.00750000 0.00754703 75609.67510948 0 3583.00238311 0 -5109.48275237 0 28914.55068834 0 27789.13673716 0 57
0.00850000 0.00846663 85980.18706738 0 1044.59142430 0 -32371.16319463 0 27744.84857328 0 54730.05397015 0 75
0.00950000 0.00948925 76065.70830963 0 1165.77912796 0 -20421.56462204 0 23948.65600841 0 52070.74082021 0 112
0.01050000 0.01054430 83621.33651148 0 6080.22534950 0 -28332.62220000 0 15910.35426417 0 46849.45855567 0 105
0.01150000 0.01145670 71842.82064301 0 7257.70599488 0 -17510.68570874 0 8185.52054686 0 58650.00609957 0 144
0.01250000 0.01249090 67675.01216498 0 10325.22337611 0 -4344.35413842 0 -4006.37025224 0 47238.94710350 0 169
0.01350000 0.01339930 60372.63582409 0 6614.41479419 0 4204.76773764 0 -15656.87759018 0 52318.59716883 0 180
0.01450000 0.01448870 57388.35546152 0 3107.45541328 0 15600.44952351 0 -3212.37564720 0 33411.37301328 0 267
0.01550000 0.01550050 59596.01926509 0 1932.63880213 0 27936.50166824 0 -6347.85400276 0 9025.11847191 0 238
0.01650000 0.01653350 60217.40243750 0 -2963.53012132 0 26538.83915635 0 122.13641458 0 16669.32300152 0 315
0.01750000 0.01747870 66113.91059146 0 -2566.44289360 0 31659.63000336 0 3284.07975822 0 4483.25485950 0 297
0.01850000 0.01844180 67391.74776655 0 -5209.53578453 0 20188.43352587 0 9713.24862836 0 357.37962902 0 388
0.01950000 0.01947590 75949.70479409 0 -5666.70429041 0 11365.98398664 0 13005.88252179 0 -19298.28639449 0 399
0.02050000 0.02045430 78485.14597297 0 -7757.63393614 0 6433.31667027 0 5344.88445998 0 -19567.05035347 0 462
0.02150000 0.02154770 81794.95558071 0 -395.58547679 0 -2087.84970743 0 447.45433552 0 -21194.92139233 0 571
0.02250000 0.02255340 82593.15418912 0 3015.81038787 0 -2588.83426985 0 -13077.48546694 0 -22472.08412838 0 510
0.02350000 0.02348930 75394.41664798 0 8896.42426169 0 2731.60177479 0 -9341.23929242 0 -11433.09067151 0 555
0.02450000 0.02439640 70149.86623642 0 9198.64039725 0 11111.16967522 0 -9164.68239139 0 -9731.89686793 0 592
0.02550000 0.02547300 62637.17732036 0 6617.02262516 0 12797.70567025 0 -2503.39408365 0 -964.11735759 0 837
0.02650000 0.02652900 60741.32916807 0 3692.07041715 0 21464.02257083 0 2706.29906999 0 -0.65261420 0 723
0.02750000 0.02749970 58964.51950702 0 1302.16194328 0 26969.35607935 0 866.38776794 0 4211.41096222 0 826
0.02850000 0.02848090 57309.33368689 0 144.61546791 0 20159.20783397 0 -1746.99945531 0 2608.08950456 0 831
0.02950000 0.02946900 57430.39549526 0 655.02644005 0 28739.75856948 0 -2866.32097380 0 5517.54085521 0 996
0.03050000 0.03053250 59665.82370613 0 -410.58949738 0 19282.21226394 0 -840.13073189 0 -1696.65258069 0 1041
0.03150000 0.03150510 58757.35431405 0 -1435.70087397 0 26727.90690164 0 -2174.47016196 0 -14226.50478466 0 1036
0.03250000 0.03246190 59180.00278154 0 955.11134822 0 12492.63440941 0 -157.82435659 0 -18518.85967280 0 1059
0.03350000 0.03345080 58829.85651127 0 494.35145443 0 18014.37926799 0 -2480.92402284 0 -27587.14224352 0 1302
0.03450000 0.03451200 57813.36446566 0 1713.07517140 0 13350.85809272 0 -1459.90199499 0 -25672.97183054 0 1339
0.03550000 0.03553350 55734.63092598 0 2899.51461541 0 18122.06470200 0 -4198.52917648 0 -27540.83076251 0 1365
0.03650000 0.03647120 55461.37070671 0 2163.00469821 0 17413.67889293 0 -444.75995154 0 -25688.70874156 0 1308
0.03750000 0.03744890 52593.43107921 0 3024.75794585 0 23225.09532085 0 -3696.99382217 0 -18976.12934454 0 1579
0.03850000 0.03847530 51814.11676403 0 3928.95589065 0 22081.58392199 0 -660.17128589 0 -16637.73677297 0 1662
0.03950000 0.03950240 48099.30651045 0 2628.81726450 0 24933.22460593 0 2407.01674428 0 -14986.03555456 0 1683
0.04050000 0.04050350 47674.74713234 0 2125.80938494 0 25079.01584591 0 2145.15454485 0 -11818.08295904 0 1822
0.04150000 0.04152450 46139.83627502 0 791.04955454 0 25638.46303280 0 2920.62455748 0 -14232.23751654 0 1887
0.04250000 0.04250150 46228.41260278 0 -292.16137347 0 23230.71564622 0 3532.88032150 0 -12025.69777804 0 1920
0.04350000 0.04349210 45092.20762689 0 -631.88531239 0 15756.58216217 0 4843.98982276 0 -8363.13406906 0 2005
0.04450000 0.04448520 46900.15389047 0 -830.75378105 0 17148.96156821 0 3236.72289669 0 -11221.74395646 0 2151
0.04550000 0.04548030 46186.70978857 0 545.37276810 0 14655.67282957 0 3546.52647148 0 -8300.08525911 0 2274
0.04650000 0.04648670 44854.91748996 0 1821.78350462 0 15647.54785008 0 1384.91561396 0 -7401.04677300 0 2311
0.04750000 0.04749250 43401.83856997 0 2778.36288183 0 16541.40439620 0 -175.18891384 0 -1363.40100846 0 2568
0.04850000 0.04851840 41154.72008233 0 1632.37853981 0 19580.98876037 0 587.50497517 0 266.74176591 0 2493
0.04950000 0.04949480 40395.52653196 0 1004.69947892 0 20576.46078911 0 1761.44369150 0 4739.14827339 0 2644
0.05050000 0.05050630 39647.46122582 0 -99.46694463 0 20266.21882893 0 3337.86627196 0 3825.46321937 0 2829
0.05150000 0.05149060 40489.38596557 0 205.37680544 0 20044.10357049 0 2592.42003744 0 3536.24127607 0 2784
0.05250000 0.05249300 39361.83629074 0 -61.80289622 0 18731.75759765 0 3292.35287716 0 4794.85693841 0 3055
0.05350000 0.05348950 40098.32372664 0 622.36672935 0 16267.02011186 0 2022.85626490 0 3071.21555532 0 3009
0.05450000 0.05448610 37559.28553952 0 840.14422068 0 13190.22919377 0 1565.27185494 0 1534.71976625 0 3336
0.05550000 0.05550870 37187.66962635 0 1350.02463409 0 12260.51497181 0 1755.48614661 0 -345.42182477 0 3349
0.05650000 0.05647670 36282.46002299 0 789.05771123 0 10150.07155642 0 568.86348000 0 -3486.23162096 0 3324
0.05750000 0.05747970 35561.82190462 0 906.32692405 0 10727.12160235 0 -869.72286901 0 -3726.81526856 0 3639
0.05850000 0.05849280 35518.43299280 0 571.57472496 0 10973.69651678 0 -978.20076889 0 -3027.30957357 0 3846
0.05950000 0.05951020 34484.74275158 0 -93.24074819 0 12210.94370209 0 926.90293521 0 -207.06627525 0 3787
0.06050000 0.06049470 35907.47191460 0 115.94056790 0 12815.12867888 0 278.79848789 0 -1533.67438574 0 3930
0.06150000 0.06148310 36163.08431222 0 -587.64323518 0 12435.98152972 0 2054.55489996 0 1590.24858087 0 4083
0.06250000 0.06249100 36514.12983455 0 610.44601925 0 14333.29096661 0 -435.31218460 0 897.22087289 0 4303
0.06350000 0.06350600 35431.54276265 0 1027.89118951 0 15952.16948489 0 -885.30016279 0 4710.75438965 0 4470
0.06450000 0.06451750 34911.88747936 0 1118.38854448 0 16923.92374058 0 113.57665905 0 5808.42641483 0 4479
0.06550000 0.06550280 34375.93325250 0 991.31860829 0 16618.74007323 0 165.44214559 0 5139.12434835 0 4636
0.06650000 0.06648880 33765.34110480 0 201.09411751 0 16869.85621056 0 2616.45254870 0 6461.91288572 0 4653
0.06750000 0.06749660 33604.59979934 0 249.49635956 0 15772.99351223 0 2993.47521487 0 5244.91011238 0 5220
0.06850000 0.06852730 32970.73950462 0 926.26334219 0 15315.04940145 0 2448.51722678 0 6060.04838144 0 5029
0.06950000 0.06949320 31815.98745503 0 1018.78064209 0 15407.55995697 0 1532.68520847 0 5463.32719674 0 5040
0.07050000 0.07048030 31285.31633402 0 1330.16240425 0 14650.38972373 0 1015.27917939 0 6834.18075663 0 5475
0.07150000 0.07148790 30028.94880181 0 1208.17886252 0 14096.33804920 0 771.26263706 0 5529.91681167 0 5509
0.07250000 0.07249820 28877.90616696 0 1102.72244956 0 13845.55913139 0 -125.32763533 0 5084.77580207 0 5916
0.07350000 0.07351270 28204.81600119 0 732.39021870 0 16103.69345674 0 -492.87218480 0 4290.92732549 0 5721
0.07450000 0.07449140 27905.70228524 0 311.09512557 0 14288.77798971 0 -815.80596371 0 3129.31847895 0 6028
0.07550000 0.07549160 28078.58349348 0 237.01811318 0 16686.63360365 0 -1059.38861692 0 4046.92652008 0 6183
0.07650000 0.07648840 28046.32282588 0 197.89390425 0 15835.49153030 0 -233.23226202 0 1539.66565258 0 6330
0.07750000 0.07749960 27959.20778272 0 200.45227636 0 16703.26976673 0 355.95656263 0 2477.82160324 0 6583
0.07850000 0.07848650 27797.23000568 0 125.28267272 0 14811.91787473 0 879.08745513 0 1034.66480564 0 6549
0.07950000 0.07947320 27796.89278616 0 240.78597931 0 15495.79906521 0 2477.21460810 0 1191.47525553 0 6828
0.08050000 0.08048110 27203.83605359 0 483.21871395 0 13073.77605220 0 1917.72245861 0 -358.07542530 0 7147
0.08150000 0.08149960 26446.44100734 0 493.16219359 0 10941.40212723 0 2909.72112627 0 382.42717104 0 7386
0.08250000 0.08250610 25978.82993693 0 451.45375905 0 10394.42082201 0 1857.66366176 0 -124.51268815 0 7227
0.08350000 0.08350160 25787.96368752 0 385.80386252 0 7277.41085561 0 2350.94837843 0 -130.60399678 0 7798
0.08450000 0.08449610 24924.34449186 0 290.75404400 0 7506.23678254 0 878.51980227 0 -285.26186206 0 7371
0.08550000 0.08548940 24662.88695585 0 386.68625360 0 6279.66821542 0 -405.79760797 0 -393.20920322 0 8256
0.08650000 0.08650700 23927.86080455 0 597.95091190 0 8189.93812260 0 -169.26171871 0 265.10512717 0 8037
0.08750000 0.08749060 23602.44396589 0 590.19261476 0 6616.19081701 0 117.97849788 0 545.49416713 0 8155
0.08850000 0.08849210 23424.27965181 0 516.54274711 0 9134.17526530 0 668.56355572 0 2309.58278374 0 8718
0.08950000 0.08949900 22553.80365920 0 618.91360144 0 7530.13440599 0 1416.77161813 0 1385.91603188 0 8571
0.09050000 0.09049190 22323.03309969 0 842.82623994 0 9468.30360828 0 1117.46793519 0 3674.98462804 0 8932
0.09150000 0.09150830 21201.66578277 0 1047.10595787 0 8174.08880507 0 187.72448753 0 2452.48517649 0 9285
0.09250000 0.09250820 20637.72233559 0 821.64435770 0 8907.97965065 0 31.85263198 0 2941.45348329 0 9204
0.09350000 0.09350330 20021.17264300 0 442.70403652 0 8765.68425304 0 -851.24099108 0 3286.15927860 0 9349
0.09450000 0.09448040 19692.04638959 0 150.39878272 0 8394.24819029 0 81.53462211 0 1471.36745873 0 9564
0.09550000 0.09549270 19394.84358427 0 250.01567762 0 9057.26673300 0 -518.13667138 0 2041.92040854 0 10155
0.09650000 0.09649430 19333.69444429 0 375.71875068 0 8731.61384068 0 261.69134154 0 708.38243687 0 9913
0.09750000 0.09749140 18920.37571691 0 512.71642960 0 8624.76021483 0 345.67473941 0 2318.46289782 0 10476
0.09850000 0.09850240 18548.31017772 0 356.64449046 0 8596.84967906 0 1323.29436666 0 1068.26760694 0 10575
0.09950000 0.09950330 18302.47714623 0 175.86447695 0 8034.91830837 0 750.28308654 0 2506.38409674 0 10882
0.10050000 0.10051200 18233.90917677 0 312.71377927 0 8621.81516434 0 1042.51302798 0 2845.28971628 0 10875
0.10150000 0.10150300 17742.58033332 0 291.85337964 0 7406.62213576 0 623.56498272 0 2290.49615880 0 11118
0.10250000 0.10250800 17582.73827992 0 476.36978546 0 8223.77248130 0 213.90396309 0 3943.11911058 0 11575
0.10350000 0.10349800 17039.70244311 0 349.42012423 0 6999.19350936 0 568.99049935 0 3310.72010045 0 11364
0.10450000 0.10450100 16818.59884323 0 466.20036874 0 7467.64762858 0 486.86630511 0 2864.90465181 0 12093
0.10550000 0.10551000 16386.39582262 0 249.94261339 0 5720.52452611 0 237.61723987 0 2252.57020324 0 12067
0.10650000 0.10649700 15975.66244491 0 294.87261843 0 6253.46625857 0 -359.51535265 0 1210.08977314 0 12054
0.10750000 0.10749900 15986.45346962 0 165.62761633 0 5384.42906925 0 -1099.82236167 0 -498.22947894 0 12807
0.10850000 0.10850100 15506.14046388 0 182.70778511 0 5434.33755850 0 -1058.82096406 0 -1271.34007898 0 12736
0.10950000 0.10950300 15543.68423732 0 119.30601873 0 5379.32581382 0 -796.67100397 0 -2523.99819644 0 12933
0.11050000 0.11050200 15256.82283067 0 83.86739436 0 5298.46057246 0 -11.72062652 0 -3434.08624222 0 13428
0.11150000 0.11150900 15345.17434541 0 126.47193357 0 5600.01350962 0 119.72979126 0 -3259.02434774 0 13453
0.11250000 0.11250000 15323.59229601 0 210.24737940 0 5200.53202330 0 1115.16809805 0 -3157.67864075 0 13668
0.11350000 0.11349100 15042.80084075 0 246.66483964 0 5491.47378617 0 1077.35230086 0 -1631.95139508 0 13791
0.11450000 0.11448600 14792.24673596 0 191.64635057 0 5431.25762020 0 715.35838472 0 -375.46808417 0 14205
0.11550000 0.11549300 14901.39345455 0 42.10028362 0 5329.23747417 0 1083.22329273 0 456.41987854 0 14776
0.11650000 0.11649800 14701.98431059 0 258.73167820 0 5635.44404073 0 577.44908903 0 1229.51361761 0 14553
0.11750000 0.11747300 14684.44889544 0 278.32750462 0 5222.00166619 0 18.49637837 0 961.89395687 0 14568
0.11850000 0.11849100 14413.32439981 0 78.27663190 0 5854.31075111 0 136.25579597 0 2166.07339586 0 16015
0.11950000 0.11950300 14572.60442067 0 -36.66891360 0 5221.75437188 0 -261.82510528 0 940.80312391 0 15270
0.12050000 0.12050700 14726.37652267 0 -282.97101744 0 5520.57583091 0 434.82883662 0 1072.71440836 0 15999
0.12150000 0.12150000 15007.05557142 0 -285.95316208 0 5668.79505145 0 142.85068575 0 188.95421472 0 15670
0.12250000 0.12250700 15291.21922190 0 -36.01133553 0 4994.60330190 0 -103.19085981 0 207.57435266 0 16887
0.12350000 0.12352200 15198.37144687 0 218.55871655 0 5722.89630342 0 -98.70865033 0 23.74801039 0 16407
0.12450000 0.12449800 14940.84813862 0 457.28990491 0 5257.90430463 0 -381.59985915 0 19.23297821 0 16306
0.12550000 0.12549900 14669.27401696 0 654.86569874 0 6191.67640150 0 -332.71202099 0 278.76589000 0 17523
0.12650000 0.12650100 13994.49775358 0 683.73843421 0 5988.92878427 0 -270.59843318 0 324.20397245 0 17154
0.12750000 0.12750600 13567.80265183 0 391.85133261 0 6023.12284379 0 506.71617024 0 798.67521200 0 18007
0.12850000 0.12850300 13307.69399391 0 112.86175366 0 5826.49014055 0 454.97882712 0 287.52235692 0 17496
0.12950000 0.12949900 13135.71203773 0 -37.41270745 0 5089.05849000 0 831.16181668 0 697.59028811 0 18405
0.13050000 0.13049000 13367.15703628 0 -134.07848192 0 5041.19579918 0 922.16612499 0 430.27637307 0 18100
0.13150000 0.13148800 13254.75052897 0 -37.06098749 0 4213.51296391 0 586.29997741 0 524.02227610 0 19059
0.13250000 0.13249300 13394.47181756 0 11.35474334 0 3701.06293773 0 356.17013500 0 427.36392047 0 18957
0.13350000 0.13349100 13218.66804012 0 104.17374231 0 3878.19311195 0 -140.06300437 0 322.58756687 0 19468
0.13450000 0.13450700 13135.48722471 0 272.71055145 0 3691.72195698 0 -322.84947404 0 57.01201848 0 19953
0.13550000 0.13551000 12952.71424383 0 377.02828649 0 4214.20988425 0 -108.48902812 0 -41.54308457 0 19956
0.13650000 0.13649900 12625.94852708 0 327.42104669 0 4167.16776095 0 -295.83931439 0 -508.87437518 0 19723
0.13750000 0.13749600 12247.81303649 0 282.38875173 0 3779.64632699 0 51.88099864 0 -1057.14385897 0 20946
0.13850000 0.13851100 12061.66786038 0 150.96193932 0 3956.13578412 0 166.92703555 0 -1033.52275553 0 20955
0.13950000 0.13949800 11974.44041071 0 36.24716438 0 3542.79457544 0 516.68437931 0 -1075.77860975 0 20506
0.14050000 0.14048300 11987.59197207 0 -1.21754232 0 3164.32186533 0 575.66182556 0 -1342.14493793 0 21447
0.14150000 0.14148400 11955.33130447 0 -48.51667187 0 2771.42740033 0 555.60738059 0 -1225.36581749 0 21771
0.14250000 0.14249400 12051.77608774 0 87.14426886 0 2909.64244172 0 175.92517646 0 -861.60824325 0 22470
0.14350000 0.14350900 11978.82426450 0 203.89528767 0 2624.47837332 0 32.86159279 0 -959.61997323 0 22519
0.14450000 0.14449900 11809.42765798 0 273.29731342 0 2833.19477610 0 -245.20692724 0 -652.19492013 0 22218
0.14550000 0.14550500 11636.54644974 0 283.43975257 0 3247.83990026 0 -29.21265275 0 -0.94435854 0 23559
0.14650000 0.14650700 11450.62608665 0 229.24295507 0 3007.71711934 0 -44.80871842 0 -375.96829313 0 23044
0.14750000 0.14750500 11306.29613126 0 169.70347628 0 3703.58084350 0 -54.84616989 0 333.26618507 0 23649
0.14850000 0.14849900 11222.49708006 0 222.66155407 0 3319.13934785 0 269.98469365 0 -268.97415915 0 23640
0.14950000 0.14949500 11011.92596992 0 166.66737652 0 3882.92542591 0 108.21689197 0 835.20058248 0 24457
0.15050000 0.15050000 10929.90294153 0 182.28850884 0 3570.09811607 0 550.41644808 0 717.23782152 0 24591
0.15150000 0.15149900 10745.21905002 0 100.20410650 0 3713.12415597 0 348.49052242 0 1314.86387861 0 25020
0.15250000 0.15250500 10610.65722012 0 133.96495135 0 3246.32241241 0 531.66704266 0 996.17681754 0 25297
0.15350000 0.15350100 10563.92983503 0 103.39094339 0 3210.84691870 0 276.64590327 0 1137.08174665 0 25452
0.15450000 0.15450400 10280.58675206 0 209.84384004 0 3010.89822350 0 25.22683040 0 1103.39464047 0 26061
0.15550000 0.15549900 10244.60542907 0 209.03900945 0 3195.59335566 0 -176.50744217 0 599.92814236 0 26128
0.15650000 0.15649500 9988.52092411 0 164.07303433 0 3161.98380998 0 -402.95484740 0 772.35185612 0 26331
0.15750000 0.15749700 9898.01120443 0 240.45550418 0 3376.80388610 0 -166.87195636 0 235.31290647 0 27345
0.15850000 0.15849900 9686.21486335 0 247.99348456 0 3546.79624710 0 -429.30742898 0 689.52287308 0 26980
0.15950000 0.15949700 9598.18932748 0 288.23951043 0 3768.24830715 0 -54.78131134 0 230.58958503 0 27777
0.16050000 0.16050000 9296.10807974 0 300.70988836 0 3674.08537598 0 -170.83765794 0 509.46675747 0 28224
0.16150000 0.16150500 9105.29803358 0 256.89720400 0 3770.41775274 0 394.76715741 0 672.88783406 0 28075
0.16250000 0.16249700 8874.99958140 0 33.79895065 0 3426.46508103 0 613.92949691 0 598.25440947 0 28590
0.16350000 0.16349900 8922.79482831 0 -97.00355602 0 3169.34643621 0 852.61572266 0 965.94845959 0 29163
0.16450000 0.16449100 9000.62509397 0 -165.48036380 0 2757.32038366 0 753.36639703 0 683.61366299 0 28996
0.16550000 0.16550500 9062.58356080 0 -24.45313641 0 2508.39617322 0 225.85727107 0 652.50853428 0 30777
0.16650000 0.16650700 8988.09176840 0 141.93344865 0 2609.22481028 0 -121.08878593 0 591.55835382 0 29211
0.16750000 0.16749900 8990.21625139 0 164.11912100 0 2633.76315083 0 -341.97544125 0 810.22947689 0 30922
0.16850000 0.16850800 8787.88453824 0 246.44901915 0 2839.78179742 0 -412.70611191 0 629.28984613 0 30867
0.16950000 0.16949900 8654.60414252 0 206.26369278 0 2874.77394315 0 -148.71942950 0 728.72351843 0 30852
0.17050000 0.17049200 8505.01356259 0 198.74482151 0 3087.59318344 0 -76.75891924 0 415.79504273 0 31257
0.17150000 0.17149500 8392.88807155 0 114.22299647 0 2821.59442454 0 326.48357642 0 499.83014760 0 32608
0.17250000 0.17250900 8261.18136693 0 30.10336191 0 2791.51444319 0 355.57887677 0 468.88800833 0 32361
0.17350000 0.17350400 8243.43237943 0 3.31328297 0 2561.89043005 0 370.86616176 0 348.67711722 0 32508
0.17450000 0.17449800 8237.28374348 0 70.79935104 0 2443.85235673 0 174.98208586 0 351.02528916 0 32791
0.17550000 0.17549800 8254.93156513 0 146.80289855 0 2567.03864809 0 -108.24735413 0 411.18075561 0 33633
0.17650000 0.17650100 8044.05695741 0 118.06617495 0 2533.92369103 0 -136.69755354 0 781.30728255 0 33984
0.17750000 0.17750300 8045.70933307 0 128.12880549 0 2639.67573311 0 177.75403033 0 882.95536305 0 34069
