### header ###
fiducial parameters:
Omega_m = 0.31
Omega_nu = 0
Omega_de = 0.69
Omega_k = 0
H_0 = 100
w_de = -1
zeff = 0
beta = 0
fgrowth = 0
b_1 = 2
gamma = 0.55
Lx = 3500 Ly = 3500 Lz = 3500
nx = 700 ny = 700 nz = 700
xoffset = 857.220397 yoffset = 15.9954215 zoffset = 262.898189
bins = 400 dk = 0.001
kx_ny = 0.628318531 ky_ny = 0.628318531 kz_ny = 0.628318531
############################
A(data) = 3.0625181 (not used)
A(ran) = 3.06449696 (used)
Ngal = 187007
weighted Ngal = 0
Nran = 9360983
weighted Nran = 0
SN(data) = 3435.65302
SN(ran) = 68.8170847
SN(data+ran) = 3504.47011
############################
13 columns: k_central k_mean P_0(k) sigma^{lin}_{P_0(k)} P^img_1(k) sigma^{lin}_{P_1(k)} P_2(k) sigma^{lin}_{P_2(k)} P^img_3(k) sigma^{lin}_{P_3(k)} P_4(k) sigma^{lin}_{P_4(k)} N_modes
### header ###
0.00050000 0 0 0 0 0 0 0 0 0 0 0 0
0.00150000 0.00179520 13341.75316563 0 -12157.77542413 0 3288.85703478 0 -18278.75937319 0 -7617.65411258 0 3
0.00250000 0.00253879 25674.88274116 0 -9874.48452245 0 4602.06853773 0 -14703.78281470 0 26034.02153202 0 6
0.00350000 0.00331552 30648.19625058 0 -3166.59247678 0 3051.70178566 0 -8600.53661250 0 4592.42405940 0 7
0.00450000 0.00420575 35481.33884539 0 1312.57078586 0 15718.47635619 0 -21323.06481066 0 16098.18553788 0 24
0.00550000 0.00557378 42128.94728119 0 -6787.70066586 0 21883.97328214 0 9203.63124617 0 15248.16752960 0 45
0.00650000 0.00659388 42762.58276289 0 -4027.55887887 0 29295.04671559 0 18064.84978978 0 6443.98404781 0 40
0.00750000 0.00754703 53351.95019053 0 -10662.03823461 0 5054.41480444 0 31994.15176911 0 5790.66618667 0 57
0.00850000 0.00846663 55094.36346034 0 -6971.02443863 0 9417.38346047 0 28840.13758050 0 5554.78113108 0 75
0.00950000 0.00948925 69005.34317899 0 -11075.82906932 0 -21348.13146179 0 23372.90987796 0 18207.26883454 0 112
0.01050000 0.01054430 68216.13709117 0 -7369.85396722 0 -5522.44177893 0 -3812.52523038 0 9606.05778299 0 105
0.01150000 0.01145670 78589.45921175 0 -1862.27232856 0 -10739.84601897 0 -14747.39653954 0 14569.79425799 0 144
0.01250000 0.01249090 76885.15174792 0 5438.38419276 0 10552.63298105 0 -31327.35636775 0 9820.31582658 0 169
0.01350000 0.01339930 75077.99232990 0 11300.11377336 0 14996.82657926 0 -30358.52468125 0 18916.44148916 0 180
0.01450000 0.01448870 70964.13897537 0 4166.08865848 0 44255.79080600 0 -8012.44824756 0 17650.06977780 0 267
0.01550000 0.01550050 70473.93419699 0 -2015.08897524 0 48094.02340460 0 17193.13732559 0 -9191.67119379 0 238
0.01650000 0.01653350 75496.14453709 0 -3173.67408674 0 46823.04302645 0 16081.09974877 0 913.88513760 0 315
0.01750000 0.01747870 78341.04083060 0 2187.36318835 0 44771.28704852 0 9965.57875597 0 3192.04131003 0 297
0.01850000 0.01844180 71680.73045947 0 6982.20888611 0 46214.92382190 0 2041.87544594 0 11079.15630194 0 388
0.01950000 0.01947590 68180.61663486 0 6210.67310124 0 43886.19820996 0 11541.78776407 0 13389.97555726 0 399
0.02050000 0.02045430 66103.90641231 0 363.65640838 0 37164.62629235 0 13576.79517241 0 15101.58944407 0 462
0.02150000 0.02154770 67745.94067109 0 -3369.59862898 0 33548.84617172 0 13566.00414771 0 10384.37168026 0 571
0.02250000 0.02255340 72288.06281847 0 -4015.93604601 0 26315.71223934 0 17305.76864591 0 2710.28950100 0 510
0.02350000 0.02348930 72000.18975325 0 -2699.18373808 0 14821.47242786 0 9318.08355191 0 6734.65603506 0 555
0.02450000 0.02439640 73171.80277894 0 -3710.14538352 0 3818.67386633 0 2418.17871046 0 -2980.52598523 0 592
0.02550000 0.02547300 77186.73840703 0 -576.07548151 0 5950.22722380 0 -1542.86923803 0 -3842.91994996 0 837
0.02650000 0.02652900 74651.63444767 0 4159.28806478 0 -2832.50909640 0 -3565.24215495 0 -9398.60033310 0 723
0.02750000 0.02749970 68551.10848295 0 7307.47959631 0 11697.47077670 0 -10929.32966835 0 2493.56975491 0 826
0.02850000 0.02848090 63570.03892453 0 7017.18979119 0 9709.53921362 0 -5512.32519327 0 -5718.64733744 0 831
0.02950000 0.02946900 58147.99863792 0 2555.76427540 0 15162.17655151 0 -706.69296707 0 -7590.80019799 0 996
0.03050000 0.03053250 58903.70758657 0 -114.03864980 0 17618.25873623 0 -2462.61300280 0 -13037.91837637 0 1041
0.03150000 0.03150510 59386.60594197 0 706.12868640 0 24607.80776727 0 -8217.56764210 0 -11771.43425851 0 1036
0.03250000 0.03246190 60022.71436684 0 636.09943235 0 20408.30065417 0 -1519.80342273 0 -15073.82503677 0 1059
0.03350000 0.03345080 60643.19828719 0 1109.10826324 0 28160.41543080 0 -1353.84645534 0 -8693.44059079 0 1302
0.03450000 0.03451200 59192.25509083 0 2868.08575596 0 24682.67050114 0 4241.53590618 0 -7768.14394457 0 1339
0.03550000 0.03553350 57547.97270190 0 2961.66417330 0 25634.07917901 0 7328.08370910 0 -7353.13911958 0 1365
0.03650000 0.03647120 54292.56784370 0 3593.16393137 0 27189.56042717 0 8702.05092925 0 -4305.87739097 0 1308
0.03750000 0.03744890 52534.53006937 0 2802.82253782 0 28549.67916562 0 3618.44415486 0 -286.68830063 0 1579
0.03850000 0.03847530 48877.60916706 0 2142.96261796 0 28246.96844143 0 1660.22163167 0 1675.99226464 0 1662
0.03950000 0.03950240 48381.33443729 0 488.28262710 0 26913.15282569 0 1150.67169338 0 452.40134591 0 1683
0.04050000 0.04050350 47406.20798637 0 -1181.15633816 0 21894.98911985 0 5274.59667096 0 -6685.92781414 0 1822
0.04150000 0.04152450 49220.56142086 0 -804.40794387 0 20757.43526588 0 2833.03740699 0 -253.39236910 0 1887
0.04250000 0.04250150 48995.07396720 0 212.32240353 0 11838.09131734 0 3093.17978685 0 -13683.80616737 0 1920
0.04350000 0.04349210 47208.37253351 0 2231.98857175 0 13203.26834862 0 2150.97720193 0 -10786.84317968 0 2005
0.04450000 0.04448520 44671.58247654 0 3772.50851378 0 6074.33524852 0 -2913.14952475 0 -12040.08581098 0 2151
0.04550000 0.04548030 41836.91517520 0 2895.44549984 0 12523.20897940 0 -2974.62464359 0 -12076.05589332 0 2274
0.04650000 0.04648670 40369.78544179 0 2807.29631681 0 12014.56953382 0 -5464.48498376 0 -13629.51382434 0 2311
0.04750000 0.04749250 38389.63240902 0 910.87489134 0 15743.65541383 0 -4243.19952249 0 -13226.19927611 0 2568
0.04850000 0.04851840 39542.69836100 0 70.73134510 0 21851.71261454 0 -3566.59103304 0 -12181.15597765 0 2493
0.04950000 0.04949480 41222.95083227 0 -1040.86065232 0 25427.36361207 0 -1321.02375521 0 -11654.53149091 0 2644
0.05050000 0.05050630 41456.41914795 0 -1050.05100836 0 23646.39491025 0 4690.03787035 0 -10523.57589891 0 2829
0.05150000 0.05149060 42202.12391745 0 -857.48742069 0 23842.43185900 0 3744.75534713 0 -10078.51357387 0 2784
0.05250000 0.05249300 44111.46085061 0 -503.13827111 0 20378.06330371 0 8719.19292162 0 -5653.19302823 0 3055
0.05350000 0.05348950 42761.79591734 0 1462.49858531 0 19106.29608000 0 6506.44834392 0 -5536.69492406 0 3009
0.05450000 0.05448610 40564.92313848 0 1932.14421350 0 15730.05422644 0 4708.74231316 0 -1517.11690721 0 3336
0.05550000 0.05550870 39417.02788583 0 2301.66936563 0 13135.71203773 0 2176.89814252 0 721.02816894 0 3349
0.05650000 0.05647670 36597.98508900 0 1895.35356366 0 14108.81517151 0 2485.69005875 0 2051.65481207 0 3324
0.05750000 0.05747970 35469.76097514 0 744.27720685 0 8662.37143217 0 2649.07291712 0 1904.40228750 0 3639
0.05850000 0.05849280 34251.38684240 0 -22.83729287 0 9076.39832055 0 3665.73357249 0 -2399.89017172 0 3846
0.05950000 0.05951020 33863.13476615 0 373.15813045 0 4340.97070255 0 1175.44608759 0 -3015.42820575 0 3787
0.06050000 0.06049470 33035.71046585 0 1348.06876087 0 4497.40683877 0 82.84719290 0 -4866.93199090 0 3930
0.06150000 0.06148310 31638.60998649 0 1146.09674853 0 3396.50874683 0 -1894.49927420 0 -5143.18222327 0 4083
0.06250000 0.06249100 30440.24421206 0 1145.28742168 0 5417.93744908 0 -2104.38470465 0 -3874.60734437 0 4303
0.06350000 0.06350600 31042.06865220 0 332.14998845 0 9006.69504536 0 -2722.72166071 0 -3248.64922711 0 4470
0.06450000 0.06451750 30909.76619309 0 -74.34869891 0 10340.78043672 0 -1401.00098516 0 -1149.19916813 0 4479
0.06550000 0.06550280 32058.67310431 0 427.12112241 0 14500.88906901 0 -1797.13275757 0 2413.71617212 0 4636
0.06650000 0.06648880 32506.38822292 0 379.73503519 0 17981.66897437 0 519.08313417 0 4752.17618759 0 4653
0.06750000 0.06749660 31646.47844200 0 948.86154642 0 18555.72900720 0 468.67893223 0 5586.70457916 0 5220
0.06850000 0.06852730 30897.85110332 0 1219.76797342 0 18013.48001594 0 1552.67108547 0 5771.45591457 0 5029
0.06950000 0.06949320 30445.41491140 0 968.49109479 0 18866.75781292 0 225.71226668 0 6554.32227538 0 5040
0.07050000 0.07048030 29287.74029261 0 725.29511996 0 16249.48469672 0 -115.47183276 0 2899.30104304 0 5475
0.07150000 0.07148790 29253.11908836 0 546.24953886 0 17967.50575445 0 257.86614809 0 3399.56620383 0 5509
0.07250000 0.07249820 28672.31466509 0 114.43881696 0 16313.44399938 0 501.29817658 0 3873.61816711 0 5916
0.07350000 0.07351270 29121.26625529 0 -283.19695452 0 16562.98644561 0 2001.25173419 0 4064.16967830 0 5721
0.07450000 0.07449140 28920.62063974 0 -237.08106083 0 14707.37982294 0 4174.04703919 0 4968.21025399 0 6028
0.07550000 0.07549160 29354.28494494 0 -625.68047318 0 13582.41549778 0 5218.06743844 0 7470.44655061 0 6183
0.07650000 0.07648840 29327.86941572 0 126.13808624 0 12299.40762334 0 5039.57714548 0 7872.42346140 0 6330
0.07750000 0.07749960 28664.89583561 0 328.09323760 0 10167.21354878 0 4034.55056362 0 9392.26060609 0 6583
0.07850000 0.07848650 27944.37012375 0 432.69311298 0 7505.52862154 0 3326.26592041 0 9777.74748226 0 6549
0.07950000 0.07947320 27025.44692649 0 1181.98814632 0 7037.76018202 0 774.67867082 0 10316.17465227 0 6828
0.08050000 0.08048110 25721.86866122 0 1050.20388121 0 5746.31057889 0 494.77522697 0 8011.80753047 0 7147
0.08150000 0.08149960 24742.35835652 0 995.71932305 0 6090.01595629 0 -1100.40575144 0 8027.12853741 0 7386
0.08250000 0.08250610 23666.51567506 0 799.93304082 0 5763.11535173 0 -1232.64975916 0 5103.60389204 0 7227
0.08350000 0.08350160 23800.27941876 0 186.53635075 0 7164.70085073 0 -851.51638702 0 5448.98412640 0 7798
0.08450000 0.08449610 23605.36653508 0 -92.60936084 0 6733.82422691 0 -548.15482916 0 3148.98961773 0 7371
0.08550000 0.08548940 23971.69934240 0 15.05763850 0 6942.21465081 0 607.55042762 0 2537.26216430 0 8256
0.08650000 0.08650700 23385.16218726 0 371.76091756 0 6755.37255436 0 -346.02657178 0 -209.08846831 0 8037
0.08750000 0.08749060 23451.36962007 0 974.06196129 0 7098.72947159 0 -174.40993674 0 -611.87807815 0 8155
0.08850000 0.08849210 22390.25219106 0 1286.90838024 0 6347.41561738 0 -661.97653439 0 -730.09038156 0 8718
0.08950000 0.08949900 21464.80941638 0 921.79743165 0 7369.35937859 0 -100.10496396 0 -624.23155330 0 8571
0.09050000 0.09049190 20538.01776361 0 746.00152267 0 6765.39921481 0 145.91488714 0 -69.37156358 0 8932
0.09150000 0.09150830 20332.76348126 0 582.05101144 0 8087.74936680 0 -59.97606567 0 -921.46133619 0 9285
0.09250000 0.09250820 19877.17990713 0 394.67386001 0 7118.19827865 0 -493.84225296 0 680.30104322 0 9204
0.09350000 0.09350330 19719.92320341 0 539.23649687 0 8648.47798787 0 428.85892701 0 736.43685297 0 9349
0.09450000 0.09448040 19447.56223620 0 169.93728182 0 8846.27971878 0 -758.95524858 0 1588.86598083 0 9564
0.09550000 0.09549270 19421.82114602 0 8.98084155 0 9565.36662735 0 426.90530192 0 932.96164596 0 10155
0.09650000 0.09649430 19522.98700260 0 116.28565588 0 9137.04163124 0 -86.68542549 0 1603.74860239 0 9913
0.09750000 0.09749140 19506.91287205 0 158.81353385 0 9677.07621431 0 606.46907702 0 1633.39019837 0 10476
0.09850000 0.09850240 19229.26879900 0 251.67929393 0 8245.81539738 0 1088.88633257 0 1213.85539114 0 10575
0.09950000 0.09950330 18837.41971452 0 220.15376489 0 8281.81920168 0 1876.49175173 0 1491.03859751 0 10882
0.10050000 0.10051200 18627.55676537 0 400.38411058 0 7266.45122114 0 966.76003457 0 1393.45850852 0 10875
0.10150000 0.10150300 18140.38696269 0 237.45537450 0 6352.44018826 0 1807.06949282 0 1106.33069844 0 11118
0.10250000 0.10250800 17885.78622363 0 218.62278826 0 6479.02115614 0 974.66558423 0 2306.42416089 0 11575
0.10350000 0.10349800 17429.75302347 0 348.77940714 0 4860.25504437 0 330.42567263 0 648.10894359 0 11364
0.10450000 0.10450100 17070.16460659 0 358.10240286 0 5445.66813444 0 162.72528031 0 2028.42038701 0 12093
0.10550000 0.10551000 16386.50822913 0 650.06594088 0 4904.30715458 0 99.76628316 0 974.50034667 0 12067
0.10650000 0.10649700 16175.97084094 0 567.87205460 0 4628.86624907 0 386.49741067 0 643.04840263 0 12054
0.10750000 0.10749900 15557.73505074 0 416.65158032 0 4191.72858279 0 392.57073426 0 -289.22081924 0 12807
0.10850000 0.10850100 14868.12112839 0 369.99051507 0 4086.35872284 0 184.32419069 0 -494.19296126 0 12736
0.10950000 0.10950300 14872.39257567 0 297.86937592 0 3644.32013284 0 -612.46034386 0 -964.43209581 0 12933
0.11050000 0.11050200 14618.91590168 0 158.65728881 0 4115.44952693 0 -905.18599800 0 -751.74324707 0 13428
0.11150000 0.11150900 14785.27753250 0 114.37474525 0 4390.68810073 0 -663.47154094 0 -581.20234231 0 13453
0.11250000 0.11250000 14713.44977433 0 -16.96439008 0 4599.91033279 0 34.44506325 0 -481.34826967 0 13668
0.11350000 0.11349100 14979.96560316 0 -54.31561118 0 4810.11050146 0 218.78465363 0 -217.56167083 0 13791
0.11450000 0.11448600 15076.97241897 0 -87.64728798 0 4626.48323111 0 1181.15633816 0 52.36164886 0 14205
0.11550000 0.11549300 14934.21615469 0 57.21019115 0 4931.18355048 0 840.05991579 0 696.63932905 0 14776
0.11650000 0.11649800 15002.22209161 0 117.00730565 0 4342.69052211 0 571.95690708 0 1065.10561188 0 14553
0.11750000 0.11747300 14766.61805229 0 281.46027398 0 4901.42954800 0 -2.31222434 0 1441.90571317 0 14568
0.11850000 0.11849100 14782.91699585 0 412.90619550 0 4949.52829247 0 -311.93592624 0 2197.49101466 0 16015
0.11950000 0.11950300 14239.20671999 0 273.81775555 0 5098.35450815 0 -2.87207619 0 1643.39437752 0 15270
0.12050000 0.12050700 14172.54966116 0 215.09996832 0 5073.89485216 0 131.98097649 0 2164.69079582 0 15999
0.12150000 0.12150000 13925.81737761 0 194.70043538 0 5235.87262919 0 98.22518994 0 761.35175531 0 15670
0.12250000 0.12250700 13776.99116193 0 260.64820915 0 4967.62574015 0 98.23575615 0 1020.67131955 0 16887
0.12350000 0.12352200 13503.50612965 0 366.18105854 0 4776.82693464 0 -250.85085797 0 -160.87619326 0 16407
0.12450000 0.12449800 13072.65198713 0 253.27771447 0 4635.28466064 0 -71.28416030 0 198.25360507 0 16306
0.12550000 0.12549900 12842.78067968 0 208.76586164 0 4219.96509743 0 444.96340732 0 -276.47504538 0 17523
0.12650000 0.12650100 12883.13461580 0 82.71826263 0 4322.92945812 0 668.00939164 0 228.40327846 0 17154
0.12750000 0.12750600 12633.14254355 0 12.90988736 0 3633.48414554 0 736.01757669 0 -43.42724244 0 18007
0.12850000 0.12850300 12711.26506613 0 133.63335215 0 3755.59133443 0 1063.61510160 0 952.31804652 0 17496
0.12950000 0.12949900 12509.94501153 0 27.27768713 0 3300.18761071 0 554.96104317 0 1039.89957669 0 18405
0.13050000 0.13049000 12529.16652428 0 92.78021873 0 3278.98774344 0 70.38074920 0 884.32559837 0 18100
0.13150000 0.13148800 12580.08667210 0 11.42960607 0 3313.44033793 0 -339.94762786 0 1016.13908917 0 19059
0.13250000 0.13249300 12429.12473278 0 217.61000563 0 3656.39259173 0 -935.01643691 0 -34.43595833 0 18957
0.13350000 0.13349100 12424.85328550 0 204.62368184 0 3651.87385014 0 -1136.18249459 0 -271.68765223 0 19468
0.13450000 0.13450700 12194.86957154 0 207.61706713 0 4469.77731927 0 -745.06967273 0 -998.50363224 0 19953
0.13550000 0.13551000 12001.75519199 0 341.31673912 0 4750.15287046 0 -491.79645452 0 -1033.54748496 0 19956
0.13650000 0.13649900 11850.79325267 0 337.41848145 0 4534.08508211 0 300.18832216 0 -1153.74039103 0 19723
0.13750000 0.13749600 11577.19581388 0 231.30224229 0 4917.00908991 0 434.92438215 0 -541.69257905 0 20946
0.13850000 0.13851100 11415.10563034 0 178.62742890 0 3932.56413954 0 927.26151197 0 -416.15249543 0 20955
0.13950000 0.13949800 11418.47782556 0 -7.26718186 0 4410.60653383 0 897.13094769 0 -3.52014466 0 20506
0.14050000 0.14048300 11372.61597057 0 -10.32370589 0 3505.26204265 0 423.82199142 0 277.02246507 0 21447
0.14150000 0.14148400 11376.88741785 0 -52.27903008 0 3580.54068060 0 381.56164093 0 279.97201182 0 21771
0.14250000 0.14249400 11391.05063777 0 -49.08499917 0 3159.26357250 0 -94.38886825 0 292.74251512 0 22470
0.14350000 0.14350900 11575.06009024 0 -97.35741170 0 3132.85928393 0 170.99165485 0 -358.33396026 0 22519
0.14450000 0.14449900 11592.25828586 0 0.45763837 0 3204.05756566 0 -129.25174650 0 -336.38546565 0 22218
0.14550000 0.14550500 11564.49387855 0 91.58657403 0 2898.33434708 0 -145.15277102 0 -659.98356702 0 23559
0.14650000 0.14650700 11378.12388943 0 246.44115069 0 3085.68227282 0 -129.55299593 0 -1044.65886821 0 23044
0.14750000 0.14750500 11228.48834690 0 357.25260966 0 3117.38090788 0 -94.36470085 0 -838.81557576 0 23649
0.14850000 0.14849900 10770.52175482 0 397.69309880 0 2996.10552714 0 58.62954812 0 -995.94076387 0 23640
0.14950000 0.14949500 10603.09226218 0 321.24206098 0 3315.93576239 0 216.43535763 0 -491.39516329 0 24457
0.15050000 0.15050000 10176.47584499 0 291.72411216 0 2961.12462206 0 359.38046485 0 -626.70674460 0 24591
0.15150000 0.15149900 10041.75664598 0 161.75970841 0 3123.79931944 0 350.34747792 0 -201.28296044 0 25020
0.15250000 0.15250500 9863.42372213 0 107.38721954 0 3014.57391629 0 294.42411647 0 -10.18015154 0 25297
0.15350000 0.15350100 9852.01446164 0 29.04808962 0 2934.12457901 0 466.05873654 0 399.01612339 0 25452
0.15450000 0.15450400 9839.26756371 0 17.89354227 0 2945.51135820 0 179.76835495 0 601.78284973 0 26061
0.15550000 0.15549900 9900.47290694 0 -16.31940154 0 2728.45439258 0 134.04251184 0 500.22806664 0 26128
0.15650000 0.15649500 9977.72989941 0 75.75119490 0 2997.55557108 0 72.46959933 0 763.74151766 0 26331
0.15750000 0.15749700 9955.85559309 0 56.26518964 0 2872.31224064 0 -109.65041216 0 343.89984066 0 27345
0.15850000 0.15849900 9923.06661491 0 131.48638786 0 2983.27994466 0 -70.65884290 0 1077.42311696 0 26980
0.15950000 0.15949700 9734.43725499 0 254.70977337 0 2844.21061381 0 59.94807645 0 492.54957812 0 27777
0.16050000 0.16050000 9519.50477236 0 261.26644494 0 2952.19954538 0 165.73327844 0 825.78316530 0 28224
0.16150000 0.16150500 9372.34217299 0 145.19211330 0 2753.74585673 0 381.98541347 0 496.25674473 0 28075
0.16250000 0.16249700 9170.50504847 0 45.11187877 0 2597.48957092 0 395.25837385 0 368.43593307 0 28590
0.16350000 0.16349900 9203.91226244 0 -30.25106406 0 2293.32880279 0 283.26664655 0 457.51921418 0 29163
0.16450000 0.16449100 9233.61006167 0 -54.96858058 0 2213.37405414 0 16.81972291 0 140.15068144 0 28996
0.16550000 0.16550500 9315.83542177 0 63.31352727 0 2416.73990716 0 -338.90561954 0 249.82683469 0 30777
0.16650000 0.16650700 9292.57851541 0 114.39497842 0 2507.03605449 0 -123.41447657 0 52.35299356 0 29211
0.16750000 0.16749900 9228.90022901 0 124.62284652 0 2591.29597236 0 -176.25789972 0 91.48799352 0 30922
0.16850000 0.16850800 9056.96323543 0 162.39592924 0 2463.06262883 0 67.26652692 0 -153.01448214 0 30867
0.16950000 0.16949900 8919.16409812 0 244.10309534 0 2434.97224265 0 254.70640117 0 85.02203400 0 30852
0.17050000 0.17049200 8654.91888074 0 265.59746767 0 2267.91369148 0 273.27820431 0 -135.83202343 0 31257
0.17150000 0.17149500 8500.57350555 0 205.33184284 0 2101.09119399 0 286.38030680 0 45.84420716 0 32608
0.17250000 0.17250900 8288.48490756 0 145.07858272 0 2010.68264016 0 265.31982359 0 402.55243211 0 32361
0.17350000 0.17350400 8204.68585636 0 59.37233032 0 1808.31720505 0 298.26055056 0 248.76346913 0 32508
0.17450000 0.17449800 8126.92303460 0 66.40841564 0 1997.98070483 0 252.64823802 0 618.35718923 0 32791
0.17550000 0.17549800 8167.87272522 0 -13.10243971 0 1619.54171667 0 141.00047464 0 413.06019241 0 33633
0.17650000 0.17650100 8055.38753335 0 26.33032509 0 1837.19443677 0 -47.88135029 0 551.13135347 0 33984
0.17750000 0.17750300 8192.32114056 0 -2.20407804 0 1735.91617369 0 -100.70791247 0 443.90228989 0 34069
