### header ###
fiducial parameters:
Omega_m = 0.31
Omega_nu = 0
Omega_de = 0.69
Omega_k = 0
H_0 = 100
w_de = -1
zeff = 0
beta = 0
fgrowth = 0
b_1 = 2
gamma = 0.55
Lx = 3500 Ly = 3500 Lz = 3500
nx = 700 ny = 700 nz = 700
xoffset = 857.220397 yoffset = 15.9954215 zoffset = 262.898189
bins = 400 dk = 0.001
kx_ny = 0.628318531 ky_ny = 0.628318531 kz_ny = 0.628318531
############################
A(data) = 3.11191441 (not used)
A(ran) = 3.11344431 (used)
Ngal = 189945
weighted Ngal = 0
Nran = 9360983
weighted Nran = 0
SN(data) = 3446.50159
SN(ran) = 69.9162583
SN(data+ran) = 3516.41785
############################
13 columns: k_central k_mean P_0(k) sigma^{lin}_{P_0(k)} P^img_1(k) sigma^{lin}_{P_1(k)} P_2(k) sigma^{lin}_{P_2(k)} P^img_3(k) sigma^{lin}_{P_3(k)} P_4(k) sigma^{lin}_{P_4(k)} N_modes
### header ###
0.00050000 0 0 0 0 0 0 0 0 0 0 0 0
0.00150000 0.00179520 28629.93741183 0 -31810.02991014 0 -16811.06760724 0 29781.09245320 0 -56805.07809509 0 3
0.00250000 0.00253879 50284.60141906 0 -28080.04477807 0 5972.09028947 0 -59630.30324982 0 7918.21787248 0 6
0.00350000 0.00331552 64855.85696164 0 -19800.74348216 0 -43836.40212723 0 27709.44052347 0 68152.51500803 0 7
0.00450000 0.00420575 73566.12480658 0 -12186.21427048 0 -31210.79081967 0 -35765.72730888 0 12770.50329548 0 24
0.00550000 0.00557378 105680.32672550 0 -32474.57718136 0 -67520.56562393 0 -20150.10290688 0 -9365.31676629 0 45
0.00650000 0.00659388 123317.80697448 0 -49421.65666244 0 -56106.47165216 0 -11100.05267165 0 -14500.32703647 0 40
0.00750000 0.00754703 153912.61013410 0 -23348.63007239 0 -92962.99170798 0 -49262.26423508 0 -39694.22233286 0 57
0.00850000 0.00846663 166347.01797272 0 -5719.22061063 0 -68748.38190328 0 -53027.88222996 0 -35600.37733663 0 75
0.00950000 0.00948925 140960.00829678 0 17050.38106130 0 -42548.33595996 0 -65794.78851720 0 -15282.22670132 0 112
0.01050000 0.01054430 125226.46946861 0 30213.85750634 0 -34468.33140151 0 -41250.26561355 0 -23040.97346188 0 105
0.01150000 0.01145670 100703.30380134 0 20320.73598498 0 3248.88528078 0 -20372.66779136 0 -5225.45254597 0 144
0.01250000 0.01249090 81652.53653595 0 15977.57335554 0 17206.28888694 0 -5150.85958772 0 -8313.06821071 0 169
0.01350000 0.01339930 82302.58336772 0 8856.43002639 0 30176.42613940 0 -2638.68655585 0 16760.03505292 0 180
0.01450000 0.01448870 75348.10516697 0 3001.20878257 0 38858.92957704 0 16000.61668954 0 23541.51963893 0 267
0.01550000 0.01550050 81279.34693168 0 3718.66579678 0 44722.95225038 0 29240.86677906 0 30861.76861447 0 238
0.01650000 0.01653350 77812.39302672 0 1515.12731203 0 38389.07037648 0 31776.64517747 0 43604.05787662 0 315
0.01750000 0.01747870 80437.53459844 0 3973.81732772 0 44804.89659421 0 33556.26500120 0 50126.78268280 0 297
0.01850000 0.01844180 69529.60712908 0 4955.05869263 0 28261.46888087 0 26102.47709497 0 50150.16323632 0 388
0.01950000 0.01947590 64309.44892961 0 8457.29700024 0 23276.35268819 0 19078.86889222 0 45082.87788679 0 399
0.02050000 0.02045430 57084.18345274 0 7770.72929424 0 22757.70906346 0 5038.17206414 0 46992.43963297 0 462
0.02150000 0.02154770 50474.11879038 0 3592.18599475 0 18956.90783179 0 2520.95198009 0 41005.10702110 0 571
0.02250000 0.02255340 51040.75999373 0 -3620.89461672 0 17714.25389348 0 3122.95627064 0 28187.61780557 0 510
0.02350000 0.02348930 54786.25722381 0 -6391.36656174 0 17384.11598151 0 -4587.07350965 0 14128.48631029 0 555
0.02450000 0.02439640 62265.56140719 0 -6601.73534017 0 9441.25860262 0 2049.94623316 0 2899.53709671 0 592
0.02550000 0.02547300 64502.00127663 0 -4157.44459806 0 6385.15048188 0 -6584.33481284 0 -9492.07758458 0 837
0.02650000 0.02652900 69329.63595258 0 -1587.16864257 0 -650.26377633 0 -6030.87889279 0 -23266.57332205 0 723
0.02750000 0.02749970 65988.24011628 0 -1451.96609557 0 4026.59218290 0 -4466.39388340 0 -24308.13201878 0 826
0.02850000 0.02848090 67939.39227017 0 1630.80484870 0 787.75491981 0 -740.67907455 0 -29969.82297897 0 831
0.02950000 0.02946900 64844.84112393 0 2972.91606468 0 1280.47872802 0 -3164.63660355 0 -22915.64020623 0 996
0.03050000 0.03053250 61117.55374804 0 5020.33315143 0 2355.61324849 0 -2179.07882876 0 -18888.56467534 0 1041
0.03150000 0.03150510 56690.53586414 0 4707.19110336 0 7224.97321995 0 1328.85848877 0 -11247.50752794 0 1036
0.03250000 0.03246190 52752.71110006 0 3642.73520109 0 7150.84112838 0 3358.57155061 0 -6866.29529577 0 1059
0.03350000 0.03345080 52340.17921824 0 2411.89518670 0 7037.05202103 0 5288.75989088 0 -2893.75940223 0 1302
0.03450000 0.03451200 49546.87751158 0 757.98967668 0 4487.51506613 0 4434.99874591 0 -1891.31817004 0 1339
0.03550000 0.03553350 50097.21977137 0 330.13678790 0 4565.26664723 0 1116.99133159 0 -2420.28071214 0 1365
0.03650000 0.03647120 48103.12833170 0 449.33714452 0 5454.97539324 0 1041.10569851 0 -3402.33140391 0 1308
0.03750000 0.03744890 48532.29637661 0 139.68194631 0 1787.82549876 0 -3619.36588822 0 -4874.29461713 0 1579
0.03850000 0.03847530 47434.08480019 0 982.70714577 0 6126.25581425 0 -4179.18401658 0 -3291.07144297 0 1662
0.03950000 0.03950240 46704.34175473 0 2218.42110632 0 7664.97725216 0 -5209.33345282 0 -5071.19709599 0 1683
0.04050000 0.04050350 45394.13150553 0 1785.36379625 0 13682.34488278 0 -2181.93395404 0 -1622.76778343 0 1822
0.04150000 0.04152450 45214.95553288 0 1831.72023987 0 14611.49707220 0 -3636.50788059 0 168.95597301 0 1887
0.04250000 0.04250150 45145.82553088 0 1448.71754751 0 19225.89660378 0 -1301.26269122 0 -1392.73910687 0 1920
0.04350000 0.04349210 43910.14079602 0 65.74218227 0 21456.82855436 0 -2076.12570871 0 3660.13572842 0 2005
0.04450000 0.04448520 45192.58663792 0 259.60282863 0 24685.14344430 0 343.60983187 0 1954.07472308 0 2151
0.04550000 0.04548030 46818.09714013 0 154.84670821 0 25756.15264595 0 -897.87283063 0 7287.94334534 0 2274
0.04650000 0.04648670 45536.55055029 0 1083.71675730 0 27953.47505084 0 2247.72548277 0 4323.08682723 0 2311
0.04750000 0.04749250 45547.11676198 0 2528.14599656 0 29597.42022025 0 1590.32726542 0 12534.33722362 0 2568
0.04850000 0.04851840 42734.48113607 0 2927.48135443 0 29694.42703606 0 3174.67450465 0 6935.34661321 0 2493
0.04950000 0.04949480 41165.96073306 0 2828.91208817 0 31360.51628741 0 1404.49682754 0 12430.13639134 0 2644
0.05050000 0.05050630 38625.68607437 0 1179.08805843 0 30297.15072826 0 3521.34741385 0 8117.86307011 0 2829
0.05150000 0.05149060 38596.79760199 0 65.54063740 0 27552.85825879 0 2075.93461765 0 6431.37203769 0 2784
0.05250000 0.05249300 39086.21553482 0 -1081.59452244 0 25685.33654634 0 1453.41613952 0 2940.44182472 0 3055
0.05350000 0.05348950 39556.97398743 0 -238.27032167 0 22346.18884020 0 2337.38091300 0 -3806.53396354 0 3009
0.05450000 0.05448610 38051.17641551 0 1128.69622120 0 22890.91077462 0 2526.79711847 0 -1079.44306189 0 3336
0.05550000 0.05550870 36850.67491744 0 902.49498622 0 17071.17626516 0 2261.06813519 0 -5775.37890168 0 3349
0.05650000 0.05647670 35977.83838818 0 1191.30664577 0 19039.63902117 0 2360.57037546 0 -4314.53269203 0 3324
0.05750000 0.05747970 35608.58301166 0 1236.75259668 0 16484.97632954 0 2454.60965948 0 -3970.63622356 0 3639
0.05850000 0.05849280 34857.81994934 0 259.25774065 0 17203.47872426 0 2247.37702260 0 -1994.92324783 0 3846
0.05950000 0.05951020 34291.40355901 0 426.35001377 0 17499.10783849 0 920.45192576 0 1726.17052950 0 3787
0.06050000 0.06049470 34521.94930550 0 378.16134409 0 14905.32768231 0 725.13325459 0 1237.44951702 0 3930
0.06150000 0.06148310 34552.52387549 0 440.69533223 0 17986.61486069 0 1829.59575688 0 3359.86422545 0 4083
0.06250000 0.06249100 33516.81031713 0 902.13416133 0 18313.49298395 0 930.95968606 0 1184.11262930 0 4303
0.06350000 0.06350600 33325.38203518 0 651.55083084 0 16710.57618971 0 1920.40897414 0 2690.98930370 0 4470
0.06450000 0.06451750 31436.50308635 0 246.55692939 0 14690.85606636 0 3515.88445759 0 -808.12073081 0 4479
0.06550000 0.06550280 31710.43774466 0 -40.78377861 0 12625.27408803 0 2163.93767222 0 -899.68707166 0 4636
0.06650000 0.06648880 31897.14495330 0 -616.23720250 0 9945.44675051 0 3447.21532228 0 -3370.52036234 0 4653
0.06750000 0.06749660 31198.65091688 0 68.87360275 0 8004.91701157 0 3136.60242063 0 -2508.89076186 0 5220
0.06850000 0.06852730 31777.65683603 0 204.99349925 0 4918.12191433 0 811.43672277 0 -4935.46623841 0 5029
0.06950000 0.06949320 29857.19165864 0 931.08782948 0 4434.83013615 0 41.99698204 0 -3896.83011086 0 5040
0.07050000 0.07048030 29838.86939795 0 1723.73130830 0 4815.32616340 0 -1344.71904695 0 -3714.24822104 0 5475
0.07150000 0.07148790 28278.89188951 0 1409.82489598 0 4070.16094514 0 -285.95428614 0 -3928.39385812 0 5509
0.07250000 0.07249820 27278.24916143 0 832.03971150 0 4808.46936645 0 205.45998626 0 -2635.87639316 0 5916
0.07350000 0.07351270 27333.10353700 0 117.15343411 0 5444.44290351 0 288.10574669 0 -4111.27924551 0 5721
0.07450000 0.07449140 26742.07012156 0 467.23900487 0 5835.08923836 0 -211.55129489 0 -3500.75454171 0 6028
0.07550000 0.07549160 27105.48035970 0 371.17415559 0 7168.08428660 0 -1218.76755551 0 -2662.25820043 0 6183
0.07650000 0.07648840 26825.02612396 0 446.22573239 0 7573.14113569 0 -1482.22592734 0 -2489.25334503 0 6330
0.07750000 0.07749960 26997.23289316 0 55.78015556 0 8515.28751736 0 -1123.80204187 0 -944.80254744 0 6583
0.07850000 0.07848650 27163.03249144 0 -202.05406908 0 10173.38466604 0 -131.93713796 0 -1720.24670657 0 6549
0.07950000 0.07947320 27377.27929437 0 -29.26503418 0 10093.36247348 0 384.50781549 0 -1259.87461523 0 6828
0.08050000 0.08048110 27255.09342093 0 267.79951115 0 9526.99104575 0 334.64428885 0 -2614.92382020 0 7147
0.08150000 0.08149960 27055.68427696 0 464.66264772 0 10803.13088259 0 845.84772686 0 -354.79315528 0 7386
0.08250000 0.08250610 26667.31979420 0 510.85947410 0 10509.98595218 0 187.64805111 0 -446.00878783 0 7227
0.08350000 0.08350160 25901.71907292 0 726.03587884 0 9474.81194506 0 857.59195874 0 -199.71601373 0 7798
0.08450000 0.08449610 25113.97426969 0 1085.58495345 0 9672.05164343 0 469.93114072 0 1213.76546593 0 7371
0.08550000 0.08548940 24146.71627429 0 874.73732330 0 8384.37889894 0 1982.73838244 0 1256.25512570 0 8256
0.08650000 0.08650700 23003.54209494 0 856.12168162 0 8868.86218610 0 1577.23190732 0 2871.95253982 0 8037
0.08750000 0.08749060 22733.20444486 0 443.25820060 0 6709.15099855 0 1581.62700175 0 2047.25971764 0 8155
0.08850000 0.08849210 21843.84415903 0 -63.17920150 0 6615.88731944 0 1749.87706190 0 3052.00528323 0 8718
0.08950000 0.08949900 22366.87163754 0 158.53364165 0 5819.93684118 0 528.00371459 0 2926.00882918 0 8571
0.09050000 0.09049190 21945.68445465 0 112.87749058 0 5805.38019848 0 -518.44691334 0 2131.44095096 0 8932
0.09150000 0.09150830 21985.58876475 0 509.63536723 0 6275.70026572 0 -542.06576866 0 798.33349622 0 9285
0.09250000 0.09250820 21245.39191411 0 353.20597540 0 6597.62126200 0 -1263.22432915 0 1752.22635790 0 9204
0.09350000 0.09350330 21313.17303802 0 439.01597901 0 6426.67344568 0 -386.32992497 0 845.91404670 0 9349
0.09450000 0.09448040 20714.83319961 0 102.61646256 0 6867.26199174 0 882.44278938 0 -312.52381227 0 9564
0.09550000 0.09549270 20942.56878342 0 153.25840426 0 6166.37369671 0 588.53012252 0 25.47423713 0 10155
0.09650000 0.09649430 20595.00786281 0 134.36961477 0 5712.27388848 0 760.75487676 0 -712.93602448 0 9913
0.09750000 0.09749140 20349.51205085 0 495.17202194 0 5761.68778909 0 165.37807388 0 162.52969298 0 10476
0.09850000 0.09850240 19931.69706318 0 719.25889052 0 5366.74752566 0 -281.39058194 0 -341.75175230 0 10575
0.09950000 0.09950330 19246.35458811 0 747.19190759 0 5096.33119102 0 -184.49842077 0 -107.59056291 0 10882
0.10050000 0.10051200 18876.64958557 0 659.34847025 0 6381.19377283 0 -470.25149927 0 657.10034011 0 10875
0.10150000 0.10150300 18025.95713825 0 815.65421493 0 5723.96416524 0 136.65821126 0 184.71199314 0 11118
0.10250000 0.10250800 17586.44769466 0 623.48629816 0 6058.19367407 0 507.03540472 0 1574.48918854 0 11575
0.10350000 0.10349800 17015.42263753 0 388.30265918 0 5989.90672088 0 707.05041976 0 892.65829276 0 11364
0.10450000 0.10450100 16584.23127549 0 271.94169094 0 5475.12988000 0 1454.34911353 0 1907.54966970 0 12093
0.10550000 0.10551000 16348.40242315 0 189.75454905 0 5793.54379326 0 1015.75241079 0 867.16786910 0 12067
0.10650000 0.10649700 16134.38043324 0 305.69399289 0 5070.34280653 0 419.81694757 0 2054.89211948 0 12054
0.10750000 0.10749900 15598.98823892 0 302.31842548 0 5445.94915071 0 138.74222791 0 1880.33605428 0 12807
0.10850000 0.10850100 15741.40728368 0 3.69003586 0 5639.62556280 0 273.77841327 0 3378.28765199 0 12736
0.10950000 0.10950300 15831.10767651 0 -219.04543673 0 5875.83659726 0 579.19813428 0 3002.97356474 0 12933
0.11050000 0.11050200 16369.53484653 0 -209.09858490 0 5851.43314452 0 222.21642430 0 3636.94626596 0 13428
0.11150000 0.11150900 16420.34258783 0 -199.29898559 0 6049.04378438 0 258.35624047 0 3879.38462093 0 13453
0.11250000 0.11250000 16612.10808930 0 181.90070639 0 5507.61536062 0 162.40716989 0 3413.48212943 0 13668
0.11350000 0.11349100 16270.72952660 0 325.11334109 0 5931.79255660 0 300.74361031 0 4322.78332967 0 13791
0.11450000 0.11448600 15889.78387333 0 433.73062504 0 5420.41039224 0 341.64946238 0 2799.24801089 0 14205
0.11550000 0.11549300 15537.38947291 0 404.40489135 0 4999.88640775 0 214.92798637 0 3072.69932122 0 14776
0.11650000 0.11649800 14907.12618643 0 330.24694628 0 4265.77074916 0 276.43907530 0 1550.71521224 0 14553
0.11750000 0.11747300 14707.26741643 0 115.44597927 0 3571.37955025 0 390.72277128 0 773.10385565 0 14568
0.11850000 0.11849100 14601.04326702 0 51.32233829 0 3404.44464624 0 -33.04964887 0 443.01989881 0 16015
0.11950000 0.11950300 14547.31295653 0 -37.05637883 0 2742.37031819 0 -103.95589850 0 -1038.07634314 0 15270
0.12050000 0.12050700 14498.75334537 0 260.34246345 0 3360.13400106 0 -473.00770683 0 -242.77557449 0 15999
0.12150000 0.12150000 14491.10970287 0 324.89190027 0 3035.00941932 0 -205.04857844 0 -835.95370608 0 15670
0.12250000 0.12250700 14013.83167283 0 378.62108670 0 3294.11765932 0 112.79430976 0 -141.99414816 0 16887
0.12350000 0.12352200 13863.76898558 0 326.22166925 0 4182.80350611 0 161.93618663 0 -248.47121221 0 16407
0.12450000 0.12449800 13540.71268357 0 7.65522037 0 3224.21205242 0 593.44565908 0 -499.55699979 0 16306
0.12550000 0.12549900 13613.32728729 0 75.04955348 0 3399.56620383 0 343.16132991 0 -793.45168160 0 17523
0.12650000 0.12650100 13702.69046060 0 -48.06580937 0 2328.28722656 0 -40.13946451 0 -696.95856353 0 17154
0.12750000 0.12750600 13503.73094266 0 -44.58637834 0 2361.53707142 0 287.24021658 0 -994.53793066 0 18007
0.12850000 0.12850300 13676.16252487 0 -60.32452584 0 1845.22026140 0 155.15245391 0 -1189.96900833 0 17496
0.12950000 0.12949900 13519.46785368 0 71.07969286 0 1672.94604829 0 489.31114665 0 -1494.47823664 0 18405
0.13050000 0.13049000 13574.20982274 0 285.17530905 0 1741.07563237 0 -125.10844264 0 -1240.43953012 0 18100
0.13150000 0.13148800 13162.80200599 0 329.85914383 0 1977.75877417 0 260.27277142 0 -362.95499178 0 19059
0.13250000 0.13249300 12862.45181846 0 360.21452113 0 2298.42081757 0 -168.65921983 0 -78.82405159 0 18957
0.13350000 0.13349100 12766.11944169 0 142.17175045 0 2402.93638807 0 335.07143358 0 559.65963518 0 19468
0.13450000 0.13450700 12597.95930676 0 100.96509856 0 2718.16919717 0 140.31254681 0 629.59109557 0 19953
0.13550000 0.13551000 12620.21579521 0 236.57523154 0 2546.10855643 0 -287.00978324 0 194.65547277 0 19956
0.13650000 0.13649900 12576.93928989 0 168.70418243 0 2874.94255291 0 -535.42029594 0 -106.83328027 0 19723
0.13750000 0.13749600 12336.27695774 0 290.88443555 0 3059.07565253 0 -634.50775620 0 -768.71438154 0 20946
0.13850000 0.13851100 12240.39420701 0 225.34469740 0 3339.18142810 0 -760.61886488 0 -882.97334809 0 20955
0.13950000 0.13949800 12031.88013595 0 192.80076540 0 3682.25732906 0 -171.61663504 0 -1189.18216278 0 20506
0.14050000 0.14048300 11945.55193833 0 243.85242883 0 3685.06749174 0 82.38329124 0 -876.08058106 0 21447
0.14150000 0.14148400 11718.60320007 0 297.94693641 0 3596.83962416 0 485.85689468 0 -1065.52151596 0 21771
0.14250000 0.14249400 11442.30800511 0 260.39417044 0 3594.76010377 0 515.81660107 0 -440.96398379 0 22470
0.14350000 0.14350900 11285.83814693 0 201.58083769 0 3118.20147538 0 569.48059172 0 -421.39063867 0 22519
0.14450000 0.14449900 11083.75372809 0 42.67220793 0 3023.40906777 0 543.68442236 0 -0.62896274 0 22218
0.14550000 0.14550500 11085.66463871 0 -42.34566703 0 2692.66416066 0 231.94408344 0 10.13605446 0 23559
0.14650000 0.14650700 11103.13260995 0 -68.86899409 0 2752.48690385 0 167.97016794 0 -14.38657165 0 23044
0.14750000 0.14750500 11089.36281280 0 98.37873723 0 2301.32090546 0 60.55192420 0 259.40836537 0 23649
0.14850000 0.14849900 11068.39899919 0 95.74471554 0 2881.54081489 0 10.81222457 0 519.50241044 0 23640
0.14950000 0.14949500 10923.00118198 0 161.95192354 0 2652.41139039 0 -116.09568888 0 205.59262593 0 24457
0.15050000 0.15050000 10857.06352480 0 274.15272694 0 2930.77486509 0 272.83307454 0 561.86392679 0 24591
0.15150000 0.15149900 10649.63979686 0 250.51251439 0 3165.99672229 0 -212.80237931 0 763.72802888 0 25020
0.15250000 0.15250500 10442.30599412 0 265.43560230 0 3277.77375316 0 28.73301418 0 1058.76138861 0 25297
0.15350000 0.15350100 10220.94385928 0 181.24537645 0 3018.08099932 0 322.38411109 0 961.00931766 0 25452
0.15450000 0.15450400 10065.67675073 0 87.49913620 0 2869.56952186 0 439.52630456 0 1251.36544263 0 26061
0.15550000 0.15549900 10069.77958825 0 80.60265976 0 2669.75571447 0 503.01462395 0 952.79914637 0 26128
0.15650000 0.15649500 9929.76604274 0 169.37187708 0 2410.88352813 0 144.25351896 0 794.60946863 0 26331
0.15750000 0.15749700 9690.89097406 0 231.73725547 0 2227.94193749 0 -140.39460357 0 382.58454015 0 27345
0.15850000 0.15849900 9522.47230416 0 287.51673659 0 2387.19947704 0 -385.76452024 0 388.14866226 0 26980
0.15950000 0.15949700 9355.88586032 0 198.47054963 0 2599.79390432 0 -298.59552195 0 229.59366338 0 27777
0.16050000 0.16050000 9302.36912219 0 142.25380720 0 2628.49128563 0 -102.11085809 0 131.71344901 0 28224
0.16150000 0.16150500 9266.34283660 0 130.16785953 0 2807.12770705 0 -168.68956959 0 -431.52745750 0 28075
0.16250000 0.16249700 8926.44803980 0 255.20098981 0 2737.59304163 0 -87.87266302 0 -600.32943359 0 28590
0.16350000 0.16349900 8979.75120556 0 237.63297678 0 2866.71439658 0 267.66237521 0 -217.35821506 0 29163
0.16450000 0.16449100 8670.02631532 0 86.12305574 0 2409.61333460 0 268.98652386 0 -232.05536589 0 28996
0.16550000 0.16550500 8734.24415295 0 -83.11483279 0 2515.42157993 0 685.73589784 0 -121.14049293 0 30777
0.16650000 0.16650700 8852.25974497 0 -178.71847817 0 2175.36941402 0 512.30839398 0 -56.28654688 0 29211
0.16750000 0.16749900 9057.16556715 0 -76.10381412 0 1982.38992227 0 357.07051112 0 251.71076775 0 30922
0.16850000 0.16850800 8896.68279666 0 156.04720971 0 1921.72413027 0 14.51224213 0 293.19663741 0 30867
0.16950000 0.16949900 8878.85512460 0 163.58406602 0 1786.43165807 0 -18.84618742 0 620.54012360 0 30852
0.17050000 0.17049200 8572.24389461 0 206.25582433 0 2116.53584809 0 -242.04380813 0 301.69569342 0 31257
0.17150000 0.17149500 8599.90713606 0 156.54517054 0 2013.31295243 0 85.57091497 0 537.90897602 0 32608
0.17250000 0.17250900 8379.95008256 0 62.53174002 0 2095.35846211 0 164.37203564 0 532.02112316 0 32361
0.17350000 0.17350400 8430.69037996 0 -23.33974996 0 1747.97739192 0 421.10512614 0 481.64727098 0 32508
0.17450000 0.17449800 8455.67834653 0 -45.22889394 0 1750.13559686 0 269.83856519 0 469.91203161 0 32791
0.17550000 0.17549800 8387.51504050 0 156.55641119 0 1610.05460745 0 -0.65574247 0 281.82109887 0 33633
0.17650000 0.17650100 8214.22916883 0 259.76919026 0 1701.03643447 0 -115.34818561 0 523.12639624 0 33984
0.17750000 0.17750300 8064.90836452 0 241.50313283 0 1675.34030690 0 -186.36099660 0 346.38627260 0 34069
