### header ###
fiducial parameters:
Omega_m = 0.31
Omega_nu = 0
Omega_de = 0.69
Omega_k = 0
H_0 = 100
w_de = -1
zeff = 0
beta = 0
fgrowth = 0
b_1 = 2
gamma = 0.55
Lx = 3500 Ly = 3500 Lz = 3500
nx = 700 ny = 700 nz = 700
xoffset = 857.220397 yoffset = 15.9954215 zoffset = 262.898189
bins = 400 dk = 0.001
kx_ny = 0.628318531 ky_ny = 0.628318531 kz_ny = 0.628318531
############################
A(data) = 3.10397209 (not used)
A(ran) = 3.09705046 (used)
Ngal = 189174
weighted Ngal = 0
Nran = 9360983
weighted Nran = 0
SN(data) = 3462.91438
SN(ran) = 69.548114
SN(data+ran) = 3532.46249
############################
13 columns: k_central k_mean P_0(k) sigma^{lin}_{P_0(k)} P^img_1(k) sigma^{lin}_{P_1(k)} P_2(k) sigma^{lin}_{P_2(k)} P^img_3(k) sigma^{lin}_{P_3(k)} P_4(k) sigma^{lin}_{P_4(k)} N_modes
### header ###
0.00050000 0 0 0 0 0 0 0 0 0 0 0 0
0.00150000 0.00179520 15374.28763081 0 -11344.51434375 0 14169.40227895 0 -7918.61129526 0 -14998.28786385 0 3
0.00250000 0.00253879 24197.29920258 0 -10013.20539312 0 -4278.60757229 0 3727.79320517 0 -19086.40012821 0 6
0.00350000 0.00331552 34964.60613128 0 -7893.01633354 0 12628.98350278 0 8915.27483297 0 42244.95079673 0 7
0.00450000 0.00420575 42988.85706211 0 -1677.88069396 0 11545.38477231 0 4634.53153704 0 -4992.91720429 0 24
0.00550000 0.00557378 50947.79981219 0 3524.42735215 0 41300.96094834 0 13569.26393642 0 23611.43648648 0 45
0.00650000 0.00659388 47932.15803408 0 6631.38817680 0 10323.66092566 0 20391.43967808 0 -34706.29597749 0 40
0.00750000 0.00754703 54102.15122032 0 2045.52865742 0 57802.68584747 0 25286.96788444 0 44075.37836177 0 57
0.00850000 0.00846663 55991.81701471 0 -2762.87326512 0 41583.77572074 0 25350.70237408 0 -5378.29167396 0 75
0.00950000 0.00948925 62945.17115039 0 -4190.25605755 0 60611.38724562 0 25291.01451870 0 33660.57823998 0 112
0.01050000 0.01054430 62989.23450126 0 -4617.33334142 0 22195.22690088 0 24443.01982755 0 -9513.47978357 0 105
0.01150000 0.01145670 69317.72086280 0 -2217.35324450 0 36742.31504439 0 11322.48266831 0 13220.69135726 0 144
0.01250000 0.01249090 63076.46195093 0 3345.81341203 0 13202.25669006 0 9185.73613021 0 -6877.26617089 0 169
0.01350000 0.01339930 62650.21647521 0 2118.70529368 0 13642.10335316 0 14016.41702250 0 417.95886800 0 180
0.01450000 0.01448870 58219.93880260 0 -1236.87624384 0 5997.64028858 0 124.53854164 0 -802.33629194 0 267
0.01550000 0.01550050 62866.26178226 0 -4806.81699079 0 4451.93840656 0 -2298.84796230 0 -15955.87889963 0 238
0.01650000 0.01653350 66547.12527063 0 -6550.07330941 0 9856.58940648 0 -7169.14090777 0 184.38039394 0 315
0.01750000 0.01747870 73044.44620616 0 -5272.06752455 0 6387.24124292 0 -14280.23509516 0 -12976.43201687 0 297
0.01850000 0.01844180 75374.18347666 0 -2971.16252317 0 15173.75442176 0 -6343.58255548 0 2756.27500314 0 388
0.01950000 0.01947590 80633.00951465 0 1600.44385108 0 16020.28782832 0 1059.20427025 0 -16077.50274054 0 399
0.02050000 0.02045430 73405.04628161 0 4912.35546051 0 9615.03906293 0 4173.88967008 0 -13154.03429842 0 462
0.02150000 0.02154770 69523.08755166 0 6037.52211738 0 1258.43581194 0 11136.93324670 0 -11255.93801599 0 571
0.02250000 0.02255340 59565.10747558 0 4985.90303824 0 -1688.69419997 0 4044.91444359 0 -15488.94226826 0 510
0.02350000 0.02348930 63792.94102852 0 1205.12140552 0 -13177.19003893 0 2040.53780850 0 -5453.54783060 0 555
0.02450000 0.02439640 57227.16453004 0 -2054.80219428 0 -7495.95158712 0 2554.67393228 0 705.61723679 0 592
0.02550000 0.02547300 62416.63575302 0 -1351.47467804 0 -4070.85786548 0 -7046.06702291 0 18831.23735661 0 837
0.02650000 0.02652900 65502.08197217 0 -532.73602855 0 7856.90012274 0 -2815.32214143 0 24226.18767495 0 723
0.02750000 0.02749970 66403.13253476 0 2815.42330729 0 20441.34816732 0 -678.66103227 0 45740.11873503 0 826
0.02850000 0.02848090 63867.69135588 0 5215.35844161 0 22128.34502903 0 1250.90457595 0 41414.15430121 0 831
0.02950000 0.02946900 61904.39929921 0 5350.54974795 0 33680.58659828 0 7166.24081988 0 49905.56667641 0 996
0.03050000 0.03053250 56401.98835988 0 4041.36239796 0 30798.03412483 0 5986.74809802 0 42337.12413273 0 1041
0.03150000 0.03150510 53609.02387275 0 3122.39423810 0 24634.22329649 0 6602.02759709 0 34760.13869449 0 1036
0.03250000 0.03246190 50758.17003436 0 -502.47619678 0 19388.88603938 0 2942.04923777 0 27122.56614881 0 1059
0.03350000 0.03345080 52427.96870044 0 -1401.97892177 0 13701.22917601 0 3284.31581188 0 21541.58306087 0 1302
0.03450000 0.03451200 52313.98850203 0 -689.60380576 0 7950.96188806 0 1106.28236364 0 13020.49536774 0 1339
0.03550000 0.03553350 51937.65151556 0 983.52321701 0 8897.77313978 0 1938.24788685 0 7440.08555299 0 1365
0.03650000 0.03647120 49736.50728942 0 1731.18385973 0 8624.73773353 0 1765.59149162 0 12675.07017077 0 1308
0.03750000 0.03744890 48429.21960940 0 1749.27006676 0 9032.45861684 0 1994.64223156 0 5662.48904639 0 1579
0.03850000 0.03847530 48324.23193157 0 1730.17220116 0 11045.55799690 0 -1498.88457172 0 9454.74738350 0 1662
0.03950000 0.03950240 47169.81710150 0 1073.39783993 0 13359.28858077 0 91.47023329 0 8855.64318084 0 1683
0.04050000 0.04050350 47795.02209516 0 -190.53577428 0 12256.13111803 0 -2805.68890376 0 7344.14659900 0 1822
0.04150000 0.04152450 48176.64218748 0 -211.37481667 0 15023.35451498 0 -46.64937497 0 10481.22112695 0 1887
0.04250000 0.04250150 48682.13425085 0 69.75588143 0 10822.13882297 0 352.17633179 0 551.43597511 0 1920
0.04350000 0.04349210 48349.07376969 0 1228.14225822 0 13761.47906392 0 -161.97777703 0 417.23272196 0 2005
0.04450000 0.04448520 47239.84635556 0 2827.23723121 0 12176.54731085 0 333.18862458 0 -2451.63088703 0 2151
0.04550000 0.04548030 45510.92186662 0 2111.28646420 0 15152.05996585 0 -2064.45791325 0 -2434.17415645 0 2274
0.04650000 0.04648670 42024.40922939 0 2212.39611752 0 15415.09119296 0 -2341.07908709 0 -2737.57056033 0 2311
0.04750000 0.04749250 42092.30275981 0 727.17118457 0 18689.82997042 0 -2207.05680843 0 -5750.31225055 0 2568
0.04850000 0.04851840 42214.82585277 0 -237.09567367 0 20366.48543345 0 -1970.31746338 0 -5821.42060707 0 2493
0.04950000 0.04949480 42068.92220629 0 -114.67374656 0 21376.34549513 0 991.28825853 0 -7081.52003532 0 2644
0.05050000 0.05050630 42955.58473595 0 -326.95231155 0 18587.54004877 0 4419.94751458 0 -6507.56116834 0 2829
0.05150000 0.05149060 41450.34919656 0 1336.36724346 0 18129.25871846 0 2926.98676579 0 -7872.43470205 0 2784
0.05250000 0.05249300 40945.30675922 0 2450.40565610 0 16648.64020418 0 2569.56779450 0 -5997.97750810 0 3055
0.05350000 0.05348950 38285.99360928 0 2428.58755303 0 14605.53952731 0 3454.66787371 0 -3672.34307512 0 3009
0.05450000 0.05448610 37271.86210033 0 845.76004978 0 15047.18469453 0 3013.46109187 0 -82.45500659 0 3336
0.05550000 0.05550870 36482.65601250 0 62.76318502 0 11588.99849714 0 4740.90181491 0 1936.65171444 0 3349
0.05650000 0.05647670 36876.97804015 0 -662.29689294 0 10996.63868492 0 3429.92720145 0 1050.47365683 0 3324
0.05750000 0.05747970 36610.46221132 0 87.12662104 0 8374.46464500 0 811.53564050 0 854.96726679 0 3639
0.05850000 0.05849280 36861.12872262 0 1297.87925535 0 11164.16934342 0 -1750.97864567 0 1186.34951880 0 3846
0.05950000 0.05951020 35075.77616701 0 1695.10137088 0 10651.26969121 0 -3071.39540574 0 2016.75259155 0 3787
0.06050000 0.06049470 35340.15627221 0 1256.81715823 0 12734.87043266 0 -1377.26073081 0 3132.34221400 0 3930
0.06150000 0.06148310 33449.70363227 0 1069.51082291 0 14458.06218972 0 346.13448202 0 4290.30908970 0 4083
0.06250000 0.06249100 33153.84970503 0 484.73732586 0 14917.80480462 0 2565.68977000 0 4467.15824765 0 4303
0.06350000 0.06350600 33104.39084181 0 499.93018939 0 16709.00249860 0 2645.77940646 0 5082.81992884 0 4470
0.06450000 0.06451750 31999.54728146 0 112.37784365 0 15039.42864553 0 1190.59848478 0 4543.96561410 0 4479
0.06550000 0.06550280 31616.12868503 0 594.80352969 0 12154.74044844 0 789.42528051 0 3955.00047840 0 4636
0.06650000 0.06648880 31459.77123336 0 472.93576666 0 14332.16690154 0 520.51856527 0 4580.82370785 0 4653
0.06750000 0.06749660 30199.69428642 0 871.52024906 0 12724.86625351 0 -371.74293252 0 2237.39532475 0 5220
0.06850000 0.06852730 30303.44549266 0 67.57272224 0 11220.18150601 0 1094.13684053 0 150.57076467 0 5029
0.06950000 0.06949320 28795.62460361 0 -84.51935210 0 10662.48786064 0 435.08062719 0 -1546.34259911 0 5040
0.07050000 0.07048030 30154.50687048 0 37.67742478 0 9728.83941093 0 813.37798315 0 -2039.93081336 0 5475
0.07150000 0.07148790 30387.75037315 0 -11.48513488 0 11630.25168533 0 609.07353579 0 -1929.30032886 0 5509
0.07250000 0.07249820 29944.53151482 0 523.27589689 0 11221.73271581 0 -601.84130111 0 -856.76577091 0 5916
0.07350000 0.07351270 29850.89689423 0 964.90307907 0 12457.78839214 0 -587.60614103 0 -192.88169809 0 5721
0.07450000 0.07449140 29012.90638224 0 1404.15960801 0 12288.61659864 0 31.56981720 0 537.24015730 0 6028
0.07550000 0.07549160 28135.23637316 0 1438.84825617 0 13486.98237307 0 1158.00059766 0 660.83673241 0 6183
0.07650000 0.07648840 26651.92010270 0 925.74739632 0 12836.82313479 0 2126.60747115 0 1064.22884113 0 6330
0.07750000 0.07749960 25724.11679137 0 268.31770514 0 10852.56726450 0 2647.38681951 0 475.97074236 0 6583
0.07850000 0.07848650 25859.79144569 0 -50.52874835 0 9689.20487645 0 1782.89085309 0 482.18232595 0 6549
0.07950000 0.07947320 25533.13813545 0 -331.66326827 0 8216.75831524 0 1501.51488400 0 -1232.34626159 0 6828
0.08050000 0.08048110 25803.58819203 0 42.14333531 0 7708.18631357 0 -920.51374934 0 -2412.86188266 0 7147
0.08150000 0.08149960 25707.25581527 0 229.26543637 0 6868.48722266 0 -761.74405402 0 65.86167039 0 7386
0.08250000 0.08250610 25472.55102801 0 337.48142909 0 8849.20228797 0 -1016.31219519 0 -1253.62481342 0 7227
0.08350000 0.08350160 25165.23163702 0 320.17981949 0 8233.34951572 0 434.72092637 0 -1628.11833318 0 7798
0.08450000 0.08449610 25303.94126704 0 972.45792043 0 11259.08539819 0 -142.59327485 0 852.35718769 0 7371
0.08550000 0.08548940 24021.27061213 0 487.78017002 0 8980.40316330 0 929.94802750 0 -1204.86287055 0 8256
0.08650000 0.08650700 24147.72793285 0 618.32908761 0 11748.72814403 0 528.56462306 0 2736.35657005 0 8037
0.08750000 0.08749060 23382.01480506 0 197.57129757 0 9441.22488067 0 972.86708012 0 141.60297352 0 8155
0.08850000 0.08849210 23255.78229735 0 723.18862201 0 10793.85734574 0 1881.46011935 0 2480.64300657 0 8718
0.08950000 0.08949900 22426.67189943 0 724.90169719 0 8564.84754643 0 1223.89329224 0 724.25985603 0 8571
0.09050000 0.09049190 21481.55798597 0 822.76729871 0 8376.38679628 0 1029.86392371 0 837.32506547 0 8932
0.09150000 0.09150830 20913.45549802 0 183.26532139 0 7043.68400496 0 886.63892429 0 312.67780919 0 9285
0.09250000 0.09250820 20579.83298433 0 -164.15171888 0 6284.38928873 0 963.45078700 0 -117.68848909 0 9204
0.09350000 0.09350330 20764.06724981 0 -214.92798637 0 4975.69652737 0 818.07320297 0 -48.89829196 0 9349
0.09450000 0.09448040 20828.13895898 0 12.93450439 0 4547.83239795 0 145.54282160 0 -1232.03152337 0 9564
0.09550000 0.09549270 20348.61279879 0 538.22259017 0 4729.54875767 0 -67.60284719 0 -421.72561006 0 10155
0.09650000 0.09649430 20076.92627062 0 913.83905093 0 4583.46526077 0 451.07832131 0 -250.41696885 0 9913
0.09750000 0.09749140 18818.53542129 0 1017.53967425 0 5278.60958327 0 -90.49611850 0 99.91926841 0 10476
0.09850000 0.09850240 18111.04886428 0 874.79577468 0 4745.76901667 0 -109.99696142 0 -421.03993037 0 10575
0.09950000 0.09950330 17667.15556691 0 446.91703241 0 5845.66669070 0 21.58733251 0 29.60787403 0 10882
0.10050000 0.10051200 17372.08848522 0 51.23578528 0 4992.07415549 0 -493.62193620 0 -620.24112229 0 10875
0.10150000 0.10150300 17413.45407991 0 -134.36399445 0 5447.99494914 0 -87.86468216 0 -547.35786702 0 11118
0.10250000 0.10250800 17537.32605097 0 -79.48320335 0 4661.17187927 0 183.89592189 0 -1227.50154113 0 11575
0.10350000 0.10349800 17435.59816185 0 -55.55489292 0 4670.50161938 0 719.92770924 0 -1240.99032200 0 11364
0.10450000 0.10450100 17394.34497367 0 39.50077073 0 3742.46225438 0 931.52509079 0 -1220.35248726 0 12093
0.10550000 0.10551000 17539.79899413 0 199.50356543 0 3756.29949543 0 912.89146408 0 -1115.85827400 0 12067
0.10650000 0.10649700 17297.90019040 0 292.36033299 0 3156.72318543 0 584.85667786 0 -204.38088379 0 12054
0.10750000 0.10749900 17066.79241137 0 191.78910684 0 3854.13811939 0 161.34380433 0 451.62911320 0 12807
0.10850000 0.10850100 17139.40701509 0 326.68928032 0 4454.36638712 0 -809.65170744 0 1019.59446521 0 12736
0.10950000 0.10950300 16887.84125173 0 197.23070586 0 5107.90906127 0 -843.43548321 0 1670.50682708 0 12933
0.11050000 0.11050200 16853.44486050 0 432.53911606 0 5601.12633405 0 -799.00231493 0 1300.90299040 0 13428
0.11150000 0.11150900 16825.90526621 0 405.10630795 0 6500.70437140 0 -346.75159375 0 2213.92484602 0 13453
0.11250000 0.11250000 16189.23480880 0 506.81958422 0 6138.00229426 0 149.61980562 0 244.12445258 0 13668
0.11350000 0.11349100 15915.07533747 0 453.59622708 0 6440.18470786 0 749.69857270 0 2219.44400553 0 13791
0.11450000 0.11448600 15517.60592763 0 215.30005191 0 6054.01215200 0 1262.10026408 0 841.25592103 0 14205
0.11550000 0.11549300 15355.40333758 0 54.55155244 0 4905.18392534 0 1245.58774815 0 2019.39414447 0 14776
0.11650000 0.11649800 15109.34549308 0 6.85548179 0 4588.06268692 0 877.08886743 0 1809.71104574 0 14553
0.11750000 0.11747300 15087.53863066 0 163.52673870 0 4120.82255798 0 653.79896099 0 1840.99377672 0 14568
0.11850000 0.11849100 14786.06437805 0 292.41990844 0 4671.79429421 0 -37.97507721 0 2709.85111562 0 16015
0.11950000 0.11950300 14751.78039332 0 261.05399664 0 4520.11295325 0 -311.91119681 0 2184.90148584 0 15270
0.12050000 0.12050700 14674.33230979 0 102.59319441 0 5161.35835550 0 -116.68919524 0 2824.60691894 0 15999
0.12150000 0.12150000 14325.98454363 0 196.16059591 0 4318.86034256 0 -163.66275058 0 1647.74450935 0 15670
0.12250000 0.12250700 14480.99311721 0 251.56913555 0 5156.04152770 0 -156.47323037 0 1946.45356188 0 16887
0.12350000 0.12352200 14132.64535106 0 157.00266502 0 4837.06558191 0 -203.26243904 0 804.46976745 0 16407
0.12450000 0.12449800 14228.41569529 0 133.02748108 0 4521.15833377 0 133.68843134 0 664.19319072 0 16306
0.12550000 0.12549900 14105.33056978 0 104.51377199 0 4690.17275816 0 -44.34863858 0 414.23821261 0 17523
0.12650000 0.12650100 13683.80616737 0 198.80776915 0 4120.35045065 0 -28.64218972 0 -74.52292900 0 17154
0.12750000 0.12750600 13774.74303179 0 321.17124488 0 5041.88147888 0 -28.76268950 0 595.37118255 0 18007
0.12850000 0.12850300 13662.67374400 0 336.36748060 0 4807.70500220 0 124.17097236 0 384.74724135 0 17496
0.12950000 0.12949900 13290.60820480 0 207.74858275 0 5209.41213737 0 186.99946556 0 438.46631119 0 18405
0.13050000 0.13049000 13294.43002605 0 127.02946985 0 4753.53630633 0 303.38066697 0 413.52892755 0 18100
0.13150000 0.13148800 13022.74349788 0 127.32172676 0 4790.81030415 0 501.28693593 0 457.68557581 0 19059
0.13250000 0.13249300 12962.71842298 0 131.17614590 0 4435.13363372 0 319.73468972 0 151.45990014 0 18957
0.13350000 0.13349100 12771.51495404 0 126.68325780 0 3868.94205640 0 204.73384022 0 412.57909256 0 19468
0.13450000 0.13450700 12760.16189681 0 200.29603131 0 3858.18475365 0 377.66450732 0 -56.88084008 0 19953
0.13550000 0.13551000 12501.17730396 0 116.05185034 0 3661.38344065 0 114.07574394 0 444.16869331 0 19956
0.13650000 0.13649900 12369.43687740 0 58.80276654 0 3585.39664171 0 431.52296124 0 125.95036738 0 19723
0.13750000 0.13749600 12362.13045442 0 3.00916716 0 3650.54745335 0 47.00873858 0 235.90304063 0 20946
0.13850000 0.13851100 12494.43291353 0 39.04709807 0 4120.74387343 0 -1.57201625 0 840.26337157 0 20955
0.13950000 0.13949800 12516.01496293 0 139.65721688 0 3956.56292885 0 -64.60957430 0 513.44594783 0 20506
0.14050000 0.14048300 12384.72416239 0 286.13638468 0 4291.65796779 0 -187.15121435 0 1378.10377962 0 21447
0.14150000 0.14148400 12129.22417128 0 303.46609591 0 4204.77897829 0 131.32227436 0 894.64563981 0 21771
0.14250000 0.14249400 11848.65752903 0 282.52925986 0 4271.37983387 0 88.42727673 0 1285.79555582 0 22470
0.14350000 0.14350900 11612.71627019 0 118.90585156 0 3940.46631700 0 374.79364513 0 693.95056540 0 22519
0.14450000 0.14449900 11420.72595570 0 108.77914932 0 3549.90990735 0 671.37709060 0 991.85703546 0 22218
0.14550000 0.14550500 11371.04227947 0 110.76211251 0 3041.98986342 0 696.83491638 0 412.11710182 0 23559
0.14650000 0.14650700 11146.95990715 0 186.63864067 0 2481.25000171 0 567.96760014 0 -49.58104909 0 23044
0.14750000 0.14750500 10885.15391097 0 226.39907044 0 2096.05538246 0 183.62277408 0 -425.04834642 0 23649
0.14850000 0.14849900 10669.83924622 0 284.34125276 0 1788.02783048 0 155.65828319 0 -947.95330184 0 23640
0.14950000 0.14949500 10357.49528436 0 219.82891009 0 1869.97217431 0 -77.75315480 0 -595.45998369 0 24457
0.15050000 0.15050000 10150.30761008 0 260.12776702 0 1706.21837446 0 -175.75544263 0 -956.57375688 0 24591
0.15150000 0.15149900 10142.25930416 0 141.49506327 0 2028.33046180 0 21.57170800 0 -298.60901073 0 25020
0.15250000 0.15250500 9772.48685771 0 85.22998604 0 1961.72960622 0 111.44408279 0 -445.01736244 0 25297
0.15350000 0.15350100 10127.20807283 0 14.87936178 0 2455.68876195 0 158.66403320 0 284.70432578 0 25452
0.15450000 0.15450400 9904.40713469 0 -11.96915730 0 2654.22113516 0 115.85626302 0 506.47449625 0 26061
0.15550000 0.15549900 10164.96541864 0 103.56146406 0 3108.11861167 0 -430.35056137 0 546.13151203 0 26128
0.15650000 0.15649500 10164.66192107 0 125.46364720 0 3246.94064820 0 -457.98008086 0 954.87641862 0 26331
0.15750000 0.15749700 10055.97606915 0 132.26648902 0 3643.02745801 0 -366.34854423 0 846.84477258 0 27345
0.15850000 0.15849900 10109.43660403 0 93.96520813 0 3737.57257131 0 150.07167978 0 1390.49097673 0 26980
0.15950000 0.15949700 9859.08483095 0 26.32178219 0 3296.11849515 0 587.99956380 0 896.92861597 0 27777
0.16050000 0.16050000 9924.34804909 0 72.07325398 0 2941.40852068 0 819.56596138 0 951.26704567 0 28224
0.16150000 0.16150500 9735.39271030 0 48.68730495 0 2158.04757124 0 921.50517473 0 647.49745219 0 28075
0.16250000 0.16249700 9558.16137023 0 74.37612610 0 1819.34428341 0 632.24501321 0 612.28049345 0 28590
0.16350000 0.16349900 9558.64471821 0 119.73541159 0 1231.94159816 0 196.24602485 0 1056.76729717 0 29163
0.16450000 0.16449100 9297.22090416 0 141.98515564 0 1177.04225999 0 -156.71827656 0 761.67885825 0 28996
0.16550000 0.16550500 9335.96742723 0 230.61094227 0 1599.64576488 0 -412.58808508 0 1168.06098006 0 30777
0.16650000 0.16650700 9123.22687149 0 241.42444827 0 1643.96765071 0 -378.93807305 0 845.12944927 0 29211
0.16750000 0.16749900 9047.56605142 0 188.02236478 0 2309.56030244 0 -242.70251026 0 1590.76565080 0 30922
0.16850000 0.16850800 9019.89156932 0 76.47846500 0 2404.55504177 0 -111.47319608 0 1343.33644691 0 30867
0.16950000 0.16949900 8972.60215170 0 -23.51487930 0 2580.49370701 0 256.10024186 0 1391.71620765 0 30852
0.17050000 0.17049200 9075.01572051 0 -45.51272037 0 2375.19446206 0 241.14005981 0 1017.27327083 0 31257
0.17150000 0.17149500 9088.36961358 0 -1.18168465 0 2256.56063425 0 267.25771178 0 900.88644910 0 32608
0.17250000 0.17250900 9023.51105886 0 165.74451909 0 1997.32874709 0 -6.31355878 0 870.60301196 0 32361
0.17350000 0.17350400 8750.20587698 0 305.65914687 0 1752.00154488 0 2.71127868 0 410.23092062 0 32508
0.17450000 0.17449800 8478.99145615 0 319.23785296 0 1731.07145322 0 149.35565033 0 590.55793591 0 32791
0.17550000 0.17549800 8169.31152851 0 270.99522815 0 1619.53047602 0 185.79559187 0 408.49761228 0 33633
0.17650000 0.17650100 8132.30730630 0 120.17379697 0 1831.73148052 0 309.05607152 0 931.64761389 0 33984
0.17750000 0.17750300 7976.36575871 0 14.44873245 0 1772.80798939 0 230.58059251 0 869.56662396 0 34069
0.17850000 0.17849800 8019.92328029 0 41.76025394 0 1718.34703660 0 193.90909357 0 1172.37738994 0 34536
