### header ###
fiducial parameters:
Omega_m = 0.31
Omega_nu = 0
Omega_de = 0.69
Omega_k = 0
H_0 = 100
w_de = -1
zeff = 0
beta = 0
fgrowth = 0
b_1 = 2
gamma = 0.55
Lx = 3500 Ly = 3500 Lz = 3500
nx = 700 ny = 700 nz = 700
xoffset = 857.220397 yoffset = 15.9954215 zoffset = 262.898189
bins = 400 dk = 0.001
kx_ny = 0.628318531 ky_ny = 0.628318531 kz_ny = 0.628318531
############################
A(data) = 3.06545973 (not used)
A(ran) = 3.06516352 (used)
Ngal = 187318
weighted Ngal = 0
Nran = 9360983
weighted Nran = 0
SN(data) = 3443.57456
SN(ran) = 68.8320532
SN(data+ran) = 3512.40661
############################
13 columns: k_central k_mean P_0(k) sigma^{lin}_{P_0(k)} P^img_1(k) sigma^{lin}_{P_1(k)} P_2(k) sigma^{lin}_{P_2(k)} P^img_3(k) sigma^{lin}_{P_3(k)} P_4(k) sigma^{lin}_{P_4(k)} N_modes
### header ###
0.00050000 0 0 0 0 0 0 0 0 0 0 0 0
0.00150000 0.00179520 6785.58742352 0 -7309.37926629 0 909.46081747 0 7230.79587703 0 7123.23409018 0 3
0.00250000 0.00253879 13051.74437677 0 -3602.08900805 0 14106.00500883 0 -26167.56046270 0 -3765.05596235 0 6
0.00350000 0.00331552 20087.60488882 0 -4250.38229831 0 3313.93492656 0 13559.59697679 0 29500.97543698 0 7
0.00450000 0.00420575 24654.11924828 0 -3797.37283320 0 23745.87466922 0 -11350.58429514 0 -1550.02953255 0 24
0.00550000 0.00557378 44565.80795316 0 -13145.04177784 0 27291.17590977 0 6500.34467057 0 6678.31789360 0 45
0.00650000 0.00659388 46082.84617582 0 -12598.40893279 0 42422.44067178 0 8937.39643361 0 -19549.51493833 0 40
0.00750000 0.00754703 69004.89355296 0 -7482.37288104 0 15651.48207783 0 5263.06376331 0 6830.96593052 0 57
0.00850000 0.00846663 72618.53794996 0 -9004.33450871 0 14792.35914246 0 12807.14781686 0 -24731.34251880 0 75
0.00950000 0.00948925 79365.73855124 0 -2818.63813340 0 1248.85877751 0 4654.05654736 0 2797.98905801 0 112
0.01050000 0.01054430 82643.28749138 0 -7762.23136229 0 -10384.72014043 0 2717.39359226 0 -3208.86856418 0 105
0.01150000 0.01145670 84807.11275709 0 -3510.75872086 0 -13479.56354359 0 4575.30454834 0 -11461.41711135 0 144
0.01250000 0.01249090 91656.94049955 0 -863.17518996 0 -10040.66630285 0 -7171.16422490 0 -5864.35989287 0 169
0.01350000 0.01339930 84723.36990915 0 7474.50442552 0 -9334.94452801 0 -2165.71369504 0 8519.34539227 0 180
0.01450000 0.01448870 77618.82902113 0 11778.17864895 0 20203.04637182 0 -25065.30225202 0 5897.60973773 0 267
0.01550000 0.01550050 74560.58517675 0 10392.59983659 0 28782.69785527 0 -14847.77555057 0 -3585.13810675 0 238
0.01650000 0.01653350 70073.99184398 0 4415.00162826 0 54794.35049233 0 -285.68451052 0 15917.99790666 0 315
0.01750000 0.01747870 70717.51909833 0 -5465.29431061 0 38671.66033586 0 4736.76525544 0 15197.58460131 0 297
0.01850000 0.01844180 78272.58526765 0 -9391.44003859 0 54631.58586975 0 17027.78735333 0 21215.15456364 0 388
0.01950000 0.01947590 85237.40486708 0 -5815.82276301 0 44883.80596234 0 20653.12202709 0 -220.87991093 0 399
0.02050000 0.02045430 87432.59154833 0 364.33421962 0 32397.57872385 0 18851.24571492 0 11816.05964191 0 462
0.02150000 0.02154770 83479.70431227 0 3852.38457787 0 23419.10895247 0 10750.83937539 0 7986.22380940 0 571
0.02250000 0.02255340 75948.35591600 0 6123.80535239 0 13534.08069964 0 4545.15712308 0 16869.63139755 0 510
0.02350000 0.02348930 68408.91425120 0 6970.83334757 0 13217.76878807 0 7062.30976322 0 7249.03945316 0 555
0.02450000 0.02439640 65257.59781877 0 4533.63545608 0 8706.98557492 0 2926.28984545 0 -1645.53010116 0 592
0.02550000 0.02547300 61066.07156769 0 3712.21366326 0 9387.15735066 0 823.94194671 0 6681.28542539 0 837
0.02650000 0.02652900 55792.18305772 0 3149.14698684 0 6498.99579249 0 -581.54967841 0 -1725.39492460 0 723
0.02750000 0.02749970 57052.59722419 0 183.98135084 0 15453.64662497 0 1124.30112676 0 6734.92581068 0 826
0.02850000 0.02848090 54309.09160028 0 908.26930850 0 12717.33501752 0 -1978.28708475 0 -9576.47239027 0 831
0.02950000 0.02946900 56009.35242985 0 552.97594426 0 17137.27129145 0 -896.97020638 0 2575.52533939 0 996
0.03050000 0.03053250 55330.19231268 0 512.21734471 0 18690.72922248 0 -4275.01056406 0 -6701.81085363 0 1041
0.03150000 0.03150510 58480.49708655 0 67.60768067 0 20019.59895190 0 -5624.68673798 0 -4735.94468793 0 1036
0.03250000 0.03246190 57739.17617084 0 35.76055661 0 22690.60237859 0 -1794.59237050 0 -5650.05688668 0 1059
0.03350000 0.03345080 57907.56111879 0 -763.12890219 0 19171.15463472 0 -3745.80072764 0 -12427.88826120 0 1302
0.03450000 0.03451200 58559.18164166 0 1189.04727497 0 19024.01451665 0 61.59404493 0 -12477.34712441 0 1339
0.03550000 0.03553350 57859.56354017 0 1419.60426212 0 21421.87013059 0 -1503.32462876 0 -16319.06432475 0 1365
0.03650000 0.03647120 55252.85663565 0 3730.46848005 0 19867.06332148 0 -2049.76638275 0 -14067.67438984 0 1308
0.03750000 0.03744890 52752.59869356 0 1633.39019837 0 19074.82225796 0 -553.32890069 0 -17256.87181523 0 1579
0.03850000 0.03847530 50940.15616969 0 1532.99994669 0 17415.92702308 0 1887.96845613 0 -11907.67094537 0 1662
0.03950000 0.03950240 48360.08960741 0 387.18983475 0 16206.77022394 0 3640.91421567 0 -15849.31753070 0 1683
0.04050000 0.04050350 50514.02310048 0 -33.23804218 0 14264.38577763 0 2743.73043693 0 -15869.55070201 0 1822
0.04150000 0.04152450 47350.56676526 0 150.86189753 0 13994.72256659 0 1582.52625381 0 -15891.24515792 0 1887
0.04250000 0.04250150 47984.76427950 0 1053.27370293 0 11531.55877191 0 2026.09357231 0 -15576.84415698 0 1920
0.04350000 0.04349210 45504.17747618 0 341.27514871 0 8367.58536675 0 1300.46460502 0 -10860.35703546 0 2005
0.04450000 0.04448520 46347.33868752 0 1213.41700576 0 7832.41798545 0 2589.18273003 0 -11267.96551227 0 2151
0.04550000 0.04548030 44338.52199538 0 898.43823537 0 7675.80199882 0 3847.25884114 0 -6988.90831395 0 2274
0.04650000 0.04648670 42757.63687657 0 1948.13965949 0 3770.59760316 0 5036.42976327 0 -4884.43368409 0 2311
0.04750000 0.04749250 39885.08858227 0 2185.66585009 0 646.91069022 0 5573.50805520 0 -2594.08365375 0 2568
0.04850000 0.04851840 37279.73055584 0 1784.89168892 0 -4049.99521773 0 5338.79202729 0 1246.99282949 0 2493
0.04950000 0.04949480 35266.30519690 0 1405.60965196 0 -4905.53238551 0 4189.75022826 0 -16.07626627 0 2644
0.05050000 0.05050630 33852.34374145 0 1157.69710009 0 -5217.58409045 0 -29.30797346 0 -1631.61417556 0 2829
0.05150000 0.05149060 32740.41857114 0 1139.19498898 0 -5505.95174431 0 -4536.07467729 0 -1316.29144125 0 2784
0.05250000 0.05249300 32284.27296448 0 368.67423487 0 -649.28471565 0 -6985.98574476 0 -2973.75911349 0 3055
0.05350000 0.05348950 33625.84462922 0 -314.11886061 0 3204.20369412 0 -7791.52449809 0 -281.11518600 0 3009
0.05450000 0.05448610 35290.24778296 0 -1235.98823243 0 6708.73509448 0 -3382.70522773 0 -1157.97811635 0 3336
0.05550000 0.05550870 36837.74816910 0 -993.14071777 0 8278.69430077 0 -769.45289229 0 -6727.73179421 0 3349
0.05650000 0.05647670 38299.59479666 0 -381.53241524 0 9916.34470577 0 920.82848756 0 -2369.38304563 0 3324
0.05750000 0.05747970 38108.39132773 0 404.75335152 0 10665.73640870 0 1425.62925091 0 -3384.29015948 0 3639
0.05850000 0.05849280 37483.86077311 0 889.22652209 0 8726.62299175 0 893.62274059 0 -5160.17808717 0 3846
0.05950000 0.05951020 37023.10649965 0 880.52513436 0 9363.39461501 0 -115.41900171 0 -583.21779098 0 3787
0.06050000 0.06049470 35931.63931367 0 1392.97516054 0 7408.65669354 0 -463.98596055 0 -5299.52843428 0 3930
0.06150000 0.06148310 35365.22292334 0 970.41774232 0 10805.03055256 0 -2201.00933833 0 -2298.18476390 0 4083
0.06250000 0.06249100 34266.11209486 0 590.97833625 0 9000.44524356 0 -2334.52578772 0 -4592.15428378 0 4303
0.06350000 0.06350600 35052.39561349 0 876.50884986 0 13924.01887349 0 -603.06428391 0 2218.63467868 0 4470
0.06450000 0.06451750 34370.42533364 0 678.18780088 0 15061.12310144 0 -861.74425512 0 625.70857481 0 4479
0.06550000 0.06550280 34174.38838490 0 1308.35554183 0 16281.85777083 0 2587.08072834 0 6243.00121274 0 4636
0.06650000 0.06648880 33720.04128235 0 1632.56963087 0 16862.43738108 0 1117.52189031 0 5446.46622064 0 4653
0.06750000 0.06749660 31596.45754625 0 1348.74319991 0 16987.65823022 0 3530.13760272 0 9892.12110344 0 5220
0.06850000 0.06852730 31094.78730413 0 1278.74766781 0 16114.70929446 0 4133.91791608 0 11085.67587936 0 5029
0.06950000 0.06949320 29960.83045838 0 98.25958633 0 13879.73070961 0 3363.68604669 0 9599.93162834 0 5040
0.07050000 0.07048030 29259.97588531 0 -268.08839587 0 13036.45709177 0 4038.75456699 0 9652.76268678 0 5475
0.07150000 0.07148790 29317.86523657 0 239.69451212 0 9142.54955010 0 1546.64609668 0 6499.54658437 0 5509
0.07250000 0.07249820 28426.81885313 0 909.64179195 0 8501.85493973 0 696.20993620 0 5716.18563493 0 5916
0.07350000 0.07351270 27048.26544748 0 1362.31066534 0 8727.38735600 0 -1849.77272494 0 2126.40513943 0 5721
0.07450000 0.07449140 26397.76898967 0 779.43683827 0 8181.70996627 0 -1301.34137578 0 2887.72317279 0 6028
0.07550000 0.07549160 25797.29342762 0 -79.86021478 0 8329.22102581 0 1164.34032467 0 2419.04424056 0 6183
0.07650000 0.07648840 25792.68476082 0 -326.24752275 0 7850.04332580 0 1082.12732929 0 1931.91940048 0 6330
0.07750000 0.07749960 26911.57913459 0 -697.74990535 0 6976.56607944 0 2780.07146074 0 1311.07577931 0 6583
0.07850000 0.07848650 26529.95904227 0 -177.27630268 0 6551.11868993 0 2450.64170977 0 843.36466711 0 6549
0.07950000 0.07947320 26493.31452089 0 939.32385427 0 5336.62258170 0 388.68034504 0 2902.02128052 0 6828
0.08050000 0.08048110 25304.27848656 0 1016.80003943 0 3914.52289512 0 370.26703508 0 2118.93010670 0 7147
0.08150000 0.08149960 24403.67755000 0 1377.73283815 0 5756.01126047 0 -402.38269828 0 4346.52358401 0 7386
0.08250000 0.08250610 23103.24666693 0 635.09002191 0 4106.47948765 0 -512.75689594 0 3260.31702257 0 7227
0.08350000 0.08350160 22965.43628897 0 373.56616607 0 6089.36399855 0 431.04073732 0 3826.81209746 0 7798
0.08450000 0.08449610 22967.79682562 0 -146.09136536 0 4812.53848201 0 483.53907250 0 3211.88105857 0 7371
0.08550000 0.08548940 22969.03329720 0 -114.57707697 0 6539.41717252 0 -88.62578662 0 1934.48226885 0 8256
0.08650000 0.08650700 23528.36807757 0 -54.86224402 0 5800.98510404 0 -634.30092823 0 2345.44045958 0 8037
0.08750000 0.08749060 23420.90745659 0 133.80421004 0 7403.54219746 0 -1309.96295489 0 407.38141566 0 8155
0.08850000 0.08849210 23363.46773135 0 349.08402878 0 6738.18559939 0 -1110.26267807 0 655.91332739 0 8718
0.08950000 0.08949900 23297.26029854 0 373.23119468 0 7961.92152252 0 -1385.67997821 0 -356.17575532 0 8571
0.09050000 0.09049190 22347.65012479 0 687.17470114 0 7415.65961895 0 -402.30850999 0 -796.31017908 0 8932
0.09150000 0.09150830 22210.28937286 0 807.66998071 0 7543.21852344 0 533.41833605 0 -1006.86667638 0 9285
0.09250000 0.09250820 21084.87542167 0 862.99871174 0 6934.86326523 0 1109.34206877 0 -1901.64832807 0 9204
0.09350000 0.09350330 20669.53337716 0 1149.39025920 0 7349.92429347 0 198.23674410 0 -742.34044273 0 9349
0.09450000 0.09448040 19122.59502356 0 937.44216934 0 6378.33864754 0 525.85000591 0 -1208.05521536 0 9564
0.09550000 0.09549270 19144.40188598 0 516.94628647 0 8192.27617795 0 107.24862232 0 1164.98104176 0 10155
0.09650000 0.09649430 18448.94282525 0 237.04171855 0 6569.18241565 0 276.52000798 0 -278.91314252 0 9913
0.09750000 0.09749140 18783.91421704 0 -41.96719432 0 8105.26230064 0 397.76841116 0 1623.77944200 0 10476
0.09850000 0.09850240 18205.69514344 0 -67.93006253 0 6954.86038288 0 -145.99581982 0 531.24551826 0 10575
0.09950000 0.09950330 18774.69688344 0 418.01057499 0 7367.93181594 0 1191.46401488 0 1491.15100402 0 10882
0.10050000 0.10051200 18132.06888115 0 175.26422620 0 6933.89656927 0 299.95901289 0 1051.92032858 0 10875
0.10150000 0.10150300 17857.90940982 0 337.38700763 0 6129.09969888 0 807.73068023 0 683.75979145 0 11118
0.10250000 0.10250800 17694.69516120 0 264.50375235 0 6411.53228915 0 1089.15498412 0 1029.79647981 0 11575
0.10350000 0.10349800 17004.63161283 0 250.81938415 0 4668.19728598 0 1193.29624095 0 233.82352025 0 11364
0.10450000 0.10450100 16777.45806156 0 258.49899673 0 4102.35416883 0 1025.37553188 0 488.45348499 0 12093
0.10550000 0.10551000 16650.43870830 0 189.37349100 0 3402.19651610 0 1399.34860950 0 456.67166912 0 12067
0.10650000 0.10649700 16013.31862486 0 212.82261249 0 2243.18425988 0 1060.73187469 0 999.35904576 0 12054
0.10750000 0.10749900 15988.81400627 0 127.46223490 0 1656.71454864 0 718.83511799 0 -44.80849360 0 12807
0.10850000 0.10850100 15762.98933308 0 -25.38341267 0 1537.50744764 0 178.67688776 0 539.66813786 0 12736
0.10950000 0.10950300 15944.97546842 0 -67.28979506 0 1337.54751178 0 -365.50437136 0 232.79162851 0 12933
0.11050000 0.11050200 15972.29024969 0 -149.14657422 0 1704.97066223 0 -265.34118083 0 -111.77849215 0 13428
0.11150000 0.11150900 16125.50031916 0 65.34145307 0 1552.63736352 0 -1128.39272363 0 -196.18982160 0 13453
0.11250000 0.11250000 16245.32565595 0 347.41591621 0 2817.91873175 0 -832.20719719 0 -744.17266880 0 13668
0.11350000 0.11349100 15725.33315313 0 649.89508299 0 3320.43202268 0 -891.93102266 0 -363.85087164 0 13791
0.11450000 0.11448600 15272.33492868 0 809.22343864 0 3918.02997814 0 -782.10087250 0 -1157.93315375 0 14205
0.11550000 0.11549300 14639.03666649 0 577.11636577 0 4534.01763820 0 -387.66081802 0 -134.84846649 0 14776
0.11650000 0.11649800 14693.21660302 0 223.36746694 0 5791.44179157 0 -608.75542538 0 324.54793636 0 14553
0.11750000 0.11747300 14598.45791735 0 -154.62301926 0 5489.30434058 0 562.43944811 0 402.13427990 0 14568
0.11850000 0.11849100 15037.29292189 0 -265.02531854 0 6804.26938504 0 247.87545772 0 1806.31636922 0 16015
0.11950000 0.11950300 14957.37189519 0 -97.26006767 0 5658.77963165 0 182.64820966 0 656.76087245 0 15270
0.12050000 0.12050700 15454.54587703 0 -16.15674933 0 6328.77861847 0 614.66463547 0 2785.87163652 0 15999
0.12150000 0.12150000 15036.61848285 0 154.31614950 0 5314.02887373 0 570.35736248 0 1358.20782783 0 15670
0.12250000 0.12250700 15364.84548419 0 -20.80352193 0 5434.42748371 0 821.67245933 0 2812.77051372 0 16887
0.12350000 0.12352200 15001.09802654 0 80.75013710 0 4467.13576635 0 898.42699472 0 1897.19703038 0 16407
0.12450000 0.12449800 14823.60815149 0 252.54369997 0 4356.35915340 0 754.91873090 0 1854.46007630 0 16306
0.12550000 0.12549900 14400.73487099 0 474.83656070 0 4098.68971669 0 37.80905280 0 1497.00738305 0 17523
0.12650000 0.12650100 13949.64755716 0 495.34063170 0 4140.10027398 0 225.69765383 0 2144.63747492 0 17154
0.12750000 0.12750600 13643.00260522 0 391.47139862 0 4003.76242127 0 -34.05771043 0 1680.96063226 0 18007
0.12850000 0.12850300 13442.91902221 0 166.97312222 0 4246.33566404 0 -29.95453569 0 1531.48245884 0 17496
0.12950000 0.12949900 13290.04617227 0 248.83765743 0 4559.37654625 0 -151.35423803 0 1304.92714336 0 18405
0.13050000 0.13049000 12918.87988513 0 378.10626490 0 4375.14228077 0 -353.62637574 0 1321.14740237 0 18100
0.13150000 0.13148800 12797.70567025 0 323.15634380 0 4834.10929077 0 -308.55361444 0 1469.52399201 0 19059
0.13250000 0.13249300 12541.53124009 0 218.54073151 0 4433.40257351 0 -8.52810186 0 1020.84442557 0 18957
0.13350000 0.13349100 12484.76595390 0 129.24275397 0 4854.03896451 0 100.38013509 0 852.07279923 0 19468
0.13450000 0.13450700 12401.58513849 0 117.05564045 0 4568.27914163 0 48.82556495 0 423.14980051 0 19953
0.13550000 0.13551000 12246.01453237 0 116.63411605 0 4459.14366368 0 -75.13835462 0 267.16104218 0 19956
0.13650000 0.13649900 12133.49561855 0 193.76633730 0 4326.61639156 0 152.37488911 0 183.13268171 0 19723
0.13750000 0.13749600 12073.47054365 0 187.95716900 0 4192.66155680 0 36.96094570 0 -627.17885193 0 20946
0.13850000 0.13851100 11742.65819264 0 182.16261355 0 3994.51136572 0 396.32735973 0 -202.65319577 0 20955
0.13950000 0.13949800 11532.79524349 0 241.27607168 0 3880.35131689 0 386.44457961 0 -263.43701460 0 20506
0.14050000 0.14048300 11374.52688120 0 278.27130137 0 3594.55777206 0 262.85699702 0 -162.07107443 0 21447
0.14150000 0.14148400 11071.95104482 0 176.97280511 0 3247.61508725 0 607.83031982 0 -180.60803156 0 21771
0.14250000 0.14249400 10962.61323516 0 220.89564784 0 3356.15481070 0 439.40153333 0 155.00632545 0 22470
0.14350000 0.14350900 10790.22661555 0 135.11149772 0 2803.29464515 0 283.12164216 0 119.28128930 0 22519
0.14450000 0.14449900 10884.73800690 0 170.31721581 0 3119.58407542 0 187.96728559 0 882.68221524 0 22218
0.14550000 0.14550500 10590.06434798 0 120.40310624 0 2784.43283322 0 178.75894451 0 852.38641339 0 23559
0.14650000 0.14650700 10615.90660401 0 117.88520048 0 2975.81615257 0 224.77367234 0 1020.40266799 0 23044
0.14750000 0.14750500 10530.76991538 0 98.97853835 0 2935.38353189 0 169.05376667 0 1351.21614307 0 23649
0.14850000 0.14849900 10358.48446162 0 54.58673567 0 2797.41578482 0 542.71210607 0 1288.27973963 0 23640
0.14950000 0.14949500 10405.44790038 0 56.81047361 0 2310.63940491 0 387.96993592 0 1195.47692719 0 24457
0.15050000 0.15050000 10255.09295620 0 74.53911553 0 2345.56410673 0 305.29270166 0 960.78675278 0 24591
0.15150000 0.15149900 10121.59898812 0 134.54721705 0 2230.04393917 0 -19.40304926 0 1098.09354959 0 25020
0.15250000 0.15250500 10107.51445275 0 51.46116033 0 1918.91396759 0 30.72575674 0 625.21735837 0 25297
0.15350000 0.15350100 10057.84201717 0 83.25241835 0 2178.37066776 0 -342.83422697 0 493.44658205 0 25452
0.15450000 0.15450400 10106.87373566 0 90.46610596 0 2245.39866807 0 -475.71220739 0 304.01126748 0 26061
0.15550000 0.15549900 10003.44850828 0 69.68798790 0 2749.38448425 0 -405.80660050 0 168.01737867 0 26128
0.15650000 0.15649500 9988.07129808 0 144.15572530 0 2776.84539398 0 -572.46048823 0 -50.37239090 0 26331
0.15750000 0.15749700 9896.98830521 0 123.94503529 0 3070.57483823 0 -303.89886097 0 -226.62613158 0 27345
0.15850000 0.15849900 9849.91245995 0 177.05148966 0 3476.86815890 0 -147.33682946 0 -344.30450409 0 26980
0.15950000 0.15949700 9808.80540023 0 143.51950447 0 3443.89933031 0 -99.59160344 0 -315.64084472 0 27777
0.16050000 0.16050000 9612.71224822 0 176.55015664 0 3443.30357582 0 66.49350737 0 -447.92194659 0 28224
0.16150000 0.16150500 9448.69991341 0 158.28859546 0 3534.62262236 0 140.21362909 0 -324.56704547 0 28075
0.16250000 0.16249700 9343.86960469 0 70.84105385 0 3327.01904401 0 333.88779305 0 -379.00102070 0 28590
0.16350000 0.16349900 9305.64015156 0 10.28319458 0 3125.89008048 0 472.59405088 0 -358.13612481 0 29163
0.16450000 0.16449100 9394.44129233 0 -8.13949008 0 2954.75117310 0 445.89076100 0 -320.67328405 0 28996
0.16550000 0.16550500 9244.34488312 0 104.14080720 0 2732.87196832 0 148.02925354 0 -170.70389420 0 30777
0.16650000 0.16650700 9133.88300839 0 107.46331874 0 2746.49563701 0 196.41351055 0 -212.54272028 0 29211
0.16750000 0.16749900 9023.06143283 0 212.71245411 0 2463.55721746 0 15.07034044 0 27.00341525 0 30922
0.16850000 0.16850800 8875.43796678 0 166.04239634 0 2467.32283545 0 269.22257753 0 -110.44523857 0 30867
0.16950000 0.16949900 8741.69670438 0 174.78987074 0 2347.69983037 0 100.22602577 0 65.66259846 0 30852
0.17050000 0.17049200 8596.36633108 0 124.93983287 0 2276.97365597 0 100.08203304 0 -418.10387239 0 31257
0.17150000 0.17149500 8589.53201544 0 47.28649506 0 2197.38984880 0 36.79390963 0 -334.59258185 0 32608
0.17250000 0.17250900 8480.36281554 0 76.85457718 0 2181.77658493 0 19.41878617 0 -27.62457361 0 32361
0.17350000 0.17350400 8551.28008100 0 32.13319862 0 2175.49306117 0 104.96946797 0 -458.40385340 0 32508
0.17450000 0.17449800 8428.13875224 0 90.32008991 0 2190.89275268 0 -6.32577736 0 -238.72894022 0 32791
0.17550000 0.17549800 8367.64157001 0 192.93003289 0 2139.47801623 0 -78.53606612 0 -482.64768889 0 33633
0.17650000 0.17650100 8207.29368733 0 217.62574254 0 2376.63326535 0 40.41542248 0 -113.45975628 0 33984
0.17750000 0.17750300 8012.95407684 0 211.47485846 0 2289.12479941 0 29.42296532 0 -162.18235688 0 34069
