### header ###
fiducial parameters:
Omega_m = 0.31
Omega_nu = 0
Omega_de = 0.69
Omega_k = 0
H_0 = 100
w_de = -1
zeff = 0
beta = 0
fgrowth = 0
b_1 = 2
gamma = 0.55
Lx = 3500 Ly = 3500 Lz = 3500
nx = 700 ny = 700 nz = 700
xoffset = 857.220397 yoffset = 15.9954215 zoffset = 262.898189
bins = 400 dk = 0.001
kx_ny = 0.628318531 ky_ny = 0.628318531 kz_ny = 0.628318531
############################
A(data) = 3.12217669 (not used)
A(ran) = 3.12001986 (used)
Ngal = 190094
weighted Ngal = 0
Nran = 9360983
weighted Nran = 0
SN(data) = 3451.33486
SN(ran) = 70.0639205
SN(data+ran) = 3521.39878
############################
13 columns: k_central k_mean P_0(k) sigma^{lin}_{P_0(k)} P^img_1(k) sigma^{lin}_{P_1(k)} P_2(k) sigma^{lin}_{P_2(k)} P^img_3(k) sigma^{lin}_{P_3(k)} P_4(k) sigma^{lin}_{P_4(k)} N_modes
### header ###
0.00050000 0 0 0 0 0 0 0 0 0 0 0 0
0.00150000 0.00179520 27153.36553181 0 -36693.64302673 0 -27437.52918229 0 95969.30374598 0 -38516.65176228 0 3
0.00250000 0.00253879 51369.99865364 0 -43114.86475680 0 -10008.86650194 0 -34526.10834627 0 49361.96880706 0 6
0.00350000 0.00331552 61837.06780133 0 -23851.19956657 0 -24132.21583484 0 -34689.88462742 0 -20776.31955911 0 7
0.00450000 0.00420575 71921.61760464 0 -9482.36566235 0 -31265.98241476 0 -25783.91705325 0 7462.00482191 0 24
0.00550000 0.00557378 59192.36749734 0 5362.04893365 0 -41738.55948130 0 -20297.80505749 0 11901.93821350 0 45
0.00650000 0.00659388 62349.97869418 0 -1805.04617568 0 -47748.03617510 0 -12434.07061910 0 -25266.73471312 0 40
0.00750000 0.00754703 45765.97223171 0 -1486.67722503 0 -38960.32024663 0 -28708.05993441 0 -17223.82430208 0 57
0.00850000 0.00846663 57525.60380695 0 -9118.86549901 0 -42071.28274294 0 -34865.68840485 0 -27084.34793632 0 75
0.00950000 0.00948925 58949.34462854 0 -9461.55921784 0 -24469.88498280 0 -35706.03945350 0 -4068.16010931 0 112
0.01050000 0.01054430 77582.07209324 0 -7028.11570370 0 1728.62099136 0 -56974.47470161 0 -13359.06376775 0 105
0.01150000 0.01145670 84813.07030198 0 -1384.63459769 0 27072.09562703 0 -36974.09726246 0 1641.14624738 0 144
0.01250000 0.01249090 94840.96722561 0 3291.25129338 0 57765.25448053 0 -14849.34924167 0 14693.77863555 0 169
0.01350000 0.01339930 91317.92247350 0 11861.47187086 0 79156.88726065 0 -2834.44248833 0 34668.30257802 0 180
0.01450000 0.01448870 95143.79035630 0 7107.33981005 0 113404.67709482 0 27464.61915055 0 39475.70408265 0 267
0.01550000 0.01550050 91208.32612887 0 8749.17173712 0 98589.94905741 0 42253.49369129 0 12401.80995150 0 238
0.01650000 0.01653350 85419.27859590 0 6835.42846886 0 108806.12688077 0 31309.48373309 0 39498.52260363 0 315
0.01750000 0.01747870 84938.74077715 0 3591.24178009 0 100895.96855487 0 18164.32954875 0 18195.91577730 0 297
0.01850000 0.01844180 73886.70816543 0 1690.60511059 0 83993.85167671 0 14619.81515374 0 14477.95814152 0 388
0.01950000 0.01947590 82059.22327940 0 463.26318671 0 72796.70226404 0 808.10049764 0 -3287.02480871 0 399
0.02050000 0.02045430 76347.51142346 0 3108.52327510 0 64033.49095416 0 -2132.27275911 0 -10782.38064134 0 462
0.02150000 0.02154770 74218.64458152 0 5169.53030858 0 62029.39533534 0 -4392.56528940 0 -18157.69756481 0 571
0.02250000 0.02255340 65749.03906873 0 3411.16655538 0 56396.03081499 0 15013.91236837 0 -22866.18134301 0 510
0.02350000 0.02348930 68792.67006716 0 4573.48356292 0 50615.52617658 0 14380.72651269 0 64.59945772 0 555
0.02450000 0.02439640 58518.04085999 0 140.86558683 0 39137.02327612 0 28159.40377224 0 -20220.24456744 0 592
0.02550000 0.02547300 64603.72916575 0 -989.56843897 0 36187.02689828 0 22717.46753384 0 14102.63281361 0 837
0.02650000 0.02652900 62520.16214625 0 -2044.75305252 0 21612.39916048 0 18119.70416534 0 1911.20288119 0 723
0.02750000 0.02749970 61462.19209945 0 472.50187754 0 18854.84272315 0 10335.03646420 0 22936.66022309 0 826
0.02850000 0.02848090 63066.12055225 0 519.66427581 0 13793.51491851 0 2913.92512965 0 12805.68653227 0 831
0.02950000 0.02946900 59019.26147608 0 1319.03416003 0 3913.84845607 0 -769.26742156 0 8852.31594823 0 996
0.03050000 0.03053250 57224.91639990 0 4159.86133797 0 2242.56602409 0 -1992.79876484 0 6929.70380655 0 1041
0.03150000 0.03150510 52146.95243217 0 4446.73398528 0 4665.12858833 0 -1130.80946354 0 3677.03042647 0 1036
0.03250000 0.03246190 47955.42618109 0 3517.48063000 0 -758.56519800 0 1343.17907780 0 8111.74815612 0 1059
0.03350000 0.03345080 46926.23220016 0 1377.45182188 0 2193.87152512 0 6933.85160667 0 2715.23538732 0 1302
0.03450000 0.03451200 46403.20472165 0 -1431.57555515 0 -1037.48058865 0 619.20810649 0 2678.34357163 0 1339
0.03550000 0.03553350 46118.47903863 0 352.01896268 0 5921.82209940 0 -2607.96585740 0 -257.57051898 0 1365
0.03650000 0.03647120 48877.04713452 0 692.39148714 0 9785.33492150 0 -8483.38655058 0 2933.65247168 0 1308
0.03750000 0.03744890 46053.28326439 0 3695.25152131 0 13856.01293657 0 -10148.35173686 0 5688.58983738 0 1579
0.03850000 0.03847530 45358.27382970 0 2816.14270894 0 17679.40787621 0 -4894.53902910 0 6815.22901950 0 1662
0.03950000 0.03950240 42215.83751134 0 2493.82828988 0 20667.62246654 0 -268.48743897 0 3462.05298124 0 1683
0.04050000 0.04050350 41610.86568900 0 1815.90464429 0 16580.97148678 0 3963.14995018 0 -2505.48484468 0 1822
0.04150000 0.04152450 39498.85982315 0 90.85424563 0 16746.20905252 0 1958.77331508 0 -4700.28934381 0 1887
0.04250000 0.04250150 38570.15725976 0 909.14832738 0 13524.30133350 0 2442.17749977 0 -10225.15910330 0 1920
0.04350000 0.04349210 39016.07387426 0 -753.96327559 0 11953.30798734 0 1137.25035641 0 -10775.95098912 0 2005
0.04450000 0.04448520 38123.45379971 0 -551.08414274 0 9389.77642228 0 -422.80808473 0 -11360.25125477 0 2151
0.04550000 0.04548030 39944.10199861 0 -222.61659147 0 11124.14138616 0 -2329.43377294 0 -14312.38335625 0 2274
0.04650000 0.04648670 39860.13433765 0 -123.78316991 0 13272.17353760 0 -3033.54813472 0 -13013.18894476 0 2311
0.04750000 0.04749250 40740.95172893 0 95.13389858 0 16588.05309674 0 -2193.97269098 0 -10075.64720793 0 2568
0.04850000 0.04851840 41321.53133918 0 291.61395378 0 18389.36737638 0 -1923.15169291 0 -7491.14058861 0 2493
0.04950000 0.04949480 41428.09270811 0 510.68524401 0 21100.27511317 0 2141.13039189 0 -6608.99680054 0 2644
0.05050000 0.05050630 40728.69941963 0 74.84103941 0 22176.45501416 0 1222.97155888 0 -6231.82800591 0 2829
0.05150000 0.05149060 41488.45500254 0 1044.70832707 0 24224.16435782 0 -97.89966070 0 -4375.29964988 0 2784
0.05250000 0.05249300 39473.79317202 0 751.55890039 0 22057.30411641 0 3310.64141589 0 -2595.66858550 0 3055
0.05350000 0.05348950 38598.82091912 0 1282.32219474 0 20599.27931009 0 2230.62845301 0 -5368.35493871 0 3009
0.05450000 0.05448610 38180.44389891 0 539.86484924 0 18807.85680309 0 4218.25651852 0 -679.82556369 0 3336
0.05550000 0.05550870 37322.22021560 0 950.87025070 0 15209.27487807 0 4416.92377954 0 -3193.36770682 0 3349
0.05650000 0.05647670 36166.68132046 0 1139.74578087 0 15026.72671020 0 4314.53269203 0 42.58273235 0 3324
0.05750000 0.05747970 34787.90310179 0 1395.63919476 0 11800.09791787 0 3485.92812339 0 597.99587450 0 3639
0.05850000 0.05849280 33622.80965353 0 1544.88131452 0 11735.68898918 0 4204.65533113 0 4849.07059689 0 3846
0.05950000 0.05951020 31645.57918994 0 1500.37957827 0 10955.36301544 0 2455.46394893 0 4965.06287178 0 3787
0.06050000 0.06049470 31710.77496418 0 757.50408057 0 10348.13182230 0 712.99447587 0 6368.90774158 0 3930
0.06150000 0.06148310 30093.91976304 0 196.86426064 0 10522.64292490 0 1490.54400888 0 6103.71830953 0 4083
0.06250000 0.06249100 31518.67224319 0 -201.45494240 0 10842.41695689 0 -1486.57605917 0 6516.87966780 0 4303
0.06350000 0.06350600 31224.05478753 0 -662.65434563 0 11745.91798135 0 169.68099498 0 6410.31829887 0 4470
0.06450000 0.06451750 31595.67070070 0 197.80622717 0 11426.12146805 0 -94.42731128 0 3782.55765553 0 4479
0.06550000 0.06550280 31104.56667026 0 742.92383250 0 10958.08325292 0 1892.40851317 0 3787.25624754 0 4636
0.06650000 0.06648880 30205.76423781 0 1268.57487890 0 10341.18510015 0 791.58460952 0 3795.84410470 0 4653
0.06750000 0.06749660 29143.41033723 0 1014.24841172 0 9700.88391256 0 2793.39163186 0 4343.39868311 0 5220
0.06850000 0.06852730 29011.89472367 0 60.82147501 0 8665.11415095 0 3398.74563632 0 8224.51436425 0 5029
0.06950000 0.06949320 28088.36285962 0 -548.99562983 0 5054.48224835 0 3023.07184824 0 5683.98117059 0 5040
0.07050000 0.07048030 28492.91387942 0 -583.44372806 0 4815.25871949 0 2001.33041875 0 9112.43584679 0 5475
0.07150000 0.07148790 28957.60238064 0 40.93474055 0 4023.59092916 0 1414.28743432 0 7578.34555698 0 5509
0.07250000 0.07249820 29040.22116352 0 655.28272688 0 3986.86772322 0 -55.64167074 0 9597.73970145 0 5916
0.07350000 0.07351270 28126.80588512 0 631.68298067 0 3329.95285385 0 201.16380955 0 7562.94586548 0 5721
0.07450000 0.07449140 27903.67896811 0 354.96176504 0 5117.26128268 0 -741.46592010 0 8056.91626185 0 6028
0.07550000 0.07549160 27921.88882229 0 -76.93180045 0 4964.93922463 0 34.29848517 0 7190.00355552 0 6183
0.07650000 0.07648840 28193.46294395 0 -7.74689911 0 6490.20560361 0 -580.82465644 0 5705.68686715 0 6330
0.07750000 0.07749960 27389.08197764 0 195.26471604 0 5796.03921772 0 -1900.76031666 0 4836.20005180 0 6583
0.07850000 0.07848650 28175.25308977 0 441.59683242 0 6359.53303887 0 -821.80172681 0 4796.50931407 0 6549
0.07950000 0.07947320 27534.64840461 0 441.09549940 0 6350.95642236 0 -625.67934912 0 3842.74009955 0 6828
0.08050000 0.08048110 27445.51004431 0 216.37803031 0 6762.00453829 0 -902.84681858 0 1938.28160880 0 7147
0.08150000 0.08149960 27388.85716463 0 396.02723436 0 6808.28229735 0 -856.66235692 0 304.18662163 0 7386
0.08250000 0.08250610 26580.65437707 0 1116.19212133 0 7619.91348338 0 -1805.45083911 0 -553.40758524 0 7227
0.08350000 0.08350160 25693.76703439 0 1294.07991541 0 7809.19480104 0 -973.00196793 0 -1406.93604874 0 7798
0.08450000 0.08449610 24648.38651641 0 1456.24878350 0 9420.08121665 0 -693.62571059 0 -362.80773925 0 7371
0.08550000 0.08548940 23899.19714519 0 595.33296434 0 7869.06250683 0 1510.12522246 0 -1515.77926977 0 8256
0.08650000 0.08650700 23067.27658459 0 594.98225604 0 8212.32949886 0 1953.23167427 0 -742.09090028 0 8037
0.08750000 0.08749060 22679.47413437 0 404.82416762 0 6515.90173119 0 2034.73763272 0 -1466.44405371 0 8155
0.08850000 0.08849210 22251.87978056 0 471.57902012 0 6799.88553125 0 1199.38867365 0 597.36639806 0 8718
0.08950000 0.08949900 21440.97923683 0 630.67019804 0 4711.87845472 0 1515.91415758 0 930.60672963 0 8571
0.09050000 0.09049190 21004.84198847 0 150.78096484 0 4137.24514870 0 1466.75879193 0 851.45343938 0 8932
0.09150000 0.09150830 21075.65808807 0 -189.60167620 0 3213.64584074 0 687.62320310 0 108.82298786 0 9285
0.09250000 0.09250820 20772.04811183 0 99.63353107 0 3264.53226660 0 333.59328800 0 -15.67564948 0 9204
0.09350000 0.09350330 20720.45352497 0 507.96613060 0 3462.41268206 0 -592.19569872 0 98.53352099 0 9349
0.09450000 0.09448040 20018.92451285 0 678.52726853 0 3639.54285628 0 -572.28850628 0 -151.49362210 0 9564
0.09550000 0.09549270 19406.30904801 0 730.05441148 0 4058.94277571 0 -748.46210112 0 123.24923901 0 10155
0.09650000 0.09649430 18959.60558796 0 587.19585728 0 4258.52052944 0 -491.97518087 0 -442.27913992 0 9913
0.09750000 0.09749140 18516.04951012 0 423.23522945 0 5034.81110957 0 -300.26813078 0 141.91096735 0 10476
0.09850000 0.09850240 18263.80930771 0 639.22320918 0 5434.94455364 0 -875.14198673 0 -263.93609949 0 10575
0.09950000 0.09950330 18050.46175684 0 357.91018773 0 6233.18812465 0 -570.04262426 0 392.44821117 0 10882
0.10050000 0.10051200 17866.45230437 0 190.23902110 0 6327.38477778 0 -456.71663172 0 419.93834659 0 10875
0.10150000 0.10150300 17714.02908046 0 10.70428060 0 6636.25537856 0 67.80236874 0 -199.39565519 0 11118
0.10250000 0.10250800 17968.62981952 0 164.40463353 0 7437.36531551 0 285.16406839 0 924.17932554 0 11575
0.10350000 0.10349800 17588.35860529 0 488.85927249 0 6692.59352003 0 221.82075340 0 -17.31723411 0 11364
0.10450000 0.10450100 17074.43605387 0 646.28346191 0 7721.50648469 0 213.62519495 0 1619.68784513 0 12093
0.10550000 0.10551000 16603.67760125 0 498.05187665 0 6816.93759841 0 695.61530577 0 547.28705092 0 12067
0.10650000 0.10649700 16343.34413032 0 116.68807117 0 7042.26768297 0 1383.15083180 0 2082.84761785 0 12054
0.10750000 0.10749900 16242.06586724 0 -72.95890485 0 5946.93371314 0 1320.92258935 0 932.78291961 0 12807
0.10850000 0.10850100 16338.62305702 0 -176.67717599 0 5444.84756693 0 1089.09203648 0 1352.52005856 0 12736
0.10950000 0.10950300 16324.68465011 0 14.41883232 0 4613.70261123 0 986.26593579 0 902.41292946 0 12933
0.11050000 0.11050200 16221.72028942 0 132.05516479 0 4154.09488415 0 171.21871600 0 247.20439088 0 13428
0.11150000 0.11150900 15980.15870521 0 273.58507408 0 4218.03170550 0 -389.96290329 0 349.06829187 0 13453
0.11250000 0.11250000 15741.96931622 0 421.83464437 0 4440.13572330 0 -532.14926658 0 -933.88337932 0 13668
0.11350000 0.11349100 15514.23373241 0 498.86569977 0 4825.38654580 0 -325.59444094 0 685.38294141 0 13791
0.11450000 0.11448600 15048.42116611 0 440.74928736 0 4853.78042955 0 -450.29147576 0 13.00071182 0 14205
0.11550000 0.11549300 14932.75487009 0 119.43528621 0 5472.10614496 0 455.95226747 0 1686.61467958 0 14776
0.11650000 0.11649800 14908.92469054 0 -127.56902108 0 5080.56055804 0 1104.38718993 0 1101.64447115 0 14553
0.11750000 0.11747300 15178.36308856 0 -111.46926185 0 4911.95079708 0 802.50714983 0 1194.76876620 0 14568
0.11850000 0.11849100 15023.01729546 0 -52.67571264 0 4785.96558369 0 161.49780125 0 1437.92652281 0 16015
0.11950000 0.11950300 15273.34658724 0 84.31645835 0 4621.13268137 0 -308.26023345 0 980.01613398 0 15270
0.12050000 0.12050700 14999.18711591 0 263.19084435 0 4713.53083038 0 -613.90476748 0 1605.03003658 0 15999
0.12150000 0.12150000 14854.40753450 0 271.89448021 0 5002.24694440 0 17.95941249 0 1343.76359164 0 15670
0.12250000 0.12250700 14734.02016517 0 150.33246288 0 4822.13799774 0 370.66270598 0 1591.30520203 0 16887
0.12350000 0.12352200 14403.88225320 0 197.77138116 0 4003.26783264 0 774.75847944 0 824.96484593 0 16407
0.12450000 0.12449800 14386.90887060 0 181.12060523 0 4197.18029840 0 883.29707883 0 1903.60420129 0 16306
0.12550000 0.12549900 14142.76193672 0 -50.56033458 0 3288.84579413 0 1040.84603948 0 1598.94884453 0 17523
0.12650000 0.12650100 14344.75643035 0 -23.52016240 0 3251.81909062 0 819.34002430 0 2608.22439237 0 17154
0.12750000 0.12750600 14115.33474893 0 4.07367927 0 3150.70943729 0 -31.62084976 0 1815.81471908 0 18007
0.12850000 0.12850300 14253.03272039 0 203.78175710 0 3683.50504129 0 -351.83574008 0 2191.73580148 0 17496
0.12950000 0.12949900 14094.87676460 0 373.43015419 0 3628.95416329 0 -422.88901741 0 2238.44070527 0 18405
0.13050000 0.13049000 13670.42979300 0 407.87600429 0 3808.90574085 0 -327.72004800 0 1912.02344869 0 18100
0.13150000 0.13148800 13658.06507720 0 163.66275058 0 4143.66356027 0 104.86830212 0 1985.13264105 0 19059
0.13250000 0.13249300 13253.73887040 0 319.34126694 0 3854.71139258 0 279.33466693 0 1101.08131455 0 18957
0.13350000 0.13349100 13137.73535486 0 265.79755125 0 3749.57758629 0 482.27449929 0 1021.78639210 0 19468
0.13450000 0.13450700 12766.56906772 0 241.20975184 0 3579.15808056 0 153.52817988 0 908.39183159 0 19953
0.13550000 0.13551000 12644.94522681 0 339.58680297 0 3199.52758342 0 503.22594819 0 913.73226475 0 19956
0.13650000 0.13649900 12345.71910435 0 206.39970466 0 3274.25542948 0 128.93363608 0 476.21129228 0 19723
0.13750000 0.13749600 12076.73033236 0 261.90041764 0 3228.77575662 0 60.20885954 0 149.03416772 0 20946
0.13850000 0.13851100 11884.17798534 0 253.88920587 0 3376.38798202 0 -280.12713280 0 418.24438053 0 20955
0.13950000 0.13949800 11764.12783553 0 206.20973766 0 3560.17262147 0 -335.84029409 0 321.92549255 0 20506
0.14050000 0.14048300 11706.57570379 0 78.64139102 0 3796.41737788 0 -330.76626435 0 627.76224170 0 21447
0.14150000 0.14148400 11787.28357604 0 -85.96040352 0 3640.31846118 0 85.52044445 0 356.75352477 0 21771
0.14250000 0.14249400 11777.61661641 0 -108.66449468 0 3656.85345841 0 369.54201311 0 265.08714212 0 22470
0.14350000 0.14350900 11933.41203554 0 126.89008578 0 3522.38155371 0 346.33344154 0 355.32146587 0 22519
0.14450000 0.14449900 11591.92106633 0 257.47834564 0 3178.92347063 0 498.56445033 0 167.46096646 0 22218
0.14550000 0.14550500 11442.87003764 0 344.18198099 0 3309.58479473 0 456.60647334 0 859.41294416 0 23559
0.14650000 0.14650700 11147.54442099 0 256.04741081 0 3071.95743827 0 139.93148875 0 800.52542311 0 23044
0.14750000 0.14750500 10986.02751063 0 185.24255185 0 2937.54173683 0 486.30989290 0 1146.62505912 0 23649
0.14850000 0.14849900 10924.32757877 0 131.91016039 0 3136.96212145 0 75.83482534 0 1510.05777855 0 23640
0.14950000 0.14949500 10767.20576285 0 82.21917774 0 2730.41026581 0 14.87992381 0 1349.06917878 0 24457
0.15050000 0.15050000 10877.97113516 0 40.78793765 0 3227.64045090 0 -265.84925824 0 1648.19413538 0 24591
0.15150000 0.15149900 10774.68079559 0 68.58314434 0 3072.39582365 0 -245.59248156 0 1212.36038459 0 25020
0.15250000 0.15250500 10858.78334436 0 -2.77863266 0 3439.27942286 0 -194.77911993 0 1278.41044829 0 25297
0.15350000 0.15350100 10634.55484358 0 20.77249774 0 3150.72067794 0 115.03344739 0 1008.01097463 0 25452
0.15450000 0.15450400 10738.01379290 0 133.21519994 0 3462.63749508 0 94.63110428 0 975.40297092 0 26061
0.15550000 0.15549900 10649.10024562 0 102.21326041 0 3110.54659223 0 295.56841471 0 756.92968331 0 26128
0.15650000 0.15649500 10546.31573534 0 185.60450081 0 3376.90505195 0 41.41404189 0 1303.11739859 0 26331
0.15750000 0.15749700 10481.20988630 0 48.57557288 0 2776.82291268 0 391.20499520 0 1129.17956918 0 27345
0.15850000 0.15849900 10374.18765069 0 41.20215563 0 3264.39737879 0 233.78305390 0 1574.36554138 0 26980
0.15950000 0.15949700 10447.13947394 0 155.41773327 0 2771.27003122 0 180.32476716 0 1291.48332509 0 27777
0.16050000 0.16050000 10279.20415202 0 165.28927274 0 2749.30579969 0 138.45221912 0 1474.45863769 0 28224
0.16150000 0.16150500 10137.61691541 0 196.44273624 0 2585.77681286 0 274.78107931 0 1406.91356744 0 28075
0.16250000 0.16249700 9864.19932703 0 214.80209108 0 2199.54805374 0 536.50052248 0 973.84614080 0 28590
0.16350000 0.16349900 9615.29759789 0 133.82669134 0 2175.72911484 0 288.64754606 0 957.85294294 0 29163
0.16450000 0.16449100 9541.45776324 0 130.86253175 0 1641.87688967 0 348.49277055 0 620.53787547 0 28996
0.16550000 0.16550500 9337.48491508 0 139.38294500 0 1810.58781649 0 64.04270829 0 532.38644431 0 30777
0.16650000 0.16650700 9291.43196903 0 169.89793954 0 1688.12092678 0 -194.24856122 0 617.14881928 0 29211
0.16750000 0.16749900 9154.02625450 0 5.36865844 0 1702.00313043 0 -168.73115999 0 486.85618853 0 30922
0.16850000 0.16850800 9257.33907536 0 47.15138243 0 1866.73486690 0 -277.49569647 0 344.27865059 0 30867
0.16950000 0.16949900 9207.01468204 0 59.02297089 0 1723.91115871 0 -108.62976107 0 157.71757041 0 30852
0.17050000 0.17049200 9166.78439308 0 121.39565570 0 1950.36530833 0 -244.56171389 0 -345.59717892 0 31257
0.17150000 0.17149500 9108.79387595 0 208.86140717 0 1959.71752974 0 -321.09593252 0 -459.77746091 0 32608
0.17250000 0.17250900 8929.83147567 0 264.70046374 0 2205.44939537 0 -149.82550953 0 -236.52015236 0 32361
0.17350000 0.17350400 8724.75704373 0 213.20367054 0 2269.65599235 0 -227.05215225 0 -381.35256483 0 32508
0.17450000 0.17449800 8665.44012982 0 134.42132177 0 2441.91896480 0 -90.12382815 0 -157.42194129 0 32791
0.17550000 0.17549800 8570.67020351 0 110.83450231 0 2715.66253205 0 -21.91814486 0 -258.97784845 0 33633
0.17650000 0.17650100 8508.29583260 0 100.35731657 0 2554.61772903 0 61.75725918 0 -39.75750720 0 33984
0.17750000 0.17750300 8415.09959739 0 114.83223974 0 2813.13021454 0 112.46271056 0 175.51714084 0 34069
