### header ###
fiducial parameters:
Omega_m = 0.31
Omega_nu = 0
Omega_de = 0.69
Omega_k = 0
H_0 = 100
w_de = -1
zeff = 0
beta = 0
fgrowth = 0
b_1 = 2
gamma = 0.55
Lx = 3500 Ly = 3500 Lz = 3500
nx = 700 ny = 700 nz = 700
xoffset = 857.220397 yoffset = 15.9954215 zoffset = 262.898189
bins = 400 dk = 0.001
kx_ny = 0.628318531 ky_ny = 0.628318531 kz_ny = 0.628318531
############################
A(data) = 3.08759413 (not used)
A(ran) = 3.08281844 (used)
Ngal = 188146
weighted Ngal = 0
Nran = 9360983
weighted Nran = 0
SN(data) = 3463.71946
SN(ran) = 69.2285163
SN(data+ran) = 3532.94798
############################
13 columns: k_central k_mean P_0(k) sigma^{lin}_{P_0(k)} P^img_1(k) sigma^{lin}_{P_1(k)} P_2(k) sigma^{lin}_{P_2(k)} P^img_3(k) sigma^{lin}_{P_3(k)} P_4(k) sigma^{lin}_{P_4(k)} N_modes
### header ###
0.00050000 0 0 0 0 0 0 0 0 0 0 0 0
0.00150000 0.00179520 9406.04164388 0 -11836.29281323 0 -7546.01744548 0 32084.86382051 0 -2187.75661112 0 3
0.00250000 0.00253879 19058.29850138 0 -15167.01003133 0 247.70684796 0 -14946.58087049 0 -4750.29899892 0 6
0.00350000 0.00331552 23202.83883240 0 -9005.88571851 0 -884.29075236 0 -13173.03099816 0 16493.74403711 0 7
0.00450000 0.00420575 30710.24464262 0 -4966.54663768 0 2936.62000347 0 -20087.94210834 0 -643.10123369 0 24
0.00550000 0.00557378 33050.32331180 0 -2306.59277065 0 8711.69540758 0 -21566.42489899 0 -4503.54423407 0 45
0.00650000 0.00659388 54622.59334916 0 -10692.53412005 0 27728.43722321 0 -27346.14269185 0 -25243.12934659 0 40
0.00750000 0.00754703 52398.63060204 0 -8537.06065782 0 20461.01930610 0 -4026.88443982 0 -15602.24802763 0 57
0.00850000 0.00846663 70803.17285690 0 -10070.01564191 0 37328.73979303 0 -15974.98800587 0 -23162.37248977 0 75
0.00950000 0.00948925 69232.17951074 0 -6387.36489008 0 33544.91194396 0 -12508.14650742 0 -23309.06298181 0 112
0.01050000 0.01054430 93539.74949699 0 -1163.28370350 0 29553.91890192 0 15852.57731941 0 -19774.88998548 0 105
0.01150000 0.01145670 82264.70237476 0 4065.49607508 0 30639.87816904 0 1643.46182143 0 -17713.91667395 0 144
0.01250000 0.01249090 86089.22137947 0 6601.11710438 0 22785.47347076 0 8521.77337283 0 -21695.57997589 0 169
0.01350000 0.01339930 77996.62729220 0 5678.65310214 0 42344.76777522 0 -8732.38944558 0 -13315.11282340 0 180
0.01450000 0.01448870 72902.70160044 0 8803.66641186 0 21940.06412929 0 -7218.24007016 0 -16939.09861907 0 267
0.01550000 0.01550050 69684.05367013 0 7199.10848262 0 34877.94071415 0 -4611.07229896 0 -18473.44744385 0 238
0.01650000 0.01653350 64439.50325857 0 2916.97134599 0 44182.95138926 0 -12340.66081153 0 -4534.53470814 0 315
0.01750000 0.01747870 66824.20731115 0 876.38632676 0 50757.04596928 0 6812.74483569 0 -8657.33562065 0 297
0.01850000 0.01844180 73976.52096477 0 -6056.67618622 0 65388.55139979 0 8739.71834985 0 18814.03916100 0 388
0.01950000 0.01947590 77294.98587357 0 -3921.28976686 0 55191.81990218 0 26144.06750268 0 13764.96366565 0 399
0.02050000 0.02045430 87383.69471765 0 -5272.83188880 0 64026.40934420 0 34223.51002859 0 47244.00539633 0 462
0.02150000 0.02154770 86321.00359754 0 -2749.89031353 0 44286.70259551 0 41570.06212684 0 45614.44825985 0 571
0.02250000 0.02255340 90535.01115009 0 -2852.59613926 0 38764.84533042 0 37235.77961148 0 52326.24081133 0 510
0.02350000 0.02348930 88250.46129552 0 772.68457938 0 25788.75053307 0 27107.95330286 0 40814.01595868 0 555
0.02450000 0.02439640 87297.92855257 0 2595.96084242 0 9687.39513168 0 2771.93322961 0 36374.18373295 0 592
0.02550000 0.02547300 78352.39388784 0 6537.12407977 0 4190.64948032 0 -8341.81055463 0 26068.19311024 0 837
0.02650000 0.02652900 69313.89904155 0 9409.71733667 0 5799.75987311 0 -14204.36070272 0 6346.74117834 0 723
0.02750000 0.02749970 62694.50463909 0 7378.74532195 0 8910.60996292 0 -8827.39542555 0 3948.17740340 0 826
0.02850000 0.02848090 55059.18022356 0 7587.33807756 0 9059.55982575 0 -7679.03930623 0 -15581.67763679 0 831
0.02950000 0.02946900 51860.20343202 0 4539.98642374 0 13192.47732392 0 2228.02062204 0 -3127.13779271 0 996
0.03050000 0.03053250 46830.01222990 0 1158.25913262 0 18286.29060918 0 2688.03301256 0 -1147.17585100 0 1041
0.03150000 0.03150510 50245.14673499 0 -1110.20197855 0 15838.30169298 0 11705.56404522 0 10227.11497653 0 1036
0.03250000 0.03246190 48767.11357038 0 -2888.59994355 0 20533.29669030 0 13769.45992594 0 13801.15856100 0 1059
0.03350000 0.03345080 54178.02561275 0 -2244.96028269 0 12017.82932253 0 9892.62693273 0 24256.64983844 0 1302
0.03450000 0.03451200 54672.72665142 0 -997.83144133 0 16696.07575026 0 4663.79095089 0 28923.43080242 0 1339
0.03550000 0.03553350 55764.86827645 0 1117.96926821 0 11740.74728201 0 3613.92541327 0 29442.97367921 0 1365
0.03650000 0.03647120 53534.16113888 0 1542.01494858 0 12394.27871551 0 4324.75044354 0 31601.17861956 0 1308
0.03750000 0.03744890 54478.48820679 0 2891.97213877 0 9186.70282617 0 2573.80551983 0 28564.96645061 0 1579
0.03850000 0.03847530 48555.78933663 0 3367.50786794 0 11655.65555598 0 -438.80240665 0 21513.36902754 0 1662
0.03950000 0.03950240 46260.44845736 0 3696.08332946 0 12907.97645392 0 -1274.33009207 0 18994.22679221 0 1683
0.04050000 0.04050350 43550.88959866 0 2711.05386525 0 12688.55895165 0 -3964.28525590 0 10470.54250876 0 1822
0.04150000 0.04152450 42782.81593421 0 1519.09526174 0 17572.84650728 0 -2235.72046779 0 16600.08059302 0 1887
0.04250000 0.04250150 40651.02652308 0 855.39216339 0 13926.82903618 0 -590.99856942 0 4796.39690756 0 1920
0.04350000 0.04349210 40454.20272878 0 -451.27840490 0 15727.58128328 0 4591.53604799 0 8258.10142863 0 2005
0.04450000 0.04448520 40463.30765587 0 -1127.47099027 0 12965.64099217 0 4227.28276105 0 2738.58221889 0 2151
0.04550000 0.04548030 41601.08632286 0 -187.43335468 0 12147.09680594 0 2963.19290180 0 3022.27376204 0 2274
0.04650000 0.04648670 41464.40000997 0 -145.31014013 0 13176.96522591 0 -34.05872209 0 10.41822852 0 2311
0.04750000 0.04749250 40613.37034313 0 1577.32183252 0 10772.45514674 0 -3955.38266052 0 332.24440992 0 2568
0.04850000 0.04851840 39548.99312541 0 1881.29150959 0 14974.90731033 0 -4575.60804591 0 -487.33054399 0 2493
0.04950000 0.04949480 38556.66847888 0 1305.44421329 0 13958.07804521 0 -4015.65502974 0 -2793.50403836 0 2644
0.05050000 0.05050630 38434.03297940 0 574.30732715 0 15724.54630758 0 -14.29664645 0 -3978.49343843 0 2829
0.05150000 0.05149060 37487.45778135 0 766.22457740 0 13769.90955197 0 -2821.74055300 0 -7670.21539540 0 2784
0.05250000 0.05249300 38175.49801259 0 -171.08720039 0 13167.86029882 0 1222.57813611 0 -9408.90800982 0 3055
0.05350000 0.05348950 36997.81503551 0 713.41937246 0 12985.42453746 0 -1551.88423992 0 -10971.22357362 0 3009
0.05450000 0.05448610 37420.57590950 0 656.26628382 0 12678.89199202 0 254.03870652 0 -10151.34174995 0 3336
0.05550000 0.05550870 36452.08144252 0 300.02196053 0 11451.63774521 0 883.98388259 0 -8718.12505980 0 3349
0.05650000 0.05647670 36723.76797068 0 -436.75211196 0 11743.44503819 0 3838.83959374 0 -6736.08359770 0 3324
0.05750000 0.05747970 37156.08339780 0 -298.98894473 0 11209.98623580 0 3588.61146782 0 -4003.26783264 0 3639
0.05850000 0.05849280 37151.36232449 0 21.14793547 0 11044.26532207 0 4316.16258638 0 -3520.18962682 0 3846
0.05950000 0.05951020 37082.34472900 0 1261.36962178 0 8379.90511995 0 744.67624995 0 2616.69984302 0 3787
0.06050000 0.06049470 34860.74251853 0 1708.17424768 0 10620.35790170 0 2467.49144521 0 1862.22736595 0 3930
0.06150000 0.06148310 33898.09318993 0 1579.88470089 0 9004.03101114 0 561.33674027 0 5072.00642284 0 4083
0.06250000 0.06249100 31987.29497217 0 752.72567994 0 7898.40060524 0 1962.12302900 0 1237.52820158 0 4303
0.06350000 0.06350600 30828.83350783 0 538.55980969 0 6680.02647251 0 2072.41629397 0 504.37699082 0 4470
0.06450000 0.06451750 30974.96196733 0 -44.61178221 0 5098.86033743 0 3117.92045911 0 -850.63849220 0 4479
0.06550000 0.06550280 30060.64743687 0 314.26161688 0 2710.10965059 0 966.91740368 0 -148.41930412 0 4636
0.06650000 0.06648880 29782.10411176 0 431.90514336 0 2569.24181563 0 2295.80174595 0 1451.59515410 0 4653
0.06750000 0.06749660 29267.05749527 0 863.26399110 0 2878.10117577 0 100.70442787 0 1612.23529370 0 5220
0.06850000 0.06852730 29205.90835529 0 999.85026220 0 3463.22200892 0 543.21343910 0 4146.59737011 0 5029
0.06950000 0.06949320 28394.78299854 0 238.01515890 0 6032.00295787 0 -507.05901008 0 7078.59746613 0 5040
0.07050000 0.07048030 29445.78384189 0 361.99504021 0 8719.37277203 0 -791.06641552 0 9562.08435733 0 5475
0.07150000 0.07148790 29758.16152570 0 -344.12802587 0 9748.84776923 0 250.57096577 0 10218.88682019 0 5509
0.07250000 0.07249820 30481.83461977 0 -1.27338588 0 12616.39397396 0 -975.26133872 0 11574.27324469 0 5916
0.07350000 0.07351270 30177.55020448 0 307.38458676 0 12297.72152573 0 224.19590289 0 10842.81037967 0 5721
0.07450000 0.07449140 30132.47519505 0 459.36830123 0 12327.28443716 0 -125.98071713 0 9085.14354682 0 6028
0.07550000 0.07549160 29841.67956064 0 300.10963761 0 11671.72968652 0 431.22620806 0 7851.21235347 0 6183
0.07650000 0.07648840 29508.61907948 0 138.50505018 0 11176.25304295 0 -14.39769990 0 3485.14127784 0 6330
0.07750000 0.07749960 29016.95301650 0 260.31098963 0 8877.47252456 0 -571.56011211 0 1223.83708899 0 6583
0.07850000 0.07848650 29133.63097109 0 667.62833358 0 10803.43438016 0 -32.55989372 0 -1752.63102133 0 6549
0.07950000 0.07947320 27475.74739478 0 1222.08354747 0 8197.35695208 0 -1153.51557801 0 -2440.32279240 0 6828
0.08050000 0.08048110 26782.98609023 0 1025.13273382 0 8642.67781209 0 -646.72184729 0 -4695.54578921 0 7147
0.08150000 0.08149960 25381.38935058 0 562.16742436 0 7397.84318754 0 1130.88814809 0 -5300.23659528 0 7386
0.08250000 0.08250610 25230.98944380 0 441.64067096 0 7016.25681717 0 996.52078145 0 -5763.90219728 0 7227
0.08350000 0.08350160 24771.47164191 0 114.23760931 0 6018.87387781 0 865.54022287 0 -6907.07637662 0 7798
0.08450000 0.08449610 24139.74707083 0 276.40198115 0 4734.38223748 0 188.63947650 0 -5118.71132663 0 7371
0.08550000 0.08548940 23560.74115168 0 838.68630828 0 5144.98072738 0 -161.93056630 0 -6465.64478177 0 8256
0.08650000 0.08650700 22829.42441512 0 1115.27151203 0 5010.91348611 0 -32.97354967 0 -4245.59378110 0 8037
0.08750000 0.08749060 21820.68841852 0 793.78665300 0 5213.99832287 0 659.07082618 0 -2852.10155063 0 8155
0.08850000 0.08849210 21081.61563296 0 762.09813452 0 5576.11588617 0 1264.31467227 0 -652.91544584 0 8718
0.08950000 0.08949900 20549.25841434 0 785.43934576 0 5941.84169835 0 1293.67525198 0 -586.19206717 0 8571
0.09050000 0.09049190 20117.84223928 0 711.39493127 0 5594.92149484 0 863.12685516 0 1229.71594932 0 8932
0.09150000 0.09150830 19006.25428850 0 763.98094352 0 6185.78630052 0 94.17181129 0 669.52575542 0 9285
0.09250000 0.09250820 19100.33853511 0 560.64319212 0 5799.92848288 0 -607.50546502 0 1475.80751577 0 9204
0.09350000 0.09350330 18517.62320122 0 176.50519404 0 6170.92616025 0 -119.54881678 0 761.13143856 0 9349
0.09450000 0.09448040 18439.72549165 0 94.03973364 0 5138.44990931 0 197.88715986 0 225.65156716 0 9564
0.09550000 0.09549270 18024.94547968 0 263.70566615 0 5302.57465063 0 318.71853489 0 -447.37677503 0 10155
0.09650000 0.09649430 18016.06536560 0 699.59786833 0 4660.91334430 0 310.23296765 0 -1525.98578064 0 9913
0.09750000 0.09749140 17067.35444391 0 565.64640576 0 4892.42578676 0 213.92532032 0 -815.26528841 0 10476
0.09850000 0.09850240 16826.69211176 0 318.75225684 0 4654.40500753 0 479.29797497 0 -813.54659292 0 10575
0.09950000 0.09950330 16845.35159197 0 -216.38027844 0 5061.63130221 0 431.13740692 0 -649.31056915 0 10882
0.10050000 0.10051200 16829.38986793 0 -379.63836559 0 4515.04341977 0 383.07238439 0 -1158.11300416 0 10875
0.10150000 0.10150300 17440.31923516 0 -207.09325281 0 4718.92634273 0 11.66318679 0 -632.21915971 0 11118
0.10250000 0.10250800 17255.97256317 0 282.78442263 0 3970.20907884 0 -228.68204660 0 -1253.83838579 0 11575
0.10350000 0.10349800 17267.21321390 0 442.01835682 0 4520.84359555 0 -133.17023734 0 -1017.14625148 0 11364
0.10450000 0.10450100 16388.19432674 0 401.24851662 0 3158.94883428 0 294.22066069 0 -945.64447218 0 12093
0.10550000 0.10551000 16491.94553299 0 284.04337552 0 4182.14030772 0 558.41754327 0 -1067.49312610 0 12067
0.10650000 0.10649700 16295.45895821 0 64.44388711 0 3733.51469639 0 308.40411378 0 -637.00430473 0 12054
0.10750000 0.10749900 16270.05508756 0 201.18067052 0 3660.60783575 0 -69.17282887 0 -1250.85961334 0 12807
0.10850000 0.10850100 16158.43542580 0 141.25001709 0 4719.90427934 0 -482.62295946 0 -96.31338006 0 12736
0.10950000 0.10950300 15976.67410348 0 358.76222906 0 4694.12946721 0 -999.93231895 0 -340.00720331 0 12933
0.11050000 0.11050200 15943.40177732 0 260.77073224 0 5939.82962187 0 -321.21058716 0 548.46844331 0 13428
0.11150000 0.11150900 15506.02805737 0 269.26416794 0 5716.59029836 0 87.22396507 0 871.63602776 0 13453
0.11250000 0.11250000 15701.61538009 0 349.98440490 0 7005.83673395 0 87.51296220 0 1002.34681072 0 13668
0.11350000 0.11349100 15401.82722510 0 276.04677659 0 6293.02210849 0 485.57363028 0 1394.15542886 0 13791
0.11450000 0.11448600 15281.66466878 0 222.01072039 0 6951.75796328 0 24.60859461 0 1537.77722325 0 14205
0.11550000 0.11549300 15059.77422335 0 153.47310069 0 6013.21983050 0 35.17840331 0 1337.54751178 0 14776
0.11650000 0.11649800 14986.37277408 0 140.37886665 0 6982.59106824 0 153.99354282 0 1438.81453422 0 14553
0.11750000 0.11747300 14845.30260741 0 129.15732503 0 6211.85336956 0 217.34697440 0 924.24901757 0 14568
0.11850000 0.11849100 14752.45483237 0 194.45651326 0 6387.27496487 0 207.87222990 0 659.85429954 0 16015
0.11950000 0.11950300 14638.69944697 0 243.96933160 0 6033.74525873 0 402.75251569 0 953.00372621 0 15270
0.12050000 0.12050700 14384.77314696 0 37.34324023 0 5515.04543075 0 645.32688253 0 856.45665302 0 15999
0.12150000 0.12150000 14528.99069584 0 -67.11264241 0 5459.28056247 0 951.02537168 0 1005.71563375 0 15670
0.12250000 0.12250700 14619.59034073 0 -32.39240802 0 5057.97809073 0 408.22671260 0 1170.39903541 0 16887
0.12350000 0.12352200 14548.77424112 0 47.51647877 0 4781.72785836 0 440.48063580 0 1106.01596022 0 16407
0.12450000 0.12449800 14493.80745905 0 129.45520227 0 4426.38840745 0 160.21299487 0 1034.30735295 0 16306
0.12550000 0.12549900 14303.05361614 0 208.70066586 0 4476.54419101 0 -103.17703381 0 303.50206600 0 17523
0.12650000 0.12650100 13989.55186726 0 258.70132844 0 4250.65207392 0 127.70615702 0 38.53092739 0 17154
0.12750000 0.12750600 13718.53977813 0 284.72455895 0 4570.62843763 0 -390.50357859 0 -344.08755953 0 18007
0.12850000 0.12850300 13510.70014611 0 344.61811824 0 4189.79519087 0 146.75906001 0 -842.20238382 0 17496
0.12950000 0.12949900 13203.49316164 0 198.75381403 0 4608.93657532 0 -108.26668805 0 -798.70218956 0 18405
0.13050000 0.13049000 13044.10073427 0 328.15168899 0 4273.23454124 0 -238.79301193 0 -1071.32169174 0 18100
0.13150000 0.13148800 13119.75031369 0 249.45252102 0 4804.65878585 0 321.12066195 0 -634.12782221 0 19059
0.13250000 0.13249300 12632.58051101 0 118.69227920 0 4305.25915518 0 141.85139190 0 -746.48149846 0 18957
0.13350000 0.13349100 12838.73404542 0 -33.90067854 0 4288.61175144 0 544.86918695 0 -270.77153920 0 19468
0.13450000 0.13450700 12739.25428645 0 -140.99373025 0 3683.49380064 0 689.92304024 0 -699.50457092 0 19953
0.13550000 0.13551000 12902.35612855 0 -90.31784178 0 2945.51135820 0 775.31713978 0 -653.62023464 0 19956
0.13650000 0.13649900 12719.35833465 0 48.99597322 0 3081.64687920 0 246.53669622 0 -646.86347949 0 19723
0.13750000 0.13749600 12630.78200689 0 290.28868106 0 2083.30848453 0 49.78428006 0 -1359.77027828 0 20946
0.13850000 0.13851100 12134.73209013 0 410.18708208 0 2420.38187800 0 -47.30133272 0 -1219.82417668 0 20955
0.13950000 0.13949800 11836.51762624 0 366.11811089 0 2262.91160191 0 -16.33221589 0 -1522.37753175 0 20506
0.14050000 0.14048300 11427.35793963 0 312.63059846 0 2247.33206000 0 219.29947544 0 -1106.89385504 0 21447
0.14150000 0.14148400 11241.88720257 0 305.87271924 0 2280.66058941 0 255.38308835 0 -1458.05852827 0 21771
0.14250000 0.14249400 11048.23327178 0 175.39012149 0 2259.98903272 0 472.14105265 0 -886.15445225 0 22470
0.14350000 0.14350900 10899.55318456 0 120.16030818 0 2355.57952654 0 620.20402815 0 -526.49072300 0 22519
0.14450000 0.14449900 10876.50985056 0 30.46857065 0 2198.46895127 0 494.34583411 0 389.63917255 0 22218
0.14550000 0.14550500 10760.79859194 0 92.79190900 0 2225.34534717 0 364.72427020 0 703.70070584 0 23559
0.14650000 0.14650700 10808.34654453 0 115.01433828 0 2223.22086418 0 388.10931998 0 961.54100044 0 23044
0.14750000 0.14750500 10604.49734352 0 211.40629049 0 2298.88168425 0 151.42280600 0 1757.75675806 0 23649
0.14850000 0.14849900 10575.92360936 0 182.70441292 0 2227.41362690 0 143.23624007 0 1338.76150206 0 23640
0.14950000 0.14949500 10336.07060407 0 11.96578511 0 2116.06374076 0 96.30517439 0 1598.43177460 0 24457
0.15050000 0.15050000 10403.85172797 0 4.75029900 0 2038.24471575 0 -211.98405994 0 859.71981392 0 24591
0.15150000 0.15149900 10400.23223844 0 -38.11468609 0 2083.55577885 0 -355.44960929 0 796.33041226 0 25020
0.15250000 0.15250500 10407.94332484 0 186.67798295 0 2219.03934211 0 -544.20823669 0 103.45737564 0 25297
0.15350000 0.15350100 10227.32854889 0 235.65799445 0 2326.71353546 0 -624.36868924 0 103.51088113 0 25452
0.15450000 0.15450400 10055.04309514 0 403.05938546 0 2557.63022343 0 -292.22432112 0 -80.11908696 0 26061
0.15550000 0.15549900 9785.30119955 0 332.39053838 0 2717.42731422 0 112.25296002 0 -35.07813670 0 26128
0.15650000 0.15649500 9472.08046693 0 274.87325265 0 2414.63790548 0 269.73964746 0 -312.19446121 0 26331
0.15750000 0.15749700 9275.38031979 0 174.96747302 0 2608.28059562 0 200.36684741 0 -398.62607281 0 27345
0.15850000 0.15849900 9139.23355813 0 97.02255272 0 2106.48670634 0 166.19077293 0 -56.92793841 0 26980
0.15950000 0.15949700 9172.17990543 0 25.31046084 0 2371.93467335 0 125.20960849 0 -343.84813367 0 27777
0.16050000 0.16050000 9074.89207335 0 13.74349402 0 1655.83777788 0 126.16393974 0 -146.90181627 0 28224
0.16150000 0.16150500 9077.27509130 0 66.89794598 0 1733.76920940 0 199.69240837 0 -458.87371260 0 28075
0.16250000 0.16249700 8900.96548459 0 180.81261140 0 1620.54213459 0 230.84025154 0 -391.06898332 0 28590
0.16350000 0.16349900 8788.05314800 0 116.22608043 0 1262.67353726 0 326.05193543 0 -352.17408366 0 29163
0.16450000 0.16449100 8753.73544131 0 42.90961047 0 1387.86066445 0 302.16892482 0 -374.52611764 0 28996
0.16550000 0.16550500 8756.96150807 0 -38.05376177 0 1043.91136493 0 254.31972279 0 17.23158035 0 30777
0.16650000 0.16650700 8806.81379407 0 32.53718761 0 1374.40560553 0 -147.87413256 0 -159.08443354 0 29211
0.16750000 0.16749900 8833.60026476 0 15.07562354 0 1374.32692097 0 -202.42276243 0 299.50938686 0 30922
0.16850000 0.16850800 8813.28840889 0 137.52486543 0 1512.04737373 0 -332.11514243 0 53.44108855 0 30867
0.16950000 0.16949900 8776.98110703 0 210.82402479 0 1864.26192373 0 -318.82869327 0 224.93778584 0 30852
0.17050000 0.17049200 8545.59231173 0 225.89548929 0 1914.05800647 0 -263.82256892 0 129.40686748 0 31257
0.17150000 0.17149500 8435.59130368 0 229.64537037 0 2213.54266390 0 -188.19547080 0 -243.45900605 0 32608
0.17250000 0.17250900 8259.11308720 0 181.24650052 0 2125.87682885 0 -123.54936438 0 -34.17809780 0 32361
0.17350000 0.17350400 8075.74435182 0 165.99968187 0 2541.47740832 0 -197.52183871 0 -424.52228396 0 32508
0.17450000 0.17449800 8048.53073640 0 49.94479655 0 2258.31417576 0 -39.98479315 0 -142.51009403 0 32791
0.17550000 0.17549800 8081.07242027 0 -34.47451376 0 2351.73522399 0 231.48096863 0 -265.06466082 0 33633
0.17650000 0.17650100 8078.03744457 0 -116.67233426 0 1892.66704813 0 492.52934495 0 -347.02811376 0 33984
0.17750000 0.17750300 8212.62175578 0 -57.23447095 0 2006.81585631 0 485.89398882 0 -309.77996943 0 34069
