### header ###
fiducial parameters:
Omega_m = 0.31
Omega_nu = 0
Omega_de = 0.69
Omega_k = 0
H_0 = 100
w_de = -1
zeff = 0
beta = 0
fgrowth = 0
b_1 = 2
gamma = 0.55
Lx = 3500 Ly = 3500 Lz = 3500
nx = 700 ny = 700 nz = 700
xoffset = 857.220397 yoffset = 15.9954215 zoffset = 262.898189
bins = 400 dk = 0.001
kx_ny = 0.628318531 ky_ny = 0.628318531 kz_ny = 0.628318531
############################
A(data) = 3.08873707 (not used)
A(ran) = 3.08263828 (used)
Ngal = 188260
weighted Ngal = 0
Nran = 9360983
weighted Nran = 0
SN(data) = 3463.37224
SN(ran) = 69.2244707
SN(data+ran) = 3532.59671
############################
13 columns: k_central k_mean P_0(k) sigma^{lin}_{P_0(k)} P^img_1(k) sigma^{lin}_{P_1(k)} P_2(k) sigma^{lin}_{P_2(k)} P^img_3(k) sigma^{lin}_{P_3(k)} P_4(k) sigma^{lin}_{P_4(k)} N_modes
### header ###
0.00050000 0 0 0 0 0 0 0 0 0 0 0 0
0.00150000 0.00179520 11634.07350658 0 -16648.30298466 0 -12340.32359200 0 22254.80234975 0 44982.49887576 0 3
0.00250000 0.00253879 19196.44609886 0 -17075.33530593 0 -5658.15015521 0 -18135.55348287 0 -24893.54510885 0 6
0.00350000 0.00331552 31041.84383918 0 -18974.66805994 0 -13141.89439563 0 -1266.83257803 0 12057.17160009 0 7
0.00450000 0.00420575 39685.90425132 0 -14130.06000139 0 -10824.31950922 0 -17387.93780276 0 -4837.77374291 0 24
0.00550000 0.00557378 50307.98197258 0 -1308.38926379 0 1572.33098360 0 -31005.08691129 0 2909.73236692 0 45
0.00650000 0.00659388 43821.11484223 0 1928.17626379 0 -8137.98383492 0 -9463.17787155 0 -8649.32103667 0 40
0.00750000 0.00754703 48562.98335310 0 4981.35057469 0 17858.92106838 0 -24744.71889317 0 19531.64230366 0 57
0.00850000 0.00846663 45085.91286248 0 2606.48209150 0 316.21861417 0 3304.66138971 0 2123.50505154 0 75
0.00950000 0.00948925 51932.48081622 0 -6566.21488386 0 17289.58210886 0 11753.67403035 0 13702.12842806 0 112
0.01050000 0.01054430 61817.84628858 0 -7074.43842536 0 -1002.50417983 0 1945.93649195 0 -1302.84762298 0 105
0.01150000 0.01145670 63320.15925878 0 -7113.80318422 0 -2814.76010890 0 12759.48745776 0 -14298.89457537 0 144
0.01250000 0.01249090 70629.72961612 0 -3119.39298436 0 7516.51073731 0 -14519.54854922 0 -14478.40776755 0 169
0.01350000 0.01339930 70403.00569088 0 -1119.54520744 0 -9340.99199810 0 -2578.09944841 0 -26122.37304676 0 180
0.01450000 0.01448870 70687.28174787 0 449.89468079 0 10687.75684349 0 -8287.81046851 0 -4492.28110204 0 267
0.01550000 0.01550050 68225.46683127 0 -2184.87900453 0 -11667.12101972 0 -1347.31563727 0 -20534.87038140 0 238
0.01650000 0.01653350 72355.95634888 0 -2357.71525017 0 6503.84051295 0 10128.81548589 0 -7222.56772069 0 315
0.01750000 0.01747870 70622.87281918 0 -378.60534979 0 -17717.17646267 0 -2917.11747445 0 -14305.18933978 0 297
0.01850000 0.01844180 71792.01290171 0 -340.62094284 0 -5836.23578474 0 9733.90894441 0 -4609.77962413 0 388
0.01950000 0.01947590 70077.92607174 0 544.81972809 0 -10164.51579261 0 -11096.81536424 0 -2685.60503200 0 399
0.02050000 0.02045430 68898.21977752 0 265.98751825 0 -9467.12333996 0 -14136.24235929 0 10890.35833226 0 462
0.02150000 0.02154770 71929.93568618 0 887.68880107 0 1740.52484049 0 -7126.72993256 0 9814.89783292 0 571
0.02250000 0.02255340 73107.28144374 0 -565.52950299 0 624.65307771 0 -2431.40895637 0 18742.54862235 0 510
0.02350000 0.02348930 71017.64447285 0 1519.79218208 0 9559.61141417 0 -4847.68799685 0 4484.91847581 0 555
0.02450000 0.02439640 72449.81578249 0 4277.32613811 0 24513.49870764 0 -1930.06469311 0 599.71457000 0 592
0.02550000 0.02547300 66147.63254365 0 5973.02326348 0 26561.65767733 0 -6556.17698275 0 4734.94427002 0 837
0.02650000 0.02652900 64289.44057131 0 6457.92245472 0 32242.00811773 0 -4337.03647479 0 7296.83470007 0 723
0.02750000 0.02749970 58170.92956542 0 5691.73721959 0 41550.72820759 0 -196.59560909 0 14597.10903927 0 826
0.02850000 0.02848090 56457.06754846 0 3515.64840393 0 42410.52558200 0 7384.32068471 0 8975.00765095 0 831
0.02950000 0.02946900 51968.00127253 0 1297.26101956 0 41089.18708857 0 4452.72525212 0 9262.93691943 0 996
0.03050000 0.03053250 53546.07622866 0 769.30114351 0 41629.18794969 0 6342.89687579 0 6832.64078748 0 1041
0.03150000 0.03150510 52140.32044824 0 -1586.05581814 0 29833.13666608 0 1635.26738704 0 -12406.41861830 0 1036
0.03250000 0.03246190 54445.10347412 0 -1659.47974872 0 32487.27911668 0 2666.59709161 0 -2789.70469842 0 1059
0.03350000 0.03345080 56172.79149147 0 -2481.89071880 0 24190.89203166 0 -1895.39852626 0 -21205.60001052 0 1302
0.03450000 0.03451200 56306.89245470 0 576.03051890 0 20353.10905908 0 -921.09376691 0 -22075.51397059 0 1339
0.03550000 0.03553350 55536.34584709 0 2999.66881342 0 15919.00956523 0 -1902.77239314 0 -25897.78484516 0 1365
0.03650000 0.03647120 51230.95180410 0 4059.50480824 0 13554.98830999 0 386.64241506 0 -22721.51416810 0 1308
0.03750000 0.03744890 47933.05728614 0 3098.48537400 0 12689.00857768 0 2968.95935562 0 -21126.69064239 0 1579
0.03850000 0.03847530 46910.49528914 0 517.52405592 0 13198.32246230 0 5189.83092380 0 -17310.37731271 0 1662
0.03950000 0.03950240 46055.41898803 0 -929.40173187 0 10768.13873686 0 3808.70340913 0 -13082.99338580 0 1683
0.04050000 0.04050350 46814.94975792 0 -91.71201969 0 13619.17242567 0 3236.79034059 0 -6547.38679388 0 1822
0.04150000 0.04152450 46242.91304222 0 1280.66981908 0 11393.07395490 0 1974.70131717 0 -4951.43920310 0 1887
0.04250000 0.04250150 45262.72829848 0 1763.27591757 0 13652.89437786 0 3637.82303672 0 1239.88873823 0 1920
0.04350000 0.04349210 43364.96923557 0 2602.44669789 0 15585.83667756 0 1702.94734509 0 3063.85292910 0 2005
0.04450000 0.04448520 42766.06736462 0 2069.59489064 0 13792.95288597 0 2017.61812166 0 1807.04701151 0 2151
0.04550000 0.04548030 39292.03184970 0 2145.44680177 0 14859.12860780 0 1354.46469113 0 2619.15030488 0 2274
0.04650000 0.04648670 38048.92828536 0 1892.43099447 0 13784.52239792 0 -3660.19193168 0 2881.07994821 0 2311
0.04750000 0.04749250 37711.37154391 0 1744.48154955 0 16491.83312648 0 -3012.47191460 0 2132.12663065 0 2568
0.04850000 0.04851840 37322.55743512 0 295.02211909 0 17488.87884632 0 -3027.36577682 0 1388.61378805 0 2493
0.04950000 0.04949480 37622.00837060 0 -896.70717515 0 20213.16295748 0 -3707.68368101 0 -1204.70550144 0 2644
0.05050000 0.05050630 39584.51358172 0 -459.53578692 0 21487.62793736 0 -2170.00762362 0 -4090.55148556 0 2829
0.05150000 0.05149060 40962.84217436 0 -453.34106431 0 22676.88878470 0 522.43622028 0 -4178.07119215 0 2784
0.05250000 0.05249300 41067.04300663 0 -549.90275035 0 22696.55992348 0 1338.81770531 0 -6839.36269662 0 3055
0.05350000 0.05348950 41483.84633574 0 -79.01649153 0 20785.31207969 0 3642.94877345 0 -5246.58496934 0 3009
0.05450000 0.05448610 40994.87802894 0 655.40862217 0 19299.41045956 0 2670.47511611 0 -8636.77647046 0 3336
0.05550000 0.05550870 39766.38731055 0 784.36249142 0 14030.01820989 0 4284.74496759 0 -9458.89518362 0 3349
0.05650000 0.05647670 38178.30817527 0 1007.47591965 0 11074.96353922 0 3484.91646483 0 -7661.22287482 0 3324
0.05750000 0.05747970 37133.04006380 0 226.41593141 0 10488.81980685 0 2738.99812297 0 -8949.01926646 0 3639
0.05850000 0.05849280 36083.72531806 0 493.33192741 0 6884.47142800 0 2829.35047355 0 -9718.29568054 0 3846
0.05950000 0.05951020 37035.58362196 0 709.66949138 0 8596.78223516 0 -21.92500166 0 -6717.46908009 0 3787
0.06050000 0.06049470 35086.67959822 0 635.20467655 0 8659.20156867 0 -1808.01370748 0 -4500.66662748 0 3930
0.06150000 0.06148310 36198.26754901 0 909.53950203 0 12248.15025601 0 -896.31600051 0 -1879.80774370 0 4083
0.06250000 0.06249100 34821.96227351 0 1459.78958848 0 13648.17330455 0 -368.91703293 0 -3125.49665770 0 4303
0.06350000 0.06350600 34112.33999286 0 1849.76148429 0 15813.12263534 0 -1243.21597085 0 749.11967919 0 4470
0.06450000 0.06451750 32182.54507536 0 1688.90777233 0 15527.94732630 0 386.64578726 0 -970.35479468 0 4479
0.06550000 0.06550280 30550.62740224 0 1160.37237496 0 13643.78945077 0 3703.88434107 0 1880.43722014 0 4636
0.06650000 0.06648880 30238.69934445 0 -25.49289661 0 11636.99607577 0 3021.65552625 0 -2906.51754081 0 4653
0.06750000 0.06749660 30170.46859452 0 -239.37527764 0 9209.80236342 0 2716.33697110 0 -788.81491318 0 5220
0.06850000 0.06852730 30235.88918177 0 -75.93059569 0 7354.84769849 0 1767.09773882 0 -2443.47017460 0 5029
0.06950000 0.06949320 29521.09620179 0 -52.35467966 0 4632.33961015 0 947.39239336 0 -4064.36076936 0 5040
0.07050000 0.07048030 29318.42726911 0 572.48634173 0 5037.29529338 0 -614.24535920 0 -3238.11673738 0 5475
0.07150000 0.07148790 28941.52825010 0 564.51447223 0 5156.85085456 0 -1012.31277166 0 -5983.85925079 0 5509
0.07250000 0.07249820 28060.48604580 0 911.69321071 0 6169.46487566 0 -968.11902925 0 -3011.66258775 0 5916
0.07350000 0.07351270 28046.77245191 0 741.80426369 0 6754.29345189 0 -307.22047326 0 -5123.54480644 0 5721
0.07450000 0.07449140 27004.87653566 0 199.62946072 0 7246.46534415 0 -72.97700230 0 -4709.63032457 0 6028
0.07550000 0.07549160 28130.06567383 0 79.96036897 0 7988.78667777 0 53.37386946 0 -3023.19549540 0 6183
0.07650000 0.07648840 27521.94646928 0 -288.46319938 0 8613.72189581 0 1040.32784548 0 -3251.02100442 0 6330
0.07750000 0.07749960 27928.52080622 0 136.41878540 0 8770.20299464 0 327.08270310 0 -611.27895147 0 6583
0.07850000 0.07848650 27795.09428204 0 436.58687439 0 9101.81343185 0 1220.86955719 0 -446.40783094 0 6549
0.07950000 0.07947320 27423.70318189 0 771.39752487 0 9455.77028272 0 739.34930557 0 3700.04003852 0 6828
0.08050000 0.08048110 26859.75973472 0 1103.19905315 0 10493.04629152 0 542.65253062 0 2763.32289115 0 7147
0.08150000 0.08149960 25940.61172444 0 752.84033458 0 10551.95854200 0 568.33629348 0 4977.76480711 0 7386
0.08250000 0.08250610 25007.07568124 0 631.66836783 0 10663.18478099 0 53.15355271 0 4193.17862674 0 7227
0.08350000 0.08350160 25602.60535696 0 207.19666679 0 11561.12168333 0 73.09840133 0 5351.10053984 0 7798
0.08450000 0.08449610 24869.71492930 0 192.63552784 0 11228.90425098 0 -250.13370446 0 3683.99962992 0 7371
0.08550000 0.08548940 25383.52507422 0 411.16277057 0 11986.35550049 0 -754.35669836 0 2706.05177568 0 8256
0.08650000 0.08650700 24336.12123910 0 744.42670751 0 12163.95778203 0 -247.32916210 0 2716.15712068 0 8037
0.08750000 0.08749060 24188.30668199 0 528.92432389 0 12739.70391248 0 649.01494004 0 2438.82778585 0 8155
0.08850000 0.08849210 23171.81463639 0 495.96898407 0 11516.04667390 0 1116.20673417 0 1911.03427143 0 8718
0.08950000 0.08949900 22961.72687422 0 530.18215270 0 10462.03333616 0 1340.69489399 0 91.21698143 0 8571
0.09050000 0.09049190 22130.36834616 0 811.86161937 0 9625.09944533 0 388.81635692 0 -299.41833759 0 8932
0.09150000 0.09150830 21291.36617560 0 911.91465153 0 8908.09205715 0 346.59534870 0 -529.65271805 0 9285
0.09250000 0.09250820 20460.45727356 0 734.41016364 0 8255.24630335 0 184.31744630 0 -604.58626802 0 9204
0.09350000 0.09350330 20265.76920290 0 175.87346947 0 7808.10445792 0 96.24818429 0 -1541.05949327 0 9349
0.09450000 0.09448040 19748.36204976 0 -67.29586502 0 7503.04443773 0 986.38733482 0 -2603.53704101 0 9564
0.09550000 0.09549270 20008.69552069 0 -30.47284210 0 6398.99896358 0 1308.27685728 0 -2334.77308203 0 10155
0.09650000 0.09649430 19655.62668123 0 -64.17512315 0 5756.22483283 0 1242.71014156 0 -2838.48912259 0 9913
0.09750000 0.09749140 19770.28131868 0 288.01132522 0 4498.30609083 0 1080.43785948 0 -1895.94931815 0 10476
0.09850000 0.09850240 19621.34269650 0 142.44714639 0 4891.61645991 0 1323.90136179 0 -1470.82790750 0 10575
0.09950000 0.09950330 19215.10557908 0 446.92827306 0 4626.31462135 0 223.52483605 0 -563.88274766 0 10882
0.10050000 0.10051200 19138.55674760 0 368.22236071 0 5279.31774427 0 116.92524890 0 -180.72268619 0 10875
0.10150000 0.10150300 18487.16103774 0 583.52915701 0 5428.33505101 0 -553.97523811 0 -289.01961160 0 11118
0.10250000 0.10250800 18331.47802511 0 579.63764372 0 6842.55504143 0 -546.17085430 0 1516.11648929 0 11575
0.10350000 0.10349800 17486.29349665 0 507.10060049 0 6085.85691552 0 -429.04776995 0 426.38823198 0 11364
0.10450000 0.10450100 17534.40348178 0 348.04426858 0 7461.66760239 0 -48.38155925 0 1918.99265214 0 12093
0.10550000 0.10551000 17199.88171603 0 195.02191799 0 6730.20473737 0 175.72621694 0 521.79213100 0 12067
0.10650000 0.10649700 16901.33003261 0 101.97945488 0 6638.40234285 0 508.63607338 0 1157.92191310 0 12054
0.10750000 0.10749900 16746.20905252 0 319.76503947 0 6701.02400807 0 329.18245666 0 442.60849099 0 12807
0.10850000 0.10850100 16437.42837694 0 331.78017104 0 5939.44743975 0 162.57240746 0 920.36087649 0 12736
0.10950000 0.10950300 16213.96424041 0 281.76489561 0 6112.44105450 0 207.30682517 0 54.08731356 0 12933
0.11050000 0.11050200 16020.62504784 0 304.71605628 0 5982.20687513 0 338.24804147 0 695.09261551 0 13428
0.11150000 0.11150900 15769.95853654 0 290.86307832 0 5782.15701407 0 520.23979713 0 654.92415013 0 13453
0.11250000 0.11250000 15817.84370865 0 148.41705599 0 6187.38247292 0 223.55968206 0 413.66606349 0 13668
0.11350000 0.11349100 15688.12659922 0 159.98593372 0 5955.69018005 0 456.04556487 0 1585.49378561 0 13791
0.11450000 0.11448600 15409.13364807 0 32.13836932 0 5850.79242743 0 842.04276658 0 1714.42404949 0 14205
0.11550000 0.11549300 15647.88506960 0 -102.24968012 0 5354.37156920 0 797.47021424 0 2174.16666439 0 14776
0.11650000 0.11649800 15828.97195287 0 17.68390414 0 5474.09574014 0 919.22332263 0 2198.45771062 0 14553
0.11750000 0.11747300 15505.91565087 0 230.64466422 0 4614.83791696 0 781.82660062 0 2077.47458680 0 14568
0.11850000 0.11849100 15228.27157781 0 296.81612694 0 4406.03158898 0 -60.87779067 0 1984.32331419 0 16015
0.11950000 0.11950300 14893.30018603 0 328.41247208 0 4130.60192412 0 -342.07885524 0 1263.46038281 0 15270
0.12050000 0.12050700 14792.13432945 0 322.12670019 0 4615.59104056 0 -110.14769855 0 1248.91498077 0 15999
0.12150000 0.12150000 14342.84551973 0 113.68794149 0 4498.14872172 0 -400.95288751 0 -97.94136351 0 15670
0.12250000 0.12250700 14519.21132970 0 119.19923255 0 4546.50600116 0 -28.86295610 0 742.61696274 0 16887
0.12350000 0.12352200 14149.39392065 0 159.41153647 0 4629.19222794 0 -28.22257623 0 -436.34520040 0 16407
0.12450000 0.12449800 14124.88930206 0 280.81281250 0 4637.24053386 0 204.93279974 0 214.85492214 0 16306
0.12550000 0.12549900 13892.32023843 0 105.58511841 0 4650.77427734 0 47.16543325 0 -51.62695993 0 17523
0.12650000 0.12650100 14106.45463486 0 217.33910595 0 4434.86385810 0 398.04493117 0 1027.19988949 0 17154
0.12750000 0.12750600 13682.79450881 0 71.59575114 0 4612.64599007 0 411.63487790 0 1034.26801067 0 18007
0.12850000 0.12850300 13779.80132461 0 53.01461826 0 4399.39960505 0 755.14804017 0 1206.21174864 0 17496
0.12950000 0.12949900 13741.47070562 0 92.15490133 0 4127.16228499 0 551.97665041 0 1276.84799783 0 18405
0.13050000 0.13049000 13445.72918489 0 112.86062960 0 3495.61756432 0 820.41800271 0 1259.21141684 0 18100
0.13150000 0.13148800 13443.25624173 0 192.75580280 0 3414.57247255 0 475.80775292 0 1189.87908313 0 19059
0.13250000 0.13249300 13066.80684875 0 355.70589612 0 2874.35803907 0 252.28628907 0 1127.78572849 0 18957
0.13350000 0.13349100 12870.88230651 0 409.78579085 0 2809.20722744 0 83.28366736 0 1415.51266525 0 19468
0.13450000 0.13450700 12363.59173902 0 474.23743402 0 2716.48309956 0 -390.30911533 0 997.82469693 0 19953
0.13550000 0.13551000 12200.93952294 0 367.73564053 0 3381.14277728 0 -810.83647202 0 1184.71962444 0 19956
0.13650000 0.13649900 11875.85990380 0 291.34642630 0 3719.18286671 0 -556.59993005 0 945.68493852 0 19723
0.13750000 0.13749600 11700.73056541 0 186.32727465 0 4172.78808631 0 -400.44256197 0 423.93777012 0 20946
0.13850000 0.13851100 11756.03456701 0 94.76824022 0 4689.08241504 0 -475.21424656 0 962.12888647 0 20955
0.13950000 0.13949800 11804.03214563 0 15.39373396 0 4823.99270511 0 203.48275579 0 348.25446875 0 20506
0.14050000 0.14048300 11906.65928680 0 51.42642672 0 5326.24746107 0 109.59746869 0 882.80249020 0 21447
0.14150000 0.14148400 11762.32933142 0 114.27695159 0 4799.74662148 0 229.80273948 0 176.74574396 0 21771
0.14250000 0.14249400 11606.30909927 0 139.39081345 0 4902.96951715 0 157.84458976 0 420.99047150 0 22470
0.14350000 0.14350900 11597.65379821 0 81.93816147 0 4274.38108762 0 393.06195070 0 476.57548937 0 22519
0.14450000 0.14449900 11501.88345398 0 71.07171200 0 3831.80294639 0 543.95981830 0 83.32896719 0 22218
0.14550000 0.14550500 11388.69010112 0 97.48038442 0 3804.97151309 0 388.64887122 0 297.43998306 0 23559
0.14650000 0.14650700 11155.08689763 0 183.29904334 0 3435.45760161 0 240.93547996 0 158.88997028 0 23044
0.14750000 0.14750500 11071.89484157 0 290.25945537 0 3382.90755944 0 27.22080944 0 598.60399370 0 23649
0.14850000 0.14849900 10785.50554224 0 250.05389584 0 3595.95161275 0 -84.42009715 0 374.75430285 0 23640
0.14950000 0.14949500 10664.42125257 0 177.18862560 0 3902.61904599 0 -246.23319865 0 809.20095734 0 24457
0.15050000 0.15050000 10531.37691052 0 94.29928027 0 3985.41767928 0 -28.83957555 0 875.60172934 0 24591
0.15150000 0.15149900 10584.74752019 0 1.09639396 0 4253.55216181 0 23.73868065 0 979.85314455 0 25020
0.15250000 0.15250500 10585.21962752 0 -2.49848192 0 4115.32587977 0 46.93511231 0 881.88637716 0 25297
0.15350000 0.15350100 10614.53524462 0 186.49026408 0 4439.31515579 0 229.93200696 0 1074.16670044 0 25452
0.15450000 0.15450400 10401.45746937 0 423.61066719 0 4480.97300740 0 143.11371698 0 1221.49903364 0 26061
0.15550000 0.15549900 9957.29439638 0 405.53907301 0 4385.38251359 0 166.14468626 0 1492.90454554 0 26128
0.15650000 0.15649500 9701.79440527 0 226.60589841 0 4577.19297766 0 519.95878086 0 2110.75815361 0 26331
0.15750000 0.15749700 9669.72482873 0 -16.21980938 0 4318.55684499 0 658.05242322 0 1890.11542042 0 27345
0.15850000 0.15849900 9680.04374610 0 -53.49167148 0 4123.43038895 0 680.60566485 0 1906.14458836 0 26980
0.15950000 0.15949700 9564.97320457 0 -17.30565624 0 3831.87039029 0 343.83464488 0 1804.30429274 0 27777
0.16050000 0.16050000 9627.60611044 0 12.79725604 0 3435.44636096 0 202.52392829 0 1795.59278842 0 28224
0.16150000 0.16150500 9509.50059321 0 13.84263656 0 3126.22730000 0 314.83938632 0 1402.68708277 0 28075
0.16250000 0.16249700 9490.90855690 0 17.67918306 0 2828.40625888 0 245.42387180 0 880.59257827 0 28590
0.16350000 0.16349900 9468.57338390 0 76.99092627 0 2409.00633946 0 316.52098767 0 723.71918073 0 29163
0.16450000 0.16449100 9330.27965796 0 211.84917213 0 2383.49006230 0 -169.26509090 0 194.22158366 0 28996
0.16550000 0.16550500 9129.31930419 0 259.59271205 0 2370.60827656 0 -387.54279119 0 231.18309139 0 30777
0.16650000 0.16650700 9015.81121311 0 210.45870364 0 2504.23713245 0 -272.09343972 0 37.95720458 0 29211
0.16750000 0.16749900 8778.06020950 0 171.14340364 0 2566.51033750 0 -161.80579508 0 393.50932860 0 30922
0.16850000 0.16850800 8807.73552743 0 109.80710683 0 2738.59345954 0 58.04143727 0 151.88142455 0 30867
0.16950000 0.16949900 8671.04921454 0 138.92882271 0 2531.61935763 0 124.59024864 0 -13.67211589 0 30852
0.17050000 0.17049200 8570.55779700 0 66.71494819 0 2439.45726229 0 319.51549703 0 38.47135194 0 31257
0.17150000 0.17149500 8378.60120447 0 114.27582753 0 2332.06408521 0 290.75741620 0 -274.89573395 0 32608
0.17250000 0.17250900 8434.68081097 0 100.65508141 0 1985.29001016 0 65.56986310 0 -296.40809132 0 32361
0.17350000 0.17350400 8335.49330892 0 20.01150568 0 1937.28119088 0 3.97087228 0 -389.24687384 0 32508
0.17450000 0.17449800 8294.99324433 0 66.61243345 0 1794.81718352 0 34.34951772 0 -387.65182550 0 32791
0.17550000 0.17549800 8265.58770202 0 48.60052713 0 1771.31298284 0 3.46934816 0 -574.27922552 0 33633
0.17650000 0.17650100 8245.26460550 0 78.28787255 0 1953.82742876 0 -155.54812482 0 -271.73149077 0 33984
0.17750000 0.17750300 8237.44111259 0 115.22566251 0 2056.65690165 0 -120.72571292 0 -347.86554224 0 34069
