### header ###
fiducial parameters:
Omega_m = 0.31
Omega_nu = 0
Omega_de = 0.69
Omega_k = 0
H_0 = 100
w_de = -1
zeff = 0
beta = 0
fgrowth = 0
b_1 = 2
gamma = 0.55
Lx = 3500 Ly = 3500 Lz = 3500
nx = 700 ny = 700 nz = 700
xoffset = 857.220397 yoffset = 15.9954215 zoffset = 262.898189
bins = 400 dk = 0.001
kx_ny = 0.628318531 ky_ny = 0.628318531 kz_ny = 0.628318531
############################
A(data) = 3.07072041 (not used)
A(ran) = 3.0739009 (used)
Ngal = 187244
weighted Ngal = 0
Nran = 9360983
weighted Nran = 0
SN(data) = 3435.02509
SN(ran) = 69.028262
SN(data+ran) = 3504.05336
############################
13 columns: k_central k_mean P_0(k) sigma^{lin}_{P_0(k)} P^img_1(k) sigma^{lin}_{P_1(k)} P_2(k) sigma^{lin}_{P_2(k)} P^img_3(k) sigma^{lin}_{P_3(k)} P_4(k) sigma^{lin}_{P_4(k)} N_modes
### header ###
0.00050000 0 0 0 0 0 0 0 0 0 0 0 0
0.00150000 0.00179520 7145.82779815 0 -8908.29438887 0 -14751.33076729 0 21763.92313233 0 3038.99985033 0 3
0.00250000 0.00253879 15534.35449722 0 -9734.30236718 0 25027.30885255 0 -33184.76149454 0 19442.39153686 0 6
0.00350000 0.00331552 31881.63285530 0 -17740.21979666 0 -420.24521636 0 29514.35181135 0 -16286.80365715 0 7
0.00450000 0.00420575 45938.06659440 0 -18235.03324184 0 27728.10000369 0 -20281.84333345 0 -3233.48558928 0 24
0.00550000 0.00557378 75450.17027560 0 -10293.58094430 0 20668.97134462 0 -33291.09805045 0 -32192.32444150 0 45
0.00650000 0.00659388 67346.67275712 0 34.63300693 0 64367.11346786 0 -27387.95791257 0 -3748.98183180 0 40
0.00750000 0.00754703 78382.85605132 0 12810.63241859 0 28057.90069613 0 -55199.23873166 0 -52234.17988184 0 57
0.00850000 0.00846663 76066.83237470 0 5283.88144847 0 44876.04991334 0 -23210.37006839 0 -58280.30109703 0 75
0.00950000 0.00948925 78040.80304957 0 1128.30279842 0 46515.61122896 0 -25023.37462480 0 -56137.49584818 0 112
0.01050000 0.01054430 67986.15337721 0 -5025.72866378 0 37402.14124230 0 385.61726772 0 -74445.93053930 0 105
0.01150000 0.01145670 84908.84064621 0 -6385.70127377 0 38292.85040622 0 13833.19441559 0 -55702.37025838 0 144
0.01250000 0.01249090 77559.59079178 0 -2615.20483647 0 22489.84435654 0 23989.23475754 0 -62134.27060666 0 169
0.01350000 0.01339930 86080.79089142 0 3222.00888488 0 31408.17664651 0 14499.54019092 0 -39240.32485634 0 180
0.01450000 0.01448870 77939.97441252 0 2424.84441634 0 5771.96174386 0 7051.28268485 0 -35483.24975601 0 267
0.01550000 0.01550050 77348.82859057 0 3387.01039696 0 10079.72756415 0 -9770.58718774 0 -56132.21274234 0 238
0.01650000 0.01653350 80710.23278517 0 -1652.12836314 0 11333.72331904 0 -19067.06620895 0 -26280.41659604 0 315
0.01750000 0.01747870 77557.11784862 0 -2740.63925798 0 21100.61233269 0 -14947.14290303 0 -32370.82597511 0 297
0.01850000 0.01844180 90248.93658898 0 1041.27768047 0 40619.10307500 0 -17879.37905271 0 -13446.74084346 0 388
0.01950000 0.01947590 91919.29728761 0 515.17700804 0 43454.78203491 0 -6806.45007128 0 -31339.83349006 0 399
0.02050000 0.02045430 90637.97551078 0 3848.31546231 0 41575.90726522 0 -9661.92381712 0 -7022.05699295 0 462
0.02150000 0.02154770 94547.47383502 0 1258.07611111 0 57134.76638103 0 11958.70349969 0 -2184.86776388 0 571
0.02250000 0.02255340 85483.35030507 0 2197.67086507 0 39370.82881133 0 9626.32467626 0 -12284.12033835 0 510
0.02350000 0.02348930 91819.70512213 0 228.66968189 0 51404.17023187 0 15455.78234861 0 -1467.01732690 0 555
0.02450000 0.02439640 86590.21718255 0 1988.45987366 0 39063.28460733 0 5222.01290684 0 -23551.18659856 0 592
0.02550000 0.02547300 85201.54719124 0 2771.35995642 0 35248.65737526 0 10741.43095073 0 -6995.37168812 0 837
0.02650000 0.02652900 76387.64054657 0 4003.02053832 0 19254.33545013 0 16726.98753977 0 -21193.90973376 0 723
0.02750000 0.02749970 73704.94684311 0 4650.30217001 0 5009.00257549 0 8675.14081140 0 -3543.18799822 0 826
0.02850000 0.02848090 66480.80543132 0 5939.61604951 0 6787.30724309 0 17306.66789797 0 -17739.09573159 0 831
0.02950000 0.02946900 65009.40425063 0 6343.77364654 0 -9694.40929774 0 2500.19049819 0 -9151.86804956 0 996
0.03050000 0.03053250 57694.21356791 0 3032.18801599 0 -6681.57768231 0 -3448.03588978 0 -5019.86104410 0 1041
0.03150000 0.03150510 56823.28794928 0 2357.94006319 0 -6664.46941190 0 -7078.55250353 0 -2284.06650659 0 1036
0.03250000 0.03246190 55661.00466369 0 -119.12504425 0 -572.02547505 0 -10461.63991338 0 746.01725958 0 1059
0.03350000 0.03345080 55530.27589569 0 162.62523852 0 4524.20455011 0 -6472.42289416 0 -3728.54632877 0 1302
0.03450000 0.03451200 55937.52467168 0 2597.96167825 0 12223.53323091 0 -2844.44666748 0 -6270.84430460 0 1339
0.03550000 0.03553350 53144.11055852 0 2580.66231677 0 11837.30447179 0 -2926.76195278 0 -10923.83299014 0 1365
0.03650000 0.03647120 50793.80289717 0 3231.90065752 0 14537.42118388 0 2412.28860947 0 -7699.31744014 0 1308
0.03750000 0.03744890 50076.19975451 0 1900.77155731 0 14428.27446529 0 -745.23153810 0 -7415.86195066 0 1579
0.03850000 0.03847530 48340.53087513 0 925.68444867 0 12761.73558791 0 2882.33890109 0 -5470.47625060 0 1662
0.03950000 0.03950240 48190.69300089 0 413.64245812 0 12930.23294237 0 3252.52725162 0 -606.18244043 0 1683
0.04050000 0.04050350 46643.41742777 0 1064.96847595 0 11107.30289137 0 1028.31945830 0 1375.54091125 0 1822
0.04150000 0.04152450 47496.69522476 0 1925.34361981 0 17552.16370994 0 2563.71141547 0 6549.29770451 0 1887
0.04250000 0.04250150 46588.33823919 0 1981.88409298 0 17974.25014488 0 45.64884465 0 8591.27431630 0 1920
0.04350000 0.04349210 44519.27165913 0 1399.96684529 0 20854.77930121 0 2830.95788660 0 16018.37691769 0 2005
0.04450000 0.04448520 44369.88341092 0 714.56142258 0 21446.82437521 0 1669.07926444 0 12828.61745976 0 2151
0.04550000 0.04548030 44680.12537109 0 108.31120103 0 19791.30133555 0 5721.94084810 0 13479.00151105 0 2274
0.04650000 0.04648670 42711.55020858 0 952.75868002 0 16938.98621256 0 3037.12266166 0 9003.25540624 0 2311
0.04750000 0.04749250 41795.88680003 0 1641.46098560 0 15533.68005817 0 632.05167402 0 6514.93503522 0 2568
0.04850000 0.04851840 39840.35079236 0 1913.94559997 0 11725.23518400 0 -1121.35720034 0 4050.84950718 0 2493
0.04950000 0.04949480 39423.88468278 0 1282.80554272 0 13502.94409711 0 -34.41179093 0 3025.54479140 0 2644
0.05050000 0.05050630 39155.12072380 0 369.13397749 0 10791.12586761 0 -414.14041895 0 1306.54579707 0 2829
0.05150000 0.05149060 37835.01870195 0 988.75686399 0 11697.92040273 0 831.61256677 0 896.65659223 0 2784
0.05250000 0.05249300 37999.24460913 0 1543.81345270 0 11641.71714907 0 1105.11446003 0 1502.25676694 0 3055
0.05350000 0.05348950 35613.86611751 0 1531.69603121 0 11550.55547164 0 978.29743848 0 497.03796996 0 3009
0.05450000 0.05448610 35067.68289849 0 756.27660151 0 11326.30448956 0 4500.41933317 0 4087.19053099 0 3336
0.05550000 0.05550870 33697.22276137 0 173.13412288 0 10226.13703992 0 1167.16172800 0 4270.97517045 0 3349
0.05650000 0.05647670 34265.32524931 0 -351.05339078 0 8431.70203852 0 3016.14760739 0 3585.85750839 0 3324
0.05750000 0.05747970 32857.65855827 0 493.97264450 0 6105.97768033 0 2181.42812476 0 3146.31434286 0 3639
0.05850000 0.05849280 32224.36029608 0 855.14711721 0 6187.27006641 0 871.14705946 0 3601.51573486 0 3846
0.05950000 0.05951020 30936.96856786 0 668.04198953 0 5279.72240770 0 2250.16470398 0 2145.87394650 0 3787
0.06050000 0.06049470 30749.47451367 0 1014.80482393 0 6537.80975946 0 2319.80053526 0 4699.95212429 0 3930
0.06150000 0.06148310 29168.25217534 0 1011.52929831 0 2292.55319789 0 3603.15686987 0 4841.37075114 0 4083
0.06250000 0.06249100 28757.18157811 0 -18.23177345 0 2974.48975578 0 4043.11593948 0 5284.27487124 0 4303
0.06350000 0.06350600 29016.95301650 0 360.61244017 0 632.89809502 0 535.84406848 0 3453.39768018 0 4470
0.06450000 0.06451750 28844.97106032 0 -585.51875219 0 853.33737244 0 -70.37243112 0 4799.54428977 0 4479
0.06550000 0.06550280 28720.87427625 0 -520.10715745 0 562.37650046 0 -1706.36450292 0 4284.96978061 0 4636
0.06650000 0.06648880 30400.56471498 0 -510.03665846 0 2784.63516494 0 -3407.62575040 0 3962.43054853 0 4653
0.06750000 0.06749660 30481.27258723 0 1.19083454 0 2590.98123414 0 -1529.71767668 0 679.51981799 0 5220
0.06850000 0.06852730 31019.81216375 0 757.85478887 0 5018.89434813 0 -1696.55141483 0 1707.26375498 0 5029
0.06950000 0.06949320 29886.41735054 0 1017.51494482 0 4414.79929655 0 -2164.42102020 0 -64.48772565 0 5040
0.07050000 0.07048030 29475.68397283 0 1238.06775281 0 7765.22137538 0 -1136.76700843 0 1234.57191044 0 5475
0.07150000 0.07148790 28343.30081819 0 1333.19737995 0 8546.48032314 0 -1042.05216130 0 -372.72648946 0 5509
0.07250000 0.07249820 27506.99640381 0 755.26381888 0 9168.18947442 0 209.52123337 0 1980.72630596 0 5916
0.07350000 0.07351270 26710.37148650 0 293.32815302 0 8868.24395031 0 570.80136818 0 -29.44162480 0 5721
0.07450000 0.07449140 27056.58352902 0 -28.90342244 0 8161.52175755 0 2007.69262706 0 1939.24830476 0 6028
0.07550000 0.07549160 26524.33871691 0 -591.99898733 0 7251.73720934 0 1698.43984415 0 285.41698304 0 6183
0.07650000 0.07648840 27146.95836089 0 -207.75532714 0 7315.57286484 0 2140.65828456 0 2267.13808658 0 6330
0.07750000 0.07749960 27203.72364709 0 -233.83813309 0 4405.82925727 0 2108.16156330 0 1502.71763362 0 6583
0.07850000 0.07848650 27604.45284565 0 126.72822041 0 5521.05917889 0 1153.23456175 0 2912.73362067 0 6549
0.07950000 0.07947320 27276.00103129 0 456.84365107 0 3748.52096512 0 -192.40397043 0 2373.62077096 0 6828
0.08050000 0.08048110 26657.87764759 0 1036.35764764 0 5552.90394241 0 -666.89544315 0 1926.68125724 0 7147
0.08150000 0.08149960 25990.85743321 0 1280.75974429 0 5767.99379415 0 -2820.96494810 0 1530.03241490 0 7386
0.08250000 0.08250610 24571.50046541 0 1307.24271741 0 6573.97093286 0 -2361.55955272 0 738.60292636 0 7227
0.08350000 0.08350160 23833.55174492 0 923.77915837 0 6977.64518191 0 -195.87395931 0 -412.95565436 0 7798
0.08450000 0.08449610 23253.53416720 0 198.43795174 0 7190.67799457 0 381.15697751 0 -201.05702336 0 7371
0.08550000 0.08548940 22838.52934221 0 -79.39103002 0 5763.00294522 0 1576.44506177 0 -4683.69814334 0 8256
0.08650000 0.08650700 22895.96906745 0 -291.01932336 0 4879.06065304 0 790.51337550 0 -3227.22454682 0 8037
0.08750000 0.08749060 22627.87954751 0 331.94765674 0 4324.01980125 0 121.96443263 0 -6130.88696235 0 8155
0.08850000 0.08849210 22618.10018138 0 595.20482092 0 4154.62319473 0 -708.86016453 0 -3186.21865295 0 8718
0.08950000 0.08949900 21876.66685916 0 888.59816972 0 5024.67204261 0 -1960.38072814 0 -5231.29768435 0 8571
0.09050000 0.09049190 21107.80634916 0 1031.95356068 0 5779.56042375 0 -825.14919260 0 -3524.18005783 0 8932
0.09150000 0.09150830 20635.58661195 0 763.50209180 0 6270.79934200 0 -292.48510422 0 -4554.00351520 0 9285
0.09250000 0.09250820 19792.87502665 0 648.41468929 0 6930.14219192 0 67.97131572 0 -3051.22967832 0 9204
0.09350000 0.09350330 19645.17287605 0 580.28960147 0 6713.34376128 0 1219.28462544 0 -3030.44571512 0 9349
0.09450000 0.09448040 19042.11196433 0 417.95549581 0 6422.43572036 0 769.79685621 0 -3306.30252471 0 9564
0.09550000 0.09549270 18817.86098224 0 260.62685191 0 6389.62426087 0 626.36502881 0 -1990.41574689 0 10155
0.09650000 0.09649430 18465.35417532 0 2.22812179 0 6142.02644722 0 596.81560617 0 -2556.87709983 0 9913
0.09750000 0.09749140 18593.94721968 0 37.66854466 0 5626.09181932 0 737.32711250 0 -663.67836891 0 10476
0.09850000 0.09850240 18828.20238092 0 -184.85362534 0 5416.74594011 0 1089.08304396 0 -1542.17231769 0 10575
0.09950000 0.09950330 18524.59240467 0 30.68944944 0 4488.22322712 0 891.96474461 0 -1383.56673587 0 10882
0.10050000 0.10051200 18380.82448182 0 269.88127966 0 4589.19799264 0 333.57305483 0 -2311.85339519 0 10875
0.10150000 0.10150300 17987.28929973 0 650.83142919 0 4307.29371296 0 -353.23182890 0 -2052.66647064 0 11118
0.10250000 0.10250800 17289.80692187 0 820.28873522 0 4413.59654692 0 -457.75301972 0 -1386.41062051 0 11575
0.10350000 0.10349800 17070.38941961 0 384.02109531 0 4450.49960327 0 30.87997847 0 -1927.44562149 0 11364
0.10450000 0.10450100 16515.21368000 0 70.48776020 0 4212.49006469 0 535.62150359 0 -1277.41003037 0 12093
0.10550000 0.10551000 16814.21498945 0 -129.76319610 0 4607.30668097 0 1306.08493039 0 -699.65407158 0 12067
0.10650000 0.10649700 16576.13800696 0 -70.81149094 0 4061.69673514 0 765.84014715 0 -579.55109071 0 12054
0.10750000 0.10749900 17003.73236077 0 33.50478282 0 4721.09578832 0 266.66982575 0 733.07927059 0 12807
0.10850000 0.10850100 16680.90087178 0 118.11900601 0 4300.29078755 0 -310.03288407 0 484.46305399 0 12736
0.10950000 0.10950300 16857.71630777 0 207.14833200 0 5174.02656887 0 -297.83003364 0 799.55085869 0 12933
0.11050000 0.11050200 16647.51613911 0 269.00226077 0 5752.67278720 0 -818.21483516 0 718.15505862 0 13428
0.11150000 0.11150900 16430.68398650 0 522.94654583 0 6015.79393951 0 -59.59478279 0 1067.96073717 0 13453
0.11250000 0.11250000 15889.55906031 0 658.85950195 0 6019.25605994 0 -133.61199491 0 599.19412787 0 13668
0.11350000 0.11349100 15236.58965935 0 778.36335613 0 6227.41043017 0 290.16953017 0 1221.31918322 0 13791
0.11450000 0.11448600 14939.49926053 0 513.97425841 0 6285.79437007 0 570.18200833 0 897.05788346 0 14205
0.11550000 0.11549300 14523.03315095 0 308.28496288 0 5862.46022289 0 525.14521711 0 1795.43541931 0 14776
0.11650000 0.11649800 14464.91898667 0 70.78698632 0 5875.09471431 0 351.17816201 0 1618.90099958 0 14553
0.11750000 0.11747300 14524.94406157 0 -204.71360705 0 5858.58219839 0 364.28138856 0 2060.16398467 0 14568
0.11850000 0.11849100 14918.81646319 0 -228.71576855 0 5943.76384963 0 158.25150132 0 1835.24980420 0 16015
0.11950000 0.11950300 15096.08152521 0 -134.88106438 0 6087.11586840 0 -468.68455255 0 709.16141397 0 15270
0.12050000 0.12050700 15012.33867727 0 206.38509181 0 5717.27597805 0 -618.94844746 0 808.88059880 0 15999
0.12150000 0.12150000 14926.46010568 0 312.81269700 0 5858.36862603 0 -346.04680495 0 -242.03818780 0 15670
0.12250000 0.12250700 14349.36509715 0 360.83837725 0 5717.27597805 0 -85.23257139 0 -307.04511911 0 16887
0.12350000 0.12352200 14147.03338400 0 225.80556408 0 5042.25242035 0 531.76596039 0 -1822.61531278 0 16407
0.12450000 0.12449800 13673.46476870 0 110.38701200 0 4798.93729463 0 692.57808194 0 -2379.70196300 0 16306
0.12550000 0.12549900 13553.52702540 0 240.16999165 0 3969.61332435 0 484.05951462 0 -2733.58012932 0 17523
0.12650000 0.12650100 13270.37503349 0 272.68807015 0 3896.12194987 0 971.05171502 0 -2955.16707718 0 17154
0.12750000 0.12750600 12926.07390160 0 266.38318915 0 2766.11057253 0 173.01722012 0 -2418.25739501 0 18007
0.12850000 0.12850300 12737.34337582 0 344.30113189 0 3181.55378290 0 509.41392641 0 -1987.79667527 0 17496
0.12950000 0.12949900 12378.31699147 0 245.96342304 0 2524.09936229 0 588.04565047 0 -1151.58218609 0 18405
0.13050000 0.13049000 12401.80995150 0 51.97260994 0 2710.21081645 0 792.10954791 0 -534.89648162 0 18100
0.13150000 0.13148800 12385.73582096 0 -107.50502156 0 2210.12550608 0 668.36122401 0 39.20615328 0 19059
0.13250000 0.13249300 12444.97405031 0 -77.76439545 0 2418.01010070 0 590.22633671 0 149.61755749 0 18957
0.13350000 0.13349100 12639.77452748 0 -118.32583398 0 2190.06094452 0 115.16046674 0 512.45789463 0 19468
0.13450000 0.13450700 12746.67311593 0 17.98897540 0 2242.82455905 0 85.33272559 0 701.05016040 0 19953
0.13550000 0.13551000 12729.36251380 0 64.64430791 0 2384.15326069 0 -551.61020519 0 585.59631268 0 19956
0.13650000 0.13649900 12662.48064195 0 138.05430008 0 2468.79536070 0 -385.72855016 0 255.56293876 0 19723
0.13750000 0.13749600 12666.52727622 0 231.04820358 0 2656.90765068 0 -408.60552253 0 196.18869753 0 20946
0.13850000 0.13851100 12364.94061710 0 198.87071680 0 2401.29525306 0 268.91570776 0 372.30159286 0 20955
0.13950000 0.13949800 12194.75716504 0 94.43371845 0 2570.73682218 0 452.69922315 0 338.92360458 0 20506
0.14050000 0.14048300 12101.12254445 0 90.66248013 0 2082.65652679 0 698.98862506 0 1036.37675675 0 21447
0.14150000 0.14148400 12009.28642798 0 99.20380099 0 2096.14530766 0 694.58228997 0 600.31706887 0 21771
0.14250000 0.14249400 11797.28775519 0 172.83849377 0 2171.90729359 0 227.04540785 0 1417.76079540 0 22470
0.14350000 0.14350900 11792.00464935 0 192.86820931 0 2176.51596039 0 -245.99714499 0 1493.27548701 0 22519
0.14450000 0.14449900 11626.09264456 0 212.29542597 0 2784.92742186 0 -310.40719774 0 2185.90190375 0 22218
0.14550000 0.14550500 11583.15335876 0 270.49052293 0 3125.29432599 0 -841.14463859 0 1680.14006476 0 23559
0.14650000 0.14650700 11424.43537044 0 314.81578096 0 3432.02920314 0 -434.93000247 0 1130.69705703 0 23044
0.14750000 0.14750500 11207.69314305 0 330.09407343 0 4009.58507835 0 -651.25070547 0 1448.05434912 0 23649
0.14850000 0.14849900 11020.33397666 0 296.00904822 0 3904.93462004 0 -214.01187333 0 880.72971420 0 23640
0.14950000 0.14949500 10717.83682484 0 229.86681119 0 4090.63017012 0 116.29352433 0 884.82805546 0 24457
0.15050000 0.15050000 10567.95398799 0 274.85751574 0 4273.53803881 0 454.23919230 0 523.55691316 0 24591
0.15150000 0.15149900 10222.37142192 0 188.50346463 0 3499.27077581 0 597.49004522 0 466.11044354 0 25020
0.15250000 0.15250500 10163.35800558 0 106.86576575 0 3563.16263457 0 730.31631864 0 630.74326227 0 25297
0.15350000 0.15350100 10054.43610000 0 21.81203312 0 2800.58564832 0 558.53332198 0 608.50026261 0 25452
0.15450000 0.15450400 9942.17572115 0 15.76029158 0 3074.12688386 0 587.62412607 0 655.93468463 0 26061
0.15550000 0.15549900 9908.79098848 0 -35.27866991 0 2449.06801867 0 350.18673661 0 679.40516335 0 26128
0.15650000 0.15649500 9974.96469933 0 -64.47333762 0 2415.77321120 0 260.52456199 0 742.82041852 0 26331
0.15750000 0.15749700 9946.46964973 0 -19.81018563 0 2002.82542530 0 46.33890820 0 274.78782370 0 27345
0.15850000 0.15849900 10133.43539334 0 24.01126643 0 2357.88385994 0 -295.15588283 0 399.75013788 0 26980
0.15950000 0.15949700 9835.02983838 0 210.79817129 0 2085.15195125 0 -466.38471541 0 -256.21377244 0 27777
0.16050000 0.16050000 9804.98357898 0 392.88884467 0 2613.69858927 0 -632.22140784 0 -193.82928494 0 28224
0.16150000 0.16150500 9468.55090260 0 304.95210994 0 2532.60853490 0 -548.15370509 0 -508.67204346 0 28075
0.16250000 0.16249700 9234.16085356 0 119.29140588 0 2638.79896235 0 103.54370383 0 -813.73768398 0 28590
0.16350000 0.16349900 9319.63476172 0 -25.63509084 0 2444.47059252 0 419.80458285 0 -305.42196914 0 29163
0.16450000 0.16449100 9196.70700532 0 -58.63314512 0 2214.71169157 0 597.80028718 0 -590.45789412 0 28996
0.16550000 0.16550500 9385.80847257 0 -0.62980130 0 1972.46442767 0 500.03360338 0 -390.80482803 0 30777
0.16650000 0.16650700 9199.76446232 0 113.18098815 0 1840.88137021 0 159.54867241 0 -398.06291621 0 29211
0.16750000 0.16749900 9178.93553652 0 281.97509578 0 1853.57206489 0 101.37167289 0 93.82233946 0 30922
0.16850000 0.16850800 8832.07153626 0 196.85864032 0 2015.35875086 0 -148.21584834 0 10.16539256 0 30867
0.16950000 0.16949900 8814.80589674 0 204.25498850 0 1897.70285966 0 -129.78904960 0 104.85481334 0 30852
0.17050000 0.17049200 8545.21012960 0 160.37598430 0 1914.51887315 0 -160.31978105 0 -414.38996139 0 31257
0.17150000 0.17149500 8455.31864571 0 226.38108540 0 1817.84927687 0 -273.92116953 0 -744.55260279 0 32608
0.17250000 0.17250900 8194.80532437 0 202.17659218 0 1897.25323363 0 -306.43250364 0 -565.44632218 0 32361
0.17350000 0.17350400 8176.77532059 0 172.93516337 0 1979.19757746 0 -14.56687169 0 -856.02838422 0 32508
0.17450000 0.17449800 8055.89336263 0 10.54249391 0 1837.41924979 0 107.78626264 0 -740.97582773 0 32791
0.17550000 0.17549800 8153.67578334 0 10.55443149 0 1955.35615726 0 36.84572903 0 -715.78890164 0 33633
0.17650000 0.17650100 8168.78321792 0 17.26249214 0 2159.69994690 0 145.30564387 0 -496.54225726 0 33984
0.17750000 0.17750300 8185.52054686 0 75.30539069 0 2218.10636810 0 -48.44540615 0 -141.67716181 0 34069
