### header ###
fiducial parameters:
Omega_m = 0.31
Omega_nu = 0
Omega_de = 0.69
Omega_k = 0
H_0 = 100
w_de = -1
zeff = 0
beta = 0
fgrowth = 0
b_1 = 2
gamma = 0.55
Lx = 3500 Ly = 3500 Lz = 3500
nx = 700 ny = 700 nz = 700
xoffset = 857.220397 yoffset = 15.9954215 zoffset = 262.898189
bins = 400 dk = 0.001
kx_ny = 0.628318531 ky_ny = 0.628318531 kz_ny = 0.628318531
############################
A(data) = 3.01225542 (not used)
A(ran) = 3.01106382 (used)
Ngal = 183604
weighted Ngal = 0
Nran = 9360983
weighted Nran = 0
SN(data) = 3447.24266
SN(ran) = 67.6171772
SN(data+ran) = 3514.85983
############################
13 columns: k_central k_mean P_0(k) sigma^{lin}_{P_0(k)} P^img_1(k) sigma^{lin}_{P_1(k)} P_2(k) sigma^{lin}_{P_2(k)} P^img_3(k) sigma^{lin}_{P_3(k)} P_4(k) sigma^{lin}_{P_4(k)} N_modes
### header ###
0.00050000 0 0 0 0 0 0 0 0 0 0 0 0
0.00150000 0.00179520 3482.69081598 0 -5548.77862359 0 -5391.49943856 0 14126.23818014 0 -9496.92230504 0 3
0.00250000 0.00253879 9269.10803668 0 -6039.56791581 0 9891.91877173 0 -18194.34208620 0 6866.83484701 0 6
0.00350000 0.00331552 12797.70567025 0 -1791.18645333 0 3876.86671517 0 -2397.11373099 0 4319.82703852 0 7
0.00450000 0.00420575 16876.60060100 0 86.54120795 0 14758.07515773 0 -12916.29453546 0 6855.96513775 0 24
0.00550000 0.00557378 19824.23644219 0 -431.84781604 0 20807.34375512 0 -6474.13147307 0 9800.39739348 0 45
0.00650000 0.00659388 25170.96436889 0 -5583.41106849 0 23070.53637330 0 7839.28602305 0 -8679.19868632 0 40
0.00750000 0.00754703 30591.65577741 0 -8039.00990524 0 22275.48514710 0 3400.72399085 0 2510.43073101 0 57
0.00850000 0.00846663 38858.03032498 0 -8300.45620059 0 12530.62780888 0 8567.87128148 0 -19964.85698284 0 75
0.00950000 0.00948925 48407.74996651 0 -9842.52735242 0 17107.59597352 0 -357.55723130 0 -1260.67270143 0 112
0.01050000 0.01054430 65376.07427747 0 -10207.55624426 0 13676.16252487 0 -15928.78893137 0 -16123.70181504 0 105
0.01150000 0.01145670 67609.70398423 0 -5914.88661790 0 19015.35921559 0 -9651.62738106 0 -19122.93224308 0 144
0.01250000 0.01249090 83150.80287188 0 -3201.65206641 0 38486.52681832 0 -22312.69170102 0 -12249.94876013 0 169
0.01350000 0.01339930 80693.37180907 0 -842.40021928 0 34313.43523444 0 -3168.98673538 0 -16587.71587722 0 180
0.01450000 0.01448870 86099.56277814 0 518.59304180 0 47035.94095130 0 3800.95860078 0 -7820.07575095 0 267
0.01550000 0.01550050 84087.26148428 0 2438.94019236 0 35889.82409295 0 24455.38454336 0 -42147.83157442 0 238
0.01650000 0.01653350 81663.77718668 0 3482.70205663 0 34797.68246793 0 21615.77135570 0 -12062.56711244 0 315
0.01750000 0.01747870 76014.11372278 0 6765.88256279 0 16492.17034600 0 21448.51047282 0 -24375.46351666 0 297
0.01850000 0.01844180 66038.48582505 0 5333.07053607 0 9540.22129166 0 12756.90210809 0 -3195.86313128 0 388
0.01950000 0.01947590 61483.99896187 0 6821.63619042 0 -5521.98091225 0 11956.45536954 0 -6968.76506784 0 399
0.02050000 0.02045430 56681.54334356 0 2163.18454862 0 -7963.43901037 0 4581.72295990 0 3949.31270913 0 462
0.02150000 0.02154770 54877.30649473 0 383.85136149 0 -10898.67641380 0 -877.78803591 0 20890.18735101 0 571
0.02250000 0.02255340 55521.28337511 0 152.75369904 0 -13109.63372803 0 3000.06223620 0 19278.50284920 0 510
0.02350000 0.02348930 54776.36545116 0 -407.05431273 0 -6930.11971062 0 1158.70875865 0 30769.25805896 0 555
0.02450000 0.02439640 57764.24282197 0 918.71187302 0 -7189.49772624 0 4140.23516179 0 32609.01536410 0 592
0.02550000 0.02547300 55864.23562891 0 -1499.25551320 0 -4228.36186352 0 5766.44258435 0 34660.77134203 0 837
0.02650000 0.02652900 57579.78374347 0 -1926.77118245 0 -12012.54621669 0 1560.86551985 0 26284.23841729 0 723
0.02750000 0.02749970 58982.27973518 0 -790.54597339 0 -7864.98215062 0 -4802.96144759 0 12586.60624952 0 826
0.02850000 0.02848090 59023.87014288 0 1836.78977335 0 -13573.42297719 0 -9425.17323143 0 6987.50323260 0 831
0.02950000 0.02946900 55801.51279783 0 2061.67023187 0 -4255.19329682 0 -11369.80580789 0 6655.83659214 0 996
0.03050000 0.03053250 55632.22859782 0 1388.90604497 0 -3986.82276062 0 -12570.41971247 0 -5311.64585577 0 1041
0.03150000 0.03150510 54381.93101701 0 -258.45628226 0 3845.43785572 0 -1056.54360822 0 -9447.92430851 0 1036
0.03250000 0.03246190 56758.76661408 0 1395.89772973 0 9765.91107704 0 -9522.31493505 0 -3719.27279192 0 1059
0.03350000 0.03345080 55949.43976145 0 499.95154663 0 7435.92651222 0 3923.33556529 0 -12171.15179850 0 1302
0.03450000 0.03451200 56376.13486320 0 2587.94625845 0 19395.74283633 0 -3351.07403657 0 8171.70578711 0 1339
0.03550000 0.03553350 52891.98276262 0 1303.35345226 0 10931.85881476 0 763.23906057 0 -2792.09895702 0 1365
0.03650000 0.03647120 55517.91117989 0 1484.45157619 0 23124.26668379 0 6331.55505920 0 8225.37989435 0 1308
0.03750000 0.03744890 50485.80906714 0 1593.57581348 0 13569.71356245 0 1578.02999352 0 -820.54052580 0 1579
0.03850000 0.03847530 49958.17292183 0 1860.56374964 0 14260.56395638 0 5402.85249580 0 -3669.49919048 0 1662
0.03950000 0.03950240 45697.62907526 0 2545.53528324 0 10464.38263216 0 2132.09290870 0 -5979.00328967 0 1683
0.04050000 0.04050350 43238.39950834 0 2828.30509303 0 7450.86533704 0 625.30166325 0 -7059.88178266 0 1822
0.04150000 0.04152450 40456.78807845 0 353.65447736 0 8028.15143663 0 -216.95804789 0 -8018.00112902 0 1887
0.04250000 0.04250150 40817.50056040 0 445.39504830 0 5982.88131417 0 1054.09089823 0 -5256.78023955 0 1920
0.04350000 0.04349210 40806.48472269 0 289.71091162 0 7368.28027612 0 2191.46602586 0 -4064.92280190 0 2005
0.04450000 0.04448520 39638.24389222 0 -157.92439838 0 7616.41764100 0 1843.48920118 0 -1028.73423831 0 2151
0.04550000 0.04548030 41314.33732271 0 1139.79074347 0 11007.68824459 0 -2384.53544282 0 4195.74149510 0 2274
0.04650000 0.04648670 40281.43392704 0 1694.74167006 0 14730.76037646 0 1450.29123861 0 4699.48001696 0 2311
0.04750000 0.04749250 38462.13460623 0 2267.99237604 0 13882.09124627 0 -2294.61023697 0 7624.29733717 0 2568
0.04850000 0.04851840 37119.10165689 0 2008.05232789 0 19774.77757897 0 -667.37204674 0 8604.13362074 0 2493
0.04950000 0.04949480 35961.76425763 0 1544.33052263 0 17975.03699044 0 -1140.39773861 0 6891.19333714 0 2644
0.05050000 0.05050630 34476.08745052 0 1650.76824440 0 18719.50528835 0 -1625.94888759 0 3276.20006205 0 2829
0.05150000 0.05149060 34213.16862992 0 1528.15522623 0 17668.27963199 0 -683.34051517 0 2979.78410228 0 2784
0.05250000 0.05249300 31664.12626365 0 707.31120286 0 17230.79350554 0 42.27316483 0 2194.83822108 0 3055
0.05350000 0.05348950 32738.05803449 0 -578.80695964 0 14969.73661100 0 3915.33222197 0 463.66335387 0 3009
0.05450000 0.05448610 32750.64756331 0 -1493.26424636 0 13446.96565647 0 5317.86193563 0 -1207.42573892 0 3336
0.05550000 0.05550870 34301.29533165 0 -589.29223864 0 11841.57591907 0 4628.46158564 0 -1776.29259111 0 3349
0.05650000 0.05647670 32453.78197750 0 905.52096939 0 9898.05616703 0 -332.10390178 0 -2485.25167337 0 3324
0.05750000 0.05747970 32688.82398429 0 1449.95401909 0 10836.65050307 0 371.55184146 0 -953.91309485 0 3639
0.05850000 0.05849280 31070.05787252 0 1375.64207711 0 11604.51059515 0 -2308.57112518 0 -1128.79738706 0 3846
0.05950000 0.05951020 30641.11464062 0 986.67846767 0 11796.95053567 0 -1389.85025963 0 -511.49344680 0 3787
0.06050000 0.06049470 30051.76732280 0 331.55873022 0 15102.93832216 0 -1040.24016840 0 -222.41875601 0 3930
0.06150000 0.06148310 30820.40301978 0 -73.25565803 0 14175.24741733 0 -165.37807388 0 1083.44810575 0 4083
0.06250000 0.06249100 30983.84208141 0 -352.88112059 0 13382.78154080 0 2933.19160500 0 1583.17821156 0 4303
0.06350000 0.06350600 31255.75342259 0 -634.91017150 0 12332.23032348 0 3132.34221400 0 923.98935854 0 4470
0.06450000 0.06451750 31359.84184836 0 -742.31571330 0 10027.63838866 0 3640.13861077 0 629.64167850 0 4479
0.06550000 0.06550280 32180.29694522 0 -67.33037381 0 9872.07902319 0 1972.86909110 0 702.12701474 0 4636
0.06650000 0.06648880 31223.26794198 0 1284.46915903 0 7220.01609298 0 -86.38923435 0 -589.59573621 0 4653
0.06750000 0.06749660 29970.94704404 0 1390.74951169 0 7773.01114634 0 -1390.86191820 0 -904.20806139 0 5220
0.06850000 0.06852730 28672.65188461 0 1264.87670481 0 7744.39244958 0 -613.84744016 0 -2103.08078917 0 5029
0.06950000 0.06949320 27815.66467288 0 720.33124860 0 8214.20668753 0 87.07390238 0 -3806.10681882 0 5040
0.07050000 0.07048030 27854.78213743 0 -266.91824413 0 7944.27370087 0 481.76080155 0 -5690.15228784 0 5475
0.07150000 0.07148790 28365.55730664 0 -198.72234021 0 8723.30699979 0 52.43954657 0 -6552.62493712 0 5509
0.07250000 0.07249820 27777.55886690 0 -179.38280063 0 6718.30088825 0 258.27305965 0 -6738.44413436 0 5916
0.07350000 0.07351270 28640.72843654 0 92.29136283 0 9480.48847368 0 -778.27567905 0 -7032.52203878 0 5721
0.07450000 0.07449140 27906.60153730 0 728.46048721 0 5713.74641372 0 -1243.22721150 0 -7231.47031607 0 6028
0.07550000 0.07549160 27396.05118109 0 469.32302152 0 9114.69521759 0 -115.94843636 0 -6689.31125001 0 6183
0.07650000 0.07648840 26941.81648505 0 1073.08197764 0 7410.93854564 0 -973.41112761 0 -6786.68900730 0 6330
0.07750000 0.07749960 26154.07168183 0 1096.82448012 0 8033.50198638 0 177.93950107 0 -7000.72223786 0 6583
0.07850000 0.07848650 24875.33525467 0 1251.84879061 0 7012.21018291 0 -579.72307267 0 -6855.02092309 0 6549
0.07950000 0.07947320 24552.16654615 0 542.57609420 0 8848.14566680 0 540.23241852 0 -5105.31247095 0 6828
0.08050000 0.08048110 23615.37071423 0 372.88610670 0 7084.85850859 0 1147.42314532 0 -5878.62427864 0 7147
0.08150000 0.08149960 24101.30404533 0 -51.81018254 0 8390.11163082 0 1437.15091791 0 -4726.80603889 0 7386
0.08250000 0.08250610 23206.21102762 0 100.17802819 0 6483.89959855 0 1084.03374365 0 -4861.86245742 0 7227
0.08350000 0.08350160 23514.87929670 0 351.70759666 0 7036.51246979 0 1740.09769576 0 -3322.63519022 0 7798
0.08450000 0.08449610 23038.05089269 0 518.48400749 0 6276.47587062 0 496.36128278 0 -3021.58808235 0 7371
0.08550000 0.08548940 22504.68201550 0 524.74055368 0 5357.63135791 0 521.76627750 0 -3602.37002432 0 8256
0.08650000 0.08650700 21987.72448838 0 776.00281947 0 6237.30220282 0 44.76724041 0 -2142.65912039 0 8037
0.08750000 0.08749060 21019.34242791 0 751.17109794 0 5911.36829422 0 -473.52252863 0 -2835.75764446 0 8155
0.08850000 0.08849210 20692.91393068 0 898.49331455 0 6409.30664030 0 -0.76033335 0 -378.40414214 0 8718
0.08950000 0.08949900 19857.73358137 0 372.07453172 0 6743.56987109 0 610.00988200 0 -1225.82668417 0 8571
0.09050000 0.09049190 20087.71729533 0 101.32423735 0 6651.94732698 0 1242.12562773 0 650.30087048 0 8932
0.09150000 0.09150830 20324.22058671 0 -363.35740707 0 6585.03173318 0 760.77848212 0 204.64728721 0 9285
0.09250000 0.09250820 20505.98190903 0 -115.97878611 0 6132.46065345 0 921.40063668 0 1518.08360317 0 9204
0.09350000 0.09350330 20447.98015125 0 -96.14027404 0 5554.61252132 0 435.44032802 0 1665.35860905 0 9349
0.09450000 0.09448040 20450.67790743 0 231.09429025 0 5492.58661059 0 467.50878049 0 1551.05243177 0 9564
0.09550000 0.09549270 20138.52503663 0 410.24665753 0 5172.94746640 0 182.00524444 0 601.02073361 0 10155
0.09650000 0.09649430 19771.63019677 0 414.10669699 0 5285.72491519 0 -390.57102249 0 431.45326920 0 9913
0.09750000 0.09749140 19301.43377669 0 435.00531483 0 6058.91307572 0 -373.57066233 0 -391.97947603 0 10476
0.09850000 0.09850240 19352.91595704 0 348.12295314 0 6087.05966515 0 -764.15067734 0 -965.70678560 0 10575
0.09950000 0.09950330 18809.20568118 0 290.06836431 0 6248.71146331 0 -531.58610998 0 -127.83767263 0 10882
0.10050000 0.10051200 18959.04355543 0 243.72653354 0 7099.37018868 0 -124.97130670 0 -1024.39871933 0 10875
0.10150000 0.10150300 18444.78378448 0 403.35164238 0 6216.21474205 0 881.83242204 0 -282.20103286 0 11118
0.10250000 0.10250800 18001.34011315 0 472.37598225 0 6256.28766190 0 1163.65464497 0 -776.30069672 0 11575
0.10350000 0.10349800 17538.89974207 0 417.73180686 0 5692.18684562 0 935.38063399 0 -405.00064584 0 11364
0.10450000 0.10450100 16731.14658054 0 614.38474326 0 4736.42803591 0 1036.88258603 0 -333.48874995 0 12093
0.10550000 0.10551000 16372.12019620 0 610.09980721 0 4462.58330281 0 870.04210349 0 -113.79247955 0 12067
0.10650000 0.10649700 15701.84019311 0 333.13691758 0 3983.85522882 0 327.23557595 0 743.49710569 0 12054
0.10750000 0.10749900 15447.23945405 0 154.93438529 0 3608.06903424 0 552.23518537 0 645.95186271 0 12807
0.10850000 0.10850100 15560.88243294 0 -160.26807406 0 3859.89333256 0 306.30548429 0 1010.24561599 0 12736
0.10950000 0.10950300 15459.37935684 0 -296.61491929 0 3148.93341448 0 326.96467627 0 245.84314807 0 12933
0.11050000 0.11050200 15910.69148369 0 -131.67298266 0 3727.98429623 0 -74.58081835 0 870.87840790 0 13428
0.11150000 0.11150900 15904.39671928 0 15.37192709 0 3051.58937915 0 -464.06576917 0 203.27817595 0 13453
0.11250000 0.11250000 16256.00427414 0 212.57531817 0 3791.24667855 0 -526.58964073 0 80.11695124 0 13668
0.11350000 0.11349100 15915.41255700 0 312.83742643 0 4135.60401369 0 -1317.56163478 0 245.41038302 0 13791
0.11450000 0.11448600 15690.59954238 0 447.12498445 0 4353.47030616 0 -393.21032729 0 -944.41474499 0 14205
0.11550000 0.11549300 15568.97570147 0 332.38716618 0 4989.33143671 0 21.33340621 0 -4.63727426 0 14776
0.11650000 0.11649800 15113.72934686 0 387.49108419 0 4411.44958263 0 402.13540397 0 -412.23400458 0 14553
0.11750000 0.11747300 15113.16731432 0 101.05120194 0 4502.12791208 0 1160.74331643 0 1021.55483469 0 14568
0.11850000 0.11849100 14779.43239412 0 24.30667073 0 4074.10641354 0 1154.05512925 0 330.36722124 0 16015
0.11950000 0.11950300 14966.36441578 0 -119.23857482 0 3926.26937513 0 1070.58655318 0 681.89159529 0 15270
0.12050000 0.12050700 14839.34506252 0 160.68847439 0 3384.63861966 0 100.41936496 0 1027.09085518 0 15999
0.12150000 0.12150000 14702.32153011 0 453.58611049 0 4266.01804347 0 -587.32062850 0 1199.72589317 0 15670
0.12250000 0.12250700 14296.42163221 0 465.60798645 0 4135.12066571 0 -465.29662042 0 1824.00915347 0 16887
0.12350000 0.12352200 13734.16428265 0 417.73293092 0 4145.49578634 0 239.91370481 0 956.86264161 0 16407
0.12450000 0.12449800 13778.67725954 0 53.34958965 0 4156.29805169 0 526.13776657 0 1451.43778499 0 16306
0.12550000 0.12549900 13469.55936444 0 109.09546123 0 4076.09600872 0 718.58782367 0 497.31673810 0 17523
0.12650000 0.12650100 13506.09147932 0 66.44225000 0 3234.98059582 0 419.46848739 0 559.51125859 0 17154
0.12750000 0.12750600 13341.30353960 0 59.46382921 0 3125.80015527 0 123.71010568 0 618.64382583 0 18007
0.12850000 0.12850300 13285.32509896 0 163.15017690 0 2954.76241375 0 -327.15351920 0 827.67271869 0 17496
0.12950000 0.12949900 13119.63790718 0 138.22403391 0 3453.11666391 0 -229.69595330 0 707.07964545 0 18405
0.13050000 0.13049000 13172.58137213 0 236.17843657 0 3555.99109940 0 -351.41084348 0 -44.05300947 0 18100
0.13150000 0.13148800 12960.13307331 0 229.22497003 0 3604.93289268 0 -489.54944844 0 424.04455631 0 19059
0.13250000 0.13249300 12929.33369031 0 269.67445169 0 4232.21740673 0 -629.81928078 0 -213.69263885 0 18957
0.13350000 0.13349100 12562.32644394 0 224.27458745 0 3942.07373006 0 -158.21890343 0 -537.19744282 0 19468
0.13450000 0.13450700 12531.97668697 0 270.02628406 0 4170.01164558 0 40.97138507 0 -391.67935066 0 19953
0.13550000 0.13551000 12152.26750527 0 217.45263652 0 3929.48420124 0 164.17532425 0 -1790.34340453 0 19956
0.13650000 0.13649900 11982.19645971 0 236.24138422 0 3449.99176301 0 276.00968244 0 -985.48695869 0 19723
0.13750000 0.13749600 11812.12541415 0 302.48815930 0 3787.81828008 0 86.00783907 0 -2057.80344802 0 20946
0.13850000 0.13851100 11622.83285584 0 119.63874199 0 3619.20851911 0 227.95814869 0 -798.99444648 0 20955
0.13950000 0.13949800 11561.23408984 0 196.06842257 0 3897.65067837 0 254.35456881 0 -992.29204864 0 20506
0.14050000 0.14048300 11419.82670364 0 69.02186694 0 3498.47268961 0 535.60576668 0 -371.63839447 0 21447
0.14150000 0.14148400 11422.63686633 0 123.70223723 0 3871.34755566 0 463.42167988 0 -342.57119574 0 21771
0.14250000 0.14249400 11327.09133511 0 203.09495334 0 3180.93554711 0 463.66672607 0 129.64067301 0 22470
0.14350000 0.14350900 11089.58762582 0 113.34397758 0 3326.20971716 0 459.41438790 0 409.29794661 0 22519
0.14450000 0.14449900 11010.44220402 0 66.00375221 0 2663.80941023 0 468.43388604 0 681.03955397 0 22218
0.14550000 0.14550500 10941.26723942 0 -46.34396649 0 2633.99920449 0 541.56106344 0 821.77587332 0 23559
0.14650000 0.14650700 11010.00381864 0 26.88617526 0 2247.98401774 0 246.23207459 0 497.39991891 0 23044
0.14750000 0.14750500 10904.83629040 0 40.77793347 0 2377.82477433 0 126.21677080 0 1030.69685593 0 23649
0.14850000 0.14849900 10920.25846321 0 72.45757183 0 1986.38035328 0 173.73324957 0 700.67472267 0 23640
0.14950000 0.14949500 10923.52949257 0 44.72677407 0 2156.33899233 0 154.06211079 0 1109.24539918 0 24457
0.15050000 0.15050000 10669.45706410 0 144.06804822 0 1807.03577086 0 278.94686448 0 1210.53939917 0 24591
0.15150000 0.15149900 10552.29576153 0 193.04693565 0 2059.09612286 0 233.46494349 0 1024.98548130 0 25020
0.15250000 0.15250500 10328.76418109 0 372.63206799 0 1998.99236340 0 24.71639245 0 1023.02286368 0 25297
0.15350000 0.15350100 10010.03552961 0 396.55329681 0 1993.93407057 0 -241.09622127 0 661.08852299 0 25452
0.15450000 0.15450400 9619.27678825 0 336.99470892 0 2228.48148872 0 -514.46097859 0 1018.82110843 0 26061
0.15550000 0.15549900 9516.75081293 0 307.39582741 0 2379.89305407 0 -382.44065982 0 591.61343301 0 26128
0.15650000 0.15649500 9236.40898370 0 202.33620942 0 2709.07551072 0 -270.00942308 0 1033.07088137 0 26331
0.15750000 0.15749700 9315.90286567 0 97.85514772 0 2860.26226306 0 4.07516303 0 495.21361234 0 27345
0.15850000 0.15849900 9282.30456064 0 -79.39732478 0 2735.42359604 0 224.62417169 0 1024.09072550 0 26980
0.15950000 0.15949700 9445.02422062 0 -78.06216029 0 2676.15164473 0 377.36663008 0 668.84906825 0 27777
0.16050000 0.16050000 9576.65224068 0 -112.34592020 0 2312.67396270 0 423.43531304 0 902.73103988 0 28224
0.16150000 0.16150500 9513.54722748 0 38.17324988 0 2361.19985190 0 261.80262398 0 972.07798644 0 28075
0.16250000 0.16249700 9364.75473375 0 106.18997783 0 2138.63496743 0 277.33832736 0 791.07653210 0 28590
0.16350000 0.16349900 9303.65055638 0 208.11952422 0 2276.67015840 0 246.94360778 0 992.28418019 0 29163
0.16450000 0.16449100 9036.50525110 0 240.90063395 0 2419.99969588 0 138.09813862 0 1232.57107461 0 28996
0.16550000 0.16550500 8788.19927646 0 223.33936531 0 2198.64880168 0 95.80069399 0 1400.75369084 0 30777
0.16650000 0.16650700 8625.51333843 0 212.95974842 0 2362.36887958 0 109.56880503 0 1353.79025209 0 29211
0.16750000 0.16749900 8539.15141886 0 174.78874667 0 2300.54530056 0 19.58818278 0 1683.39985347 0 30922
0.16850000 0.16850800 8340.93378387 0 109.21449972 0 2309.58278374 0 -0.50418927 0 1454.41655743 0 30867
0.16950000 0.16949900 8446.01138690 0 4.60466513 0 2348.79017349 0 -98.90985798 0 1513.83463720 0 30852
0.17050000 0.17049200 8357.01915507 0 28.95580388 0 2140.06253007 0 -34.25948011 0 739.13236101 0 31257
0.17150000 0.17149500 8328.11944204 0 56.37501080 0 1878.68367862 0 -82.91823381 0 449.58781103 0 32608
0.17250000 0.17250900 8287.39456444 0 130.81644508 0 2018.36000461 0 -112.37908012 0 392.93268321 0 32361
0.17350000 0.17350400 8208.08053288 0 152.81102636 0 1636.97596595 0 -7.37030359 0 -6.96403275 0 32508
0.17450000 0.17449800 8133.65618439 0 117.06350891 0 1798.30178525 0 111.26310832 0 336.57430858 0 32791
0.17550000 0.17549800 8056.29802606 0 65.15519549 0 1895.65706123 0 120.83362316 0 374.82511895 0 33633
0.17650000 0.17650100 8039.96536055 0 52.05230615 0 1855.38180966 0 379.27978883 0 643.97238412 0 33984
0.17750000 0.17750300 8059.42292696 0 -1.40928534 0 1838.48711161 0 143.05638966 0 703.94013170 0 34069
0.17850000 0.17849800 8039.23471825 0 15.92564155 0 2106.29561527 0 75.66025804 0 972.33202514 0 34536
