### header ###
fiducial parameters:
Omega_m = 0.31
Omega_nu = 0
Omega_de = 0.69
Omega_k = 0
H_0 = 100
w_de = -1
zeff = 0
beta = 0
fgrowth = 0
b_1 = 2
gamma = 0.55
Lx = 3500 Ly = 3500 Lz = 3500
nx = 700 ny = 700 nz = 700
xoffset = 857.220397 yoffset = 15.9954215 zoffset = 262.898189
bins = 400 dk = 0.001
kx_ny = 0.628318531 ky_ny = 0.628318531 kz_ny = 0.628318531
############################
A(data) = 3.07971244 (not used)
A(ran) = 3.08411553 (used)
Ngal = 187723
weighted Ngal = 0
Nran = 9360983
weighted Nran = 0
SN(data) = 3430.33973
SN(ran) = 69.2576442
SN(data+ran) = 3499.59738
############################
13 columns: k_central k_mean P_0(k) sigma^{lin}_{P_0(k)} P^img_1(k) sigma^{lin}_{P_1(k)} P_2(k) sigma^{lin}_{P_2(k)} P^img_3(k) sigma^{lin}_{P_3(k)} P_4(k) sigma^{lin}_{P_4(k)} N_modes
### header ###
0.00050000 0 0 0 0 0 0 0 0 0 0 0 0
0.00150000 0.00179520 14396.80064324 0 -16349.18926870 0 -10330.69757302 0 29850.44726821 0 12948.21798354 0 3
0.00250000 0.00253879 28697.38131622 0 -23041.98512044 0 -5075.15380504 0 -8036.91914420 0 14197.50390578 0 6
0.00350000 0.00331552 43647.89641447 0 -27343.10771615 0 -24610.73033646 0 36304.60410493 0 -16046.36613801 0 7
0.00450000 0.00420575 63302.84865665 0 -31262.04818700 0 -41509.58742591 0 14016.07980298 0 -5110.25835728 0 24
0.00550000 0.00557378 93699.81636340 0 -32389.48545532 0 -74114.78096876 0 4370.75842698 0 -4029.41358624 0 45
0.00650000 0.00659388 113022.49496997 0 -22241.65078840 0 -77866.57296324 0 -29858.54053673 0 8061.91835142 0 40
0.00750000 0.00754703 112168.09310791 0 408.31214154 0 -85266.29333946 0 -26690.58794122 0 7479.09061102 0 57
0.00850000 0.00846663 104486.00758533 0 11264.81813006 0 -76799.04836332 0 -36498.28051702 0 33310.09475019 0 75
0.00950000 0.00948925 83032.21400667 0 14790.67304485 0 -63794.73953264 0 -39135.33717851 0 27007.68669834 0 112
0.01050000 0.01054430 76490.49250076 0 5155.52445777 0 -45794.07385854 0 4816.92233580 0 30792.75101898 0 105
0.01150000 0.01145670 73931.33354883 0 -5701.71891744 0 -41645.14967373 0 -10898.73261706 0 10196.82142281 0 144
0.01250000 0.01249090 82956.33961424 0 -10809.71790392 0 -30153.94483794 0 -6819.56791068 0 9363.03491419 0 169
0.01350000 0.01339930 87212.38720051 0 -5422.78216955 0 -6558.21154054 0 -9253.86571429 0 21676.47086964 0 180
0.01450000 0.01448870 91155.49507044 0 1467.03980820 0 -20584.77887065 0 -17561.83066956 0 16813.42814389 0 267
0.01550000 0.01550050 95704.81123428 0 2268.27339231 0 -9910.12862592 0 -28945.12525833 0 16061.20379698 0 238
0.01650000 0.01653350 88409.62890987 0 3116.44793387 0 -12410.46525257 0 -3620.46747199 0 12975.08313878 0 315
0.01750000 0.01747870 85753.12592261 0 3033.48069082 0 -16582.20795836 0 -813.43980673 0 3764.12298833 0 297
0.01850000 0.01844180 85869.12943816 0 2168.75991139 0 -11099.82785863 0 -7299.56617820 0 7580.26770825 0 388
0.01950000 0.01947590 83690.57891998 0 2705.74827811 0 -3845.47157767 0 -10246.53882099 0 -18987.03277575 0 399
0.02050000 0.02045430 77541.60575061 0 590.21059980 0 -12062.56711244 0 -6828.47050606 0 -17283.84937699 0 462
0.02150000 0.02154770 77441.90117863 0 -998.73181745 0 2541.24135466 0 -6333.80318934 0 -18451.86539444 0 571
0.02250000 0.02255340 78445.57888240 0 -2037.44662955 0 -556.10309329 0 -7737.32208027 0 -21565.07602090 0 510
0.02350000 0.02348930 76587.83653609 0 3579.22552446 0 3908.62155348 0 5552.02717165 0 -10874.00318545 0 555
0.02450000 0.02439640 73966.51678562 0 5026.86396950 0 12286.93050103 0 -282.85523873 0 -14072.84508917 0 592
0.02550000 0.02547300 70213.71313257 0 8540.32044654 0 10751.80607135 0 5805.21158872 0 11634.86035213 0 837
0.02650000 0.02652900 62926.17445065 0 8116.42426682 0 14586.43042107 0 7080.31728569 0 14752.56723887 0 723
0.02750000 0.02749970 55438.77699874 0 3998.31070566 0 9662.90175374 0 12277.60076093 0 26256.36160348 0 826
0.02850000 0.02848090 54779.85005289 0 2025.44161457 0 11055.85443297 0 14283.71969689 0 23010.73611141 0 831
0.02950000 0.02946900 54751.63601956 0 760.22431804 0 8345.13778724 0 8587.80095522 0 33591.33583148 0 996
0.03050000 0.03053250 54092.93388672 0 -697.63075445 0 6287.18821076 0 4509.71535132 0 32195.58423021 0 1041
0.03150000 0.03150510 54344.94927611 0 1055.30039225 0 3502.03597589 0 1271.19395052 0 27454.72737791 0 1036
0.03250000 0.03246190 52140.77007427 0 -79.78400316 0 3791.87615499 0 -576.82635698 0 25255.60646890 0 1059
0.03350000 0.03345080 53020.80062000 0 1255.56944600 0 1756.74509949 0 -2196.24330242 0 14590.25224232 0 1302
0.03450000 0.03451200 51888.97949789 0 923.76342146 0 6804.94382408 0 -5781.05543030 0 12978.11811448 0 1339
0.03550000 0.03553350 51022.66254606 0 1950.65756525 0 6282.64698787 0 -6243.86674285 0 7036.89465192 0 1365
0.03650000 0.03647120 50477.49098560 0 2228.62761718 0 13056.01582405 0 -5369.13054361 0 8509.66719199 0 1308
0.03750000 0.03744890 46541.01509961 0 2491.38906867 0 13191.69047837 0 -3462.74990159 0 1541.18314042 0 1579
0.03850000 0.03847530 47665.41739223 0 1986.98734842 0 15751.41146283 0 799.46542975 0 6082.46223900 0 1662
0.03950000 0.03950240 43943.75034171 0 1858.69780162 0 15147.45129905 0 2098.26979065 0 1907.21245018 0 1683
0.04050000 0.04050350 44342.79344266 0 1298.91339522 0 13866.46674175 0 3673.51210279 0 4781.84026487 0 1822
0.04150000 0.04152450 43200.40610887 0 219.75472179 0 16103.58105023 0 4089.07896032 0 4415.10279412 0 1887
0.04250000 0.04250150 44413.15991623 0 385.04624266 0 14006.18803034 0 3876.16979482 0 6206.94120519 0 1920
0.04350000 0.04349210 41916.38657587 0 -748.59361673 0 13472.03230760 0 4201.58663348 0 10182.97294111 0 2005
0.04450000 0.04448520 44866.94498624 0 -314.24700403 0 15585.49945804 0 3017.51896678 0 9577.97863747 0 2151
0.04550000 0.04548030 44133.82974557 0 -1051.05479847 0 12376.85570688 0 1153.04347068 0 12274.34097221 0 2274
0.04650000 0.04648670 44174.52090121 0 378.52329304 0 12865.48679416 0 1723.91115871 0 8161.27446324 0 2311
0.04750000 0.04749250 45230.91725691 0 -29.79986434 0 13102.10249204 0 -2474.88779339 0 7147.88483723 0 2568
0.04850000 0.04851840 42715.70924935 0 1207.38077632 0 9508.97228263 0 1221.51027429 0 1835.24980420 0 2493
0.04950000 0.04949480 43309.32801445 0 1898.87188734 0 11622.49563632 0 55.55848993 0 -942.15087793 0 2644
0.05050000 0.05050630 40326.17171695 0 755.61340311 0 6761.03784233 0 391.87156578 0 -3857.27426094 0 2829
0.05150000 0.05149060 39453.56000071 0 1763.69182164 0 7270.43041150 0 238.54009729 0 -4766.64290508 0 2784
0.05250000 0.05249300 38316.45577276 0 563.26113967 0 5301.05716278 0 -797.28923976 0 -8527.16888518 0 3055
0.05350000 0.05348950 37922.02133861 0 426.35113784 0 7266.73223741 0 -1951.80411163 0 -6138.50812354 0 3009
0.05450000 0.05448610 38335.78969202 0 371.04713624 0 8645.70154714 0 -62.22745560 0 -4126.19558903 0 3336
0.05550000 0.05550870 37697.77035652 0 71.86215456 0 7649.51011676 0 87.31254140 0 -6396.77331474 0 3349
0.05650000 0.05647670 38026.78420342 0 747.89782045 0 9296.40033665 0 635.13273638 0 -4171.79890905 0 3324
0.05750000 0.05747970 37115.39224215 0 928.16413622 0 9845.64101267 0 1760.70180855 0 -5624.99023555 0 3639
0.05850000 0.05849280 35747.29264168 0 1519.06153979 0 9549.53979112 0 437.94137280 0 -1099.10296002 0 3846
0.05950000 0.05951020 34890.75505598 0 1313.76229484 0 8698.91478770 0 1918.94768954 0 -667.54964903 0 3787
0.06050000 0.06049470 32785.38117407 0 1490.66765604 0 9653.60573558 0 1635.00885208 0 -1370.46013712 0 3930
0.06150000 0.06148310 32999.40316399 0 448.95159020 0 6695.99943720 0 -533.84660484 0 -436.25190300 0 4083
0.06250000 0.06249100 32194.23535212 0 1044.88030902 0 9965.65744053 0 -1496.58023832 0 -1297.66568299 0 4303
0.06350000 0.06350600 31795.07984467 0 533.98486485 0 11159.57191727 0 -1515.74554782 0 641.59049023 0 4470
0.06450000 0.06451750 30628.63751831 0 491.55815273 0 11019.89559129 0 -2066.33510193 0 -3078.08359292 0 4479
0.06550000 0.06550280 31220.68259231 0 -31.90883523 0 12716.32335896 0 362.73804722 0 -558.76150719 0 4636
0.06650000 0.06648880 30793.42545803 0 310.17339221 0 12096.62628416 0 25.83101538 0 -3567.82750462 0 4653
0.06750000 0.06749660 30851.53962231 0 148.69132787 0 11718.04116754 0 1265.92208532 0 -2764.41323427 0 5220
0.06850000 0.06852730 30102.46265759 0 321.36008781 0 10983.58828942 0 878.23316568 0 -4069.75628171 0 5029
0.06950000 0.06949320 30863.90433811 0 -271.82029191 0 9968.47884386 0 810.44192518 0 -3811.23255555 0 5040
0.07050000 0.07048030 30174.17800926 0 -328.59119843 0 8586.38463323 0 1629.73698688 0 -5206.38840233 0 5475
0.07150000 0.07148790 30809.49958857 0 -309.65632227 0 8937.13789864 0 1294.00123085 0 -4155.02785816 0 5509
0.07250000 0.07249820 30301.53458204 0 793.65626145 0 6755.41751696 0 848.66126173 0 -5137.03358732 0 5916
0.07350000 0.07351270 29638.44859542 0 896.09568375 0 7963.52893558 0 -392.19304839 0 -4620.26715126 0 5721
0.07450000 0.07449140 28287.09756454 0 1694.47189444 0 6334.30901863 0 -476.71712157 0 -3221.57049950 0 6028
0.07550000 0.07549160 27206.19659025 0 1260.34672256 0 8736.28995138 0 -249.32999793 0 -2094.18943444 0 6183
0.07650000 0.07648840 26042.56442657 0 555.46912059 0 7041.58200327 0 -183.72731213 0 -1758.99322964 0 6330
0.07750000 0.07749960 26045.37458926 0 745.31247078 0 8835.55613799 0 267.09022608 0 -1725.68718152 0 6583
0.07850000 0.07848650 25698.37570119 0 533.62179183 0 9485.14210308 0 -811.18605626 0 -1057.32820564 0 6549
0.07950000 0.07947320 25348.45424394 0 852.60110982 0 10891.23510302 0 -762.57248998 0 330.32225864 0 6828
0.08050000 0.08048110 24882.86649066 0 745.15397761 0 11691.40082530 0 -589.04157213 0 715.31567024 0 7147
0.08150000 0.08149960 24293.29435982 0 382.88803772 0 11581.69207417 0 402.18935909 0 1234.85292670 0 7386
0.08250000 0.08250610 24479.55194243 0 152.63567221 0 12627.52221818 0 1199.05145413 0 1256.68227042 0 7227
0.08350000 0.08350160 23996.65358703 0 19.64674657 0 11210.28973337 0 2116.37847898 0 1238.57358210 0 7798
0.08450000 0.08449610 24035.20901903 0 463.76227160 0 10558.62424789 0 1158.85488711 0 8.58914983 0 7371
0.08550000 0.08548940 23586.81946138 0 708.47461021 0 10823.46521976 0 84.73888201 0 77.67447024 0 8256
0.08650000 0.08650700 22662.38834526 0 761.05500213 0 11082.28120284 0 -744.94152931 0 1011.98566873 0 8037
0.08750000 0.08749060 22429.14484259 0 658.85837788 0 11284.60167535 0 -214.50646196 0 1335.29938164 0 8155
0.08850000 0.08849210 21845.19303712 0 503.90825568 0 11071.26536513 0 474.33522768 0 1418.50267835 0 8718
0.08950000 0.08949900 21617.68226632 0 285.85986467 0 11449.27720856 0 1216.71051642 0 1730.62182719 0 8571
0.09050000 0.09049190 21016.53226523 0 326.68703219 0 10397.24222534 0 1399.67458837 0 1207.90908690 0 8932
0.09150000 0.09150830 20845.11234158 0 371.64851105 0 9595.30048024 0 1064.18050633 0 264.01028778 0 9285
0.09250000 0.09250820 20037.58399306 0 260.99442119 0 8215.82534123 0 1005.16933812 0 -866.55750176 0 9204
0.09350000 0.09350330 19781.07234338 0 232.22060345 0 7513.29591120 0 787.63801705 0 680.43593102 0 9349
0.09450000 0.09448040 19295.25141879 0 50.64374021 0 5882.21004623 0 547.58268003 0 -2083.56701950 0 9564
0.09550000 0.09549270 19600.88471217 0 47.12699022 0 6342.33484325 0 944.41249686 0 -111.10483996 0 10155
0.09650000 0.09649430 19235.11393738 0 307.37559424 0 5453.69395906 0 145.56080664 0 -1498.37874244 0 9913
0.09750000 0.09749140 19075.49669700 0 550.12194303 0 5781.41513112 0 52.16954614 0 392.37627100 0 10476
0.09850000 0.09850240 18497.27762340 0 817.32457563 0 7327.64532372 0 -410.69178730 0 630.46561820 0 10575
0.09950000 0.09950330 17969.19185206 0 868.98211013 0 7819.50247776 0 -893.28102481 0 1595.00337612 0 10882
0.10050000 0.10051200 17692.67184407 0 536.13520133 0 9579.03525863 0 -373.34697338 0 2817.00823904 0 10875
0.10150000 0.10150300 17669.85332309 0 35.97840042 0 9290.84745519 0 543.90698725 0 2340.14611308 0 11118
0.10250000 0.10250800 17481.12279732 0 -71.83877401 0 9767.48476814 0 1023.99742810 0 3703.08625487 0 11575
0.10350000 0.10349800 17445.37752799 0 -102.94457715 0 8479.46356348 0 1097.72710437 0 2386.76109166 0 11364
0.10450000 0.10450100 17774.05415537 0 129.36752520 0 8471.77495838 0 1230.87373634 0 2949.05216318 0 12093
0.10550000 0.10551000 17338.36653303 0 334.08562851 0 7330.53417096 0 421.39063867 0 1489.31877795 0 12067
0.10650000 0.10649700 16944.83135094 0 298.89339920 0 7201.71631359 0 453.62095651 0 3001.60220535 0 12054
0.10750000 0.10749900 16668.76096899 0 296.11471034 0 6978.16225185 0 -51.46700547 0 1946.92566921 0 12807
0.10850000 0.10850100 16426.30013272 0 453.04993145 0 6762.19562935 0 219.91096684 0 1763.36584277 0 12736
0.10950000 0.10950300 15888.32258873 0 643.04053417 0 7228.99737291 0 129.39225463 0 1458.84537382 0 12933
0.11050000 0.11050200 15165.54874673 0 685.55717150 0 6353.28323706 0 -198.61105777 0 1240.61938053 0 13428
0.11150000 0.11150900 14685.68536703 0 596.92351642 0 6796.14239456 0 603.52515059 0 1510.35003547 0 13453
0.11250000 0.11250000 14385.55999251 0 421.80654275 0 6235.55990195 0 442.07456008 0 1424.98853382 0 13668
0.11350000 0.11349100 14126.91261919 0 57.21345094 0 6228.86047412 0 948.55242852 0 1879.62789328 0 13791
0.11450000 0.11448600 14104.65613074 0 -365.40095738 0 5619.45983539 0 849.24240338 0 1760.75801180 0 14205
0.11550000 0.11549300 14455.47684005 0 -418.11061679 0 5523.71197246 0 1140.43146056 0 2051.92458769 0 14776
0.11650000 0.11649800 14648.81603263 0 -284.56943797 0 4713.75564339 0 707.05154383 0 1433.52018772 0 14553
0.11750000 0.11747300 14598.23310434 0 -42.42423918 0 4705.61741226 0 552.42290424 0 1995.96862835 0 14568
0.11850000 0.11849100 14641.95923568 0 150.16947344 0 4485.04212297 0 -237.52169434 0 1136.83445233 0 16015
0.11950000 0.11950300 14568.22056689 0 143.50938788 0 4204.71153439 0 -26.51208641 0 1060.27550427 0 15270
0.12050000 0.12050700 14524.38202904 0 228.57975668 0 4258.23951317 0 -327.28278668 0 859.05324334 0 15999
0.12150000 0.12150000 14469.97727950 0 93.81896726 0 3950.25692379 0 -219.15784324 0 531.66142234 0 15670
0.12250000 0.12250700 14433.22035161 0 205.87364220 0 4441.90050546 0 -57.48311415 0 938.48305360 0 16887
0.12350000 0.12352200 14291.25093287 0 380.09473601 0 4474.04876655 0 -376.33586241 0 170.39814850 0 16407
0.12450000 0.12449800 14132.75775757 0 280.50257054 0 4862.59309972 0 20.35985345 0 1134.74369129 0 16306
0.12550000 0.12549900 13937.17043485 0 137.16179241 0 4991.63577011 0 190.85163657 0 1460.35162102 0 17523
0.12650000 0.12650100 13751.02525874 0 -67.43356299 0 5062.06968759 0 654.81736394 0 1076.20912668 0 17154
0.12750000 0.12750600 13992.02481042 0 -166.78315522 0 4717.36389228 0 831.27759538 0 921.58161116 0 18007
0.12850000 0.12850300 13971.67923259 0 58.00321906 0 4562.41152195 0 190.92919706 0 875.70177113 0 17496
0.12950000 0.12949900 13880.51755516 0 290.91366124 0 3926.06704342 0 1.94639736 0 968.11003673 0 18405
0.13050000 0.13049000 13289.82135925 0 477.37694776 0 4414.10237620 0 -171.39407015 0 1142.47725900 0 18100
0.13150000 0.13148800 13046.68608394 0 459.43462107 0 4118.00115465 0 67.06442002 0 1566.46336392 0 19059
0.13250000 0.13249300 12734.42080663 0 271.57187353 0 4237.32066216 0 670.30360846 0 1312.16612243 0 18957
0.13350000 0.13349100 12564.34976107 0 185.15037852 0 3770.00184867 0 513.07725449 0 2020.83294777 0 19468
0.13450000 0.13450700 12310.53586757 0 77.92198937 0 3923.70650676 0 771.44136341 0 1766.59190953 0 19953
0.13550000 0.13551000 12382.47603225 0 83.16901273 0 3616.61192879 0 463.44978151 0 1968.21546170 0 19956
0.13650000 0.13649900 12204.19931165 0 109.34163148 0 3876.48453304 0 57.71680728 0 1899.55756703 0 19723
0.13750000 0.13749600 12092.80446291 0 269.12253574 0 3518.80702678 0 -407.89623747 0 1647.01386706 0 20946
0.13850000 0.13851100 11863.72000101 0 276.48066570 0 3959.24944437 0 -251.12175766 0 1768.31172910 0 20955
0.13950000 0.13949800 11611.36739210 0 364.21394466 0 3786.73917761 0 -467.92580863 0 1547.80388371 0 20506
0.14050000 0.14048300 11464.33968054 0 299.23174278 0 4445.64364215 0 70.71527097 0 1586.97755150 0 21447
0.14150000 0.14148400 11245.82143033 0 333.77988281 0 4128.96078911 0 -56.92580268 0 1351.65452845 0 21771
0.14250000 0.14249400 10927.45247967 0 231.74962019 0 4367.15017810 0 129.69462813 0 1225.93909067 0 22470
0.14350000 0.14350900 10808.77368926 0 171.99881716 0 4544.55012794 0 -82.86506553 0 1406.55386662 0 22519
0.14450000 0.14449900 10807.58218028 0 16.08638285 0 4451.27520817 0 196.21792323 0 1495.64726431 0 22218
0.14550000 0.14550500 10823.77995798 0 -31.86106246 0 4609.30751680 0 114.88619486 0 1264.53948528 0 23559
0.14650000 0.14650700 10860.57060782 0 -17.89208099 0 4050.83826653 0 156.29225589 0 1053.41196293 0 23044
0.14750000 0.14750500 10872.80043582 0 -25.54572766 0 4154.91545165 0 288.63068508 0 581.28102686 0 23649
0.14850000 0.14849900 10872.08103417 0 109.82936332 0 3610.51949610 0 436.35868918 0 529.97532473 0 23640
0.14950000 0.14949500 10744.69073944 0 125.96610429 0 3105.52202136 0 305.97613322 0 196.20218631 0 24457
0.15050000 0.15050000 10408.28054436 0 163.31766260 0 2934.18078226 0 395.09875661 0 -36.50120309 0 24591
0.15150000 0.15149900 10441.10324450 0 98.26239650 0 2629.41301899 0 236.62693854 0 85.98299723 0 25020
0.15250000 0.15250500 10448.93797806 0 97.14811079 0 2747.42861102 0 166.92141523 0 256.72297391 0 25297
0.15350000 0.15350100 10285.51015708 0 99.09836369 0 2763.70507328 0 -51.39236755 0 577.68739082 0 25452
0.15450000 0.15450400 10214.31187535 0 195.26921230 0 3054.50070769 0 30.69956602 0 853.80385944 0 26061
0.15550000 0.15549900 10058.85367574 0 230.67613804 0 3257.14715907 0 -35.54507334 0 989.42568271 0 26128
0.15650000 0.15649500 9965.70240313 0 307.82184807 0 3501.70999702 0 -38.48461591 0 1303.17360185 0 26331
0.15750000 0.15749700 9711.96719418 0 281.31639365 0 3752.15169531 0 -20.81723553 0 1202.08642982 0 27345
0.15850000 0.15849900 9630.23642271 0 6.07740395 0 3540.76001766 0 106.15265887 0 1351.68825040 0 26980
0.15950000 0.15949700 9625.06572338 0 77.09400304 0 3625.25598920 0 -35.39186327 0 899.12279100 0 27777
0.16050000 0.16050000 9556.36286611 0 101.89863460 0 3792.16841191 0 -164.66878882 0 991.94358847 0 28224
0.16150000 0.16150500 9518.26830078 0 229.04174742 0 4015.02555330 0 -368.44717373 0 653.25154130 0 28075
0.16250000 0.16249700 9340.85711030 0 292.34684421 0 4114.12313015 0 -447.26661665 0 704.19417041 0 28590
0.16350000 0.16349900 9143.97711274 0 250.39111536 0 4358.57356159 0 -246.92674680 0 982.27325665 0 29163
0.16450000 0.16449100 9063.07814943 0 145.47537770 0 4499.80109738 0 31.72628706 0 778.55781939 0 28996
0.16550000 0.16550500 9023.79207513 0 7.66559549 0 4454.88345706 0 400.59318669 0 781.12743214 0 30777
0.16650000 0.16650700 8943.70243867 0 -6.35161962 0 4076.99526078 0 741.43444628 0 387.65519769 0 29211
0.16750000 0.16749900 8902.91011717 0 -127.51281783 0 3409.21068215 0 678.01806705 0 530.54297759 0 30922
0.16850000 0.16850800 8894.61451693 0 -18.70927630 0 2763.81747978 0 750.68887403 0 -260.29637678 0 30867
0.16950000 0.16949900 8731.62508133 0 8.32554533 0 2218.28621851 0 452.48003046 0 -336.79912159 0 30852
0.17050000 0.17049200 8701.88231949 0 115.56400610 0 1983.80624426 0 157.46128357 0 -636.20397040 0 31257
0.17150000 0.17149500 8446.91063896 0 223.29552677 0 1592.05832563 0 -76.39595863 0 -892.01307941 0 32608
0.17250000 0.17250900 8389.22361941 0 256.75894400 0 1989.57269808 0 -260.45374589 0 -426.20613344 0 32361
0.17350000 0.17350400 8152.51799632 0 224.98499658 0 1811.88049133 0 -192.76142313 0 -776.78741690 0 32508
0.17450000 0.17449800 8133.76859090 0 102.41109587 0 2404.71241088 0 -131.74155063 0 -106.89825123 0 32791
0.17550000 0.17549800 8166.15290565 0 71.64779535 0 2616.12656983 0 -166.38298806 0 -289.64009552 0 33633
0.17650000 0.17650100 8220.17547307 0 45.19966825 0 2578.59403704 0 324.42990953 0 480.38269777 0 33984
0.17750000 0.17750300 8129.10372084 0 -5.43034713 0 2642.53085840 0 87.97686386 0 200.85581572 0 34069
