### header ###
fiducial parameters:
Omega_m = 0.31
Omega_nu = 0
Omega_de = 0.69
Omega_k = 0
H_0 = 100
w_de = -1
zeff = 0
beta = 0
fgrowth = 0
b_1 = 2
gamma = 0.55
Lx = 3500 Ly = 3500 Lz = 3500
nx = 700 ny = 700 nz = 700
xoffset = 857.220397 yoffset = 15.9954215 zoffset = 262.898189
bins = 400 dk = 0.001
kx_ny = 0.628318531 ky_ny = 0.628318531 kz_ny = 0.628318531
############################
A(data) = 3.0389564 (not used)
A(ran) = 3.04204999 (used)
Ngal = 185607
weighted Ngal = 0
Nran = 9360983
weighted Nran = 0
SN(data) = 3429.14644
SN(ran) = 68.3130103
SN(data+ran) = 3497.45945
############################
13 columns: k_central k_mean P_0(k) sigma^{lin}_{P_0(k)} P^img_1(k) sigma^{lin}_{P_1(k)} P_2(k) sigma^{lin}_{P_2(k)} P^img_3(k) sigma^{lin}_{P_3(k)} P_4(k) sigma^{lin}_{P_4(k)} N_modes
### header ###
0.00050000 0 0 0 0 0 0 0 0 0 0 0 0
0.00150000 0.00179520 29731.63358998 0 -44885.94168598 0 -44359.99163828 0 54819.07992394 0 63993.69905058 0 3
0.00250000 0.00253879 53568.55753012 0 -46529.32482285 0 -27525.20625799 0 -35472.68354433 0 -38997.75161356 0 6
0.00350000 0.00331552 87420.78886506 0 -50834.94367885 0 -70842.51513446 0 3399.48751927 0 38176.95929719 0 7
0.00450000 0.00420575 116233.94888381 0 -43072.15028403 0 -72650.68621105 0 -46313.50432882 0 -8139.95094880 0 24
0.00550000 0.00557378 152107.36162670 0 -15888.32258873 0 -88485.27848929 0 -78716.92819104 0 -5185.12109114 0 45
0.00650000 0.00659388 137056.13029790 0 4681.28140343 0 -42695.36367152 0 -43457.25497807 0 -27736.86771126 0 40
0.00750000 0.00754703 119618.50881892 0 31228.77586084 0 -40085.84660432 0 -68713.42347950 0 -5898.74504345 0 57
0.00850000 0.00846663 104782.42354511 0 21100.05030016 0 -25594.28727542 0 -8394.50672525 0 16476.88306101 0 75
0.00950000 0.00948925 75574.26705967 0 11159.27966035 0 -1631.01842107 0 785.08414120 0 25484.12889826 0 112
0.01050000 0.01054430 71917.68337688 0 -1865.02628798 0 -32416.57542358 0 39503.91811598 0 1873.81647686 0 105
0.01150000 0.01145670 72134.06590345 0 -9295.53480655 0 -14281.80878626 0 14153.44055491 0 26259.62139219 0 144
0.01250000 0.01249090 79346.40463198 0 -5688.38750567 0 -21712.77817150 0 -6117.47686603 0 2022.84502425 0 169
0.01350000 0.01339930 86710.26733236 0 -5973.77638708 0 -2555.93288516 0 -31173.69667226 0 -6516.59865153 0 180
0.01450000 0.01448870 88799.34227071 0 1549.78223823 0 4044.46481757 0 -42752.57858374 0 -6866.32901772 0 267
0.01550000 0.01550050 93880.00399461 0 2564.49826102 0 28436.26099974 0 -32246.95400405 0 -32547.30419158 0 238
0.01650000 0.01653350 88375.34492514 0 5567.67415747 0 25002.24220142 0 -15732.63957611 0 -29726.80011016 0 315
0.01750000 0.01747870 81773.14871829 0 5646.43739714 0 26621.12071970 0 -5049.22162381 0 -47428.01484879 0 297
0.01850000 0.01844180 82582.81279045 0 -864.90287798 0 17083.99060699 0 21784.04389714 0 -45634.11939863 0 388
0.01950000 0.01947590 73927.39932108 0 3587.61104991 0 9099.75639277 0 21420.40884599 0 -35560.58543304 0 399
0.02050000 0.02045430 71883.96142469 0 1557.12238316 0 2386.51379735 0 20491.59387609 0 -12250.51079266 0 462
0.02150000 0.02154770 68601.01697220 0 5130.09810582 0 5007.50756894 0 10647.02072524 0 7978.08557827 0 571
0.02250000 0.02255340 68140.93713778 0 1434.64425280 0 10006.79822220 0 6757.28346498 0 41727.20642406 0 510
0.02350000 0.02348930 67661.86060362 0 4649.57152772 0 23456.87753892 0 1338.84018662 0 63732.35392108 0 555
0.02450000 0.02439640 68214.45099356 0 737.04834437 0 31205.73252684 0 7369.15704687 0 59800.93632792 0 592
0.02550000 0.02547300 70297.11876099 0 962.58525689 0 41255.88593891 0 10917.53822573 0 76947.87457900 0 837
0.02650000 0.02652900 70429.53362661 0 2712.84112872 0 42911.18416556 0 3208.41893815 0 68304.26379290 0 723
0.02750000 0.02749970 68896.87089943 0 1073.86095474 0 38387.38427887 0 10196.95631062 0 59705.27839020 0 826
0.02850000 0.02848090 64798.64204942 0 3594.00698017 0 33653.94625605 0 846.73011794 0 38076.24306664 0 831
0.02950000 0.02946900 61728.93274130 0 2596.46667170 0 26457.11962553 0 943.36149601 0 30302.54624061 0 996
0.03050000 0.03053250 58010.18825996 0 4023.95062998 0 19665.74326688 0 -729.09895617 0 19150.69665039 0 1041
0.03150000 0.03150510 53237.63277260 0 2549.88541507 0 18845.06335701 0 3080.18559461 0 4525.57590950 0 1036
0.03250000 0.03246190 52479.22606778 0 2728.58928039 0 15419.02542072 0 2082.03829100 0 7621.79067205 0 1059
0.03350000 0.03345080 47571.44555212 0 1763.44452733 0 15799.74626097 0 7483.57563066 0 761.38997352 0 1302
0.03450000 0.03451200 47241.42004666 0 2048.21517295 0 14277.20011946 0 2064.41295065 0 11732.99123301 0 1339
0.03550000 0.03553350 44014.90366083 0 1958.37989231 0 13364.90890613 0 7796.87504784 0 6496.77014364 0 1365
0.03650000 0.03647120 44732.50680350 0 317.06053891 0 13330.73732791 0 5436.73181711 0 12636.51473877 0 1308
0.03750000 0.03744890 41126.84326852 0 472.68622421 0 6797.36762549 0 5452.80594765 0 10550.72207042 0 1579
0.03850000 0.03847530 41037.81731473 0 259.32068830 0 4213.32187285 0 2866.89424699 0 9119.74226977 0 1662
0.03950000 0.03950240 40131.25883328 0 67.42985357 0 3114.81803951 0 397.38285684 0 4139.59444470 0 1683
0.04050000 0.04050350 40774.33646160 0 748.96006195 0 2841.83883651 0 -1555.47000750 0 5256.07207856 0 1822
0.04150000 0.04152450 40214.32724218 0 -208.76136538 0 3135.51207751 0 -1998.37412761 0 6622.19332450 0 1887
0.04250000 0.04250150 41762.72688037 0 -488.43887215 0 6268.79850617 0 -1921.69040832 0 9271.62594244 0 1920
0.04350000 0.04349210 41715.40374080 0 457.86992249 0 11460.85507881 0 -1794.55864855 0 9373.25266570 0 2005
0.04450000 0.04448520 43286.73430648 0 372.57361661 0 11892.83328640 0 -900.28844648 0 12459.36208325 0 2151
0.04550000 0.04548030 42597.79482318 0 1269.29428054 0 16394.37668464 0 751.32509486 0 14521.34705334 0 2274
0.04650000 0.04648670 42610.04713248 0 1756.58773038 0 17567.00136890 0 400.99335385 0 15113.50453385 0 2311
0.04750000 0.04749250 39446.36598424 0 1739.96280795 0 14524.38202904 0 1682.50060141 0 10242.60459324 0 2568
0.04850000 0.04851840 38552.05981208 0 1528.98703438 0 17343.42482586 0 1766.87292580 0 16814.21498945 0 2493
0.04950000 0.04949480 37321.09615053 0 70.49630309 0 10782.89771127 0 4873.95739761 0 9530.70046049 0 2644
0.05050000 0.05050630 37954.05719319 0 -511.04831703 0 14132.87016408 0 4224.58500488 0 14808.99530554 0 2829
0.05150000 0.05149060 38010.59766637 0 -560.85788855 0 8570.78261002 0 612.19281637 0 11384.64346686 0 2784
0.05250000 0.05249300 39391.28679566 0 -229.09008222 0 15273.79621327 0 -549.78921977 0 13925.59256460 0 3055
0.05350000 0.05348950 39270.33739379 0 111.99318858 0 14068.68604840 0 -3480.07174436 0 10630.87915079 0 3009
0.05450000 0.05448610 39575.85828066 0 1034.16459668 0 17358.03767181 0 -5666.32210829 0 13161.11590838 0 3336
0.05550000 0.05550870 39424.44671531 0 510.00518464 0 19114.05212901 0 -3658.68568448 0 12118.54555308 0 3349
0.05650000 0.05647670 39762.56548930 0 762.82652869 0 22355.40617380 0 92.86710896 0 9143.84222493 0 3324
0.05750000 0.05747970 39119.60026749 0 510.79652645 0 20379.52458830 0 2108.59994867 0 6408.21629718 0 3639
0.05850000 0.05849280 38481.24371248 0 318.30375488 0 18193.10561462 0 4417.41836817 0 5907.90617380 0 3846
0.05950000 0.05951020 37592.89508520 0 253.30694016 0 17568.91227952 0 4790.65293504 0 5921.90078396 0 3787
0.06050000 0.06049470 38109.74020582 0 518.90553189 0 15217.59295962 0 2855.57491170 0 4553.85738674 0 3930
0.06150000 0.06148310 36046.06913811 0 1342.14493793 0 14502.57516662 0 997.74039205 0 2014.39205490 0 4083
0.06250000 0.06249100 35415.01900608 0 1716.70590159 0 14664.32813064 0 -347.83519248 0 1422.05472398 0 4303
0.06350000 0.06350600 34346.81996711 0 689.64089991 0 14447.60838454 0 -812.97556786 0 2437.60255492 0 4470
0.06450000 0.06451750 33910.12068621 0 56.18077235 0 12917.64341355 0 1251.23055482 0 -951.45813673 0 4479
0.06550000 0.06550280 33586.27753865 0 -23.14922093 0 12381.01474765 0 1264.77553895 0 -2913.72279793 0 4636
0.06650000 0.06648880 33994.31316019 0 -184.18143442 0 8985.15795856 0 2823.28052215 0 -5972.97830088 0 4653
0.06750000 0.06749660 32470.64295360 0 788.37989999 0 9002.55848590 0 1082.28694653 0 -5434.91083169 0 5220
0.06850000 0.06852730 31763.04399008 0 1122.44417126 0 6212.11190453 0 1557.77434090 0 -4240.91767039 0 5029
0.06950000 0.06949320 31021.04863533 0 706.60416593 0 6515.35093930 0 1782.01408234 0 -4295.60343620 0 5040
0.07050000 0.07048030 30760.71516440 0 442.36681700 0 6447.17639262 0 731.57864372 0 -1553.76142859 0 5475
0.07150000 0.07148790 30037.71650938 0 614.45443530 0 7339.97631758 0 -719.36342857 0 -2336.95376827 0 5509
0.07250000 0.07249820 29572.57838214 0 927.22329376 0 8420.59627560 0 38.10816651 0 58.69193373 0 5916
0.07350000 0.07351270 29510.41758359 0 654.78476606 0 9191.79484095 0 -986.71218962 0 737.24617982 0 5721
0.07450000 0.07449140 28708.39715394 0 952.40347546 0 10564.13216675 0 -383.01056081 0 439.20819414 0 6028
0.07550000 0.07549160 28330.37406985 0 679.55578807 0 9965.76984703 0 -1.81351039 0 524.97098702 0 6183
0.07650000 0.07648840 27726.63871909 0 327.02200359 0 10133.07569251 0 1038.42929957 0 -956.69178371 0 6330
0.07750000 0.07749960 27281.28413713 0 423.74780313 0 8914.44302482 0 863.25949484 0 -111.65169761 0 6583
0.07850000 0.07848650 27121.77930326 0 110.23301508 0 8319.39669707 0 1454.59640784 0 -954.19411112 0 6549
0.07950000 0.07947320 26151.03670613 0 205.28013584 0 6932.63761639 0 2195.55762273 0 -358.17546709 0 6828
0.08050000 0.08048110 26039.30463786 0 671.08370962 0 6383.10468345 0 1874.97426388 0 -1196.63471422 0 7147
0.08150000 0.08149960 24732.01695785 0 887.63484595 0 4428.67025955 0 1416.83906204 0 -936.32484866 0 7386
0.08250000 0.08250610 23728.33925408 0 906.19765657 0 4098.79088255 0 1335.13077187 0 -908.46601988 0 7227
0.08350000 0.08350160 22688.69146797 0 458.95239715 0 2680.89519934 0 1320.76522024 0 -1044.52398040 0 7798
0.08450000 0.08449610 22006.27156209 0 467.07601543 0 2770.17968810 0 -357.44594886 0 -3.58724011 0 7371
0.08550000 0.08548940 22310.89319690 0 383.60631530 0 2236.52979464 0 -1664.02097161 0 -716.11375644 0 8256
0.08650000 0.08650700 21544.05600403 0 669.85061023 0 4129.92748507 0 -2071.83178013 0 -159.33397598 0 8037
0.08750000 0.08749060 21820.35119900 0 895.30883820 0 5367.05102322 0 -2599.24311243 0 -129.16406942 0 8155
0.08850000 0.08849210 20879.39632631 0 597.91381775 0 7249.28674748 0 -1668.09008718 0 213.64655218 0 8718
0.08950000 0.08949900 20965.94933694 0 444.83189170 0 8935.02465630 0 -161.64392971 0 759.97589966 0 8571
0.09050000 0.09049190 20816.67349523 0 80.21463249 0 7974.26375702 0 1094.15482557 0 668.30726889 0 8932
0.09150000 0.09150830 20710.33693931 0 218.24173020 0 7812.25225804 0 2171.77240578 0 544.41394059 0 9285
0.09250000 0.09250820 20333.66273332 0 276.39186456 0 6691.33456714 0 1744.09936742 0 393.09904484 0 9204
0.09350000 0.09350330 19741.05562678 0 261.38447177 0 5790.96968424 0 1365.70534186 0 -18.30539972 0 9349
0.09450000 0.09448040 19389.11085239 0 457.73615874 0 4848.36243589 0 -62.43079897 0 -1065.11460441 0 9564
0.09550000 0.09549270 18633.28949724 0 557.83302944 0 4365.38539594 0 -982.87125927 0 -950.96692030 0 10155
0.09650000 0.09649430 18277.29808859 0 447.90733374 0 5332.04763685 0 -902.04198799 0 -1378.42975849 0 9913
0.09750000 0.09749140 18130.15797052 0 376.85855267 0 5419.67974995 0 -590.93449771 0 -686.61604080 0 10476
0.09850000 0.09850240 18356.31986323 0 72.65147306 0 6374.04471896 0 -2.98012132 0 -1491.16224467 0 10575
0.09950000 0.09950330 18074.40434290 0 14.35757077 0 5653.69885752 0 185.08518274 0 -1669.82114739 0 10882
0.10050000 0.10051200 18238.51784357 0 301.67883245 0 6838.71073888 0 118.61134651 0 -1533.86547680 0 10875
0.10150000 0.10150300 17662.09727408 0 404.00584825 0 6041.78232400 0 153.02235060 0 -1363.99676295 0 11118
0.10250000 0.10250800 17506.07704194 0 452.34064639 0 6382.02558098 0 656.04034674 0 -212.91590989 0 11575
0.10350000 0.10349800 17177.51282107 0 227.35452575 0 5438.48535862 0 1261.75180390 0 -467.79429302 0 11364
0.10450000 0.10450100 16688.76932729 0 234.75199800 0 4980.90094866 0 1686.88445520 0 430.96542496 0 12093
0.10550000 0.10551000 16336.82455290 0 295.47624138 0 4324.15468905 0 1934.71832252 0 477.24093589 0 12067
0.10650000 0.10649700 15968.80564797 0 451.33685628 0 3551.24754479 0 1303.35345226 0 1863.69989120 0 12054
0.10750000 0.10749900 15561.21965246 0 264.28343560 0 3046.27255135 0 863.27972801 0 1647.90187846 0 12807
0.10850000 0.10850100 15481.41103227 0 -60.85137514 0 2411.07461919 0 524.73380929 0 2451.79949679 0 12736
0.10950000 0.10950300 15446.90223453 0 -265.60870832 0 2129.84477856 0 328.48441225 0 2141.37768621 0 12933
0.11050000 0.11050200 15702.40222564 0 -68.72983483 0 2231.53894572 0 -565.04503095 0 1775.15728539 0 13428
0.11150000 0.11150900 15802.10679763 0 189.03739554 0 2267.07064268 0 -676.49945514 0 1530.67313199 0 13453
0.11250000 0.11250000 15547.50605857 0 518.75940343 0 2408.11832805 0 -772.44964978 0 610.99343894 0 13668
0.11350000 0.11349100 14958.27114725 0 483.61326079 0 2691.76490860 0 -569.09840960 0 869.60933844 0 13791
0.11450000 0.11448600 14768.75377593 0 381.63133297 0 3556.12598721 0 -254.90198850 0 -207.76656779 0 14205
0.11550000 0.11549300 14439.96474205 0 183.96898612 0 3194.41308734 0 311.77743307 0 432.09511036 0 14776
0.11650000 0.11649800 14272.36663965 0 -73.04455861 0 3658.57327797 0 801.87767339 0 168.29165055 0 14553
0.11750000 0.11747300 14489.87323129 0 -47.61213671 0 3159.35349771 0 231.29437383 0 700.77701259 0 14568
0.11850000 0.11849100 14427.48761973 0 -164.01458295 0 2815.32214143 0 373.17948768 0 981.40997467 0 16015
0.11950000 0.11950300 14740.42733609 0 15.36023682 0 3008.71753726 0 373.97532576 0 1076.77340734 0 15270
0.12050000 0.12050700 14665.90182174 0 -25.65116497 0 2259.53940669 0 586.14598050 0 1602.63577797 0 15999
0.12150000 0.12150000 14702.65874963 0 243.29714068 0 2445.84195191 0 294.06329158 0 1175.88447297 0 15670
0.12250000 0.12250700 14347.22937352 0 383.81988767 0 2357.62532497 0 -341.98668190 0 962.76173511 0 16887
0.12350000 0.12352200 14152.54130285 0 484.18990617 0 2846.17772769 0 -860.90570258 0 316.16465905 0 16407
0.12450000 0.12449800 13645.81276790 0 348.29830729 0 2840.44499582 0 -1137.94727675 0 -248.09240228 0 16306
0.12550000 0.12549900 13504.06816218 0 249.58853290 0 3466.85273910 0 -1323.89012114 0 -553.29068248 0 17523
0.12650000 0.12650100 13575.78351385 0 111.67440373 0 3999.10879187 0 -1020.94559142 0 -972.36012677 0 17154
0.12750000 0.12750600 13523.17726843 0 148.79136966 0 3896.75142631 0 -160.67273748 0 -1448.77375077 0 18007
0.12850000 0.12850300 13560.27141584 0 193.81017584 0 3681.52668676 0 465.05157424 0 -1435.26248859 0 17496
0.12950000 0.12949900 13231.70719497 0 204.51015127 0 3822.32707782 0 797.16784074 0 -1122.18338817 0 18405
0.13050000 0.13049000 13131.55299696 0 198.42221483 0 3458.15247544 0 1108.10222500 0 -1384.26365622 0 18100
0.13150000 0.13148800 12723.85459495 0 80.02387865 0 3399.22898431 0 845.31716814 0 -123.12446778 0 19059
0.13250000 0.13249300 12717.78464355 0 80.83994989 0 2810.99449090 0 603.99613386 0 15.65283096 0 18957
0.13350000 0.13349100 12610.54883558 0 -12.82108622 0 2841.97372432 0 304.91389173 0 823.92396167 0 19468
0.13450000 0.13450700 12873.58006268 0 5.68673513 0 2773.96778739 0 440.28055222 0 1074.81303786 0 19953
0.13550000 0.13551000 12565.92345217 0 20.32770519 0 2802.11437682 0 542.78741843 0 1407.56552519 0 19956
0.13650000 0.13649900 12683.05103279 0 133.97844013 0 2073.33802733 0 520.84679227 0 1270.18229195 0 19723
0.13750000 0.13749600 12507.13484885 0 92.59137579 0 2237.96859794 0 482.29585652 0 1454.47276069 0 20946
0.13850000 0.13851100 12259.05368722 0 461.17579787 0 1687.51393164 0 -3.58611604 0 1585.96589294 0 20955
0.13950000 0.13949800 11981.63442718 0 525.79155453 0 2165.56756658 0 -193.09302232 0 1684.84989742 0 20506
0.14050000 0.14048300 11430.39291533 0 551.76195398 0 2336.79639916 0 -222.66043000 0 2130.40681109 0 21447
0.14150000 0.14148400 11029.19160944 0 534.80430828 0 2821.41457413 0 -223.35397815 0 2547.61480362 0 21771
0.14250000 0.14249400 10744.80314595 0 281.47488682 0 2902.62827566 0 318.90737782 0 2538.71220825 0 22470
0.14350000 0.14350900 10549.76661511 0 94.79386890 0 2914.13870201 0 147.47171727 0 2660.29108655 0 22519
0.14450000 0.14449900 10539.34653188 0 15.96554586 0 2920.06252494 0 270.93790083 0 2423.43933500 0 22218
0.14550000 0.14550500 10546.66419551 0 0.92008323 0 2755.01605026 0 -159.86003844 0 2024.45243730 0 23559
0.14650000 0.14650700 10585.09598036 0 -54.50501614 0 2681.20993756 0 -224.50052453 0 1411.46603099 0 23044
0.14750000 0.14750500 10572.63009870 0 50.51065091 0 2428.61003434 0 -457.64398541 0 1030.80926244 0 23649
0.14850000 0.14849900 10719.45547855 0 49.71728578 0 1988.79709318 0 -139.39193752 0 299.66338377 0 23640
0.14950000 0.14949500 10345.01816205 0 71.44051775 0 2148.26820510 0 -57.04585283 0 -295.58864788 0 24457
0.15050000 0.15050000 10452.62491150 0 36.17960807 0 1965.74251853 0 291.87810908 0 -608.47103691 0 24591
0.15150000 0.15149900 10383.53987210 0 43.76558603 0 1956.50270363 0 94.42584999 0 -560.28011910 0 25020
0.15250000 0.15250500 10444.20566410 0 131.05025061 0 2058.74766268 0 87.18349873 0 -584.25193085 0 25297
0.15350000 0.15350100 10220.39306739 0 243.45900605 0 2185.54220293 0 139.31212890 0 -274.46521703 0 25452
0.15450000 0.15450400 9973.03130741 0 362.10295045 0 2456.36320099 0 -102.21809389 0 -72.63202673 0 26061
0.15550000 0.15549900 9724.19702217 0 382.95997788 0 2653.40056765 0 -248.30035432 0 -157.75466455 0 26128
0.15650000 0.15649500 9399.71315752 0 329.59049228 0 2844.90753416 0 -204.87547242 0 -77.06511457 0 26331
0.15750000 0.15749700 9179.54253166 0 145.60239705 0 2603.87426053 0 64.15084335 0 -514.54753160 0 27345
0.15850000 0.15849900 9185.51131719 0 10.83085033 0 2680.26572290 0 -2.41213124 0 -293.77103466 0 26980
0.15950000 0.15949700 9199.62957451 0 -61.48737116 0 2448.56218938 0 56.41884934 0 -952.80364263 0 27777
0.16050000 0.16050000 9175.85559822 0 13.55588756 0 2193.09592022 0 129.38326211 0 -800.77946182 0 28224
0.16150000 0.16150500 9170.41512326 0 100.02391887 0 1874.17617768 0 183.58005961 0 -867.35446390 0 28075
0.16250000 0.16249700 8998.38820447 0 168.05559688 0 2027.16143413 0 226.95997891 0 -733.16357547 0 28590
0.16350000 0.16349900 8885.01500120 0 186.96799174 0 1873.87268011 0 341.90012889 0 -356.63437387 0 29163
0.16450000 0.16449100 8670.61082916 0 107.73039661 0 1855.89887959 0 322.54597647 0 -452.76104673 0 28996
0.16550000 0.16550500 8677.16412853 0 78.51931755 0 1607.18824152 0 -15.26873792 0 -73.83511358 0 30777
0.16650000 0.16650700 8615.21690236 0 78.28517480 0 1935.78618434 0 -89.88777448 0 -434.75689645 0 29211
0.16750000 0.16749900 8711.51555717 0 40.20398584 0 1750.64142615 0 -400.15367724 0 -167.69252387 0 30922
0.16850000 0.16850800 8630.79644427 0 59.01813741 0 2165.88230480 0 -371.42707023 0 -413.54241633 0 30867
0.16950000 0.16949900 8724.54347137 0 85.37319193 0 2081.33013000 0 -339.33388833 0 -543.73950155 0 30852
0.17050000 0.17049200 8679.20992697 0 77.16785411 0 2510.40824970 0 -63.24158711 0 -603.14858879 0 31257
0.17150000 0.17149500 8661.30357035 0 82.28976903 0 2455.47518958 0 210.87235958 0 -643.64865338 0 32608
0.17250000 0.17250900 8669.03713806 0 34.10773133 0 2490.46733531 0 265.18043952 0 -297.73448811 0 32361
0.17350000 0.17350400 8522.79627205 0 75.78289354 0 2303.43414779 0 287.98884392 0 -273.55247619 0 32508
0.17450000 0.17449800 8462.99601016 0 91.14189388 0 2112.47797318 0 510.83024840 0 322.07724133 0 32791
0.17550000 0.17549800 8400.99258073 0 121.54403229 0 1949.03891155 0 470.43134968 0 446.00878783 0 33633
0.17650000 0.17650100 8278.41328450 0 67.68861335 0 1838.39718640 0 410.32309396 0 694.09894199 0 33984
0.17750000 0.17750300 8235.86742149 0 89.05338098 0 1645.74367352 0 327.57953986 0 531.62657632 0 34069
