### header ###
fiducial parameters:
Omega_m = 0.31
Omega_nu = 0
Omega_de = 0.69
Omega_k = 0
H_0 = 100
w_de = -1
zeff = 0
beta = 0
fgrowth = 0
b_1 = 2
gamma = 0.55
Lx = 3500 Ly = 3500 Lz = 3500
nx = 700 ny = 700 nz = 700
xoffset = 857.220397 yoffset = 15.9954215 zoffset = 262.898189
bins = 400 dk = 0.001
kx_ny = 0.628318531 ky_ny = 0.628318531 kz_ny = 0.628318531
############################
A(data) = 3.10281024 (not used)
A(ran) = 3.10369808 (used)
Ngal = 188944
weighted Ngal = 0
Nran = 9360983
weighted Nran = 0
SN(data) = 3442.05387
SN(ran) = 69.6973945
SN(data+ran) = 3511.75127
############################
13 columns: k_central k_mean P_0(k) sigma^{lin}_{P_0(k)} P^img_1(k) sigma^{lin}_{P_1(k)} P_2(k) sigma^{lin}_{P_2(k)} P^img_3(k) sigma^{lin}_{P_3(k)} P_4(k) sigma^{lin}_{P_4(k)} N_modes
### header ###
0.00050000 0 0 0 0 0 0 0 0 0 0 0 0
0.00150000 0.00179520 9188.56877419 0 -24240.46330138 0 -29206.24557481 0 45047.02021095 0 35521.69278151 0 3
0.00250000 0.00253879 18297.41885340 0 -26848.40667748 0 -21068.57647811 0 -18033.71318725 0 -29510.97961613 0 6
0.00350000 0.00331552 39914.76390020 0 -41125.04476440 0 -63854.31498151 0 29874.38985426 0 25863.05123440 0 7
0.00450000 0.00420575 56063.19514685 0 -40909.33667688 0 -70159.53319605 0 -2239.58725164 0 -12542.09327263 0 24
0.00550000 0.00557378 90142.48762656 0 -29082.48601026 0 -107312.80643116 0 -22736.80145310 0 -4825.73500597 0 45
0.00650000 0.00659388 73114.70027322 0 -5559.47972309 0 -54722.63514067 0 -53170.41368123 0 -14615.43129996 0 40
0.00750000 0.00754703 88392.76793377 0 8051.07112347 0 -98441.46006125 0 -46820.34527028 0 23171.70222988 0 57
0.00850000 0.00846663 66917.95433824 0 12396.63925217 0 -53221.89586157 0 -44468.23910482 0 20142.90889041 0 75
0.00950000 0.00948925 70656.93199089 0 9218.57007099 0 -56869.26221077 0 -36646.31988715 0 39105.09982805 0 112
0.01050000 0.01054430 58928.32461167 0 -527.49676124 0 -26333.80968701 0 -16078.62680561 0 7236.47240565 0 105
0.01150000 0.01145670 68712.74904046 0 943.26595048 0 -14031.81671400 0 -21196.38267692 0 31370.85768608 0 144
0.01250000 0.01249090 70511.25315742 0 -1548.54576665 0 6880.30114658 0 -5836.43811645 0 13724.83454254 0 169
0.01350000 0.01339930 68707.91556065 0 4012.02429956 0 30032.99543608 0 -3468.89853754 0 41140.55686241 0 180
0.01450000 0.01448870 70423.23886220 0 2443.18915833 0 30757.34296918 0 10839.21337144 0 16795.78032225 0 267
0.01550000 0.01550050 68187.58583831 0 1521.16354147 0 50406.22525997 0 1189.49690100 0 5399.92992661 0 238
0.01650000 0.01653350 68122.72728359 0 1822.03079894 0 35005.85931947 0 8313.95622212 0 8820.33629690 0 315
0.01750000 0.01747870 68961.39223463 0 1962.60637698 0 50259.42236142 0 2680.61418307 0 4108.15434461 0 297
0.01850000 0.01844180 70911.19551043 0 -529.42678097 0 29390.36743379 0 -3724.13999368 0 65.26456702 0 388
0.01950000 0.01947590 72497.70095460 0 3210.35233007 0 37322.78224814 0 -5589.09883776 0 -16775.88437045 0 399
0.02050000 0.02045430 72229.94865419 0 2286.57317170 0 36700.16260415 0 -8007.13141976 0 -9014.56350088 0 462
0.02150000 0.02154770 69944.38714106 0 3072.63187732 0 34738.10701906 0 4703.25687561 0 -13192.58973043 0 571
0.02250000 0.02255340 71068.22740114 0 269.22257753 0 40818.06259294 0 13133.57631409 0 -9381.10988056 0 510
0.02350000 0.02348930 70631.52812024 0 -1087.95785482 0 29739.05241946 0 11739.17359091 0 -7834.62115299 0 555
0.02450000 0.02439640 70659.51734056 0 1221.72384665 0 27931.78059493 0 17664.00818471 0 -7235.23593406 0 592
0.02550000 0.02547300 68154.31351215 0 3285.69841192 0 26150.36226709 0 9142.41466229 0 6221.83506741 0 837
0.02650000 0.02652900 64837.87192047 0 3745.99181871 0 30367.29238882 0 5090.20503637 0 5845.08217686 0 723
0.02750000 0.02749970 64240.20652111 0 5013.18409756 0 35618.58719081 0 -1379.95848699 0 15929.01374438 0 826
0.02850000 0.02848090 60805.06365772 0 1705.03810613 0 36133.07177477 0 2361.48086817 0 12260.73978483 0 831
0.02950000 0.02946900 61505.58101127 0 -763.79097652 0 37961.13880315 0 9537.66966394 0 24267.89048917 0 996
0.03050000 0.03053250 62720.24572926 0 -1730.83539956 0 36425.32869378 0 14376.34265891 0 19372.13746979 0 1041
0.03150000 0.03150510 63876.34665694 0 -1581.22233833 0 33982.51047692 0 15864.04278316 0 17109.50688415 0 1036
0.03250000 0.03246190 63570.48855055 0 -1483.88954365 0 28548.10547451 0 14725.25245760 0 23509.93341038 0 1059
0.03350000 0.03345080 63576.33368893 0 2157.01343137 0 23486.21563733 0 8193.62505604 0 26971.60420949 0 1302
0.03450000 0.03451200 61785.81043400 0 3452.16120860 0 23702.14853788 0 2251.32249101 0 31076.57744994 0 1339
0.03550000 0.03553350 55972.25828243 0 4616.67014303 0 24088.82692302 0 3166.40138571 0 30469.24509095 0 1365
0.03650000 0.03647120 52504.18031240 0 3682.83060225 0 23253.53416720 0 1979.55727828 0 32047.76967310 0 1308
0.03750000 0.03744890 50687.69115427 0 2180.07924667 0 23189.57486454 0 4760.22449351 0 26183.40978023 0 1579
0.03850000 0.03847530 48428.32035734 0 1134.62004414 0 21722.78235065 0 2079.34053482 0 23940.00070734 0 1662
0.03950000 0.03950240 45535.53889172 0 1165.32950193 0 19817.94167778 0 2822.92082133 0 17757.98002482 0 1683
0.04050000 0.04050350 47211.96954174 0 1058.71305381 0 17228.20815587 0 -2011.16598814 0 18720.17972739 0 1822
0.04150000 0.04152450 45380.30550513 0 1242.30547814 0 18770.20062315 0 -1278.24183853 0 19043.34843591 0 1887
0.04250000 0.04250150 45703.24940063 0 1154.47103333 0 19392.03342158 0 -2040.51532720 0 10927.32883252 0 1920
0.04350000 0.04349210 44727.22369766 0 495.45191414 0 21947.37055226 0 -1854.14533808 0 12066.95096623 0 2005
0.04450000 0.04448520 44269.50439989 0 761.32702588 0 24663.44898839 0 -3664.51958221 0 6912.32576052 0 2151
0.04550000 0.04548030 45111.54154615 0 1925.32113851 0 28783.48470082 0 -3315.38497050 0 9453.06128589 0 2274
0.04650000 0.04648670 43346.08494234 0 1336.87307274 0 27659.86925375 0 -159.38231078 0 1816.97250611 0 2311
0.04750000 0.04749250 41993.60984639 0 907.77359580 0 27629.06987075 0 3244.51266764 0 4902.09274639 0 2568
0.04850000 0.04851840 42012.71895263 0 -281.84133204 0 24474.26883659 0 4145.99037497 0 1025.72511611 0 2493
0.04950000 0.04949480 41774.97918967 0 276.12321301 0 21495.49639287 0 6104.56135834 0 -3963.39724449 0 2644
0.05050000 0.05050630 41582.65165566 0 225.42338195 0 19009.62648372 0 3422.91303540 0 -3451.85771103 0 2829
0.05150000 0.05149060 40588.41609851 0 66.00622516 0 13386.04132951 0 3210.86940001 0 -4582.30747374 0 2784
0.05250000 0.05249300 40101.80832836 0 319.82911118 0 14581.48453475 0 4113.07774963 0 -3180.83438125 0 3055
0.05350000 0.05348950 39747.84023684 0 117.17591542 0 10363.28421949 0 4389.48535110 0 -3769.55222264 0 3009
0.05450000 0.05448610 40265.24738999 0 -22.75737184 0 9191.81732225 0 3913.08409182 0 -841.66508072 0 3336
0.05550000 0.05550870 39333.50985090 0 -178.75220012 0 6425.15595783 0 2480.91278219 0 -2679.80485622 0 3349
0.05650000 0.05647670 40397.21262957 0 156.33047411 0 8395.16992365 0 429.52999386 0 1857.22527638 0 3324
0.05750000 0.05747970 40199.48958321 0 49.47943361 0 7666.86568148 0 -381.14573686 0 244.87757617 0 3639
0.05850000 0.05849280 39550.79162953 0 1017.73301344 0 9091.26970146 0 -1320.55164788 0 3785.10928325 0 3846
0.05950000 0.05951020 38974.03384052 0 1602.70322188 0 9128.29640497 0 650.92135440 0 2692.83277042 0 3787
0.06050000 0.06049470 37186.54556128 0 2079.63279174 0 10989.50087171 0 -298.56629626 0 5834.62837168 0 3930
0.06150000 0.06148310 34635.36747137 0 1880.51590469 0 8579.39294848 0 1733.49943378 0 2169.53551629 0 4083
0.06250000 0.06249100 33101.91789865 0 1142.25244598 0 10684.76683039 0 1505.12313288 0 3528.00187908 0 4303
0.06350000 0.06350600 32093.18190205 0 194.41604691 0 6385.69003312 0 1843.99503047 0 2828.03531741 0 4470
0.06450000 0.06451750 31829.47623590 0 -124.62059839 0 6834.48425420 0 2455.31782047 0 3225.14502643 0 4479
0.06550000 0.06550280 32424.21906608 0 -101.23599824 0 6704.54233175 0 1994.69843482 0 5439.71058955 0 4636
0.06650000 0.06648880 32878.56616863 0 -343.95267172 0 6681.18425953 0 347.98694126 0 6242.95625014 0 4653
0.06750000 0.06749660 33241.97640676 0 225.32783642 0 9147.95630310 0 574.21402975 0 8563.61107485 0 5220
0.06850000 0.06852730 33164.86554275 0 328.41134802 0 9224.10047115 0 -599.22897388 0 9551.27085133 0 5029
0.06950000 0.06949320 33647.20186561 0 317.06953143 0 11939.36958043 0 -1988.33622650 0 8405.16286215 0 5040
0.07050000 0.07048030 33145.75643650 0 1040.77971964 0 10850.89240754 0 -2619.39759919 0 6805.58454117 0 5475
0.07150000 0.07148790 32436.24656236 0 1825.78517628 0 15272.22252217 0 -3268.85991713 0 3624.62651276 0 5509
0.07250000 0.07249820 30724.74508206 0 1966.29331042 0 14033.84003114 0 -2265.51943288 0 2877.08951720 0 5916
0.07350000 0.07351270 29162.51944347 0 1490.51028693 0 13090.52462179 0 -241.12881916 0 -1499.30047580 0 5721
0.07450000 0.07449140 27842.97945416 0 258.97447626 0 12347.85482799 0 2381.81520534 0 -1312.95296798 0 6028
0.07550000 0.07549160 27888.84130914 0 -323.41263064 0 10151.11693694 0 3623.72726070 0 -2445.94311776 0 6183
0.07650000 0.07648840 28287.99681660 0 -871.16504450 0 9150.27187715 0 4116.98949608 0 -2632.63908575 0 6330
0.07750000 0.07749960 28562.83072697 0 -125.89079193 0 7618.13746057 0 1216.72175707 0 -714.43440323 0 6583
0.07850000 0.07848650 28965.13361663 0 264.91066391 0 7813.05034424 0 765.02407591 0 325.31342468 0 6549
0.07950000 0.07947320 27662.79182294 0 1003.06284018 0 7677.98268506 0 -686.27432501 0 2370.48462941 0 6828
0.08050000 0.08048110 27041.63346355 0 1169.38737685 0 8623.28768958 0 67.29035710 0 859.09258561 0 7147
0.08150000 0.08149960 26041.44036150 0 1497.53569364 0 8462.44521827 0 311.40873972 0 1508.54029070 0 7386
0.08250000 0.08250610 24377.82405332 0 1004.34652249 0 7655.91728767 0 1782.18269210 0 152.01406423 0 7227
0.08350000 0.08350160 23336.37776309 0 887.73601181 0 6410.25085497 0 903.03116526 0 -545.17942891 0 7798
0.08450000 0.08449610 22957.90505298 0 693.26825790 0 5636.23088628 0 554.98802074 0 -1072.72227682 0 7371
0.08550000 0.08548940 21935.90508851 0 472.86495056 0 5541.35979411 0 733.79417598 0 -1591.20403618 0 8256
0.08650000 0.08650700 21929.27310458 0 300.86725747 0 5400.05357377 0 4.93410612 0 -35.60903264 0 8037
0.08750000 0.08749060 21580.36330589 0 -110.57877750 0 4910.73680680 0 144.45585067 0 -843.46808110 0 8155
0.08850000 0.08849210 21709.51838279 0 -244.00305355 0 5174.40875100 0 621.61697794 0 953.75909794 0 8718
0.08950000 0.08949900 22254.46513023 0 -128.69758241 0 5791.63288264 0 782.91694374 0 469.00940736 0 8571
0.09050000 0.09049190 21841.59602888 0 142.31563077 0 4096.58771501 0 104.89539208 0 30.18789160 0 8932
0.09150000 0.09150830 21701.87474030 0 666.09398476 0 5302.54092868 0 -581.34172638 0 -1034.88849459 0 9285
0.09250000 0.09250820 21054.07603867 0 683.73168982 0 4618.72718211 0 -769.04822887 0 -2010.62643690 0 9204
0.09350000 0.09350330 20338.38380663 0 757.17023324 0 5118.08185018 0 -906.60344406 0 -1997.42991294 0 9349
0.09450000 0.09448040 19820.75184046 0 542.83238104 0 5019.61374978 0 -653.68430635 0 -2751.76750220 0 9564
0.09550000 0.09549270 19531.08027113 0 192.86933337 0 4593.86286269 0 216.07902900 0 -3266.84784065 0 10155
0.09650000 0.09649430 19410.69290180 0 194.21034300 0 4776.16373625 0 557.02595071 0 -3269.55683747 0 9913
0.09750000 0.09749140 19243.88164495 0 125.87842721 0 5549.83524476 0 444.77006812 0 -1851.09912173 0 10476
0.09850000 0.09850240 18977.81544215 0 430.29997844 0 5261.04044618 0 614.39598391 0 -1668.23621564 0 10575
0.09950000 0.09950330 18650.93731889 0 611.35201570 0 7007.66896002 0 -258.57543316 0 -23.61761884 0 10882
0.10050000 0.10051200 18527.73978688 0 449.52261525 0 7418.57094749 0 -599.61677633 0 1169.82576222 0 10875
0.10150000 0.10150300 18435.11682485 0 372.24876180 0 8800.64267681 0 -125.41756053 0 3099.48579191 0 11118
0.10250000 0.10250800 18307.19821954 0 268.80330126 0 8610.77684532 0 616.36646999 0 3803.75752281 0 11575
0.10350000 0.10349800 18332.04005765 0 -77.10389481 0 8794.37039371 0 735.52973245 0 3238.07177478 0 11364
0.10450000 0.10450100 18286.29060918 0 241.47840339 0 8237.35118738 0 1344.07832986 0 3030.15345820 0 12093
0.10550000 0.10551000 17740.66942269 0 258.80923869 0 7347.18157469 0 1284.17690211 0 2420.74157882 0 12067
0.10650000 0.10649700 17505.06538337 0 340.38039292 0 6325.30525739 0 929.74569578 0 2496.31247369 0 12054
0.10750000 0.10749900 16699.67275850 0 392.18180774 0 5025.23407515 0 865.21087181 0 949.03914870 0 12807
0.10850000 0.10850100 16470.13867057 0 280.00348564 0 4548.46187439 0 528.29259932 0 517.61398112 0 12736
0.10950000 0.10950300 16057.71919525 0 205.80395017 0 3854.83503973 0 143.51500821 0 -184.90645639 0 12933
0.11050000 0.11050200 15827.84788780 0 134.20887347 0 3562.47695487 0 122.08358352 0 -593.27817339 0 13428
0.11150000 0.11150900 15651.25726482 0 141.01059123 0 4111.54902113 0 -702.14162759 0 -603.82527597 0 13453
0.11250000 0.11250000 15689.13825778 0 280.62059737 0 4246.80777137 0 -500.05496061 0 -1024.12444745 0 13668
0.11350000 0.11349100 15583.47614091 0 205.83767212 0 4801.79241992 0 -466.97597364 0 53.31575530 0 13791
0.11450000 0.11448600 15555.14970107 0 96.52459189 0 5138.86581339 0 55.08570816 0 -131.81686299 0 14205
0.11550000 0.11549300 15549.64178221 0 105.22845257 0 5079.41401167 0 217.81346141 0 -6.73812940 0 14776
0.11650000 0.11649800 15686.55290811 0 -43.24491909 0 5171.13772163 0 920.87682236 0 -207.35178777 0 14553
0.11750000 0.11747300 15510.07469164 0 234.61261393 0 4449.67903577 0 220.76750442 0 -29.84280363 0 14568
0.11850000 0.11849100 15230.07008193 0 354.84486228 0 4707.82057980 0 175.40585840 0 470.78543018 0 16015
0.11950000 0.11950300 14785.05271949 0 658.80554682 0 4652.80883513 0 -142.26617191 0 115.76858594 0 15270
0.12050000 0.12050700 14413.21199331 0 644.26014478 0 4746.87060044 0 -171.78861699 0 1186.22587164 0 15999
0.12150000 0.12150000 14028.78173831 0 361.82418231 0 5076.40151727 0 -120.54249031 0 429.40747077 0 15670
0.12250000 0.12250700 13768.11104785 0 154.59604170 0 5063.91315431 0 158.65953694 0 1486.84583479 0 16887
0.12350000 0.12352200 13828.02371625 0 -94.41168677 0 5359.25001162 0 162.73090063 0 1420.15505400 0 16407
0.12450000 0.12449800 13915.02635291 0 -184.27135963 0 4810.65005269 0 553.86845192 0 1316.19027539 0 16306
0.12550000 0.12549900 14007.19968890 0 -159.66332705 0 4264.37690847 0 618.70452534 0 1035.62588128 0 17523
0.12650000 0.12650100 14106.00500883 0 132.84650660 0 4613.69137058 0 385.70606886 0 878.74349122 0 17154
0.12750000 0.12750600 13944.36445132 0 195.90206094 0 4044.80203709 0 204.06614557 0 926.50276805 0 18007
0.12850000 0.12850300 13662.78615051 0 290.62252839 0 4210.09580609 0 -470.75283229 0 504.31291911 0 17496
0.12950000 0.12949900 13514.18474784 0 182.47510364 0 4222.05585846 0 -420.44529994 0 337.44658307 0 18405
0.13050000 0.13049000 13418.07718409 0 -3.23057426 0 4612.82584048 0 -61.14183355 0 133.67381849 0 18100
0.13150000 0.13148800 13532.84422805 0 15.17802587 0 4439.06786148 0 201.05589930 0 769.16850383 0 19059
0.13250000 0.13249300 13607.48214891 0 -101.44889616 0 4253.76573418 0 721.64190847 0 536.45218768 0 18957
0.13350000 0.13349100 13566.45377374 0 14.59632219 0 4243.86272088 0 646.02717507 0 419.73376675 0 19468
0.13450000 0.13450700 13449.21378662 0 249.58066444 0 3349.99493410 0 787.78077331 0 626.15145645 0 19953
0.13550000 0.13551000 13344.67573482 0 324.66483913 0 3563.29752237 0 491.07255661 0 1284.70521270 0 19956
0.13650000 0.13649900 12765.89462868 0 296.17653392 0 2969.82488573 0 691.17412467 0 1218.95864657 0 19723
0.13750000 0.13749600 12491.39793783 0 510.29182123 0 2902.78564477 0 18.49806447 0 1367.03173865 0 20946
0.13850000 0.13851100 12074.25738920 0 333.20211336 0 2743.53934587 0 113.53169645 0 833.81348618 0 20955
0.13950000 0.13949800 11800.99716993 0 299.58469922 0 3364.82135242 0 -599.82472837 0 1227.56898503 0 20506
0.14050000 0.14048300 11692.07526435 0 282.23250668 0 3310.06814271 0 -645.39095424 0 1321.27104952 0 21447
0.14150000 0.14148400 11617.32493699 0 131.35037599 0 3907.57617296 0 -589.84865085 0 706.90991163 0 21771
0.14250000 0.14249400 11503.45714508 0 92.32587162 0 4176.13780023 0 -219.29947544 0 751.15423697 0 22470
0.14350000 0.14350900 11528.63620272 0 184.14546434 0 4234.28568646 0 -64.10588074 0 874.79577468 0 22519
0.14450000 0.14449900 11420.61354919 0 112.71674927 0 4227.60873993 0 439.15311495 0 321.37919692 0 22218
0.14550000 0.14550500 11189.07862544 0 246.60189200 0 3917.25437324 0 496.61419743 0 690.63007717 0 23559
0.14650000 0.14650700 11011.20656827 0 136.09617873 0 3611.55363596 0 706.22198380 0 412.87022541 0 23044
0.14750000 0.14750500 10788.85525616 0 77.11210049 0 3084.83922401 0 738.05887887 0 798.95735233 0 23649
0.14850000 0.14849900 10839.61803486 0 -4.72789638 0 2379.60079715 0 583.46171310 0 -139.19747426 0 23640
0.14950000 0.14949500 10611.88245105 0 -8.01145907 0 2159.55381844 0 323.25638559 0 135.19467854 0 24457
0.15050000 0.15050000 10593.41406190 0 75.67127388 0 2116.98547412 0 91.98617916 0 -285.19329409 0 24591
0.15150000 0.15149900 10420.85883253 0 295.13902185 0 1558.51622385 0 -169.89007108 0 -174.30989495 0 25020
0.15250000 0.15250500 10214.15450624 0 375.07915766 0 2089.10866031 0 -280.52505184 0 -368.22348478 0 25297
0.15350000 0.15350100 9839.95324340 0 384.85177940 0 2145.17702615 0 -455.98261723 0 -238.25346070 0 25452
0.15450000 0.15450400 9729.18787110 0 270.20163821 0 2756.03894948 0 -271.95405566 0 -76.17822722 0 26061
0.15550000 0.15549900 9631.86631707 0 110.34238662 0 2825.15771082 0 -252.06147606 0 -83.99846034 0 26128
0.15650000 0.15649500 9570.54856733 0 77.60140601 0 3064.52736814 0 -40.89483624 0 114.38710997 0 26331
0.15750000 0.15749700 9685.41677715 0 -60.93489317 0 3356.99785951 0 116.69144337 0 65.78714487 0 27345
0.15850000 0.15849900 9553.35037171 0 131.52460607 0 3127.64362199 0 290.26170350 0 513.68312556 0 26980
0.15950000 0.15949700 9578.94533343 0 61.37249171 0 2982.94272513 0 406.65302150 0 354.80664406 0 27777
0.16050000 0.16050000 9493.35901876 0 56.93704333 0 2458.47644333 0 526.88751797 0 138.77819799 0 28224
0.16150000 0.16150500 9431.81645601 0 -7.72021381 0 2345.95752951 0 452.72620071 0 270.27919870 0 28075
0.16250000 0.16249700 9381.58198789 0 60.57575438 0 2122.79689055 0 27.10963940 0 -153.78671485 0 28590
0.16350000 0.16349900 9329.26799939 0 110.41207865 0 2376.88055967 0 -273.46817131 0 469.77264754 0 29163
0.16450000 0.16449100 9299.96362294 0 188.53718658 0 2475.09012511 0 -429.79414915 0 -81.80147516 0 28996
0.16550000 0.16550500 9101.70102534 0 226.67671451 0 2927.24530076 0 -306.91585162 0 406.73732638 0 30777
0.16650000 0.16650700 9046.90285303 0 243.03972978 0 3220.03053035 0 -137.94976203 0 286.96144845 0 29211
0.16750000 0.16749900 8896.51418690 0 155.00857358 0 3407.47962194 0 114.40172281 0 756.24175549 0 30922
0.16850000 0.16850800 8757.07391458 0 151.89716146 0 3295.70259107 0 112.34974202 0 385.80273845 0 30867
0.16950000 0.16949900 8636.18071597 0 220.41904425 0 3149.84390719 0 152.42996830 0 317.92157275 0 30852
0.17050000 0.17049200 8433.88272476 0 112.58410959 0 2970.28575241 0 210.20916119 0 -18.77469688 0 31257
0.17150000 0.17149500 8375.76856048 0 47.32538771 0 2587.40670721 0 215.62153452 0 45.75675490 0 32608
0.17250000 0.17250900 8291.37375480 0 -16.56073832 0 2391.69573733 0 346.66166854 0 -202.52280422 0 32361
0.17350000 0.17350400 8375.65615398 0 -29.89001436 0 2061.65899122 0 176.88287990 0 -432.00181296 0 32508
0.17450000 0.17449800 8326.70312004 0 7.58784391 0 1851.57122906 0 283.11489777 0 -251.82991865 0 32791
0.17550000 0.17549800 8305.93039749 0 56.81024879 0 1704.59972075 0 197.58815855 0 -449.89468079 0 33633
0.17650000 0.17650100 8242.02729809 0 33.39676017 0 1501.77341896 0 331.65539982 0 -80.35266769 0 33984
0.17750000 0.17750300 8214.43150054 0 30.37527325 0 1601.26441858 0 195.70422549 0 -190.72798941 0 34069
