### header ###
fiducial parameters:
Omega_m = 0.31
Omega_nu = 0
Omega_de = 0.69
Omega_k = 0
H_0 = 100
w_de = -1
zeff = 0
beta = 0
fgrowth = 0
b_1 = 2
gamma = 0.55
Lx = 3500 Ly = 3500 Lz = 3500
nx = 700 ny = 700 nz = 700
xoffset = 857.220397 yoffset = 15.9954215 zoffset = 262.898189
bins = 400 dk = 0.001
kx_ny = 0.628318531 ky_ny = 0.628318531 kz_ny = 0.628318531
############################
A(data) = 3.1124495 (not used)
A(ran) = 3.10962508 (used)
Ngal = 189731
weighted Ngal = 0
Nran = 9360983
weighted Nran = 0
SN(data) = 3456.34702
SN(ran) = 69.8304928
SN(data+ran) = 3526.17751
############################
13 columns: k_central k_mean P_0(k) sigma^{lin}_{P_0(k)} P^img_1(k) sigma^{lin}_{P_1(k)} P_2(k) sigma^{lin}_{P_2(k)} P^img_3(k) sigma^{lin}_{P_3(k)} P_4(k) sigma^{lin}_{P_4(k)} N_modes
### header ###
0.00050000 0 0 0 0 0 0 0 0 0 0 0 0
0.00150000 0.00179520 4449.71275772 0 -8704.81612933 0 -13494.73842208 0 19766.79671696 0 21779.88485637 0 3
0.00250000 0.00253879 10391.79050974 0 -9187.99550100 0 -2073.41671189 0 -15051.11892229 0 -6407.44069228 0 6
0.00350000 0.00331552 18414.77124703 0 -11405.43867071 0 -19062.56994866 0 8849.56198880 0 3818.38160941 0 7
0.00450000 0.00420575 26373.15196457 0 -10331.16968035 0 -10591.62679843 0 -10675.26848052 0 -1436.74625448 0 24
0.00550000 0.00557378 37409.56007178 0 -10174.89091323 0 -19460.03935851 0 -3358.05448068 0 13796.10026817 0 45
0.00650000 0.00659388 39757.95682250 0 -7099.25778217 0 2841.81635521 0 -930.65731256 0 -17525.86058722 0 40
0.00750000 0.00754703 48634.36148524 0 -11735.01455014 0 -24899.83987326 0 3880.99203398 0 -1221.08312956 0 57
0.00850000 0.00846663 54765.68683297 0 -13107.27319138 0 -6316.72864088 0 2795.61728070 0 -1783.36296042 0 75
0.00950000 0.00948925 65943.50232637 0 -12793.54662948 0 -17309.25324764 0 -5872.40819879 0 12351.11461671 0 112
0.01050000 0.01054430 73417.97302995 0 -13458.76833974 0 -6007.76811489 0 -9514.03057546 0 -4015.62130779 0 105
0.01150000 0.01145670 82748.49998222 0 -8005.90618883 0 2293.38500604 0 -13228.22259324 0 9437.17824641 0 144
0.01250000 0.01249090 88935.80377059 0 -4478.36517643 0 6940.52855320 0 -19472.96610685 0 9104.61235388 0 169
0.01350000 0.01339930 87630.76422072 0 1573.36512347 0 15121.82261539 0 -20914.80437611 0 12953.27627636 0 180
0.01450000 0.01448870 94107.51476541 0 3779.80369610 0 30845.02004488 0 -19118.88560882 0 7225.51277118 0 267
0.01550000 0.01550050 92586.54231500 0 4228.08084726 0 22812.67584553 0 -14153.55296142 0 -34646.49571560 0 238
0.01650000 0.01653350 92821.24710226 0 3511.08469973 0 51951.81473548 0 -20997.08593946 0 4556.82491854 0 315
0.01750000 0.01747870 89722.31210223 0 620.63117288 0 48410.89734871 0 -7624.02756155 0 -18039.78313865 0 297
0.01850000 0.01844180 98402.00537718 0 -1068.21927214 0 70896.02063194 0 -164.83065419 0 7440.79371398 0 388
0.01950000 0.01947590 106615.77367933 0 -2772.16928328 0 65122.14797746 0 148.07084395 0 -4334.45112512 0 399
0.02050000 0.02045430 106096.90524159 0 -804.55519640 0 62748.45976260 0 15191.96427595 0 593.99645097 0 462
0.02150000 0.02154770 107151.50309317 0 4519.12377598 0 56392.77102628 0 17564.52842574 0 2932.41600010 0 571
0.02250000 0.02255340 101792.18563765 0 6897.19584463 0 52130.65348861 0 18649.02640827 0 1529.71767668 0 510
0.02350000 0.02348930 94742.61153171 0 11557.97430113 0 49053.52535100 0 15039.42864553 0 16787.34983420 0 555
0.02450000 0.02439640 90827.71769512 0 10952.19315193 0 32877.32969705 0 10391.67810323 0 -11933.41203554 0 592
0.02550000 0.02547300 78098.69240084 0 8331.87381938 0 31623.21029499 0 8066.59446213 0 5107.75169216 0 837
0.02650000 0.02652900 70876.23708665 0 8119.52668642 0 27838.93281989 0 5406.42702274 0 -7750.26006926 0 723
0.02750000 0.02749970 65052.45594293 0 3544.91905843 0 31039.70811554 0 5932.29838588 0 -2777.64348018 0 826
0.02850000 0.02848090 59654.02102286 0 3401.88177788 0 20797.90160851 0 7798.56114545 0 -15644.40046787 0 831
0.02950000 0.02946900 57885.86666288 0 2780.03773879 0 23249.48753294 0 -84.44021792 0 -8573.36795968 0 996
0.03050000 0.03053250 55097.17362303 0 806.97755663 0 18391.50310002 0 2652.17533672 0 -14667.02588681 0 1041
0.03150000 0.03150510 56198.30776863 0 298.02449690 0 19139.11878014 0 1227.83876065 0 -8259.68636039 0 1036
0.03250000 0.03246190 54654.74161025 0 -795.94148574 0 13907.71992993 0 3644.74727757 0 -14594.29887658 0 1059
0.03350000 0.03345080 55079.97542741 0 196.34943884 0 5172.09317695 0 6427.83123271 0 -11194.23808412 0 1302
0.03450000 0.03451200 54622.59334916 0 -848.28132774 0 5913.25672355 0 1752.56357742 0 -12935.51604821 0 1339
0.03550000 0.03553350 54419.47479045 0 178.38013458 0 -3.75908718 0 7162.09301976 0 -10302.74207465 0 1365
0.03650000 0.03647120 53912.52144249 0 296.29905701 0 6221.93623327 0 2065.52577507 0 -6873.73660656 0 1308
0.03750000 0.03744890 54925.52888636 0 -9.00172668 0 2144.10916433 0 -1020.87477532 0 1940.69834871 0 1579
0.03850000 0.03847530 57477.04419579 0 893.46087522 0 13455.17133150 0 -1812.56617102 0 9446.55294912 0 1662
0.03950000 0.03950240 56123.89466079 0 1951.99520269 0 12153.27916384 0 -2512.57769530 0 11598.10342424 0 1683
0.04050000 0.04050350 54925.41647986 0 2253.86287807 0 25782.56817517 0 -2821.18976111 0 13015.09985539 0 1822
0.04150000 0.04152450 53818.88682190 0 2838.93874862 0 27636.15148071 0 -5428.36877296 0 15752.08590187 0 1887
0.04250000 0.04250150 52365.47068238 0 2960.61879278 0 34681.67895239 0 -452.61941453 0 11835.16874815 0 1920
0.04350000 0.04349210 49206.39820094 0 3841.58231252 0 31789.68433232 0 624.60586697 0 14361.95462597 0 2005
0.04450000 0.04448520 46577.09758846 0 2399.17077007 0 30553.54997143 0 7115.50052248 0 8347.57700845 0 2151
0.04550000 0.04548030 44712.72325821 0 897.62328819 0 25976.46940028 0 8883.55371661 0 14182.10421428 0 2274
0.04650000 0.04648670 42671.19627245 0 697.92975576 0 18573.26442234 0 12318.17951006 0 6213.47202327 0 2311
0.04750000 0.04749250 42375.22993870 0 -432.57621021 0 13712.91945277 0 11654.30667789 0 12311.65993264 0 2568
0.04850000 0.04851840 40765.11912800 0 -372.84901255 0 4862.22215825 0 6775.39215331 0 7284.25641190 0 2493
0.04950000 0.04949480 41144.04146414 0 -163.56720505 0 5892.49524165 0 5455.50370383 0 10956.83554068 0 2644
0.05050000 0.05050630 41236.43961315 0 655.18493322 0 3656.85345841 0 -101.08368742 0 10486.14453197 0 2829
0.05150000 0.05149060 39736.26236659 0 535.71929725 0 5172.31798996 0 -3013.64094228 0 10726.97547389 0 2784
0.05250000 0.05249300 40805.81028364 0 851.62766946 0 7321.53040973 0 -1217.89078475 0 11030.48428427 0 3055
0.05350000 0.05348950 39808.42734428 0 963.12593219 0 7753.01402869 0 -706.91215976 0 11085.09136552 0 3009
0.05450000 0.05448610 38567.79672310 0 943.52673358 0 7914.26116342 0 1345.44968925 0 7226.80544602 0 3336
0.05550000 0.05550870 38004.07808894 0 714.14551850 0 7782.82423443 0 1123.92568903 0 7309.66028255 0 3349
0.05650000 0.05647670 36713.42657201 0 808.03642593 0 6938.60640192 0 2894.99587381 0 3120.44960553 0 3324
0.05750000 0.05747970 35688.61644487 0 695.83674659 0 4731.38098374 0 488.43662402 0 2872.72814472 0 3639
0.05850000 0.05849280 35100.50559862 0 432.99099022 0 3422.58705652 0 -48.50599325 0 156.58900907 0 3846
0.05950000 0.05951020 34642.11186181 0 1147.44562662 0 3963.94803638 0 -2393.40431625 0 -660.04426653 0 3787
0.06050000 0.06049470 34348.39365821 0 1263.60651127 0 3551.87702123 0 -4382.87584847 0 -3661.24855284 0 3930
0.06150000 0.06148310 33544.79953745 0 1736.32083711 0 7979.55810352 0 -3967.74737633 0 -2764.44695622 0 4083
0.06250000 0.06249100 32158.49008280 0 1257.84005745 0 9530.47564748 0 -4399.16355138 0 -5005.13579164 0 4303
0.06350000 0.06350600 32623.74061656 0 1110.04573351 0 12637.30158432 0 -1545.69064137 0 -2060.74849851 0 4470
0.06450000 0.06451750 31162.90564756 0 274.73274452 0 12110.11506503 0 -26.82457650 0 -5579.11713992 0 4479
0.06550000 0.06550280 31340.62033561 0 854.97963151 0 14088.91921972 0 -644.55127763 0 -3730.55840525 0 4636
0.06650000 0.06648880 30799.60781593 0 1046.73614046 0 12627.97184421 0 2016.82003546 0 -5073.14172856 0 4653
0.06750000 0.06749660 28960.74976285 0 1041.16752209 0 12585.14496492 0 1438.03892932 0 -2291.22680110 0 5220
0.06850000 0.06852730 28494.71238354 0 282.19204034 0 10750.54711847 0 3328.19931234 0 -2101.57454197 0 5029
0.06950000 0.06949320 28470.54498447 0 -348.57932356 0 9932.31767046 0 4016.84653872 0 -1921.64544572 0 5040
0.07050000 0.07048030 28290.69457277 0 -461.16568128 0 8075.18231929 0 3397.40799889 0 581.65646460 0 5475
0.07150000 0.07148790 29192.64438743 0 -419.67643943 0 7547.77098699 0 2693.59713467 0 2205.24706366 0 5509
0.07250000 0.07249820 28879.59226457 0 40.61584329 0 7424.31492001 0 984.27634061 0 4002.13252691 0 5916
0.07350000 0.07351270 29221.64526631 0 1202.89575668 0 7617.50798412 0 875.76584284 0 6267.06744595 0 5721
0.07450000 0.07449140 27658.63278217 0 1244.81214325 0 10206.56706699 0 -927.53690791 0 6611.17748678 0 6028
0.07550000 0.07549160 26900.00126433 0 1547.47790483 0 9616.38794101 0 -646.82413721 0 10023.58051374 0 6183
0.07650000 0.07648840 25361.71821180 0 1075.24243071 0 10865.60641935 0 187.57611094 0 6497.80428351 0 6330
0.07750000 0.07749960 24884.32777525 0 659.16974391 0 10914.45828743 0 -215.88681387 0 7552.66067006 0 6583
0.07850000 0.07848650 24098.49388265 0 429.71321647 0 10265.26574511 0 1490.52152758 0 3744.17083329 0 6549
0.07950000 0.07947320 24026.66612448 0 504.88731636 0 9760.97643137 0 -687.16795675 0 5422.09648985 0 6828
0.08050000 0.08048110 23422.36874118 0 344.46861759 0 8563.24013338 0 341.54267620 0 2194.07385683 0 7147
0.08150000 0.08149960 23147.31001779 0 394.78626652 0 9728.98553939 0 -1128.58381469 0 3050.39787017 0 7386
0.08250000 0.08250610 22969.03329720 0 20.87793504 0 8483.56640100 0 537.85277276 0 1723.87743676 0 7227
0.08350000 0.08350160 23024.78692483 0 -11.11033787 0 8750.86907538 0 -224.73208193 0 1444.77207911 0 7798
0.08450000 0.08449610 23722.15689618 0 -439.42176651 0 9638.22852538 0 1.60202878 0 3204.82192991 0 7371
0.08550000 0.08548940 23387.18550439 0 -57.64936337 0 8506.40740328 0 -525.95117177 0 -1290.35926001 0 8256
0.08650000 0.08650700 24310.60496194 0 129.95316310 0 10271.50430627 0 -340.00270705 0 1584.80810591 0 8037
0.08750000 0.08749060 23001.63118432 0 713.40813181 0 8939.46471334 0 -701.51889554 0 -2345.92380756 0 8155
0.08850000 0.08849210 23596.26160799 0 731.98780341 0 10488.37018082 0 588.09061307 0 560.07216706 0 8718
0.08950000 0.08949900 21995.70535040 0 553.13443743 0 8653.76109371 0 425.54518318 0 -1950.51143679 0 8571
0.09050000 0.09049190 22104.73966249 0 -131.55158363 0 8743.55141175 0 2697.92478520 0 -571.02168494 0 8932
0.09150000 0.09150830 21733.34856234 0 -91.02274299 0 7104.78818233 0 2214.02601188 0 -867.29713658 0 9285
0.09250000 0.09250820 22153.63649317 0 -136.67619630 0 6674.76584797 0 2033.86086196 0 -322.35376134 0 9204
0.09350000 0.09350330 21520.67545051 0 73.22811844 0 5800.05213003 0 1728.92448893 0 455.39473119 0 9349
0.09450000 0.09448040 21705.47174853 0 675.12135136 0 5478.42339067 0 76.15349779 0 1049.03485353 0 9564
0.09550000 0.09549270 20651.54833599 0 807.84758300 0 6084.57548134 0 206.00178562 0 2571.87212790 0 10155
0.09650000 0.09649430 20153.69991512 0 1073.76203701 0 6541.32808314 0 -541.33962262 0 2059.10736351 0 9913
0.09750000 0.09749140 19020.75472794 0 996.65004893 0 6043.56958747 0 336.83284354 0 2286.31463673 0 10476
0.09850000 0.09850240 18452.76464650 0 534.96954585 0 6387.52225919 0 -156.79920924 0 2287.83212458 0 10575
0.09950000 0.09950330 18279.77103175 0 72.53344622 0 6201.79298716 0 11.31528865 0 2761.36701792 0 10882
0.10050000 0.10051200 18207.04402152 0 -18.94645403 0 6741.25429704 0 643.87459046 0 3391.20315968 0 10875
0.10150000 0.10150300 18492.89376961 0 -139.59426923 0 6635.13131349 0 -211.87052937 0 3203.83275265 0 11118
0.10250000 0.10250800 18311.02004078 0 283.67130998 0 6699.69761129 0 213.98714390 0 3509.15130780 0 11575
0.10350000 0.10349800 18278.87177969 0 445.41190928 0 6644.76455117 0 -330.56842889 0 3081.91665482 0 11364
0.10450000 0.10450100 18104.97891289 0 206.38171962 0 7148.35694457 0 -199.79807048 0 3610.46329284 0 12093
0.10550000 0.10551000 17999.99123506 0 69.77296722 0 6603.53384428 0 279.42571620 0 1755.99197589 0 12067
0.10650000 0.10649700 17911.07768778 0 -85.72030322 0 6963.85290347 0 258.15166062 0 2508.73339275 0 12054
0.10750000 0.10749900 17643.21298086 0 273.21638073 0 5254.82436633 0 738.99972133 0 315.74088651 0 12807
0.10850000 0.10850100 17356.01435468 0 193.21554542 0 5540.03339732 0 967.14221670 0 448.62223913 0 12736
0.10950000 0.10950300 17017.55836117 0 147.63470670 0 3713.42765354 0 875.49831535 0 -158.07389903 0 12933
0.11050000 0.11050200 16866.93364137 0 201.54599167 0 3763.74080621 0 1212.20301548 0 -161.79567849 0 13428
0.11150000 0.11150900 16611.09643074 0 337.86136309 0 3122.46168201 0 325.46067720 0 -345.02727793 0 13453
0.11250000 0.11250000 16105.49196086 0 306.81693390 0 2594.51079847 0 252.42904534 0 -485.75797695 0 13668
0.11350000 0.11349100 16001.51594160 0 345.61403990 0 3286.96860545 0 -48.42337447 0 585.24223218 0 13791
0.11450000 0.11448600 15910.91629670 0 299.70947044 0 3009.70671452 0 -247.71584048 0 932.11859715 0 14205
0.11550000 0.11549300 15650.24560625 0 312.33384528 0 4143.42750660 0 72.85582809 0 1389.31070840 0 14776
0.11650000 0.11649800 15453.19699894 0 658.32669510 0 4136.22224948 0 -242.26974521 0 1489.99321700 0 14553
0.11750000 0.11747300 14827.54237925 0 443.07048173 0 4518.03343286 0 -201.99224551 0 1536.16981020 0 14568
0.11850000 0.11849100 14500.43944298 0 701.07264170 0 5156.90705781 0 -270.47028976 0 1985.99817115 0 16015
0.11950000 0.11950300 13958.07804521 0 342.24521687 0 4740.76692710 0 -226.30577304 0 610.40105665 0 15270
0.12050000 0.12050700 13715.95442846 0 235.74005120 0 4761.12374557 0 85.34857490 0 767.66450476 0 15999
0.12150000 0.12150000 13509.35126803 0 -43.71601476 0 4741.02546206 0 -317.95529471 0 -598.98617583 0 15670
0.12250000 0.12250700 13664.92187414 0 -234.68343003 0 4162.89631367 0 327.12541757 0 -415.26223589 0 16887
0.12350000 0.12352200 13770.35917800 0 -148.27205160 0 3745.07008535 0 723.52359341 0 -907.57014002 0 16407
0.12450000 0.12449800 13954.25622396 0 -94.50386011 0 3284.36077449 0 331.55423396 0 -1142.98308828 0 16306
0.12550000 0.12549900 13972.12885862 0 31.05128599 0 3125.75519267 0 604.46824119 0 -750.69561842 0 17523
0.12650000 0.12650100 14147.70782304 0 163.85384164 0 3095.29302919 0 258.00328403 0 356.07908573 0 17154
0.12750000 0.12750600 13624.90515754 0 315.24067756 0 2725.38569493 0 438.26173135 0 445.74238441 0 18007
0.12850000 0.12850300 13644.68870283 0 265.78855873 0 3340.00199560 0 -7.41053388 0 1155.95479922 0 17496
0.12950000 0.12949900 13212.14846270 0 333.29428669 0 3250.94231986 0 313.76140792 0 780.76773132 0 18405
0.13050000 0.13049000 12963.39286202 0 277.92958558 0 3238.30782844 0 185.05146079 0 847.53494853 0 18100
0.13150000 0.13148800 12752.06862828 0 226.18324994 0 3232.10298924 0 -396.97594528 0 959.49745014 0 19059
0.13250000 0.13249300 12700.92366745 0 -24.52530139 0 3044.30543747 0 111.12597238 0 298.82483123 0 18957
0.13350000 0.13349100 12629.99516134 0 -19.38877363 0 3305.93158324 0 -18.10464169 0 113.72840784 0 19468
0.13450000 0.13450700 12799.27936135 0 -3.48925536 0 2581.99995421 0 -212.38984743 0 -714.46475298 0 19953
0.13550000 0.13551000 12744.64979880 0 158.39875384 0 3176.31563966 0 -364.15436921 0 -537.90672789 0 19956
0.13650000 0.13649900 12693.84205749 0 325.45730500 0 3439.99882451 0 -466.50386631 0 -593.70194592 0 19723
0.13750000 0.13749600 12529.50374381 0 374.09672478 0 3483.53386479 0 -130.75462150 0 -448.22319603 0 20946
0.13850000 0.13851100 12235.44832068 0 431.64323620 0 4114.13437080 0 273.88295132 0 323.12262185 0 20955
0.13950000 0.13949800 11953.53280035 0 342.38572501 0 4235.13997592 0 -60.92342771 0 746.19598593 0 20506
0.14050000 0.14048300 11703.65313460 0 313.16340530 0 4338.26170572 0 673.55328058 0 1569.31848920 0 21447
0.14150000 0.14148400 11529.76026779 0 150.81581086 0 4351.35706382 0 515.35685845 0 1866.11663111 0 21771
0.14250000 0.14249400 11415.10563034 0 -12.38742192 0 4007.15709779 0 651.10794920 0 2008.34458480 0 22470
0.14350000 0.14350900 11469.17316035 0 50.33203697 0 4154.17356870 0 158.10874505 0 1960.56057855 0 22519
0.14450000 0.14449900 11464.56449355 0 141.78844426 0 4249.82026577 0 1.96296608 0 1985.95320855 0 22218
0.14550000 0.14550500 11253.35266632 0 239.03580999 0 4472.68864781 0 -371.80700423 0 2476.03433977 0 23559
0.14650000 0.14650700 11211.08781957 0 120.41771909 0 4166.57200646 0 -218.29793346 0 1572.61199987 0 23044
0.14750000 0.14750500 11263.91887800 0 35.10904849 0 4950.98957707 0 -15.14452873 0 1893.53257824 0 23649
0.14850000 0.14849900 11071.16419927 0 127.38467441 0 4204.47548072 0 29.49029682 0 1131.67499364 0 23640
0.14950000 0.14949500 10982.16072678 0 214.57840213 0 4411.10112246 0 252.92138584 0 1280.13026785 0 24457
0.15050000 0.15050000 10782.93143323 0 123.24024648 0 3919.85096356 0 320.21691363 0 667.87787603 0 24591
0.15150000 0.15149900 10558.47811943 0 107.87124196 0 3440.88683591 0 637.23473807 0 540.82592488 0 25020
0.15250000 0.15250500 10363.52027315 0 32.00404354 0 3106.19646040 0 616.02700234 0 63.20100836 0 25297
0.15350000 0.15350100 10303.93358363 0 91.56903861 0 2770.97777430 0 363.96777441 0 -237.54642377 0 25452
0.15450000 0.15450400 10240.30025984 0 181.29595938 0 2681.42350993 0 -138.97603344 0 -124.22380342 0 26061
0.15550000 0.15549900 10122.44203692 0 258.17639005 0 3041.77629106 0 -349.30884179 0 183.40470546 0 26128
0.15650000 0.15649500 10011.09215078 0 188.43489666 0 3235.69999747 0 -508.61471615 0 615.79432087 0 26331
0.15750000 0.15749700 9911.24145034 0 179.73800519 0 3641.48748886 0 -109.97875157 0 423.76691223 0 27345
0.15850000 0.15849900 10014.18332973 0 58.93304568 0 3919.78351966 0 -20.35344628 0 691.01001117 0 26980
0.15950000 0.15949700 9936.18445431 0 91.84319808 0 4086.67346106 0 -111.56784236 0 427.30884128 0 27777
0.16050000 0.16050000 9850.58689899 0 95.91849600 0 3838.77214984 0 96.55921310 0 363.75982237 0 28224
0.16150000 0.16150500 9757.04220361 0 132.63630643 0 3646.02871176 0 182.43688543 0 -202.31260405 0 28075
0.16250000 0.16249700 9573.71843084 0 93.29874995 0 3110.51287028 0 229.02713458 0 -397.12769407 0 28590
0.16350000 0.16349900 9485.78282017 0 43.88035307 0 3145.22399974 0 407.96592950 0 -547.36236328 0 29163
0.16450000 0.16449100 9350.97369595 0 67.90004999 0 2524.52650702 0 706.89979504 0 -722.32421597 0 28996
0.16550000 0.16550500 9181.03753820 0 198.90106655 0 2405.22948081 0 365.80562080 0 -640.24386027 0 30777
0.16650000 0.16650700 9017.39614486 0 165.66920673 0 2252.32290892 0 304.15627187 0 -678.95666139 0 29211
0.16750000 0.16749900 8951.21119336 0 144.13099587 0 2329.20895992 0 119.25655987 0 -180.05274341 0 30922
0.16850000 0.16850800 8805.80213550 0 161.16507799 0 2261.30418885 0 -329.40614561 0 -163.06474796 0 30867
0.16950000 0.16949900 8808.33128191 0 73.54903902 0 2504.12472595 0 -217.42228676 0 93.00188436 0 30852
0.17050000 0.17049200 8729.66920810 0 93.23658915 0 2587.35050396 0 -334.14745208 0 -402.67383114 0 31257
0.17150000 0.17149500 8692.79987370 0 143.87470903 0 2575.97496542 0 -79.91439471 0 -316.51986361 0 32608
0.17250000 0.17250900 8647.54501386 0 88.37770546 0 2531.88913325 0 -17.37422421 0 -526.19621795 0 32361
0.17350000 0.17350400 8600.89631333 0 176.33321208 0 2554.22430625 0 52.45123685 0 -705.38567939 0 32508
0.17450000 0.17449800 8298.37668020 0 152.58059302 0 2211.63175327 0 226.10906165 0 -709.41095641 0 32791
0.17550000 0.17549800 8286.03444570 0 196.84402747 0 2293.14895238 0 189.60729653 0 -373.89214494 0 33633
0.17650000 0.17650100 8119.68405553 0 176.35119712 0 2307.44706011 0 351.72445763 0 -148.15514883 0 33984
0.17750000 0.17750300 8011.94241827 0 94.71248659 0 2211.31701505 0 339.65649501 0 146.30718585 0 34069
