### header ###
fiducial parameters:
Omega_m = 0.31
Omega_nu = 0
Omega_de = 0.69
Omega_k = 0
H_0 = 100
w_de = -1
zeff = 0
beta = 0
fgrowth = 0
b_1 = 2
gamma = 0.55
Lx = 3500 Ly = 3500 Lz = 3500
nx = 700 ny = 700 nz = 700
xoffset = 857.220397 yoffset = 15.9954215 zoffset = 262.898189
bins = 400 dk = 0.001
kx_ny = 0.628318531 ky_ny = 0.628318531 kz_ny = 0.628318531
############################
A(data) = 3.1102628 (not used)
A(ran) = 3.11221927 (used)
Ngal = 189931
weighted Ngal = 0
Nran = 9360983
weighted Nran = 0
SN(data) = 3441.15357
SN(ran) = 69.8887486
SN(data+ran) = 3511.04232
############################
13 columns: k_central k_mean P_0(k) sigma^{lin}_{P_0(k)} P^img_1(k) sigma^{lin}_{P_1(k)} P_2(k) sigma^{lin}_{P_2(k)} P^img_3(k) sigma^{lin}_{P_3(k)} P_4(k) sigma^{lin}_{P_4(k)} N_modes
### header ###
0.00050000 0 0 0 0 0 0 0 0 0 0 0 0
0.00150000 0.00179520 13396.04550866 0 -18677.35284811 0 -18806.84514453 0 30152.48355335 0 -15027.85077528 0 3
0.00250000 0.00253879 26756.90778053 0 -22477.25482772 0 -10267.26658094 0 -15512.21041528 0 21426.36639088 0 6
0.00350000 0.00331552 35595.31904380 0 -15413.85472138 0 -19682.49183647 0 -11333.83572555 0 5007.23779333 0 7
0.00450000 0.00420575 43956.90190306 0 -9420.30602966 0 -25259.65310316 0 -11935.54775918 0 6830.40389799 0 24
0.00550000 0.00557378 50523.12802757 0 -3991.76864694 0 -23091.66879668 0 -11162.47200516 0 10152.46581503 0 45
0.00650000 0.00659388 47945.19718893 0 -288.64979419 0 -18223.79259111 0 -6990.14478553 0 1459.77834783 0 40
0.00750000 0.00754703 53796.06830091 0 -354.08949055 0 -760.27714910 0 -3306.69594749 0 28037.89233783 0 57
0.00850000 0.00846663 52555.66249275 0 3010.34743162 0 8639.30561687 0 -2742.15674583 0 4137.39127716 0 75
0.00950000 0.00948925 56422.67115722 0 2773.90034349 0 28914.88790787 0 4802.66919067 0 33160.25687595 0 112
0.01050000 0.01054430 56144.01542560 0 117.30630696 0 30341.77611166 0 16787.12502118 0 23168.33003466 0 105
0.01150000 0.01145670 60717.61139503 0 -434.11393123 0 41139.88242337 0 21049.01774584 0 22889.33708352 0 144
0.01250000 0.01249090 64519.31187876 0 -2316.66439371 0 36687.34826232 0 21247.64004426 0 19628.64911947 0 169
0.01350000 0.01339930 65232.86838716 0 -1375.86689012 0 41352.78034821 0 18244.25057544 0 22792.44267422 0 180
0.01450000 0.01448870 67888.24730934 0 -110.43433514 0 25899.58334928 0 15117.32635510 0 17855.66127967 0 267
0.01550000 0.01550050 69585.81038274 0 1267.81051465 0 18879.79696777 0 15969.25527400 0 2192.87110720 0 238
0.01650000 0.01653350 65563.56833167 0 -31.21169007 0 11912.61683169 0 6238.42626789 0 3412.81893104 0 315
0.01750000 0.01747870 65776.12903699 0 256.30369764 0 12779.27100305 0 -1829.88801380 0 -4626.30338070 0 297
0.01850000 0.01844180 62810.28334162 0 1122.61840135 0 1674.95812477 0 6967.40494910 0 -7375.59793974 0 388
0.01950000 0.01947590 60836.76229278 0 -279.40773116 0 1571.47669414 0 -2086.72564235 0 -20123.68737766 0 399
0.02050000 0.02045430 62124.94086655 0 -1888.11458459 0 1604.36683818 0 -4092.69844985 0 -17164.36125972 0 462
0.02150000 0.02154770 62718.22241213 0 -4869.48361862 0 -3830.44282765 0 -142.56742135 0 -15650.13319974 0 571
0.02250000 0.02255340 68494.00597724 0 -6774.80763947 0 -6177.28836857 0 -9375.07365112 0 -12719.13352164 0 510
0.02350000 0.02348930 75072.03478501 0 -8568.75929289 0 -11559.32317921 0 504.45567538 0 -13842.18693617 0 555
0.02450000 0.02439640 80328.94991237 0 -4270.07591839 0 -5545.59751944 0 -10420.57781626 0 -25516.16475284 0 592
0.02550000 0.02547300 82570.89770067 0 -11.78941930 0 -11044.60254159 0 -8641.28397140 0 -19475.32664350 0 837
0.02650000 0.02652900 79028.18180978 0 6654.34158559 0 -899.37008531 0 -9475.62127191 0 -30541.41006864 0 723
0.02750000 0.02749970 72208.59141780 0 8720.54179971 0 830.75490512 0 -12592.45138790 0 -17459.99037394 0 826
0.02850000 0.02848090 66984.49899057 0 6304.77982916 0 8219.90569745 0 -3084.76053946 0 -20664.58749084 0 831
0.02950000 0.02946900 61815.26093891 0 3707.76236557 0 7344.55126242 0 1122.54983338 0 -13397.61919976 0 996
0.03050000 0.03053250 62061.09397040 0 -340.21515535 0 12834.12537862 0 -194.48011862 0 -11775.93051880 0 1041
0.03150000 0.03150510 60127.81445117 0 -206.61552515 0 14800.56481750 0 682.26703303 0 -13823.52745596 0 1036
0.03250000 0.03246190 63250.57963075 0 2112.90511790 0 21824.28542676 0 -4181.91549470 0 6118.80326281 0 1059
0.03350000 0.03345080 60595.98755412 0 1702.47523776 0 20953.24740161 0 -6314.01964406 0 -5753.57203926 0 1302
0.03450000 0.03451200 60956.25041005 0 3935.85765020 0 30505.32757979 0 -2050.84548522 0 5405.30295766 0 1339
0.03550000 0.03553350 58389.33540912 0 3039.51692026 0 31794.96743816 0 -1335.98506133 0 -5474.50040356 0 1365
0.03650000 0.03647120 55035.46245051 0 3358.76264167 0 33411.59782629 0 2584.09071525 0 124.33396180 0 1308
0.03750000 0.03744890 52948.18601628 0 2678.12999926 0 28023.72911791 0 8152.02340768 0 -5024.02008487 0 1579
0.03850000 0.03847530 50019.88409434 0 1741.82875597 0 23386.06143932 0 9019.70047826 0 -1476.59436132 0 1662
0.03950000 0.03950240 48159.66880487 0 36.68510013 0 18466.59064690 0 11440.95912702 0 822.90443465 0 1683
0.04050000 0.04050350 48164.05265866 0 -597.49341741 0 14101.05912251 0 10980.48586982 0 4473.49797467 0 1822
0.04150000 0.04152450 48191.36743993 0 45.67537259 0 11569.43976487 0 7425.37154118 0 13938.51931294 0 1887
0.04250000 0.04250150 48771.60983067 0 599.59429503 0 11885.41445692 0 4540.41356847 0 19871.89680129 0 1920
0.04350000 0.04349210 47240.18357508 0 1267.04615040 0 9600.79715845 0 1375.97929663 0 19516.57983168 0 2005
0.04450000 0.04448520 46605.87365433 0 1822.08700219 0 14117.13325305 0 -630.27789933 0 23493.18484079 0 2151
0.04550000 0.04548030 46124.32417701 0 1201.53563794 0 13527.33630920 0 -127.52630661 0 20281.73092694 0 2274
0.04650000 0.04648670 43861.24396534 0 668.68607882 0 12939.00064994 0 -1520.27553007 0 12525.00748351 0 2311
0.04750000 0.04749250 43068.44086929 0 2042.47120042 0 13453.26042088 0 -3592.74802729 0 5617.94234754 0 2568
0.04850000 0.04851840 40068.08637617 0 1001.23511037 0 8328.43418026 0 -1947.81368062 0 -580.48968505 0 2493
0.04950000 0.04949480 38755.96521634 0 1657.74868851 0 10282.47518138 0 -2227.49231146 0 -4270.41313791 0 2644
0.05050000 0.05050630 38976.95640971 0 840.55000817 0 10114.37124970 0 -2948.02926396 0 -5307.85775648 0 2829
0.05150000 0.05149060 37499.37287112 0 -121.78683034 0 10815.72041141 0 1708.85992738 0 -6810.33933643 0 2784
0.05250000 0.05249300 38525.98150238 0 1087.60152619 0 10815.32698863 0 569.95382312 0 -47.67171216 0 3055
0.05350000 0.05348950 36660.25829405 0 944.82840093 0 9730.50302723 0 3684.16823969 0 263.44151086 0 3009
0.05450000 0.05448610 37063.79765530 0 1887.49634880 0 12845.25362284 0 4140.85339758 0 4933.56656843 0 3336
0.05550000 0.05550870 35167.49987698 0 1354.56585699 0 11082.86571668 0 1864.25068308 0 4674.23351542 0 3349
0.05650000 0.05647670 34223.95965462 0 1071.38463938 0 12325.03630701 0 2679.95098468 0 8271.20802739 0 3324
0.05750000 0.05747970 33598.97947398 0 -546.28775707 0 9198.46054684 0 2121.47049376 0 8689.88854516 0 3639
0.05850000 0.05849280 33973.06833030 0 -704.23014049 0 9249.78535807 0 1640.17955141 0 5200.70063306 0 3846
0.05950000 0.05951020 35147.37911217 0 -150.41789182 0 9528.38488644 0 -1785.00409543 0 3926.07828407 0 3787
0.06050000 0.06049470 34922.34128454 0 94.22936342 0 8908.45175798 0 -282.10885953 0 3230.67542659 0 3930
0.06150000 0.06148310 34303.31864878 0 1507.07900611 0 11086.26039320 0 -2162.31901852 0 4457.40136282 0 4083
0.06250000 0.06249100 33896.85671835 0 770.11946288 0 12283.22108629 0 -914.07735273 0 3317.00362421 0 4303
0.06350000 0.06350600 33763.65500719 0 851.56584588 0 14845.75223343 0 -349.09302130 0 5992.36842339 0 4470
0.06450000 0.06451750 33548.50895219 0 109.55531625 0 13746.75381147 0 251.14761115 0 5648.84289640 0 4479
0.06550000 0.06550280 34376.94491107 0 -511.22704338 0 14556.41788362 0 164.74859744 0 5750.07619688 0 4636
0.06650000 0.06648880 34258.24363935 0 83.41282244 0 15873.82214929 0 1063.68928989 0 4567.61594324 0 4653
0.06750000 0.06749660 33567.61805844 0 1111.25410346 0 14022.48697390 0 992.93388980 0 3765.41566317 0 5220
0.06850000 0.06852730 32286.29628161 0 774.89561538 0 12970.92409801 0 1597.58872579 0 4685.19314988 0 5029
0.06950000 0.06949320 31802.72348716 0 778.87592980 0 12486.78927103 0 1731.08269387 0 3068.70889021 0 5040
0.07050000 0.07048030 31392.10251596 0 -24.30172485 0 10880.29794986 0 3721.54340337 0 3349.66895523 0 5475
0.07150000 0.07148790 31143.90894782 0 147.08279075 0 9664.34055703 0 1262.72974052 0 1158.70875865 0 5509
0.07250000 0.07249820 30275.23145933 0 973.72923803 0 9296.38909600 0 -729.07647487 0 -218.88132323 0 5916
0.07350000 0.07351270 29009.75900003 0 1500.50322543 0 8275.87289744 0 -437.05673359 0 -606.47132515 0 5721
0.07450000 0.07449140 27716.40972693 0 1110.28628343 0 8093.36969217 0 -149.83000579 0 -1867.36434334 0 6028
0.07550000 0.07549160 27053.54855332 0 500.77099007 0 8046.78843554 0 648.84857841 0 153.65744736 0 6183
0.07650000 0.07648840 26573.57276711 0 -204.56747859 0 6281.41051629 0 1974.11680333 0 -2114.43384640 0 6330
0.07750000 0.07749960 27143.47375917 0 -250.37313032 0 6806.07912981 0 2387.59289982 0 -463.64761696 0 6583
0.07850000 0.07848650 27047.92822795 0 89.41544234 0 5481.30099725 0 716.25651271 0 -781.62202077 0 6549
0.07950000 0.07947320 27026.23377204 0 472.13992859 0 8145.34646115 0 -158.21553123 0 2614.42923157 0 6828
0.08050000 0.08048110 26691.48719327 0 929.77042521 0 8144.32356193 0 -1428.37196969 0 3316.92493965 0 7147
0.08150000 0.08149960 26498.37281372 0 742.58099266 0 10585.80414136 0 -1019.55062667 0 5050.93020272 0 7386
0.08250000 0.08250610 26221.06596018 0 428.65322311 0 10402.27803687 0 302.26671848 0 5484.59450792 0 7227
0.08350000 0.08350160 25712.65132762 0 443.98209851 0 11701.51741096 0 934.89278975 0 5311.94935334 0 7798
0.08450000 0.08449610 25285.95622587 0 494.05357719 0 9240.93896595 0 1184.20255451 0 2690.51719637 0 7371
0.08550000 0.08548940 24147.72793285 0 536.22849873 0 9465.56088951 0 1747.66265370 0 1595.72277777 0 8256
0.08650000 0.08650700 23767.90634465 0 527.95537979 0 6197.93744396 0 766.01550130 0 163.32215886 0 8037
0.08750000 0.08749060 23010.96092443 0 118.65181286 0 5784.71988244 0 1505.12313288 0 -1411.83697246 0 8155
0.08850000 0.08849210 22522.66705667 0 177.91814384 0 4706.43797976 0 -247.33590649 0 -1763.68058099 0 8718
0.08950000 0.08949900 22275.14792758 0 311.73921485 0 4724.41178028 0 137.24497323 0 -1806.14775946 0 8571
0.09050000 0.09049190 22399.01989863 0 302.06213864 0 4564.67089275 0 579.45329705 0 -405.49860666 0 8932
0.09150000 0.09150830 22200.73481974 0 182.45824267 0 5145.54275992 0 337.65903137 0 -543.53267358 0 9285
0.09250000 0.09250820 22279.53178136 0 235.95924388 0 4403.65981167 0 857.65490638 0 1601.98382023 0 9204
0.09350000 0.09350330 21755.15542476 0 251.72200840 0 6067.41100767 0 1055.76575519 0 1556.07700264 0 9349
0.09450000 0.09448040 21739.64332675 0 542.47268021 0 4760.96637646 0 658.64030926 0 2186.10423546 0 9564
0.09550000 0.09549270 20800.37455167 0 705.85216639 0 4502.29652184 0 936.27876199 0 2028.04944554 0 10155
0.09650000 0.09649430 19900.67286716 0 1087.19011838 0 3484.60172661 0 107.56167444 0 1435.13884143 0 9913
0.09750000 0.09749140 19025.92542728 0 790.56733063 0 4276.05594458 0 93.57774290 0 1840.79144501 0 10476
0.09850000 0.09850240 18406.45316549 0 429.84023582 0 3131.46544324 0 823.82841614 0 1317.13449005 0 10575
0.09950000 0.09950330 18232.67270519 0 36.15263051 0 3182.80149513 0 359.96610275 0 478.42120422 0 10882
0.10050000 0.10051200 18112.95977490 0 51.51747599 0 3028.14138172 0 -464.94478806 0 -179.02422387 0 10875
0.10150000 0.10150300 18022.58494303 0 463.79824168 0 4237.23073695 0 -1070.93164116 0 -1065.04154018 0 11118
0.10250000 0.10250800 17579.25367820 0 621.44049973 0 3804.06102038 0 -1893.22908067 0 -201.76293623 0 11575
0.10350000 0.10349800 17157.61686928 0 675.34166811 0 5340.83782572 0 -1544.63402020 0 -1145.05136801 0 11364
0.10450000 0.10450100 16772.17495571 0 456.30859610 0 4826.55557348 0 -763.20983488 0 -1061.78737179 0 12093
0.10550000 0.10551000 16612.22049581 0 203.88854328 0 5205.78140719 0 676.59387660 0 -2714.74079869 0 12067
0.10650000 0.10649700 16449.23106021 0 134.66636795 0 3973.34522039 0 375.57149816 0 -2495.70547855 0 12054
0.10750000 0.10749900 16023.77243004 0 202.29574308 0 4185.14156146 0 671.53221158 0 -3595.62563388 0 12807
0.10850000 0.10850100 15958.57665580 0 -25.29034008 0 3116.86383794 0 600.14733505 0 -2873.77352523 0 12736
0.10950000 0.10950300 15980.04629870 0 93.15509443 0 3710.30275263 0 435.39648948 0 -3145.31392494 0 12933
0.11050000 0.11050200 16084.69675700 0 -145.20447801 0 2676.55630816 0 841.14014233 0 -2468.23332816 0 13428
0.11150000 0.11150900 15939.13033004 0 -51.81074457 0 3328.88499203 0 695.68050155 0 -1028.78706937 0 13453
0.11250000 0.11250000 16311.42068225 0 -190.81791461 0 2458.20666771 0 1306.20857754 0 -930.37629629 0 13668
0.11350000 0.11349100 16156.86173470 0 -67.06475724 0 2247.10724698 0 960.44840919 0 282.81364833 0 13791
0.11450000 0.11448600 16378.19014759 0 36.79829349 0 2109.06081535 0 617.37475636 0 -265.20629302 0 14205
0.11550000 0.11549300 16129.77176644 0 308.29507947 0 2118.95258800 0 -149.13758170 0 537.61784316 0 14776
0.11650000 0.11649800 15817.73130214 0 621.30673598 0 2390.33561860 0 -825.09411341 0 -32.81235874 0 14553
0.11750000 0.11747300 15390.47416786 0 723.27292690 0 2680.63666437 0 -1200.26544440 0 284.87518367 0 14568
0.11850000 0.11849100 14712.21330275 0 544.45665507 0 3471.84358803 0 -782.54825039 0 856.31502082 0 16015
0.11950000 0.11950300 14328.34508029 0 514.62846429 0 3819.06728911 0 -290.13580821 0 165.84680902 0 15270
0.12050000 0.12050700 14208.40733699 0 274.32808109 0 4440.51790542 0 44.09122768 0 1291.16858687 0 15999
0.12150000 0.12150000 13747.31584400 0 274.15947133 0 4920.28011927 0 162.27902647 0 1060.45085842 0 15670
0.12250000 0.12250700 14066.43791825 0 227.06002070 0 5337.40942725 0 235.63326501 0 2426.75532696 0 16887
0.12350000 0.12352200 13726.85785967 0 101.98676130 0 5604.28495690 0 222.02420917 0 2365.40385527 0 16407
0.12450000 0.12449800 13714.15592435 0 -36.99792744 0 5482.45878428 0 419.68655602 0 3360.92084661 0 16306
0.12550000 0.12549900 13710.78372913 0 -123.07500892 0 5356.56349609 0 785.50229341 0 2789.72717972 0 17523
0.12650000 0.12650100 13817.68231758 0 -60.84463075 0 4494.29317852 0 720.94049187 0 2286.24719283 0 17154
0.12750000 0.12750600 13716.74127401 0 92.48324073 0 4229.00258062 0 420.91965540 0 1900.86148251 0 18007
0.12850000 0.12850300 13364.57168661 0 324.48498872 0 3626.34633233 0 88.96188208 0 1103.63181820 0 17496
0.12950000 0.12949900 13184.04683587 0 321.58265270 0 3675.11951585 0 -330.90564841 0 1292.57366821 0 18405
0.13050000 0.13049000 12748.35921354 0 490.13508634 0 3616.06113691 0 -165.62087194 0 624.59237819 0 18100
0.13150000 0.13148800 12590.20325775 0 339.61265647 0 3930.77687607 0 -60.59047964 0 1237.22470401 0 19059
0.13250000 0.13249300 12379.44105655 0 217.12103732 0 3975.96429201 0 -41.44832588 0 728.63584136 0 18957
0.13350000 0.13349100 12483.64188882 0 135.42286375 0 4228.36186352 0 70.28756421 0 1164.62134094 0 19468
0.13450000 0.13450700 12286.81809452 0 21.73559669 0 3873.93290533 0 335.04333195 0 905.47038646 0 19953
0.13550000 0.13551000 12267.37176876 0 93.34337533 0 3742.45101373 0 283.83429941 0 1280.04034264 0 19956
0.13650000 0.13649900 12211.50573463 0 51.12214231 0 3197.53798824 0 626.93717794 0 821.99956227 0 19723
0.13750000 0.13749600 11986.80512651 0 104.76960920 0 2700.27408120 0 532.84169067 0 449.64738648 0 20946
0.13850000 0.13851100 11769.18612836 0 65.76005491 0 2089.27727007 0 485.25664393 0 256.44420578 0 20955
0.13950000 0.13949800 11579.66875704 0 129.11348649 0 1618.29400444 0 255.14591062 0 -199.17983469 0 20506
0.14050000 0.14048300 11555.72617098 0 123.82925658 0 1665.48225621 0 113.88015662 0 -226.31026930 0 21447
0.14150000 0.14148400 11376.88741785 0 256.60944334 0 1523.93998220 0 -134.58768340 0 -484.81825855 0 21771
0.14250000 0.14249400 11121.42114869 0 296.10684188 0 2129.54128099 0 -189.23410693 0 6.52052164 0 22470
0.14350000 0.14350900 11001.61829320 0 319.88194224 0 2599.50164740 0 -184.13871995 0 312.24954040 0 22519
0.14450000 0.14449900 10717.31975491 0 114.75580331 0 2628.63741409 0 282.40786084 0 693.95056540 0 22218
0.14550000 0.14550500 10745.75860126 0 21.98266620 0 3022.27376204 0 307.48687668 0 876.27279619 0 23559
0.14650000 0.14650700 10728.16698286 0 -34.46653290 0 2697.26158681 0 504.95138807 0 1108.37200061 0 23044
0.14750000 0.14750500 10782.35816004 0 -4.88272511 0 3042.56313661 0 70.53688184 0 1289.01038193 0 23649
0.14850000 0.14849900 10822.57720835 0 77.44201359 0 2428.14916766 0 -60.24584128 0 1255.61440860 0 23640
0.14950000 0.14949500 10799.87109388 0 121.67779603 0 2716.78659713 0 -382.68345788 0 1228.05233301 0 24457
0.15050000 0.15050000 10709.50750265 0 168.38157576 0 2654.31106036 0 -540.90123724 0 933.29099702 0 24591
0.15150000 0.15149900 10467.60869892 0 254.69965678 0 2912.35143854 0 -306.77421942 0 568.74432910 0 25020
0.15250000 0.15250500 10292.53556378 0 355.92284068 0 3075.34087414 0 -271.41000816 0 567.14703263 0 25297
0.15350000 0.15350100 9987.21700863 0 253.14395072 0 2773.97902804 0 141.30060001 0 230.97401529 0 25452
0.15450000 0.15450400 9836.15390346 0 171.11417795 0 3102.00369768 0 204.69899420 0 440.64025305 0 26061
0.15550000 0.15549900 9713.19242511 0 135.79492929 0 2726.85822018 0 316.91328638 0 -264.36436828 0 26128
0.15650000 0.15649500 9558.56603365 0 66.88265869 0 2694.42894282 0 244.23236282 0 22.38069764 0 26331
0.15750000 0.15749700 9547.19049511 0 117.91217804 0 2463.69210527 0 -187.45021566 0 -502.97190948 0 27345
0.15850000 0.15849900 9395.99250213 0 43.00110937 0 2311.34756591 0 -73.14718575 0 -455.58919445 0 26980
0.15950000 0.15949700 9539.55809327 0 12.00951124 0 2301.56819977 0 21.52505930 0 -457.50909760 0 27777
0.16050000 0.16050000 9469.75365223 0 -44.72002968 0 2183.05801912 0 317.64168055 0 -512.13191576 0 28224
0.16150000 0.16150500 9481.00554361 0 27.71247550 0 2383.66991271 0 217.38519262 0 -702.50470060 0 28075
0.16250000 0.16249700 9495.12380093 0 119.46788410 0 2242.91448426 0 359.97397120 0 -607.73252616 0 28590
0.16350000 0.16349900 9337.95702241 0 247.62591528 0 2279.86250321 0 56.82171426 0 -361.55777889 0 29163
0.16450000 0.16449100 9064.10104865 0 245.78132449 0 2528.06731200 0 -37.55557612 0 140.99935057 0 28996
0.16550000 0.16550500 9038.97819426 0 217.63923132 0 2482.72252695 0 -57.56753143 0 223.69456987 0 30777
0.16650000 0.16650700 8928.40391302 0 23.69742746 0 2388.75068684 0 156.73626160 0 145.26180533 0 29211
0.16750000 0.16749900 8866.63653726 0 32.86732552 0 2337.36967235 0 257.16360742 0 528.02956809 0 30922
0.16850000 0.16850800 8878.55162703 0 17.29227987 0 2235.45069217 0 99.96164567 0 129.07302015 0 30867
0.16950000 0.16949900 8847.52743101 0 53.36982283 0 1988.62848342 0 341.13126838 0 149.84799083 0 30852
0.17050000 0.17049200 8712.85319461 0 122.14203491 0 1975.53312532 0 163.13331593 0 221.19352508 0 31257
0.17150000 0.17149500 8651.35559446 0 184.06565572 0 1781.12607093 0 17.35859970 0 178.29470563 0 32608
0.17250000 0.17250900 8496.63927780 0 230.37826080 0 2077.51954940 0 58.40406066 0 516.09649327 0 32361
0.17350000 0.17350400 8316.36172137 0 197.39706749 0 1883.39351128 0 -51.54692650 0 281.32651023 0 32508
0.17450000 0.17449800 8210.29494107 0 112.72574179 0 1927.43438084 0 100.44105942 0 448.06695098 0 32791
0.17550000 0.17549800 8123.52835808 0 48.32164658 0 1884.06795032 0 88.96424262 0 500.25729233 0 33633
0.17650000 0.17650100 8183.65459884 0 -6.92820880 0 1782.74472463 0 174.47850471 0 783.46099123 0 33984
0.17750000 0.17750300 8213.48728588 0 52.03949181 0 1839.31891976 0 145.76201429 0 937.12518299 0 34069
