### header ###
fiducial parameters:
Omega_m = 0.31
Omega_nu = 0
Omega_de = 0.69
Omega_k = 0
H_0 = 100
w_de = -1
zeff = 0
beta = 0
fgrowth = 0
b_1 = 2
gamma = 0.55
Lx = 3500 Ly = 3500 Lz = 3500
nx = 700 ny = 700 nz = 700
xoffset = 857.220397 yoffset = 15.9954215 zoffset = 262.898189
bins = 400 dk = 0.001
kx_ny = 0.628318531 ky_ny = 0.628318531 kz_ny = 0.628318531
############################
A(data) = 3.08034905 (not used)
A(ran) = 3.07980989 (used)
Ngal = 188134
weighted Ngal = 0
Nran = 9360983
weighted Nran = 0
SN(data) = 3452.81528
SN(ran) = 69.1609557
SN(data+ran) = 3521.97623
############################
13 columns: k_central k_mean P_0(k) sigma^{lin}_{P_0(k)} P^img_1(k) sigma^{lin}_{P_1(k)} P_2(k) sigma^{lin}_{P_2(k)} P^img_3(k) sigma^{lin}_{P_3(k)} P_4(k) sigma^{lin}_{P_4(k)} N_modes
### header ###
0.00050000 0 0 0 0 0 0 0 0 0 0 0 0
0.00150000 0.00179520 3229.74245258 0 -11403.86497961 0 -14578.33715254 0 18096.77323785 0 20886.92756230 0 3
0.00250000 0.00253879 8197.71665291 0 -12473.63770967 0 -1877.43596639 0 -27116.72101043 0 -17937.83043652 0 6
0.00350000 0.00331552 21111.74057692 0 -18632.39024518 0 -33032.11345761 0 36561.22816111 0 13938.29449992 0 7
0.00450000 0.00420575 32962.19661007 0 -20744.50851754 0 -21321.82833908 0 -5805.79610256 0 -3165.18739544 0 24
0.00550000 0.00557378 57310.90737799 0 -16393.25261957 0 -40532.88728390 0 -7548.16440976 0 5449.46747438 0 45
0.00650000 0.00659388 57510.09170894 0 -8145.79608718 0 -11728.71978573 0 -14477.28370247 0 -3199.04423544 0 40
0.00750000 0.00754703 65193.52610960 0 2497.78499893 0 -45894.11565004 0 -15464.21283665 0 2650.95010579 0 57
0.00850000 0.00846663 56985.94016535 0 1935.92107214 0 -22350.90991350 0 -11593.49475744 0 -4838.40321935 0 75
0.00950000 0.00948925 54222.65099616 0 2804.48615413 0 -23664.94198396 0 -11584.72704987 0 13152.46060732 0 112
0.01050000 0.01054430 52232.15656471 0 -4234.10583605 0 -21313.73507055 0 -6120.47811977 0 -15325.05358060 0 105
0.01150000 0.01145670 59217.09692895 0 -8972.57967040 0 -19677.77076317 0 -1464.76919676 0 1450.44860772 0 144
0.01250000 0.01249090 66574.55245841 0 -9708.03296642 0 -17658.94989188 0 -5978.78971731 0 -9592.95118424 0 169
0.01350000 0.01339930 72264.56985844 0 -7244.11604814 0 -19848.85346729 0 -7799.30302840 0 5760.18154189 0 180
0.01450000 0.01448870 80160.22774490 0 -1303.51082137 0 -2605.04328821 0 -14564.06152612 0 6152.25543939 0 267
0.01550000 0.01550050 84452.35782002 0 1906.84150870 0 -12091.90521085 0 -13460.79165687 0 -18059.56668393 0 238
0.01650000 0.01653350 81818.33613423 0 2338.96584476 0 22242.55004046 0 -1827.03288851 0 22726.23524141 0 315
0.01750000 0.01747870 78812.92334829 0 5492.14822521 0 14228.86532132 0 -13859.49753830 0 11579.33153752 0 297
0.01850000 0.01844180 82581.57631887 0 5087.38363304 0 43461.63883186 0 11374.86410072 0 30224.64853104 0 388
0.01950000 0.01947590 75688.02244507 0 6421.31165528 0 45853.53690090 0 -432.84598583 0 10270.27907534 0 399
0.02050000 0.02045430 69851.42695951 0 5107.88657997 0 48102.34148614 0 458.14869062 0 15373.27597224 0 462
0.02150000 0.02154770 73084.91254879 0 1613.26943356 0 62935.16697124 0 3628.97664460 0 20003.41241484 0 571
0.02250000 0.02255340 67723.45936963 0 490.76681092 0 53647.80411777 0 2673.54381376 0 13047.13570997 0 510
0.02350000 0.02348930 73705.73368866 0 -2949.43434530 0 47127.32744174 0 15148.23814461 0 25481.76836161 0 555
0.02450000 0.02439640 71043.04834350 0 -1369.11125903 0 37703.95271443 0 13309.49249803 0 -6531.54871700 0 592
0.02550000 0.02547300 75412.51409565 0 804.36972566 0 30510.27346611 0 16440.57575915 0 12302.77981856 0 837
0.02650000 0.02652900 69605.36911501 0 2241.64429073 0 20638.39677464 0 13053.09325486 0 -5454.70561763 0 723
0.02750000 0.02749970 66674.14462389 0 3547.16718858 0 22752.87558364 0 6784.04745437 0 18778.29389167 0 826
0.02850000 0.02848090 65188.91744280 0 2392.38141703 0 13786.54571505 0 4760.35938132 0 974.71279497 0 831
0.02950000 0.02946900 62294.89950560 0 2684.55965148 0 18115.54512457 0 -1520.25304876 0 9740.41728118 0 996
0.03050000 0.03053250 60663.54386501 0 4252.84400082 0 20104.35345841 0 906.94403577 0 9239.10673988 0 1041
0.03150000 0.03150510 57419.82928357 0 2191.22997220 0 21553.61055715 0 2725.53182339 0 7447.41445726 0 1036
0.03250000 0.03246190 56589.14519455 0 2803.04735084 0 17094.33200566 0 5253.05958416 0 16914.93122000 0 1059
0.03350000 0.03345080 52376.26170708 0 2248.46736572 0 15167.79687688 0 5541.83190144 0 2681.06380910 0 1302
0.03450000 0.03451200 50221.20414894 0 1314.90884121 0 14631.50543050 0 6677.01397811 0 10019.56760143 0 1339
0.03550000 0.03553350 49372.75983176 0 538.10456334 0 10584.44402262 0 2957.65126099 0 2406.20741743 0 1365
0.03650000 0.03647120 50189.16829435 0 -1394.04302236 0 8316.90127261 0 -1141.88150451 0 3909.63321205 0 1308
0.03750000 0.03744890 49990.99562197 0 -902.68158102 0 10040.04806706 0 -240.22394677 0 -542.24674313 0 1579
0.03850000 0.03847530 51663.60445074 0 -1053.22761626 0 10377.78465893 0 -6929.16425531 0 -557.88248830 0 1662
0.03950000 0.03950240 50746.81697712 0 214.00512894 0 11916.66346595 0 -3256.24790701 0 -9839.15515720 0 1683
0.04050000 0.04050350 50958.36602388 0 719.15997279 0 12343.24616119 0 -4915.46912076 0 -10928.83507971 0 1822
0.04150000 0.04152450 50481.87483939 0 1159.77662047 0 14286.19264005 0 -3048.56564410 0 -14119.60619621 0 1887
0.04250000 0.04250150 48710.46069069 0 987.94866120 0 10851.71297505 0 799.59806942 0 -16827.70377032 0 1920
0.04350000 0.04349210 47097.76453032 0 1350.89016420 0 11658.57812517 0 383.07575659 0 -17061.39689902 0 2005
0.04450000 0.04448520 45890.06901578 0 1753.06940670 0 7512.46410304 0 317.81029031 0 -19895.27735481 0 2151
0.04550000 0.04548030 43397.11749666 0 2430.47598236 0 9219.30071329 0 -801.31451679 0 -13669.53054094 0 2274
0.04650000 0.04648670 42498.20265770 0 1862.47466027 0 9423.73442814 0 2375.35183117 0 -9444.99049867 0 2311
0.04750000 0.04749250 41007.35515125 0 708.39480159 0 9139.57077766 0 2230.08890177 0 -6005.80100101 0 2568
0.04850000 0.04851840 42409.96354946 0 212.54384435 0 13077.82268646 0 2233.35993114 0 -3284.67551271 0 2493
0.04950000 0.04949480 42261.24974029 0 641.06779997 0 12875.71578632 0 2470.12175748 0 -427.75397105 0 2644
0.05050000 0.05050630 40331.34241629 0 2011.88538978 0 14022.37456739 0 -1130.47224402 0 3468.29154240 0 2829
0.05150000 0.05149060 39277.30659724 0 1971.18299349 0 15812.78541582 0 -221.32616476 0 7296.77849682 0 2784
0.05250000 0.05249300 38368.27517263 0 1019.22015154 0 15295.26585617 0 364.08130498 0 1746.97697401 0 3055
0.05350000 0.05348950 37897.62912652 0 19.43744565 0 14288.44077019 0 634.32678173 0 775.24744775 0 3009
0.05450000 0.05448610 37648.98593235 0 -558.58165678 0 11623.05766886 0 2425.99096271 0 -744.07937140 0 3336
0.05550000 0.05550870 38171.90100436 0 -863.21453224 0 10153.73600856 0 3383.51455458 0 -1630.18661291 0 3349
0.05650000 0.05647670 37717.10427578 0 -227.42758998 0 6586.58294298 0 2670.37395026 0 -4487.58251003 0 3324
0.05750000 0.05747970 38719.88272749 0 441.27422575 0 7217.20593029 0 2475.46106658 0 -3579.02319275 0 3639
0.05850000 0.05849280 37196.99936646 0 1437.76915370 0 6720.93120052 0 -881.87626058 0 -3529.78914255 0 3846
0.05950000 0.05951020 36123.18000213 0 1602.39972431 0 6576.52256058 0 -736.53689476 0 1629.90559664 0 3787
0.06050000 0.06049470 34972.92421283 0 1420.59343938 0 9826.98153246 0 -31.00373803 0 -1612.06668393 0 3930
0.06150000 0.06148310 34277.80237162 0 982.24065876 0 8227.79663426 0 1540.34009162 0 3264.93693002 0 4083
0.06250000 0.06249100 33714.19614397 0 758.25383197 0 8701.98348535 0 2083.81431381 0 2304.77178523 0 4303
0.06350000 0.06350600 32051.92871387 0 820.95305768 0 7098.40349272 0 1217.94698800 0 2545.24302632 0 4470
0.06450000 0.06451750 32155.34270060 0 651.22822417 0 7436.26373174 0 1881.57252586 0 2571.80468400 0 4479
0.06550000 0.06550280 30545.23188989 0 1139.61089306 0 7434.67879998 0 686.52274340 0 2869.44587470 0 4636
0.06650000 0.06648880 30189.24048124 0 1005.90222855 0 7797.11110150 0 -970.20979028 0 4245.94224127 0 4653
0.06750000 0.06749660 28783.03507479 0 733.97402639 0 8325.84883059 0 144.80318678 0 4161.37882582 0 5220
0.06850000 0.06852730 29052.81069233 0 -50.49266586 0 9261.72292915 0 -200.51859619 0 5482.06536150 0 5029
0.06950000 0.06949320 29255.02999898 0 -1050.69060139 0 8371.04748718 0 2611.46169978 0 5135.57230272 0 5040
0.07050000 0.07048030 30343.46220927 0 -300.02420866 0 8107.89261291 0 1341.25692652 0 4910.01740515 0 5475
0.07150000 0.07148790 30620.20703026 0 297.71200681 0 7030.11653953 0 -812.52369370 0 2820.07693669 0 5509
0.07250000 0.07249820 29319.10170815 0 1322.21526419 0 8535.93659275 0 -1400.14669570 0 3848.68640378 0 5916
0.07350000 0.07351270 28833.39319007 0 1410.94896106 0 9255.76538426 0 -2995.59969786 0 3642.61155393 0 5721
0.07450000 0.07449140 27467.09209371 0 1216.22716844 0 10502.21866252 0 -1598.97132583 0 1076.22486359 0 6028
0.07550000 0.07549160 27333.66556954 0 411.17850748 0 10914.43580613 0 -931.25868737 0 2419.17912837 0 6183
0.07650000 0.07648840 26485.44606538 0 394.77727400 0 12390.79411379 0 620.09274571 0 -183.00116610 0 6330
0.07750000 0.07749960 27265.43481960 0 215.47540606 0 12128.32491922 0 -36.22457067 0 1917.66625536 0 6583
0.07850000 0.07848650 26401.59081092 0 142.91250933 0 12067.85021828 0 1655.79281528 0 1405.75578042 0 6549
0.07950000 0.07947320 26722.17416977 0 517.95906910 0 12026.25981058 0 1453.35993626 0 3316.72260794 0 6828
0.08050000 0.08048110 26115.74106283 0 351.68286723 0 10540.36943110 0 2887.12741830 0 2194.92814629 0 7147
0.08150000 0.08149960 25503.57522402 0 499.83689199 0 9987.99261353 0 1270.00244154 0 2708.95186357 0 7386
0.08250000 0.08250610 25330.69401578 0 734.18422656 0 9857.52238049 0 997.09855090 0 2850.32552781 0 7227
0.08350000 0.08350160 23816.12873629 0 1117.38700250 0 7811.55533769 0 -324.78286596 0 910.89624857 0 7798
0.08450000 0.08449610 23500.94088979 0 1015.47701484 0 7452.10180862 0 -664.90022765 0 2716.14588003 0 7371
0.08550000 0.08548940 21946.35889369 0 549.93310010 0 7121.14332915 0 -167.26762727 0 -557.50030617 0 8256
0.08650000 0.08650700 22286.27617180 0 186.67910701 0 7122.14374706 0 1095.70715943 0 933.28537670 0 8037
0.08750000 0.08749060 21863.62770431 0 -295.36046267 0 5137.80919222 0 1553.90755705 0 -2066.99830032 0 8155
0.08850000 0.08849210 21515.50475118 0 474.42065662 0 6001.74312610 0 1580.00834805 0 -225.09403089 0 8718
0.08950000 0.08949900 20834.77094291 0 854.73008906 0 4854.24129623 0 965.49208917 0 -1428.36072904 0 8571
0.09050000 0.09049190 20421.45221553 0 1134.75493194 0 5750.61574812 0 -62.47126532 0 -128.48963038 0 8932
0.09150000 0.09150830 19212.18300989 0 770.09248532 0 5651.41700542 0 77.65738445 0 943.77740009 0 9285
0.09250000 0.09250820 18778.96833072 0 381.91459737 0 6667.35825914 0 -25.27651408 0 1925.74828323 0 9204
0.09350000 0.09350330 18826.74109632 0 -87.78925740 0 7054.16029144 0 61.28065559 0 2704.61297238 0 9349
0.09450000 0.09448040 19032.33259819 0 -301.02350251 0 7633.50343011 0 -268.01645570 0 1598.55542176 0 9564
0.09550000 0.09549270 19647.64581921 0 16.02186152 0 8062.70519698 0 -535.07633203 0 2723.89068839 0 10155
0.09650000 0.09649430 19365.73029887 0 259.98838295 0 7515.24054377 0 -330.47400743 0 1095.50145553 0 9913
0.09750000 0.09749140 19149.12295929 0 554.53389845 0 8350.25228333 0 -408.67071830 0 1463.19550565 0 10476
0.09850000 0.09850240 18277.86012113 0 490.87696929 0 7454.66467698 0 124.78920816 0 280.39128809 0 10575
0.09950000 0.09950330 17961.77302257 0 688.63261354 0 7698.78912956 0 543.03920901 0 1176.14300794 0 10882
0.10050000 0.10051200 17359.83617593 0 350.81733712 0 7222.79253371 0 804.61252371 0 515.15340268 0 10875
0.10150000 0.10150300 17458.52908935 0 265.84363792 0 7168.26413701 0 1121.12002261 0 1380.43059432 0 11118
0.10250000 0.10250800 16948.99039171 0 64.40083542 0 6394.34533418 0 702.25853035 0 2028.91497564 0 11575
0.10350000 0.10349800 16913.46993540 0 248.74885629 0 6061.10500261 0 539.37925313 0 2202.06595950 0 11364
0.10450000 0.10450100 16845.91362451 0 310.45328441 0 6627.04928561 0 -93.94430052 0 2955.49305605 0 12093
0.10550000 0.10551000 16576.58763299 0 463.83983209 0 6096.43436786 0 519.54512492 0 2613.67610797 0 12067
0.10650000 0.10649700 15972.62746922 0 293.23373155 0 6352.28281915 0 -133.16911328 0 2380.56749311 0 12054
0.10750000 0.10749900 16053.67256099 0 87.61884913 0 5677.01196713 0 170.32283614 0 1273.08237984 0 12807
0.10850000 0.10850100 15914.51330494 0 -26.83536752 0 5642.71674175 0 259.60395270 0 227.67038804 0 12736
0.10950000 0.10950300 15772.43147970 0 163.70771318 0 5130.85122941 0 215.81150151 0 -99.43771894 0 12933
0.11050000 0.11050200 15582.46448234 0 96.43522872 0 4645.26635849 0 584.58015785 0 -637.45055856 0 13428
0.11150000 0.11150900 15408.79642855 0 281.59178959 0 4368.35292773 0 423.73881061 0 569.63234051 0 13453
0.11250000 0.11250000 15217.93017914 0 380.06888252 0 4062.71963435 0 612.32995231 0 27.63772517 0 13668
0.11350000 0.11349100 14951.30194380 0 167.27774385 0 3845.77507524 0 736.57848517 0 1514.22805997 0 13791
0.11450000 0.11448600 14634.42799969 0 -0.07383489 0 3793.01146071 0 364.66132256 0 942.53081192 0 14205
0.11550000 0.11549300 15085.74012654 0 -88.89410096 0 3720.59918870 0 -5.79337518 0 2012.55982883 0 14776
0.11650000 0.11649800 15144.41632336 0 -141.20280635 0 4113.94327973 0 -290.51237001 0 1981.82788973 0 14553
0.11750000 0.11747300 15030.09890542 0 128.84933120 0 4740.49715148 0 -191.53169594 0 1789.62400288 0 14568
0.11850000 0.11849100 15174.20404779 0 342.26095378 0 4765.81109693 0 -369.16657537 0 2013.89746627 0 16015
0.11950000 0.11950300 14779.43239412 0 551.41461787 0 4924.52908525 0 69.51285856 0 1012.82422127 0 15270
0.12050000 0.12050700 14321.15106382 0 638.96130202 0 5113.34953623 0 -97.46813211 0 1548.36591624 0 15999
0.12150000 0.12150000 13802.84465861 0 340.45570528 0 4776.81569399 0 568.18004843 0 877.46093297 0 15670
0.12250000 0.12250700 13518.90582115 0 88.42873802 0 4629.01237753 0 717.35472429 0 1238.06775281 0 16887
0.12350000 0.12352200 13324.89218953 0 45.40514734 0 3648.61406142 0 652.28034907 0 526.12652592 0 16407
0.12450000 0.12449800 13431.11633894 0 92.62622181 0 3956.57416950 0 675.94753919 0 814.76395539 0 16306
0.12550000 0.12549900 13206.30332432 0 159.19009565 0 3189.99551160 0 349.36616911 0 510.61892417 0 17523
0.12650000 0.12650100 13036.23227876 0 161.76532873 0 3634.78806102 0 115.92595505 0 620.18491904 0 17154
0.12750000 0.12750600 13183.48480334 0 59.83668160 0 3400.61158435 0 55.20070002 0 190.89659917 0 18007
0.12850000 0.12850300 13006.66936734 0 -136.91674623 0 3518.48104791 0 54.02312945 0 290.23697407 0 17496
0.12950000 0.12949900 13270.03781396 0 99.58733200 0 3299.78294729 0 -411.30552683 0 240.55217377 0 18405
0.13050000 0.13049000 13216.86953601 0 81.42862277 0 3403.73648525 0 19.45340737 0 173.27800321 0 18100
0.13150000 0.13148800 12973.73426070 0 172.98687036 0 3066.03361534 0 -74.54462345 0 -189.13631326 0 19059
0.13250000 0.13249300 13029.15066880 0 273.58619814 0 3461.56963326 0 117.01180191 0 37.48925629 0 18957
0.13350000 0.13349100 12661.58138990 0 259.08800683 0 3026.50024672 0 189.75342499 0 -161.48880873 0 19468
0.13450000 0.13450700 12427.43863517 0 373.84268608 0 3634.28223174 0 -34.17292710 0 -198.66950915 0 19953
0.13550000 0.13551000 12127.87529319 0 266.38880948 0 3494.38109274 0 -192.69397922 0 45.42032222 0 19956
0.13650000 0.13649900 11981.52202067 0 292.30188161 0 3944.94009599 0 -242.94081205 0 291.42398679 0 19723
0.13750000 0.13749600 11748.95295705 0 174.02775462 0 4229.26111558 0 -197.58703448 0 515.27704983 0 20946
0.13850000 0.13851100 11769.74816090 0 99.12680254 0 4712.67654092 0 -66.94718003 0 1092.24616307 0 20955
0.13950000 0.13949800 11804.81899118 0 10.36209271 0 4373.24261080 0 589.22929099 0 650.54704073 0 20506
0.14050000 0.14048300 11722.20020831 0 -15.63315982 0 4605.37328904 0 365.52572860 0 1035.36734631 0 21447
0.14150000 0.14148400 11679.37332902 0 153.07293352 0 4108.96367146 0 527.43943392 0 325.07624695 0 21771
0.14250000 0.14249400 11454.33550139 0 164.50917158 0 4091.21468396 0 489.50560990 0 1130.38231881 0 22470
0.14350000 0.14350900 11352.94483179 0 191.89476895 0 3677.08662972 0 -13.20248150 0 295.60326073 0 22519
0.14450000 0.14449900 11201.18480627 0 113.69018962 0 3755.19791165 0 156.27202272 0 666.26484265 0 22218
0.14550000 0.14550500 11004.70947215 0 101.32356291 0 3648.33304515 0 -84.43336112 0 -56.31296241 0 23559
0.14650000 0.14650700 10980.12616900 0 97.38832349 0 3710.80858192 0 -147.22667108 0 18.25369272 0 23044
0.14750000 0.14750500 11014.65744804 0 222.08041243 0 4073.42073385 0 -384.06268572 0 111.16183005 0 23649
0.14850000 0.14849900 10826.09553203 0 282.67314019 0 4034.21334410 0 33.16048169 0 196.32358534 0 23640
0.14950000 0.14949500 10605.13806061 0 218.61379574 0 4011.85568980 0 189.05313245 0 443.37959963 0 24457
0.15050000 0.15050000 10517.91061094 0 112.21226887 0 4043.49812160 0 526.44576040 0 567.46177085 0 24591
0.15150000 0.15149900 10309.71127810 0 119.68033240 0 3475.04717349 0 765.05105347 0 456.69639855 0 25020
0.15250000 0.15250500 10104.15349818 0 69.43327475 0 3274.83994332 0 612.75372484 0 574.77718635 0 25297
0.15350000 0.15350100 10070.71256226 0 121.33158399 0 2495.18840861 0 271.60784361 0 176.18371143 0 25452
0.15450000 0.15450400 9942.77147564 0 111.61494069 0 2378.49921338 0 306.74274560 0 42.90724994 0 26061
0.15550000 0.15549900 9771.70001216 0 97.29019261 0 1910.59588605 0 76.10179080 0 -380.99398807 0 26128
0.15650000 0.15649500 9669.01666774 0 57.53268542 0 1913.93435932 0 -34.87344445 0 -672.84736772 0 26331
0.15750000 0.15749700 9687.94592357 0 28.25258877 0 1634.55922605 0 92.07779046 0 -748.77908747 0 27345
0.15850000 0.15849900 9517.07679181 0 130.53880100 0 1603.15284790 0 -97.73386110 0 -1023.11391295 0 26980
0.15950000 0.15949700 9521.35947973 0 249.06584264 0 1693.51643913 0 -111.85773874 0 -769.23257554 0 27777
0.16050000 0.16050000 9172.05625827 0 365.86969251 0 1875.08667039 0 -207.06739931 0 -871.07399523 0 28224
0.16150000 0.16150500 9014.61970413 0 224.89282324 0 2007.28796364 0 -163.45704667 0 -798.34473687 0 28075
0.16250000 0.16249700 8889.39885499 0 120.90893552 0 2200.11008628 0 -43.34822067 0 -724.70498580 0 28590
0.16350000 0.16349900 8854.06948974 0 71.57428150 0 2413.89602253 0 -59.96527464 0 -584.09568580 0 29163
0.16450000 0.16449100 8738.92026365 0 71.15893945 0 2435.97266056 0 -52.16504988 0 -655.63793145 0 28996
0.16550000 0.16550500 8780.42074615 0 151.59478795 0 2705.00639516 0 -32.97220079 0 -524.83609922 0 30777
0.16650000 0.16650700 8719.64254765 0 131.14579614 0 2608.89883141 0 3.04840827 0 -391.84796042 0 29211
0.16750000 0.16749900 8561.61023902 0 84.57060947 0 2749.80038832 0 270.24660081 0 -40.18656283 0 30922
0.16850000 0.16850800 8543.31045963 0 63.22461373 0 2750.01396069 0 83.94360597 0 -109.14424565 0 30867
0.16950000 0.16949900 8478.29453580 0 125.14778491 0 2534.42952032 0 258.99246130 0 114.10047338 0 30852
0.17050000 0.17049200 8384.41262090 0 180.27755642 0 2699.92562103 0 14.79651818 0 24.39187487 0 31257
0.17150000 0.17149500 8244.24170628 0 168.11292420 0 2663.96677934 0 -80.95010827 0 556.82024681 0 32608
0.17250000 0.17250900 8067.10029141 0 85.94208126 0 2549.34586384 0 330.58641393 0 509.80510106 0 32361
0.17350000 0.17350400 8037.51489869 0 85.07149286 0 2556.48367705 0 139.16262824 0 347.23718986 0 32508
0.17450000 0.17449800 8036.01989214 0 5.87690446 0 2328.54576153 0 314.35491428 0 346.55600643 0 32791
0.17550000 0.17549800 7960.26914686 0 15.86156984 0 2287.64103352 0 296.30917359 0 192.82999109 0 33633
0.17650000 0.17650100 7977.74835875 0 9.26679246 0 1913.23743897 0 152.32880245 0 76.81287436 0 33984
0.17750000 0.17750300 8005.89494818 0 -44.69496303 0 1824.30141039 0 92.82394486 0 -73.60175767 0 34069
0.17850000 0.17849800 8004.23133187 0 40.88887869 0 1535.46164920 0 -45.72370738 0 -158.91807190 0 34536
