### header ###
fiducial parameters:
Omega_m = 0.31
Omega_nu = 0
Omega_de = 0.69
Omega_k = 0
H_0 = 100
w_de = -1
zeff = 0
beta = 0
fgrowth = 0
b_1 = 2
gamma = 0.55
Lx = 3500 Ly = 3500 Lz = 3500
nx = 700 ny = 700 nz = 700
xoffset = 857.220397 yoffset = 15.9954215 zoffset = 262.898189
bins = 400 dk = 0.001
kx_ny = 0.628318531 ky_ny = 0.628318531 kz_ny = 0.628318531
############################
A(data) = 3.03154604 (not used)
A(ran) = 3.03032209 (used)
Ngal = 185413
weighted Ngal = 0
Nran = 9360983
weighted Nran = 0
SN(data) = 3448.29781
SN(ran) = 68.0496455
SN(data+ran) = 3516.34745
############################
13 columns: k_central k_mean P_0(k) sigma^{lin}_{P_0(k)} P^img_1(k) sigma^{lin}_{P_1(k)} P_2(k) sigma^{lin}_{P_2(k)} P^img_3(k) sigma^{lin}_{P_3(k)} P_4(k) sigma^{lin}_{P_4(k)} N_modes
### header ###
0.00050000 0 0 0 0 0 0 0 0 0 0 0 0
0.00150000 0.00179520 47036.50298383 0 -58637.86619678 0 -23556.35729789 0 78189.40445224 0 -111445.20685940 0 3
0.00250000 0.00253879 94508.24396397 0 -76861.77119440 0 -23608.06429126 0 -37152.71120258 0 112578.48926610 0 6
0.00350000 0.00331552 115489.81780542 0 -49842.73143882 0 -33106.18934593 0 -79767.70422138 0 -28424.23350346 0 7
0.00450000 0.00420575 145730.54046701 0 -22558.18751298 0 -46940.62023310 0 -78594.62991109 0 37894.48174432 0 24
0.00550000 0.00557378 146724.21399163 0 -9504.29617192 0 -48625.59377767 0 -64868.10927094 0 58626.06351351 0 45
0.00650000 0.00659388 157184.76356189 0 10935.84924577 0 -47278.62660058 0 -31831.83677256 0 2891.96089812 0 40
0.00750000 0.00754703 151736.42015258 0 -11712.53324868 0 -40026.60837497 0 -13209.00108049 0 16660.21807443 0 57
0.00850000 0.00846663 162751.13380387 0 -4539.21081884 0 -40588.19128549 0 -8919.06293227 0 -116.87916224 0 75
0.00950000 0.00948925 175251.86148181 0 -10352.50443543 0 -43812.23472815 0 -8174.34734004 0 21716.26277323 0 112
0.01050000 0.01054430 153061.69287376 0 858.06406607 0 -36743.77632899 0 -9125.57616750 0 -43026.51324206 0 105
0.01150000 0.01145670 162029.48402694 0 8190.83737466 0 -20651.99796202 0 -26663.83519248 0 -9389.46168406 0 144
0.01250000 0.01249090 137929.52885970 0 18721.07897945 0 -13455.05892500 0 -26902.58661400 0 -31459.09679432 0 169
0.01350000 0.01339930 126413.48218580 0 27905.47747222 0 761.62265499 0 -22739.27439626 0 -12012.99584272 0 180
0.01450000 0.01448870 105707.30428726 0 15620.00825579 0 194.82857879 0 -20173.37105390 0 -2025.19432025 0 267
0.01550000 0.01550050 103162.19614874 0 -5.84849933 0 24430.54270524 0 10729.90928373 0 -31064.99957969 0 238
0.01650000 0.01653350 102085.00458919 0 -3435.39015771 0 -4724.85016566 0 12504.21227966 0 -2741.10012466 0 315
0.01750000 0.01747870 102975.82615962 0 -5468.54285867 0 10384.38292091 0 10824.58928483 0 -18951.06269341 0 297
0.01850000 0.01844180 100432.62893174 0 1792.22059320 0 -3815.65013129 0 -3590.37624999 0 -6174.48944653 0 388
0.01950000 0.01947590 103838.43369672 0 10001.48139441 0 2548.99740366 0 1678.93731513 0 -7763.81629404 0 399
0.02050000 0.02045430 89234.24304750 0 10604.93572890 0 1518.10608447 0 -11586.41314748 0 10452.45630173 0 462
0.02150000 0.02154770 81720.65487938 0 7772.56152031 0 14135.34310724 0 -9908.12779009 0 730.57710174 0 571
0.02250000 0.02255340 76584.80156039 0 3452.65579723 0 17945.81129853 0 -3955.94469306 0 -4911.07402632 0 510
0.02350000 0.02348930 72729.70798569 0 4832.91778179 0 23027.82190052 0 -6861.38313140 0 -2867.24270716 0 555
0.02450000 0.02439640 68256.37862078 0 2793.20054079 0 16112.01153828 0 -5704.65272728 0 -18490.42082645 0 592
0.02550000 0.02547300 69226.33437236 0 223.27304547 0 27501.82570447 0 -1819.58033708 0 -5810.44973196 0 837
0.02650000 0.02652900 68731.97055321 0 803.68404596 0 24420.53852609 0 1247.26260511 0 -22812.45103252 0 723
0.02750000 0.02749970 70180.21599339 0 582.77153715 0 32680.16868323 0 -1179.98731049 0 -4903.18308951 0 826
0.02850000 0.02848090 68367.09903048 0 386.27372172 0 29969.59816595 0 -2018.09022899 0 -16334.57642275 0 831
0.02950000 0.02946900 71105.77117458 0 1049.83293974 0 40544.35274764 0 -1294.52954143 0 -5747.85054804 0 996
0.03050000 0.03053250 66923.57466361 0 2545.69265235 0 39296.97773602 0 920.32041014 0 -4990.19696682 0 1041
0.03150000 0.03150510 65606.62002397 0 3632.46124632 0 37673.71536396 0 1725.75462543 0 -10537.73911883 0 1036
0.03250000 0.03246190 62895.26266114 0 5174.83589572 0 38448.30860583 0 -1430.64258114 0 2388.32354212 0 1059
0.03350000 0.03345080 60771.00448600 0 5334.50933936 0 39703.88929248 0 7672.46352555 0 -2443.14419573 0 1302
0.03450000 0.03451200 52306.34485954 0 2842.42335035 0 27972.80897010 0 12245.78971936 0 2458.81366285 0 1339
0.03550000 0.03553350 51783.31738102 0 1304.97210596 0 26802.99444853 0 12486.90167754 0 -4081.83998125 0 1365
0.03650000 0.03647120 49434.24619126 0 1523.83881635 0 17635.23211884 0 9187.63580018 0 -5546.48553084 0 1308
0.03750000 0.03744890 46712.09780374 0 1997.02524952 0 15611.12814171 0 6384.74581846 0 -6681.85869858 0 1579
0.03850000 0.03847530 44149.45425008 0 598.57251988 0 8665.51881438 0 -645.81135458 0 -4129.68019076 0 1662
0.03950000 0.03950240 42821.59617923 0 -140.81275577 0 6677.65469520 0 412.75444671 0 -11437.13730577 0 1683
0.04050000 0.04050350 44709.57587601 0 -1114.99161983 0 8109.43258206 0 -3593.37750373 0 -11752.66237179 0 1822
0.04150000 0.04152450 43968.47977332 0 -488.97280306 0 9384.72937010 0 -3239.37569026 0 -17920.29502138 0 1887
0.04250000 0.04250150 45420.20981522 0 1228.72677206 0 9874.99035173 0 -4655.73140432 0 -14837.20933888 0 1920
0.04350000 0.04349210 42910.39732001 0 1185.31537893 0 11489.40633167 0 -584.45201443 0 -13031.73601847 0 2005
0.04450000 0.04448520 44076.39002033 0 1581.79561152 0 14045.75512091 0 1086.29086632 0 -11405.88829674 0 2151
0.04550000 0.04548030 41862.76867188 0 671.12530002 0 13963.24874454 0 3094.53990559 0 -6008.17277832 0 2274
0.04650000 0.04648670 41465.18685552 0 1630.46762918 0 13942.67835371 0 3840.17723118 0 118.39665008 0 2311
0.04750000 0.04749250 39726.25818744 0 1351.47467804 0 13136.72369629 0 6927.44443575 0 1275.45415714 0 2568
0.04850000 0.04851840 38572.40538990 0 681.52739821 0 9302.63889781 0 4322.13137192 0 6051.65161535 0 2493
0.04950000 0.04949480 37555.91334430 0 1204.41324452 0 8190.59008034 0 4046.03850867 0 2819.17768463 0 2644
0.05050000 0.05050630 36772.21517534 0 429.57495647 0 7604.87349270 0 543.24603698 0 4964.98418723 0 2829
0.05150000 0.05149060 35907.47191460 0 -104.14406699 0 6572.79066454 0 -1691.50436265 0 681.23963755 0 2784
0.05250000 0.05249300 37281.75387297 0 702.59912207 0 7368.72990215 0 -4691.52163624 0 2650.79273668 0 3055
0.05350000 0.05348950 36706.12014904 0 1028.48806806 0 9205.74448851 0 -6567.45135544 0 -1263.99993405 0 3009
0.05450000 0.05448610 36690.27083151 0 1326.16073259 0 12845.59084236 0 -5345.42401122 0 1690.90860816 0 3336
0.05550000 0.05550870 36189.72465446 0 1889.65455374 0 16505.32190736 0 -3707.66119971 0 -3593.06276551 0 3349
0.05650000 0.05647670 35334.64835335 0 1292.64111211 0 16594.34786115 0 -754.43313479 0 -2488.84868160 0 3324
0.05750000 0.05747970 33568.96693652 0 1404.15960801 0 17781.13576533 0 420.87581686 0 -2352.38718173 0 3639
0.05850000 0.05849280 33744.65830745 0 428.18786017 0 18895.64628530 0 2043.57278420 0 -1723.14679446 0 3846
0.05950000 0.05951020 32890.14403888 0 204.91818689 0 17760.90259401 0 2335.68357474 0 -2468.61551029 0 3787
0.06050000 0.06049470 32760.65174246 0 285.70024743 0 16954.61071708 0 2018.50613307 0 -2514.51108722 0 3930
0.06150000 0.06148310 33417.10574515 0 325.28757118 0 18689.26793788 0 237.81732345 0 1954.97397513 0 4083
0.06250000 0.06249100 33412.15985883 0 -492.05049323 0 19577.16693912 0 469.33313810 0 2697.10421770 0 4303
0.06350000 0.06350600 34295.11297375 0 -350.12154084 0 20379.41218179 0 572.58638352 0 5445.34215557 0 4470
0.06450000 0.06451750 36024.82430823 0 -825.50664529 0 22906.53527914 0 1970.50855444 0 6193.09272349 0 4479
0.06550000 0.06550280 36433.64677532 0 -290.27631635 0 21089.70890149 0 756.61719322 0 6519.52122072 0 4636
0.06650000 0.06648880 36594.83770680 0 489.11218713 0 21697.71569952 0 1792.83882899 0 6427.87619531 0 4653
0.06750000 0.06749660 35931.52690716 0 1076.47890229 0 18941.84535981 0 2079.79016085 0 6139.17132194 0 5220
0.06850000 0.06852730 34025.22494970 0 991.44899984 0 15617.08568660 0 3373.09447136 0 2886.65531097 0 5029
0.06950000 0.06949320 33020.53558736 0 798.47850061 0 13412.34445222 0 4403.77221818 0 1401.68666485 0 5040
0.07050000 0.07048030 30665.39444620 0 266.27977517 0 8751.59971768 0 3843.34709469 0 -1384.49970989 0 5475
0.07150000 0.07148790 31391.54048342 0 463.96235518 0 6701.27130239 0 1542.49829656 0 -4527.45309817 0 5509
0.07250000 0.07249820 29582.69496779 0 1033.71721878 0 5647.56146222 0 -251.11613733 0 -5470.57741646 0 5916
0.07350000 0.07351270 28796.63626218 0 1661.26701218 0 6167.12682030 0 -2509.76753261 0 -5327.69750502 0 5721
0.07450000 0.07449140 26916.18780139 0 1612.58375387 0 6393.22126911 0 -2683.48054901 0 -6424.56020335 0 6028
0.07550000 0.07549160 26306.83212526 0 808.59059001 0 8796.24758238 0 -1370.58378428 0 -6021.40302423 0 6183
0.07650000 0.07648840 25726.47732802 0 315.96232733 0 8017.39413388 0 -43.35777522 0 -7059.97170787 0 6330
0.07750000 0.07749960 25780.76967105 0 -66.65222535 0 9503.94771175 0 1060.29798557 0 -5787.65369228 0 6583
0.07850000 0.07848650 25819.10029004 0 -266.63160753 0 7576.10866748 0 1548.90546748 0 -5557.72618157 0 6549
0.07950000 0.07947320 25833.71313599 0 422.69792635 0 8442.06591850 0 964.06340246 0 -3934.71110383 0 6828
0.08050000 0.08048110 26059.42540267 0 98.31736328 0 7977.61347094 0 745.87787552 0 -2508.81207730 0 7147
0.08150000 0.08149960 25160.17334419 0 481.23811129 0 9336.85543864 0 -64.58327118 0 -524.95974637 0 7386
0.08250000 0.08250610 25841.69399801 0 494.64146322 0 8992.30701243 0 -274.36629930 0 -187.29846687 0 7227
0.08350000 0.08350160 25217.95028895 0 841.99667992 0 11430.61772834 0 -680.44829574 0 452.38898119 0 7798
0.08450000 0.08449610 24465.16390949 0 1275.80261732 0 10062.67549699 0 -994.07481585 0 827.03312566 0 7371
0.08550000 0.08548940 23942.24883749 0 716.02607937 0 12421.59349679 0 -274.46746516 0 -221.84211063 0 8256
0.08650000 0.08650700 23524.20903680 0 762.68826868 0 11505.59286872 0 519.32818036 0 1049.08656053 0 8037
0.08750000 0.08749060 22465.33973794 0 234.63846742 0 11172.80216318 0 1543.39754862 0 -1330.33101401 0 8155
0.08850000 0.08849210 22058.42818148 0 245.25638610 0 9487.46891778 0 1254.52406548 0 -1217.75589694 0 8718
0.08950000 0.08949900 22007.62044018 0 215.99697225 0 9811.73921007 0 1006.32375295 0 -3012.03352923 0 8571
0.09050000 0.09049190 21475.48803457 0 403.08299082 0 8538.52194242 0 921.98065426 0 -1119.62389200 0 8932
0.09150000 0.09150830 21030.47067213 0 314.91919494 0 7944.95938057 0 1225.62435245 0 -405.02312714 0 9285
0.09250000 0.09250820 20582.53074050 0 386.45919246 0 8131.70031116 0 760.13214471 0 -691.81933802 0 9204
0.09350000 0.09350330 20373.67944992 0 116.00126741 0 6976.45367294 0 1722.70840908 0 709.99434619 0 9349
0.09450000 0.09448040 20382.22234448 0 257.98080273 0 7647.74533459 0 1336.54709387 0 -372.58485726 0 9564
0.09550000 0.09549270 20143.47092295 0 267.98273375 0 5494.21650494 0 729.72168822 0 1049.69243160 0 10155
0.09650000 0.09649430 19534.45246635 0 349.40213919 0 6354.35109888 0 562.41584274 0 61.07854869 0 9913
0.09750000 0.09749140 19374.04838041 0 647.83129951 0 6250.21771051 0 -357.46393390 0 426.57707492 0 10476
0.09850000 0.09850240 18833.71029978 0 792.03648368 0 6537.14656107 0 112.84601675 0 111.13653859 0 10575
0.09950000 0.09950330 18119.92897836 0 588.83586822 0 6553.36682007 0 -402.18486283 0 625.64450310 0 10882
0.10050000 0.10051200 17725.49454421 0 492.61814609 0 7245.43120428 0 -21.12635342 0 232.90740721 0 10875
0.10150000 0.10150300 17428.74136491 0 375.57037409 0 7155.79825535 0 -494.40765769 0 410.22979656 0 11118
0.10250000 0.10250800 17115.12720951 0 549.06869406 0 7536.72142732 0 30.87997847 0 524.68097824 0 11575
0.10350000 0.10349800 16838.60720153 0 474.22619336 0 7968.25000888 0 -192.84460394 0 1256.50242001 0 11364
0.10450000 0.10450100 16276.46225848 0 470.59546318 0 7839.02748808 0 243.09031271 0 1373.28154046 0 12093
0.10550000 0.10551000 16142.81092128 0 279.92255296 0 7675.67835166 0 732.47002732 0 1576.50126502 0 12067
0.10650000 0.10649700 15829.08435938 0 80.72057418 0 7896.42225071 0 1179.04309582 0 1747.39287808 0 12054
0.10750000 0.10749900 15796.14925274 0 -116.54194271 0 6824.58124091 0 1213.69802203 0 960.01452007 0 12807
0.10850000 0.10850100 15696.78190028 0 -40.45195460 0 6188.64142580 0 976.42024981 0 1569.00375098 0 12736
0.10950000 0.10950300 15805.59139935 0 -7.34405667 0 5642.87411086 0 404.21155216 0 104.59875131 0 12933
0.11050000 0.11050200 15460.61582842 0 200.48937050 0 5424.36710130 0 46.78403797 0 857.79091826 0 13428
0.11150000 0.11150900 15466.79818632 0 322.37287044 0 5615.80662390 0 -402.76937667 0 489.74503576 0 13453
0.11250000 0.11250000 15110.01993212 0 208.82543709 0 5345.25540146 0 -514.34182769 0 130.48821808 0 13668
0.11350000 0.11349100 15143.17985178 0 256.34978431 0 5868.17047346 0 -231.98230166 0 631.21874180 0 13791
0.11450000 0.11448600 14924.54919506 0 178.12159961 0 5609.70295055 0 -69.03142149 0 80.96528315 0 14205
0.11550000 0.11549300 14886.33098257 0 105.83106385 0 5875.18463952 0 -0.15116090 0 1026.09380946 0 14776
0.11650000 0.11649800 14966.58922879 0 23.43855528 0 5954.19517351 0 275.19698339 0 858.34283421 0 14553
0.11750000 0.11747300 15008.06722999 0 67.34352537 0 5459.95500152 0 794.38577968 0 942.50833062 0 14568
0.11850000 0.11849100 14989.63256279 0 193.21329728 0 5522.40805698 0 440.21648051 0 886.35116364 0 16015
0.11950000 0.11950300 14348.69065811 0 336.44279296 0 4966.72648809 0 687.28261138 0 906.75968910 0 15270
0.12050000 0.12050700 14367.46254483 0 396.21720136 0 4533.83778779 0 641.30048144 0 1479.44948661 0 15999
0.12150000 0.12150000 13985.05560696 0 69.75194720 0 4357.25840546 0 912.01694145 0 1674.53098005 0 15670
0.12250000 0.12250700 13955.94232157 0 91.65255665 0 4098.80212320 0 720.25031591 0 2586.36132669 0 16887
0.12350000 0.12352200 13938.51931294 0 -39.36194870 0 3958.09165735 0 580.28847740 0 2411.47928262 0 16407
0.12450000 0.12449800 14063.17812954 0 204.86872803 0 3888.38838217 0 -81.62151234 0 2871.81765201 0 16306
0.12550000 0.12549900 13669.75535396 0 296.20688367 0 4461.49295969 0 -223.69232174 0 2091.62656607 0 17523
0.12650000 0.12650100 13535.76679724 0 211.68843083 0 4191.21151286 0 -220.89902004 0 2560.73264303 0 17154
0.12750000 0.12750600 13471.35786856 0 129.80253838 0 4727.08705516 0 -394.34563301 0 2104.13741033 0 18007
0.12850000 0.12850300 13350.52087320 0 38.36636426 0 4513.73950428 0 410.11289379 0 1617.10249546 0 17496
0.12950000 0.12949900 13445.84159140 0 80.04770883 0 4655.20309373 0 274.08078677 0 1718.40323985 0 18405
0.13050000 0.13049000 13286.56157054 0 176.00835728 0 4368.22928057 0 357.11434966 0 1224.45532478 0 18100
0.13150000 0.13148800 13248.34335805 0 251.93333264 0 4860.24380372 0 15.83931335 0 2002.13974560 0 19059
0.13250000 0.13249300 12864.02550956 0 278.27130137 0 4607.81251025 0 91.20506634 0 1122.26544492 0 18957
0.13350000 0.13349100 12737.23096932 0 240.06994986 0 4977.65240060 0 -125.50074135 0 1782.35130186 0 19468
0.13450000 0.13450700 12533.88759759 0 128.64250323 0 4922.89919089 0 -240.39143247 0 1332.25316529 0 19953
0.13550000 0.13551000 12644.49560078 0 135.69151530 0 5155.88415859 0 -23.35514965 0 1215.80002371 0 19956
0.13650000 0.13649900 12341.22284406 0 -16.81691275 0 4790.58549114 0 166.46167261 0 769.82608190 0 19723
0.13750000 0.13749600 12378.76661750 0 161.23814222 0 4567.51477738 0 255.09869988 0 47.58111251 0 20946
0.13850000 0.13851100 12268.15861431 0 212.50000581 0 4378.88541746 0 308.91219119 0 599.85845032 0 20955
0.13950000 0.13949800 11955.33130447 0 301.17412723 0 4407.86381505 0 306.06381030 0 195.18378336 0 20506
0.14050000 0.14048300 11865.74331814 0 182.05357924 0 4222.77526011 0 388.25657251 0 1016.83151326 0 21447
0.14150000 0.14148400 11664.64807656 0 152.93242539 0 4708.30392779 0 110.01134945 0 667.27425308 0 21771
0.14250000 0.14249400 11878.67006648 0 108.37358664 0 4769.64415882 0 -99.11668595 0 1441.79330666 0 22470
0.14350000 0.14350900 11686.67975200 0 225.68416505 0 5199.70021514 0 -100.33798265 0 1385.17414893 0 22519
0.14450000 0.14449900 11596.52973313 0 213.46332958 0 4901.33962279 0 -135.41387123 0 1492.72469512 0 22218
0.14550000 0.14550500 11271.89974002 0 202.83192212 0 4713.86804990 0 290.42132074 0 1459.60973807 0 23559
0.14650000 0.14650700 11127.22132446 0 117.73682389 0 4141.94374070 0 716.90397419 0 618.39877964 0 23044
0.14750000 0.14750500 10910.90624180 0 26.24197357 0 3805.12888220 0 608.98698278 0 240.41953409 0 23649
0.14850000 0.14849900 10939.24392229 0 34.58804433 0 2825.29259863 0 589.81605296 0 -177.58766870 0 23640
0.14950000 0.14949500 10637.39872821 0 70.62309763 0 2636.30353789 0 565.94315894 0 -569.37492961 0 24457
0.15050000 0.15050000 10611.91617300 0 142.76862900 0 2189.08300791 0 229.58017459 0 -44.18935856 0 24591
0.15150000 0.15149900 10334.24961865 0 181.31844068 0 1877.52589160 0 314.81690502 0 -266.87552966 0 25020
0.15250000 0.15250500 10353.76338832 0 204.82264136 0 1952.16381245 0 175.39574181 0 -72.49579004 0 25297
0.15350000 0.15350100 10168.18024475 0 200.54444969 0 1945.04848054 0 -7.62810792 0 184.39500679 0 25452
0.15450000 0.15450400 9956.21529391 0 173.21730370 0 1810.96999862 0 170.92870721 0 164.57998768 0 26061
0.15550000 0.15549900 9906.71146809 0 175.84761597 0 2475.55099179 0 -116.26991897 0 497.40216704 0 26128
0.15650000 0.15649500 9732.99845170 0 164.07303433 0 2337.68441057 0 -37.12348551 0 449.97561348 0 26331
0.15750000 0.15749700 9676.24440616 0 153.80807208 0 2866.78184048 0 194.92300026 0 708.30712451 0 27345
0.15850000 0.15849900 9416.65281817 0 171.99881716 0 2541.21887336 0 -13.13953386 0 1000.78885653 0 26980
0.15950000 0.15949700 9484.81612421 0 111.77568199 0 3002.61386391 0 195.63678158 0 1030.52037772 0 27777
0.16050000 0.16050000 9321.30961867 0 101.85906751 0 2755.24086328 0 -74.36061400 0 1010.41759795 0 28224
0.16150000 0.16150500 9414.82059211 0 29.93801194 0 3104.95998882 0 -113.21021384 0 1201.26586232 0 28075
0.16250000 0.16249700 9265.71336016 0 -11.63317425 0 2563.20558619 0 -144.60535133 0 595.23629474 0 28590
0.16350000 0.16349900 9381.51454399 0 52.68279425 0 2838.06197786 0 12.14316258 0 886.64904088 0 29163
0.16450000 0.16449100 9305.98861173 0 82.00346965 0 2499.63970630 0 -49.75201939 0 535.98457661 0 28996
0.16550000 0.16550500 9187.72572539 0 141.24102457 0 2800.81046134 0 127.02047733 0 716.07329010 0 30777
0.16650000 0.16650700 9037.41574381 0 243.21733206 0 2481.40737082 0 223.01338644 0 597.07414114 0 29211
0.16750000 0.16749900 8816.35710654 0 202.82967399 0 2716.94396624 0 265.25462782 0 820.29435555 0 30922
0.16850000 0.16850800 8606.43795414 0 222.02196104 0 2492.49065244 0 205.11939454 0 987.26298151 0 30867
0.16950000 0.16949900 8551.29132165 0 155.81565230 0 2664.49508992 0 281.53783447 0 1341.81895906 0 30852
0.17050000 0.17049200 8336.58365204 0 30.52499872 0 2164.87064623 0 187.87623632 0 772.30689351 0 31257
0.17150000 0.17149500 8374.89178973 0 42.68861928 0 2395.54003988 0 108.46823292 0 908.13554475 0 32608
0.17250000 0.17250900 8371.62076037 0 65.31796011 0 2181.79906623 0 -96.59552040 0 662.40480319 0 32361
0.17350000 0.17350400 8236.98024591 0 179.39741347 0 2238.26085486 0 -184.57260907 0 483.21646582 0 32508
0.17450000 0.17449800 8220.82743081 0 239.68214741 0 2248.14138685 0 -293.53385693 0 450.57811236 0 32791
0.17550000 0.17549800 8087.98542047 0 151.69370568 0 2435.81529145 0 -169.74956295 0 614.89282068 0 33633
0.17650000 0.17650100 7931.56052490 0 29.56617121 0 2390.22321209 0 147.64819548 0 761.62490312 0 33984
0.17750000 0.17750300 8067.88713696 0 -103.87013233 0 2402.73405635 0 278.95136074 0 659.53843725 0 34069
