### header ###
fiducial parameters:
Omega_m = 0.31
Omega_nu = 0
Omega_de = 0.69
Omega_k = 0
H_0 = 100
w_de = -1
zeff = 0
beta = 0
fgrowth = 0
b_1 = 2
gamma = 0.55
Lx = 3500 Ly = 3500 Lz = 3500
nx = 700 ny = 700 nz = 700
xoffset = 857.220397 yoffset = 15.9954215 zoffset = 262.898189
bins = 400 dk = 0.001
kx_ny = 0.628318531 ky_ny = 0.628318531 kz_ny = 0.628318531
############################
A(data) = 3.10751557 (not used)
A(ran) = 3.1069228 (used)
Ngal = 189333
weighted Ngal = 0
Nran = 9360983
weighted Nran = 0
SN(data) = 3443.39088
SN(ran) = 69.7698097
SN(data+ran) = 3513.16069
############################
13 columns: k_central k_mean P_0(k) sigma^{lin}_{P_0(k)} P^img_1(k) sigma^{lin}_{P_1(k)} P_2(k) sigma^{lin}_{P_2(k)} P^img_3(k) sigma^{lin}_{P_3(k)} P_4(k) sigma^{lin}_{P_4(k)} N_modes
### header ###
0.00050000 0 0 0 0 0 0 0 0 0 0 0 0
0.00150000 0.00179520 2743.23584830 0 -15551.32787982 0 -19380.90517736 0 34964.15650526 0 31665.47514174 0 3
0.00250000 0.00253879 5578.86984560 0 -13845.33431838 0 -3077.73513275 0 -29997.58738627 0 -34215.75397959 0 6
0.00350000 0.00331552 24227.76136606 0 -26269.73797785 0 -35315.98887314 0 21762.79906726 0 17236.41383090 0 7
0.00450000 0.00420575 37972.49186039 0 -29457.81133817 0 -28904.43410269 0 -12365.61505615 0 -9670.26437997 0 24
0.00550000 0.00557378 71236.83716211 0 -17797.65952190 0 -50869.45247659 0 -29520.08454322 0 2377.26274180 0 45
0.00650000 0.00659388 67723.34696312 0 -12624.82446201 0 -3585.99239620 0 -42438.28998931 0 -13378.95971955 0 40
0.00750000 0.00754703 82050.79279135 0 -7175.17713721 0 -58375.17218920 0 -5666.22094243 0 42142.43606207 0 57
0.00850000 0.00846663 80885.13731054 0 -11740.29765598 0 -51002.87900077 0 12849.41266361 0 14773.58725574 0 75
0.00950000 0.00948925 96625.30812264 0 -20845.89918713 0 -91693.69742744 0 28973.78891770 0 40962.28014182 0 112
0.01050000 0.01054430 98473.72072885 0 -8734.88487004 0 -65224.21308610 0 22041.22998586 0 20698.64666255 0 105
0.01150000 0.01145670 98755.52384267 0 2966.49765311 0 -87556.35111288 0 -3366.91211345 0 36183.54229655 0 144
0.01250000 0.01249090 88267.77189764 0 12309.07458297 0 -54605.84477957 0 -25339.23691034 0 52230.02084107 0 169
0.01350000 0.01339930 81176.38257098 0 11861.02224483 0 -48718.10433319 0 -36341.24862631 0 67114.32850651 0 180
0.01450000 0.01448870 74439.63577489 0 4781.57048925 0 -11044.16415621 0 -19770.50613170 0 68620.57570447 0 267
0.01550000 0.01550050 71431.30041975 0 -1832.01249679 0 -9930.06954031 0 -18610.02135023 0 9370.08280220 0 238
0.01650000 0.01653350 81567.66962293 0 -3179.08083974 0 16323.33577202 0 -4707.98918957 0 53425.46404631 0 315
0.01750000 0.01747870 79193.64418854 0 2978.01932011 0 4274.90939820 0 -3706.48093139 0 7200.03021598 0 297
0.01850000 0.01844180 82704.09941183 0 866.36528664 0 8624.56912376 0 9471.87813522 0 35638.37073610 0 388
0.01950000 0.01947590 76901.78791100 0 3176.36060226 0 -5224.73314432 0 15160.60286041 0 14734.35738469 0 399
0.02050000 0.02045430 76145.29211681 0 1292.55118691 0 -11609.56888798 0 16221.27066339 0 14680.62707420 0 462
0.02150000 0.02154770 71126.79119145 0 -354.04902420 0 -24430.54270524 0 13440.44607905 0 12162.94612347 0 571
0.02250000 0.02255340 72926.86899951 0 3356.03116355 0 -24532.49540737 0 552.16436927 0 11411.28380909 0 510
0.02350000 0.02348930 65221.40292342 0 5708.75556480 0 -31087.14366163 0 -5254.85808828 0 10140.75305696 0 555
0.02450000 0.02439640 61426.44683013 0 4675.15524878 0 -20069.61984765 0 -7679.06178753 0 4713.65447753 0 592
0.02550000 0.02547300 56974.36229510 0 2726.75705432 0 -24637.59549171 0 -4335.01315766 0 10012.14877195 0 837
0.02650000 0.02652900 56231.58009480 0 349.99339742 0 -13297.91462778 0 -4430.96335230 0 1621.81232812 0 723
0.02750000 0.02749970 58711.94208510 0 -4471.62078599 0 -18140.38696269 0 -1567.83472331 0 14906.00212135 0 826
0.02850000 0.02848090 59717.75551251 0 -865.09846530 0 -5991.91879736 0 -6780.64153720 0 3434.71571866 0 831
0.02950000 0.02946900 64343.50810132 0 497.20882785 0 300.97741584 0 -8140.05211466 0 18745.02156551 0 996
0.03050000 0.03053250 64947.01863907 0 2556.06777297 0 16636.72511440 0 -7987.92114766 0 23803.65161398 0 1041
0.03150000 0.03150510 59625.58217651 0 3337.70890285 0 19741.73006583 0 -1185.57391390 0 18259.08823441 0 1036
0.03250000 0.03246190 64421.06859137 0 2723.74455993 0 31441.78619219 0 394.04325951 0 42206.73258425 0 1059
0.03350000 0.03345080 56975.14914065 0 -59.39166423 0 22645.30255615 0 10818.74414645 0 10442.44088193 0 1302
0.03450000 0.03451200 59878.38441145 0 213.64992438 0 26872.46167004 0 6510.42753428 0 28532.03134397 0 1339
0.03550000 0.03553350 57629.01779367 0 -578.84180565 0 13656.26657308 0 4726.18780310 0 -2317.63108967 0 1365
0.03650000 0.03647120 56373.21229401 0 1371.56172089 0 11856.75079756 0 606.89172549 0 5916.31418054 0 1308
0.03750000 0.03744890 54099.67827716 0 2060.88338632 0 7194.31996540 0 -5760.05789473 0 -8586.63192755 0 1579
0.03850000 0.03847530 50326.07942026 0 2229.83036681 0 5667.94076199 0 -1380.80153579 0 -10085.14555780 0 1662
0.03950000 0.03950240 49487.07724970 0 3107.03950920 0 7322.90176912 0 -1165.48687104 0 -11315.40105835 0 1683
0.04050000 0.04050350 47484.78013498 0 1460.34038037 0 6756.80011700 0 2700.83611374 0 -8744.55182967 0 1822
0.04150000 0.04152450 46505.49464330 0 324.55580482 0 7448.56100364 0 2797.49446937 0 -1844.14115893 0 1887
0.04250000 0.04250150 46776.73154544 0 437.81547752 0 4991.86058313 0 4402.60319051 0 -3745.35110161 0 1920
0.04350000 0.04349210 45538.23664790 0 386.09274724 0 5892.33787253 0 4646.81756829 0 6366.14254150 0 2005
0.04450000 0.04448520 44819.17222064 0 860.07164629 0 2954.56008204 0 3580.05733261 0 -139.94834973 0 2151
0.04550000 0.04548030 43284.14895681 0 781.10382678 0 569.15124066 0 -31.92569621 0 5704.81009639 0 2274
0.04650000 0.04648670 43803.69183360 0 1577.97379027 0 -1389.83901898 0 -1527.16604896 0 -1478.37038414 0 2311
0.04750000 0.04749250 40490.17281112 0 2127.88890533 0 33.54749729 0 -4836.76208434 0 -797.81979848 0 2568
0.04850000 0.04851840 39752.44890364 0 1450.07766625 0 4166.26850889 0 -4737.30480667 0 -1122.74879290 0 2493
0.04950000 0.04949480 38268.68300715 0 1590.06873045 0 6199.26384074 0 -2580.12276554 0 -1889.76696024 0 2644
0.05050000 0.05050630 38327.24679746 0 640.50014711 0 10954.96959266 0 -2510.93656029 0 -1171.81535740 0 2829
0.05150000 0.05149060 38693.80441780 0 -689.65214056 0 11152.77132358 0 -1522.33256915 0 -2696.37357540 0 2784
0.05250000 0.05249300 39495.37522143 0 -558.80422166 0 16103.13142420 0 -2726.39735350 0 -2277.54692916 0 3055
0.05350000 0.05348950 41108.52100783 0 -124.27101416 0 14388.03293567 0 -1871.01755482 0 -3341.35087369 0 3009
0.05450000 0.05448610 40371.24672638 0 323.71050788 0 16177.31971903 0 -3278.84161498 0 -2493.53603296 0 3336
0.05550000 0.05550870 40623.82414831 0 1041.57780584 0 14145.79691242 0 -616.26193194 0 -6642.31408931 0 3349
0.05650000 0.05647670 39773.58132702 0 1186.01229928 0 17184.93165055 0 -116.31825376 0 -7039.81722111 0 3324
0.05750000 0.05747970 39018.88403694 0 1184.24751711 0 15452.74737291 0 1932.07676959 0 -7120.50261205 0 3639
0.05850000 0.05849280 38546.77670624 0 928.56542746 0 14908.58747102 0 776.55473543 0 -10413.59737216 0 3846
0.05950000 0.05951020 37677.87440473 0 1309.92923294 0 15452.41015339 0 -273.37824610 0 -9130.19607495 0 3787
0.06050000 0.06049470 36347.65579723 0 1531.54990275 0 16514.76405397 0 -1999.58811789 0 -10931.99370257 0 3930
0.06150000 0.06148310 34936.72931747 0 1714.87367552 0 18391.84031954 0 -1167.62259468 0 -6921.11594939 0 4083
0.06250000 0.06249100 33746.79403109 0 1704.85825572 0 16389.76801784 0 51.94664404 0 -10370.95034328 0 4303
0.06350000 0.06350600 32418.37392770 0 1041.18213493 0 17010.36434470 0 1922.38732866 0 -7445.34617753 0 4470
0.06450000 0.06451750 31654.68411704 0 582.39272722 0 16550.84654282 0 3935.50919003 0 -6217.10275345 0 4479
0.06550000 0.06550280 31486.18676258 0 289.42315096 0 14001.57936354 0 5368.98441515 0 -5754.50501327 0 4636
0.06650000 0.06648880 30818.94173519 0 -60.42434282 0 12192.50903489 0 4536.19832444 0 -2762.09766022 0 4653
0.06750000 0.06749660 30593.34187502 0 167.01358856 0 11420.50114269 0 3309.37122236 0 -1170.17422240 0 5220
0.06850000 0.06852730 31443.80950932 0 -331.00569021 0 12317.50507102 0 2599.01829942 0 3952.79731085 0 5029
0.06950000 0.06949320 30171.92987911 0 -107.55740299 0 9632.67564392 0 2927.87477720 0 470.92481424 0 5040
0.07050000 0.07048030 31016.88959456 0 278.81984512 0 11736.70064775 0 1606.83978134 0 5699.95413527 0 5475
0.07150000 0.07148790 29842.01678016 0 776.34565932 0 8824.69766938 0 365.99446374 0 385.48800023 0 5509
0.07250000 0.07249820 28986.49085302 0 1175.21003393 0 11291.00884627 0 -665.36671465 0 4609.95947454 0 5916
0.07350000 0.07351270 28447.05202444 0 780.88126189 0 9852.22803400 0 -891.68372834 0 1517.26303567 0 5721
0.07450000 0.07449140 27946.95547342 0 712.81462546 0 11632.27500246 0 -1619.15953455 0 4214.90680460 0 6028
0.07550000 0.07549160 28187.95502509 0 273.17479032 0 12061.66786038 0 21.19671990 0 3419.83309710 0 6183
0.07650000 0.07648840 27882.88376425 0 283.11489777 0 12397.42609772 0 -61.21984367 0 4432.54828405 0 6330
0.07750000 0.07749960 27860.62727581 0 738.31628977 0 12410.46525257 0 923.01367006 0 5663.28713259 0 6583
0.07850000 0.07848650 27843.42908019 0 226.33050247 0 11769.97297391 0 2054.47621540 0 4267.07466464 0 6549
0.07950000 0.07947320 26933.16118399 0 3.29753482 0 10387.45161856 0 2897.96340561 0 5427.18850464 0 6828
0.08050000 0.08048110 26874.37258067 0 123.53250340 0 8645.83643495 0 2245.54479653 0 2312.41542773 0 7147
0.08150000 0.08149960 26458.80572314 0 417.96336426 0 6455.71928717 0 1161.84490021 0 1926.40024098 0 7386
0.08250000 0.08250610 25704.55805909 0 331.48791412 0 5779.56042375 0 528.24201639 0 -92.81382827 0 7227
0.08350000 0.08350160 25325.29850343 0 604.69305420 0 4759.77486748 0 -121.93745506 0 591.75506521 0 7798
0.08450000 0.08449610 23981.14148902 0 1010.21076998 0 5760.00169148 0 -27.82207184 0 -325.32578939 0 7371
0.08550000 0.08548940 24111.30822448 0 794.13623723 0 6369.33488630 0 -663.46479655 0 -491.41202427 0 8256
0.08650000 0.08650700 23074.58300756 0 666.44581712 0 7723.73213353 0 -746.98845181 0 1062.66189442 0 8037
0.08750000 0.08749060 23289.05462351 0 387.54391525 0 9010.89904874 0 -556.70109591 0 1470.70426034 0 8155
0.08850000 0.08849210 23068.62546268 0 153.73163566 0 9705.43637610 0 276.08724293 0 3368.95791189 0 8718
0.08950000 0.08949900 23302.76821740 0 86.62495079 0 10872.81167647 0 67.04250075 0 3200.80901760 0 8571
0.09050000 0.09049190 22756.02296585 0 481.74281651 0 9749.48848632 0 856.97597108 0 2849.51620096 0 8932
0.09150000 0.09150830 22063.03684828 0 566.50631554 0 9971.00799027 0 1468.35496434 0 2372.55290914 0 9285
0.09250000 0.09250820 21502.01597030 0 609.93119744 0 9061.66182744 0 1390.61462388 0 2949.62543637 0 9204
0.09350000 0.09350330 21288.44360641 0 387.39329053 0 8377.61202720 0 877.10797654 0 2032.30965216 0 9349
0.09450000 0.09448040 20485.29911168 0 111.25849965 0 7173.96314693 0 954.61001520 0 1410.40940982 0 9564
0.09550000 0.09549270 20274.08728444 0 -15.85898449 0 6427.11183106 0 458.20376981 0 1379.11543819 0 10155
0.09650000 0.09649430 20537.90535710 0 78.24650696 0 5143.15974196 0 630.63310390 0 1188.65385220 0 9913
0.09750000 0.09749140 19954.17836464 0 329.04194852 0 4743.22862961 0 445.24105139 0 1595.36307695 0 10476
0.09850000 0.09850240 19803.32883183 0 705.12826849 0 4256.28363994 0 638.06429809 0 1156.73040412 0 10575
0.09950000 0.09950330 18706.91575953 0 805.30382373 0 3607.88918382 0 706.03426493 0 729.41706658 0 10882
0.10050000 0.10051200 18526.39090879 0 808.03754999 0 4144.14690825 0 -78.77729049 0 1084.15514268 0 10875
0.10150000 0.10150300 17516.98047315 0 557.01358600 0 3909.30723318 0 -1055.16325631 0 906.86647528 0 11118
0.10250000 0.10250800 17696.71847834 0 366.32943513 0 5640.61474007 0 -1115.25689919 0 1528.72849941 0 11575
0.10350000 0.10349800 17275.30648243 0 324.32874367 0 6211.52739069 0 -780.13825488 0 1485.44075345 0 11364
0.10450000 0.10450100 17465.16107328 0 392.55612141 0 7410.53388221 0 -522.71948468 0 3447.73239221 0 12093
0.10550000 0.10551000 17201.11818761 0 421.15570907 0 8139.88350490 0 461.89744764 0 3184.58875860 0 12067
0.10650000 0.10649700 17166.27217034 0 209.60891044 0 8123.64076459 0 1153.60550322 0 4412.45000055 0 12054
0.10750000 0.10749900 16568.38195796 0 317.26849095 0 7922.63544822 0 1176.32285835 0 3611.59859857 0 12807
0.10850000 0.10850100 16333.67717070 0 301.94523587 0 7262.95537877 0 688.01100555 0 4064.49565717 0 12736
0.10950000 0.10950300 16068.51021995 0 233.17268657 0 7511.84586725 0 296.02141294 0 4090.30419125 0 12933
0.11050000 0.11050200 15674.30059882 0 238.91665909 0 6694.51567130 0 84.47956019 0 3651.31181760 0 13428
0.11150000 0.11150900 15476.46514595 0 -12.40450771 0 6189.18097704 0 561.48624092 0 3230.69790790 0 13453
0.11250000 0.11250000 15341.57733718 0 -208.41740146 0 5613.23251488 0 490.96689450 0 2004.73633592 0 13668
0.11350000 0.11349100 15742.19412923 0 -105.98033969 0 5059.75411354 0 803.86277231 0 1978.17467824 0 13791
0.11450000 0.11448600 15578.19303507 0 -41.95460479 0 5248.31602955 0 221.60380884 0 1533.06739060 0 14205
0.11550000 0.11549300 15708.80939656 0 361.51506442 0 4686.53078732 0 -171.50872479 0 2111.17405769 0 14776
0.11650000 0.11649800 15686.10328208 0 298.99119286 0 5551.13916025 0 -510.50651766 0 2066.97581902 0 14553
0.11750000 0.11747300 15326.62727171 0 442.17797407 0 5766.35265914 0 -249.37046427 0 2427.65457902 0 14568
0.11850000 0.11849100 15232.20580557 0 319.68298272 0 5912.87454142 0 -53.59362418 0 2029.43204558 0 16015
0.11950000 0.11950300 14841.36837965 0 260.70890866 0 6408.86825493 0 573.82847543 0 1234.29089417 0 15270
0.12050000 0.12050700 14688.04590368 0 286.24541899 0 6121.29868727 0 284.73355147 0 1756.40787997 0 15999
0.12150000 0.12150000 14469.64005998 0 267.13743682 0 5767.97131285 0 652.35453737 0 773.71984331 0 15670
0.12250000 0.12250700 14190.30988931 0 79.70453176 0 5066.81324220 0 866.13260517 0 1623.61083224 0 16887
0.12350000 0.12352200 14123.99005000 0 -12.72733920 0 4525.42978104 0 1163.80077343 0 992.56744459 0 16407
0.12450000 0.12449800 13902.88645012 0 -65.08707715 0 3643.22978972 0 1077.97952917 0 1518.01615927 0 16306
0.12550000 0.12549900 13881.75402674 0 245.93307328 0 3015.86659112 0 617.81314174 0 626.16382117 0 17523
0.12650000 0.12650100 13551.50370827 0 287.50662001 0 3251.13341092 0 75.75940058 0 1371.93266237 0 17154
0.12750000 0.12750600 13147.40231449 0 413.18833583 0 2853.97873930 0 -203.28154814 0 1159.76537982 0 18007
0.12850000 0.12850300 13041.29057159 0 183.74754530 0 3119.82012909 0 -395.20779092 0 1606.25526751 0 17496
0.12950000 0.12949900 13013.30135127 0 37.19463883 0 3636.99122857 0 -109.68784352 0 1193.29624095 0 18405
0.13050000 0.13049000 12916.06972245 0 -16.77015164 0 3074.61023185 0 -371.11345608 0 890.76761531 0 18100
0.13150000 0.13148800 13134.92519218 0 45.66087215 0 4224.57376423 0 -210.94542381 0 1221.26297997 0 19059
0.13250000 0.13249300 12899.43355936 0 175.44407661 0 3677.35640534 0 -430.81367618 0 502.15921043 0 18957
0.13350000 0.13349100 13000.37460293 0 305.73783143 0 4708.79851642 0 -167.30022515 0 1276.55574092 0 19468
0.13450000 0.13450700 12562.66366346 0 281.25681820 0 4276.91023403 0 -139.03673296 0 616.13491258 0 19953
0.13550000 0.13551000 12621.78948631 0 279.45381782 0 4807.06428511 0 -82.20557655 0 1741.25548279 0 19956
0.13650000 0.13649900 12266.92214273 0 186.61615937 0 4874.80044641 0 243.38594182 0 1335.09704992 0 19723
0.13750000 0.13749600 12323.12539639 0 160.41420252 0 4792.66501152 0 313.19600319 0 1334.89471821 0 20946
0.13850000 0.13851100 12138.89113090 0 114.77154022 0 4778.42310705 0 585.32204080 0 1660.06426256 0 20955
0.13950000 0.13949800 12067.06337273 0 126.79341618 0 4054.36783086 0 657.99284777 0 1354.14995291 0 20506
0.14050000 0.14048300 11799.31107232 0 68.60753655 0 3699.00589865 0 883.67251657 0 1612.72988233 0 21447
0.14150000 0.14148400 11698.48243526 0 71.47794912 0 3175.94469818 0 736.71786923 0 827.91214455 0 21771
0.14250000 0.14249400 11527.39973114 0 124.61272994 0 2837.03907865 0 297.19718500 0 1119.61152728 0 22470
0.14350000 0.14350900 11321.35860324 0 262.86486547 0 2400.33979775 0 29.68723302 0 740.31150527 0 22519
0.14450000 0.14449900 11090.10469575 0 253.93529253 0 2721.76620540 0 -197.57242164 0 1000.18972985 0 22218
0.14550000 0.14550500 10965.56952630 0 170.32845646 0 2581.65149404 0 -274.15047881 0 1032.26829890 0 23559
0.14650000 0.14650700 10970.98751995 0 30.88807174 0 2789.50236670 0 242.43498277 0 567.25719101 0 23044
0.14750000 0.14750500 10966.01915233 0 19.03615442 0 2593.44293665 0 152.24112537 0 1130.88814809 0 23649
0.14850000 0.14849900 10895.83252917 0 84.90681733 0 2941.23991092 0 198.24011629 0 579.60054958 0 23640
0.14950000 0.14949500 10932.63441966 0 101.09009459 0 2827.01241819 0 -82.48726726 0 1034.56139165 0 24457
0.15050000 0.15050000 10763.27153510 0 173.14423947 0 3234.62089500 0 -10.62947407 0 1066.67705486 0 24591
0.15150000 0.15149900 10740.39681086 0 252.08732955 0 3402.74730798 0 -276.75718571 0 1536.91169315 0 25020
0.15250000 0.15250500 10558.24206576 0 178.72634662 0 3748.49848382 0 -125.92338981 0 1382.68996512 0 25297
0.15350000 0.15350100 10435.07825570 0 243.02736506 0 4002.59339359 0 -251.27350644 0 1900.08587761 0 25452
0.15450000 0.15450400 10466.85557532 0 110.46535934 0 4211.77066305 0 153.10777954 0 2041.38085730 0 26061
0.15550000 0.15549900 10287.79200918 0 61.53379504 0 4197.82101549 0 40.84256721 0 1649.50929152 0 26128
0.15650000 0.15649500 10273.84236162 0 -6.02163908 0 4099.55524680 0 180.18201089 0 1523.20933991 0 26331
0.15750000 0.15749700 10260.38730269 0 64.04641770 0 3713.59626330 0 235.78164160 0 1029.81109265 0 27345
0.15850000 0.15849900 10069.20631506 0 172.01792627 0 3227.44935983 0 409.30581507 0 1041.62389251 0 26980
0.15950000 0.15949700 9848.64226642 0 203.79187369 0 2926.18867959 0 443.75953362 0 742.63831997 0 27777
0.16050000 0.16050000 9696.99464741 0 117.65364307 0 2296.48742564 0 639.92687392 0 897.20063972 0 28224
0.16150000 0.16150500 9463.82982929 0 153.34720540 0 1927.79408167 0 614.48253693 0 595.06993311 0 28075
0.16250000 0.16249700 9366.92417934 0 128.66048827 0 1625.58918676 0 437.95486159 0 530.06974620 0 28590
0.16350000 0.16349900 9182.10540002 0 106.69625674 0 1893.81359451 0 46.64656481 0 1015.32863825 0 29163
0.16450000 0.16449100 9267.30953256 0 94.36009219 0 1755.47490596 0 -175.44407661 0 912.62056439 0 28996
0.16550000 0.16550500 9134.45628157 0 110.12521724 0 1885.42806906 0 -255.69445437 0 827.95598309 0 30777
0.16650000 0.16650700 9131.09532700 0 29.68543452 0 2054.29636499 0 -104.06763057 0 821.14190061 0 29211
0.16750000 0.16749900 9010.60679182 0 64.83708507 0 1896.42142548 0 77.11547268 0 969.77140491 0 30922
0.16850000 0.16850800 9074.89207335 0 61.61236719 0 2064.99746449 0 302.77142370 0 872.77695381 0 30867
0.16950000 0.16949900 8923.89641208 0 93.10473631 0 1831.49542685 0 364.21619279 0 781.66136305 0 30852
0.17050000 0.17049200 8795.89912221 0 160.21749113 0 1862.05875619 0 125.67497143 0 938.07164578 0 31257
0.17150000 0.17149500 8658.69573938 0 214.61662034 0 1681.01683552 0 -162.70167494 0 549.90162628 0 32608
0.17250000 0.17250900 8567.18560178 0 175.91056361 0 2102.15905581 0 -480.61537924 0 746.14090674 0 32361
0.17350000 0.17350400 8429.93725636 0 267.86133472 0 2183.36151669 0 -633.83219309 0 438.13696013 0 32508
0.17450000 0.17449800 8319.11568080 0 239.89009945 0 2692.39438504 0 -490.18566927 0 532.32911699 0 32791
0.17550000 0.17549800 8167.51302439 0 265.83464540 0 2753.88074454 0 -280.30023882 0 65.13293900 0 33633
0.17650000 0.17650100 8006.56938723 0 166.97761848 0 2711.55969454 0 -105.53363623 0 68.16105790 0 33984
0.17750000 0.17750300 7870.06292475 0 80.29309224 0 2766.96486199 0 356.84682217 0 68.50783198 0 34069
