### header ###
fiducial parameters:
Omega_m = 0.31
Omega_nu = 0
Omega_de = 0.69
Omega_k = 0
H_0 = 100
w_de = -1
zeff = 0
beta = 0
fgrowth = 0
b_1 = 2
gamma = 0.55
Lx = 3500 Ly = 3500 Lz = 3500
nx = 700 ny = 700 nz = 700
xoffset = 857.220397 yoffset = 15.9954215 zoffset = 262.898189
bins = 400 dk = 0.001
kx_ny = 0.628318531 ky_ny = 0.628318531 kz_ny = 0.628318531
############################
A(data) = 3.13356148 (not used)
A(ran) = 3.13227021 (used)
Ngal = 191705
weighted Ngal = 0
Nran = 9360983
weighted Nran = 0
SN(data) = 3450.77954
SN(ran) = 70.3390174
SN(data+ran) = 3521.11856
############################
13 columns: k_central k_mean P_0(k) sigma^{lin}_{P_0(k)} P^img_1(k) sigma^{lin}_{P_1(k)} P_2(k) sigma^{lin}_{P_2(k)} P^img_3(k) sigma^{lin}_{P_3(k)} P_4(k) sigma^{lin}_{P_4(k)} N_modes
### header ###
0.00050000 0 0 0 0 0 0 0 0 0 0 0 0
0.00150000 0.00179520 11860.23539928 0 -14040.02238904 0 -9011.68589429 0 30441.93030967 0 -40327.18337552 0 3
0.00250000 0.00253879 26086.17815141 0 -19795.23556330 0 -6493.82509315 0 1577.36679513 0 55230.37533419 0 6
0.00350000 0.00331552 36087.20991979 0 -17531.59331910 0 -8351.73604922 0 -19918.99512785 0 -40443.29929757 0 7
0.00450000 0.00420575 48376.95058350 0 -15948.68488316 0 -24556.43799343 0 3927.02249873 0 536.00705791 0 24
0.00550000 0.00557378 63995.94718072 0 -12303.56666411 0 -32696.24281377 0 -9138.91881991 0 -17283.51215746 0 45
0.00650000 0.00659388 71690.84704513 0 -11509.07747045 0 -43028.31174618 0 -18186.24881767 0 -21466.60792050 0 40
0.00750000 0.00754703 75202.08911397 0 -2634.21277686 0 -17862.51807662 0 -44928.76856526 0 -15192.41390198 0 57
0.00850000 0.00846663 71461.20055070 0 4313.24001719 0 -33095.17350821 0 -33624.49575114 0 -39357.78965648 0 75
0.00950000 0.00948925 70178.52989578 0 1621.69992161 0 -10550.16003789 0 -29152.62767083 0 -27269.25664085 0 112
0.01050000 0.01054430 68355.85837975 0 1195.93779387 0 -12777.92212496 0 -27656.60946504 0 -20030.38997660 0 105
0.01150000 0.01145670 69132.92456479 0 -1279.19729384 0 -13695.15922461 0 -10773.16330774 0 -41557.92222405 0 144
0.01250000 0.01249090 71011.79933447 0 -3355.09818954 0 -16219.69697228 0 -9867.16685882 0 -30118.53678814 0 169
0.01350000 0.01339930 72342.24275499 0 -1871.74819712 0 -14278.88621707 0 -2196.44563414 0 -36162.74709270 0 180
0.01450000 0.01448870 71921.28038512 0 -1513.42997377 0 -9582.50861971 0 -7494.40037732 0 -22385.86833728 0 267
0.01550000 0.01550050 74809.90280997 0 4156.84884357 0 -10389.40749178 0 5080.33574503 0 -26480.83739858 0 238
0.01650000 0.01653350 66206.53355348 0 1895.26363845 0 -3705.78401104 0 7613.88849459 0 -3012.59556176 0 315
0.01750000 0.01747870 64708.26721755 0 4717.70111180 0 -3444.94471083 0 606.97378224 0 -7411.23080256 0 297
0.01850000 0.01844180 67944.22574998 0 1402.90065513 0 6993.25844578 0 -529.91687335 0 13319.72149020 0 388
0.01950000 0.01947590 64302.36731965 0 594.96989132 0 11154.60354965 0 -896.72740833 0 5068.91524389 0 399
0.02050000 0.02045430 68800.87574219 0 -3914.11823169 0 16072.10722819 0 33.71565743 0 19920.23159943 0 462
0.02150000 0.02154770 72798.72558118 0 -3899.74143940 0 16261.51219300 0 2360.88511368 0 15070.90246758 0 571
0.02250000 0.02255340 80918.18482369 0 -4357.46073717 0 19736.10974046 0 -3090.02116400 0 16167.65275940 0 510
0.02350000 0.02348930 79624.49833106 0 976.55176543 0 11276.28359381 0 7830.94546020 0 9216.24325629 0 555
0.02450000 0.02439640 79671.37184461 0 4079.04105921 0 14683.88686291 0 -5482.75104120 0 943.71108025 0 592
0.02550000 0.02547300 73863.66483143 0 5175.44289086 0 11225.19483624 0 -2234.84369703 0 9424.64492084 0 837
0.02650000 0.02652900 67130.62745007 0 6484.77636931 0 17265.07749027 0 843.94580875 0 -3888.60195453 0 723
0.02750000 0.02749970 65806.25398095 0 3814.17760604 0 12989.80839124 0 1954.77164342 0 6994.65228647 0 826
0.02850000 0.02848090 57362.50196484 0 2277.17598769 0 11111.73170776 0 6973.75591676 0 -3771.74414953 0 831
0.02950000 0.02946900 57688.36842953 0 1226.00653458 0 10692.52287940 0 -209.06486295 0 5870.32867840 0 996
0.03050000 0.03053250 57696.34929155 0 -952.43382522 0 8085.15277649 0 3989.44183224 0 -1622.46428586 0 1041
0.03150000 0.03150510 57889.91329714 0 -171.87741813 0 13130.31652538 0 -830.25019990 0 -2831.09277441 0 1036
0.03250000 0.03246190 58800.63081937 0 2708.65960665 0 11324.61839195 0 -5751.60492538 0 -713.41487620 0 1059
0.03350000 0.03345080 57559.55057216 0 -221.59256819 0 14744.92359638 0 -2868.09699662 0 -5624.77666319 0 1302
0.03450000 0.03451200 57349.91243602 0 3383.06492855 0 16608.39867456 0 -3256.16922245 0 131.37847761 0 1339
0.03550000 0.03553350 56358.82426107 0 2202.12216276 0 17253.83683953 0 2392.68491460 0 -5051.26742224 0 1365
0.03650000 0.03647120 53252.02080553 0 699.50794312 0 14196.94187324 0 9588.56733045 0 212.27294466 0 1308
0.03750000 0.03744890 52637.26961706 0 1139.35235809 0 13516.20806497 0 10251.20369105 0 -2666.23739079 0 1579
0.03850000 0.03847530 50766.60052240 0 -207.31469363 0 7782.65562466 0 7862.77898307 0 -3131.76894081 0 1662
0.03950000 0.03950240 50041.46614375 0 662.43852514 0 6383.71167859 0 5308.45351096 0 -4595.81873592 0 1683
0.04050000 0.04050350 48774.30758684 0 1798.86381778 0 5791.62164199 0 -4271.48099973 0 31.33567445 0 1822
0.04150000 0.04152450 46837.76827891 0 2226.01978621 0 10551.75621029 0 -4575.57432395 0 1537.86714846 0 1887
0.04250000 0.04250150 45867.02568178 0 1891.31817004 0 9767.56345269 0 -4074.97194365 0 1037.33108799 0 1920
0.04350000 0.04349210 44694.96303006 0 1459.09266814 0 12861.44015989 0 -1478.22425568 0 2693.06882408 0 2005
0.04450000 0.04448520 43912.61373918 0 -192.15105579 0 14517.41282558 0 154.58704918 0 1504.34752798 0 2151
0.04550000 0.04548030 44566.59479871 0 105.83803306 0 16989.34432783 0 2146.82940181 0 5638.16427821 0 2274
0.04650000 0.04648670 44264.89573309 0 119.97483745 0 14671.97177313 0 1857.06790727 0 2163.84774702 0 2311
0.04750000 0.04749250 43518.40411805 0 891.19251191 0 13842.86137522 0 1866.20655631 0 6172.91575543 0 2568
0.04850000 0.04851840 43510.64806904 0 1387.84942380 0 13035.10821369 0 3398.89176478 0 6553.41178268 0 2493
0.04950000 0.04949480 41528.02209311 0 1716.20007231 0 10273.65127056 0 1768.12063803 0 542.53675192 0 2644
0.05050000 0.05050630 39994.68492690 0 742.12574630 0 8286.57399693 0 1597.91470466 0 1895.01634413 0 2829
0.05150000 0.05149060 39529.32198663 0 1124.35733002 0 7888.36270414 0 -433.80593740 0 619.90390277 0 2784
0.05250000 0.05249300 38410.09039335 0 900.78977950 0 7240.42911470 0 -842.49014448 0 -370.07594402 0 3055
0.05350000 0.05348950 38464.04551686 0 920.13831160 0 10167.41588050 0 -2843.74974713 0 -1485.03609002 0 3009
0.05450000 0.05448610 38293.52484527 0 513.74719727 0 10219.83103486 0 -2883.44048486 0 1245.64395141 0 3336
0.05550000 0.05550870 37892.79564671 0 493.49042059 0 12255.56908549 0 -578.63610174 0 811.11636423 0 3349
0.05650000 0.05647670 38326.34754540 0 822.54023757 0 16251.84523337 0 -1516.27385840 0 1145.64712250 0 3324
0.05750000 0.05747970 38165.94345947 0 592.01697237 0 15477.47680452 0 -773.09149093 0 2618.62199429 0 3639
0.05850000 0.05849280 37639.99341177 0 1148.37860063 0 19649.10710380 0 991.18034829 0 1375.77696492 0 3846
0.05950000 0.05951020 37362.91137125 0 484.44844114 0 18600.69161012 0 357.52238528 0 4405.57072230 0 3787
0.06050000 0.06049470 36605.62873150 0 138.38814741 0 17902.53479322 0 3079.79217183 0 546.87002278 0 3930
0.06150000 0.06148310 36533.46375381 0 87.49553919 0 17682.78007143 0 1940.88943977 0 4073.71299077 0 4083
0.06250000 0.06249100 35937.59685856 0 958.56447613 0 14689.16996875 0 1874.40099069 0 -1176.04184208 0 4303
0.06350000 0.06350600 35511.01416332 0 1043.26727564 0 15378.55907808 0 1496.97366110 0 4702.54871461 0 4470
0.06450000 0.06451750 33840.09143216 0 1185.27041633 0 13230.24591038 0 641.24540225 0 153.64395858 0 4479
0.06550000 0.06550280 33351.23553187 0 882.70582060 0 16639.53527709 0 966.96686255 0 4391.07028286 0 4636
0.06650000 0.06648880 32334.40626674 0 826.75098533 0 14411.07626967 0 1262.86462833 0 2289.12479941 0 4653
0.06750000 0.06749660 32157.25361122 0 524.40221010 0 15739.94599908 0 990.78692551 0 2226.51437484 0 5220
0.06850000 0.06852730 31233.27212113 0 289.07806298 0 13982.58266380 0 700.25432233 0 3199.07795739 0 5029
0.06950000 0.06949320 31755.28794108 0 -314.15595476 0 15460.72823493 0 2301.28718351 0 2084.64612197 0 5040
0.07050000 0.07048030 31901.19158757 0 -779.36714624 0 13136.83610280 0 1022.16632609 0 3676.29978417 0 5475
0.07150000 0.07148790 32948.14579665 0 -418.36353143 0 11854.27785440 0 1396.99931350 0 1280.34384021 0 5509
0.07250000 0.07249820 33125.63567169 0 -335.91223425 0 12109.55303250 0 127.88937963 0 3545.89699504 0 5916
0.07350000 0.07351270 33329.99070198 0 317.74509454 0 10157.05200052 0 -74.62589336 0 1542.14983639 0 5721
0.07450000 0.07449140 33246.58507356 0 550.56932093 0 11965.89751615 0 356.90752169 0 2213.27288828 0 6028
0.07550000 0.07549160 32787.96652374 0 734.26178705 0 11646.32581587 0 1112.20731064 0 2120.45883520 0 6183
0.07650000 0.07648840 32397.12909782 0 1087.91176815 0 11804.70658467 0 475.93814447 0 2121.74026938 0 6330
0.07750000 0.07749960 30434.51148019 0 1632.46846501 0 10960.01664484 0 -139.97757542 0 986.82572019 0 6583
0.07850000 0.07848650 29163.30628902 0 1872.91722480 0 11902.05062000 0 -453.62320464 0 1688.40194305 0 6549
0.07950000 0.07947320 27559.26542971 0 1435.03767557 0 10659.18310933 0 -43.77199320 0 2222.67007229 0 6828
0.08050000 0.08048110 26425.19617746 0 964.20391060 0 12114.94854485 0 281.43891674 0 715.48990033 0 7147
0.08150000 0.08149960 25955.22457040 0 638.66117665 0 11109.05643288 0 599.03226250 0 458.68599373 0 7386
0.08250000 0.08250610 24906.35945069 0 490.60044928 0 10659.41916299 0 1596.28481031 0 -9.00666132 0 7227
0.08350000 0.08350160 24363.43602038 0 486.26155810 0 9960.98132982 0 1925.65835803 0 -568.29133088 0 7798
0.08450000 0.08449610 23943.37290256 0 342.58468452 0 8107.96005682 0 1850.73942091 0 697.03949622 0 7371
0.08550000 0.08548940 23189.46245803 0 242.46420846 0 7991.21465833 0 2347.51997996 0 -1169.34241424 0 8256
0.08650000 0.08650700 23175.97367716 0 -24.10085442 0 6046.31230625 0 1799.21227795 0 1015.17464134 0 8037
0.08750000 0.08749060 22459.94422559 0 510.38736677 0 6273.83431769 0 786.78597572 0 -845.51612766 0 8155
0.08850000 0.08849210 22366.53441802 0 515.23883162 0 5498.46547092 0 -140.96787675 0 1215.60893265 0 8718
0.08950000 0.08949900 21558.33163046 0 753.13933589 0 5066.82448285 0 92.87733795 0 -1248.35294823 0 8571
0.09050000 0.09049190 20981.46143495 0 835.72552087 0 5715.67980565 0 -804.28654484 0 185.81132878 0 8932
0.09150000 0.09150830 20277.57188617 0 565.06189192 0 4942.34551666 0 -177.01102332 0 -1003.30901043 0 9285
0.09250000 0.09250820 19526.58401083 0 632.90596347 0 5224.78934757 0 -354.81226439 0 -168.75926162 0 9204
0.09350000 0.09350330 19418.89857683 0 388.18013608 0 4747.56752079 0 817.75059629 0 -158.99900459 0 9349
0.09450000 0.09448040 18943.30664440 0 -20.97842646 0 5329.02390180 0 359.70869185 0 -930.21443092 0 9564
0.09550000 0.09549270 19163.96061825 0 28.23449132 0 5037.95849177 0 237.42390067 0 496.76032588 0 10155
0.09650000 0.09649430 19302.44543526 0 125.95935990 0 4860.79459560 0 263.96869738 0 -114.98848478 0 9913
0.09750000 0.09749140 19259.39374296 0 152.01069203 0 5236.76064060 0 127.16323359 0 726.48550487 0 10476
0.09850000 0.09850240 18663.41444120 0 734.50008885 0 5643.89701008 0 303.05693623 0 -274.98678322 0 10575
0.09950000 0.09950330 18246.04907956 0 648.11681204 0 5597.27079085 0 659.71603953 0 -150.52917426 0 10882
0.10050000 0.10051200 17373.43736331 0 570.63275842 0 5266.54836504 0 -250.12133974 0 -591.25485625 0 10875
0.10150000 0.10150300 17261.81770155 0 294.15546491 0 4837.42528273 0 397.39072529 0 -752.56718677 0 11118
0.10250000 0.10250800 17238.99918057 0 13.00902990 0 5084.28121344 0 11.84820790 0 -88.77045380 0 11575
0.10350000 0.10349800 17101.97564816 0 101.35908336 0 4668.60194940 0 -202.51268763 0 -351.95489097 0 11364
0.10450000 0.10450100 17058.13711031 0 241.00067574 0 5471.58907502 0 -252.69544876 0 344.29438750 0 12093
0.10550000 0.10551000 16664.82674123 0 277.41363972 0 5087.32742978 0 52.35411763 0 -9.48042103 0 12067
0.10650000 0.10649700 16682.36215637 0 296.30917359 0 5042.51095532 0 551.01557477 0 318.44875927 0 12054
0.10750000 0.10749900 16320.30079633 0 330.94836289 0 5067.35279344 0 544.81635589 0 -24.67952312 0 12807
0.10850000 0.10850100 15740.95765765 0 388.95574098 0 4706.75271798 0 120.85835259 0 -385.60153081 0 12736
0.10950000 0.10950300 15429.47922589 0 386.79416385 0 4487.05419945 0 331.67900518 0 -405.02987153 0 12933
0.11050000 0.11050200 14987.83405867 0 208.66019952 0 4122.54237754 0 507.02528813 0 -652.05216386 0 13428
0.11150000 0.11150900 14855.53159957 0 189.40946108 0 3554.72090587 0 -57.91486754 0 -483.65485120 0 13453
0.11250000 0.11250000 14606.88840540 0 120.25248152 0 3261.99187953 0 467.04454161 0 -1607.43553583 0 13668
0.11350000 0.11349100 14754.25333648 0 -3.40723233 0 3416.70819619 0 29.46815274 0 -585.77728715 0 13791
0.11450000 0.11448600 14763.02104405 0 15.58920887 0 3572.67222508 0 -389.84824865 0 -525.51053826 0 14205
0.11550000 0.11549300 14815.85210249 0 -37.17002180 0 3866.99742382 0 332.53441871 0 86.16194839 0 14776
0.11650000 0.11649800 14846.98870502 0 -70.88275666 0 4670.25432506 0 491.46597939 0 94.24678643 0 14553
0.11750000 0.11747300 14954.33691950 0 119.67246394 0 4085.65056184 0 141.98740377 0 782.65840877 0 14568
0.11850000 0.11849100 14934.44096770 0 214.07594504 0 5096.53352273 0 -131.44929371 0 1607.46925779 0 16015
0.11950000 0.11950300 14821.92205388 0 381.33008353 0 5204.78098927 0 256.41498008 0 1745.25715445 0 15270
0.12050000 0.12050700 14502.46276011 0 420.45316840 0 5184.85131553 0 -168.26354892 0 2457.28493435 0 15999
0.12150000 0.12150000 14407.02963540 0 171.47163064 0 4829.74791828 0 127.77697312 0 2022.08066000 0 15670
0.12250000 0.12250700 14177.27073446 0 43.51739246 0 4913.20974996 0 331.93191983 0 1831.92257158 0 16887
0.12350000 0.12352200 14145.90931892 0 -12.50859613 0 4282.35070899 0 271.96642037 0 589.18657652 0 16407
0.12450000 0.12449800 14056.99577164 0 9.59169223 0 4007.20206039 0 317.76532771 0 311.47955582 0 16306
0.12550000 0.12549900 14106.79185438 0 89.30809412 0 3584.66599941 0 166.22449488 0 -776.43446046 0 17523
0.12650000 0.12650100 13654.69288198 0 286.27239656 0 3499.16960995 0 -65.00636927 0 -830.61327292 0 17154
0.12750000 0.12750600 13760.46740536 0 169.78216084 0 3417.56248565 0 -49.32127765 0 -802.14407681 0 18007
0.12850000 0.12850300 13344.67573482 0 314.20878582 0 3523.85407896 0 -228.20094675 0 -1276.39837181 0 17496
0.12950000 0.12949900 13372.32773562 0 172.54511279 0 3520.00977641 0 28.02755094 0 -630.56565999 0 18405
0.13050000 0.13049000 13232.60644703 0 172.63503799 0 4146.82218312 0 233.81902399 0 -678.70037455 0 18100
0.13150000 0.13148800 13156.17002206 0 240.90288208 0 3802.29623822 0 146.25885105 0 -38.19314583 0 19059
0.13250000 0.13249300 12850.76154170 0 112.99888960 0 3989.35190703 0 544.19474790 0 225.84827855 0 18957
0.13350000 0.13349100 12810.07038605 0 267.00816933 0 3578.98947080 0 258.17076973 0 475.01079079 0 19468
0.13450000 0.13450700 12504.32468617 0 278.17350770 0 3601.02114623 0 525.26324394 0 772.37208929 0 19953
0.13550000 0.13551000 12226.00617407 0 276.51438766 0 3471.46140590 0 196.83053869 0 1200.63638588 0 19956
0.13650000 0.13649900 12075.15664126 0 229.08783409 0 3367.93501267 0 -258.05499103 0 1016.29083796 0 19723
0.13750000 0.13749600 11990.28972824 0 19.32841134 0 3925.03290355 0 103.61013608 0 1377.01343650 0 20946
0.13850000 0.13851100 11899.24045732 0 -59.18944493 0 3643.29723363 0 37.87222526 0 1617.90058166 0 20955
0.13950000 0.13949800 12251.52245123 0 -195.15118547 0 3703.06377356 0 478.74043870 0 1433.95857310 0 20506
0.14050000 0.14048300 12118.32074007 0 -64.03202967 0 3600.12189417 0 281.87392993 0 1454.77625826 0 21447
0.14150000 0.14148400 12351.90146226 0 83.62942978 0 3119.30305915 0 447.10475128 0 1005.50430951 0 21771
0.14250000 0.14249400 12041.99672160 0 197.59602700 0 3059.57024117 0 344.45625287 0 1138.30697758 0 22470
0.14350000 0.14350900 11974.21559770 0 213.01145542 0 2704.36567807 0 -42.18649941 0 752.24907635 0 22519
0.14450000 0.14449900 11715.23100485 0 262.89184304 0 2678.44473748 0 -181.02955596 0 419.63260089 0 22218
0.14550000 0.14550500 11497.49960019 0 264.63301983 0 2481.13759520 0 -387.10215768 0 7.22598488 0 23559
0.14650000 0.14650700 11336.98310776 0 216.51066999 0 2795.33626443 0 -328.87671096 0 -388.27006129 0 23044
0.14750000 0.14750500 11202.14026159 0 258.05836322 0 2645.73444385 0 -410.08591623 0 -390.42489403 0 23649
0.14850000 0.14849900 10986.38721146 0 182.78309747 0 2897.27772591 0 192.08810815 0 -466.69158518 0 23640
0.14950000 0.14949500 10700.32389100 0 235.86819461 0 2754.69007139 0 130.26452913 0 -566.20394204 0 24457
0.15050000 0.15050000 10669.34465759 0 184.31519817 0 2705.65835290 0 401.90272250 0 -529.47736390 0 24591
0.15150000 0.15149900 10315.74750754 0 148.81272690 0 2463.91691828 0 570.87443241 0 -518.45253367 0 25020
0.15250000 0.15250500 10321.07557599 0 125.68733615 0 2407.65746137 0 344.81145743 0 -137.03926932 0 25297
0.15350000 0.15350100 10141.52866186 0 29.54099215 0 2368.78729114 0 493.89395995 0 -67.35825063 0 25452
0.15450000 0.15450400 10129.80466315 0 99.85587114 0 2601.63737104 0 -170.12275255 0 299.95226850 0 26061
0.15550000 0.15549900 10101.48946396 0 118.56525985 0 2677.72533584 0 -261.48001730 0 230.75819479 0 26128
0.15650000 0.15649500 10047.34324939 0 218.06525199 0 3126.49707562 0 -479.31483595 0 869.16420867 0 26331
0.15750000 0.15749700 10018.75827458 0 210.90270934 0 3262.10428604 0 -598.03521678 0 837.53751377 0 27345
0.15850000 0.15849900 9780.86114251 0 234.40578595 0 3773.65506015 0 -317.39663437 0 1053.83910766 0 26980
0.15950000 0.15949700 9764.41607049 0 168.99194309 0 3843.24592883 0 -13.24036250 0 793.35950827 0 27777
0.16050000 0.16050000 9549.92197324 0 104.69564572 0 3614.86962793 0 232.85794835 0 691.59564907 0 28224
0.16150000 0.16150500 9546.57225932 0 -53.55057249 0 3365.50703211 0 464.59970008 0 302.28133133 0 28075
0.16250000 0.16249700 9540.79456485 0 -83.65629494 0 2845.09862522 0 413.74474804 0 -366.65091774 0 28590
0.16350000 0.16349900 9614.83673121 0 -51.39405365 0 2616.74480562 0 244.16267079 0 -426.60180435 0 29163
0.16450000 0.16449100 9478.30778743 0 147.22667108 0 2453.66544481 0 -192.54447857 0 -746.31626089 0 28996
0.16550000 0.16550500 9353.72765538 0 310.66573271 0 2370.58579526 0 -235.29492143 0 -797.04194545 0 30777
0.16650000 0.16650700 9084.00824109 0 292.98643724 0 2567.12857329 0 -94.65358558 0 -865.41095539 0 29211
0.16750000 0.16749900 8914.36434026 0 200.54782189 0 2563.81258133 0 191.79809936 0 -384.38754053 0 30922
0.16850000 0.16850800 8749.43027208 0 58.82805801 0 2409.66953785 0 622.88155115 0 -289.22419144 0 30867
0.16950000 0.16949900 8811.42246087 0 -11.43938544 0 2424.23742120 0 716.08340669 0 279.78766515 0 30852
0.17050000 0.17049200 8781.49984862 0 1.39042353 0 2055.21809835 0 685.95396647 0 173.83666355 0 31257
0.17150000 0.17149500 8622.17486516 0 116.03948563 0 1948.96022699 0 438.09649378 0 758.06498904 0 32608
0.17250000 0.17250900 8520.48069800 0 134.39097201 0 1803.03409920 0 277.29673695 0 1087.48574749 0 32361
0.17350000 0.17350400 8448.46184876 0 56.22494811 0 1801.30303899 0 131.19525501 0 1041.36198535 0 32508
0.17450000 0.17449800 8465.12049315 0 149.68162920 0 1794.51368595 0 -153.58887939 0 1324.60952279 0 32791
0.17550000 0.17549800 8300.99575182 0 108.53410313 0 1859.95675450 0 -196.86988097 0 913.59737694 0 33633
0.17650000 0.17650100 8233.39447833 0 110.67881929 0 1900.60294755 0 -154.65561715 0 1230.41286967 0 33984
0.17750000 0.17750300 8222.99687640 0 81.50134978 0 2040.07694182 0 -12.75926264 0 1077.42086883 0 34069
0.17850000 0.17849800 8230.02228311 0 19.69957763 0 1842.70235563 0 43.61777147 0 846.95717908 0 34536
