### header ###
fiducial parameters:
Omega_m = 0.31
Omega_nu = 0
Omega_de = 0.69
Omega_k = 0
H_0 = 100
w_de = -1
zeff = 0
beta = 0
fgrowth = 0
b_1 = 2
gamma = 0.55
Lx = 3500 Ly = 3500 Lz = 3500
nx = 700 ny = 700 nz = 700
xoffset = 857.220397 yoffset = 15.9954215 zoffset = 262.898189
bins = 400 dk = 0.001
kx_ny = 0.628318531 ky_ny = 0.628318531 kz_ny = 0.628318531
############################
A(data) = 3.09314008 (not used)
A(ran) = 3.10160831 (used)
Ngal = 189384
weighted Ngal = 0
Nran = 9360983
weighted Nran = 0
SN(data) = 3422.10098
SN(ran) = 69.6504662
SN(data+ran) = 3491.75145
############################
13 columns: k_central k_mean P_0(k) sigma^{lin}_{P_0(k)} P^img_1(k) sigma^{lin}_{P_1(k)} P_2(k) sigma^{lin}_{P_2(k)} P^img_3(k) sigma^{lin}_{P_3(k)} P_4(k) sigma^{lin}_{P_4(k)} N_modes
### header ###
0.00050000 0 0 0 0 0 0 0 0 0 0 0 0
0.00150000 0.00179520 10912.08651012 0 -5139.60769633 0 432.17604304 0 176.17134671 0 30357.06339665 0 3
0.00250000 0.00253879 11914.75255533 0 -2198.94105860 0 3816.25712643 0 -3773.52017235 0 -16342.89450430 0 6
0.00350000 0.00331552 21943.09910498 0 -7264.03448124 0 1931.27868339 0 12431.03564340 0 -5576.88025042 0 7
0.00450000 0.00420575 28704.57533269 0 -10249.42766823 0 7007.45538765 0 11789.75651920 0 -225.41326537 0 24
0.00550000 0.00557378 45694.48169306 0 -288.58459841 0 18791.44545303 0 2936.62000347 0 -6649.54182773 0 45
0.00650000 0.00659388 46421.52698234 0 -2330.87257623 0 20354.90756320 0 11148.35374784 0 1223.62351662 0 40
0.00750000 0.00754703 46907.01068741 0 5639.97402297 0 36665.65380641 0 8211.37404354 0 13937.28284136 0 57
0.00850000 0.00846663 50158.48131786 0 572.35819831 0 32824.16141909 0 19582.67485798 0 25779.42079296 0 75
0.00950000 0.00948925 58655.85123795 0 -12867.84733081 0 30462.38829400 0 39299.90030521 0 41558.59666310 0 112
0.01050000 0.01054430 69242.85812893 0 -2575.41293288 0 51045.14384752 0 21491.00013258 0 29197.70268026 0 105
0.01150000 0.01145670 77541.49334410 0 -5043.82611146 0 34146.39916458 0 26621.12071970 0 54170.83159629 0 144
0.01250000 0.01249090 79038.29839544 0 115.87986839 0 59234.51993758 0 12391.91817886 0 38956.61083189 0 169
0.01350000 0.01339930 94271.74067259 0 -5459.13443401 0 46613.85451635 0 5751.40259367 0 41619.74580308 0 180
0.01450000 0.01448870 95183.80707290 0 -7084.35267930 0 64761.43549550 0 438.88895966 0 27232.83693248 0 267
0.01550000 0.01550050 111698.79593989 0 -4386.97868599 0 69570.63550425 0 8748.92444280 0 -24902.20040992 0 238
0.01650000 0.01653350 106380.16964001 0 1179.72877552 0 62799.71712993 0 -1158.97853427 0 1992.48402662 0 315
0.01750000 0.01747870 108444.17792724 0 5351.21294634 0 58556.25907247 0 2003.14016352 0 -22767.15121007 0 297
0.01850000 0.01844180 99629.93406304 0 6776.96584441 0 50555.95072771 0 16939.66065160 0 -16375.04276539 0 388
0.01950000 0.01947590 89710.05979294 0 9106.72559622 0 38675.48215711 0 13730.00524188 0 -30065.03129066 0 399
0.02050000 0.02045430 79155.53838257 0 8065.38047185 0 27655.82261949 0 1931.78451268 0 -21910.16399834 0 462
0.02150000 0.02154770 71490.53864910 0 6449.45824471 0 33883.25553096 0 -13170.10842897 0 -21037.10265606 0 571
0.02250000 0.02255340 68156.33682928 0 5575.55385363 0 33741.51092525 0 -15588.19721422 0 -16912.57068334 0 510
0.02350000 0.02348930 65899.66378852 0 2257.96571559 0 53104.09384191 0 -15712.40640479 0 -13773.95618623 0 555
0.02450000 0.02439640 69508.02507968 0 1325.71110656 0 59466.63937518 0 -13184.83368142 0 -18740.86252474 0 592
0.02550000 0.02547300 70867.69419210 0 993.68701340 0 63674.80178934 0 4568.29038228 0 -13715.50480243 0 837
0.02650000 0.02652900 71268.98542320 0 2324.42044271 0 59228.56239269 0 11044.84983591 0 -17363.54559067 0 723
0.02750000 0.02749970 69895.49031038 0 1442.52394896 0 54617.31024332 0 21520.11341798 0 -15118.22560715 0 826
0.02850000 0.02848090 65577.84395809 0 1626.35355101 0 39714.34309766 0 18321.47384596 0 -20177.41768816 0 831
0.02950000 0.02946900 60577.89010644 0 1701.72211416 0 31101.53169456 0 12539.84514248 0 -21147.71065926 0 996
0.03050000 0.03053250 58674.84793769 0 1601.79272917 0 18357.89355433 0 11950.27301164 0 -18560.56248701 0 1041
0.03150000 0.03150510 55798.81504165 0 1358.17410587 0 14859.01620130 0 2424.58588137 0 -18329.90433401 0 1036
0.03250000 0.03246190 55301.97827934 0 -367.75362558 0 260.87751843 0 5682.59857055 0 -13720.90031478 0 1059
0.03350000 0.03345080 54407.78451369 0 -493.28584074 0 8683.56005880 0 -1745.34707965 0 -15905.74559737 0 1302
0.03450000 0.03451200 57689.60490111 0 631.92690279 0 -539.32867020 0 1084.16301113 0 -6604.73659391 0 1339
0.03550000 0.03553350 53703.78255841 0 1312.68319237 0 3363.34882717 0 2989.11384239 0 -9293.97235610 0 1365
0.03650000 0.03647120 54769.05902819 0 2518.29918652 0 2012.42494102 0 -2165.14042185 0 1982.50232877 0 1308
0.03750000 0.03744890 51221.50965749 0 945.05208988 0 2183.12546302 0 4470.12577945 0 4569.13343109 0 1579
0.03850000 0.03847530 51393.37920716 0 954.83033195 0 4972.84140209 0 5895.59766125 0 10808.61632015 0 1662
0.03950000 0.03950240 49418.50928024 0 -399.43989592 0 2870.98584385 0 5663.70303667 0 9973.69450580 0 1683
0.04050000 0.04050350 51042.44609134 0 269.40467607 0 7390.35691415 0 139.52345313 0 13990.67593233 0 1822
0.04150000 0.04152450 50521.77914948 0 1406.85736419 0 8342.21521805 0 -1924.74786532 0 15894.61735314 0 1887
0.04250000 0.04250150 50447.47844815 0 1475.85247838 0 11678.58648347 0 -2837.87088680 0 16972.14613222 0 1920
0.04350000 0.04349210 47310.77486167 0 2655.69366040 0 15056.96406067 0 -5110.87659307 0 19246.57940112 0 2005
0.04450000 0.04448520 48530.04824646 0 2845.89671142 0 19423.39483712 0 -132.86111945 0 16407.64065251 0 2151
0.04550000 0.04548030 45512.94518375 0 2661.12289471 0 24027.34056352 0 -2066.26765802 0 18014.49167450 0 2274
0.04650000 0.04648670 44400.90760694 0 2275.42244617 0 24260.02203365 0 1364.22157597 0 17596.78909334 0 2311
0.04750000 0.04749250 42455.26337191 0 1322.63116826 0 22044.71458759 0 3041.91117887 0 11995.12320806 0 2568
0.04850000 0.04851840 42911.07175905 0 -936.31698020 0 21684.56413817 0 2809.00489572 0 13783.28592634 0 2493
0.04950000 0.04949480 41605.58258315 0 -726.23259023 0 14761.55975946 0 3684.15699903 0 3487.91771857 0 2644
0.05050000 0.05050630 44536.58226126 0 -1405.37359829 0 15271.32327011 0 3146.29186156 0 8262.59768893 0 2829
0.05150000 0.05149060 43168.03303476 0 -733.60196085 0 8931.29276026 0 319.66724581 0 -2852.78723032 0 2784
0.05250000 0.05249300 43894.85351103 0 719.00260368 0 8727.21874624 0 550.82673184 0 -1780.99118312 0 3055
0.05350000 0.05348950 42241.01656898 0 1600.94968036 0 5065.81282429 0 -1845.29894595 0 -10207.50004100 0 3009
0.05450000 0.05448610 38921.65240812 0 3537.62387611 0 4767.99178317 0 -1807.09197412 0 -8528.42783806 0 3336
0.05550000 0.05550870 35366.12217540 0 3528.63135552 0 7234.19055355 0 -1026.81321110 0 -9418.50752555 0 3349
0.05650000 0.05647670 34092.66885408 0 2224.45733576 0 6474.53613650 0 686.47328453 0 -8130.94718756 0 3324
0.05750000 0.05747970 32580.12689172 0 1161.42899613 0 7922.18582219 0 2178.94394095 0 -7146.06385182 0 3639
0.05850000 0.05849280 31800.36295051 0 99.29923412 0 8842.49161949 0 1147.22081360 0 -5216.33637822 0 3846
0.05950000 0.05951020 32018.76879421 0 325.68324208 0 10457.82933278 0 671.45689922 0 -2584.93376405 0 3787
0.06050000 0.06049470 32242.79496328 0 284.02089422 0 13916.26282449 0 -1051.06041880 0 1013.42334795 0 3930
0.06150000 0.06148310 32484.58136051 0 750.26847369 0 11796.38850313 0 -481.71471488 0 2149.36978888 0 4083
0.06250000 0.06249100 32785.60598708 0 709.28168893 0 15548.96734317 0 -863.31457403 0 3400.60034369 0 4303
0.06350000 0.06350600 31726.84909473 0 383.79740636 0 15791.65299245 0 2153.93349307 0 2543.77050107 0 4470
0.06450000 0.06451750 32157.25361122 0 854.32767377 0 15685.42884304 0 334.71960121 0 4118.01239530 0 4479
0.06550000 0.06550280 30945.73627543 0 7.23706816 0 14328.12026727 0 2705.97309112 0 3788.79621669 0 4636
0.06650000 0.06648880 31938.96017402 0 -44.45733567 0 15742.75616177 0 60.35453838 0 3513.55764289 0 4653
0.06750000 0.06749660 31848.81015516 0 -913.62210637 0 13895.69243365 0 1923.50015309 0 2778.19427207 0 5220
0.06850000 0.06852730 32943.87434937 0 -142.00876101 0 14918.25443065 0 830.62001731 0 2920.01756234 0 5029
0.06950000 0.06949320 31953.68542648 0 -52.98089631 0 11370.92987296 0 686.96787316 0 546.50245350 0 5040
0.07050000 0.07048030 32564.50238720 0 360.64278992 0 13193.15176296 0 852.62696331 0 2344.11406279 0 5475
0.07150000 0.07148790 31741.91156671 0 855.45848323 0 11574.49805770 0 17.17560191 0 -363.23488398 0 5509
0.07250000 0.07249820 31773.49779526 0 623.37951198 0 12276.02706982 0 502.12324035 0 2543.97283279 0 5916
0.07350000 0.07351270 30272.53370315 0 1125.79613331 0 12048.85351855 0 465.54391474 0 -1288.40338679 0 5721
0.07450000 0.07449140 29812.67868175 0 1533.83175485 0 12523.54619892 0 -704.43359627 0 1199.44487690 0 6028
0.07550000 0.07549160 27918.40422056 0 1245.56526685 0 12129.11176477 0 -241.23897753 0 -241.09284907 0 6183
0.07650000 0.07648840 27615.13146384 0 952.57096116 0 13722.81122541 0 -510.88083133 0 -930.59436491 0 6330
0.07750000 0.07749960 26459.81738171 0 166.32678480 0 10725.64907710 0 1317.73024454 0 -2470.69503067 0 6583
0.07850000 0.07848650 26247.59389591 0 27.12234134 0 10779.55923801 0 2398.33896192 0 -2261.41659536 0 6549
0.07950000 0.07947320 25577.31389282 0 -14.19424412 0 6220.21641371 0 1609.67242533 0 -4108.10938200 0 6828
0.08050000 0.08048110 25626.21072350 0 436.65319423 0 6310.11913825 0 2499.95444452 0 -4756.22282185 0 7147
0.08150000 0.08149960 24622.30820671 0 540.23466665 0 5368.37742001 0 390.74188039 0 -3125.78891462 0 7386
0.08250000 0.08250610 23873.11883549 0 832.90973786 0 4376.63728732 0 8.83761318 0 -3997.51261946 0 7227
0.08350000 0.08350160 23943.03568304 0 627.12264867 0 6725.67475513 0 -436.92072172 0 -1887.42890489 0 7798
0.08450000 0.08449610 22958.01745948 0 532.78211522 0 6888.10215819 0 -393.24292517 0 -1483.77713714 0 7371
0.08550000 0.08548940 23239.59576029 0 253.68912228 0 8122.21320195 0 -298.81359058 0 -811.10512358 0 8256
0.08650000 0.08650700 22893.60853080 0 277.82279940 0 8524.44864770 0 245.06417098 0 1123.95154253 0 8037
0.08750000 0.08749060 23612.44814504 0 117.52325152 0 9207.07088530 0 1077.83115258 0 41.90132410 0 8155
0.08850000 0.08849210 22914.17892163 0 194.71392416 0 8479.02517810 0 834.12597627 0 1484.06939406 0 8718
0.08950000 0.08949900 22911.25635244 0 610.11554412 0 7885.54130080 0 749.69070424 0 1273.83550344 0 8571
0.09050000 0.09049190 22040.21832730 0 634.03564887 0 7662.62795616 0 427.35717608 0 1125.13293492 0 8932
0.09150000 0.09150830 21427.26564294 0 1081.54169138 0 8075.05867213 0 519.19441661 0 2625.16405302 0 9285
0.09250000 0.09250820 20529.81208857 0 588.45818235 0 8052.16146659 0 1036.99274441 0 1973.82454641 0 9204
0.09350000 0.09350330 20143.47092295 0 473.69001432 0 7894.71367180 0 1645.70995157 0 3976.57128715 0 9349
0.09450000 0.09448040 19694.74414577 0 324.88515588 0 7709.83868923 0 1437.61178459 0 4147.39545631 0 9564
0.09550000 0.09549270 19173.96479740 0 262.48268335 0 7660.28990081 0 1798.39171045 0 4805.07468993 0 10155
0.09650000 0.09649430 19460.48898454 0 298.64048456 0 7369.37061924 0 751.23629372 0 6116.75746438 0 9913
0.09750000 0.09749140 18766.49120840 0 231.96768881 0 6857.23533128 0 626.01994084 0 4944.78473786 0 10476
0.09850000 0.09850240 18682.86076697 0 474.59825890 0 6058.20491472 0 260.12439483 0 4955.44087476 0 10575
0.09950000 0.09950330 18065.52422882 0 421.74359510 0 5369.62513224 0 342.61953054 0 4816.40526587 0 10882
0.10050000 0.10051200 17495.84804977 0 301.54844090 0 5091.21669494 0 105.60816175 0 3387.26893193 0 10875
0.10150000 0.10150300 17637.48024898 0 38.44190143 0 5047.78282051 0 820.85976028 0 4012.48516624 0 11118
0.10250000 0.10250800 17342.18835428 0 -203.12193090 0 3839.88497426 0 1087.76563969 0 2256.16721147 0 11575
0.10350000 0.10349800 17481.57242334 0 36.83246506 0 3899.14568492 0 88.16649363 0 1807.66524730 0 11364
0.10450000 0.10450100 17441.66811325 0 125.45240655 0 3819.82041271 0 71.53954789 0 665.69831385 0 12093
0.10550000 0.10551000 17191.45122798 0 549.29350708 0 4249.25823323 0 -1166.34116050 0 866.29334647 0 12067
0.10650000 0.10649700 16874.46487736 0 575.78547272 0 4919.31342331 0 -1437.74667240 0 494.65382794 0 12054
0.10750000 0.10749900 16664.60192822 0 338.92135645 0 5410.56358220 0 -992.20661970 0 435.00756296 0 12807
0.10850000 0.10850100 16660.78010697 0 5.10534619 0 5721.54742533 0 -910.89287638 0 -757.26353064 0 12736
0.10950000 0.10950300 16709.45212463 0 -17.16795827 0 5661.11768700 0 -57.66341418 0 -1388.02927421 0 12933
0.11050000 0.11050200 16813.65295691 0 24.03554624 0 6603.44391908 0 -281.66485382 0 -1100.69688429 0 13428
0.11150000 0.11150900 16786.90020817 0 343.16020584 0 5908.18719007 0 -525.53976395 0 -1559.98874910 0 13453
0.11250000 0.11250000 16652.57443193 0 326.19581576 0 7023.51827755 0 -24.32027192 0 -1993.23715022 0 13668
0.11350000 0.11349100 16192.49459751 0 466.17901151 0 6376.21416455 0 -342.89942274 0 -1576.92840975 0 13791
0.11450000 0.11448600 16096.72425329 0 390.69017339 0 6556.82894050 0 205.80170204 0 -1301.17276602 0 14205
0.11550000 0.11549300 15657.77684224 0 251.26563799 0 6244.30512822 0 672.44158022 0 -1361.56878239 0 14776
0.11650000 0.11649800 15416.66488406 0 129.22701706 0 6581.87311033 0 833.80224553 0 -788.97453042 0 14553
0.11750000 0.11747300 15331.68556454 0 170.10589158 0 6247.80097060 0 1115.00286048 0 -270.98511156 0 14568
0.11850000 0.11849100 15250.86528578 0 167.27661979 0 6086.63252042 0 610.48311340 0 72.48218886 0 16015
0.11950000 0.11950300 14824.39499705 0 244.95064040 0 6198.89289927 0 107.37181985 0 425.75313522 0 15270
0.12050000 0.12050700 14829.67810289 0 258.24945428 0 6548.91552238 0 290.81586758 0 903.44032494 0 15999
0.12150000 0.12150000 14486.50103607 0 105.66582629 0 6327.04755825 0 256.97813669 0 896.39805726 0 15670
0.12250000 0.12250700 14653.76191895 0 68.76040940 0 6386.97146730 0 334.94553829 0 1684.42275269 0 16887
0.12350000 0.12352200 14635.88928429 0 161.64168158 0 6330.98178601 0 514.00011191 0 1067.48413358 0 16407
0.12450000 0.12449800 14365.77644722 0 411.85069839 0 5748.55870903 0 102.48090031 0 1293.57408612 0 16306
0.12550000 0.12549900 13970.10554149 0 552.65783384 0 5980.94792225 0 -130.77597873 0 1155.03306586 0 17523
0.12650000 0.12650100 13268.12690334 0 679.06794383 0 5760.60868662 0 -35.92152273 0 1249.37584745 0 17154
0.12750000 0.12750600 12885.94477849 0 367.69405013 0 5733.00164842 0 616.10119063 0 1250.84837269 0 18007
0.12850000 0.12850300 12515.22811738 0 115.68877732 0 5280.43056869 0 571.61294317 0 903.62916787 0 17496
0.12950000 0.12949900 12620.55301473 0 -79.23804476 0 4620.86290575 0 573.82060697 0 518.41094326 0 18405
0.13050000 0.13049000 12625.94852708 0 -147.66955272 0 4517.41519707 0 664.32021007 0 102.57363568 0 18100
0.13150000 0.13148800 12564.91179361 0 46.42905822 0 3857.83629348 0 261.32264819 0 338.53805026 0 19059
0.13250000 0.13249300 12542.99252468 0 201.64266127 0 4012.41772233 0 -24.75438585 0 -198.39748540 0 18957
0.13350000 0.13349100 12351.78905575 0 346.79206009 0 4090.72009532 0 -80.68505373 0 360.10661088 0 19468
0.13450000 0.13450700 12183.29170129 0 327.06134586 0 4358.77589331 0 -203.97060003 0 460.23270727 0 19953
0.13550000 0.13551000 11984.44458986 0 110.21503004 0 4913.28843452 0 -294.50392509 0 1051.98889655 0 19956
0.13650000 0.13649900 12152.26750527 0 19.81265857 0 5185.45831067 0 -134.43256242 0 1369.43723791 0 19723
0.13750000 0.13749600 12282.20942772 0 44.00669799 0 5901.02689555 0 -187.01745060 0 1446.04227264 0 20946
0.13850000 0.13851100 12237.35923131 0 175.11472554 0 5866.54057911 0 -70.21281388 0 1948.72417333 0 20955
0.13950000 0.13949800 12166.65553821 0 281.03200519 0 6182.39162400 0 56.50843732 0 1762.80381024 0 20506
0.14050000 0.14048300 11691.96285784 0 350.76675419 0 5749.68277411 0 351.08149241 0 1476.30210441 0 21447
0.14150000 0.14148400 11599.90192835 0 166.40322123 0 5803.42432525 0 638.39027697 0 1488.27339743 0 21771
0.14250000 0.14249400 11230.25312906 0 -26.04447534 0 4782.69455432 0 858.45186852 0 1063.25540077 0 22470
0.14350000 0.14350900 11340.80492900 0 -93.59291777 0 4342.71300341 0 1108.53723818 0 902.43990703 0 22519
0.14450000 0.14449900 11347.43691294 0 -96.44219792 0 3530.64343200 0 892.65154837 0 735.41282968 0 22218
0.14550000 0.14550500 11113.83370944 0 0.46938035 0 3083.47910527 0 794.15085008 0 744.13445059 0 23559
0.14650000 0.14650700 11070.57968543 0 284.91452595 0 2614.22689986 0 296.97686825 0 562.74182161 0 23044
0.14750000 0.14750500 10720.29852735 0 354.71784292 0 2488.87116290 0 -13.98921465 0 899.43303296 0 23649
0.14850000 0.14849900 10451.39968057 0 315.02598113 0 2654.09748800 0 -113.40018083 0 597.30120228 0 23640
0.14950000 0.14949500 10272.71829655 0 231.52368311 0 2787.87247235 0 8.25221133 0 1534.02284591 0 24457
0.15050000 0.15050000 10147.08154333 0 190.69763965 0 2615.98044137 0 -9.54798858 0 940.86607155 0 24591
0.15150000 0.15149900 9946.82935055 0 72.01547704 0 2933.21408630 0 126.81702155 0 1010.94703260 0 25020
0.15250000 0.15250500 10091.02441813 0 88.16312144 0 2995.80202957 0 -179.12651379 0 936.33608931 0 25297
0.15350000 0.15350100 9964.49965350 0 88.10568171 0 2969.46518491 0 -108.37527274 0 441.31131989 0 25452
0.15450000 0.15450400 10032.04472374 0 73.94426030 0 3341.31715174 0 -311.31656639 0 977.31725374 0 26061
0.15550000 0.15549900 9941.93966748 0 68.81829875 0 3216.69205708 0 -269.24505883 0 267.64776236 0 26128
0.15650000 0.15649500 10018.52222091 0 73.93605462 0 3618.17437924 0 -77.95301357 0 592.02933709 0 26331
0.15750000 0.15749700 9929.82224600 0 -12.52545711 0 3099.59819842 0 172.33154042 0 86.07449613 0 27345
0.15850000 0.15849900 9777.12924647 0 86.81671629 0 3069.19223819 0 427.82253902 0 71.15455560 0 26980
0.15950000 0.15949700 9839.26756371 0 114.41071534 0 2667.18160545 0 422.40904162 0 -242.95879709 0 27777
0.16050000 0.16050000 9541.37907869 0 160.05000543 0 2441.07591600 0 323.79706089 0 -532.08969113 0 28224
0.16150000 0.16150500 9546.95444145 0 217.90900694 0 2601.45752063 0 -97.56918556 0 -285.38438515 0 28075
0.16250000 0.16249700 9353.19934480 0 118.09427658 0 2462.56804019 0 -300.29398428 0 -652.74009169 0 28590
0.16350000 0.16349900 9463.33524066 0 77.87601511 0 2931.61791390 0 -360.12909218 0 231.04033512 0 29163
0.16450000 0.16449100 9352.59234966 0 58.98531471 0 3012.30330484 0 -147.69315808 0 -378.37604052 0 28996
0.16550000 0.16550500 9481.08422816 0 79.37866530 0 3179.44054056 0 136.06695303 0 318.58589521 0 30777
0.16650000 0.16650700 9265.15132762 0 155.48742530 0 3255.89944683 0 254.60748345 0 37.59514322 0 29211
0.16750000 0.16749900 9211.35357322 0 134.15941460 0 2962.14752128 0 400.64601774 0 537.26938299 0 30922
0.16850000 0.16850800 9060.74009408 0 168.82445739 0 2821.22348307 0 554.77557244 0 384.64719956 0 30867
0.16950000 0.16949900 8776.98110703 0 184.69962842 0 2881.78810921 0 176.04320329 0 664.74285854 0 30852
0.17050000 0.17049200 8675.61291873 0 222.78744936 0 2357.49043716 0 156.80370550 0 220.06608782 0 31257
0.17150000 0.17149500 8413.09876156 0 259.62081367 0 2697.87982260 0 -83.13259302 0 295.36495893 0 32608
0.17250000 0.17250900 8194.80532437 0 286.24204680 0 2437.16416954 0 -157.95137594 0 583.98665149 0 32361
0.17350000 0.17350400 7993.91241450 0 215.26295776 0 2721.49642978 0 81.36185331 0 390.60474445 0 32508
0.17450000 0.17449800 7738.56979250 0 204.31906021 0 2477.41693981 0 13.54925558 0 433.65980894 0 32791
0.17550000 0.17549800 7722.41697740 0 91.98145809 0 2724.49768353 0 129.80478651 0 364.98055704 0 33633
0.17650000 0.17650100 7681.98435672 0 41.35379201 0 2646.06042273 0 -43.20692569 0 544.88942012 0 33984
0.17750000 0.17750300 7712.32287304 0 16.96596377 0 2583.39379490 0 -45.82936950 0 427.17058127 0 34069
0.17850000 0.17849800 7814.54535079 0 -55.04288128 0 2862.00456392 0 -24.56025981 0 385.75440366 0 34536
