### header ###
fiducial parameters:
Omega_m = 0.31
Omega_nu = 0
Omega_de = 0.69
Omega_k = 0
H_0 = 100
w_de = -1
zeff = 0
beta = 0
fgrowth = 0
b_1 = 2
gamma = 0.55
Lx = 3500 Ly = 3500 Lz = 3500
nx = 700 ny = 700 nz = 700
xoffset = 857.220397 yoffset = 15.9954215 zoffset = 262.898189
bins = 400 dk = 0.001
kx_ny = 0.628318531 ky_ny = 0.628318531 kz_ny = 0.628318531
############################
A(data) = 3.10702755 (not used)
A(ran) = 3.10220281 (used)
Ngal = 189175
weighted Ngal = 0
Nran = 9360983
weighted Nran = 0
SN(data) = 3462.46717
SN(ran) = 69.6638165
SN(data+ran) = 3532.13099
############################
13 columns: k_central k_mean P_0(k) sigma^{lin}_{P_0(k)} P^img_1(k) sigma^{lin}_{P_1(k)} P_2(k) sigma^{lin}_{P_2(k)} P^img_3(k) sigma^{lin}_{P_3(k)} P_4(k) sigma^{lin}_{P_4(k)} N_modes
### header ###
0.00050000 0 0 0 0 0 0 0 0 0 0 0 0
0.00150000 0.00179520 3612.09318720 0 -812.55291939 0 10724.01918274 0 27069.06065133 0 4362.75508366 0 3
0.00250000 0.00253879 9856.52196258 0 -4594.71715215 0 15042.23880821 0 7332.99587347 0 1004.08461533 0 6
0.00350000 0.00331552 19826.93419837 0 -7131.11378634 0 32142.86557828 0 3487.85027467 0 -28092.74671340 0 7
0.00450000 0.00420575 33460.04503094 0 -7353.39765455 0 37583.45293859 0 12239.83217447 0 -6691.53689886 0 24
0.00550000 0.00557378 44911.57036965 0 4604.78877520 0 58904.71924513 0 6793.18610342 0 4030.66129847 0 45
0.00650000 0.00659388 60075.99505130 0 4041.00269714 0 51201.27648617 0 15086.41456559 0 -39178.83849684 0 40
0.00750000 0.00754703 55966.52555056 0 -529.71229350 0 65115.62840004 0 34922.45369104 0 1563.78808904 0 57
0.00850000 0.00846663 59536.78103574 0 2654.58083598 0 58128.66471867 0 25510.99405351 0 -11221.92380687 0 75
0.00950000 0.00948925 69235.43929945 0 -5599.87862182 0 53757.85008843 0 43217.71671099 0 -2609.96669323 0 112
0.01050000 0.01054430 61307.40833888 0 6484.51783434 0 22901.13976678 0 29358.44398571 0 -28939.95455900 0 105
0.01150000 0.01145670 64966.91459087 0 5759.00127356 0 30230.49366942 0 19209.93487974 0 5320.55969180 0 144
0.01250000 0.01249090 54326.06498288 0 2379.88181342 0 14304.96452677 0 5353.89946187 0 -8514.72548482 0 169
0.01350000 0.01339930 55017.36500284 0 -200.74116108 0 28729.86679683 0 1699.87864744 0 24621.74617418 0 180
0.01450000 0.01448870 59614.79115181 0 -4191.94215516 0 24545.75937524 0 4169.87675777 0 21394.89256883 0 267
0.01550000 0.01550050 66331.97921564 0 1356.15078874 0 28023.95393093 0 -501.59830196 0 10449.00542196 0 238
0.01650000 0.01653350 65401.81536765 0 -828.96539352 0 28589.69588222 0 8673.38726989 0 35200.77220314 0 315
0.01750000 0.01747870 68044.15513498 0 1334.25400112 0 41220.36548260 0 7482.82250707 0 10862.77377537 0 297
0.01850000 0.01844180 72885.05377879 0 -4158.44501598 0 44942.25734614 0 5386.92449372 0 31069.83305950 0 388
0.01950000 0.01947590 68805.82162851 0 718.28545017 0 41992.14856179 0 3881.54282587 0 20362.77601871 0 399
0.02050000 0.02045430 72457.45942498 0 1595.25067044 0 54449.26251489 0 4483.73820748 0 24520.46791109 0 462
0.02150000 0.02154770 72946.42773178 0 3077.49907908 0 52528.79733750 0 2497.00939403 0 37194.41401679 0 571
0.02250000 0.02255340 67878.24313019 0 -604.13326980 0 45712.01710820 0 20904.46297744 0 6864.33942255 0 510
0.02350000 0.02348930 80412.24313429 0 407.49944250 0 65131.59012407 0 11086.54140947 0 54239.96159828 0 555
0.02450000 0.02439640 69409.78179229 0 -187.15795874 0 39192.88931025 0 18799.76353457 0 587.14302622 0 592
0.02550000 0.02547300 75142.17644557 0 4121.38459052 0 57185.46171583 0 9484.24285102 0 48891.65998048 0 837
0.02650000 0.02652900 66965.05266481 0 3699.99507591 0 35453.68684459 0 4912.11940684 0 20522.50566560 0 723
0.02750000 0.02749970 64467.60488539 0 6036.76899378 0 42645.67999529 0 10456.27812298 0 42591.94968480 0 826
0.02850000 0.02848090 63163.91421361 0 2378.02710605 0 31899.84270948 0 6300.69947294 0 22348.43697034 0 831
0.02950000 0.02946900 56747.75077636 0 3694.71197007 0 30378.42063304 0 5818.04841185 0 21949.61868241 0 996
0.03050000 0.03053250 53897.00934448 0 3907.10406563 0 23457.88919749 0 1919.82446030 0 14001.57936354 0 1041
0.03150000 0.03150510 49992.00728053 0 3003.59180053 0 22320.67256304 0 -905.11630597 0 3201.34856884 0 1036
0.03250000 0.03246190 48382.12128284 0 2840.52368037 0 16654.48534256 0 -849.53690843 0 1988.89825904 0 1059
0.03350000 0.03345080 46685.45746150 0 1264.02241535 0 25693.99184741 0 763.28177504 0 -583.71575181 0 1302
0.03450000 0.03451200 45573.98191722 0 1765.69265747 0 23729.12609963 0 -2763.96360824 0 -2558.88917631 0 1339
0.03550000 0.03553350 44555.24174147 0 1001.28344516 0 26922.37015929 0 1279.45582880 0 -1757.54318569 0 1365
0.03650000 0.03647120 43726.13134356 0 1448.96484183 0 26597.40294666 0 1077.24214248 0 1469.81624893 0 1308
0.03750000 0.03744890 42853.63203382 0 -494.50994761 0 25122.51716424 0 2500.86493723 0 2216.25166073 0 1579
0.03850000 0.03847530 43499.40741831 0 -1692.97688790 0 22942.84258100 0 2403.93680598 0 -250.40123194 0 1662
0.03950000 0.03950240 48109.08587658 0 -2183.12546302 0 25058.78267460 0 35.71840417 0 2758.12971051 0 1683
0.04050000 0.04050350 48773.18352177 0 -1603.41138287 0 24070.50466233 0 3175.20281524 0 -2386.83977622 0 1822
0.04150000 0.04152450 51259.72786997 0 590.48262355 0 26368.54329777 0 -1487.17181366 0 2945.43267364 0 1887
0.04250000 0.04250150 49629.27148144 0 2219.65757790 0 24292.61992077 0 -381.52567085 0 -3891.20978550 0 1920
0.04350000 0.04349210 48681.23499879 0 3472.75408074 0 32172.42848971 0 1086.64045056 0 1846.79395250 0 2005
0.04450000 0.04448520 45285.88403899 0 2856.12570359 0 27617.71681351 0 3605.36003741 0 -93.44195584 0 2151
0.04550000 0.04548030 42304.97587164 0 1962.84243065 0 27374.35672518 0 4700.04204950 0 73.70348556 0 2274
0.04650000 0.04648670 40443.41170408 0 1091.17605313 0 25326.53497501 0 5755.71900355 0 1106.07441160 0 2311
0.04750000 0.04749250 38747.08510226 0 1474.86330111 0 21109.04282074 0 7571.36511287 0 1502.75135558 0 2568
0.04850000 0.04851840 36426.11553933 0 681.53751480 0 16939.88546462 0 7740.12100230 0 3800.19423653 0 2493
0.04950000 0.04949480 35285.86392918 0 738.26907904 0 15277.50562801 0 4897.25926657 0 5827.60296498 0 2644
0.05050000 0.05050630 35191.77968256 0 200.31176822 0 12968.11393533 0 3603.02198206 0 9669.70234743 0 2829
0.05150000 0.05149060 35849.13293731 0 -94.52128312 0 10723.73816648 0 2425.62002124 0 9255.49560864 0 2784
0.05250000 0.05249300 36975.67095357 0 183.37435570 0 13367.15703628 0 -3171.89806392 0 12618.86691712 0 3055
0.05350000 0.05348950 37105.95009554 0 160.80987342 0 13170.78286801 0 -2771.47236293 0 7819.03037043 0 3009
0.05450000 0.05448610 37771.95865135 0 350.89602167 0 17682.44285191 0 -2963.58632458 0 11163.92204910 0 3336
0.05550000 0.05550870 37032.43623976 0 532.54156529 0 15456.11956813 0 -1005.80218676 0 5655.16014211 0 3349
0.05650000 0.05647670 36989.83417349 0 586.88111906 0 17500.45671657 0 538.55868563 0 1461.98151537 0 3324
0.05750000 0.05747970 36592.02754412 0 450.98952017 0 17428.17933237 0 620.77392914 0 2168.62502358 0 3639
0.05850000 0.05849280 35970.86918472 0 739.28973012 0 15675.53707040 0 2526.84208107 0 219.38490438 0 3846
0.05950000 0.05951020 35124.44818468 0 1057.57662403 0 14925.67326013 0 1125.24534143 0 1482.34957450 0 3787
0.06050000 0.06049470 34524.30984215 0 905.34898744 0 15482.53509735 0 2190.15086973 0 2802.14809878 0 3930
0.06150000 0.06148310 33387.31802071 0 1072.94259357 0 13770.69639752 0 1277.00536694 0 4744.26276947 0 4083
0.06250000 0.06249100 33723.63829058 0 159.54192802 0 15228.27157781 0 2754.24044536 0 5353.22502283 0 4303
0.06350000 0.06350600 32491.88778348 0 762.05879224 0 15046.39784898 0 1945.46438462 0 5993.84094864 0 4470
0.06450000 0.06451750 32720.52261935 0 586.45060213 0 14853.73309545 0 2766.15553514 0 6074.47013633 0 4479
0.06550000 0.06550280 30706.08560185 0 890.31349302 0 12745.09942483 0 1437.20712116 0 5389.29627102 0 4636
0.06650000 0.06648880 30064.46925812 0 1032.68307892 0 11821.11793474 0 2103.03582656 0 4662.32966630 0 4653
0.06750000 0.06749660 29897.32078175 0 69.00747890 0 9928.54081181 0 1762.91621674 0 2397.82189198 0 5220
0.06850000 0.06852730 29503.89800617 0 -436.71276968 0 8319.63275073 0 783.27214830 0 500.35733412 0 5029
0.06950000 0.06949320 29430.49655690 0 -14.36555163 0 7451.50605413 0 782.60445365 0 -1585.62867342 0 5040
0.07050000 0.07048030 29507.38260790 0 79.93777527 0 5993.43628521 0 -674.60428143 0 -2395.78733420 0 5475
0.07150000 0.07148790 29668.91075890 0 357.90793960 0 5169.73264029 0 -81.89803235 0 -3591.23053944 0 5509
0.07250000 0.07249820 29642.83244920 0 -106.80427939 0 6627.22913603 0 -466.25769606 0 -3365.74308578 0 5916
0.07350000 0.07351270 29729.16064682 0 492.52934495 0 4750.95095666 0 -750.91368704 0 -5689.46660814 0 5721
0.07450000 0.07449140 29106.65340934 0 770.79277786 0 8443.75201611 0 -819.14106478 0 -4387.22598031 0 6028
0.07550000 0.07549160 27875.91456080 0 855.50007364 0 7538.04782411 0 -2258.49402617 0 -2646.53253006 0 6183
0.07650000 0.07648840 28460.09117929 0 957.27404942 0 11027.12332971 0 -1115.01747333 0 -2361.98669745 0 6330
0.07750000 0.07749960 28044.07469574 0 643.98812103 0 12320.09042069 0 -2051.09277953 0 -2706.90606513 0 6583
0.07850000 0.07848650 27429.09869424 0 117.83798974 0 11793.01630791 0 596.60090974 0 -2328.25350461 0 6549
0.07950000 0.07947320 27834.09934008 0 299.35426588 0 13125.70785858 0 -505.33019800 0 -1400.50639653 0 6828
0.08050000 0.08048110 27277.12509636 0 283.06094264 0 12408.44193543 0 1175.24375588 0 -2308.82966015 0 7147
0.08150000 0.08149960 27051.07561016 0 634.75055426 0 13222.15264185 0 326.08565738 0 -877.79478030 0 7386
0.08250000 0.08250610 26182.96015420 0 672.34378656 0 11855.28951296 0 1069.45349559 0 -2636.31477854 0 7227
0.08350000 0.08350160 25727.71379960 0 899.19585523 0 12158.67467619 0 715.79452196 0 -860.10874044 0 7798
0.08450000 0.08449610 24546.43381428 0 1033.91730237 0 11476.36717682 0 1395.59423216 0 -1826.34720882 0 7371
0.08550000 0.08548940 23444.06319709 0 699.85752736 0 10029.88651880 0 1678.57761431 0 -2579.59445495 0 8256
0.08650000 0.08650700 22529.52385362 0 515.94362042 0 7900.16538741 0 2597.97291890 0 -3197.33565653 0 8037
0.08750000 0.08749060 22294.81906636 0 147.44923596 0 6942.92281181 0 2217.44316970 0 -3234.37360068 0 8155
0.08850000 0.08849210 21636.56655955 0 106.73065313 0 4999.40305977 0 2168.20911950 0 -2440.00805418 0 8718
0.08950000 0.08949900 21729.41433459 0 -129.30345349 0 3732.85149800 0 1631.76030402 0 -2915.97092808 0 8571
0.09050000 0.09049190 21132.64818728 0 203.76152393 0 3805.27501066 0 680.96199348 0 -1576.36637721 0 8932
0.09150000 0.09150830 21205.15038449 0 421.98414503 0 3683.83102016 0 422.48547805 0 -738.11957838 0 9285
0.09250000 0.09250820 20707.97640266 0 596.07597135 0 4455.52417415 0 -261.55083340 0 558.67158198 0 9204
0.09350000 0.09350330 20224.85323424 0 946.83260896 0 4665.29719809 0 31.13885065 0 865.19288676 0 9349
0.09450000 0.09448040 19646.29694112 0 721.69361547 0 5049.90730350 0 -112.08873411 0 849.27724939 0 9564
0.09550000 0.09549270 18761.09569605 0 503.53169389 0 4749.80441028 0 75.91811857 0 912.43958992 0 10155
0.09650000 0.09649430 18503.45998130 0 216.82765634 0 4655.36046284 0 -256.09799373 0 670.87688164 0 9913
0.09750000 0.09749140 18739.06402062 0 -72.17981535 0 3961.27276151 0 470.01432154 0 732.42956098 0 10476
0.09850000 0.09850240 18490.75804597 0 84.87961495 0 4338.38535288 0 -45.03724084 0 -178.26098368 0 10575
0.09950000 0.09950330 18536.39508794 0 224.70285624 0 3263.55432998 0 396.58814283 0 -209.95175029 0 10882
0.10050000 0.10051200 18030.45339854 0 439.31835252 0 4039.82242881 0 156.30462061 0 -694.23720199 0 10875
0.10150000 0.10150300 17468.64567500 0 593.42092965 0 3679.55957289 0 -158.44146831 0 -1141.25202807 0 11118
0.10250000 0.10250800 17480.11113875 0 594.85636075 0 4953.17026331 0 -199.41588836 0 -171.06584315 0 11575
0.10350000 0.10349800 16778.13250060 0 502.76508151 0 4798.88109138 0 -847.33374088 0 -1432.45232590 0 11364
0.10450000 0.10450100 16704.05661228 0 472.82448422 0 6111.78909676 0 -1071.58921923 0 -395.17069677 0 12093
0.10550000 0.10551000 16281.07092527 0 341.21557326 0 6353.14834925 0 -1174.86157375 0 -1652.91520869 0 12067
0.10650000 0.10649700 16325.24668265 0 263.55728956 0 7068.10993900 0 -835.90537128 0 -703.53322015 0 12054
0.10750000 0.10749900 16267.80695741 0 -11.23921193 0 6960.66055866 0 -315.88027058 0 -2116.65949525 0 12807
0.10850000 0.10850100 16345.81707349 0 -120.53237372 0 7112.90393216 0 284.30865487 0 -1645.22660359 0 12736
0.10950000 0.10950300 16459.12283285 0 56.98638979 0 6859.69703379 0 261.66211585 0 -2956.51595527 0 12933
0.11050000 0.11050200 16282.53220987 0 387.62147574 0 6613.31321042 0 475.27494608 0 -2183.65377361 0 13428
0.11150000 0.11150900 15501.41939057 0 575.91024394 0 6657.92735317 0 418.76482266 0 -1714.04186737 0 13453
0.11250000 0.11250000 15281.88948180 0 566.03083601 0 6000.51789517 0 321.35896375 0 -2104.77812743 0 13668
0.11350000 0.11349100 14839.34506252 0 254.60186312 0 6301.18282092 0 699.48433775 0 -1469.36662290 0 13791
0.11450000 0.11448600 14586.20560806 0 191.18435983 0 6115.12757002 0 433.51930081 0 -1856.50587473 0 14205
0.11550000 0.11549300 14700.74783900 0 -14.01225798 0 5551.79111799 0 734.07519225 0 -935.49866083 0 14776
0.11650000 0.11649800 14490.32285732 0 57.17410866 0 5757.14656619 0 618.25602338 0 -753.49229232 0 14553
0.11750000 0.11747300 14669.83604949 0 -52.94908527 0 5085.25915005 0 1029.01413052 0 100.39373628 0 14568
0.11850000 0.11849100 14616.78017804 0 -113.47324506 0 5404.12268934 0 1261.69560065 0 993.45770413 0 16015
0.11950000 0.11950300 14685.79777353 0 -23.06446642 0 4975.82017453 0 1104.10392553 0 1603.92845281 0 15270
0.12050000 0.12050700 14621.38884484 0 206.64475084 0 5052.49265317 0 713.21142043 0 2928.17827477 0 15999
0.12150000 0.12150000 14315.53073845 0 230.39062551 0 4621.71719521 0 684.28248170 0 3078.42081244 0 15670
0.12250000 0.12250700 14263.14930605 0 297.36354663 0 5307.19455808 0 549.91061880 0 4239.84980857 0 16887
0.12350000 0.12352200 13901.31275902 0 299.54310881 0 4557.61176409 0 440.40644751 0 3760.09883537 0 16407
0.12450000 0.12449800 13656.94101212 0 184.50066890 0 5013.33022602 0 304.88466604 0 3817.79709558 0 16306
0.12550000 0.12549900 13380.53341065 0 296.16754140 0 4521.51803459 0 -175.66102117 0 3261.83451042 0 17523
0.12650000 0.12650100 13176.74041290 0 325.59219281 0 4407.41418902 0 -153.57876281 0 3174.08999081 0 17154
0.12750000 0.12750600 12992.39374091 0 174.41780520 0 4421.18398616 0 -237.31599043 0 2654.56959533 0 18007
0.12850000 0.12850300 12991.49448885 0 162.49484697 0 4384.07859810 0 -575.97094346 0 1886.10250811 0 17496
0.12950000 0.12949900 13008.58027796 0 -0.04078546 0 4340.94822125 0 -389.49529222 0 1686.89569585 0 18405
0.13050000 0.13049000 12962.94323599 0 81.26136189 0 4650.20100416 0 -442.83892433 0 1485.71052907 0 18100
0.13150000 0.13148800 12847.38934648 0 82.14049318 0 4537.59216513 0 -439.09016731 0 1331.73609535 0 19059
0.13250000 0.13249300 12777.02287290 0 166.44818383 0 4908.44371405 0 -48.84152668 0 696.13799603 0 18957
0.13350000 0.13349100 12797.81807676 0 135.94105775 0 4823.56556038 0 50.93026440 0 124.15860765 0 19468
0.13450000 0.13450700 12592.33898139 0 -9.76823789 0 4625.98864248 0 90.86211409 0 -237.45987076 0 19953
0.13550000 0.13551000 12659.33325975 0 41.16753442 0 4447.62199668 0 -161.21790904 0 -714.78623559 0 19956
0.13650000 0.13649900 12640.44896652 0 20.78654855 0 3996.28738853 0 167.65767785 0 -1162.98020593 0 19723
0.13750000 0.13749600 12520.62362973 0 179.91785560 0 3932.92384036 0 70.18044081 0 -1226.71469557 0 20946
0.13850000 0.13851100 12417.20964300 0 222.91222058 0 3218.23202623 0 508.55626476 0 -897.49739290 0 20955
0.13950000 0.13949800 12032.10494896 0 313.15666091 0 3865.25512296 0 523.81657219 0 -855.28537721 0 20506
0.14050000 0.14048300 11900.13970938 0 348.24435217 0 3196.03174104 0 683.14605192 0 -394.86157888 0 21447
0.14150000 0.14148400 11529.76026779 0 110.14297747 0 3419.32726781 0 644.63895471 0 -222.78857342 0 21771
0.14250000 0.14249400 11444.89335477 0 189.88269247 0 3112.16524594 0 424.88423292 0 587.29365094 0 22470
0.14350000 0.14350900 11422.18724030 0 37.24095031 0 3411.79603182 0 186.18339432 0 1091.76393916 0 22519
0.14450000 0.14449900 11302.36190350 0 142.93049437 0 3271.99605868 0 146.85797774 0 1230.07565014 0 22218
0.14550000 0.14550500 11161.16808967 0 229.50486223 0 3415.71901893 0 -261.95999309 0 1235.86458527 0 23559
0.14650000 0.14650700 10974.84306316 0 300.27262704 0 3612.29551891 0 22.72825856 0 904.15410626 0 23044
0.14750000 0.14750500 10831.72709805 0 195.23436629 0 3437.34603093 0 -190.60659038 0 1218.67763030 0 23649
0.14850000 0.14849900 10612.28711448 0 99.13433377 0 3445.47302141 0 373.67969664 0 741.26696059 0 23640
0.14950000 0.14949500 10562.70460410 0 61.07686259 0 3136.01790679 0 380.28807521 0 777.82717709 0 24457
0.15050000 0.15050000 10452.35513588 0 161.48993279 0 2205.46063602 0 612.99764696 0 204.80690445 0 24591
0.15150000 0.15149900 10154.98372079 0 296.85097296 0 2368.10161145 0 322.91017355 0 588.12321096 0 25020
0.15250000 0.15250500 9859.08483095 0 297.94918454 0 1870.60165075 0 329.45110821 0 252.14128468 0 25297
0.15350000 0.15350100 9608.09234077 0 252.12105151 0 1995.96862835 0 135.80729400 0 360.04029104 0 25452
0.15450000 0.15450400 9371.03825751 0 221.82187746 0 1587.62950925 0 63.13884756 0 343.87173903 0 26061
0.15550000 0.15549900 9305.26921008 0 97.93450671 0 2383.36641514 0 -93.91586167 0 648.49562197 0 26128
0.15650000 0.15649500 9266.76998133 0 -17.46673476 0 1746.84208620 0 -46.64150652 0 442.20045537 0 26331
0.15750000 0.15749700 9403.68110723 0 -78.41770207 0 2377.86973694 0 144.10514237 0 679.13089147 0 27345
0.15850000 0.15849900 9394.77851185 0 39.96894384 0 2069.48248413 0 -71.65139236 0 747.36613767 0 26980
0.15950000 0.15949700 9328.88581727 0 161.23139783 0 2350.49875241 0 76.73969773 0 536.20714150 0 27777
0.16050000 0.16050000 9241.48975783 0 264.28455966 0 2267.50902806 0 -265.40750067 0 677.18176264 0 28224
0.16150000 0.16150500 9031.88534365 0 242.12698894 0 2331.95167870 0 -318.07444560 0 674.08271523 0 28075
0.16250000 0.16249700 8963.32861484 0 97.73667126 0 2639.13618188 0 -19.22162516 0 534.07928631 0 28590
0.16350000 0.16349900 8929.39309029 0 -90.98126498 0 2428.32901807 0 -24.27677060 0 764.39797166 0 29163
0.16450000 0.16449100 8942.21867277 0 15.06134791 0 2588.32844057 0 404.07441622 0 182.12889160 0 28996
0.16550000 0.16550500 8977.72788843 0 -33.51040315 0 2525.36955583 0 181.53201305 0 443.34362955 0 30777
0.16650000 0.16650700 8952.89729097 0 162.79272421 0 2412.36729403 0 151.77239023 0 164.55301012 0 29211
0.16750000 0.16749900 8805.08273385 0 116.95222647 0 2387.72778763 0 280.56439412 0 630.53980649 0 30922
0.16850000 0.16850800 8753.66799741 0 121.57550611 0 2349.75686946 0 175.26984652 0 621.06955825 0 30867
0.16950000 0.16949900 8599.59239784 0 27.60793745 0 2038.26719705 0 500.77998259 0 527.41920075 0 30852
0.17050000 0.17049200 8519.67137114 0 34.64919347 0 1686.80577064 0 538.79249116 0 497.61349128 0 31257
0.17150000 0.17149500 8553.65185830 0 -3.09270768 0 1175.54725345 0 295.40879747 0 272.08894346 0 32608
0.17250000 0.17250900 8490.64801096 0 69.96462031 0 1194.63387839 0 46.96568688 0 364.40728385 0 32361
0.17350000 0.17350400 8453.45269769 0 167.93532192 0 1455.14719973 0 -374.36762447 0 46.07261718 0 32508
0.17450000 0.17449800 8402.28525556 0 201.16043735 0 1367.68369639 0 -446.81361843 0 22.36451110 0 32791
0.17550000 0.17549800 8216.46605833 0 183.33501342 0 1814.56700685 0 -599.44029812 0 -66.46293280 0 33633
0.17650000 0.17650100 8161.02716892 0 113.64410296 0 2148.60542463 0 -441.26748136 0 61.39620948 0 33984
0.17750000 0.17750300 8216.37613312 0 103.78931205 0 2431.18414335 0 -177.03687682 0 109.32791789 0 34069
0.17850000 0.17849800 8090.46960428 0 98.49800053 0 2375.19446206 0 204.99574738 0 182.50882559 0 34536
