### header ###
fiducial parameters:
Omega_m = 0.31
Omega_nu = 0
Omega_de = 0.69
Omega_k = 0
H_0 = 100
w_de = -1
zeff = 0
beta = 0
fgrowth = 0
b_1 = 2
gamma = 0.55
Lx = 3500 Ly = 3500 Lz = 3500
nx = 700 ny = 700 nz = 700
xoffset = 857.220397 yoffset = 15.9954215 zoffset = 262.898189
bins = 400 dk = 0.001
kx_ny = 0.628318531 ky_ny = 0.628318531 kz_ny = 0.628318531
############################
A(data) = 3.10450342 (not used)
A(ran) = 3.10189655 (used)
Ngal = 189201
weighted Ngal = 0
Nran = 9360983
weighted Nran = 0
SN(data) = 3451.84284
SN(ran) = 69.6569391
SN(data+ran) = 3521.49978
############################
13 columns: k_central k_mean P_0(k) sigma^{lin}_{P_0(k)} P^img_1(k) sigma^{lin}_{P_1(k)} P_2(k) sigma^{lin}_{P_2(k)} P^img_3(k) sigma^{lin}_{P_3(k)} P_4(k) sigma^{lin}_{P_4(k)} N_modes
### header ###
0.00050000 0 0 0 0 0 0 0 0 0 0 0 0
0.00150000 0.00179520 6134.97855921 0 -13303.19773362 0 -6106.66336002 0 13848.03207455 0 -7138.28532151 0 3
0.00250000 0.00253879 14806.07273635 0 -16647.29132609 0 -13394.92144359 0 -3103.63359203 0 -5873.59970777 0 6
0.00350000 0.00331552 23057.15999893 0 -16649.53945624 0 -15816.49483056 0 -18500.98703814 0 4505.46638535 0 7
0.00450000 0.00420575 31561.16190295 0 -11429.60606978 0 -20442.24741938 0 -17752.24729295 0 -6474.10899177 0 24
0.00550000 0.00557378 35508.65362666 0 -2334.97541375 0 -22598.76626212 0 -26226.01184650 0 -5527.46634981 0 45
0.00650000 0.00659388 32899.47377899 0 5721.12028060 0 -13228.89703229 0 -31413.23493934 0 -738.81649873 0 40
0.00750000 0.00754703 32172.54089621 0 1318.44964619 0 -24800.02289477 0 -11478.50290046 0 10179.60074589 0 57
0.00850000 0.00846663 32968.04174845 0 -3933.45215095 0 -18750.19226484 0 -5975.54116925 0 -228.50444432 0 75
0.00950000 0.00948925 37942.81654246 0 -8902.89887651 0 -31195.50353468 0 3941.05083084 0 -1981.10848808 0 112
0.01050000 0.01054430 48546.79681605 0 -14223.80702849 0 -20869.27974065 0 6167.62140894 0 4931.18355048 0 105
0.01150000 0.01145670 55855.58032785 0 -10122.83545970 0 -19241.52110830 0 -1326.84641229 0 -3328.91871398 0 144
0.01250000 0.01249090 63618.71094219 0 -2720.00142323 0 -6251.20688777 0 -10714.79060849 0 19718.79913833 0 169
0.01350000 0.01339930 67114.89053905 0 -2129.33894927 0 -2165.36523487 0 -6595.87896114 0 18932.62802621 0 180
0.01450000 0.01448870 68474.89687099 0 3505.47561501 0 23542.30648448 0 -5873.36365410 0 45448.76106808 0 267
0.01550000 0.01550050 66740.23965019 0 1227.79379804 0 9789.70753463 0 3642.69023849 0 19944.62381152 0 238
0.01650000 0.01653350 73721.69541270 0 -1850.51460789 0 40186.56283487 0 5502.33225477 0 37568.61527963 0 315
0.01750000 0.01747870 76061.21204934 0 806.69766443 0 31462.58139604 0 -11214.50497739 0 4907.81423761 0 297
0.01850000 0.01844180 77823.29645793 0 -320.59909576 0 50024.15554162 0 -2755.81413646 0 20463.94187529 0 388
0.01950000 0.01947590 80523.75038954 0 1476.03232879 0 45110.41748108 0 -14370.38511402 0 -14268.32000538 0 399
0.02050000 0.02045430 75515.81567587 0 1521.90542442 0 48663.36236413 0 -5855.95188612 0 -7440.22044080 0 462
0.02150000 0.02154770 75445.89882832 0 3477.80113292 0 46567.65544184 0 -4434.33554752 0 -26838.96453087 0 571
0.02250000 0.02255340 72027.05490849 0 3045.53066840 0 41206.31466919 0 632.96104266 0 -30652.35529135 0 510
0.02350000 0.02348930 70423.35126870 0 5405.42660482 0 38871.74391887 0 -5490.54081216 0 -38076.35547314 0 555
0.02450000 0.02439640 70507.88096220 0 2017.66308426 0 41686.74008143 0 4110.57108451 0 -43250.65181763 0 592
0.02550000 0.02547300 66355.35976916 0 1065.22139059 0 35296.43014086 0 4369.11729198 0 -25531.56444434 0 837
0.02650000 0.02652900 68011.78206088 0 1279.77056702 0 32935.78108085 0 13419.42606218 0 -33930.57867054 0 723
0.02750000 0.02749970 61455.89733504 0 1629.57961777 0 28094.77003053 0 10052.88489020 0 -7630.82815524 0 826
0.02850000 0.02848090 64267.40889588 0 2149.53839864 0 35390.28957447 0 10507.02966103 0 -11526.72529209 0 831
0.02950000 0.02946900 65027.05207228 0 1208.94322677 0 31885.67948956 0 9221.34651172 0 -387.32022630 0 996
0.03050000 0.03053250 60434.00977709 0 458.15655908 0 30583.22528936 0 2886.90260529 0 280.72738355 0 1041
0.03150000 0.03150510 62179.12080307 0 -2766.05436928 0 25798.75471222 0 1238.62978535 0 -6249.56575277 0 1036
0.03250000 0.03246190 63266.76616780 0 -3065.26925109 0 26117.08994092 0 -6462.08149549 0 -2193.48934299 0 1059
0.03350000 0.03345080 65637.64421998 0 489.19424388 0 26104.95003813 0 -1057.10226856 0 -13133.23909457 0 1302
0.03450000 0.03451200 62793.08514600 0 3781.37738721 0 19236.23800245 0 682.18834847 0 -17643.10057435 0 1339
0.03550000 0.03553350 58321.77909823 0 5430.92040068 0 21582.16181001 0 3806.63512940 0 -20398.18406851 0 1365
0.03650000 0.03647120 53899.25747462 0 5997.25810646 0 14215.48894695 0 -463.34074720 0 -15589.43368580 0 1308
0.03750000 0.03744890 50628.56533143 0 4364.82336340 0 19862.79187420 0 -296.05176269 0 -19227.80751440 0 1579
0.03850000 0.03847530 47612.36152078 0 2940.73408164 0 21400.17567468 0 -4502.40892835 0 -10250.58545526 0 1662
0.03950000 0.03950240 46940.84504611 0 -682.13326928 0 26218.14339099 0 -2407.09542884 0 -4020.16253069 0 1683
0.04050000 0.04050350 50180.17577377 0 -1499.61521402 0 28828.55971025 0 -309.87663903 0 246.44115069 0 1822
0.04150000 0.04152450 51196.44300636 0 -1495.42245130 0 28415.57820239 0 4679.67399037 0 1538.90128833 0 1887
0.04250000 0.04250150 53228.41543900 0 -153.49333386 0 25895.08708898 0 3631.51703166 0 -3222.58215807 0 1920
0.04350000 0.04349210 50567.19137844 0 2174.24534894 0 24646.58801229 0 2456.56553270 0 -172.62267328 0 2005
0.04450000 0.04448520 49466.73167187 0 3177.31605757 0 23485.20397877 0 3975.34605622 0 -5509.07664521 0 2151
0.04550000 0.04548030 46039.56967050 0 1849.87389080 0 20135.60246744 0 2655.62621650 0 -2802.32794919 0 2274
0.04650000 0.04648670 43241.99651657 0 968.52818893 0 17586.67250768 0 2882.49627020 0 -6715.09730279 0 2311
0.04750000 0.04749250 43174.32779917 0 59.42111474 0 17875.10760544 0 3758.96352965 0 -4942.41296056 0 2568
0.04850000 0.04851840 41687.30211397 0 58.53939810 0 13919.97223923 0 2191.47726651 0 -7792.70476642 0 2493
0.04950000 0.04949480 42197.74006366 0 1230.30046316 0 15029.08724686 0 1746.83084555 0 -6389.89403649 0 2644
0.05050000 0.05050630 40274.01509756 0 1479.05606383 0 13827.12446419 0 325.26733801 0 -4764.95680747 0 2829
0.05150000 0.05149060 40062.69086382 0 1437.98272606 0 13202.36909656 0 2153.18036947 0 -2203.10009937 0 2784
0.05250000 0.05249300 37889.76067101 0 971.63735293 0 12681.14012217 0 378.58399255 0 -3627.74017302 0 3055
0.05350000 0.05348950 38544.30376308 0 748.61160177 0 11288.19868358 0 1087.25531415 0 -3655.44837707 0 3009
0.05450000 0.05448610 37312.77806899 0 1002.30072406 0 10878.45448314 0 835.78284819 0 -2174.53760586 0 3336
0.05550000 0.05550870 36619.11751238 0 1090.91077377 0 10009.46225643 0 -86.33572885 0 -2089.27727007 0 3349
0.05650000 0.05647670 35607.45894659 0 1407.91398536 0 12215.77718190 0 -783.84204929 0 -4167.56118372 0 3324
0.05750000 0.05747970 35163.90286874 0 1275.04949372 0 11295.05548053 0 257.22430694 0 -4213.65909237 0 3639
0.05850000 0.05849280 34139.65477414 0 552.49372034 0 12947.20632497 0 1352.29524554 0 -3411.39136840 0 3846
0.05950000 0.05951020 33923.72187359 0 475.47840186 0 13711.45816817 0 -1409.34154800 0 -2326.07281837 0 3787
0.06050000 0.06049470 33856.84000175 0 1001.51612663 0 14098.13655332 0 -452.27994688 0 -3083.83880610 0 3930
0.06150000 0.06148310 33526.25246375 0 -103.89002828 0 15214.55798392 0 1526.48036927 0 -1360.47843927 0 4083
0.06250000 0.06249100 33018.39986372 0 645.65735766 0 13200.90781197 0 2369.47297084 0 -1112.63895163 0 4303
0.06350000 0.06350600 32850.35213529 0 244.09185469 0 13767.43660881 0 2471.57180143 0 -1067.30765536 0 4470
0.06450000 0.06451750 32264.71423221 0 223.63162223 0 12131.69711444 0 3122.70897632 0 -61.72645980 0 4479
0.06550000 0.06550280 32194.90979117 0 137.80812983 0 11916.55105945 0 2381.56791103 0 2316.79928151 0 4636
0.06650000 0.06648880 31648.38935263 0 587.97258624 0 11246.94549540 0 2417.84149093 0 1949.78079450 0 4653
0.06750000 0.06749660 31690.99141890 0 105.51711248 0 10434.01039388 0 2198.72748624 0 5431.71848688 0 5220
0.06850000 0.06852730 31145.48263892 0 174.22221787 0 9435.22237318 0 2814.33296417 0 4169.95544233 0 5029
0.06950000 0.06949320 31953.12339394 0 259.19029675 0 10046.79245750 0 1556.06576199 0 6600.89229136 0 5040
0.07050000 0.07048030 31022.50991993 0 335.77172612 0 9471.79945066 0 803.09278774 0 4866.25755186 0 5475
0.07150000 0.07148790 30158.77831776 0 1088.71097842 0 8938.39685152 0 -328.84973340 0 4650.69559279 0 5509
0.07250000 0.07249820 29050.67496870 0 1300.40840177 0 8679.03007656 0 -774.00310771 0 4792.45143916 0 5916
0.07350000 0.07351270 27262.06262438 0 1305.86011737 0 9257.56388838 0 -830.31427161 0 3051.58937915 0 5721
0.07450000 0.07449140 27265.99685214 0 939.77123217 0 9858.03945043 0 -51.69305496 0 1634.63791060 0 6028
0.07550000 0.07549160 25953.08884676 0 660.41970427 0 9926.20275646 0 -1584.18987012 0 1578.14240003 0 6183
0.07650000 0.07648840 25986.69839244 0 419.44375796 0 10197.99045049 0 418.33318167 0 821.12166744 0 6330
0.07750000 0.07749960 25238.40827328 0 287.94500539 0 10620.29045780 0 150.54266304 0 2204.85364088 0 6583
0.07850000 0.07848650 25290.67729918 0 62.18766370 0 9180.30689590 0 1394.76242400 0 653.95520603 0 6549
0.07950000 0.07947320 25323.38759281 0 9.88809695 0 9683.13492505 0 1904.04258667 0 2836.70185912 0 6828
0.08050000 0.08048110 24953.68259026 0 606.76920239 0 8529.97904786 0 809.57302288 0 937.52197796 0 7147
0.08150000 0.08149960 24635.12254855 0 724.97026516 0 9974.08792858 0 -241.38960225 0 2680.49053592 0 7386
0.08250000 0.08250610 23771.72816590 0 834.89596085 0 9834.62517496 0 -1065.96327354 0 1868.05002303 0 7227
0.08350000 0.08350160 23674.94616311 0 807.50249502 0 10702.85303742 0 -1051.72586532 0 2499.08891442 0 7798
0.08450000 0.08449610 22974.76602907 0 799.96676277 0 10865.34788438 0 -1275.10569697 0 2976.22081600 0 7371
0.08550000 0.08548940 22789.07047900 0 856.62863497 0 12858.74240372 0 -211.94584173 0 686.33839672 0 8256
0.08650000 0.08650700 21813.60680856 0 488.80419330 0 11870.80161097 0 494.96182177 0 1651.20662978 0 8037
0.08750000 0.08749060 21841.93324840 0 361.42176702 0 12266.24770369 0 500.75862535 0 891.82198835 0 8155
0.08850000 0.08849210 21628.58569753 0 -107.64114584 0 11136.12391984 0 1300.70065869 0 642.91913514 0 8718
0.08950000 0.08949900 21796.18379993 0 -130.75462150 0 10118.66517828 0 890.16624049 0 -286.72651885 0 8571
0.09050000 0.09049190 21544.39322355 0 -26.88269066 0 9425.48796965 0 1020.65558263 0 -925.85530656 0 8932
0.09150000 0.09150830 21631.50826672 0 474.87927517 0 10088.40534651 0 268.61783052 0 -342.02827231 0 9285
0.09250000 0.09250820 20888.38884689 0 283.46335794 0 8277.69388286 0 732.75553985 0 -1904.58213791 0 9204
0.09350000 0.09350330 20548.47156879 0 697.88816535 0 9702.85102644 0 1124.31236742 0 698.85148912 0 9349
0.09450000 0.09448040 19795.23556330 0 534.11638046 0 7173.23250463 0 1330.12868230 0 -1535.60777766 0 9564
0.09550000 0.09549270 19374.83522597 0 720.02999916 0 9326.49155866 0 1170.88238339 0 1301.12780341 0 10155
0.09650000 0.09649430 18788.52288384 0 542.42884167 0 7402.05843156 0 889.93355902 0 474.15200507 0 9913
0.09750000 0.09749140 18253.35550253 0 382.04161672 0 7738.27753558 0 1540.21644446 0 2993.58762138 0 10476
0.09850000 0.09850240 17932.77214369 0 268.86737296 0 6514.94627587 0 996.23864112 0 2152.33732067 0 10575
0.09950000 0.09950330 17842.73453133 0 -12.02974441 0 5719.80512446 0 1075.14463705 0 2159.71118755 0 10882
0.10050000 0.10051200 17629.83660649 0 -9.93448712 0 5531.23196780 0 308.96052599 0 2054.47621540 0 10875
0.10150000 0.10150300 17481.90964287 0 107.99736206 0 4760.92141386 0 -193.24926737 0 1983.44654344 0 11118
0.10250000 0.10250800 17745.05327648 0 -62.77554973 0 5979.38547180 0 -300.26813078 0 2439.65959400 0 11575
0.10350000 0.10349800 17617.69670370 0 292.72228195 0 5895.90115882 0 -750.37413581 0 1446.78415559 0 11364
0.10450000 0.10450100 17611.06471977 0 104.42092422 0 6065.43265314 0 -28.78157379 0 1177.06474130 0 12093
0.10550000 0.10551000 17169.08233302 0 260.01760864 0 6432.52982471 0 -604.91112283 0 509.97708301 0 12067
0.10650000 0.10649700 17365.79372082 0 151.65885966 0 6907.77329697 0 602.94063675 0 759.60833038 0 12054
0.10750000 0.10749900 16849.06100671 0 330.06934400 0 6528.13155918 0 250.53049943 0 -29.84122993 0 12807
0.10850000 0.10850100 16726.08828771 0 309.88450748 0 5432.48285113 0 434.54557222 0 27.66728808 0 12736
0.10950000 0.10950300 16289.38900682 0 428.20359708 0 5439.36212938 0 999.26125210 0 -92.21234105 0 12933
0.11050000 0.11050200 15825.93697718 0 300.07479159 0 4459.28979214 0 1226.47864191 0 162.62748665 0 13428
0.11150000 0.11150900 15520.86571634 0 266.70017550 0 4229.27235623 0 1080.87174860 0 -108.45867837 0 13453
0.11250000 0.11250000 15242.32239122 0 614.36001383 0 3731.82859878 0 296.45305392 0 -287.31103268 0 13668
0.11350000 0.11349100 14594.86090912 0 508.28086882 0 3749.79115865 0 -107.62900594 0 280.96905754 0 13791
0.11450000 0.11448600 14194.80614960 0 376.05259801 0 3659.60741784 0 -342.98822388 0 366.79592213 0 14205
0.11550000 0.11549300 14239.99356554 0 34.72855247 0 4109.71679506 0 -163.44693008 0 1056.02091796 0 14776
0.11650000 0.11649800 14336.55075532 0 -230.39062551 0 4173.06910258 0 20.11098544 0 4.03790028 0 14553
0.11750000 0.11747300 14882.50916132 0 -366.14958472 0 4081.43531782 0 -64.96163149 0 359.87617754 0 14568
0.11850000 0.11849100 14928.48342281 0 -129.41810813 0 4342.62307821 0 -131.86969405 0 173.43312419 0 16015
0.11950000 0.11950300 15514.00891939 0 78.26033296 0 4841.03353162 0 -142.34822866 0 305.96376851 0 15270
0.12050000 0.12050700 15069.32877647 0 186.23622538 0 5085.70877608 0 -587.75564168 0 787.00966467 0 15999
0.12150000 0.12150000 15468.70909695 0 200.44553197 0 6063.84772139 0 -18.12835947 0 1160.42857821 0 15670
0.12250000 0.12250700 14915.21945495 0 201.28858077 0 5609.66922860 0 264.83872374 0 1733.00484515 0 16887
0.12350000 0.12352200 15132.61364009 0 119.65223077 0 6137.55266823 0 554.94418220 0 607.72240958 0 16407
0.12450000 0.12449800 14720.64379080 0 263.75849721 0 5405.51653003 0 404.09689752 0 1330.22984816 0 16306
0.12550000 0.12549900 14263.26171255 0 388.62638992 0 5435.70891789 0 301.23370268 0 566.39278497 0 17523
0.12650000 0.12650100 13992.81165597 0 461.07800420 0 5017.18576922 0 226.73066963 0 986.31202246 0 17154
0.12750000 0.12750600 13504.96741424 0 410.75361088 0 5069.56720163 0 425.25517439 0 685.20084287 0 18007
0.12850000 0.12850300 13092.21071940 0 284.64587440 0 4893.94327461 0 112.31320991 0 437.59291263 0 17496
0.12950000 0.12949900 13084.11745087 0 140.08098941 0 4993.98506611 0 332.11289430 0 579.45329705 0 18405
0.13050000 0.13049000 13053.65528739 0 91.18854258 0 5025.20035319 0 257.05344905 0 1123.89871147 0 18100
0.13150000 0.13148800 12841.76902111 0 170.49032183 0 5037.93601047 0 284.70882204 0 1407.65545039 0 19059
0.13250000 0.13249300 12944.95819482 0 89.80942715 0 4918.29052409 0 628.86045328 0 1728.56478811 0 18957
0.13350000 0.13349100 12719.80796068 0 66.99461558 0 4551.66545985 0 395.51803288 0 1299.38550255 0 19468
0.13450000 0.13450700 12655.62384501 0 196.29211152 0 4111.79631544 0 488.79295265 0 2001.94865454 0 19953
0.13550000 0.13551000 12519.04993863 0 185.18859673 0 3972.79442850 0 -132.25637244 0 1312.40217610 0 19956
0.13650000 0.13649900 12306.03960727 0 226.97796395 0 4190.17737299 0 -190.01982841 0 1651.09422327 0 19723
0.13750000 0.13749600 12227.01783264 0 218.37549395 0 3907.80098598 0 -10.59394237 0 1335.31062229 0 20946
0.13850000 0.13851100 12180.70635162 0 57.56348480 0 4289.99435148 0 230.74807821 0 2059.96165296 0 20955
0.13950000 0.13949800 12097.07591019 0 132.04617227 0 4205.68947100 0 222.81105472 0 1391.71620765 0 20506
0.14050000 0.14048300 12041.88431510 0 107.39980907 0 4214.72695419 0 473.76420262 0 2093.68360515 0 21447
0.14150000 0.14148400 11889.91071721 0 200.52758872 0 3977.14456034 0 345.71857795 0 1391.88481742 0 21771
0.14250000 0.14249400 11754.01124988 0 264.03276909 0 3700.70323691 0 203.94699467 0 1762.60147852 0 22470
0.14350000 0.14350900 11231.06245592 0 251.13412237 0 3651.26685500 0 -36.07821740 0 1211.18011626 0 22519
0.14450000 0.14449900 11218.21439213 0 225.40539691 0 3545.35744381 0 -38.34478221 0 927.87862370 0 22218
0.14550000 0.14550500 10797.17333770 0 194.54868659 0 3119.22437460 0 -186.07548407 0 494.00636646 0 23559
0.14650000 0.14650700 10815.60800490 0 161.73160678 0 3096.07987474 0 50.33001365 0 -72.86201044 0 23044
0.14750000 0.14750500 10621.54941068 0 39.86271969 0 3123.01247389 0 -234.71715198 0 -57.16005785 0 23649
0.14850000 0.14849900 10645.86293821 0 48.74609355 0 3358.39170020 0 -29.59427284 0 -318.99055864 0 23640
0.14950000 0.14949500 10612.27587383 0 -42.89274950 0 3155.62160166 0 88.87645313 0 -544.01152530 0 24457
0.15050000 0.15050000 10660.97037279 0 53.67725462 0 3152.94632679 0 142.49772932 0 -627.53518055 0 24591
0.15150000 0.15149900 10610.07270628 0 211.17023683 0 3065.79756167 0 79.16115871 0 -636.99643627 0 25020
0.15250000 0.15250500 10377.89706544 0 243.87828232 0 3042.84415288 0 28.53574076 0 -651.52160515 0 25297
0.15350000 0.15350100 10221.70822353 0 264.24521738 0 3062.97615834 0 210.35191745 0 -314.69325786 0 25452
0.15450000 0.15450400 9918.34554160 0 245.34631131 0 3194.21075562 0 39.96635849 0 265.01407789 0 26061
0.15550000 0.15549900 9848.12519648 0 269.88240373 0 2936.35022785 0 241.64364096 0 261.55532966 0 26128
0.15650000 0.15649500 9586.92619545 0 153.46410817 0 3144.75189241 0 308.13995849 0 731.95408145 0 26331
0.15750000 0.15749700 9433.92969835 0 257.06244157 0 3182.82397643 0 187.33218882 0 644.90985439 0 27345
0.15850000 0.15849900 9372.79179902 0 139.46724988 0 3339.96827365 0 402.37820202 0 1439.30912285 0 26980
0.15950000 0.15949700 9117.58406483 0 123.72696666 0 3364.29304183 0 318.64097440 0 1454.49524199 0 27777
0.16050000 0.16050000 9132.89383112 0 79.04448075 0 3012.48315525 0 410.15898046 0 1803.14650571 0 28224
0.16150000 0.16150500 9094.24847391 0 -27.80183867 0 2740.18963195 0 603.05079513 0 1378.32859263 0 28075
0.16250000 0.16249700 9013.64176752 0 -63.91535171 0 2539.34168469 0 407.47808526 0 1195.87034997 0 28590
0.16350000 0.16349900 9044.12641230 0 31.93356466 0 2112.37680732 0 122.72542468 0 1163.77829213 0 29163
0.16450000 0.16449100 9013.92278378 0 32.31630882 0 2091.85137909 0 35.07184194 0 596.45815348 0 28996
0.16550000 0.16550500 8942.61209555 0 109.38659408 0 1836.16029691 0 -212.17177881 0 418.43434753 0 30777
0.16650000 0.16650700 8873.50457485 0 110.04889323 0 2016.64018504 0 -336.41806353 0 -46.22312950 0 29211
0.16750000 0.16749900 8890.63532657 0 192.32078962 0 1877.75070461 0 -17.11209223 0 161.06840839 0 30922
0.16850000 0.16850800 8634.04499233 0 188.86990984 0 2172.64917654 0 -21.69692885 0 -187.46820070 0 30867
0.16950000 0.16949900 8603.29057193 0 174.61114439 0 2135.26277221 0 -141.71200783 0 -9.54103062 0 30852
0.17050000 0.17049200 8411.07544443 0 122.87604940 0 2091.76145388 0 93.40531131 0 -550.79525801 0 31257
0.17150000 0.17149500 8456.22913842 0 90.73666842 0 2326.70229481 0 -264.66336959 0 -91.19933361 0 32608
0.17250000 0.17250900 8240.79082651 0 112.91233659 0 2114.57997486 0 -232.04749743 0 -167.64643720 0 32361
0.17350000 0.17350400 8376.64533124 0 117.04889606 0 2539.04942777 0 -53.54776233 0 -33.38034882 0 32508
0.17450000 0.17449800 8205.83240273 0 2.93588936 0 2304.55821287 0 58.67754569 0 138.96029653 0 32791
0.17550000 0.17549800 8294.48741505 0 25.53280092 0 2489.02853201 0 287.71232392 0 -78.25729798 0 33633
0.17650000 0.17650100 8277.26673813 0 -26.38180727 0 2161.62209817 0 432.44919086 0 163.87632294 0 33984
0.17750000 0.17750300 8293.18349956 0 55.18080406 0 2230.96567253 0 332.73000603 0 194.64085993 0 34069
