### header ###
fiducial parameters:
Omega_m = 0.31
Omega_nu = 0
Omega_de = 0.69
Omega_k = 0
H_0 = 100
w_de = -1
zeff = 0
beta = 0
fgrowth = 0
b_1 = 2
gamma = 0.55
Lx = 3500 Ly = 3500 Lz = 3500
nx = 700 ny = 700 nz = 700
xoffset = 857.220397 yoffset = 15.9954215 zoffset = 262.898189
bins = 400 dk = 0.001
kx_ny = 0.628318531 ky_ny = 0.628318531 kz_ny = 0.628318531
############################
A(data) = 3.10188206 (not used)
A(ran) = 3.10004099 (used)
Ngal = 189120
weighted Ngal = 0
Nran = 9360983
weighted Nran = 0
SN(data) = 3448.51903
SN(ran) = 69.61527
SN(data+ran) = 3518.1343
############################
13 columns: k_central k_mean P_0(k) sigma^{lin}_{P_0(k)} P^img_1(k) sigma^{lin}_{P_1(k)} P_2(k) sigma^{lin}_{P_2(k)} P^img_3(k) sigma^{lin}_{P_3(k)} P_4(k) sigma^{lin}_{P_4(k)} N_modes
### header ###
0.00050000 0 0 0 0 0 0 0 0 0 0 0 0
0.00150000 0.00179520 6057.73280739 0 -9262.17255518 0 -3778.93816600 0 5777.48090337 0 2524.67263548 0 3
0.00250000 0.00253879 12881.89814422 0 -9632.06864878 0 -961.67588825 0 -3680.68363796 0 11995.91005361 0 6
0.00350000 0.00331552 21019.34242791 0 -7624.03880220 0 -3372.39755101 0 959.21081354 0 -12141.47648057 0 7
0.00450000 0.00420575 28817.99349856 0 -5935.40080549 0 -630.07669168 0 -1501.09897992 0 -4236.28652229 0 24
0.00550000 0.00557378 39934.99707151 0 -5432.83131130 0 1729.04813609 0 3979.52757829 0 -2007.50153600 0 45
0.00650000 0.00659388 41722.82257028 0 -3029.05187443 0 7468.88410016 0 -7321.93507315 0 -19875.71862254 0 40
0.00750000 0.00754703 50213.44809993 0 -2394.01131139 0 14152.42889635 0 -4380.18933295 0 -12831.31521593 0 57
0.00850000 0.00846663 52055.90316125 0 -2941.82442476 0 17141.31792572 0 -3333.44869623 0 -18448.04357320 0 75
0.00950000 0.00948925 53852.38396108 0 2560.51907066 0 19975.08597500 0 2227.28997974 0 -5307.61046216 0 112
0.01050000 0.01054430 52347.71045423 0 -2258.07812210 0 27933.69150556 0 239.43710122 0 -10010.56384020 0 105
0.01150000 0.01145670 54790.07904506 0 -1224.50028738 0 18733.66850827 0 12160.92280634 0 -7970.13843821 0 144
0.01250000 0.01249090 52435.83715596 0 1117.56572885 0 17353.42900501 0 7155.33738867 0 -6238.14525162 0 169
0.01350000 0.01339930 49418.17206071 0 1379.34025120 0 10722.40052904 0 426.08248628 0 -2319.50827834 0 180
0.01450000 0.01448870 51837.27250453 0 -1588.22526373 0 10397.98410829 0 5777.68323508 0 8610.90049248 0 267
0.01550000 0.01550050 52290.83276153 0 -5312.94977126 0 -5593.94355823 0 1586.30311246 0 -15253.33822894 0 238
0.01650000 0.01653350 57610.02109394 0 -2684.49220758 0 11247.28271492 0 -11959.82756476 0 -5659.49903329 0 315
0.01750000 0.01747870 60432.43608598 0 -1490.94867231 0 7952.74915153 0 -11599.56470883 0 -18351.71119643 0 297
0.01850000 0.01844180 64073.17045124 0 -1435.98189023 0 21748.29862781 0 -15787.04432565 0 -9576.67472198 0 388
0.01950000 0.01947590 66524.64396917 0 -4061.40447822 0 11805.04380419 0 -8481.98146924 0 -19147.54926818 0 399
0.02050000 0.02045430 72286.15190784 0 -5318.51389337 0 18811.67862434 0 3954.87683124 0 -15585.72427106 0 462
0.02150000 0.02154770 76126.52023009 0 -2106.01459901 0 13509.68848755 0 9464.87520981 0 -23934.38038198 0 571
0.02250000 0.02255340 77608.15040294 0 2319.55324094 0 3678.39054521 0 7277.63566862 0 -25121.95513171 0 510
0.02350000 0.02348930 69801.06884424 0 2614.49667547 0 -878.95593952 0 11224.30682483 0 -10917.43705987 0 555
0.02450000 0.02439640 67343.41296841 0 3393.83347195 0 -5658.64474384 0 8169.85107974 0 -12531.63946745 0 592
0.02550000 0.02547300 62012.87157876 0 4321.63678329 0 -4601.98985317 0 7886.76653173 0 3392.19233695 0 837
0.02650000 0.02652900 57891.71180126 0 3951.70696773 0 -3739.51720388 0 1203.71632418 0 8447.64128126 0 723
0.02750000 0.02749970 56263.95316890 0 1758.73469467 0 7028.59905168 0 894.86146030 0 24921.42192267 0 826
0.02850000 0.02848090 55570.74223832 0 1146.09674853 0 3019.23878634 0 5007.57501285 0 22077.31247471 0 831
0.02950000 0.02946900 56295.08977143 0 269.71042177 0 10238.14205490 0 -420.75554190 0 31253.73010546 0 996
0.03050000 0.03053250 57947.35302238 0 323.04618542 0 12007.71273687 0 452.55197062 0 25769.64142683 0 1041
0.03150000 0.03150510 56280.36451897 0 1019.51802878 0 16549.16044521 0 -3669.25189617 0 23995.52952195 0 1036
0.03250000 0.03246190 58556.14666597 0 1114.99049576 0 10548.90108501 0 -1575.15238693 0 22420.03991550 0 1059
0.03350000 0.03345080 54092.03463466 0 2203.51600345 0 17233.26644870 0 -4348.74923285 0 9477.94808661 0 1302
0.03450000 0.03451200 54041.00208034 0 4041.67713618 0 8870.07617638 0 -2835.39794364 0 2581.08946150 0 1339
0.03550000 0.03553350 48998.44616242 0 2815.78300811 0 11783.01212876 0 270.68948245 0 -610.44264705 0 1365
0.03650000 0.03647120 47265.25022621 0 931.28116867 0 5813.49594831 0 1168.67921585 0 -4708.71983186 0 1308
0.03750000 0.03744890 45822.06307886 0 -625.67485286 0 5933.64726397 0 2035.58068153 0 -9733.23450536 0 1579
0.03850000 0.03847530 45594.32749505 0 -641.32296274 0 2989.99061314 0 3779.90486196 0 -15226.81029322 0 1662
0.03950000 0.03950240 45409.08157100 0 681.21378406 0 1131.30405217 0 -2332.05284456 0 -16719.56871029 0 1683
0.04050000 0.04050350 44863.68519753 0 461.21514014 0 -1712.26584455 0 -2860.75685169 0 -15983.98052645 0 1822
0.04150000 0.04152450 42073.30606007 0 2469.80701926 0 -77.18977338 0 -2945.82609642 0 -15035.15719825 0 1887
0.04250000 0.04250150 41676.62349577 0 1344.35934613 0 -1083.61221925 0 -2942.48762315 0 -17073.19958229 0 1920
0.04350000 0.04349210 39294.39238635 0 2335.63861214 0 2872.15487153 0 -3610.78927171 0 -15175.32811287 0 2005
0.04450000 0.04448520 37693.94853528 0 3529.59805148 0 2921.20907132 0 -3416.33725472 0 -11294.26863498 0 2151
0.04550000 0.04548030 35009.00670167 0 2034.85003923 0 7998.06021462 0 -475.88194122 0 -6716.14268331 0 2274
0.04650000 0.04648670 35108.93608667 0 1108.43944452 0 9669.28644335 0 37.43204137 0 -4018.48767373 0 2311
0.04750000 0.04749250 35662.76294819 0 -1574.44422594 0 9710.06752421 0 2354.52290537 0 -1511.97992983 0 2568
0.04850000 0.04851840 37753.97361018 0 -2611.34929327 0 12373.93313769 0 2589.21645198 0 -629.88447656 0 2493
0.04950000 0.04949480 39502.90645741 0 -1760.27466382 0 7693.79828064 0 1669.22539290 0 -669.15481395 0 2644
0.05050000 0.05050630 41806.56541822 0 -1108.89469087 0 10807.26744206 0 -733.74808931 0 1128.10046671 0 2829
0.05150000 0.05149060 41385.94026787 0 407.78720315 0 8528.30419090 0 505.13123848 0 2305.88460965 0 2784
0.05250000 0.05249300 42442.33662357 0 1709.52312577 0 12392.59261790 0 -2209.86697111 0 601.33547183 0 3055
0.05350000 0.05348950 40234.11078747 0 2872.97543903 0 14137.59123738 0 -951.00851071 0 3873.74181426 0 3009
0.05450000 0.05448610 38176.06004513 0 2924.42389743 0 14965.80238324 0 -520.40503470 0 5496.19485947 0 3336
0.05550000 0.05550870 37071.32889129 0 1402.68708277 0 18787.17400575 0 764.77228533 0 5503.36639464 0 3349
0.05650000 0.05647670 35665.79792388 0 777.55402928 0 17750.33638232 0 311.86398608 0 6011.78102720 0 3324
0.05750000 0.05747970 36177.47234516 0 107.01054533 0 20704.82902046 0 61.12778274 0 4697.91756651 0 3639
0.05850000 0.05849280 35566.43057142 0 -58.60403184 0 18659.59261995 0 390.69466965 0 2282.05443010 0 3846
0.05950000 0.05951020 36625.74949631 0 -21.51157052 0 21753.80654667 0 1221.47655233 0 3842.30171417 0 3787
0.06050000 0.06049470 35229.09864298 0 31.19201893 0 16887.95365824 0 1425.83158262 0 -276.94827678 0 3930
0.06150000 0.06148310 36121.49390452 0 614.92092230 0 18552.35681198 0 3359.15606445 0 859.04987114 0 4083
0.06250000 0.06249100 34448.32304321 0 659.50134310 0 14067.67438984 0 2712.39150269 0 -1624.52132494 0 4303
0.06350000 0.06350600 33787.48518674 0 1195.60057435 0 13260.48326084 0 2569.23057498 0 315.40366699 0 4470
0.06450000 0.06451750 33607.74718155 0 318.92873506 0 12047.95426649 0 2179.24743852 0 1669.30407746 0 4479
0.06550000 0.06550280 32654.53999956 0 288.70374931 0 11507.61618585 0 4004.67291398 0 3875.02324845 0 4636
0.06650000 0.06648880 32163.32356261 0 -195.32766369 0 7462.75794551 0 4291.24206371 0 2029.72430250 0 4653
0.06750000 0.06749660 31998.76043591 0 -232.86581680 0 6248.41920639 0 4443.80017543 0 3683.84226081 0 5220
0.06850000 0.06852730 31633.43928716 0 442.19371098 0 4003.94227168 0 3822.49568758 0 4738.72112866 0 5029
0.06950000 0.06949320 30767.68436785 0 401.25526101 0 1052.16649883 0 2233.13511812 0 4660.55364348 0 5040
0.07050000 0.07048030 30140.00643104 0 1078.80009667 0 1115.49744911 0 -423.43868523 0 4955.67692842 0 5475
0.07150000 0.07148790 29392.84037695 0 445.82781336 0 -203.49736864 0 -1331.07289696 0 4565.10927812 0 5509
0.07250000 0.07249820 28651.74427425 0 286.31398696 0 2261.22550430 0 -1938.52890311 0 4710.84431485 0 5916
0.07350000 0.07351270 29419.48071918 0 720.84045008 0 2490.78207353 0 -2729.69086416 0 3417.02293441 0 5721
0.07450000 0.07449140 28470.09535844 0 571.45220186 0 5501.70277833 0 -2252.31166827 0 2050.73307871 0 6028
0.07550000 0.07549160 28134.56193412 0 1283.05283704 0 6866.71119985 0 -2798.53984989 0 2067.21187268 0 6183
0.07650000 0.07648840 27600.40621138 0 1088.72559127 0 8666.69908270 0 -1763.88291271 0 1630.88353326 0 6330
0.07750000 0.07749960 26409.45926643 0 777.24828358 0 9898.64068087 0 -961.16556271 0 -896.71953987 0 6583
0.07850000 0.07848650 25934.31696004 0 561.93811508 0 10949.22562014 0 -482.67129426 0 405.39406861 0 6549
0.07950000 0.07947320 25535.27385909 0 476.54401555 0 11238.86346752 0 1391.09797186 0 -906.38425137 0 6828
0.08050000 0.08048110 25157.58799452 0 686.71046226 0 10259.76906690 0 1288.53827459 0 175.68575060 0 7147
0.08150000 0.08149960 24300.93800232 0 536.00930604 0 9756.90731580 0 1717.98733577 0 223.82833362 0 7386
0.08250000 0.08250610 23432.71013985 0 744.56384344 0 8577.83049803 0 1053.06125463 0 1040.46835361 0 7227
0.08350000 0.08350160 23348.51766588 0 800.72887889 0 8812.37791618 0 855.46522762 0 1376.28279420 0 7798
0.08450000 0.08449610 22592.13427819 0 532.03910820 0 9371.39795833 0 -111.22668861 0 2806.90289404 0 7371
0.08550000 0.08548940 22155.65981031 0 524.58655677 0 8734.49144726 0 -237.88701549 0 2219.45524618 0 8256
0.08650000 0.08650700 21886.55863181 0 341.44600660 0 10071.80290538 0 -138.64555831 0 3225.93187199 0 8037
0.08750000 0.08749060 21639.93875477 0 429.04889401 0 9536.83785579 0 353.63649232 0 2305.17644866 0 8155
0.08850000 0.08849210 21299.68425714 0 417.40470392 0 10855.44487109 0 934.95686146 0 3252.34740120 0 8718
0.08950000 0.08949900 20906.82351409 0 310.69608246 0 9587.70180035 0 993.49479827 0 1967.13635922 0 8571
0.09050000 0.09049190 20577.13522815 0 103.93150628 0 9105.97247262 0 954.33461926 0 1978.98400510 0 8932
0.09150000 0.09150830 20416.95595524 0 50.31630005 0 8488.07390194 0 203.76377206 0 181.42859906 0 9285
0.09250000 0.09250820 20438.08837861 0 133.86266143 0 8002.16305214 0 -514.78246120 0 -49.20898355 0 9204
0.09350000 0.09350330 20406.05252403 0 447.59709178 0 8752.48772908 0 -1066.61860347 0 -241.49976063 0 9349
0.09450000 0.09448040 19480.49734284 0 859.77264498 0 7476.34789224 0 -519.23263483 0 -985.78820813 0 9564
0.09550000 0.09549270 19476.00108254 0 384.95069713 0 8316.22683356 0 535.57429286 0 -370.83918420 0 10155
0.09650000 0.09649430 18823.81852713 0 46.27933275 0 7540.23975100 0 1703.19463941 0 -442.78609327 0 9913
0.09750000 0.09749140 19234.55190484 0 -367.81207696 0 6764.71353512 0 2911.84560926 0 1126.15583414 0 10476
0.09850000 0.09850240 19288.05740232 0 -309.06618811 0 5518.84477070 0 1510.99075256 0 736.46158240 0 10575
0.09950000 0.09950330 19402.71203978 0 24.32679150 0 5489.09076821 0 748.01359915 0 989.50436726 0 10882
0.10050000 0.10051200 19094.15617721 0 172.97000938 0 5019.25404896 0 -262.00045943 0 1231.24467782 0 10875
0.10150000 0.10150300 18754.57611863 0 331.91281072 0 5031.24782329 0 -1310.36761831 0 237.76561646 0 11118
0.10250000 0.10250800 18836.63286897 0 454.29764368 0 5687.31964385 0 -1471.33373678 0 -413.24791128 0 11575
0.10350000 0.10349800 18129.93315751 0 582.09709810 0 5737.46418676 0 -1038.85869243 0 -1979.87201650 0 11364
0.10450000 0.10450100 17864.20417423 0 641.86363804 0 6287.70528070 0 -572.05582481 0 -2322.39712558 0 12093
0.10550000 0.10551000 17457.96705681 0 646.89158111 0 6698.66347142 0 -203.47713547 0 -3199.86480294 0 12067
0.10650000 0.10649700 16972.70816475 0 411.07396943 0 6454.04443021 0 732.37785399 0 -1887.63123660 0 12054
0.10750000 0.10749900 16865.24754376 0 285.29783214 0 6235.64982716 0 1152.97602678 0 -2450.11339918 0 12807
0.10850000 0.10850100 16485.53836207 0 137.78452447 0 5594.97769810 0 1392.31196214 0 -258.35848860 0 12736
0.10950000 0.10950300 16242.40308676 0 257.13775393 0 4799.00473853 0 1704.30746383 0 -690.47832839 0 12933
0.11050000 0.11050200 15944.52584239 0 380.13407829 0 4660.40751502 0 1401.39440793 0 430.11563177 0 13428
0.11150000 0.11150900 15306.16928738 0 502.73697988 0 3821.67512008 0 421.45583444 0 393.26765460 0 13453
0.11250000 0.11250000 14938.48760197 0 345.30604607 0 3984.32733615 0 -35.77505705 0 149.84911489 0 13668
0.11350000 0.11349100 14761.89697898 0 93.50445385 0 3905.15943306 0 -160.01853161 0 859.90978092 0 13791
0.11450000 0.11448600 14945.79402494 0 -217.10642448 0 4167.98832845 0 -168.95035268 0 485.52979174 0 14205
0.11550000 0.11549300 15156.78103916 0 -280.32721638 0 4445.72232671 0 -198.81788574 0 856.65336440 0 14776
0.11650000 0.11649800 15681.83183481 0 -202.07430226 0 4411.83176476 0 442.63322042 0 436.13050397 0 14553
0.11750000 0.11747300 15528.05973281 0 140.49914162 0 4437.62905818 0 627.41265746 0 501.12731869 0 14568
0.11850000 0.11849100 15199.60791845 0 273.56596497 0 3116.40297126 0 636.60301350 0 18.62171163 0 16015
0.11950000 0.11950300 14988.17127820 0 300.89985535 0 3344.72306891 0 518.66835416 0 76.71665439 0 15270
0.12050000 0.12050700 14738.40401895 0 304.30689659 0 2858.91338497 0 457.36971353 0 -88.83587439 0 15999
0.12150000 0.12150000 14335.98872278 0 301.88453636 0 2119.08747581 0 -193.64943453 0 -207.89695933 0 15670
0.12250000 0.12250700 14405.11872478 0 125.23433792 0 2299.66852980 0 -382.78687186 0 -231.43038571 0 16887
0.12350000 0.12352200 14323.17438095 0 61.72072707 0 2376.41969299 0 -174.67858829 0 -31.31566609 0 16407
0.12450000 0.12449800 14299.56901442 0 181.58147191 0 2641.93510391 0 -293.88344117 0 3.90856535 0 16306
0.12550000 0.12549900 14435.69329477 0 52.26857627 0 2908.76567096 0 76.79354044 0 43.68802554 0 17523
0.12650000 0.12650100 14006.75006287 0 253.44632423 0 3058.35625089 0 -147.48970231 0 -146.76580440 0 17154
0.12750000 0.12750600 14140.06418054 0 222.14785633 0 3283.69757609 0 -17.71459111 0 -38.39401626 0 18007
0.12850000 0.12850300 13597.70278277 0 241.39971884 0 3410.91926107 0 -220.69219206 0 -358.32721587 0 17496
0.12950000 0.12949900 13499.79671491 0 337.90969788 0 3460.45680884 0 -312.76323813 0 -690.04556333 0 18405
0.13050000 0.13049000 13108.50966296 0 235.75916030 0 3221.59298080 0 -34.06827664 0 -1164.91359786 0 18100
0.13150000 0.13148800 12996.10315565 0 234.19558578 0 3409.23316346 0 197.12504374 0 -464.19278852 0 19059
0.13250000 0.13249300 12843.67993174 0 336.83621574 0 3236.41939912 0 30.27118483 0 -881.93133977 0 18957
0.13350000 0.13349100 12484.87836040 0 273.39510708 0 3172.93220379 0 435.57858802 0 -279.36389262 0 19468
0.13450000 0.13450700 12430.13639134 0 257.90549037 0 3565.19719235 0 277.75535550 0 239.90358823 0 19953
0.13550000 0.13551000 12132.59636650 0 151.45203169 0 3097.93458211 0 585.49739495 0 632.17194898 0 19956
0.13650000 0.13649900 12077.74199093 0 -82.41869929 0 3294.97194878 0 598.02510019 0 1214.73216190 0 19723
0.13750000 0.13749600 12180.14431909 0 -29.50232432 0 2858.93586627 0 881.49070626 0 1411.64588140 0 20946
0.13850000 0.13851100 12306.60163981 0 -146.25098260 0 2859.97000614 0 864.85679131 0 2071.78681753 0 20955
0.13950000 0.13949800 12247.92544300 0 -67.61026602 0 1918.31821310 0 448.32211375 0 2081.65610887 0 20506
0.14050000 0.14048300 12253.77058138 0 102.72988072 0 2213.54266390 0 519.98013810 0 1934.94313553 0 21447
0.14150000 0.14148400 11936.55941775 0 252.12329964 0 1551.43461389 0 33.89011233 0 1675.90233944 0 21771
0.14250000 0.14249400 11836.51762624 0 346.50092724 0 1955.24375075 0 -263.98780648 0 1929.23288496 0 22470
0.14350000 0.14350900 11478.61530697 0 265.22315400 0 1939.84405925 0 -360.85861042 0 1589.56290117 0 22519
0.14450000 0.14449900 11352.15798624 0 202.31597625 0 2203.41483759 0 -471.33847019 0 1608.49215700 0 22218
0.14550000 0.14550500 11260.20946326 0 184.03418190 0 2256.84165051 0 -353.45776598 0 827.12529900 0 23559
0.14650000 0.14650700 11169.68850293 0 217.85167962 0 2858.31763048 0 -436.74536757 0 671.73454329 0 23044
0.14750000 0.14750500 11029.28153465 0 237.29800539 0 2556.11273558 0 -123.25373527 0 -12.89729784 0 23649
0.14850000 0.14849900 10603.49692561 0 237.35083645 0 2792.69471151 0 -193.44597875 0 -352.48095343 0 23640
0.14950000 0.14949500 10583.64593642 0 247.19315023 0 2524.13308425 0 -36.70128667 0 -408.64486480 0 24457
0.15050000 0.15050000 10341.56728227 0 165.04984688 0 2472.01018681 0 96.67195682 0 -836.52360707 0 24591
0.15150000 0.15149900 10198.60868628 0 136.96732916 0 2549.09856952 0 170.83765794 0 -349.43923334 0 25020
0.15250000 0.15250500 10128.21973140 0 78.69107469 0 2455.05928551 0 370.88077461 0 -177.86980904 0 25297
0.15350000 0.15350100 10091.00193683 0 -43.73905809 0 2507.78917808 0 546.68342798 0 404.76234404 0 25452
0.15450000 0.15450400 10238.98510370 0 -37.45991819 0 2557.60774212 0 416.34583462 0 635.05517589 0 26061
0.15550000 0.15549900 10271.45934366 0 -63.66266189 0 2407.29776055 0 409.50252646 0 819.81887602 0 26128
0.15650000 0.15649500 10218.30230636 0 79.31852782 0 2638.75399975 0 147.46834507 0 997.09630277 0 26331
0.15750000 0.15749700 10201.62118067 0 177.32014122 0 2373.66573356 0 -72.45060263 0 1063.81518518 0 27345
0.15850000 0.15849900 9953.82103531 0 251.09253196 0 2466.33365819 0 -19.97609763 0 1073.86432693 0 26980
0.15950000 0.15949700 9830.55605939 0 329.43312317 0 2483.16091233 0 -227.84349406 0 979.97454357 0 27777
0.16050000 0.16050000 9504.47602234 0 238.46703306 0 2365.37013332 0 -83.96608727 0 715.63602879 0 28224
0.16150000 0.16150500 9359.82008808 0 150.38304580 0 2703.15168779 0 -161.04817522 0 809.15936694 0 28075
0.16250000 0.16249700 9280.70838823 0 70.30262668 0 2459.97144987 0 -96.97095813 0 504.56808188 0 28590
0.16350000 0.16349900 9317.11685595 0 -6.72098740 0 2741.61719459 0 -79.26479751 0 601.97618892 0 29163
0.16450000 0.16449100 9350.97369595 0 16.34143322 0 2595.70230745 0 -239.74397099 0 158.31669709 0 28996
0.16550000 0.16550500 9349.16395119 0 124.28337887 0 2513.04980263 0 -154.58704918 0 -345.80513096 0 30777
0.16650000 0.16650700 9259.66589007 0 52.72168690 0 2411.76029889 0 -174.71568244 0 -512.65797821 0 29211
0.16750000 0.16749900 9102.55531480 0 94.68157480 0 2153.06796297 0 -61.11598006 0 -717.74927113 0 30922
0.16850000 0.16850800 9078.50032223 0 76.22914737 0 1981.15345069 0 89.94004351 0 -991.04658454 0 30867
0.16950000 0.16949900 8992.18336527 0 63.29014672 0 1973.75710251 0 262.69288352 0 -1154.27994226 0 30852
0.17050000 0.17049200 8898.70611379 0 168.36808697 0 1792.61401598 0 129.19666731 0 -1369.26862814 0 31257
0.17150000 0.17149500 8727.25246819 0 203.49062425 0 1849.48046802 0 127.06094367 0 -1210.44947397 0 32608
0.17250000 0.17250900 8594.26432939 0 260.61448720 0 1875.97468180 0 16.24240309 0 -785.41686446 0 32361
0.17350000 0.17350400 8375.43134096 0 174.41106081 0 1850.96423392 0 98.64176846 0 -897.84585307 0 32508
0.17450000 0.17449800 8273.95074616 0 168.99756342 0 2088.58034972 0 123.00756501 0 -469.69845925 0 32791
0.17550000 0.17549800 8221.29953814 0 84.51272011 0 1880.49342339 0 170.68028883 0 -479.17882408 0 33633
0.17650000 0.17650100 8056.63524558 0 194.93311685 0 2211.29453375 0 14.95399970 0 -116.25530612 0 33984
0.17750000 0.17750300 8053.51034468 0 230.16806063 0 2206.67462630 0 -184.55574809 0 -90.11584728 0 34069
