### header ###
fiducial parameters:
Omega_m = 0.31
Omega_nu = 0
Omega_de = 0.69
Omega_k = 0
H_0 = 100
w_de = -1
zeff = 0
beta = 0
fgrowth = 0
b_1 = 2
gamma = 0.55
Lx = 3500 Ly = 3500 Lz = 3500
nx = 700 ny = 700 nz = 700
xoffset = 857.220397 yoffset = 15.9954215 zoffset = 262.898189
bins = 400 dk = 0.001
kx_ny = 0.628318531 ky_ny = 0.628318531 kz_ny = 0.628318531
############################
A(data) = 3.09826589 (not used)
A(ran) = 3.09678023 (used)
Ngal = 189255
weighted Ngal = 0
Nran = 9360983
weighted Nran = 0
SN(data) = 3443.31791
SN(ran) = 69.5420457
SN(data+ran) = 3512.85995
############################
13 columns: k_central k_mean P_0(k) sigma^{lin}_{P_0(k)} P^img_1(k) sigma^{lin}_{P_1(k)} P_2(k) sigma^{lin}_{P_2(k)} P^img_3(k) sigma^{lin}_{P_3(k)} P_4(k) sigma^{lin}_{P_4(k)} N_modes
### header ###
0.00050000 0 0 0 0 0 0 0 0 0 0 0 0
0.00150000 0.00179520 19625.27692425 0 -26173.85522711 0 -11453.43624933 0 48361.10126597 0 -59691.00276377 0 3
0.00250000 0.00253879 49911.86144082 0 -49199.99103003 0 -40022.56174071 0 31648.16453961 0 114270.20720111 0 6
0.00350000 0.00331552 65428.56811639 0 -47531.54124203 0 -37370.66742025 0 -60655.90022252 0 -77025.43506904 0 7
0.00450000 0.00420575 100444.88124103 0 -48424.61094260 0 -85171.75946681 0 -16606.93738997 0 -2924.88476411 0 24
0.00550000 0.00557378 131348.12785670 0 -35750.44002389 0 -122828.83866769 0 -26029.63767823 0 -319.03776937 0 45
0.00650000 0.00659388 164503.55125284 0 -16483.85226446 0 -124143.99480321 0 -80875.80757044 0 -32909.81517766 0 40
0.00750000 0.00754703 137833.98332849 0 11651.94614124 0 -93258.84563522 0 -91996.85777765 0 -8083.71397319 0 57
0.00850000 0.00846663 132906.08204802 0 30732.83835059 0 -86730.95012970 0 -67522.70134757 0 13453.48523389 0 75
0.00950000 0.00948925 93037.29240931 0 29872.14172412 0 -45809.92317607 0 -52925.70471481 0 12906.29035631 0 112
0.01050000 0.01054430 65360.67458597 0 24402.21626540 0 -16713.38635239 0 -13908.39436898 0 3041.55147805 0 105
0.01150000 0.01145670 51549.06221979 0 14206.83364589 0 -2765.37993024 0 -2540.92661644 0 6265.42631095 0 144
0.01250000 0.01249090 40481.62991656 0 1932.04304764 0 963.86893921 0 6982.18640481 0 6321.97802477 0 169
0.01350000 0.01339930 44605.93707627 0 -5377.96569508 0 8074.30554853 0 8204.38235879 0 14338.57407245 0 180
0.01450000 0.01448870 48793.86631912 0 -5458.38131041 0 10485.31272382 0 2803.91288094 0 22366.53441802 0 267
0.01550000 0.01550050 52365.24586937 0 -9077.26385065 0 4766.35064816 0 6117.72416034 0 9592.55776146 0 238
0.01650000 0.01653350 56838.46282776 0 -3386.20107011 0 15519.62924476 0 786.42065457 0 23090.09510557 0 315
0.01750000 0.01747870 61306.50908683 0 -2764.10973670 0 3360.59486774 0 -790.98997909 0 9180.77900324 0 297
0.01850000 0.01844180 61931.15204795 0 -1259.96454044 0 18414.20921450 0 -3697.44344820 0 19088.76066486 0 388
0.01950000 0.01947590 67663.43429472 0 -1374.10210796 0 23103.47147994 0 -11046.87315304 0 4313.37490500 0 399
0.02050000 0.02045430 70264.85809340 0 2729.98312108 0 36525.82011131 0 -15712.29399829 0 14730.53556344 0 462
0.02150000 0.02154770 70916.36620976 0 1135.77783116 0 46994.68776311 0 -6791.09534238 0 12625.38649454 0 571
0.02250000 0.02255340 72268.84130572 0 1262.93207223 0 54497.82212605 0 164.44172767 0 14025.74676261 0 510
0.02350000 0.02348930 73100.53705330 0 227.61193665 0 54811.21146843 0 12939.11305644 0 11902.61265254 0 555
0.02450000 0.02439640 77664.80328262 0 47.48556698 0 50689.37725188 0 15857.07357970 0 5329.55221239 0 592
0.02550000 0.02547300 74221.45474420 0 2211.56430937 0 41696.29463455 0 15993.75989259 0 6950.18427218 0 837
0.02650000 0.02652900 72530.07402871 0 4049.89405187 0 37214.87200112 0 12841.54420810 0 5618.12219795 0 723
0.02750000 0.02749970 62758.12672223 0 3093.06738035 0 21781.45854747 0 15341.57733718 0 10876.72342292 0 826
0.02850000 0.02848090 64980.74059126 0 2616.01416332 0 15909.11779259 0 10292.35571337 0 5089.39570952 0 831
0.02950000 0.02946900 62379.31679259 0 726.04149917 0 8010.64974344 0 10032.21333351 0 8859.22894842 0 996
0.03050000 0.03053250 60237.97282834 0 -700.38921014 0 7190.75667912 0 8322.76889229 0 7845.70443461 0 1041
0.03150000 0.03150510 61534.80670317 0 977.99056872 0 8858.79056305 0 -81.37669097 0 5775.74984315 0 1036
0.03250000 0.03246190 60794.72225904 0 3390.25894502 0 12161.70965189 0 -5600.87903973 0 14622.73772293 0 1059
0.03350000 0.03345080 57175.34513017 0 4953.86718366 0 27223.84441189 0 -5044.60171636 0 14673.32065122 0 1302
0.03450000 0.03451200 53468.51573861 0 4056.37990734 0 26227.81035062 0 -1630.01800315 0 17910.29084222 0 1339
0.03550000 0.03553350 51847.27668368 0 2050.45206244 0 30250.72684074 0 5451.26597850 0 17627.70088285 0 1365
0.03650000 0.03647120 50765.58886384 0 -1497.31088062 0 27888.50408962 0 6493.91501836 0 9490.33528372 0 1308
0.03750000 0.03744890 49925.12540868 0 -1313.18902165 0 19629.54837153 0 6539.86679854 0 1739.98528925 0 1579
0.03850000 0.03847530 50660.60118601 0 -807.44741583 0 15107.32217594 0 2938.18245392 0 -6358.29656729 0 1662
0.03950000 0.03950240 50213.44809993 0 702.13263507 0 9904.31720949 0 -3850.81088677 0 -8507.29541469 0 1683
0.04050000 0.04050350 49621.40302593 0 1225.91660937 0 8555.23679006 0 -2627.36722056 0 -14647.91678057 0 1822
0.04150000 0.04152450 47992.85754803 0 309.20557218 0 6118.71333761 0 -1190.10389614 0 -6106.44978766 0 1887
0.04250000 0.04250150 47975.65935241 0 1629.60209907 0 8722.91357701 0 2079.65527304 0 -13951.89568731 0 1920
0.04350000 0.04349210 46000.56461246 0 2461.64630683 0 12959.57104077 0 2304.88419174 0 -7220.89286373 0 2005
0.04450000 0.04448520 43688.92478964 0 3264.27373163 0 10250.77654632 0 2100.78769642 0 -7082.00338330 0 2151
0.04550000 0.04548030 40729.14904566 0 3265.69005362 0 10926.72183738 0 1572.08368928 0 2588.50829098 0 2274
0.04650000 0.04648670 39395.44583643 0 1080.13998224 0 11433.76511055 0 3337.72014351 0 2328.56824283 0 2311
0.04750000 0.04749250 38579.59940637 0 587.32400069 0 6329.18328189 0 3061.86333392 0 2059.16356676 0 2568
0.04850000 0.04851840 38515.30288419 0 514.04732264 0 8065.41419380 0 1409.73497078 0 2053.12733732 0 2493
0.04950000 0.04949480 38018.24130887 0 612.71213444 0 6251.61155120 0 -1590.79937275 0 2455.67752130 0 2644
0.05050000 0.05050630 37781.28839146 0 135.72186506 0 8542.10771000 0 -3768.57428602 0 937.00828022 0 2829
0.05150000 0.05149060 39274.49643456 0 217.77636726 0 9454.91599326 0 -2243.43155419 0 537.76397162 0 2784
0.05250000 0.05249300 37054.01828916 0 -116.30139279 0 13176.40319338 0 -2217.71294532 0 -48.64762545 0 3055
0.05350000 0.05348950 38594.66187835 0 279.37625733 0 15409.92049362 0 564.20085808 0 -125.04212280 0 3009
0.05450000 0.05448610 37996.09722693 0 758.21336563 0 14732.89610010 0 2658.48134178 0 990.47893168 0 3336
0.05550000 0.05550870 37811.63814843 0 233.32780755 0 14243.70298028 0 4244.04257129 0 3212.60046022 0 3349
0.05650000 0.05647670 36645.42063509 0 77.17527294 0 11715.79303739 0 3963.34104124 0 2753.19506484 0 3324
0.05750000 0.05747970 37603.68610991 0 86.08506234 0 10908.70307425 0 3779.84865871 0 4933.08322045 0 3639
0.05850000 0.05849280 35529.22401750 0 462.44486733 0 8693.23825908 0 662.95334694 0 1457.71006810 0 3846
0.05950000 0.05951020 35990.42791699 0 1286.71728918 0 10298.34698021 0 -898.21454642 0 8346.04827995 0 3787
0.06050000 0.06049470 35075.66376051 0 1262.01033887 0 14830.80216796 0 -1554.81804976 0 6395.25582689 0 3930
0.06150000 0.06148310 34656.94952078 0 970.36266313 0 13540.15065103 0 -2138.94970565 0 7366.20075573 0 4083
0.06250000 0.06249100 34733.27353924 0 615.58299663 0 16457.66154826 0 -2852.40504819 0 6386.20710305 0 4303
0.06350000 0.06350600 34396.39123683 0 410.77159592 0 16809.26910312 0 -794.66679595 0 8811.35501696 0 4470
0.06450000 0.06451750 34359.18468291 0 471.22831181 0 18609.79653721 0 2025.46409587 0 7054.50875161 0 4479
0.06550000 0.06550280 33450.82769734 0 919.64259891 0 15807.27749696 0 4114.37042446 0 7870.99589876 0 4636
0.06650000 0.06648880 32387.57454470 0 675.53500731 0 13624.68034453 0 3298.31042204 0 5982.52161335 0 4653
0.06750000 0.06749660 31473.70964027 0 1193.65594177 0 11849.21956157 0 3558.34039540 0 5237.91842763 0 5220
0.06850000 0.06852730 29904.06517219 0 888.45766158 0 8605.43753622 0 1856.16865521 0 3202.85481603 0 5029
0.06950000 0.06949320 28745.82852087 0 707.04479943 0 9201.12458106 0 583.62020628 0 3842.59397109 0 5040
0.07050000 0.07048030 28603.40947611 0 326.37566617 0 7129.28156027 0 236.12785365 0 3239.06095204 0 5475
0.07150000 0.07148790 27685.49793742 0 -216.77032902 0 7000.87960697 0 -247.11783787 0 1287.85259490 0 5509
0.07250000 0.07249820 28911.40330614 0 -64.42792539 0 7587.59661253 0 -102.91220408 0 1138.32945888 0 5916
0.07350000 0.07351270 28640.05399749 0 251.48033441 0 6699.65264869 0 -1001.52961542 0 -1851.25649084 0 5721
0.07450000 0.07449140 28180.31138259 0 838.89650844 0 8667.76694452 0 -1271.99203672 0 -470.64379798 0 6028
0.07550000 0.07549160 27307.36244683 0 1083.25476656 0 8185.92521029 0 -2130.15951678 0 -952.55072799 0 6183
0.07650000 0.07648840 27534.98562413 0 923.10247120 0 10918.42623714 0 -341.62023669 0 -834.77905808 0 6330
0.07750000 0.07749960 26911.24191507 0 74.93849585 0 10626.33792789 0 406.56871661 0 -135.54426277 0 6583
0.07850000 0.07848650 27048.60266700 0 233.20978072 0 12344.03300675 0 1107.75264076 0 327.48174620 0 6549
0.07950000 0.07947320 26553.90162833 0 476.20792009 0 11379.36036101 0 795.96846330 0 1246.70057257 0 6828
0.08050000 0.08048110 25877.32686083 0 975.52324588 0 11491.76686832 0 1295.13653657 0 622.39483097 0 7147
0.08150000 0.08149960 25680.05344050 0 1065.56198230 0 11879.90653806 0 903.28632803 0 2675.89310977 0 7386
0.08250000 0.08250610 24167.62388465 0 912.34404439 0 12193.52069346 0 638.52179258 0 2110.73567231 0 7227
0.08350000 0.08350160 23253.53416720 0 910.43425783 0 10887.52568828 0 454.39318921 0 3519.54890973 0 7798
0.08450000 0.08449610 22807.61755270 0 542.77842591 0 11531.22155239 0 1125.15541622 0 3433.05210235 0 7371
0.08550000 0.08548940 22461.40551019 0 347.04272660 0 11299.32692781 0 898.90247424 0 3660.57411380 0 8256
0.08650000 0.08650700 22242.55004046 0 -281.23546096 0 10178.74645643 0 2451.18126100 0 4124.74554509 0 8037
0.08750000 0.08749060 22541.55134990 0 -331.69024584 0 10160.77265592 0 1577.42299838 0 4574.25916782 0 8155
0.08850000 0.08849210 22820.88152057 0 -136.72003484 0 8596.48997824 0 797.63769994 0 4157.12985984 0 8718
0.08950000 0.08949900 22672.84215044 0 130.52418816 0 10138.07778209 0 194.05634609 0 3660.37178209 0 8571
0.09050000 0.09049190 22283.69082213 0 645.75065506 0 8564.36419845 0 134.88218845 0 3964.63371607 0 8932
0.09150000 0.09150830 21665.34262542 0 830.12992494 0 8382.72652329 0 312.96556985 0 2459.48810189 0 9285
0.09250000 0.09250820 20703.70495538 0 670.44861285 0 7729.59975321 0 668.25781002 0 2238.89033130 0 9204
0.09350000 0.09350330 19952.49226703 0 476.65192579 0 7130.13584973 0 1264.40459748 0 870.34110480 0 9349
0.09450000 0.09448040 19386.52550273 0 388.53534065 0 6080.13542430 0 987.19216541 0 410.22080404 0 9564
0.09550000 0.09549270 19129.00219448 0 288.45533093 0 5408.74259679 0 681.25537446 0 423.40833547 0 10155
0.09650000 0.09649430 18564.38430826 0 336.55407541 0 5511.56082902 0 168.25568047 0 430.55289308 0 9913
0.09750000 0.09749140 18490.87045248 0 385.35985682 0 5021.90684253 0 439.33970976 0 1947.19544483 0 10476
0.09850000 0.09850240 18201.87332219 0 207.76656779 0 5222.03538814 0 430.43599031 0 985.43749983 0 10575
0.09950000 0.09950330 18318.21405725 0 501.74330635 0 5795.17368762 0 269.40804826 0 3508.43190616 0 10882
0.10050000 0.10051200 17955.02863213 0 323.13835876 0 5976.38421805 0 155.27272887 0 3081.41082554 0 10875
0.10150000 0.10150300 17548.22948218 0 485.33870068 0 6254.41047323 0 309.45511462 0 4014.93562810 0 11118
0.10250000 0.10250800 17639.39115961 0 568.77243073 0 7058.09451920 0 -167.34406369 0 5278.57586132 0 11575
0.10350000 0.10349800 16782.17913486 0 522.30245654 0 6827.38016294 0 131.83597210 0 3866.75012951 0 11364
0.10450000 0.10450100 16695.40131122 0 487.02817048 0 7733.89368179 0 -771.69652618 0 4452.65780821 0 12093
0.10550000 0.10551000 16182.37801186 0 311.10636622 0 7491.65765854 0 -860.83488648 0 3396.44130292 0 12067
0.10650000 0.10649700 16305.46313736 0 123.98774976 0 8377.24108573 0 -333.36173060 0 4622.20054319 0 12054
0.10750000 0.10749900 16155.73766962 0 -81.20302291 0 7632.97511953 0 115.12337259 0 2372.58663109 0 12807
0.10850000 0.10850100 16179.23062965 0 -56.09028512 0 7721.23670907 0 555.23081879 0 2970.51056543 0 12736
0.10950000 0.10950300 16216.88680960 0 107.41015047 0 7091.41180796 0 713.36766547 0 2283.44827080 0 12933
0.11050000 0.11050200 16187.77352421 0 203.37034929 0 6607.49055334 0 1239.57400001 0 1829.87677315 0 13428
0.11150000 0.11150900 15531.88155405 0 189.96137703 0 5628.12637710 0 1448.18923693 0 2558.49575353 0 13453
0.11250000 0.11250000 15393.73395657 0 251.82879459 0 4950.78724535 0 663.39847671 0 1691.49312200 0 13668
0.11350000 0.11349100 14944.66995987 0 186.11370228 0 4770.16122876 0 678.81278106 0 1995.51900232 0 13791
0.11450000 0.11448600 14814.72803742 0 266.47648655 0 4355.33625418 0 182.20982428 0 1200.46777612 0 14205
0.11550000 0.11549300 14479.08220659 0 293.59006018 0 4640.74761689 0 -510.51101392 0 1406.92480809 0 14776
0.11650000 0.11649800 14533.37454962 0 270.89631042 0 4568.58263920 0 -532.81808530 0 937.63326040 0 14553
0.11750000 0.11747300 14402.98300114 0 149.40848139 0 5057.38233624 0 -418.00045841 0 732.91066083 0 14568
0.11850000 0.11849100 14431.08462797 0 -35.16480212 0 4939.14193120 0 364.52643475 0 1510.15894441 0 16015
0.11950000 0.11950300 14596.65941324 0 -85.37735097 0 4816.77620734 0 698.55136374 0 360.23925056 0 15270
0.12050000 0.12050700 14651.62619531 0 -116.44190092 0 4677.52702608 0 649.09137646 0 1482.46198101 0 15999
0.12150000 0.12150000 14695.80195268 0 89.46276548 0 4339.35204884 0 743.30713869 0 804.25169883 0 15670
0.12250000 0.12250700 14478.07054802 0 137.79464105 0 4005.98807011 0 262.40512286 0 1000.02336822 0 16887
0.12350000 0.12352200 14218.63632915 0 166.98548693 0 3502.55304582 0 -126.66414870 0 446.07960393 0 16407
0.12450000 0.12449800 14281.13434722 0 205.79832984 0 3701.50132311 0 61.62315822 0 969.72419417 0 16306
0.12550000 0.12549900 13768.89789341 0 300.60872250 0 3245.83906443 0 -126.79341618 0 379.08532558 0 17523
0.12650000 0.12650100 13616.13744997 0 442.74675099 0 3413.13366926 0 192.67599418 0 810.72518958 0 17154
0.12750000 0.12750600 13437.41110335 0 366.87910295 0 3620.31010288 0 -505.61795866 0 190.82241087 0 18007
0.12850000 0.12850300 12989.69598473 0 424.69089372 0 3665.71109118 0 -344.12465367 0 317.31457762 0 17496
0.12950000 0.12949900 12982.61437477 0 298.60114228 0 4270.52554442 0 -521.85058238 0 194.68582253 0 18405
0.13050000 0.13049000 12767.69313280 0 121.74186774 0 4696.18650630 0 -723.97209537 0 -133.02860514 0 18100
0.13150000 0.13148800 12587.73031459 0 171.76163943 0 5114.73213627 0 -324.46025928 0 -53.21661276 0 19059
0.13250000 0.13249300 12653.60052788 0 102.73640030 0 5173.30716723 0 -220.88777938 0 -304.04161723 0 18957
0.13350000 0.13349100 12555.69446001 0 89.09047512 0 5549.37437808 0 -68.75625036 0 -409.04053571 0 19468
0.13450000 0.13450700 12732.28508299 0 57.75446346 0 5447.19686294 0 257.87738875 0 -207.31918989 0 19953
0.13550000 0.13551000 12418.22130157 0 48.86850424 0 5243.42634649 0 758.87543996 0 -162.32286501 0 19956
0.13650000 0.13649900 12468.35460383 0 129.01569283 0 4654.50617339 0 780.79021262 0 -8.22174916 0 19723
0.13750000 0.13749600 12296.03542812 0 50.58495161 0 4549.64214272 0 1122.60828476 0 286.63546958 0 20946
0.13850000 0.13851100 12174.63640023 0 152.05228244 0 4588.30998123 0 975.83461191 0 744.76055483 0 20955
0.13950000 0.13949800 11991.75101284 0 187.74809290 0 3736.41478428 0 687.58948115 0 885.98134623 0 20506
0.14050000 0.14048300 11783.23694178 0 180.94637514 0 3640.44210834 0 230.79978520 0 1234.56066978 0 21447
0.14150000 0.14148400 11529.19823526 0 239.32469471 0 3301.98611483 0 -98.34838747 0 1341.17824197 0 21771
0.14250000 0.14249400 11467.14984322 0 136.04109954 0 3342.39625421 0 145.02237947 0 1726.29417666 0 22470
0.14350000 0.14350900 11272.12455304 0 122.61639037 0 3297.37744803 0 172.97787784 0 1203.60391767 0 22519
0.14450000 0.14449900 11195.93542238 0 169.28644814 0 3184.20657647 0 138.89734889 0 1155.72998621 0 22218
0.14550000 0.14550500 10994.05333525 0 130.08130652 0 3165.52461496 0 253.45306862 0 937.59391812 0 23559
0.14650000 0.14650700 10919.19060139 0 230.76831138 0 2877.35929282 0 4.43856203 0 676.39716522 0 23044
0.14750000 0.14750500 10729.70695201 0 229.89828501 0 3110.29929792 0 -167.36317280 0 717.45701421 0 23649
0.14850000 0.14849900 10524.77864854 0 129.10112178 0 3234.74454216 0 -191.92624278 0 651.07535132 0 23640
0.14950000 0.14949500 10506.08544637 0 66.91626824 0 3300.21009202 0 -39.91139170 0 658.44584600 0 24457
0.15050000 0.15050000 10600.16969299 0 28.78550802 0 3517.76164626 0 45.05612514 0 379.12466785 0 24591
0.15150000 0.15149900 10457.18861569 0 36.66464215 0 3348.74722187 0 -49.44009133 0 589.57550304 0 25020
0.15250000 0.15250500 10621.43700417 0 27.41246253 0 3181.76735526 0 282.57422247 0 464.36477048 0 25297
0.15350000 0.15350100 10475.42095118 0 37.97001892 0 3233.14836975 0 232.00478296 0 163.59755480 0 25452
0.15450000 0.15450400 10564.54807082 0 37.16912255 0 2996.81368814 0 292.05458729 0 111.24130146 0 26061
0.15550000 0.15549900 10464.50627932 0 63.64197909 0 2926.27860480 0 281.01626827 0 95.43256267 0 26128
0.15650000 0.15649500 10356.37121929 0 113.33273693 0 2525.90910706 0 -67.64960829 0 -50.60271183 0 26331
0.15750000 0.15749700 10279.44020568 0 155.46831620 0 2861.01538665 0 -11.01518576 0 -23.28545762 0 27345
0.15850000 0.15849900 10093.74465561 0 173.18695394 0 2524.08812164 0 166.43806724 0 -96.27797202 0 26980
0.15950000 0.15949700 9873.84380536 0 307.25531928 0 2607.16777120 0 -163.15804536 0 -9.76844022 0 27777
0.16050000 0.16050000 9748.21829279 0 276.17154781 0 2650.50047976 0 81.13535420 0 -275.12504323 0 28224
0.16150000 0.16150500 9329.79630998 0 325.29656370 0 2489.87158082 0 157.25670373 0 -213.96129040 0 28075
0.16250000 0.16249700 9217.78322544 0 309.37867820 0 2759.07392518 0 159.96232836 0 5.16226885 0 28590
0.16350000 0.16349900 8867.35593890 0 232.17002052 0 2469.21126478 0 123.75844048 0 -47.50849791 0 29163
0.16450000 0.16449100 8875.98875866 0 196.35730729 0 2781.94864941 0 8.12527066 0 236.02668779 0 28996
0.16550000 0.16550500 8645.67906584 0 67.55383795 0 2682.91851647 0 -41.32524075 0 373.94160380 0 30777
0.16650000 0.16650700 8786.79419511 0 -30.69608142 0 3011.68506905 0 -110.36003444 0 430.12350022 0 29211
0.16750000 0.16749900 8845.38046672 0 -72.24388706 0 3064.96575352 0 -48.11470620 0 783.68018392 0 30922
0.16850000 0.16850800 8937.20534255 0 -6.61658424 0 3286.78875504 0 65.54041259 0 635.17432679 0 30867
0.16950000 0.16949900 8882.00250681 0 142.80909534 0 3247.67129050 0 -92.00270292 0 697.33737346 0 30852
0.17050000 0.17049200 8746.76623786 0 297.05555280 0 3233.87901205 0 188.38431373 0 413.41314884 0 31257
0.17150000 0.17149500 8503.95694142 0 308.37488809 0 3245.71541727 0 200.69507441 0 955.58008336 0 32608
0.17250000 0.17250900 8160.74615265 0 329.44886008 0 3188.08460097 0 364.05432742 0 1155.92107727 0 32361
0.17350000 0.17350400 7945.56637571 0 187.92119892 0 3019.67717172 0 426.03864775 0 985.49482715 0 32508
0.17450000 0.17449800 7853.80894379 0 88.15750111 0 2827.05738080 0 226.99932119 0 1231.99780142 0 32791
0.17550000 0.17549800 7783.03780679 0 4.90510524 0 2832.74515007 0 105.23216198 0 1047.05312681 0 33633
0.17650000 0.17650100 7856.84391949 0 -59.10199267 0 2661.90974026 0 -48.24723347 0 1159.67545461 0 33984
0.17750000 0.17750300 7913.38439267 0 -39.48480901 0 2676.69119597 0 -33.12720936 0 1148.46852584 0 34069
0.17850000 0.17849800 7940.30575117 0 -79.43767872 0 2522.95281592 0 44.94214494 0 1113.92600614 0 34536
