### header ###
fiducial parameters:
Omega_m = 0.31
Omega_nu = 0
Omega_de = 0.69
Omega_k = 0
H_0 = 100
w_de = -1
zeff = 0
beta = 0
fgrowth = 0
b_1 = 2
gamma = 0.55
Lx = 3500 Ly = 3500 Lz = 3500
nx = 700 ny = 700 nz = 700
xoffset = 857.220397 yoffset = 15.9954215 zoffset = 262.898189
bins = 400 dk = 0.001
kx_ny = 0.628318531 ky_ny = 0.628318531 kz_ny = 0.628318531
############################
A(data) = 3.02217053 (not used)
A(ran) = 3.02437706 (used)
Ngal = 184817
weighted Ngal = 0
Nran = 9360983
weighted Nran = 0
SN(data) = 3436.20421
SN(ran) = 67.9161427
SN(data+ran) = 3504.12035
############################
13 columns: k_central k_mean P_0(k) sigma^{lin}_{P_0(k)} P^img_1(k) sigma^{lin}_{P_1(k)} P_2(k) sigma^{lin}_{P_2(k)} P^img_3(k) sigma^{lin}_{P_3(k)} P_4(k) sigma^{lin}_{P_4(k)} N_modes
### header ###
0.00050000 0 0 0 0 0 0 0 0 0 0 0 0
0.00150000 0.00179520 54169.14549868 0 -61842.68812669 0 -26159.91682021 0 104760.27946317 0 -93878.20549050 0 3
0.00250000 0.00253879 95679.96939617 0 -63048.36032410 0 -6581.82814772 0 -62671.68611810 0 73101.09908584 0 6
0.00350000 0.00331552 110024.38860700 0 -29956.10938508 0 -37686.64211230 0 -27460.79732930 0 49474.71253389 0 7
0.00450000 0.00420575 115229.03470846 0 3186.48842857 0 -36399.13797757 0 -56188.75321551 0 32073.06113724 0 24
0.00550000 0.00557378 102311.72851444 0 -202.34969820 0 -55863.56118987 0 -12637.75121035 0 59104.35320212 0 45
0.00650000 0.00659388 77408.40403945 0 12164.18259505 0 -49724.70460615 0 -3286.88992090 0 -22932.38877582 0 40
0.00750000 0.00754703 91058.26344161 0 -4422.15068213 0 -60292.60239089 0 -5054.70706136 0 23010.39889189 0 57
0.00850000 0.00846663 71363.63170235 0 4298.12134196 0 -43694.32030199 0 -13274.87129378 0 -1836.01416845 0 75
0.00950000 0.00948925 72947.66420336 0 8942.92683377 0 -45095.57982211 0 -20835.22056894 0 29181.85336273 0 112
0.01050000 0.01054430 54345.73612166 0 132.11024398 0 -17295.09002772 0 -28628.47612724 0 -2324.53284922 0 105
0.01150000 0.01145670 61839.20352497 0 -4831.07431507 0 -24731.23011230 0 -21953.21569064 0 6681.40907255 0 144
0.01250000 0.01249090 68148.91799979 0 -10035.83282304 0 3530.56474745 0 -28183.23395178 0 -9766.96769821 0 169
0.01350000 0.01339930 78117.80150708 0 -6575.33105160 0 -13940.43022356 0 -19738.58268362 0 -13909.06880802 0 180
0.01450000 0.01448870 80864.34210669 0 -206.46714856 0 9916.11989276 0 -19626.40098933 0 -11174.94912747 0 267
0.01550000 0.01550050 81646.91621058 0 4796.35194496 0 2087.44504400 0 -13909.85565357 0 -17905.68217543 0 238
0.01650000 0.01653350 75121.94327426 0 5128.61433992 0 17230.11906649 0 2029.10606670 0 -13847.02041599 0 315
0.01750000 0.01747870 74695.47298552 0 2733.61385127 0 6103.87567864 0 848.91417638 0 -34114.47571650 0 297
0.01850000 0.01844180 72922.14792620 0 -3783.60303605 0 16415.05948199 0 1939.03473240 0 -15177.80105603 0 388
0.01950000 0.01947590 75911.59898811 0 -4201.51918958 0 12921.91486083 0 -8670.68951371 0 -30591.76818391 0 399
0.02050000 0.02045430 80386.05241809 0 -2020.04610222 0 23527.80604504 0 -9173.39389571 0 -24618.14916594 0 462
0.02150000 0.02154770 80820.72838186 0 4335.29417393 0 29428.58564627 0 -14958.72077328 0 -27263.97353500 0 571
0.02250000 0.02255340 79921.81354290 0 9100.41959116 0 33044.25336040 0 -8072.70937613 0 -11729.95625731 0 510
0.02350000 0.02348930 69674.72393002 0 8751.44234857 0 32714.56507446 0 -3593.46742894 0 -20801.94824277 0 555
0.02450000 0.02439640 68093.05196566 0 6913.34865973 0 31376.59041795 0 6094.99556456 0 -24790.69315466 0 592
0.02550000 0.02547300 60809.89713753 0 1362.24322144 0 21161.87387918 0 18762.89420017 0 -19853.23732108 0 837
0.02650000 0.02652900 60901.28362797 0 -782.71910829 0 10718.93840861 0 18701.18302766 0 -13749.33916113 0 723
0.02750000 0.02749970 61380.36016213 0 -3595.17600785 0 -2409.38852159 0 14970.97308258 0 -6742.00742064 0 826
0.02850000 0.02848090 61613.49125829 0 1178.02019661 0 -1084.99594335 0 8162.57837872 0 -2842.38962839 0 831
0.02950000 0.02946900 60004.05488663 0 2336.39173574 0 -7989.53980137 0 5095.07223814 0 14200.31406846 0 996
0.03050000 0.03053250 57519.19663603 0 4368.95992287 0 1214.17012936 0 -2827.78802309 0 24694.36077790 0 1041
0.03150000 0.03150510 55908.86101231 0 5120.65595920 0 9391.41755728 0 -3711.30317055 0 31986.84534614 0 1036
0.03250000 0.03246190 52922.33251959 0 2941.71201825 0 8667.58709411 0 2196.32198698 0 38291.83874766 0 1059
0.03350000 0.03345080 53691.75506213 0 242.09776325 0 21256.29534532 0 502.67290817 0 38949.19200241 0 1302
0.03450000 0.03451200 53388.70711842 0 -557.41038097 0 14157.71200219 0 1954.35573934 0 33358.42954833 0 1339
0.03550000 0.03553350 55241.95320444 0 -244.59093958 0 21283.94734612 0 2441.85152090 0 24511.02576448 0 1365
0.03650000 0.03647120 51564.46191129 0 1546.63485603 0 13224.96280453 0 -3715.56337718 0 18251.33218540 0 1308
0.03750000 0.03744890 51236.68453597 0 2921.63621605 0 18014.60408101 0 -2635.55041429 0 9463.25655611 0 1579
0.03850000 0.03847530 49671.42392168 0 3130.02663995 0 15237.48891141 0 -2237.23795564 0 4510.73825054 0 1662
0.03950000 0.03950240 46235.94383877 0 1643.45058078 0 14899.70735694 0 -3008.47024294 0 -3235.72247877 0 1683
0.04050000 0.04050350 47080.67874121 0 -98.56184743 0 20384.13325510 0 -1207.34705437 0 -5561.23326460 0 1822
0.04150000 0.04152450 46212.56328525 0 -1320.00085599 0 15672.61450121 0 1196.97193374 0 -7288.80887545 0 1887
0.04250000 0.04250150 48034.11073621 0 -2159.27280217 0 11807.96637338 0 6392.97397479 0 -12906.17794980 0 1920
0.04350000 0.04349210 48681.79703133 0 -1352.29524554 0 11190.94457346 0 3197.05464026 0 -7093.35644054 0 2005
0.04450000 0.04448520 48387.96642122 0 194.52508123 0 4138.62774874 0 6175.01775712 0 -15627.31467876 0 2151
0.04550000 0.04548030 48321.19695588 0 1531.45997754 0 6048.88641527 0 817.73036312 0 -7979.49065961 0 2274
0.04650000 0.04648670 44913.93090630 0 3240.66836509 0 2900.11036990 0 -2069.34759632 0 -9823.08102666 0 2311
0.04750000 0.04749250 41592.99305434 0 3075.08233918 0 5865.28162623 0 -775.67908873 0 -6846.54547244 0 2568
0.04850000 0.04851840 39407.13611319 0 2343.73188067 0 7943.58802118 0 -1631.61417556 0 630.46674226 0 2493
0.04950000 0.04949480 37674.83942903 0 1526.69394163 0 7769.26800964 0 1799.86423570 0 -1318.98919743 0 2644
0.05050000 0.05050630 37030.30051612 0 854.48841507 0 10435.93254516 0 2234.83245638 0 6929.08557076 0 2829
0.05150000 0.05149060 37677.42477870 0 51.10089748 0 11877.20878189 0 1203.72756483 0 7098.47093662 0 2784
0.05250000 0.05249300 37457.89486993 0 -647.05007429 0 10299.51600789 0 2412.34481273 0 9351.61441305 0 3055
0.05350000 0.05348950 39115.89085275 0 -782.20653461 0 11371.26709249 0 -1105.24597565 0 6216.64188677 0 3009
0.05450000 0.05448610 39035.52020002 0 -161.83502077 0 11406.22551626 0 -2711.16627176 0 5071.02848622 0 3336
0.05550000 0.05550870 39879.13103738 0 1035.81360015 0 12217.57568602 0 -2998.17380687 0 2119.17740101 0 3349
0.05650000 0.05647670 38167.29233756 0 1562.55161746 0 13913.45266181 0 -4430.49124497 0 -1558.28017019 0 3324
0.05750000 0.05747970 37684.50638866 0 1077.60296737 0 13318.14779909 0 -1078.51233601 0 -4266.35526300 0 3639
0.05850000 0.05849280 36945.77082262 0 1049.28327192 0 15066.06898776 0 939.55653574 0 -6750.57279650 0 3846
0.05950000 0.05951020 35598.69123902 0 1349.59748937 0 12753.30509986 0 300.47271063 0 -7406.59965446 0 3787
0.06050000 0.06049470 34750.24692184 0 911.58642453 0 12215.10274286 0 2227.21129519 0 -9198.20201187 0 3930
0.06150000 0.06148310 33557.83869230 0 1030.30792942 0 12501.51452349 0 1438.12885452 0 -5809.66288641 0 4083
0.06250000 0.06249100 32997.71706638 0 192.26346230 0 10348.03065644 0 2534.48572357 0 -4544.07802061 0 4303
0.06350000 0.06350600 33115.29427302 0 -227.86597536 0 10762.92307492 0 2442.24494367 0 -4895.57316896 0 4470
0.06450000 0.06451750 32356.77516169 0 583.85738401 0 8492.81745655 0 2232.23586606 0 -4493.23655735 0 4479
0.06550000 0.06550280 30685.06558498 0 1565.83388748 0 6600.39770273 0 1165.81284991 0 -3649.53579478 0 4636
0.06650000 0.06648880 30072.11290062 0 1088.20627320 0 6573.04919950 0 1681.48894285 0 -2003.34249523 0 4653
0.06750000 0.06749660 28629.26297279 0 334.71960121 0 4924.11318117 0 2192.72497875 0 -1815.36509306 0 5220
0.06850000 0.06852730 28595.87824012 0 145.20897427 0 3672.81518245 0 2016.80879481 0 -444.70936861 0 5029
0.06950000 0.06949320 27980.78983212 0 9.47829655 0 3239.54430002 0 286.03409476 0 -2333.72770151 0 5040
0.07050000 0.07048030 28381.74384369 0 234.41028221 0 3846.88789967 0 -88.01980314 0 885.99146281 0 5475
0.07150000 0.07148790 28404.11273865 0 244.46167210 0 5110.41572639 0 -1852.57164697 0 999.35005324 0 5509
0.07250000 0.07249820 28210.66113957 0 -15.58741037 0 7493.09646183 0 -1501.02029536 0 2683.71660267 0 5916
0.07350000 0.07351270 29008.85974798 0 270.69959903 0 9284.75502250 0 -993.14521404 0 3878.81134774 0 5721
0.07450000 0.07449140 28809.67541702 0 407.26114070 0 10375.17682796 0 179.35132680 0 5551.11667894 0 6028
0.07550000 0.07549160 28795.51219710 0 787.15916532 0 11211.41379844 0 766.48086424 0 6345.98805474 0 6183
0.07650000 0.07648840 27467.54171974 0 1072.33784657 0 11846.18458587 0 -41.89873875 0 4739.56417747 0 6330
0.07750000 0.07749960 27042.08308957 0 1381.26240247 0 11378.57351546 0 -189.27457327 0 3844.02153373 0 6583
0.07850000 0.07848650 25849.67486003 0 1193.74586698 0 11548.53215451 0 -1404.38442103 0 2738.89695711 0 6549
0.07950000 0.07947320 24735.05193355 0 1371.06713226 0 12995.09149708 0 -2755.28582588 0 2793.30170665 0 6828
0.08050000 0.08048110 24307.79479926 0 748.47334177 0 13605.34642527 0 -2253.28960488 0 601.30174988 0 7147
0.08150000 0.08149960 23916.73256033 0 595.89274875 0 14105.89260232 0 -88.06780072 0 177.25382138 0 7386
0.08250000 0.08250610 23875.25455913 0 88.57003300 0 15338.65476799 0 361.54204198 0 -263.82481705 0 7227
0.08350000 0.08350160 23155.85291235 0 151.67347251 0 13061.41133640 0 1970.82329266 0 -771.44136341 0 7798
0.08450000 0.08449610 23651.34079657 0 -170.20368524 0 14163.33232756 0 2886.05955648 0 3412.02084484 0 7371
0.08550000 0.08548940 23191.26096215 0 -286.87152324 0 10437.76477123 0 3582.51903512 0 -192.03527709 0 8256
0.08650000 0.08650700 23161.36083121 0 240.30375539 0 9824.71092101 0 3368.54200781 0 2446.89857307 0 8037
0.08750000 0.08749060 22476.46798217 0 305.80639940 0 7311.53747123 0 2236.87825482 0 454.72816061 0 8155
0.08850000 0.08849210 21464.02257083 0 616.24731909 0 6727.78799747 0 910.04870351 0 2625.27645952 0 8718
0.08950000 0.08949900 21037.10265606 0 738.60067823 0 5616.81828247 0 407.04981647 0 914.17851858 0 8571
0.09050000 0.09049190 20625.35761979 0 723.41343503 0 5822.92685427 0 -188.28876820 0 1158.96729362 0 8932
0.09150000 0.09150830 19559.40671097 0 820.91483947 0 5000.84186306 0 -342.55321070 0 179.12538972 0 9285
0.09250000 0.09250820 19545.24349105 0 630.22506827 0 7103.54047010 0 -239.02681747 0 1776.65229194 0 9204
0.09350000 0.09350330 18836.97008849 0 426.70184614 0 5868.78870925 0 355.06630310 0 1917.82362447 0 9349
0.09450000 0.09448040 19185.65507416 0 198.61105777 0 7084.61121427 0 667.92845896 0 1503.04361249 0 9564
0.09550000 0.09549270 18547.29851915 0 31.30273934 0 6143.21795620 0 232.66798135 0 1839.13906935 0 10155
0.09650000 0.09649430 19087.41178677 0 149.99861555 0 6220.72224299 0 194.59364919 0 1804.94500983 0 9913
0.09750000 0.09749140 18506.15773747 0 -78.35003335 0 6155.51522810 0 -631.64588653 0 1464.71299350 0 10476
0.09850000 0.09850240 18600.12957759 0 183.11582073 0 5757.29269465 0 -297.68165705 0 186.84546865 0 10575
0.09950000 0.09950330 18388.46812432 0 489.31227071 0 6512.02370668 0 -887.71802676 0 -722.21405760 0 10882
0.10050000 0.10051200 18011.68151182 0 507.28719529 0 5808.32524897 0 65.81344800 0 -1794.44624204 0 10875
0.10150000 0.10150300 17526.75983928 0 290.34600838 0 6670.52812264 0 520.14762380 0 -1543.90337790 0 11118
0.10250000 0.10250800 17550.92723835 0 301.03361910 0 6152.95235973 0 1086.70901852 0 -571.25436641 0 11575
0.10350000 0.10349800 17248.89095321 0 3.97380609 0 5336.84739471 0 2273.75882986 0 -456.10851252 0 11364
0.10450000 0.10450100 16992.04208401 0 154.18913014 0 5339.01684030 0 1504.10023366 0 1225.32085488 0 12093
0.10550000 0.10551000 16868.05770645 0 184.36690516 0 4134.94081530 0 1595.85766558 0 1238.00030891 0 12067
0.10650000 0.10649700 16830.96355903 0 162.94222487 0 4657.91209056 0 938.48754986 0 3408.94090654 0 12054
0.10750000 0.10749900 16317.49063364 0 349.02894959 0 3761.15545654 0 147.67629711 0 3013.27000081 0 12807
0.10850000 0.10850100 16238.46885900 0 452.32940574 0 4541.12172946 0 -123.80340309 0 4215.40139323 0 12736
0.10950000 0.10950300 15799.18422844 0 603.60158702 0 4096.49778980 0 -657.69047427 0 2872.10990893 0 12933
0.11050000 0.11050200 15408.90883506 0 430.54839682 0 5171.27260944 0 -442.96819181 0 2885.25022963 0 13428
0.11150000 0.11150900 15173.52960875 0 218.52499460 0 4713.47462712 0 -703.92327073 0 2360.75022587 0 13453
0.11250000 0.11250000 15014.36199440 0 67.68535356 0 5275.19242545 0 -547.36236328 0 1135.65418400 0 13668
0.11350000 0.11349100 15027.40114925 0 66.98438658 0 5500.33141894 0 -529.29751349 0 1027.60904918 0 13791
0.11450000 0.11448600 14757.28831218 0 137.58444088 0 5694.88460179 0 -18.20074926 0 28.28439981 0 14205
0.11550000 0.11549300 14807.64642746 0 370.93922599 0 5184.66022446 0 -577.97852368 0 -84.47798650 0 14776
0.11650000 0.11649800 14355.65986156 0 225.58075106 0 5551.54382367 0 103.49098518 0 -918.94118230 0 14553
0.11750000 0.11747300 14185.47640950 0 272.72179210 0 5470.99332053 0 -85.02664267 0 -1281.80512481 0 14568
0.11850000 0.11849100 13955.71750855 0 243.69505972 0 5099.34368542 0 640.81151313 0 -899.03398986 0 16015
0.11950000 0.11950300 13847.69485503 0 259.17905610 0 5103.00813755 0 711.10941874 0 -1283.39005656 0 15270
0.12050000 0.12050700 13363.22280852 0 280.77234615 0 4615.20885843 0 412.97588753 0 -952.43045302 0 15999
0.12150000 0.12150000 13584.77603443 0 261.18214006 0 4429.61447421 0 580.98876994 0 -1102.63589655 0 15670
0.12250000 0.12250700 13139.98348501 0 120.26484624 0 4200.75482533 0 238.86495210 0 -257.29399897 0 16887
0.12350000 0.12352200 13159.42981077 0 25.48637703 0 3919.52498469 0 429.69747956 0 -227.24549144 0 16407
0.12450000 0.12449800 13263.29342353 0 -136.69193321 0 4431.50290354 0 230.97851155 0 -241.10971005 0 16306
0.12550000 0.12549900 13254.41330945 0 -43.49086452 0 3478.82403213 0 198.33678589 0 -695.25785308 0 17523
0.12650000 0.12650100 13305.33345726 0 116.48349133 0 3757.95187108 0 69.82489902 0 -78.76301486 0 17154
0.12750000 0.12750600 13008.35546495 0 291.12948174 0 4023.88318608 0 -144.85152158 0 -181.50953174 0 18007
0.12850000 0.12850300 12986.54860253 0 230.35015917 0 3858.48825122 0 150.99453720 0 444.77119219 0 17496
0.12950000 0.12949900 12580.08667210 0 411.43142212 0 4062.32621158 0 59.04432813 0 312.93409603 0 18405
0.13050000 0.13049000 12406.75583782 0 265.05117204 0 4356.05565583 0 358.05294399 0 695.54111748 0 18100
0.13150000 0.13148800 12289.96547673 0 208.70965838 0 3890.44542125 0 204.66864444 0 946.60667188 0 19059
0.13250000 0.13249300 12005.57701324 0 172.12471245 0 4238.08502641 0 402.99194155 0 1276.19604009 0 18957
0.13350000 0.13349100 12028.50794073 0 104.12270975 0 3767.51766486 0 657.72644435 0 1473.55938563 0 19468
0.13450000 0.13450700 11841.91313859 0 95.95109389 0 3696.07208881 0 587.51958802 0 1751.93410098 0 19953
0.13550000 0.13551000 11724.67315147 0 295.36720706 0 3774.12716749 0 157.69846130 0 1987.45945575 0 19956
0.13650000 0.13649900 11415.66766287 0 323.31258885 0 4237.83773209 0 67.09218442 0 2298.73555579 0 19723
0.13750000 0.13749600 11262.45759341 0 209.37060865 0 4260.97099130 0 -296.40247100 0 2281.89706099 0 20946
0.13850000 0.13851100 11232.72607223 0 13.49249029 0 4719.21859965 0 -250.64290593 0 3060.51445583 0 20955
0.13950000 0.13949800 11348.89819753 0 -70.45392584 0 4626.86541324 0 -151.79599560 0 2315.39420017 0 20506
0.14050000 0.14048300 11418.02819953 0 -16.59547193 0 4930.85757161 0 40.86695942 0 2745.32660933 0 21447
0.14150000 0.14148400 11447.92833047 0 113.71042279 0 4832.94026309 0 54.27244708 0 1903.39062893 0 21771
0.14250000 0.14249400 11266.84144719 0 268.82915475 0 4747.91598096 0 431.83320320 0 2198.69376428 0 22470
0.14350000 0.14350900 10934.94999371 0 259.12172878 0 4435.50457520 0 392.69550548 0 1691.39195614 0 22519
0.14450000 0.14449900 10714.35222312 0 66.84871193 0 3865.63730509 0 748.27213412 0 1659.43478611 0 22218
0.14550000 0.14550500 10647.80757079 0 114.09260492 0 3729.20952716 0 666.89769128 0 1576.82724389 0 23559
0.14650000 0.14650700 10569.22418153 0 -7.73618677 0 2898.08705277 0 649.31618948 0 925.59677160 0 23044
0.14750000 0.14750500 10472.79063891 0 11.78008956 0 2759.01772192 0 256.86573018 0 1191.02562950 0 23649
0.14850000 0.14849900 10469.51960954 0 151.42955039 0 2241.27334925 0 3.63816026 0 1008.25826894 0 23640
0.14950000 0.14949500 10294.44647441 0 216.68490008 0 2345.93504821 0 -145.32025672 0 887.29088204 0 24457
0.15050000 0.15050000 10007.96724988 0 216.73660707 0 2600.64819377 0 -15.71993764 0 815.30013443 0 24591
0.15150000 0.15149900 10018.09507619 0 174.95173611 0 2351.27435731 0 -25.62486185 0 1014.03596342 0 25020
0.15250000 0.15250500 9795.33910065 0 60.96411887 0 2572.08570027 0 312.86215586 0 916.67956337 0 25297
0.15350000 0.15350100 9938.89345114 0 92.99266703 0 2274.62435997 0 183.46315684 0 1164.86863525 0 25452
0.15450000 0.15450400 9806.50106683 0 54.03122271 0 2522.24465492 0 360.60906797 0 1574.06204381 0 26061
0.15550000 0.15549900 9860.65852205 0 167.40701134 0 2589.98081623 0 72.12023990 0 1803.38255938 0 26128
0.15650000 0.15649500 9720.07170336 0 110.16703246 0 2496.79582167 0 118.66080538 0 1512.19350219 0 26331
0.15750000 0.15749700 9569.09852339 0 246.49285768 0 2742.88738812 0 -152.30294895 0 1621.38518339 0 27345
0.15850000 0.15849900 9436.63869517 0 147.54590556 0 2747.87823705 0 -37.10572528 0 1525.96329933 0 26980
0.15950000 0.15949700 9339.82297043 0 39.16208993 0 2648.85934476 0 62.88750661 0 1378.22742678 0 27777
0.16050000 0.16050000 9341.54278999 0 -31.60342675 0 2715.05553691 0 292.57053316 0 1316.05538758 0 28224
0.16150000 0.16150500 9309.01234677 0 23.69731506 0 2623.65780582 0 25.78560315 0 592.65656540 0 28075
0.16250000 0.16249700 9337.24886141 0 69.22891972 0 2498.65052904 0 233.39300332 0 995.97448582 0 28590
0.16350000 0.16349900 9206.19411454 0 129.59121415 0 2349.79059141 0 -52.94425179 0 914.87094267 0 29163
0.16450000 0.16449100 9205.80069176 0 76.38539242 0 2482.16049442 0 -15.38417940 0 980.49498570 0 28996
0.16550000 0.16550500 9122.49622920 0 73.89030517 0 2418.39228282 0 2.21754434 0 845.90955044 0 30777
0.16650000 0.16650700 9194.30150606 0 53.92376209 0 2381.12952565 0 -34.88648361 0 619.27442633 0 29211
0.16750000 0.16749900 9001.11968260 0 113.68794149 0 2383.10788018 0 -109.00755934 0 784.07023450 0 30922
0.16850000 0.16850800 9063.26924049 0 123.04016290 0 2365.01043250 0 57.71006289 0 583.75621815 0 30867
0.16950000 0.16949900 8817.88583504 0 174.82246862 0 2286.96659447 0 94.27162827 0 521.47626871 0 30852
0.17050000 0.17049200 8765.71797499 0 198.48516248 0 2226.14343337 0 186.70608458 0 644.12413290 0 31257
0.17150000 0.17149500 8507.19424883 0 222.61097114 0 2316.65315305 0 269.36645786 0 677.18063857 0 32608
0.17250000 0.17250900 8324.21893623 0 174.70331773 0 2012.27881256 0 293.63951905 0 1067.16152690 0 32361
0.17350000 0.17350400 8268.60019642 0 62.90650331 0 2134.32979820 0 297.59735217 0 1089.45848169 0 32508
0.17450000 0.17449800 8193.83862840 0 137.70696398 0 1913.74326825 0 125.79861859 0 1326.71152448 0 32791
0.17550000 0.17549800 8117.63825710 0 90.78803820 0 2073.22562082 0 156.96444681 0 1197.68009474 0 33633
0.17650000 0.17650100 8056.62400493 0 128.59416843 0 1994.37245595 0 -180.40682391 0 1375.60835516 0 33984
0.17750000 0.17750300 7967.93527066 0 113.90713418 0 2105.98087705 0 -177.18525341 0 1184.33744232 0 34069
