### header ###
fiducial parameters:
Omega_m = 0.31
Omega_nu = 0
Omega_de = 0.69
Omega_k = 0
H_0 = 100
w_de = -1
zeff = 0
beta = 0
fgrowth = 0
b_1 = 2
gamma = 0.55
Lx = 3500 Ly = 3500 Lz = 3500
nx = 700 ny = 700 nz = 700
xoffset = 857.220397 yoffset = 15.9954215 zoffset = 262.898189
bins = 400 dk = 0.001
kx_ny = 0.628318531 ky_ny = 0.628318531 kz_ny = 0.628318531
############################
A(data) = 3.06008443 (not used)
A(ran) = 3.05950674 (used)
Ngal = 186892
weighted Ngal = 0
Nran = 9360983
weighted Nran = 0
SN(data) = 3444.11229
SN(ran) = 68.7050232
SN(data+ran) = 3512.81732
############################
13 columns: k_central k_mean P_0(k) sigma^{lin}_{P_0(k)} P^img_1(k) sigma^{lin}_{P_1(k)} P_2(k) sigma^{lin}_{P_2(k)} P^img_3(k) sigma^{lin}_{P_3(k)} P_4(k) sigma^{lin}_{P_4(k)} N_modes
### header ###
0.00050000 0 0 0 0 0 0 0 0 0 0 0 0
0.00150000 0.00179520 2098.25855000 0 -4250.33733570 0 146.30493772 0 -7723.05769449 0 -15784.12175646 0 3
0.00250000 0.00253879 8318.43000111 0 -7080.64326456 0 -3386.49332703 0 5338.01642239 0 4624.33626683 0 6
0.00350000 0.00331552 12298.50837128 0 -8879.37219453 0 -7477.30334756 0 1058.84794162 0 14819.22429771 0 7
0.00450000 0.00420575 20305.56110649 0 -12619.09173013 0 -12536.47294726 0 12022.88761536 0 8111.20860488 0 24
0.00550000 0.00557378 40256.47968242 0 -21922.52871414 0 -30131.12631696 0 22780.52758444 0 2298.61190863 0 45
0.00650000 0.00659388 63194.03915757 0 -27135.49289715 0 -35776.85555311 0 11539.20241441 0 -935.69537221 0 40
0.00750000 0.00754703 73850.17605055 0 -13679.42231359 0 -37515.22218865 0 -11709.04864695 0 -5965.19977057 0 57
0.00850000 0.00846663 87262.74531579 0 -7541.08279980 0 -35679.96114380 0 -20001.72631723 0 13905.92142582 0 75
0.00950000 0.00948925 79091.46667340 0 -200.19823765 0 -19382.81608798 0 -24449.65181149 0 21138.71813867 0 112
0.01050000 0.01054430 93686.32758252 0 5475.06243610 0 839.32140504 0 -20110.53581631 0 13918.51095464 0 105
0.01150000 0.01145670 81156.03699316 0 4390.05862429 0 16845.57640499 0 -12027.27146915 0 20548.92119482 0 144
0.01250000 0.01249090 81053.29744548 0 9806.33245707 0 32438.94431854 0 -823.98803338 0 17067.24203740 0 169
0.01350000 0.01339930 72490.28212512 0 9671.02874422 0 21302.60682633 0 18270.44129165 0 28217.18071699 0 180
0.01450000 0.01448870 63232.03255704 0 6089.03801968 0 32220.08884881 0 19248.15309223 0 29791.09663235 0 267
0.01550000 0.01550050 54650.02053695 0 3422.18239310 0 4184.99543300 0 27957.29687209 0 7119.88437626 0 238
0.01650000 0.01653350 55548.14853035 0 -1667.50557334 0 6637.09842737 0 21174.23859498 0 28115.67764089 0 315
0.01750000 0.01747870 51935.51579192 0 -1805.05741633 0 -20096.03537687 0 7018.93209205 0 2733.47896346 0 297
0.01850000 0.01844180 55882.67029611 0 -341.88439198 0 -10439.59699730 0 -876.67858368 0 24039.03084028 0 388
0.01950000 0.01947590 50954.99382866 0 160.05450169 0 -10440.70982172 0 -13556.33718808 0 12129.89861032 0 399
0.02050000 0.02045430 51845.25336655 0 1128.15666997 0 -13430.44189990 0 -12137.99187885 0 7346.67574541 0 462
0.02150000 0.02154770 55112.12368850 0 -1138.03720196 0 -236.86299220 0 -9300.27836116 0 10826.87113693 0 571
0.02250000 0.02255340 52361.87367415 0 -6068.36646298 0 -9084.45786712 0 3450.86853376 0 -4749.14121189 0 510
0.02350000 0.02348930 59821.16949923 0 -5545.87853570 0 -1980.20923603 0 7477.31458821 0 6889.43979563 0 555
0.02450000 0.02439640 62382.23936178 0 -5169.49658663 0 -12785.34095444 0 8592.98289521 0 -6299.17074444 0 592
0.02550000 0.02547300 67024.85292670 0 -991.21744243 0 -15453.98384449 0 5008.20448929 0 10198.54124237 0 837
0.02650000 0.02652900 65463.63894667 0 3607.10233827 0 -20037.35918005 0 -938.94616841 0 10007.73119621 0 723
0.02750000 0.02749970 61723.98685497 0 5798.47843893 0 -11858.21208215 0 -2169.83901386 0 21877.45370471 0 826
0.02850000 0.02848090 56854.53695831 0 5398.53608592 0 -6915.84408419 0 -5753.15613518 0 19994.08267474 0 831
0.02950000 0.02946900 56016.09682028 0 2317.56364576 0 9066.61895441 0 -4795.74494982 0 25500.54024833 0 996
0.03050000 0.03053250 55362.67779329 0 1110.19635823 0 14707.26741643 0 -8027.06109351 0 22287.73745639 0 1041
0.03150000 0.03150510 56107.70812374 0 236.39875333 0 20646.82726268 0 -4422.88132442 0 13736.52481930 0 1036
0.03250000 0.03246190 57319.67508556 0 -812.80470997 0 27155.50125545 0 -10939.73851092 0 18535.04620985 0 1059
0.03350000 0.03345080 56377.48374129 0 626.49317223 0 24707.96196528 0 -3504.05929302 0 -1833.90092611 0 1302
0.03450000 0.03451200 57558.87613311 0 207.25624224 0 23536.79856562 0 3675.33308821 0 -1671.92314908 0 1339
0.03550000 0.03553350 53349.81446689 0 1245.07067822 0 19069.31433910 0 -156.51594484 0 -21042.38576191 0 1365
0.03650000 0.03647120 56146.37596226 0 719.27350337 0 15357.42665471 0 3344.34088679 0 -13784.85961744 0 1308
0.03750000 0.03744890 52485.85805171 0 1166.08262553 0 14133.76941613 0 1248.88125882 0 -18846.41223510 0 1579
0.03850000 0.03847530 50915.42673808 0 1889.83440415 0 11251.32934919 0 5226.93631186 0 -13164.82532312 0 1662
0.03950000 0.03950240 50334.17268878 0 1676.70042564 0 11785.70988494 0 4384.94412821 0 -8405.57876622 0 1683
0.04050000 0.04050350 47419.69676725 0 2875.03247812 0 9867.24554338 0 1907.26865343 0 -5719.46790494 0 1822
0.04150000 0.04152450 45568.24918535 0 4141.23557971 0 14388.81978122 0 2720.08010779 0 1425.26955009 0 1887
0.04250000 0.04250150 42190.20882767 0 2783.51109986 0 10454.98544815 0 -650.65382691 0 1521.62440815 0 1920
0.04350000 0.04349210 39378.47245382 0 2386.31146563 0 13569.71356245 0 3874.78719478 0 7464.03937969 0 2005
0.04450000 0.04448520 39579.56769540 0 -803.33783392 0 8443.86442261 0 4754.86270311 0 5984.54493048 0 2151
0.04550000 0.04548030 39062.61016828 0 -879.57754750 0 9448.93596707 0 5295.81901954 0 10384.33795830 0 2274
0.04650000 0.04648670 40245.68865772 0 -181.50053922 0 7823.14444860 0 3453.13914521 0 7630.69326743 0 2311
0.04750000 0.04749250 40752.52959918 0 -763.53806188 0 9823.49693073 0 -414.79462482 0 12558.27980968 0 2568
0.04850000 0.04851840 40749.38221697 0 -17.87937905 0 10907.03945795 0 -1053.53336196 0 12260.51497181 0 2493
0.04950000 0.04949480 41866.81530614 0 235.60179119 0 16632.79088665 0 -3172.96592574 0 15960.26275341 0 2644
0.05050000 0.05050630 41819.49216656 0 684.58485521 0 19295.47623180 0 -2775.56395980 0 14652.63785388 0 2829
0.05150000 0.05149060 44527.02770814 0 1223.73592313 0 23769.70484877 0 1404.17084866 0 17680.98156731 0 2784
0.05250000 0.05249300 40791.53465722 0 2052.98120886 0 23610.87445394 0 190.45484160 0 16071.43278914 0 3055
0.05350000 0.05348950 40158.68602106 0 1447.33494747 0 21955.46382079 0 4739.71030593 0 9407.77270410 0 3009
0.05450000 0.05448610 38605.67771607 0 1266.83257803 0 25269.65728231 0 4495.31607774 0 15119.23726572 0 3336
0.05550000 0.05550870 36670.26247321 0 924.40076636 0 19684.40274710 0 2318.74391409 0 8704.43394721 0 3349
0.05650000 0.05647670 36076.08167556 0 658.92582179 0 19248.49031175 0 3849.29339892 0 11374.63928770 0 3324
0.05750000 0.05747970 35501.57201670 0 86.98285311 0 15010.98979918 0 1065.00781822 0 8583.68687706 0 3639
0.05850000 0.05849280 34694.49329422 0 382.39344909 0 13721.23753431 0 2888.42009314 0 6608.15375174 0 3846
0.05950000 0.05951020 35371.06806172 0 303.31322306 0 14235.60971176 0 1608.51463830 0 8582.43916482 0 3787
0.06050000 0.06049470 34292.86484360 0 408.95960303 0 10683.90130029 0 1725.60849697 0 4454.68112534 0 3930
0.06150000 0.06148310 34195.18358875 0 354.74706861 0 9161.04042055 0 872.38577917 0 5386.82332786 0 4083
0.06250000 0.06249100 33983.40972898 0 -216.60284333 0 9014.21504070 0 2192.55636898 0 4649.93122854 0 4303
0.06350000 0.06350600 33467.91348645 0 -187.26586898 0 9494.89898791 0 1555.57117336 0 4950.37134128 0 4470
0.06450000 0.06451750 33792.76829258 0 339.10907532 0 8918.69199079 0 1653.90438596 0 2989.25997084 0 4479
0.06550000 0.06550280 32496.27163727 0 1294.63070729 0 8059.02950419 0 -208.48821756 0 2428.27281481 0 4636
0.06650000 0.06648880 31925.80861267 0 2054.81343493 0 8083.89382360 0 -1847.58079805 0 2410.66995577 0 4653
0.06750000 0.06749660 29937.11268534 0 920.35638023 0 8046.79967619 0 -495.79138179 0 3349.96121215 0 5220
0.06850000 0.06852730 30457.55481419 0 594.00881568 0 7109.94764102 0 -538.83070938 0 2363.14448448 0 5029
0.06950000 0.06949320 29429.37249182 0 476.46533099 0 7099.98842447 0 810.95337479 0 -382.00564664 0 5040
0.07050000 0.07048030 29158.13558968 0 698.42434439 0 7898.19827353 0 255.17626037 0 -1070.17177317 0 5475
0.07150000 0.07148790 28353.19259084 0 696.74161897 0 7278.56864263 0 -806.51444182 0 -2537.73427163 0 5509
0.07250000 0.07249820 27653.34967633 0 522.55986744 0 8533.64350000 0 -1292.40505845 0 -1755.76716288 0 5916
0.07350000 0.07351270 27456.30106901 0 378.99090411 0 9951.29188889 0 432.65489477 0 -2016.56150049 0 5721
0.07450000 0.07449140 27215.97595638 0 441.99025520 0 10476.38764714 0 217.21658286 0 850.23382877 0 6028
0.07550000 0.07549160 26878.53162144 0 523.18709575 0 11472.77016859 0 690.77957783 0 1854.66240801 0 6183
0.07650000 0.07648840 26969.35607935 0 711.13864443 0 12853.23448486 0 1737.22008917 0 4605.80043377 0 6330
0.07750000 0.07749960 26065.72016708 0 715.58432180 0 10678.35965947 0 1138.99265727 0 3152.50794141 0 6583
0.07850000 0.07848650 25735.13262908 0 378.20068636 0 11977.92501244 0 2151.37062471 0 4776.70328748 0 6549
0.07950000 0.07947320 25229.52815920 0 107.00233966 0 9378.80554716 0 -7.22804192 0 2638.25941112 0 6828
0.08050000 0.08048110 25293.71227488 0 -307.49811733 0 9535.33160859 0 1272.81260422 0 991.75811774 0 7147
0.08150000 0.08149960 24843.41180659 0 198.09173970 0 7165.07179220 0 135.07440357 0 273.75031164 0 7386
0.08250000 0.08250610 25170.51474286 0 262.75358303 0 7174.35656971 0 203.34786798 0 -321.43652424 0 7227
0.08350000 0.08350160 24056.45384892 0 720.91801057 0 6933.03103916 0 -795.81559045 0 -1252.42206380 0 7798
0.08450000 0.08449610 24272.61156247 0 879.45165222 0 7691.93233261 0 -607.30088517 0 -501.70396408 0 7371
0.08550000 0.08548940 22977.01415922 0 432.16705052 0 7425.73124200 0 -767.22949158 0 -2329.25392252 0 8256
0.08650000 0.08650700 23207.67231222 0 658.20642014 0 9208.18370972 0 -1217.65473109 0 -902.34998182 0 8037
0.08750000 0.08749060 23248.13865485 0 42.99144241 0 9739.31569741 0 -594.06052268 0 -2382.97299237 0 8155
0.08850000 0.08849210 23165.07024595 0 89.94116757 0 10333.57517960 0 -302.63316370 0 -1065.51814377 0 8718
0.08950000 0.08949900 23173.05110797 0 535.48211952 0 10287.99434089 0 983.52096888 0 -1259.40250790 0 8571
0.09050000 0.09049190 22379.01154033 0 770.15543296 0 9636.74475949 0 1614.24737018 0 174.77076163 0 8932
0.09150000 0.09150830 21499.65543364 0 907.42513563 0 9336.57442237 0 2800.99031175 0 687.41862326 0 9285
0.09250000 0.09250820 20970.67041024 0 911.91802372 0 8171.72826842 0 2581.75265989 0 3114.93044602 0 9204
0.09350000 0.09350330 19407.65792610 0 721.81276637 0 7159.12548797 0 2632.22318168 0 3346.76886734 0 9349
0.09450000 0.09448040 19444.86448002 0 482.12499863 0 6917.06931512 0 1105.05151239 0 4695.36593879 0 9564
0.09550000 0.09549270 18632.16543217 0 309.47984406 0 5615.79538325 0 455.35876111 0 5276.59750679 0 10155
0.09650000 0.09649430 18825.27981173 0 -82.61248811 0 6202.38874165 0 -112.02196465 0 4893.61729574 0 9913
0.09750000 0.09749140 18643.06886338 0 -65.84537145 0 6045.60414525 0 3.92625813 0 4731.09996747 0 10476
0.09850000 0.09850240 18728.04818290 0 317.79904966 0 6293.41553127 0 -440.13554783 0 3604.98909594 0 10575
0.09950000 0.09950330 18436.80292246 0 288.04729531 0 5831.43602687 0 -499.38389377 0 2459.92648727 0 10882
0.10050000 0.10051200 18202.43535472 0 372.15096814 0 6314.77276766 0 -88.53102794 0 2019.20305341 0 10875
0.10150000 0.10150300 17958.96285989 0 215.69459875 0 6110.26036826 0 -136.98868639 0 1839.29643846 0 11118
0.10250000 0.10250800 17736.73519494 0 201.47517557 0 6092.53386205 0 168.63786259 0 1101.71753538 0 11575
0.10350000 0.10349800 17506.07704194 0 284.96061262 0 6329.14955994 0 -37.21239906 0 -221.53861306 0 11364
0.10450000 0.10450100 17025.31441017 0 525.66565924 0 6377.58552394 0 -733.90883062 0 -714.02973980 0 12093
0.10550000 0.10551000 16695.28890471 0 471.73301703 0 7343.32603149 0 -398.68902045 0 -874.15280946 0 12067
0.10650000 0.10649700 16440.12613312 0 372.97940410 0 6528.53622261 0 -55.41539645 0 -222.50643309 0 12054
0.10750000 0.10749900 16139.88835209 0 271.06941644 0 7089.19739977 0 600.10574464 0 -490.89383027 0 12807
0.10850000 0.10850100 16039.28452805 0 55.93617579 0 5933.61354202 0 1438.21877973 0 -10.79263211 0 12736
0.10950000 0.10950300 15771.19500812 0 -86.54143276 0 5649.51733544 0 1879.89766890 0 -246.03761133 0 12933
0.11050000 0.11050200 15819.75461927 0 -13.89445596 0 4205.98172792 0 1820.55827369 0 202.90835854 0 13428
0.11150000 0.11150900 15710.60790068 0 151.93313154 0 4067.57559547 0 807.34175371 0 798.81347200 0 13453
0.11250000 0.11250000 15560.43280691 0 215.18427320 0 3761.87485819 0 -22.95666858 0 33.42429976 0 13668
0.11350000 0.11349100 15315.38662098 0 420.53859734 0 4452.96130578 0 -1159.57428876 0 1181.54976094 0 13791
0.11450000 0.11448600 15205.11583730 0 471.36769588 0 5238.61534797 0 -1103.60259251 0 1316.26895995 0 14205
0.11550000 0.11549300 14813.49156584 0 365.31103217 0 6133.59595917 0 -892.84039130 0 2326.00537446 0 14776
0.11650000 0.11649800 14953.66248045 0 251.12737798 0 6507.68481550 0 326.04856323 0 2583.91086483 0 14553
0.11750000 0.11747300 14719.74453874 0 159.79371860 0 6775.56076307 0 1186.12470578 0 2970.80282234 0 14568
0.11850000 0.11849100 14635.88928429 0 185.46062048 0 5957.85962565 0 1260.91999575 0 3534.25168089 0 16015
0.11950000 0.11950300 14485.15215798 0 199.39453112 0 6073.90810379 0 1000.74501799 0 3448.40683125 0 15270
0.12050000 0.12050700 14177.15832796 0 316.55021337 0 5233.48961124 0 282.46856035 0 3794.65259572 0 15999
0.12150000 0.12150000 13968.53185039 0 119.32850003 0 5072.50101147 0 -195.06575653 0 3125.35052924 0 15670
0.12250000 0.12250700 13850.05539168 0 75.60720217 0 4833.70462734 0 -303.95956048 0 3208.29529099 0 16887
0.12350000 0.12352200 13917.38688956 0 -1.12364018 0 4859.10849799 0 -239.04030625 0 1583.88637255 0 16407
0.12450000 0.12449800 13823.86467548 0 -6.58094014 0 4899.56359997 0 -43.36114741 0 1667.15711317 0 16306
0.12550000 0.12549900 13865.56748969 0 72.45251354 0 4739.08082949 0 -128.39633297 0 214.22881789 0 17523
0.12650000 0.12650100 13856.23774959 0 13.22237745 0 4578.45193054 0 193.00422118 0 633.66583146 0 17154
0.12750000 0.12750600 13797.44914626 0 203.16464538 0 4643.50157632 0 515.12305292 0 579.70171543 0 18007
0.12850000 0.12850300 13515.30881291 0 30.18676754 0 3681.21194854 0 877.61043363 0 666.14007142 0 17496
0.12950000 0.12949900 13528.91000030 0 123.53362747 0 3885.20727801 0 779.43459014 0 1483.42867697 0 18405
0.13050000 0.13049000 13268.46412286 0 217.95284548 0 2937.33940512 0 654.07435693 0 1094.49429322 0 18100
0.13150000 0.13148800 13207.98942193 0 299.65439125 0 4112.21221952 0 256.14520447 0 2304.87295109 0 19059
0.13250000 0.13249300 12646.51891792 0 331.16193525 0 3605.41624066 0 -18.14420878 0 1896.02800270 0 18957
0.13350000 0.13349100 12636.17751924 0 297.75809347 0 4291.81533690 0 -210.60483210 0 2655.52505064 0 19468
0.13450000 0.13450700 12490.83590529 0 280.18670825 0 4443.74397218 0 -427.63369608 0 2998.76956136 0 19953
0.13550000 0.13551000 12358.08382016 0 128.73467656 0 4372.21971158 0 -248.35206132 0 2400.23863189 0 19956
0.13650000 0.13649900 12321.66411179 0 105.44438547 0 4985.03750813 0 128.21648256 0 2460.29742875 0 19723
0.13750000 0.13749600 12480.83172614 0 -51.03232951 0 4042.52018499 0 164.88011305 0 1670.24829212 0 20946
0.13850000 0.13851100 12296.93468018 0 165.00151208 0 3998.45683412 0 129.48892423 0 1408.79075612 0 20955
0.13950000 0.13949800 12122.03015481 0 243.77149614 0 3849.64185910 0 -125.51985045 0 1023.62199036 0 20506
0.14050000 0.14048300 11928.57855573 0 157.43880227 0 3973.94097488 0 275.12167103 0 1147.79408679 0 21447
0.14150000 0.14148400 11602.59968453 0 212.83722533 0 3877.36130380 0 386.87959279 0 1077.40400785 0 21771
0.14250000 0.14249400 11536.72947125 0 19.34493510 0 3645.84886134 0 618.48645672 0 702.66656598 0 22470
0.14350000 0.14350900 11531.55877191 0 -2.25512183 0 3620.07404922 0 376.86417299 0 830.22996673 0 22519
0.14450000 0.14449900 11419.82670364 0 121.98241767 0 3230.90023961 0 -6.87227532 0 705.83867761 0 22218
0.14550000 0.14550500 11502.33308001 0 83.03086513 0 3024.43196698 0 -119.82084053 0 524.82598263 0 23559
0.14650000 0.14650700 11189.08986609 0 203.30515351 0 3165.41220845 0 -158.13572261 0 480.49060802 0 23044
0.14750000 0.14750500 11094.40986498 0 282.88671256 0 3162.06249453 0 -161.36853376 0 312.29450300 0 23649
0.14850000 0.14849900 10782.89771127 0 280.31822386 0 3053.36540196 0 293.37199156 0 508.67878785 0 23640
0.14950000 0.14949500 10505.08502846 0 360.11897560 0 3125.28308534 0 499.49517621 0 612.35580581 0 24457
0.15050000 0.15050000 10200.78937252 0 269.72840681 0 2852.37132624 0 492.72830447 0 664.62145951 0 24591
0.15150000 0.15149900 9962.81355589 0 199.32483909 0 2709.44645220 0 509.45551682 0 1001.02715833 0 25020
0.15250000 0.15250500 9854.09398202 0 42.28069607 0 2435.98390121 0 455.78028551 0 1129.89897083 0 25297
0.15350000 0.15350100 9827.90326582 0 -43.09968988 0 2307.07611863 0 291.30371182 0 833.89779106 0 25452
0.15450000 0.15450400 9865.18850429 0 -139.01987198 0 1832.90050820 0 314.62019364 0 965.26840022 0 26061
0.15550000 0.15549900 9906.29556402 0 -35.16974801 0 1514.99242422 0 -94.75688716 0 488.73450126 0 26128
0.15650000 0.15649500 10100.64641516 0 -32.61137590 0 1432.92443323 0 -41.49025351 0 446.40445874 0 26331
0.15750000 0.15749700 9945.45799116 0 40.81154302 0 1279.11860928 0 -61.41599302 0 28.93298536 0 27345
0.15850000 0.15849900 9949.92052950 0 176.41864103 0 1625.74655587 0 -135.55437936 0 265.19617644 0 26980
0.15950000 0.15949700 9788.20128744 0 191.07644958 0 1524.55821799 0 -62.58209813 0 -4.45917739 0 27777
0.16050000 0.16050000 9602.31464630 0 250.89244838 0 1829.79808859 0 -85.42647261 0 222.55139569 0 28224
0.16150000 0.16150500 9592.65892732 0 254.78283760 0 2014.89788418 0 35.13119258 0 626.21440409 0 28075
0.16250000 0.16249700 9161.14158641 0 159.99605031 0 2116.56957004 0 106.54563202 0 738.53211026 0 28590
0.16350000 0.16349900 9253.37112566 0 119.41280491 0 2115.94009360 0 23.68022927 0 1039.95915213 0 29163
0.16450000 0.16449100 9189.58043276 0 39.66207407 0 2219.88239091 0 122.21172694 0 597.83962945 0 28996
0.16550000 0.16550500 9099.34048869 0 143.51388414 0 1979.91697911 0 -81.33229040 0 657.40496174 0 30777
0.16650000 0.16650700 9007.94275760 0 138.27574090 0 1934.15628998 0 30.46542327 0 54.77085753 0 29211
0.16750000 0.16749900 8901.37014802 0 86.48747763 0 2013.50404349 0 -2.86897377 0 485.50618637 0 30922
0.16850000 0.16850800 8791.50402777 0 95.22955652 0 1830.97835692 0 166.04576853 0 -201.26834760 0 30867
0.16950000 0.16949900 8708.82904164 0 93.17802536 0 1711.68133071 0 150.00873214 0 -175.24062083 0 30852
0.17050000 0.17049200 8602.44752313 0 180.50461757 0 1635.44723745 0 13.35501713 0 -439.87588880 0 31257
0.17150000 0.17149500 8501.21422264 0 217.26042139 0 1665.90940094 0 -1.66796644 0 -258.36523299 0 32608
0.17250000 0.17250900 8337.60655125 0 129.00782437 0 1733.61184029 0 82.74265484 0 -250.73957553 0 32361
0.17350000 0.17350400 8178.77615642 0 117.52212746 0 1633.54756748 0 -6.28315282 0 -448.92686076 0 32508
0.17450000 0.17449800 8198.03139113 0 109.52080745 0 1795.80636078 0 -22.82874998 0 -264.39022178 0 32791
0.17550000 0.17549800 8084.89424152 0 127.64995377 0 1576.13032355 0 48.17001020 0 -325.46180127 0 33633
0.17650000 0.17650100 8090.28975387 0 66.43741652 0 1747.53900654 0 107.17027498 0 54.79727306 0 33984
0.17750000 0.17750300 8055.99452849 0 22.58449064 0 1782.09276689 0 -127.17447424 0 288.77906167 0 34069
0.17850000 0.17849800 8087.52455379 0 -51.56581079 0 1658.50181210 0 334.88821097 0 101.32153959 0 34536
