### header ###
fiducial parameters:
Omega_m = 0.31
Omega_nu = 0
Omega_de = 0.69
Omega_k = 0
H_0 = 100
w_de = -1
zeff = 0
beta = 0
fgrowth = 0
b_1 = 2
gamma = 0.55
Lx = 3500 Ly = 3500 Lz = 3500
nx = 700 ny = 700 nz = 700
xoffset = 857.220397 yoffset = 15.9954215 zoffset = 262.898189
bins = 400 dk = 0.001
kx_ny = 0.628318531 ky_ny = 0.628318531 kz_ny = 0.628318531
############################
A(data) = 3.09385625 (not used)
A(ran) = 3.09503275 (used)
Ngal = 189335
weighted Ngal = 0
Nran = 9360983
weighted Nran = 0
SN(data) = 3440.74659
SN(ran) = 69.502804
SN(data+ran) = 3510.24939
############################
13 columns: k_central k_mean P_0(k) sigma^{lin}_{P_0(k)} P^img_1(k) sigma^{lin}_{P_1(k)} P_2(k) sigma^{lin}_{P_2(k)} P^img_3(k) sigma^{lin}_{P_3(k)} P_4(k) sigma^{lin}_{P_4(k)} N_modes
### header ###
0.00050000 0 0 0 0 0 0 0 0 0 0 0 0
0.00150000 0.00179520 17554.52424659 0 -23319.96641302 0 5091.50895186 0 25437.92982375 0 13465.62513668 0 3
0.00250000 0.00253879 33748.48012870 0 -23953.37708171 0 -6323.87769475 0 -949.18752529 0 -10984.03791545 0 6
0.00350000 0.00331552 46258.76235976 0 -16566.58345384 0 14491.67173541 0 -13626.25403563 0 -703.13754924 0 7
0.00450000 0.00420575 57882.38206115 0 -8513.91615797 0 1155.68502361 0 5753.21233844 0 9385.90963843 0 24
0.00550000 0.00557378 59621.08591622 0 3117.09989161 0 1678.82490863 0 9222.17831988 0 6754.12484213 0 45
0.00650000 0.00659388 58990.26059720 0 5229.79143715 0 -7696.30494575 0 -13729.66802235 0 -47071.68622062 0 40
0.00750000 0.00754703 48601.20156559 0 5365.28624106 0 4643.54653892 0 -8989.67670016 0 -23616.60718581 0 57
0.00850000 0.00846663 50197.71118891 0 2468.18836556 0 2450.97892929 0 -35645.45234606 0 -31405.36648382 0 75
0.00950000 0.00948925 46223.01709043 0 121.63395749 0 9712.43930151 0 -37291.64564561 0 -12268.72064685 0 112
0.01050000 0.01054430 58136.98280021 0 -6029.44008950 0 22657.77967846 0 -27650.65192015 0 -35257.53748933 0 105
0.01150000 0.01145670 61654.29482044 0 -7488.36414788 0 31461.90695700 0 -15312.23923877 0 -12632.01847847 0 144
0.01250000 0.01249090 73857.59488004 0 -9524.82160016 0 30513.42084832 0 14383.76148839 0 -17321.73036995 0 169
0.01350000 0.01339930 75640.81171200 0 -3574.87539263 0 42323.07331931 0 13898.95222236 0 -3061.05400706 0 180
0.01450000 0.01448870 82925.31541822 0 -1906.27947617 0 25018.54114498 0 25081.15156955 0 224.75681137 0 267
0.01550000 0.01550050 80206.31441290 0 7409.60090820 0 24458.08229953 0 12840.30773652 0 -7399.90022662 0 238
0.01650000 0.01653350 74365.22266705 0 7275.56738889 0 18269.87925911 0 5997.05577474 0 9143.29143305 0 315
0.01750000 0.01747870 71853.83648073 0 3618.75889308 0 23599.52139670 0 3289.86869334 0 12259.95293928 0 297
0.01850000 0.01844180 66108.73989212 0 7787.74763945 0 19332.79519223 0 -4380.43662726 0 8561.92497724 0 388
0.01950000 0.01947590 61787.15931208 0 3701.93970849 0 22096.64639397 0 1957.98646953 0 5824.27573236 0 399
0.02050000 0.02045430 57374.07983510 0 2123.63993935 0 16863.56144615 0 4595.41407249 0 12593.91267250 0 462
0.02150000 0.02154770 60548.55200803 0 -5860.67295943 0 16366.61227734 0 11073.40108876 0 5689.75886506 0 571
0.02250000 0.02255340 68064.38830630 0 -7541.43125998 0 18043.60495989 0 11364.18548252 0 5658.46489343 0 510
0.02350000 0.02348930 74319.02359254 0 -5889.35910009 0 11394.53523950 0 -584.87129070 0 15152.84681141 0 555
0.02450000 0.02439640 79412.94928431 0 -3982.52883204 0 16307.26164148 0 -6905.69377658 0 7803.82176999 0 592
0.02550000 0.02547300 79210.39275813 0 3625.69437458 0 20666.72321448 0 -9861.82754972 0 18201.76091568 0 837
0.02650000 0.02652900 78415.56634495 0 3594.14186798 0 29982.30010128 0 -4307.05765929 0 10205.51044582 0 723
0.02750000 0.02749970 68957.45800687 0 4642.91706248 0 23586.25742884 0 2360.07578683 0 10544.03388324 0 826
0.02850000 0.02848090 69725.64407783 0 4726.04167464 0 23752.61905966 0 3332.84170109 0 -447.86799147 0 831
0.02950000 0.02946900 66196.41696782 0 1771.06568852 0 24052.40721465 0 5308.38606706 0 6397.57140094 0 996
0.03050000 0.03053250 63162.90255505 0 2187.27326314 0 19183.29453751 0 4261.58922709 0 -813.04525989 0 1041
0.03150000 0.03150510 63512.14957326 0 914.66074250 0 16363.46489513 0 23.09020751 0 -4116.14644728 0 1036
0.03250000 0.03246190 60246.29090988 0 -245.69027522 0 17012.50006834 0 -5669.06482707 0 -973.98102860 0 1059
0.03350000 0.03345080 65525.12530617 0 675.81377544 0 17934.79546082 0 -3278.69548652 0 -12349.87814513 0 1302
0.03450000 0.03451200 65764.55116674 0 1196.61223292 0 24861.62166078 0 -1380.16081870 0 -4112.57192034 0 1339
0.03550000 0.03553350 63559.13549332 0 3722.21784241 0 23736.76974213 0 -2409.89435087 0 -18431.18259710 0 1365
0.03650000 0.03647120 61145.76778137 0 3649.29974112 0 29261.88679593 0 62.94011286 0 -13979.54768810 0 1308
0.03750000 0.03744890 57374.19224160 0 4852.13929454 0 29380.58806765 0 -1365.87395162 0 -17801.25653013 0 1579
0.03850000 0.03847530 53305.18908349 0 3085.23264679 0 29370.24666898 0 2511.89201560 0 -16475.98380895 0 1662
0.03950000 0.03950240 51262.08840663 0 1242.58649441 0 27043.20715465 0 2450.83280083 0 -17558.12125482 0 1683
0.04050000 0.04050350 48448.21630914 0 2441.04219404 0 26611.00413404 0 2612.84429982 0 -16592.88657655 0 1822
0.04150000 0.04152450 49800.91621811 0 1707.92695337 0 28066.55599720 0 -465.20781928 0 -15854.03860400 0 1887
0.04250000 0.04250150 43804.59108566 0 2350.35262395 0 26640.67945197 0 3075.76801887 0 -14696.02676570 0 1920
0.04350000 0.04349210 44232.85987851 0 2092.14363600 0 25714.67464475 0 1213.45072771 0 -9280.33744676 0 2005
0.04450000 0.04448520 40900.68137581 0 752.50311506 0 22207.59161668 0 4585.33120879 0 -10205.03833849 0 2151
0.04550000 0.04548030 41860.63294824 0 240.05646108 0 23707.43164372 0 3582.73260749 0 -6962.79628230 0 2274
0.04650000 0.04648670 41356.15254343 0 355.66767791 0 20817.34793427 0 3608.02407163 0 -7485.02567461 0 2311
0.04750000 0.04749250 40661.25551524 0 177.63937570 0 17801.14412363 0 4281.11423741 0 -3213.12877080 0 2568
0.04850000 0.04851840 39143.76766656 0 535.20447545 0 17150.19803980 0 2913.13828409 0 452.18889761 0 2493
0.04950000 0.04949480 39205.14161955 0 905.97958794 0 14935.00300024 0 5769.78105761 0 -992.89454752 0 2644
0.05050000 0.05050630 37190.47978904 0 1480.47238583 0 14439.40270951 0 2129.60872489 0 4014.64337118 0 2829
0.05150000 0.05149060 36422.40612459 0 1574.90509262 0 12190.59812427 0 2350.35262395 0 3249.16629705 0 2784
0.05250000 0.05249300 36622.26489458 0 -263.17847963 0 15347.19766254 0 1645.45141661 0 12252.75892281 0 3055
0.05350000 0.05348950 35899.04142655 0 183.39683700 0 12967.55190279 0 975.34002328 0 6364.06302111 0 3009
0.05450000 0.05448610 36632.15666723 0 205.32509845 0 15614.05071090 0 -190.98989657 0 11718.71560658 0 3336
0.05550000 0.05550870 35340.15627221 0 896.18111270 0 13393.34775248 0 -173.53991038 0 9873.39417933 0 3349
0.05650000 0.05647670 35125.12262372 0 1113.91926175 0 17801.36893664 0 12.84311790 0 10104.86165918 0 3324
0.05750000 0.05747970 34190.46251544 0 329.26563747 0 12575.14078577 0 2639.69821441 0 7523.82840093 0 3639
0.05850000 0.05849280 34057.82283682 0 -230.68513056 0 14043.50699076 0 2532.70970075 0 5195.49621177 0 3846
0.05950000 0.05951020 33170.93549414 0 273.61092757 0 9397.36386152 0 121.63508156 0 4580.48648832 0 3787
0.06050000 0.06049470 33905.17479989 0 381.38628678 0 13009.92915605 0 404.81967136 0 1148.08634371 0 3930
0.06150000 0.06148310 33157.44671326 0 547.18476100 0 9865.57068642 0 -3119.19065264 0 -236.74046911 0 4083
0.06250000 0.06249100 33705.54084291 0 -53.55416950 0 11681.39664615 0 -626.00083173 0 -2714.20124746 0 4303
0.06350000 0.06350600 33911.58197081 0 -434.74565580 0 10815.63048620 0 -1483.45115827 0 -3511.07345908 0 4470
0.06450000 0.06451750 34167.53158795 0 -681.58584959 0 11765.02708759 0 2459.29701083 0 -5953.16103364 0 4479
0.06550000 0.06550280 34528.01925689 0 -32.25234952 0 11246.60827588 0 2547.61480362 0 -6493.85881510 0 4636
0.06650000 0.06648880 33989.36727386 0 1098.88601546 0 7977.09640101 0 2867.28766976 0 -3590.52237845 0 4653
0.06750000 0.06749660 32648.13282864 0 1510.03529725 0 8474.72000887 0 2202.96521156 0 -2398.06918630 0 5220
0.06850000 0.06852730 31633.66410017 0 1532.44915481 0 7587.29311496 0 1078.94060480 0 -136.61662085 0 5029
0.06950000 0.06949320 30176.08891988 0 1284.68273139 0 6766.70313030 0 117.79190308 0 161.27411230 0 5040
0.07050000 0.07048030 29316.51635848 0 863.02906150 0 6937.74087182 0 -311.82127160 0 1587.59578729 0 5475
0.07150000 0.07148790 29052.36106631 0 578.69005687 0 8651.58040747 0 -2387.37932745 0 2224.77207398 0 5509
0.07250000 0.07249820 28276.08172682 0 694.32150687 0 9569.06480144 0 -1267.46205447 0 2457.65587582 0 5916
0.07350000 0.07351270 27677.62948190 0 594.70348790 0 10974.29227127 0 -1430.14799250 0 90.46486949 0 5721
0.07450000 0.07449140 27973.59581565 0 433.95094180 0 10502.80317636 0 -109.26575709 0 872.97366520 0 6028
0.07550000 0.07549160 27537.34616078 0 249.35247923 0 10462.07829876 0 2129.63120619 0 438.25498696 0 6183
0.07650000 0.07648840 27030.50521932 0 -38.57881256 0 9416.38304256 0 3170.07707850 0 806.71340134 0 6330
0.07750000 0.07749960 26804.79295264 0 -242.20005317 0 7326.27396434 0 3135.23106124 0 29.04112042 0 6583
0.07850000 0.07848650 26866.05449913 0 -215.73506509 0 6266.91007684 0 4034.08969694 0 -930.38079255 0 6549
0.07950000 0.07947320 26207.91439883 0 317.00995598 0 4530.51055517 0 1131.64127169 0 125.73005062 0 6828
0.08050000 0.08048110 25749.40825551 0 714.73902486 0 4366.41953580 0 -276.19065692 0 -1244.93579041 0 7147
0.08150000 0.08149960 25166.80532812 0 979.72837332 0 4105.27673802 0 -430.21342543 0 2944.36481183 0 7386
0.08250000 0.08250610 24586.22571787 0 767.87358087 0 5218.29225145 0 -263.23917914 0 1089.20669112 0 7227
0.08350000 0.08350160 24048.58539340 0 848.36563262 0 5373.23338113 0 -350.26317304 0 3570.18804127 0 7798
0.08450000 0.08449610 23562.09002977 0 855.53716779 0 6398.89779773 0 177.97996741 0 5108.97692309 0 7371
0.08550000 0.08548940 22978.36303731 0 873.21758732 0 6812.22776576 0 -687.02407642 0 4562.36655935 0 8256
0.08650000 0.08650700 22138.34920818 0 1100.74521909 0 9433.31146256 0 -1352.12663578 0 6253.92712525 0 8037
0.08750000 0.08749060 21656.46251134 0 568.09911575 0 9534.94942647 0 -1123.65816154 0 4756.23406250 0 8155
0.08850000 0.08849210 21571.59559832 0 373.77973843 0 11009.98133734 0 -405.88191285 0 6269.76520213 0 8718
0.08950000 0.08949900 21390.17149552 0 360.20103235 0 11597.09176567 0 -936.22368280 0 4406.00910768 0 8571
0.09050000 0.09049190 20981.46143495 0 455.74431543 0 11549.54381308 0 182.40878380 0 4296.58137281 0 8932
0.09150000 0.09150830 20564.65810584 0 407.02396297 0 11427.02072011 0 1174.79412985 0 3630.38172594 0 9285
0.09250000 0.09250820 20113.45838550 0 359.81098177 0 10393.51032930 0 1470.89535140 0 2871.42422923 0 9204
0.09350000 0.09350330 19952.49226703 0 200.22633928 0 9215.84983352 0 2219.00562015 0 2729.20751618 0 9349
0.09450000 0.09448040 19379.21907975 0 270.85809221 0 9301.04272541 0 1186.46192531 0 1282.81678337 0 9564
0.09550000 0.09549270 19193.97315570 0 389.92468508 0 7755.32960274 0 806.42339255 0 2286.77550341 0 10155
0.09650000 0.09649430 18975.79212502 0 388.79050342 0 9274.17757016 0 -90.78770098 0 1655.19706079 0 9913
0.09750000 0.09749140 18535.27102287 0 510.04565098 0 7787.79260205 0 -456.90772278 0 2261.59644577 0 10476
0.09850000 0.09850240 18423.42654809 0 578.47536044 0 9115.65067290 0 -639.96171994 0 2107.91426898 0 10575
0.09950000 0.09950330 18086.76905870 0 408.49086789 0 9445.23779298 0 -224.58258128 0 3571.17721854 0 10882
0.10050000 0.10051200 17914.56228950 0 198.99211583 0 9649.19940050 0 444.28447201 0 3160.06165870 0 10875
0.10150000 0.10150300 17887.58472775 0 176.11963972 0 9918.88509284 0 378.56263532 0 3278.29082309 0 11118
0.10250000 0.10250800 17976.61068154 0 113.23381920 0 9720.39768223 0 417.23946635 0 3519.49270648 0 11575
0.10350000 0.10349800 17277.44220607 0 512.26680357 0 10214.93011114 0 283.30936102 0 2581.12318345 0 11364
0.10450000 0.10450100 17264.85267725 0 513.90119418 0 9560.02731825 0 -536.12958101 0 2369.69778385 0 12093
0.10550000 0.10551000 16582.76999089 0 492.37422397 0 10304.88903894 0 -157.12293998 0 1567.66611355 0 12067
0.10650000 0.10649700 16321.53726791 0 261.07085762 0 8889.10659807 0 -35.67422841 0 858.12926185 0 12054
0.10750000 0.10749900 16027.25703177 0 110.46254917 0 8961.82236765 0 952.52824668 0 -707.33593229 0 12807
0.10850000 0.10850100 15934.18444372 0 -106.40546110 0 7526.73972947 0 666.12096232 0 -1018.69858534 0 12736
0.10950000 0.10950300 15770.85778860 0 -42.44964305 0 7281.36756466 0 1359.20824574 0 -1445.73877507 0 12933
0.11050000 0.11050200 16002.97722619 0 -33.58324256 0 6173.52275057 0 460.79024355 0 -1708.20796964 0 13428
0.11150000 0.11150900 15770.07094304 0 96.09733476 0 6348.10129707 0 910.77709767 0 -654.57906215 0 13453
0.11250000 0.11250000 15540.53685512 0 300.23890509 0 5778.61620909 0 641.92096536 0 -188.63160805 0 13668
0.11350000 0.11349100 15338.20514196 0 205.81294269 0 5096.10637801 0 900.52000388 0 1217.87954410 0 13791
0.11450000 0.11448600 15226.02344766 0 119.42629369 0 5251.47465241 0 1301.52122619 0 1121.71465303 0 14205
0.11550000 0.11549300 14979.51597713 0 116.19123441 0 4381.11106631 0 1295.88966017 0 1981.42322630 0 14776
0.11650000 0.11649800 14777.18426398 0 -84.24496781 0 3601.51573486 0 1247.29632706 0 1581.67196436 0 14553
0.11750000 0.11747300 14822.14686690 0 -44.31480422 0 3263.13842591 0 506.36883413 0 1853.97672832 0 14568
0.11850000 0.11849100 14853.50828244 0 -36.38351347 0 3063.30213721 0 327.39968945 0 1627.46637544 0 16015
0.11950000 0.11950300 14611.15985268 0 60.56383929 0 2860.45335412 0 -276.83249807 0 620.56148084 0 15270
0.12050000 0.12050700 14798.42909386 0 89.36092518 0 3249.57096047 0 -659.24618033 0 629.35953817 0 15999
0.12150000 0.12150000 14556.30547711 0 207.58784144 0 3141.39093784 0 -1031.42749823 0 -329.56126659 0 15670
0.12250000 0.12250700 14510.55602864 0 166.47178920 0 3653.03163716 0 -487.99261831 0 75.14049035 0 16887
0.12350000 0.12352200 14241.23003712 0 228.01435195 0 3752.42147092 0 -448.29176400 0 -979.01121981 0 16407
0.12450000 0.12449800 14423.44098547 0 219.43211511 0 3756.08592306 0 526.01861567 0 -788.99925985 0 16306
0.12550000 0.12549900 14011.80835570 0 247.70235170 0 4295.16505082 0 -65.01457495 0 -1347.02338035 0 17523
0.12650000 0.12650100 13968.75666340 0 224.08124826 0 3657.07827142 0 -82.75895379 0 -902.00826604 0 17154
0.12750000 0.12750600 13843.53581426 0 186.75329531 0 4436.46003051 0 -99.33306848 0 -895.53702341 0 18007
0.12850000 0.12850300 13607.59455542 0 201.01768109 0 3920.63780911 0 -206.72680759 0 -743.26330016 0 17496
0.12950000 0.12949900 13597.25315674 0 209.60666231 0 4712.77770678 0 71.20682462 0 -443.78875932 0 18405
0.13050000 0.13049000 13442.35698967 0 250.55860105 0 4423.84802039 0 -115.85513895 0 -390.53168022 0 18100
0.13150000 0.13148800 13242.38581317 0 318.29588642 0 4569.23459694 0 235.01840142 0 -409.17429945 0 19059
0.13250000 0.13249300 12974.07148022 0 333.27742572 0 4219.60539661 0 -12.10157217 0 -763.88764612 0 18957
0.13350000 0.13349100 12801.52749150 0 214.87965157 0 4313.37490500 0 236.49317479 0 -553.18839255 0 19468
0.13450000 0.13450700 12607.40145337 0 250.10560283 0 4378.42455078 0 198.95502168 0 -573.63513623 0 19953
0.13550000 0.13551000 12409.79081352 0 63.75168784 0 4109.66059181 0 449.71707851 0 -195.90655720 0 19956
0.13650000 0.13649900 12391.24373982 0 170.77246217 0 3799.09265276 0 799.42271527 0 -23.78903877 0 19723
0.13750000 0.13749600 12125.40235003 0 118.38428537 0 3567.50152575 0 973.96529169 0 178.91968582 0 20946
0.13850000 0.13851100 12122.47978084 0 85.82236833 0 3413.11118796 0 888.01140775 0 1163.09261244 0 20955
0.13950000 0.13949800 11999.05743581 0 50.58944787 0 2752.04851847 0 1016.52801569 0 1271.62109524 0 20506
0.14050000 0.14048300 11791.21780380 0 206.03101131 0 2820.30174971 0 432.98312177 0 2085.57909598 0 21447
0.14150000 0.14148400 11689.71472769 0 278.73554024 0 2622.07287407 0 -188.05159047 0 1594.59871270 0 21771
0.14250000 0.14249400 11360.02644175 0 348.44555981 0 3182.62164472 0 -549.78247538 0 1925.55719217 0 22470
0.14350000 0.14350900 11140.73258664 0 293.75642181 0 3363.28138327 0 -726.22584584 0 1997.08145277 0 22519
0.14450000 0.14449900 11009.98133734 0 243.84006411 0 3639.22811806 0 -592.38341759 0 1393.62711828 0 22218
0.14550000 0.14550500 10901.64394560 0 75.28560715 0 3785.04183935 0 -194.10130869 0 1459.87951369 0 23559
0.14650000 0.14650700 10790.24909685 0 51.76701844 0 3695.92596035 0 230.22089169 0 602.14030242 0 23044
0.14750000 0.14750500 10803.74911838 0 49.31026181 0 3667.95922133 0 368.60229471 0 1072.97968772 0 23649
0.14850000 0.14849900 10635.13935741 0 40.68677179 0 3135.25354254 0 434.33087579 0 256.90956872 0 23640
0.14950000 0.14949500 10591.51439193 0 83.66910928 0 3285.66468997 0 312.23942381 0 727.06777058 0 24457
0.15050000 0.15050000 10360.58646331 0 162.90175852 0 2616.09284788 0 230.44345657 0 375.10388709 0 24591
0.15150000 0.15149900 10277.68666417 0 165.21620851 0 2745.28164673 0 44.15203960 0 397.16591228 0 25020
0.15250000 0.15250500 10261.83734664 0 187.60983290 0 2746.34950855 0 -294.99176933 0 283.75786299 0 25297
0.15350000 0.15350100 10086.24714157 0 203.11518651 0 2792.88580257 0 -197.93774279 0 108.22723337 0 25452
0.15450000 0.15450400 10012.02512479 0 177.42018301 0 2924.41265678 0 4.83794235 0 134.14817395 0 26061
0.15550000 0.15549900 9876.67644934 0 95.43571006 0 3000.19712401 0 -13.28487547 0 316.62327760 0 26128
0.15650000 0.15649500 9819.27044606 0 111.31054386 0 2886.26188820 0 408.50997700 0 351.10622184 0 26331
0.15750000 0.15749700 9795.45150716 0 60.10005004 0 3074.65519445 0 225.95618880 0 169.84173628 0 27345
0.15850000 0.15849900 9758.68333862 0 67.66219782 0 2714.79700195 0 443.97535412 0 882.06173132 0 26980
0.15950000 0.15949700 9597.93079251 0 167.02145702 0 2699.31862589 0 113.29227059 0 387.75523949 0 27777
0.16050000 0.16050000 9602.39333085 0 226.95997891 0 2699.47599500 0 58.37224962 0 1349.00173488 0 28224
0.16150000 0.16150500 9188.72614330 0 207.48105526 0 2625.16405302 0 29.10418047 0 759.40262647 0 28075
0.16250000 0.16249700 9153.58786912 0 285.65078857 0 2689.88771993 0 56.05622594 0 919.81458086 0 28590
0.16350000 0.16349900 8832.68977205 0 128.12543329 0 2748.08056876 0 67.99020001 0 727.03742082 0 29163
0.16450000 0.16449100 8757.78207558 0 132.27772967 0 2549.79548987 0 -76.93685874 0 527.16741018 0 28996
0.16550000 0.16550500 8692.66498589 0 91.23710219 0 2784.26422346 0 -157.58717886 0 271.46508735 0 30777
0.16650000 0.16650700 8650.69239606 0 65.43104106 0 2605.58283944 0 -245.32720220 0 313.24883425 0 29211
0.16750000 0.16749900 8651.41179771 0 64.08688405 0 2679.24282368 0 -24.77529346 0 491.12201548 0 30922
0.16850000 0.16850800 8597.34426769 0 -15.68790179 0 2656.77276287 0 126.51127585 0 155.62118905 0 30867
0.16950000 0.16949900 8610.50706970 0 77.65120210 0 2711.61589779 0 291.98152306 0 521.31327928 0 30852
0.17050000 0.17049200 8517.31083449 0 91.76788572 0 2535.90204556 0 212.79900712 0 1.21043823 0 31257
0.17150000 0.17149500 8405.18534345 0 160.96049814 0 2437.97349639 0 202.42051430 0 150.33471101 0 32608
0.17250000 0.17250900 8197.35695208 0 172.93853556 0 2285.50530988 0 168.80310016 0 151.58354730 0 32361
0.17350000 0.17350400 8192.10756819 0 114.45342981 0 2282.12187401 0 75.21456624 0 332.92109709 0 32508
0.17450000 0.17449800 8096.85429390 0 46.69040335 0 2258.05564079 0 216.94568317 0 130.30274734 0 32791
0.17550000 0.17549800 8151.15787758 0 12.65202684 0 2158.57588182 0 -29.07900141 0 176.04882362 0 33633
0.17650000 0.17650100 8105.82433318 0 12.51219314 0 2448.20248856 0 50.11385593 0 317.54388689 0 33984
0.17750000 0.17750300 8142.33396675 0 117.67387624 0 2374.86848319 0 -101.16619380 0 312.28326235 0 34069
