### header ###
fiducial parameters:
Omega_m = 0.31
Omega_nu = 0
Omega_de = 0.69
Omega_k = 0
H_0 = 100
w_de = -1
zeff = 0
beta = 0
fgrowth = 0
b_1 = 2
gamma = 0.55
Lx = 3500 Ly = 3500 Lz = 3500
nx = 700 ny = 700 nz = 700
xoffset = 857.220397 yoffset = 15.9954215 zoffset = 262.898189
bins = 400 dk = 0.001
kx_ny = 0.628318531 ky_ny = 0.628318531 kz_ny = 0.628318531
############################
A(data) = 3.03065373 (not used)
A(ran) = 3.03154712 (used)
Ngal = 185472
weighted Ngal = 0
Nran = 9360983
weighted Nran = 0
SN(data) = 3438.90009
SN(ran) = 68.0771552
SN(data+ran) = 3506.97724
############################
13 columns: k_central k_mean P_0(k) sigma^{lin}_{P_0(k)} P^img_1(k) sigma^{lin}_{P_1(k)} P_2(k) sigma^{lin}_{P_2(k)} P^img_3(k) sigma^{lin}_{P_3(k)} P_4(k) sigma^{lin}_{P_4(k)} N_modes
### header ###
0.00050000 0 0 0 0 0 0 0 0 0 0 0 0
0.00150000 0.00179520 15736.91102339 0 -26527.82331863 0 -31543.62648781 0 49364.89137625 0 -2530.21427629 0 3
0.00250000 0.00253879 34849.16464828 0 -37557.48703540 0 -6375.96687024 0 -17000.80979158 0 19174.52682994 0 6
0.00350000 0.00331552 54766.47367852 0 -32941.85103224 0 -29106.09137680 0 -4879.98238640 0 -42480.55483605 0 7
0.00450000 0.00420575 81221.79479994 0 -28425.91960107 0 -31516.08689352 0 -15993.53507958 0 -5731.45043862 0 24
0.00550000 0.00557378 91676.16201230 0 -298.85405692 0 -35137.59974603 0 -50882.49163144 0 -10670.98579260 0 45
0.00650000 0.00659388 104795.91232599 0 10156.89463141 0 -10189.53748114 0 -39615.53777774 0 8915.12870451 0 40
0.00750000 0.00754703 74425.24774195 0 19717.56266675 0 -3950.23444249 0 -35063.86107724 0 -2895.31061204 0 57
0.00850000 0.00846663 67527.64723389 0 17976.94790106 0 17137.72091748 0 -23704.39666802 0 5450.74890857 0 75
0.00950000 0.00948925 51176.99668059 0 8562.10482765 0 24304.08538452 0 2601.76101820 0 12586.04421698 0 112
0.01050000 0.01054430 48830.06121447 0 4284.29534156 0 34925.03904071 0 20658.62994595 0 9431.97382512 0 105
0.01150000 0.01145670 46892.62265448 0 -3124.32763003 0 28876.78210189 0 31717.40694812 0 18743.78509393 0 144
0.01250000 0.01249090 53030.01795360 0 -6958.32250331 0 26029.63767823 0 27012.18295863 0 19912.13833091 0 169
0.01350000 0.01339930 58584.36069930 0 -8225.88572364 0 14855.08197354 0 21243.48100349 0 33200.38599906 0 180
0.01450000 0.01448870 64760.53624344 0 -7206.39242429 0 15835.60393681 0 7185.19255701 0 20203.60840436 0 267
0.01550000 0.01550050 70240.01625528 0 -2773.36079225 0 20458.77117596 0 -7847.97504606 0 3613.22849292 0 238
0.01650000 0.01653350 71476.26302268 0 -1457.67634614 0 10114.53985946 0 -6076.94307949 0 16047.15298356 0 315
0.01750000 0.01747870 71888.23287197 0 3180.31731132 0 10589.76085041 0 -7990.60766319 0 9335.55152315 0 297
0.01850000 0.01844180 73910.20112546 0 5111.32621909 0 6485.40584575 0 -7080.02502877 0 18758.95997241 0 388
0.01950000 0.01947590 62788.70129221 0 5715.26390157 0 10662.25180698 0 5138.93325729 0 219.95930163 0 399
0.02050000 0.02045430 59671.78125102 0 5166.96744021 0 8499.70797544 0 4933.47664323 0 13731.01690044 0 462
0.02150000 0.02154770 57332.93905342 0 3434.95177233 0 12765.33259614 0 898.20442983 0 7039.36759508 0 571
0.02250000 0.02255340 56470.78114235 0 760.76724147 0 9537.92819891 0 2672.64456170 0 13348.94718210 0 510
0.02350000 0.02348930 54787.38128888 0 -260.13788361 0 13786.99534108 0 -1290.16816895 0 3662.87844720 0 555
0.02450000 0.02439640 58039.18913885 0 -1038.49561941 0 14537.64599690 0 -6698.70843402 0 2733.14174394 0 592
0.02550000 0.02547300 58431.03822333 0 -805.62081009 0 21776.84988067 0 -5114.17010373 0 5168.56361262 0 837
0.02650000 0.02652900 58041.10004947 0 122.67708988 0 19831.09323914 0 -4615.27630234 0 -4393.80176098 0 723
0.02750000 0.02749970 62016.46858700 0 -30.73654777 0 23460.92417319 0 -3453.19534846 0 5743.02830888 0 826
0.02850000 0.02848090 62213.51719431 0 -90.93663960 0 27038.37367483 0 983.96834678 0 -2246.73630551 0 831
0.02950000 0.02946900 61702.74202509 0 1129.47182610 0 32009.77627363 0 5486.92132262 0 16574.22709634 0 996
0.03050000 0.03053250 61834.81967118 0 1943.87945286 0 34796.33358984 0 8990.30617660 0 18782.45293244 0 1041
0.03150000 0.03150510 62297.37244876 0 2450.21456504 0 42779.21892598 0 6491.03741177 0 26440.37105594 0 1036
0.03250000 0.03246190 60116.34898743 0 3169.88598744 0 39491.44099367 0 10123.62230525 0 31101.19447504 0 1059
0.03350000 0.03345080 56186.95471140 0 2831.40751263 0 38680.99007596 0 9617.51200609 0 30981.70635777 0 1302
0.03450000 0.03451200 54127.44268446 0 2367.57330087 0 38651.20235153 0 7491.78130570 0 30967.76795087 0 1339
0.03550000 0.03553350 53422.42907062 0 2309.21184227 0 35051.49636144 0 6704.22759353 0 27394.25267698 0 1365
0.03650000 0.03647120 51060.43113251 0 1598.26316484 0 32773.35367779 0 4454.26522127 0 22894.84500238 0 1308
0.03750000 0.03744890 49599.48375701 0 1492.42119755 0 27480.24365507 0 2665.21449157 0 20125.37347527 0 1579
0.03850000 0.03847530 49570.25806511 0 -105.30275327 0 27765.86859014 0 7366.05462727 0 28334.30829761 0 1662
0.03950000 0.03950240 48791.84300198 0 -128.76053006 0 25645.43223625 0 9145.71941361 0 23115.38656972 0 1683
0.04050000 0.04050350 51911.01117333 0 -1724.70924491 0 22269.41519570 0 8842.32300973 0 26141.14493349 0 1822
0.04150000 0.04152450 52296.67789991 0 -627.57339877 0 21530.34241014 0 5186.08778711 0 25686.01098539 0 1887
0.04250000 0.04250150 52060.96145408 0 -358.74087182 0 15689.70029032 0 1941.73248857 0 15625.06654861 0 1920
0.04350000 0.04349210 53306.42555507 0 -266.13926703 0 16672.58279024 0 -545.22663964 0 18404.20503534 0 2005
0.04450000 0.04448520 49819.57569832 0 2414.66038678 0 11479.06493300 0 -5380.61848866 0 1540.85716155 0 2151
0.04550000 0.04548030 48522.62941698 0 3309.69720123 0 11261.67074786 0 -2242.13887936 0 -232.06323434 0 2274
0.04650000 0.04648670 44223.08051237 0 2322.95915811 0 7218.24007016 0 -426.18365214 0 -7274.36463926 0 2311
0.04750000 0.04749250 41838.37645979 0 3244.75996196 0 6119.50018316 0 3060.40204932 0 -8230.28081807 0 2568
0.04850000 0.04851840 38791.59807916 0 1196.00523778 0 1672.15920274 0 5202.78015344 0 -6569.29482216 0 2493
0.04950000 0.04949480 37585.47625572 0 924.58061677 0 2980.70583564 0 5610.09637333 0 -7771.86459996 0 2644
0.05050000 0.05050630 37470.48439874 0 632.88460624 0 1636.89728140 0 194.51271651 0 -1052.43177819 0 2829
0.05150000 0.05149060 37333.68567935 0 130.71415516 0 5567.21329079 0 -171.79423732 0 1581.77313021 0 2784
0.05250000 0.05249300 37834.45666941 0 149.79291164 0 7687.16629670 0 -1404.22705192 0 5172.64396883 0 3055
0.05350000 0.05348950 37441.25870684 0 705.19458832 0 7630.81691459 0 -397.06811862 0 4796.16085390 0 3009
0.05450000 0.05448610 37712.27079597 0 -139.12553410 0 7606.30105535 0 1133.74327338 0 7430.72209093 0 3336
0.05550000 0.05550870 38294.98612986 0 150.03570970 0 6460.83378325 0 2250.47944220 0 2501.44945107 0 3349
0.05650000 0.05647670 37117.52796579 0 -200.16563976 0 6708.89246359 0 664.55738780 0 -116.65659735 0 3324
0.05750000 0.05747970 35598.91605203 0 1588.87722148 0 4755.27860719 0 -2660.36977111 0 -4608.61059645 0 3639
0.05850000 0.05849280 34795.32193128 0 1930.68292890 0 6429.41616446 0 -3353.96288381 0 -4051.27665191 0 3846
0.05950000 0.05951020 32854.96080209 0 1933.97643957 0 7824.62821449 0 -3453.86978751 0 -3939.92676577 0 3787
0.06050000 0.06049470 32084.52660099 0 550.26807149 0 8047.49659654 0 360.43933414 0 -4571.03310106 0 3930
0.06150000 0.06148310 32315.52197351 0 -367.18147645 0 8343.78890916 0 1954.41194260 0 -4684.87841166 0 4083
0.06250000 0.06249100 32690.62248840 0 -699.53716881 0 6107.41648362 0 2591.01495610 0 -5565.11128910 0 4303
0.06350000 0.06350600 32861.14315999 0 -523.53218373 0 7308.88467765 0 1400.12421440 0 -1612.02172133 0 4470
0.06450000 0.06451750 33330.10310849 0 394.66711562 0 6130.93192495 0 -290.81024726 0 -3837.87289778 0 4479
0.06550000 0.06550280 32517.96609318 0 667.69465342 0 7917.26241717 0 -434.69956913 0 -1826.12239580 0 4636
0.06650000 0.06648880 32441.41726170 0 958.21264376 0 8546.90746786 0 -2609.15736638 0 -1043.15262101 0 4653
0.06750000 0.06749660 31085.23275100 0 463.67009826 0 9101.65606274 0 -393.01586403 0 -847.51246723 0 5220
0.06850000 0.06852730 31682.33611784 0 215.75529826 0 10644.13187800 0 826.80381639 0 -92.03204101 0 5029
0.06950000 0.06949320 31213.82579537 0 -227.87496788 0 9515.42441615 0 854.61993069 0 66.58298295 0 5040
0.07050000 0.07048030 31471.46151012 0 116.97245964 0 9100.61068222 0 1722.33746761 0 515.02301113 0 5475
0.07150000 0.07148790 31645.69159645 0 192.65126475 0 8116.73900504 0 618.46959574 0 -366.94879498 0 5509
0.07250000 0.07249820 30750.93579827 0 915.82977018 0 8984.32615041 0 -144.84252906 0 230.79641300 0 5916
0.07350000 0.07351270 30613.79985935 0 1277.57864013 0 8150.53964179 0 -1467.74796920 0 -545.67064535 0 5721
0.07450000 0.07449140 29092.15296989 0 1338.67157686 0 11566.96682171 0 -1961.69588427 0 -1219.65556692 0 6028
0.07550000 0.07549160 27998.55006027 0 1828.53913571 0 10576.36199474 0 -2316.97913193 0 -2234.13553604 0 6183
0.07650000 0.07648840 27198.21572823 0 1273.94790995 0 13345.79979989 0 -1758.47615971 0 -3596.37875748 0 6330
0.07750000 0.07749960 26135.41220161 0 586.09314944 0 12263.43754100 0 138.29597407 0 -4316.72461892 0 6583
0.07850000 0.07848650 25988.38449005 0 270.36462764 0 12748.80883957 0 1289.97707789 0 -5429.17809982 0 6549
0.07950000 0.07947320 25566.86008764 0 155.22214594 0 10495.99134202 0 1678.07178503 0 -6072.51426310 0 6828
0.08050000 0.08048110 25266.62230661 0 580.35254911 0 9980.68619055 0 1103.24176762 0 -6527.54704534 0 7147
0.08150000 0.08149960 24327.01631201 0 729.68909033 0 8717.16960449 0 1251.79258736 0 -4113.65102281 0 7386
0.08250000 0.08250610 23973.27303351 0 267.41395683 0 7969.31787070 0 1065.79466377 0 -5139.52901178 0 7227
0.08350000 0.08350160 23895.37532394 0 111.02064748 0 7554.44793352 0 1241.58607649 0 -4328.60598674 0 7798
0.08450000 0.08449610 23621.32825912 0 611.37899326 0 7590.27188740 0 142.69556477 0 -3355.99744159 0 7371
0.08550000 0.08548940 22867.53022110 0 752.85157523 0 7797.45956168 0 350.75438947 0 -3160.96091076 0 8256
0.08650000 0.08650700 22363.61184883 0 267.20375666 0 8063.50328318 0 835.92448039 0 317.84401226 0 8037
0.08750000 0.08749060 22135.98867153 0 242.18768845 0 7880.25819496 0 1182.35908779 0 -598.51968882 0 8155
0.08850000 0.08849210 22466.91342905 0 24.95761682 0 8276.17639501 0 1091.74370599 0 -412.44420475 0 8718
0.08950000 0.08949900 21787.64090537 0 591.37175902 0 7888.84605212 0 1100.92282137 0 -553.06586946 0 8571
0.09050000 0.09049190 21191.43679060 0 689.04177322 0 7385.63584085 0 -282.71473060 0 720.58528731 0 8932
0.09150000 0.09150830 20260.03647103 0 684.56911830 0 7235.67431944 0 592.86564150 0 -631.28955790 0 9285
0.09250000 0.09250820 19834.12821483 0 609.75471923 0 7125.57214553 0 -191.63735805 0 -566.77946335 0 9204
0.09350000 0.09350330 19803.55364485 0 334.69711991 0 7391.21120361 0 342.22273557 0 -1040.58413232 0 9349
0.09450000 0.09448040 19014.57237004 0 60.48065848 0 6849.43431968 0 191.86329513 0 -1508.34919964 0 9564
0.09550000 0.09549270 19455.99272424 0 4.98040636 0 7107.23864419 0 633.55679715 0 -1144.12963465 0 10155
0.09650000 0.09649430 18992.20347508 0 203.63450458 0 6460.40663853 0 563.61859237 0 -2089.62573024 0 9913
0.09750000 0.09749140 18954.77210815 0 461.60631479 0 6031.13742776 0 272.05409745 0 -1099.45029613 0 10476
0.09850000 0.09850240 18446.24506908 0 720.64261462 0 7467.02939279 0 540.76072911 0 -1019.84737985 0 10575
0.09950000 0.09950330 17696.49366532 0 646.79266339 0 5380.04521547 0 324.83344889 0 -289.35907925 0 10882
0.10050000 0.10051200 17247.42966862 0 500.98793462 0 6563.76442200 0 564.72916866 0 167.65318159 0 10875
0.10150000 0.10150300 17166.83420288 0 -76.24702001 0 5518.92345525 0 1020.75899662 0 895.65505025 0 11118
0.10250000 0.10250800 17103.99896529 0 -211.72102871 0 5764.09328834 0 1245.77883921 0 1566.92423060 0 11575
0.10350000 0.10349800 17606.34364646 0 -233.73359504 0 5363.47649629 0 63.86836579 0 1518.15104708 0 11364
0.10450000 0.10450100 17622.08055748 0 74.30025171 0 5736.20523388 0 592.75323500 0 2285.65143834 0 12093
0.10550000 0.10551000 17609.71584168 0 414.08758789 0 6100.24494846 0 168.09269103 0 3378.61363086 0 12067
0.10650000 0.10649700 17172.11730872 0 350.04960067 0 5564.07714924 0 377.82974489 0 3473.76573930 0 12054
0.10750000 0.10749900 16964.39008321 0 309.71252553 0 5635.54520659 0 658.95055122 0 3392.28226215 0 12807
0.10850000 0.10850100 16430.57158000 0 320.98465008 0 5517.09122918 0 894.87607315 0 3569.23258596 0 12736
0.10950000 0.10950300 16187.99833722 0 307.54420400 0 4566.33450905 0 511.11688500 0 2595.09531231 0 12933
0.11050000 0.11050200 15792.32743149 0 346.88760562 0 4569.09970913 0 6.46191289 0 2081.70107148 0 13428
0.11150000 0.11150900 15363.04698007 0 493.70848921 0 3774.66671872 0 -585.61654585 0 1653.42103797 0 13453
0.11250000 0.11250000 15046.73506850 0 432.27945703 0 4316.78082217 0 -333.19536897 0 438.53375510 0 13668
0.11350000 0.11349100 14744.24915733 0 302.69498727 0 4151.41960927 0 -478.77303659 0 792.74914093 0 13791
0.11450000 0.11448600 14527.86663076 0 154.09470868 0 4064.04603114 0 258.67210275 0 -207.15170419 0 14205
0.11550000 0.11549300 14534.16139517 0 37.43518876 0 4023.82698282 0 391.21735991 0 49.88409703 0 14776
0.11650000 0.11649800 14213.12841029 0 -135.96129092 0 3746.78990491 0 705.38792752 0 -405.63686667 0 14553
0.11750000 0.11747300 14480.65589769 0 -73.65256541 0 3316.35166647 0 477.89176957 0 -309.39891137 0 14568
0.11850000 0.11849100 14288.10355067 0 119.23407856 0 3179.96885115 0 395.02344425 0 -607.78535722 0 16015
0.11950000 0.11950300 14142.42471720 0 208.17123121 0 2860.45335412 0 394.85820668 0 -599.13342835 0 15270
0.12050000 0.12050700 13941.77910165 0 191.69018911 0 2867.07409740 0 -462.62921401 0 -548.77868527 0 15999
0.12150000 0.12150000 13931.32529647 0 28.18964112 0 3095.12441943 0 -233.05016348 0 -831.20565521 0 15670
0.12250000 0.12250700 14043.05736473 0 -69.75891640 0 3373.34176567 0 -436.37555016 0 -1172.64716556 0 16887
0.12350000 0.12352200 14136.46717231 0 155.28172139 0 3371.70063067 0 -821.23857021 0 -1372.17995668 0 16407
0.12450000 0.12449800 14006.52524986 0 284.04787178 0 3786.51436459 0 -778.64999272 0 -1457.62014289 0 16306
0.12550000 0.12549900 13810.60070762 0 557.55763349 0 4403.27762955 0 -825.36051683 0 -1492.82586098 0 17523
0.12650000 0.12650100 13588.37304267 0 417.24171448 0 4574.60762799 0 -2.01503277 0 -1472.81750268 0 17154
0.12750000 0.12750600 13189.55475473 0 276.62454603 0 4797.93687671 0 178.73758727 0 -1449.45943046 0 18007
0.12850000 0.12850300 13202.14428355 0 -79.95969454 0 4111.22304226 0 743.48811317 0 -1895.03882544 0 17496
0.12950000 0.12949900 13216.86953601 0 -66.32276188 0 4223.80939998 0 435.22787972 0 -1510.12522246 0 18405
0.13050000 0.13049000 13321.51999431 0 -34.27128279 0 3358.65023517 0 375.00946562 0 -1955.49104507 0 18100
0.13150000 0.13148800 13202.59390958 0 56.65782557 0 3766.75330061 0 314.02781134 0 -379.95422788 0 19059
0.13250000 0.13249300 13138.85941993 0 -17.33757969 0 3068.20306093 0 642.90789449 0 -1007.57371331 0 18957
0.13350000 0.13349100 13094.57125605 0 -25.62182687 0 3247.33407098 0 560.36667211 0 -690.89985279 0 19468
0.13450000 0.13450700 13225.86205659 0 -19.89010666 0 2976.42314771 0 635.07428500 0 -670.55539903 0 19953
0.13550000 0.13551000 12986.88582205 0 136.98306607 0 3010.54976333 0 358.65769100 0 45.85241284 0 19956
0.13650000 0.13649900 12907.97645392 0 301.34610919 0 3019.72213433 0 29.61371916 0 307.03949878 0 19723
0.13750000 0.13749600 12703.28420411 0 256.56110854 0 3245.58052946 0 153.37305890 0 446.39771435 0 20946
0.13850000 0.13851100 12538.94589042 0 232.46789777 0 3101.40794319 0 197.82983254 0 802.00244462 0 20955
0.13950000 0.13949800 12468.24219732 0 301.59227944 0 3253.90985166 0 98.55386657 0 1081.48436407 0 20506
0.14050000 0.14048300 12133.04599252 0 289.29837973 0 2975.75994932 0 274.25951312 0 1005.25813926 0 21447
0.14150000 0.14148400 11807.29193434 0 265.16357855 0 3132.58950832 0 33.51118999 0 1147.73788354 0 21771
0.14250000 0.14249400 11814.26113779 0 168.00501396 0 2874.47044558 0 254.56814117 0 1140.60007032 0 22470
0.14350000 0.14350900 11497.49960019 0 181.71523565 0 2842.38962839 0 353.34086321 0 649.68713095 0 22519
0.14450000 0.14449900 11411.39621559 0 312.45074804 0 2834.08278750 0 -80.81892988 0 672.88558593 0 22218
0.14550000 0.14550500 10900.73345289 0 333.70457045 0 2674.65663819 0 163.17490634 0 426.30729930 0 23559
0.14650000 0.14650700 10761.12457081 0 368.34713193 0 2656.55919051 0 -155.53463603 0 316.78514297 0 23044
0.14750000 0.14750500 10400.81675228 0 180.99470994 0 2353.98335413 0 231.82268442 0 494.83143022 0 23649
0.14850000 0.14849900 10272.01013555 0 116.15976059 0 2403.04879457 0 235.76815282 0 -48.56646795 0 23640
0.14950000 0.14949500 10385.06860060 0 -21.66343171 0 2164.67955517 0 -33.74533275 0 -246.79972745 0 24457
0.15050000 0.15050000 10215.55958758 0 85.55787582 0 2287.64103352 0 -327.96621825 0 -521.61677685 0 24591
0.15150000 0.15149900 10328.73045914 0 70.38636953 0 2522.15472972 0 -596.53346584 0 -225.38966000 0 25020
0.15250000 0.15250500 10143.20351882 0 64.39071883 0 2591.03743740 0 -270.04876536 0 -165.70517682 0 25297
0.15350000 0.15350100 10445.23980396 0 147.06480571 0 3054.50070769 0 4.67617815 0 -29.83583442 0 25452
0.15450000 0.15450400 10141.13523909 0 152.41872765 0 2953.88564299 0 96.40409212 0 -173.98616421 0 26061
0.15550000 0.15549900 10119.50822708 0 227.18366786 0 3279.33620361 0 335.04108382 0 171.50872479 0 26128
0.15650000 0.15649500 9797.04767956 0 256.38912659 0 2856.91254914 0 167.16196515 0 260.29525272 0 26331
0.15750000 0.15749700 9672.46754751 0 258.12468306 0 3037.01025515 0 221.95788933 0 358.33283620 0 27345
0.15850000 0.15849900 9283.66467938 0 200.39382497 0 2569.46662865 0 172.39898433 0 23.47463777 0 26980
0.15950000 0.15949700 9227.97849565 0 263.08405816 0 2736.83991803 0 52.20281847 0 65.35730239 0 27777
0.16050000 0.16050000 8950.72784538 0 230.24786925 0 2519.94032152 0 -46.99648627 0 -94.01084517 0 28224
0.16150000 0.16150500 8709.19998312 0 215.31354069 0 2529.77589091 0 117.01292598 0 -119.34648507 0 28075
0.16250000 0.16249700 8612.91256896 0 121.40577229 0 2518.71509059 0 319.39747020 0 105.69966064 0 28590
0.16350000 0.16349900 8537.39787735 0 1.72140449 0 2374.52002302 0 563.68603627 0 611.33852692 0 29163
0.16450000 0.16449100 8535.55441063 0 21.48358130 0 2263.32750599 0 489.87879951 0 712.12782170 0 28996
0.16550000 0.16550500 8641.94716979 0 -96.70286861 0 2158.55340052 0 462.28637416 0 1144.43313222 0 30777
0.16650000 0.16650700 8586.11485761 0 -66.06152916 0 2070.24684838 0 107.78918521 0 1004.19477370 0 29211
0.16750000 0.16749900 8843.40211220 0 46.90498737 0 2248.23131205 0 -293.63727092 0 1245.64395141 0 30922
0.16850000 0.16850800 8650.25401068 0 80.47260543 0 2317.19270429 0 -464.73683602 0 885.23609108 0 30867
0.16950000 0.16949900 8728.14047960 0 221.42058623 0 2789.92951143 0 -489.91139739 0 961.23637881 0 30852
0.17050000 0.17049200 8529.24840557 0 134.58206307 0 2639.77689897 0 -334.15644461 0 538.50248237 0 31257
0.17150000 0.17149500 8490.40071664 0 41.32827573 0 2895.25440878 0 220.61800377 0 769.68107750 0 32608
0.17250000 0.17250900 8547.03111502 0 -25.80538670 0 2563.02573578 0 307.08783358 0 481.98786269 0 32361
0.17350000 0.17350400 8588.12693409 0 -31.83026308 0 2455.53139284 0 449.25508777 0 240.02273912 0 32508
0.17450000 0.17449800 8465.19917770 0 148.72954608 0 2371.00169934 0 41.18877925 0 449.64513835 0 32791
0.17550000 0.17549800 8377.33101094 0 210.02369045 0 2143.69326026 0 -28.67433798 0 279.92704922 0 33633
0.17650000 0.17650100 8178.22536454 0 182.47060738 0 2202.44814163 0 -134.97436178 0 565.62167633 0 33984
0.17750000 0.17750300 8047.69892825 0 160.29055536 0 2228.88615215 0 58.87965259 0 80.83522882 0 34069
