### header ###
fiducial parameters:
Omega_m = 0.31
Omega_nu = 0
Omega_de = 0.69
Omega_k = 0
H_0 = 100
w_de = -1
zeff = 0
beta = 0
fgrowth = 0
b_1 = 2
gamma = 0.55
Lx = 3500 Ly = 3500 Lz = 3500
nx = 700 ny = 700 nz = 700
xoffset = 857.220397 yoffset = 15.9954215 zoffset = 262.898189
bins = 400 dk = 0.001
kx_ny = 0.628318531 ky_ny = 0.628318531 kz_ny = 0.628318531
############################
A(data) = 3.04263352 (not used)
A(ran) = 3.04244633 (used)
Ngal = 185923
weighted Ngal = 0
Nran = 9360983
weighted Nran = 0
SN(data) = 3448.97037
SN(ran) = 68.3219105
SN(data+ran) = 3517.29228
############################
13 columns: k_central k_mean P_0(k) sigma^{lin}_{P_0(k)} P^img_1(k) sigma^{lin}_{P_1(k)} P_2(k) sigma^{lin}_{P_2(k)} P^img_3(k) sigma^{lin}_{P_3(k)} P_4(k) sigma^{lin}_{P_4(k)} N_modes
### header ###
0.00050000 0 0 0 0 0 0 0 0 0 0 0 0
0.00150000 0.00179520 -1913.93435932 0 -1410.79159195 0 2777.55355498 0 -6134.13551041 0 529.92361774 0 3
0.00250000 0.00253879 -116.67907865 0 -1838.30726120 0 -1727.59809215 0 1992.61891443 0 173.34769525 0 6
0.00350000 0.00331552 2186.89108102 0 -4344.16304736 0 -5183.99702607 0 5471.89257259 0 8032.98491644 0 7
0.00450000 0.00420575 5871.76748170 0 -6760.07114636 0 -5373.23338113 0 -3965.48800553 0 -7030.47624035 0 24
0.00550000 0.00557378 20758.55933095 0 -13974.03976925 0 -11110.64136464 0 -2162.33025917 0 -6007.86928075 0 45
0.00650000 0.00659388 28209.87429402 0 -10335.67718129 0 3646.92796381 0 -25070.58535787 0 -18442.08602831 0 40
0.00750000 0.00754703 46469.07493493 0 -11227.48792899 0 -11852.81656980 0 -12997.67684675 0 3556.33955957 0 57
0.00850000 0.00846663 50226.71206779 0 -5217.23563028 0 6732.71140249 0 -6136.27123405 0 5445.24098971 0 75
0.00950000 0.00948925 60770.44245346 0 -3447.23780358 0 -12998.57609881 0 7827.25852676 0 26126.53208754 0 112
0.01050000 0.01054430 66667.06301393 0 -5080.22333852 0 23184.51657171 0 11358.67756367 0 29145.77087388 0 105
0.01150000 0.01145670 68701.39598322 0 -5199.94750946 0 8055.54490246 0 26019.52109258 0 33671.93129722 0 144
0.01250000 0.01249090 76512.52417619 0 -3885.30844387 0 25859.56663267 0 15913.38923986 0 39740.08418784 0 169
0.01350000 0.01339930 71692.64554925 0 -2342.94503511 0 10689.17316548 0 12053.01255932 0 35771.90966678 0 180
0.01450000 0.01448870 81270.24200459 0 -1161.22666442 0 32583.38668043 0 4334.76586334 0 63008.79323353 0 267
0.01550000 0.01550050 79354.61030701 0 3999.24367967 0 35029.46468600 0 9772.10467559 0 34965.73019636 0 238
0.01650000 0.01653350 78653.64332743 0 3425.57706962 0 33395.07406972 0 10248.66330398 0 49948.05633617 0 315
0.01750000 0.01747870 69747.11372073 0 6452.78547733 0 21287.65676086 0 12975.30795180 0 24645.80116674 0 297
0.01850000 0.01844180 65611.90312981 0 9664.57661070 0 22917.66352336 0 3705.00840614 0 26552.44034373 0 388
0.01950000 0.01947590 58515.23069731 0 2293.76718817 0 14607.11321842 0 9617.48952479 0 14458.96144178 0 399
0.02050000 0.02045430 57639.35919235 0 -2942.97097113 0 6957.92908053 0 222.86276172 0 14997.50101830 0 462
0.02150000 0.02154770 60792.92375493 0 -3953.30314014 0 8785.46779833 0 -3347.94913567 0 6561.48256990 0 571
0.02250000 0.02255340 69167.65817554 0 -3550.32581143 0 11550.78028466 0 -9125.80098051 0 5074.54680990 0 510
0.02350000 0.02348930 66263.52365269 0 1883.29234542 0 15912.82720733 0 -8178.16916128 0 4985.61078132 0 555
0.02450000 0.02439640 66599.84392256 0 5283.26321268 0 21582.04940350 0 -3229.16917940 0 5493.90176672 0 592
0.02550000 0.02547300 62222.50971489 0 4460.18904420 0 27178.09496342 0 -1110.41779905 0 6648.10302443 0 837
0.02650000 0.02652900 54985.89118079 0 5782.12329212 0 20795.65347836 0 6167.38535527 0 -4102.02818996 0 723
0.02750000 0.02749970 55637.28689065 0 1899.78238004 0 32049.68058372 0 4008.04510920 0 14425.80152212 0 826
0.02850000 0.02848090 50989.27781339 0 894.27582240 0 23855.47101385 0 2057.55615371 0 7124.53800567 0 831
0.02950000 0.02946900 54440.26999431 0 572.15923879 0 36649.46726935 0 4843.27042111 0 24952.22130567 0 996
0.03050000 0.03053250 54682.16879804 0 -259.88946523 0 42124.00139487 0 1624.88102577 0 33496.68955232 0 1041
0.03150000 0.03150510 54884.16329167 0 606.71299914 0 41998.10610668 0 3623.36755988 0 34464.84679978 0 1036
0.03250000 0.03246190 58880.43943956 0 592.60598247 0 52011.27777785 0 5686.55527960 0 46312.94229628 0 1059
0.03350000 0.03345080 59477.43039988 0 -1937.56220715 0 51642.92165339 0 431.20260269 0 32340.02659211 0 1302
0.03450000 0.03451200 62005.45274928 0 -1181.76333330 0 52146.84002566 0 4716.76813779 0 32084.41419448 0 1339
0.03550000 0.03553350 63555.76329810 0 -163.95388343 0 47351.24120430 0 -827.42092811 0 15689.47547730 0 1365
0.03650000 0.03647120 60173.11427362 0 404.16096923 0 40191.95834722 0 5278.51965807 0 7321.01333979 0 1308
0.03750000 0.03744890 59420.44030067 0 4036.64132466 0 34889.06895837 0 3981.05630679 0 -7649.26282244 0 1579
0.03850000 0.03847530 52442.69395290 0 3430.71404700 0 25528.19224912 0 6236.72892963 0 -18738.27717507 0 1662
0.03950000 0.03950240 47975.09731987 0 4254.15915695 0 13842.63656220 0 3875.61900294 0 -23274.44177756 0 1683
0.04050000 0.04050350 44525.22920402 0 2784.20802021 0 11586.18833446 0 6448.46906745 0 -25130.04840023 0 1822
0.04150000 0.04152450 42570.03041587 0 706.42768771 0 8986.34946754 0 2268.80170289 0 -14827.99200528 0 1887
0.04250000 0.04250150 40517.71240541 0 1162.51933925 0 7845.71567526 0 3601.17851534 0 -18443.88453242 0 1920
0.04350000 0.04349210 42696.71254961 0 1669.22539290 0 12835.58666321 0 1043.08068084 0 -4089.96697172 0 2005
0.04450000 0.04448520 40270.64290234 0 1835.94672454 0 10756.16744383 0 177.66635326 0 -5057.50598339 0 2151
0.04550000 0.04548030 40354.16093727 0 2377.47631416 0 17565.20286478 0 1998.22799915 0 7942.45271546 0 2274
0.04650000 0.04648670 38720.55716654 0 146.40273138 0 16626.15890272 0 1543.28514211 0 4131.32132576 0 2311
0.04750000 0.04749250 39553.82660523 0 404.27000354 0 17061.28449251 0 5393.54523700 0 5106.66134904 0 2568
0.04850000 0.04851840 38011.94654446 0 206.78975524 0 15452.97218592 0 3505.21708005 0 4343.15138879 0 2493
0.04950000 0.04949480 37244.99694508 0 485.99740281 0 10067.50897680 0 4769.83524989 0 2099.96712891 0 2644
0.05050000 0.05050630 36601.35728422 0 -17.41918681 0 8527.20260713 0 3996.19746333 0 5462.91129266 0 2829
0.05150000 0.05149060 37848.73229584 0 -825.25710285 0 4178.31848647 0 3930.97920779 0 2925.64912836 0 2784
0.05250000 0.05249300 37382.91972955 0 -1029.56492240 0 4375.52446289 0 3845.82003785 0 7083.98173783 0 3055
0.05350000 0.05348950 36978.14389673 0 -311.93929844 0 5450.34424514 0 557.62957366 0 5303.14792382 0 3009
0.05450000 0.05448610 39027.65174451 0 544.92314207 0 5362.27374666 0 -1751.74300992 0 11586.18833446 0 3336
0.05550000 0.05550870 37595.59284138 0 1969.71046824 0 10290.26495234 0 -5390.36413284 0 10870.95696910 0 3349
0.05650000 0.05647670 37313.11528851 0 2012.37997842 0 13463.26460003 0 -4123.12689138 0 12669.22503239 0 3324
0.05750000 0.05747970 35792.25524461 0 1791.46746960 0 17404.91118536 0 -5026.96513536 0 10191.33598525 0 3639
0.05850000 0.05849280 35044.75197100 0 1402.61963886 0 20358.84179096 0 -1813.22936942 0 9296.95112854 0 3846
0.05950000 0.05951020 34104.02191132 0 792.92112289 0 21506.62463710 0 -501.37461301 0 6134.18047301 0 3787
0.06050000 0.06049470 33514.67459349 0 619.14853104 0 18618.56424478 0 3777.10593993 0 3929.77645816 0 3930
0.06150000 0.06148310 32365.43046276 0 518.75715530 0 18647.22790415 0 3812.90741251 0 1503.20098160 0 4083
0.06250000 0.06249100 31506.75715342 0 1049.20346330 0 12662.03101592 0 4933.63401234 0 -611.42620399 0 4303
0.06350000 0.06350600 30026.70067167 0 651.50137198 0 10969.38010690 0 4485.57043355 0 49.08072773 0 4470
0.06450000 0.06451750 29037.74822035 0 491.43900183 0 8300.38875668 0 2474.40444541 0 -1377.01343650 0 4479
0.06550000 0.06550280 28998.85556883 0 -6.32606962 0 7038.41213977 0 90.58986553 0 -102.56273225 0 4636
0.06650000 0.06648880 28829.23414929 0 291.66678484 0 6430.82124580 0 -677.27393597 0 -1979.24254006 0 4653
0.06750000 0.06749660 29083.94729486 0 625.39833285 0 6685.66927918 0 -1848.77230703 0 -723.06272673 0 5220
0.06850000 0.06852730 28201.55621248 0 553.01303840 0 7338.77356795 0 -1247.92580350 0 -360.38650309 0 5029
0.06950000 0.06949320 28195.82348060 0 575.44600507 0 7545.11819342 0 145.44615200 0 -485.62983353 0 5040
0.07050000 0.07048030 28146.25221088 0 -60.52224889 0 8156.77820294 0 641.70402080 0 -457.23032946 0 5475
0.07150000 0.07148790 28269.56214940 0 94.74935592 0 8997.52267437 0 200.16114350 0 -1746.81960490 0 5509
0.07250000 0.07249820 28400.62813692 0 -100.72882008 0 8758.23170161 0 -3.28932914 0 220.32012652 0 5916
0.07350000 0.07351270 28790.90353030 0 -154.49937210 0 9903.36175418 0 437.45914889 0 776.44008079 0 5721
0.07450000 0.07449140 28861.94444292 0 430.93844740 0 9953.66366620 0 844.15376079 0 2130.12579482 0 6028
0.07550000 0.07549160 28523.03882338 0 594.14707569 0 10995.86308002 0 1905.59379647 0 2841.20936007 0 6183
0.07650000 0.07648840 27228.34067219 0 1203.99734045 0 10193.82016906 0 855.28987347 0 1907.67331686 0 6330
0.07750000 0.07749960 26234.10511503 0 1644.48472064 0 10518.23658981 0 837.84325947 0 2368.70860659 0 6583
0.07850000 0.07848650 24892.30863727 0 762.41399681 0 8309.70725614 0 918.80292230 0 1872.88350285 0 6549
0.07950000 0.07947320 24324.65577536 0 152.54687107 0 8006.08603924 0 395.36853223 0 824.30389567 0 6828
0.08050000 0.08048110 24198.42326765 0 -184.02294125 0 6489.99203125 0 397.97411507 0 -1342.49339810 0 7147
0.08150000 0.08149960 24299.92634375 0 -36.05652294 0 5667.19887904 0 429.21075938 0 -1740.04149251 0 7386
0.08250000 0.08250610 23732.94792088 0 610.28752607 0 4511.98596277 0 -5.98960322 0 -3360.84216206 0 7227
0.08350000 0.08350160 23735.08364452 0 776.53787445 0 4867.46030149 0 227.65802332 0 -2755.10597547 0 7798
0.08450000 0.08449610 22712.29683450 0 584.19123134 0 4773.53342398 0 -312.61823374 0 -3589.71305159 0 7371
0.08550000 0.08548940 22561.11008217 0 298.56966846 0 6000.01206589 0 571.16781340 0 -3070.40622847 0 8256
0.08650000 0.08650700 21980.53047192 0 434.41180848 0 5958.52282404 0 -215.23485613 0 -2033.14146032 0 8037
0.08750000 0.08749060 21972.66201640 0 496.31632018 0 7771.24636417 0 -85.15815828 0 -1439.06182853 0 8155
0.08850000 0.08849210 21756.39189634 0 613.88003805 0 7889.90267329 0 -384.91472705 0 -353.88041444 0 8718
0.08950000 0.08949900 21151.19526098 0 509.25655730 0 7896.56837917 0 514.43400103 0 817.72699092 0 8571
0.09050000 0.09049190 20981.46143495 0 270.25222113 0 8607.19107773 0 693.34357026 0 1310.56995003 0 8932
0.09150000 0.09150830 21119.04699989 0 -38.46427033 0 7914.82319596 0 1297.94669926 0 1997.37370969 0 9285
0.09250000 0.09250820 20786.54855127 0 108.52387414 0 8114.62576270 0 775.45427572 0 1846.32184517 0 9204
0.09350000 0.09350330 20911.99421343 0 316.20175319 0 7189.28415388 0 768.99764594 0 1543.21769821 0 9349
0.09450000 0.09448040 20102.33014128 0 600.09113179 0 7106.39559539 0 68.14768153 0 2315.85506685 0 9564
0.09550000 0.09549270 19853.01250806 0 706.44230056 0 6401.66299781 0 -597.85873856 0 1545.57823486 0 10155
0.09650000 0.09649430 18943.75627043 0 401.03269613 0 7630.64830483 0 -379.26067973 0 549.48797033 0 9913
0.09750000 0.09749140 18677.01562859 0 420.95225329 0 6056.14787564 0 551.61357739 0 67.01912019 0 10476
0.09850000 0.09850240 18276.06161701 0 200.07571456 0 6592.00093663 0 336.80699005 0 -1512.55320301 0 10575
0.09950000 0.09950330 18124.20042564 0 337.16331868 0 5838.09049211 0 373.70105388 0 -882.11231424 0 10882
0.10050000 0.10051200 17680.41953478 0 459.45260611 0 6084.66540654 0 474.82532005 0 -2289.94536692 0 10875
0.10150000 0.10150300 17255.52293714 0 423.22061661 0 4836.11012660 0 466.75340876 0 -1270.85673100 0 11118
0.10250000 0.10250800 17069.82738707 0 155.83026515 0 5631.67842273 0 566.36693147 0 -1016.59545959 0 11575
0.10350000 0.10349800 17004.63161283 0 86.37552075 0 4151.37464667 0 197.19136358 0 -1118.83479831 0 11364
0.10450000 0.10450100 16979.11533567 0 82.87372083 0 4935.70229207 0 12.82164826 0 -1776.73097649 0 12093
0.10550000 0.10551000 16917.85378919 0 118.98116392 0 4933.22934891 0 -1718.33579595 0 -2269.52110454 0 12067
0.10650000 0.10649700 16811.40482676 0 462.03570765 0 5512.05541765 0 -730.09038156 0 -2042.78593864 0 12054
0.10750000 0.10749900 16771.72532968 0 240.54430532 0 5476.65860850 0 -1146.23163634 0 -2061.55782537 0 12807
0.10850000 0.10850100 16360.76713896 0 202.71389528 0 6271.49626234 0 532.02786755 0 -2319.53075964 0 12736
0.10950000 0.10950300 16260.38812793 0 278.77825471 0 5791.83521435 0 751.93658626 0 -2181.70914103 0 12933
0.11050000 0.11050200 15895.62901171 0 433.18882568 0 6240.86548910 0 1199.08517608 0 -2017.92161923 0 13428
0.11150000 0.11150900 15437.12286839 0 428.17999171 0 5541.73073558 0 1000.46062953 0 -304.76776327 0 13453
0.11250000 0.11250000 15186.11913757 0 114.80413811 0 5271.29191965 0 854.29057962 0 -250.38099877 0 13668
0.11350000 0.11349100 15289.19590477 0 -123.45494291 0 5350.16756583 0 441.79804007 0 912.77118911 0 13791
0.11450000 0.11448600 15395.08283466 0 -113.50359482 0 5560.94100768 0 199.49007665 0 933.69566045 0 14205
0.11550000 0.11549300 15578.53025459 0 -69.75801715 0 5463.78806342 0 43.37643470 0 1736.61309403 0 14776
0.11650000 0.11649800 15473.99220279 0 236.28747089 0 5585.55803278 0 -109.14997839 0 998.50588037 0 14553
0.11750000 0.11747300 15367.43083386 0 285.35403539 0 5385.10350830 0 191.67670033 0 1253.78218253 0 14568
0.11850000 0.11849100 14671.07252108 0 456.46708927 0 4729.97590240 0 791.51379342 0 522.48680321 0 16015
0.11950000 0.11950300 14451.20539278 0 223.40680921 0 4337.66595123 0 723.62363520 0 -135.96016685 0 15270
0.12050000 0.12050700 14083.97333340 0 197.38470277 0 3762.50433463 0 510.71334564 0 -212.42244532 0 15999
0.12150000 0.12150000 13970.55516752 0 -16.27781114 0 3054.72552070 0 478.85284521 0 -628.81436661 0 15670
0.12250000 0.12250700 13951.10884176 0 -41.65594070 0 3220.95226371 0 10.84583411 0 -530.29680734 0 16887
0.12350000 0.12352200 14255.73047656 0 -77.76225972 0 3550.14596102 0 -505.56849980 0 -737.02473900 0 16407
0.12450000 0.12449800 14190.64710883 0 18.51975892 0 4083.04273087 0 -247.68998699 0 -199.94757114 0 16306
0.12550000 0.12549900 14325.08529158 0 37.80466894 0 4204.48672137 0 -407.59386396 0 -134.46853250 0 17523
0.12650000 0.12650100 14279.78546913 0 95.94558597 0 4944.63860940 0 262.15333228 0 586.53153482 0 17154
0.12750000 0.12750600 14332.39171455 0 173.59274143 0 4483.51339447 0 574.70637025 0 261.78801113 0 18007
0.12850000 0.12850300 14025.07232356 0 238.87619275 0 4307.49604467 0 1067.38071959 0 265.36591026 0 17496
0.12950000 0.12949900 13686.72873656 0 364.09704189 0 3936.13866647 0 667.94082367 0 684.94230790 0 18405
0.13050000 0.13049000 13530.03406537 0 256.75444774 0 3424.91387123 0 512.24319820 0 408.05697877 0 18100
0.13150000 0.13148800 13197.08599072 0 280.02034662 0 3241.42148869 0 364.51744223 0 717.49186022 0 19059
0.13250000 0.13249300 12969.12559390 0 278.09931941 0 2901.54917319 0 -223.68108109 0 595.18571182 0 18957
0.13350000 0.13349100 12721.04443226 0 292.27153185 0 3118.67358271 0 -62.65190257 0 690.36817001 0 19468
0.13450000 0.13450700 12539.17070344 0 305.16680637 0 3100.93583586 0 -133.51532532 0 720.31551169 0 19953
0.13550000 0.13551000 12242.41752414 0 233.36040544 0 3068.94494388 0 -52.02690228 0 344.44388815 0 19956
0.13650000 0.13649900 12099.99847938 0 244.96300512 0 3052.81461008 0 -187.58397940 0 -174.73591561 0 19723
0.13750000 0.13749600 11760.08120127 0 150.40777524 0 2807.48740787 0 -322.31329500 0 -885.57443467 0 20946
0.13850000 0.13851100 11732.31679396 0 14.07621728 0 2899.15491459 0 -9.20083232 0 -958.26435075 0 20955
0.13950000 0.13949800 11684.09440233 0 -19.80389086 0 2563.90250653 0 -50.28583789 0 -1773.87585121 0 20506
0.14050000 0.14048300 11650.82207616 0 138.60059571 0 2707.08591554 0 -161.56749328 0 -2019.00072170 0 21447
0.14150000 0.14148400 11613.84033526 0 269.49684941 0 3041.79877236 0 -428.72291514 0 -1874.63704436 0 21771
0.14250000 0.14249400 11310.00554600 0 374.15292804 0 3415.12326444 0 -349.93382197 0 -1364.41266703 0 22470
0.14350000 0.14350900 11268.41513830 0 171.92462887 0 3342.65478918 0 -43.70409967 0 -1155.67378295 0 22519
0.14450000 0.14449900 11256.94967455 0 -46.52291765 0 3494.05511387 0 354.22325429 0 -768.78969390 0 22218
0.14550000 0.14550500 11241.10035702 0 -5.92481211 0 3315.68846807 0 520.99067260 0 -831.28996009 0 23559
0.14650000 0.14650700 11303.03634255 0 50.76109260 0 3032.73880787 0 506.85330618 0 -963.87793173 0 23044
0.14750000 0.14750500 11097.15258376 0 166.51787586 0 2619.56620895 0 232.76240282 0 -902.00489384 0 23649
0.14850000 0.14849900 11057.88899076 0 298.76188358 0 2509.72257001 0 350.72291565 0 -532.39206464 0 23640
0.14950000 0.14949500 10514.71826613 0 328.09885793 0 2472.66214455 0 129.53163870 0 -795.30301678 0 24457
0.15050000 0.15050000 10251.76572358 0 416.57289577 0 2576.57071991 0 97.03986332 0 -463.15078020 0 24591
0.15150000 0.15149900 9960.93636722 0 378.58848882 0 2898.32310643 0 134.83048145 0 30.14675082 0 25020
0.15250000 0.15250500 9701.36726054 0 255.36397924 0 2927.43639182 0 127.74999556 0 581.13040214 0 25297
0.15350000 0.15350100 9651.18899568 0 45.58140075 0 3009.83036168 0 492.45403259 0 987.05278134 0 25452
0.15450000 0.15450400 9505.53264350 0 -91.68470491 0 2899.62702192 0 465.41464726 0 1040.10977685 0 26061
0.15550000 0.15549900 9787.66173620 0 -59.41212222 0 2520.15389389 0 737.26528893 0 1086.52467185 0 26128
0.15650000 0.15649500 9681.25773638 0 -25.11892016 0 2339.87633746 0 462.18296017 0 689.24410494 0 26331
0.15750000 0.15749700 9653.58325428 0 152.32205806 0 1928.22122639 0 -101.38032819 0 568.87134845 0 27345
0.15850000 0.15849900 9511.84988922 0 252.85619006 0 1984.89658738 0 -174.66959577 0 420.53634921 0 26980
0.15950000 0.15949700 9196.31358255 0 316.38385173 0 1877.86311112 0 -421.15908126 0 34.35120382 0 27777
0.16050000 0.16050000 9154.29603011 0 221.60268477 0 1947.69003346 0 -351.41758787 0 118.66192944 0 28224
0.16150000 0.16150500 8949.22159818 0 37.23049651 0 2119.79563680 0 -68.59640831 0 -152.80203384 0 28075
0.16250000 0.16249700 9059.23384688 0 10.72002875 0 1925.93937430 0 -26.43486314 0 -83.42125293 0 28590
0.16350000 0.16349900 8918.02879240 0 8.55636086 0 2049.33923802 0 167.81279883 0 -54.44330497 0 29163
0.16450000 0.16449100 9034.23463966 0 89.28403913 0 2115.05208219 0 94.06749805 0 -264.04738193 0 28996
0.16550000 0.16550500 8865.71480390 0 146.07338031 0 2108.18404460 0 -55.81117976 0 34.06659054 0 30777
0.16650000 0.16650700 8823.91082383 0 152.85036864 0 2093.31266368 0 106.04227568 0 -163.77965335 0 29211
0.16750000 0.16749900 8602.20022881 0 70.00553628 0 2200.52599035 0 126.67988561 0 271.28411287 0 30922
0.16850000 0.16850800 8685.63957919 0 108.75239657 0 1814.24102798 0 174.94723985 0 -211.56927993 0 30867
0.16950000 0.16949900 8616.49833654 0 3.24325371 0 2172.08714400 0 130.46461271 0 118.75297871 0 30852
0.17050000 0.17049200 8534.13808863 0 25.60451627 0 1567.17152491 0 59.53565697 0 -290.98447734 0 31257
0.17150000 0.17149500 8704.46766916 0 -24.78338673 0 2004.52276356 0 27.41797045 0 -208.42751805 0 32608
0.17250000 0.17250900 8581.58487537 0 73.59321477 0 1617.94554427 0 -262.22527245 0 -266.75300656 0 32361
0.17350000 0.17350400 8676.17495127 0 160.57831602 0 2077.11488598 0 -322.67636801 0 -557.18107169 0 32508
0.17450000 0.17449800 8417.15663648 0 150.40665117 0 2081.19524219 0 -161.63718532 0 -609.49843239 0 32791
0.17550000 0.17549800 8378.75857358 0 195.52212695 0 2366.71901141 0 -105.05152472 0 -335.86502352 0 33633
0.17650000 0.17650100 8238.17175489 0 95.36455674 0 2189.01556400 0 228.94282970 0 -291.05641751 0 33984
0.17750000 0.17750300 8208.36154915 0 147.87300850 0 2400.78942378 0 392.92256663 0 -246.47599671 0 34069
0.17850000 0.17849800 8066.79679384 0 66.30331556 0 2148.92016285 0 496.58834393 0 196.68103804 0 34536
