### header ###
fiducial parameters:
Omega_m = 0.31
Omega_nu = 0
Omega_de = 0.69
Omega_k = 0
H_0 = 100
w_de = -1
zeff = 0
beta = 0
fgrowth = 0
b_1 = 2
gamma = 0.55
Lx = 3500 Ly = 3500 Lz = 3500
nx = 700 ny = 700 nz = 700
xoffset = 857.220397 yoffset = 15.9954215 zoffset = 262.898189
bins = 400 dk = 0.001
kx_ny = 0.628318531 ky_ny = 0.628318531 kz_ny = 0.628318531
############################
A(data) = 3.06028646 (not used)
A(ran) = 3.0570927 (used)
Ngal = 186580
weighted Ngal = 0
Nran = 9360983
weighted Nran = 0
SN(data) = 3454.50315
SN(ran) = 68.650813
SN(data+ran) = 3523.15396
############################
13 columns: k_central k_mean P_0(k) sigma^{lin}_{P_0(k)} P^img_1(k) sigma^{lin}_{P_1(k)} P_2(k) sigma^{lin}_{P_2(k)} P^img_3(k) sigma^{lin}_{P_3(k)} P_4(k) sigma^{lin}_{P_4(k)} N_modes
### header ###
0.00050000 0 0 0 0 0 0 0 0 0 0 0 0
0.00150000 0.00179520 23747.89798635 0 -34850.62593287 0 -30005.56824829 0 34958.53617989 0 -38107.71688868 0 3
0.00250000 0.00253879 42593.18615638 0 -35790.45674049 0 -16129.43454691 0 -32101.38757709 0 -5180.18644547 0 6
0.00350000 0.00331552 62150.34473720 0 -29902.82870061 0 -36710.61640933 0 -27647.16731842 0 15849.65475022 0 7
0.00450000 0.00420575 77543.40425473 0 -17276.65536052 0 -32517.40406064 0 -45118.39834310 0 1323.26064470 0 24
0.00550000 0.00557378 84899.28609309 0 -430.57762251 0 -32833.04153317 0 -55944.38146862 0 -366.98926133 0 45
0.00650000 0.00659388 78710.40861362 0 6108.66419585 0 -6409.91363544 0 -33870.77840865 0 -4940.50204994 0 40
0.00750000 0.00754703 77660.64424185 0 25.76166056 0 -21392.19481266 0 -23114.03769163 0 -6488.49702470 0 57
0.00850000 0.00846663 77809.02083150 0 -1694.78663266 0 -3954.62953692 0 -15016.27290502 0 -33836.94404995 0 75
0.00950000 0.00948925 82398.01649243 0 -2149.18993846 0 -6557.50337954 0 -16990.01876688 0 -39651.95748611 0 112
0.01050000 0.01054430 74840.81459948 0 2471.49311687 0 -12968.56356136 0 -3967.08417793 0 -33649.56240227 0 105
0.01150000 0.01145670 76790.61787527 0 4809.07636159 0 -2435.80405080 0 -17491.91382202 0 -26809.85124547 0 144
0.01250000 0.01249090 66235.75924538 0 4114.47159032 0 -11820.55590220 0 1885.38310646 0 -15975.32522539 0 169
0.01350000 0.01339930 70335.44937999 0 -2287.16892619 0 -9598.89748848 0 24202.24508890 0 -2623.51167736 0 180
0.01450000 0.01448870 69504.76529097 0 -8443.16750227 0 -19351.00504642 0 15716.79025858 0 -5656.21676328 0 267
0.01550000 0.01550050 78114.54171837 0 -6413.75793799 0 -15507.26452895 0 1620.50841263 0 -2732.83824637 0 238
0.01650000 0.01653350 76802.75777806 0 165.45451030 0 -14892.28852746 0 -8551.30256230 0 -209.63139174 0 315
0.01750000 0.01747870 78925.55466861 0 5641.36786366 0 -10171.87841884 0 -14080.71354468 0 3946.08664237 0 297
0.01850000 0.01844180 69914.71182313 0 5207.64735521 0 3074.91372941 0 -25760.31168672 0 17582.96309294 0 388
0.01950000 0.01947590 67487.74292380 0 5865.86614006 0 12667.53893478 0 -7465.27585127 0 2432.16207997 0 399
0.02050000 0.02045430 69586.82204130 0 620.51876637 0 22821.10633358 0 -6934.28999204 0 9585.48739215 0 462
0.02150000 0.02154770 67654.89140017 0 -787.63239672 0 18718.83084930 0 -2205.03349130 0 2046.64148185 0 571
0.02250000 0.02255340 68773.22374139 0 1262.85338767 0 17124.68176264 0 4974.32516799 0 -4711.94589862 0 510
0.02350000 0.02348930 66877.60040212 0 -20.91221903 0 20787.33539682 0 -4821.67713106 0 -2592.04909596 0 555
0.02450000 0.02439640 68243.90149847 0 -1949.80327580 0 21916.23394974 0 -258.77439267 0 -9518.53807640 0 592
0.02550000 0.02547300 70358.71752700 0 -2379.48839064 0 19189.92652144 0 -2635.97755902 0 -14260.22673686 0 837
0.02650000 0.02652900 71119.70958149 0 -3021.73421081 0 23903.01896644 0 -3601.85295438 0 -23681.91536656 0 723
0.02750000 0.02749970 71410.73002891 0 880.33516736 0 14817.42579359 0 -4652.55030016 0 -21048.34330680 0 826
0.02850000 0.02848090 69685.17773520 0 5235.87262919 0 22062.58722225 0 -652.06228045 0 -28804.72953070 0 831
0.02950000 0.02946900 64058.22038577 0 7237.06816013 0 12387.19710555 0 -1008.73150034 0 -23243.19276853 0 996
0.03050000 0.03053250 55791.39621217 0 5365.23003781 0 10366.39787974 0 5575.77866665 0 -21718.84812290 0 1041
0.03150000 0.03150510 53012.93216449 0 1863.16033996 0 7076.51794574 0 3903.02370942 0 -25960.17045672 0 1036
0.03250000 0.03246190 51230.83939759 0 1072.45474933 0 -2762.15386348 0 1554.09864811 0 -20782.95154304 0 1059
0.03350000 0.03345080 49653.77610004 0 -254.14099644 0 5391.22966295 0 1273.13858309 0 -22586.62635933 0 1302
0.03450000 0.03451200 48999.00819496 0 964.15445173 0 1621.34022079 0 -2589.17148938 0 -8715.32613777 0 1339
0.03550000 0.03553350 50777.72876663 0 -664.78669708 0 6487.23807182 0 1787.94914592 0 -7320.82224873 0 1365
0.03650000 0.03647120 49379.95384823 0 -166.75505359 0 8717.85528418 0 4617.59187639 0 -2099.04539555 0 1308
0.03750000 0.03744890 52240.47464625 0 -829.84890867 0 8501.45027631 0 4347.22050435 0 -38.25654310 0 1579
0.03850000 0.03847530 51607.51360359 0 202.85215529 0 16946.51744855 0 3364.00078491 0 6323.66412238 0 1662
0.03950000 0.03950240 52880.62970538 0 1885.36062516 0 14682.20076530 0 308.12084938 0 11314.83902582 0 1683
0.04050000 0.04050350 50021.90741148 0 2717.24746381 0 17872.85947529 0 -1066.88950316 0 11733.89048507 0 1822
0.04150000 0.04152450 49270.35750360 0 4538.76119281 0 15778.16421157 0 -1301.19524732 0 12488.47536864 0 1887
0.04250000 0.04250150 46256.06460358 0 3384.77350747 0 20458.54636294 0 229.67122387 0 7844.98503297 0 1920
0.04350000 0.04349210 44164.17950254 0 2127.63037036 0 20349.17483133 0 1670.91149051 0 11669.93118241 0 2005
0.04450000 0.04448520 43934.98263414 0 1113.96872061 0 22034.71040844 0 1227.06315575 0 2990.33907331 0 2151
0.04550000 0.04548030 44369.43378489 0 100.70869931 0 21964.45634137 0 -223.30676742 0 2854.45084663 0 2274
0.04650000 0.04648670 42057.45674254 0 818.27665874 0 23153.26756268 0 -1580.62658384 0 -2830.27220691 0 2311
0.04750000 0.04749250 43495.58559706 0 721.20239903 0 21393.20647122 0 -3248.01975067 0 -1347.91139176 0 2568
0.04850000 0.04851840 41776.44047427 0 625.45341204 0 24414.46857470 0 765.61758226 0 -1288.77432826 0 2493
0.04950000 0.04949480 42335.21322210 0 287.56169920 0 22645.19014964 0 1885.50675362 0 -4209.73610526 0 2644
0.05050000 0.05050630 41809.37558091 0 252.55156843 0 21412.54039048 0 4494.20325331 0 -4185.72607530 0 2829
0.05150000 0.05149060 41251.83930465 0 981.37063239 0 17979.87047025 0 272.61275779 0 -8373.27313602 0 2784
0.05250000 0.05249300 39798.42316513 0 935.74258295 0 20417.51798777 0 1847.16489397 0 -3098.33924554 0 3055
0.05350000 0.05348950 40481.06788403 0 888.58018468 0 19547.15440167 0 727.31281677 0 -4723.07414285 0 3009
0.05450000 0.05448610 38708.08004423 0 226.82846330 0 18298.88013800 0 1153.08843329 0 -4157.77057693 0 3336
0.05550000 0.05550870 39042.93902950 0 -111.74926646 0 15496.58591076 0 3182.21698129 0 -1998.49777476 0 3349
0.05650000 0.05647670 38615.56948871 0 -130.26228100 0 15107.88420848 0 4336.77793983 0 -4991.47840100 0 3324
0.05750000 0.05747970 39327.43989950 0 -336.82160289 0 11557.07504907 0 4297.75040049 0 -2638.94509081 0 3639
0.05850000 0.05849280 38298.35832508 0 573.88917494 0 9705.15535984 0 2987.33781957 0 -4599.25837504 0 3846
0.05950000 0.05951020 37724.18588574 0 904.91397425 0 8129.03627694 0 1077.84801355 0 -1678.44272650 0 3787
0.06050000 0.06049470 36624.51302473 0 1020.28239303 0 8507.46402445 0 1654.71371281 0 -2135.03795919 0 3930
0.06150000 0.06148310 35565.86853889 0 688.93948330 0 5419.29756782 0 948.89526837 0 -393.42839591 0 4083
0.06250000 0.06249100 35058.46556489 0 215.18652133 0 5389.30751167 0 3369.13776230 0 -2251.40117556 0 4303
0.06350000 0.06350600 34799.36856554 0 -117.93128714 0 6451.94242853 0 1292.65235276 0 1633.77238050 0 4470
0.06450000 0.06451750 34334.45525131 0 554.51478934 0 4887.58106629 0 799.14956746 0 -70.57723578 0 4479
0.06550000 0.06550280 33469.93680358 0 818.66446119 0 6056.78859273 0 321.04197740 0 2235.22587916 0 4636
0.06650000 0.06648880 33776.80656854 0 1527.78428475 0 6377.56304264 0 -1445.34535229 0 2280.13227883 0 4653
0.06750000 0.06749660 31690.76660588 0 1448.99856378 0 6844.20741709 0 -1327.70070174 0 2106.52042829 0 5220
0.06850000 0.06852730 30846.14410996 0 1846.80519315 0 9598.70639741 0 -2766.89741808 0 2532.83334791 0 5029
0.06950000 0.06949320 30141.80493515 0 1456.60848432 0 7994.09226491 0 -1826.65070639 0 1057.96555054 0 5040
0.07050000 0.07048030 28998.63075581 0 166.14805845 0 9102.15065137 0 -18.56888057 0 1158.50642694 0 5475
0.07150000 0.07148790 29316.51635848 0 36.28043671 0 8336.19022926 0 -845.73869254 0 -2443.38024940 0 5509
0.07250000 0.07249820 29322.02427734 0 -83.23679385 0 8092.56036532 0 1042.78842392 0 -4391.37378043 0 5916
0.07350000 0.07351270 28410.85712909 0 653.58314049 0 8360.48127549 0 43.39127236 0 -5901.70133459 0 5721
0.07450000 0.07449140 27763.84527301 0 954.35934869 0 7439.87198062 0 314.89896177 0 -5993.89715189 0 6028
0.07550000 0.07549160 26831.77051440 0 710.85313190 0 8326.57947289 0 65.88415169 0 -5214.39174565 0 6183
0.07650000 0.07648840 26466.33695913 0 675.57884584 0 7466.11890008 0 788.37652780 0 -5773.96257969 0 6330
0.07750000 0.07749960 25797.40583413 0 507.05001756 0 8036.40207427 0 -456.74585741 0 -4558.92692022 0 6583
0.07850000 0.07848650 25052.93753622 0 453.08814966 0 7995.55354951 0 25.80471226 0 -5133.02067501 0 6549
0.07950000 0.07947320 25084.63617128 0 748.91959560 0 8750.71170627 0 -365.70557901 0 -4692.66818262 0 6828
0.08050000 0.08048110 24466.96241361 0 928.95098178 0 7892.54422621 0 -609.68053093 0 -4830.84950206 0 7147
0.08150000 0.08149960 23436.64436761 0 971.20571194 0 8566.32007168 0 144.34007197 0 -4048.55641443 0 7386
0.08250000 0.08250610 22814.81156917 0 617.11284920 0 7196.08474757 0 2056.33092278 0 -3812.67135884 0 7227
0.08350000 0.08350160 21878.12814376 0 135.34417919 0 6421.27793333 0 2590.20562924 0 -4343.29751725 0 7798
0.08450000 0.08449610 21563.38992329 0 412.42734378 0 5305.42977592 0 2798.28131493 0 -2326.63485090 0 7371
0.08550000 0.08548940 21284.28456564 0 445.20395724 0 5074.15338713 0 1556.84136689 0 -3744.01346418 0 8256
0.08650000 0.08650700 20531.72299920 0 564.57292361 0 4166.62820971 0 -240.24530401 0 -1602.87183164 0 8037
0.08750000 0.08749060 20467.42647702 0 492.02014347 0 5702.39335648 0 -1100.10112981 0 -1051.04018563 0 8155
0.08850000 0.08849210 19994.64470727 0 273.47379163 0 5921.34999207 0 -1017.25640985 0 232.12618199 0 8718
0.08950000 0.08949900 20375.59036055 0 76.14180752 0 6963.07729857 0 -154.01939632 0 202.28675055 0 8571
0.09050000 0.09049190 20412.12247542 0 1.41309593 0 6528.21024374 0 660.56470866 0 228.77759213 0 8932
0.09150000 0.09150830 20250.48191791 0 88.20044040 0 6796.28852302 0 913.56702719 0 -849.81342843 0 9285
0.09250000 0.09250820 20271.16471525 0 292.12203120 0 5953.11607104 0 -32.64678395 0 -84.11333979 0 9204
0.09350000 0.09350330 19891.34312705 0 256.33629553 0 6273.94672420 0 317.22914867 0 -1368.76279886 0 9349
0.09450000 0.09448040 19573.45752438 0 485.57363028 0 5163.32546938 0 -908.25581971 0 -2153.64123615 0 9564
0.09550000 0.09549270 19120.34689342 0 467.23788080 0 5227.36345659 0 -970.84039079 0 -2563.46412115 0 10155
0.09650000 0.09649430 18891.03761850 0 449.74405607 0 5492.63157319 0 -474.68706004 0 -3249.23374095 0 9913
0.09750000 0.09749140 18323.27235008 0 806.36831336 0 5529.80440516 0 -704.08626016 0 -3250.41400928 0 10476
0.09850000 0.09850240 17460.43999997 0 838.51545038 0 5260.92803967 0 546.89250408 0 -3851.88998924 0 10575
0.09950000 0.09950330 16550.05969727 0 735.55333782 0 5181.81633983 0 872.87025121 0 -2756.58974136 0 10882
0.10050000 0.10051200 16052.32368290 0 291.48019004 0 4507.63583094 0 1645.17040034 0 -2741.67339784 0 10875
0.10150000 0.10150300 15801.99439112 0 46.57563630 0 4727.97506657 0 903.61343096 0 -1990.30334038 0 11118
0.10250000 0.10250800 15898.43917439 0 112.08592395 0 4217.05376889 0 3.27197358 0 -2103.32808348 0 11575
0.10350000 0.10349800 15897.42751583 0 211.34783911 0 5107.13345637 0 -547.50961581 0 -1256.70475172 0 11364
0.10450000 0.10450100 15877.86878355 0 194.77462367 0 5400.61560631 0 -748.05518956 0 -258.76090389 0 12093
0.10550000 0.10551000 15919.68400427 0 -40.17498496 0 5683.81256082 0 118.37866504 0 -521.80224758 0 12067
0.10650000 0.10649700 16232.06168809 0 -309.31348242 0 5991.61529979 0 196.97554308 0 -289.31186851 0 12054
0.10750000 0.10749900 16083.79750495 0 -157.01165754 0 5360.77874012 0 510.54248775 0 -1686.18753485 0 12807
0.10850000 0.10850100 16616.04231706 0 100.57752092 0 5241.71776757 0 115.98553050 0 -1623.01507775 0 12736
0.10950000 0.10950300 15888.65980826 0 199.39790332 0 4349.65972556 0 -58.57874037 0 -2547.32254671 0 12933
0.11050000 0.11050200 15842.57314026 0 324.57266579 0 4290.44397751 0 154.42181161 0 -2305.00783890 0 13428
0.11150000 0.11150900 15190.72780437 0 235.45116647 0 4035.14631811 0 410.15898046 0 -2938.07004742 0 13453
0.11250000 0.11250000 15383.84218393 0 144.59860694 0 3547.34703899 0 727.24424880 0 -3366.76598499 0 13668
0.11350000 0.11349100 14958.27114725 0 -0.32565739 0 3175.86601363 0 709.59417902 0 -2403.99300923 0 13791
0.11450000 0.11448600 15394.63320863 0 -248.92645857 0 2993.55389942 0 878.47371560 0 -2303.93997708 0 14205
0.11550000 0.11549300 15448.58833214 0 -395.76083094 0 2694.05800135 0 926.35551552 0 -1203.62639897 0 14776
0.11650000 0.11649800 15892.59403601 0 -56.65928686 0 2211.08096139 0 460.60477281 0 -1009.00914441 0 14553
0.11750000 0.11747300 15617.98493865 0 310.25432489 0 2161.92559574 0 215.20225824 0 -426.67824077 0 14568
0.11850000 0.11849100 15433.97548619 0 424.59984445 0 2241.10473949 0 270.25896553 0 -49.28631923 0 16015
0.11950000 0.11950300 15117.21394859 0 438.48429624 0 2518.64764669 0 193.36279794 0 -580.02544617 0 15270
0.12050000 0.12050700 14723.45395348 0 285.41923117 0 1895.89311489 0 47.13497108 0 -231.69229287 0 15999
0.12150000 0.12150000 14587.21726662 0 332.62771611 0 2477.82160324 0 -403.69785442 0 -520.21394364 0 15670
0.12250000 0.12250700 14106.00500883 0 284.13554885 0 2045.67478588 0 -317.09875712 0 -185.66295219 0 16887
0.12350000 0.12352200 13986.06726553 0 339.31253110 0 2455.86861236 0 -213.48693494 0 -925.25393175 0 16407
0.12450000 0.12449800 13638.39393842 0 354.55148129 0 2550.72846388 0 -683.83173161 0 -634.31891327 0 16306
0.12550000 0.12549900 13661.77449194 0 254.04545091 0 2712.66127831 0 -428.26317253 0 -1067.58529944 0 17523
0.12650000 0.12650100 13294.43002605 0 162.76012632 0 2974.54595904 0 -406.92616931 0 -1196.48858576 0 17154
0.12750000 0.12750600 13299.48831888 0 145.77775120 0 3359.44832137 0 -549.34633813 0 -1508.00073947 0 18007
0.12850000 0.12850300 13443.03142871 0 128.22547508 0 3392.15861500 0 -370.50646094 0 -1332.88264173 0 17496
0.12950000 0.12949900 13217.54397505 0 172.30119066 0 3821.33790056 0 -89.93914425 0 -1673.28326782 0 18405
0.13050000 0.13049000 13165.94938820 0 157.51299056 0 4132.79385101 0 -55.05513359 0 -1376.08046249 0 18100
0.13150000 0.13148800 12971.82335007 0 107.99286580 0 4227.02422609 0 379.67995600 0 -1155.70750491 0 19059
0.13250000 0.13249300 13065.00834463 0 230.08712794 0 4142.89919602 0 585.58732016 0 -728.94495925 0 18957
0.13350000 0.13349100 12763.64649853 0 281.83009139 0 4454.22025866 0 372.37128490 0 -531.15784119 0 19468
0.13450000 0.13450700 12481.84338471 0 245.09901699 0 4357.88788190 0 302.07562742 0 -125.90652884 0 19953
0.13550000 0.13551000 12406.41861830 0 194.60488985 0 4669.00661283 0 287.51448846 0 1153.07719264 0 19956
0.13650000 0.13649900 12268.60824034 0 -49.71672374 0 4133.49077136 0 953.82204558 0 1026.38044605 0 19723
0.13750000 0.13749600 12257.25518310 0 -82.44376594 0 3988.63250538 0 752.29403895 0 962.05694631 0 20946
0.13850000 0.13851100 12300.30687540 0 -89.89789107 0 3013.73086749 0 726.22921804 0 507.81662994 0 20955
0.13950000 0.13949800 12316.38100595 0 218.28669281 0 2791.58188709 0 126.74957764 0 452.37099615 0 20506
0.14050000 0.14048300 11904.97318919 0 233.96178025 0 2259.32583433 0 -181.26785775 0 -74.97053171 0 21447
0.14150000 0.14148400 11768.51168932 0 152.94366604 0 2252.76129430 0 -343.20292031 0 -522.70149964 0 21771
0.14250000 0.14249400 11576.97100086 0 139.46949801 0 2110.29728693 0 -393.78247641 0 -1319.83224623 0 22470
0.14350000 0.14350900 11615.18921335 0 123.69661690 0 2203.13382132 0 -413.79982723 0 -1877.61581680 0 22519
0.14450000 0.14449900 11440.62190750 0 304.75877075 0 2535.59854799 0 -457.17525027 0 -2064.89629863 0 22218
0.14550000 0.14550500 11219.94545234 0 288.12597986 0 2551.95369481 0 -265.78855873 0 -1983.18800847 0 23559
0.14650000 0.14650700 11003.21446560 0 238.46141274 0 2895.81644132 0 -157.43093381 0 -1752.48489287 0 23044
0.14750000 0.14750500 10927.02533495 0 155.27834920 0 2976.19833470 0 282.46069189 0 -1359.96136934 0 23649
0.14850000 0.14849900 10765.09252052 0 123.85735821 0 2854.47332793 0 428.06533707 0 -1463.85870405 0 23640
0.14950000 0.14949500 10571.15757345 0 210.66215941 0 2653.44553026 0 250.09548624 0 -1344.61788109 0 24457
0.15050000 0.15050000 10432.59407189 0 189.20712936 0 2520.94073944 0 393.59475754 0 -1249.08359053 0 24591
0.15150000 0.15149900 10200.80061317 0 206.40757311 0 2295.62189554 0 65.07639853 0 -639.91450920 0 25020
0.15250000 0.15250500 9958.05876063 0 197.61963237 0 2176.04385306 0 221.24298395 0 -899.18911084 0 25297
0.15350000 0.15350100 9862.10856599 0 149.28033797 0 2086.82680821 0 231.75074425 0 -397.34239049 0 25452
0.15450000 0.15450400 9709.49425102 0 111.69632300 0 2023.62062915 0 470.97876937 0 -730.14546075 0 26061
0.15550000 0.15549900 9633.85591225 0 89.68757849 0 1615.98967104 0 408.90002758 0 -194.43403195 0 26128
0.15650000 0.15649500 9647.42337768 0 40.41924431 0 1409.18417889 0 399.57478373 0 -374.72058090 0 26331
0.15750000 0.15749700 9512.87278843 0 79.69801219 0 1571.98252343 0 238.94476072 0 -109.46853843 0 27345
0.15850000 0.15849900 9470.40560997 0 168.84019430 0 1440.92777656 0 24.50832801 0 124.25190505 0 26980
0.15950000 0.15949700 9247.03139864 0 253.89595026 0 1540.08155665 0 52.89692865 0 396.27790087 0 27777
0.16050000 0.16050000 9221.75117515 0 275.52183820 0 1597.25150627 0 -40.04020956 0 841.98543927 0 28224
0.16150000 0.16150500 8968.08341010 0 156.47435444 0 1762.54527527 0 84.59747462 0 543.97667928 0 28075
0.16250000 0.16249700 8861.31970946 0 156.93746925 0 2128.51838177 0 64.04484401 0 1099.82910606 0 28590
0.16350000 0.16349900 8718.73205494 0 75.83415090 0 1978.15219694 0 -44.06537418 0 1086.23353900 0 29163
0.16450000 0.16449100 8862.07283306 0 -41.85456300 0 2438.52428828 0 77.49068560 0 1277.39878972 0 28996
0.16550000 0.16550500 8830.01449717 0 -106.96412145 0 2211.15964594 0 76.97766230 0 1103.95554894 0 30777
0.16650000 0.16650700 9118.67440795 0 -131.95512300 0 2301.20849895 0 -25.31315860 0 870.35459358 0 29211
0.16750000 0.16749900 9179.25027474 0 -102.65366911 0 2056.81427076 0 -25.34586889 0 875.81642577 0 30922
0.16850000 0.16850800 9279.04477193 0 118.86088896 0 2612.01249166 0 -320.81828845 0 764.16641425 0 30867
0.16950000 0.16949900 9169.84185007 0 279.30881343 0 2355.81558020 0 -315.74201058 0 937.70407650 0 30852
0.17050000 0.17049200 8877.39384001 0 341.35046107 0 2891.12908996 0 -201.36726533 0 803.06131391 0 31257
0.17150000 0.17149500 8669.71157710 0 386.37151538 0 2646.63369591 0 -32.68342847 0 922.79560144 0 32608
0.17250000 0.17250900 8462.15296135 0 196.43823998 0 3017.58641069 0 278.86705586 0 1217.78961889 0 32361
0.17350000 0.17350400 8172.62752047 0 118.86313709 0 2696.71079492 0 318.04184772 0 971.76886854 0 32508
0.17450000 0.17449800 8205.56262712 0 -3.47293393 0 2596.41046845 0 501.56120781 0 905.81210225 0 32791
0.17550000 0.17549800 8085.95086269 0 3.05463560 0 2366.21318213 0 58.70396122 0 442.65345359 0 33633
0.17650000 0.17650100 8081.56700890 0 77.19797906 0 2279.87374386 0 24.33870659 0 515.56031423 0 33984
0.17750000 0.17750300 8038.71764832 0 135.85338067 0 2480.36199030 0 -213.91295561 0 322.78652639 0 34069
