### header ###
fiducial parameters:
Omega_m = 0.31
Omega_nu = 0
Omega_de = 0.69
Omega_k = 0
H_0 = 100
w_de = -1
zeff = 0
beta = 0
fgrowth = 0
b_1 = 2
gamma = 0.55
Lx = 3500 Ly = 3500 Lz = 3500
nx = 700 ny = 700 nz = 700
xoffset = 857.220397 yoffset = 15.9954215 zoffset = 262.898189
bins = 400 dk = 0.001
kx_ny = 0.628318531 ky_ny = 0.628318531 kz_ny = 0.628318531
############################
A(data) = 3.10500065 (not used)
A(ran) = 3.10079762 (used)
Ngal = 189220
weighted Ngal = 0
Nran = 9360983
weighted Nran = 0
SN(data) = 3458.51682
SN(ran) = 69.6322613
SN(data+ran) = 3528.14909
############################
13 columns: k_central k_mean P_0(k) sigma^{lin}_{P_0(k)} P^img_1(k) sigma^{lin}_{P_1(k)} P_2(k) sigma^{lin}_{P_2(k)} P^img_3(k) sigma^{lin}_{P_3(k)} P_4(k) sigma^{lin}_{P_4(k)} N_modes
### header ###
0.00050000 0 0 0 0 0 0 0 0 0 0 0 0
0.00150000 0.00179520 20830.83671515 0 -32661.39679650 0 -30111.90480421 0 48572.76271924 0 -14882.05953530 0 3
0.00250000 0.00253879 35122.98690008 0 -31879.04750563 0 -14485.37697100 0 -24339.49343432 0 -12278.50001298 0 6
0.00350000 0.00331552 56156.38014141 0 -35819.79483890 0 -49380.29106775 0 24505.63025213 0 40059.88070114 0 7
0.00450000 0.00420575 71939.04061327 0 -31619.16366073 0 -48883.00467941 0 -7111.99343945 0 3225.67333702 0 24
0.00550000 0.00557378 103554.27004624 0 -25414.43686373 0 -87594.56932537 0 -4340.44239196 0 6411.19506963 0 45
0.00650000 0.00659388 99607.45276158 0 -13525.20058556 0 -38733.14669536 0 -26614.60114228 0 1335.90637678 0 40
0.00750000 0.00754703 114550.09940431 0 705.11028344 0 -71502.90336491 0 -57822.35698625 0 -1611.34728229 0 57
0.00850000 0.00846663 114949.14250526 0 1209.75255362 0 -30453.50817992 0 -44526.01604957 0 3563.17387522 0 75
0.00950000 0.00948925 110738.16992842 0 8300.24262822 0 -2830.58694513 0 -81844.97647646 0 -621.62821860 0 112
0.01050000 0.01054430 108124.60622695 0 2094.02082468 0 24688.96526555 0 -37984.51935667 0 -16182.71523138 0 105
0.01150000 0.01145670 111157.10898116 0 3905.63154039 0 51353.81211659 0 -33844.92491197 0 -19181.49603339 0 144
0.01250000 0.01249090 110109.03070700 0 3431.21987629 0 53393.54059824 0 -2776.50817446 0 -26390.35016019 0 169
0.01350000 0.01339930 110460.30104235 0 8774.20466630 0 70695.03779687 0 18643.63089591 0 -16879.63557670 0 180
0.01450000 0.01448870 93280.31527812 0 13154.25911144 0 46209.30349654 0 29035.50009021 0 -13978.53602954 0 267
0.01550000 0.01550050 79012.44489876 0 11176.88251939 0 36292.46420214 0 44158.78399019 0 -21992.44556169 0 238
0.01650000 0.01653350 71241.89545493 0 7747.84332935 0 23207.44749920 0 30653.36694992 0 238.76266218 0 315
0.01750000 0.01747870 66607.03793902 0 -1518.99409588 0 2324.56657117 0 16035.46270680 0 -6860.42767609 0 297
0.01850000 0.01844180 67645.33684705 0 -229.66560354 0 9432.06375033 0 -8507.00315777 0 3138.56953450 0 388
0.01950000 0.01947590 68827.62849093 0 -6471.14145998 0 4354.62809319 0 -13815.43418743 0 -4348.52441984 0 399
0.02050000 0.02045430 77904.00433018 0 -3711.59542747 0 7264.60775442 0 -31318.36384717 0 3882.26222752 0 462
0.02150000 0.02154770 82190.85129946 0 -4428.71522215 0 14087.90756115 0 -13448.53934757 0 -13499.34708888 0 571
0.02250000 0.02255340 86350.11688294 0 -901.06180325 0 31169.20041197 0 -17248.32892068 0 -15251.20250530 0 510
0.02350000 0.02348930 88049.02883442 0 2800.76549874 0 17485.05702507 0 -6207.09857430 0 -21818.10306885 0 555
0.02450000 0.02439640 84588.48210038 0 4619.46906506 0 42208.08146234 0 -855.54953250 0 -30631.11046147 0 592
0.02550000 0.02547300 79677.55420251 0 5942.20139918 0 28305.53223174 0 -999.35792169 0 -15457.91807224 0 837
0.02650000 0.02652900 76601.55012998 0 4166.25726824 0 42767.30383620 0 6731.47493090 0 -26898.31516673 0 723
0.02750000 0.02749970 75582.36032820 0 1931.86319723 0 34960.89671654 0 1332.20820268 0 -7194.23004020 0 826
0.02850000 0.02848090 73552.18639967 0 2934.84398066 0 39318.78459844 0 5183.23266182 0 -19365.50548586 0 831
0.02950000 0.02946900 70252.26856458 0 3082.18643044 0 28236.40222974 0 2680.01842858 0 -12808.38428844 0 996
0.03050000 0.03053250 65456.66974321 0 6321.38227029 0 31030.04115592 0 82.38868675 0 -8426.35148877 0 1041
0.03150000 0.03150510 61602.25060756 0 5520.23861139 0 28426.81885313 0 4551.44064683 0 -16613.00734136 0 1036
0.03250000 0.03246190 54182.74668606 0 5253.97007687 0 29516.71234800 0 3498.09050748 0 1268.54115694 0 1059
0.03350000 0.03345080 53786.62615430 0 1308.33306053 0 20125.14866226 0 8655.78441084 0 -13028.13901023 0 1302
0.03450000 0.03451200 51052.56267700 0 219.89410586 0 22581.45566000 0 7567.07118429 0 947.31146068 0 1339
0.03550000 0.03553350 50980.84732534 0 -265.58510295 0 17958.40082735 0 8961.86733025 0 -4276.59549581 0 1365
0.03650000 0.03647120 51779.27074676 0 -908.19174801 0 17178.18726012 0 3501.20416774 0 -3094.21392672 0 1308
0.03750000 0.03744890 51811.98104039 0 60.39163252 0 12746.67311593 0 -189.99959524 0 -5582.25328147 0 1579
0.03850000 0.03847530 51380.11523930 0 707.85525035 0 11686.11771946 0 -1787.46579794 0 -7295.98041062 0 1662
0.03950000 0.03950240 49785.17930708 0 219.40401349 0 11171.66685746 0 -2683.73908398 0 -9597.05402176 0 1683
0.04050000 0.04050350 50332.26177816 0 1320.65281373 0 10096.52109634 0 -1879.31315506 0 -15166.33559228 0 1822
0.04150000 0.04152450 47655.30080657 0 1722.89950014 0 7927.80614755 0 1458.47443235 0 -15944.86306191 0 1887
0.04250000 0.04250150 46504.25817172 0 2004.91618633 0 6425.00982938 0 673.61735229 0 -16354.35996804 0 1920
0.04350000 0.04349210 45088.83543167 0 2293.26135888 0 6064.02757180 0 -1264.30343162 0 -15019.75750675 0 2005
0.04450000 0.04448520 42226.51612953 0 1161.32783027 0 6716.76091910 0 -3396.07036145 0 -16011.63252725 0 2151
0.04550000 0.04548030 43536.27675271 0 1200.68134848 0 9696.64618723 0 -5682.62105185 0 -14168.27821388 0 2274
0.04650000 0.04648670 42183.35203073 0 327.88416150 0 13830.27184640 0 -4841.95526498 0 -14003.37786765 0 2311
0.04750000 0.04749250 43483.22088126 0 790.59655632 0 14567.20890832 0 -2963.35027091 0 -13699.09345237 0 2568
0.04850000 0.04851840 43733.10054701 0 -734.52257015 0 16666.17561932 0 1818.05160858 0 -10393.69017971 0 2493
0.04950000 0.04949480 44163.16784398 0 22.15082633 0 16742.94926381 0 3073.66601718 0 -11568.54051281 0 2644
0.05050000 0.05050630 45010.26328306 0 507.19951822 0 18212.21472086 0 6344.40312298 0 -6762.24059196 0 2829
0.05150000 0.05149060 41673.81333309 0 1911.41645355 0 14748.40819810 0 3987.58712487 0 -8884.09326784 0 2784
0.05250000 0.05249300 41756.65692898 0 1984.50316460 0 17050.38106130 0 2095.42590602 0 4817.63049680 0 3055
0.05350000 0.05348950 38785.19090824 0 1607.36809193 0 17343.08760634 0 3154.34016748 0 144.01072091 0 3009
0.05450000 0.05448610 37943.49098150 0 814.54588677 0 15698.80521741 0 1531.04407347 0 7792.03032737 0 3336
0.05550000 0.05550870 38683.57542563 0 163.22773739 0 17239.44880660 0 867.48485545 0 4518.84275972 0 3349
0.05650000 0.05647670 37788.14518840 0 72.66136483 0 18598.44347998 0 -474.06207986 0 8300.73721686 0 3324
0.05750000 0.05747970 38011.38451192 0 741.79751930 0 16876.82541402 0 558.64010816 0 6855.38062391 0 3639
0.05850000 0.05849280 38532.27626679 0 -379.09319403 0 18377.90191263 0 1618.75487112 0 10477.71404393 0 3846
0.05950000 0.05951020 38144.02419055 0 46.98884262 0 17233.71607473 0 1896.80360760 0 13059.38801927 0 3787
0.06050000 0.06049470 38506.64758313 0 629.61919720 0 18957.58227083 0 3591.87125653 0 10860.89658670 0 3930
0.06150000 0.06148310 38077.47953822 0 306.65394446 0 16695.96334376 0 2191.60091367 0 11463.32802197 0 4083
0.06250000 0.06249100 38298.47073159 0 1342.26858509 0 17135.02316131 0 492.60465731 0 12007.03829783 0 4303
0.06350000 0.06350600 36744.67558104 0 1445.50272140 0 17536.08957939 0 255.41456217 0 11575.95934230 0 4470
0.06450000 0.06451750 34669.98867563 0 1645.40645400 0 15889.22184079 0 240.82194939 0 9217.38980267 0 4479
0.06550000 0.06550280 33430.70693253 0 1210.52815852 0 15197.92182084 0 1419.33448650 0 5477.02954998 0 4636
0.06650000 0.06648880 32369.70191004 0 937.86931407 0 15175.44051937 0 1511.42913794 0 3469.41560747 0 4653
0.06750000 0.06749660 31157.84735473 0 819.46591959 0 12573.00506214 0 1697.37198233 0 1270.02492284 0 5220
0.06850000 0.06852730 30256.23475959 0 371.69572179 0 12562.10163093 0 475.98647927 0 821.90963706 0 5029
0.06950000 0.06949320 29911.70881469 0 510.87296288 0 12449.35790409 0 -1389.42311491 0 217.55267831 0 5040
0.07050000 0.07048030 30784.77015697 0 565.25635518 0 12977.55608194 0 -29.49839009 0 2887.22858416 0 5475
0.07150000 0.07148790 29636.87490432 0 308.76493867 0 15035.15719825 0 416.76735902 0 4143.38254400 0 5509
0.07250000 0.07249820 29828.19077976 0 264.93651740 0 13820.04285423 0 2371.90095140 0 4603.72091338 0 5916
0.07350000 0.07351270 29805.82188480 0 25.24099362 0 14626.44713767 0 2248.89451045 0 5862.39277899 0 5721
0.07450000 0.07449140 28922.86876988 0 480.85143291 0 10611.42158437 0 3056.65891263 0 4166.22354628 0 6028
0.07550000 0.07549160 28656.01572153 0 645.06609943 0 11669.59396289 0 1555.44752620 0 5326.62964320 0 6183
0.07650000 0.07648840 27627.04655362 0 846.84252445 0 8653.53628070 0 361.20931872 0 1695.04516763 0 6330
0.07750000 0.07749960 27143.13653965 0 880.06539175 0 9237.21831056 0 -755.54933140 0 1672.36153446 0 6583
0.07850000 0.07848650 26074.60028116 0 749.54569985 0 7315.71899330 0 -1168.70169715 0 -1955.00769709 0 6549
0.07950000 0.07947320 25447.37197037 0 572.94720841 0 7711.05267951 0 -1598.46549655 0 -2736.77247413 0 6828
0.08050000 0.08048110 24968.85746875 0 267.56458155 0 7373.32732830 0 -212.84959005 0 -5595.43856478 0 7147
0.08150000 0.08149960 24578.24485585 0 342.15079541 0 7516.63438446 0 -187.71999127 0 -5574.62087962 0 7386
0.08250000 0.08250610 24496.07569901 0 178.13733652 0 6543.55373198 0 1304.06161325 0 -6057.10333095 0 7227
0.08350000 0.08350160 24085.11750828 0 102.10343926 0 6355.58757046 0 968.83505870 0 -5053.68416215 0 7798
0.08450000 0.08449610 24238.32757774 0 1.45303396 0 6393.25499106 0 849.51892339 0 -3127.72230655 0 7371
0.08550000 0.08548940 24039.48046631 0 38.81700195 0 5900.31873455 0 1844.98420773 0 -3402.00542504 0 8256
0.08650000 0.08650700 24449.08977895 0 128.41881428 0 6089.58881156 0 98.90884632 0 -917.94526064 0 8037
0.08750000 0.08749060 24140.08429035 0 160.55358659 0 6680.38617333 0 19.63089725 0 -2429.55424900 0 8155
0.08850000 0.08849210 24019.13488849 0 423.05200685 0 6614.70705111 0 -437.28154661 0 105.23204957 0 8718
0.08950000 0.08949900 23356.04890187 0 832.43875460 0 7286.86424287 0 -947.13498246 0 -1671.13630353 0 8571
0.09050000 0.09049190 22788.84566598 0 1350.00215279 0 7883.31565196 0 -1204.49192908 0 -1713.06393075 0 8932
0.09150000 0.09150830 21523.82283272 0 1380.63292603 0 8180.76575160 0 -974.50147073 0 -1991.86579083 0 9285
0.09250000 0.09250820 20344.45375802 0 1013.96402325 0 8200.58301884 0 -913.63671922 0 -2477.20336745 0 9204
0.09350000 0.09350330 19945.86028310 0 442.03409374 0 8779.07186806 0 22.17308282 0 -2572.42291979 0 9349
0.09450000 0.09448040 19698.34115400 0 129.69687626 0 8111.80435937 0 -115.90797001 0 -3699.78150355 0 9564
0.09550000 0.09549270 19665.51845387 0 35.47066023 0 8961.49638878 0 381.35481296 0 -3314.81169732 0 10155
0.09650000 0.09649430 19542.20851535 0 117.01517411 0 7955.44690770 0 71.79235012 0 -2942.30777274 0 9913
0.09750000 0.09749140 19619.88141190 0 151.78025869 0 8496.36950218 0 898.47870171 0 -1905.90853469 0 10476
0.09850000 0.09850240 19058.86053392 0 177.71356399 0 8220.80494951 0 1462.26253164 0 -2261.00069129 0 10575
0.09950000 0.09950330 19179.92234229 0 333.37521938 0 7823.42546487 0 1149.89608848 0 -1068.62281150 0 10882
0.10050000 0.10051200 18882.60713046 0 293.89692995 0 7695.48437825 0 1506.29216056 0 -626.87760249 0 10875
0.10150000 0.10150300 18337.54797651 0 349.12786731 0 7369.47178509 0 837.97814728 0 168.77949479 0 11118
0.10250000 0.10250800 18203.44701329 0 206.55707377 0 6393.35615692 0 362.66161079 0 876.77974954 0 11575
0.10350000 0.10349800 18028.43008141 0 206.79087930 0 7022.61902549 0 599.92139797 0 365.55945055 0 11364
0.10450000 0.10450100 17752.24729295 0 366.51153367 0 6894.54305106 0 -341.94396743 0 1448.35784669 0 12093
0.10550000 0.10551000 17591.28117448 0 502.55150914 0 6541.10327012 0 -38.42650174 0 1058.23420209 0 12067
0.10650000 0.10649700 17056.11379318 0 743.54431642 0 7361.47968242 0 25.06957370 0 2100.28186713 0 12054
0.10750000 0.10749900 16475.08455689 0 586.81704735 0 6866.71119985 0 129.52264618 0 1533.20227841 0 12807
0.10850000 0.10850100 16142.13648224 0 489.90577707 0 7176.46981204 0 337.35778193 0 2120.66116691 0 12736
0.10950000 0.10950300 15705.66201436 0 239.87998286 0 7311.32389886 0 255.13354590 0 2090.56994490 0 12933
0.11050000 0.11050200 15466.01134077 0 217.00413456 0 7081.69988573 0 400.16716602 0 1317.46046893 0 13428
0.11150000 0.11150900 15478.03883705 0 -48.15404848 0 6806.01168590 0 277.27762784 0 1175.77206646 0 13453
0.11250000 0.11250000 15600.56193002 0 -178.90282484 0 6468.88208918 0 216.40275974 0 141.32982571 0 13668
0.11350000 0.11349100 15650.02079324 0 -301.76650952 0 5724.18897825 0 246.97620567 0 -75.35867138 0 13791
0.11450000 0.11448600 15819.08018023 0 -265.65704312 0 4958.99292039 0 903.54373893 0 -994.69867197 0 14205
0.11550000 0.11549300 16054.90903257 0 -209.55607938 0 4230.95845384 0 271.55051629 0 -1040.82131005 0 14776
0.11650000 0.11649800 15926.31598820 0 135.60271416 0 4268.88440941 0 509.10818071 0 -1218.73383356 0 14553
0.11750000 0.11747300 15799.85866748 0 501.28243967 0 4218.24527787 0 380.73882530 0 -812.37082085 0 14568
0.11850000 0.11849100 15448.58833214 0 546.68904830 0 4143.80968873 0 388.42743040 0 8.67343223 0 16015
0.11950000 0.11950300 14985.81074154 0 634.37736465 0 4874.08104477 0 255.16501972 0 423.19251498 0 15270
0.12050000 0.12050700 14663.20406556 0 492.59678885 0 5223.82265161 0 181.09250360 0 1674.08135402 0 15999
0.12150000 0.12150000 14259.88951734 0 299.88370053 0 5759.23732723 0 199.79469829 0 1886.18119266 0 15670
0.12250000 0.12250700 14133.88182264 0 259.05878114 0 6054.23696501 0 176.19832427 0 2733.95107079 0 16887
0.12350000 0.12352200 14026.19638864 0 104.71183226 0 5927.30753696 0 47.63068378 0 2686.31319299 0 16407
0.12450000 0.12449800 14136.01754628 0 90.95237651 0 6624.35152944 0 70.38861766 0 3180.92430646 0 16306
0.12550000 0.12549900 14064.97663366 0 -4.10519805 0 6217.10275345 0 -26.41406793 0 2429.32943598 0 17523
0.12650000 0.12650100 14250.55977723 0 -54.54469564 0 6310.47883908 0 -165.69843243 0 2462.83781581 0 17154
0.12750000 0.12750600 14040.58442157 0 38.94638184 0 5583.80449127 0 290.70121294 0 1627.47761609 0 18007
0.12850000 0.12850300 14005.85081081 0 -7.51420640 0 5116.17093956 0 662.76000775 0 1143.61256472 0 17496
0.12950000 0.12949900 14061.04240590 0 -75.56370085 0 4168.87633986 0 1076.95775402 0 737.16637120 0 18405
0.13050000 0.13049000 13699.65548490 0 138.04867976 0 3120.17982991 0 1014.05394846 0 -265.68289661 0 18100
0.13150000 0.13148800 13537.56530136 0 103.58124761 0 2272.21886071 0 724.36439408 0 -884.80669822 0 19059
0.13250000 0.13249300 13077.71027996 0 368.77315260 0 1784.94789218 0 -87.48339929 0 -1172.86073792 0 18957
0.13350000 0.13349100 12975.08313878 0 477.89626583 0 1682.15214124 0 -275.73091430 0 -646.24299557 0 19468
0.13450000 0.13450700 12346.95557594 0 248.24639920 0 1706.18465250 0 -276.75268945 0 -347.01350091 0 19953
0.13550000 0.13551000 12523.20897940 0 23.91167427 0 2163.22951123 0 -91.53823923 0 -97.36966401 0 19956
0.13650000 0.13649900 12625.49890105 0 -127.38467441 0 2531.82168935 0 91.75473416 0 -0.51406643 0 19723
0.13750000 0.13749600 12884.03386786 0 -186.62177970 0 2881.46213033 0 91.00554479 0 -122.45227687 0 20946
0.13850000 0.13851100 12916.51934847 0 63.33702023 0 3297.81583341 0 -490.86123238 0 297.73223998 0 20955
0.13950000 0.13949800 12912.69752723 0 201.88770745 0 3388.13446203 0 -523.67718813 0 -404.35093623 0 20506
0.14050000 0.14048300 12782.19357224 0 305.63329338 0 4205.82435881 0 -400.95176344 0 318.00475357 0 21447
0.14150000 0.14148400 12529.27893079 0 479.50030669 0 3670.56705230 0 -297.76821006 0 -459.64706937 0 21771
0.14250000 0.14249400 12105.50639823 0 352.18307618 0 3982.37146293 0 204.54949355 0 -5.16855237 0 22470
0.14350000 0.14350900 11777.50420990 0 329.63882708 0 3598.73929413 0 370.20521150 0 -478.88544309 0 22519
0.14450000 0.14449900 11758.28269715 0 185.55054568 0 3768.92274620 0 581.94197712 0 254.40290360 0 22218
0.14550000 0.14550500 11547.29568293 0 92.68838261 0 3745.86817155 0 336.97897200 0 -322.68086427 0 23559
0.14650000 0.14650700 11534.70615411 0 -47.48747789 0 3497.64088146 0 193.38527924 0 8.99328495 0 23044
0.14750000 0.14750500 11477.37883539 0 92.28754101 0 3690.74402036 0 141.07129074 0 274.52254435 0 23649
0.14850000 0.14849900 11479.17733950 0 158.48867905 0 3563.07270936 0 169.05151854 0 86.39092045 0 23640
0.14950000 0.14949500 11211.09906022 0 278.33200088 0 3678.00836308 0 174.99557465 0 414.27755489 0 24457
0.15050000 0.15050000 10964.13072301 0 292.44126568 0 3394.13696952 0 323.78357211 0 84.73225002 0 24591
0.15150000 0.15149900 10700.82972029 0 238.65812413 0 3193.92973935 0 143.55097829 0 315.89263530 0 25020
0.15250000 0.15250500 10496.96927863 0 194.50597212 0 3105.55574331 0 134.33476876 0 285.18767376 0 25297
0.15350000 0.15350100 10450.39926265 0 69.70417443 0 2934.69785220 0 148.30914574 0 277.52941842 0 25452
0.15450000 0.15450400 10291.05179789 0 136.14563759 0 3204.23741607 0 -242.36978700 0 366.85549758 0 26061
0.15550000 0.15549900 10339.72381555 0 75.97724439 0 3465.58254557 0 -148.21809647 0 210.41036884 0 26128
0.15650000 0.15649500 10159.52494368 0 200.16226757 0 3332.18974335 0 -162.02498777 0 405.87741659 0 26331
0.15750000 0.15749700 10015.71205823 0 230.65365674 0 3234.18250962 0 -96.62811829 0 -214.51770262 0 27345
0.15850000 0.15849900 9788.61719151 0 189.83323361 0 3348.93831293 0 53.95085206 0 130.42077417 0 26980
0.15950000 0.15949700 9657.02289341 0 271.36504556 0 3087.69434930 0 198.08499531 0 -296.10009749 0 27777
0.16050000 0.16050000 9436.06542199 0 187.33331289 0 3054.55691094 0 385.63525276 0 -73.54398072 0 28224
0.16150000 0.16150500 9246.05346203 0 119.20148068 0 2574.61484668 0 594.51801716 0 29.62878164 0 28075
0.16250000 0.16249700 9165.72777191 0 95.69739240 0 2715.01057431 0 199.23154169 0 325.54835428 0 28590
0.16350000 0.16349900 9220.80696049 0 -3.32813187 0 2572.42291979 0 344.57540377 0 589.90373004 0 29163
0.16450000 0.16449100 9159.47797010 0 35.28159248 0 2844.39046422 0 -86.96250753 0 895.35042861 0 28996
0.16550000 0.16550500 9223.24618170 0 52.15448367 0 2896.34475190 0 -265.29059790 0 899.67358288 0 30777
0.16650000 0.16650700 9232.91314133 0 79.24400230 0 3371.18356073 0 -282.16393871 0 1094.89221226 0 29211
0.16750000 0.16749900 9260.10427544 0 179.52330876 0 3392.36094671 0 -250.82388041 0 1049.85766917 0 30922
0.16850000 0.16850800 9148.34972588 0 147.45935255 0 3775.18378865 0 202.40814958 0 926.57470821 0 30867
0.16950000 0.16949900 8951.42476572 0 100.53570570 0 3345.54363641 0 2.24096985 0 610.73265584 0 30852
0.17050000 0.17049200 8971.84902810 0 98.82173128 0 3646.75935405 0 175.26535026 0 427.30546908 0 31257
0.17150000 0.17149500 8909.42969459 0 84.42807801 0 3347.40958444 0 149.81988920 0 363.41361033 0 32608
0.17250000 0.17250900 8763.82954567 0 120.36826022 0 3316.64392338 0 166.97874254 0 620.62330442 0 32361
0.17350000 0.17350400 8639.75524290 0 187.12760898 0 3056.32169311 0 59.84803465 0 253.44520016 0 32508
0.17450000 0.17449800 8533.48613089 0 177.83271489 0 3069.04610973 0 298.61575512 0 745.86438673 0 32791
0.17550000 0.17549800 8311.56196351 0 135.59821790 0 2588.63193814 0 399.58152812 0 366.92856181 0 33633
0.17650000 0.17650100 8328.67023392 0 -103.72411628 0 2615.05870801 0 572.24354367 0 985.42176292 0 33984
0.17750000 0.17750300 8321.39753290 0 -127.29137701 0 1988.31374520 0 476.17419814 0 324.39056725 0 34069
